# OpenSignals Text File Format. Version 1
# {"00:07:80:8C:0A:39": {"position": 0, "device": "biosignalsplux", "device name": "00:07:80:8C:0A:39", "device connection": "BTH00:07:80:8C:0A:39", "sampling rate": 1000, "resolution": [16, 16], "firmware version": 776, "comments": "", "keywords": "", "mode": 0, "sync interval": 2, "date": "2023-3-17", "time": "11:12:33.634", "channels": [1, 2], "sensor": ["EMG", "EMG"], "label": ["CH1", "CH2"], "column": ["nSeq", "DI", "CH1", "CH2"], "special": [{"SpO2": [80, 40, 5, 4, 3, 3]}, {"SpO2": [80, 40, 5, 4, 3, 3]}, {"SpO2": [80, 40, 5, 4, 3, 3]}, {"SpO2": [80, 40, 5, 4, 3, 3]}, {"SpO2": [80, 40, 5, 4, 3, 3]}, {"SpO2": [80, 40, 5, 4, 3, 3]}, {"SpO2": [80, 40, 5, 4, 3, 3]}, {"SpO2": [80, 40, 5, 4, 3, 3]}], "digital IO": [0, 1], "sleeve color": ["gray", "yellow"], "convertedValues": 0}}
# EndOfHeader
0	0	32862	32718	
1	0	32748	32762	
2	0	32810	32804	
3	0	32808	32794	
4	0	32784	32752	
5	0	32856	32818	
6	0	32802	32802	
7	0	32836	32848	
8	0	32800	32839	
9	0	32856	32766	
10	0	32856	32775	
11	0	32812	32770	
12	0	32820	32884	
13	0	32804	32826	
14	0	32752	32804	
15	0	32812	32692	
16	0	32856	32714	
17	0	32832	32632	
18	0	32768	32808	
19	0	32824	32794	
20	0	32850	32828	
21	0	32808	32830	
22	0	32788	32774	
23	0	32828	32842	
24	0	32830	32794	
25	0	32764	32790	
26	0	32840	32704	
27	0	32872	32727	
28	0	32820	32896	
29	0	32804	32742	
30	0	32806	32826	
31	0	32794	32767	
32	0	32794	32770	
33	0	32768	32804	
34	0	32748	32821	
35	0	32844	32720	
36	0	32828	32700	
37	0	32820	32638	
38	0	32892	32748	
39	0	32816	32702	
40	0	32772	32796	
41	0	32768	32832	
42	0	32800	32792	
43	0	32792	32850	
44	0	32788	32844	
45	0	32762	32726	
46	0	32810	32752	
47	0	32832	32748	
48	0	32864	32786	
49	0	32772	32815	
50	0	32820	32826	
51	0	32848	32790	
52	0	32790	32801	
53	0	32828	32647	
54	0	32824	32710	
55	0	32848	32775	
56	0	32856	32820	
57	0	32769	32804	
58	0	32800	32712	
59	0	32804	32702	
60	0	32788	32799	
61	0	32742	32819	
62	0	32784	32816	
63	0	32740	32756	
64	0	32824	32711	
65	0	32764	32718	
66	0	32832	32752	
67	0	32756	32720	
68	0	32830	32866	
69	0	32826	32763	
70	0	32850	32725	
71	0	32816	32716	
72	0	32844	32726	
73	0	32848	32796	
74	0	32832	32807	
75	0	32840	32786	
76	0	32800	32794	
77	0	32816	32766	
78	0	32828	32775	
79	0	32788	32840	
80	0	32800	32804	
81	0	32844	32732	
82	0	32832	32711	
83	0	32832	32721	
84	0	32784	32743	
85	0	32834	32802	
86	0	32848	32712	
87	0	32784	32800	
88	0	32794	32752	
89	0	32812	32724	
90	0	32800	32775	
91	0	32802	32800	
92	0	32794	32864	
93	0	32774	32747	
94	0	32820	32754	
95	0	32856	32770	
96	0	32834	32644	
97	0	32846	32684	
98	0	32762	32688	
99	0	32796	32684	
100	0	32852	32846	
101	0	32770	32814	
102	0	32794	32746	
103	0	32788	32729	
104	0	32826	32806	
105	0	32832	32838	
106	0	32820	32754	
107	0	32884	32736	
108	0	32820	32716	
109	0	32812	32678	
110	0	32828	32727	
111	0	32814	32852	
112	0	32768	32775	
113	0	32772	32743	
114	0	32796	32716	
115	0	32860	32764	
116	0	32772	32756	
117	0	32854	32788	
118	0	32800	32760	
119	0	32772	32833	
120	0	32794	32724	
121	0	32740	32783	
122	0	32736	32799	
123	0	32798	32854	
124	0	32880	32818	
125	0	32828	32830	
126	0	32800	32710	
127	0	32768	32666	
128	0	32788	32668	
129	0	32812	32644	
130	0	32850	32816	
131	0	32828	32908	
132	0	32756	32860	
133	0	32852	32820	
134	0	32830	32830	
135	0	32860	32768	
136	0	32856	32800	
137	0	32830	32775	
138	0	32826	32704	
139	0	32792	32746	
140	0	32824	32812	
141	0	32852	32840	
142	0	32800	32796	
143	0	32770	32879	
144	0	32832	32742	
145	0	32822	32668	
146	0	32762	32775	
147	0	32842	32738	
148	0	32736	32812	
149	0	32852	32734	
150	0	32860	32735	
151	0	32800	32806	
152	0	32900	32807	
153	0	32806	32756	
154	0	32772	32718	
155	0	32863	32728	
156	0	32788	32880	
157	0	32848	32820	
158	0	32775	32690	
159	0	32756	32736	
160	0	32842	32872	
161	0	32745	32788	
162	0	32808	32678	
163	0	32776	32894	
164	0	32784	32904	
165	0	32782	32757	
166	0	32825	32840	
167	0	32888	32804	
168	0	32798	32728	
169	0	32872	32730	
170	0	32812	32846	
171	0	32896	32772	
172	0	32888	32834	
173	0	32800	32810	
174	0	32820	32740	
175	0	32880	32694	
176	0	32844	32668	
177	0	32764	32694	
178	0	32800	32806	
179	0	32776	32761	
180	0	32802	32816	
181	0	32760	32735	
182	0	32850	32716	
183	0	32762	32738	
184	0	32816	32734	
185	0	32800	32794	
186	0	32800	32766	
187	0	32828	32748	
188	0	32802	32711	
189	0	32868	32702	
190	0	32746	32806	
191	0	32810	32762	
192	0	32834	32844	
193	0	32812	32738	
194	0	32768	32734	
195	0	32824	32834	
196	0	32836	32785	
197	0	32802	32838	
198	0	32784	32692	
199	0	32776	32698	
200	0	32820	32774	
201	0	32836	32754	
202	0	32858	32798	
203	0	32798	32719	
204	0	32870	32738	
205	0	32766	32826	
206	0	32820	32742	
207	0	32772	32753	
208	0	32810	32820	
209	0	32840	32765	
210	0	32752	32732	
211	0	32796	32826	
212	0	32876	32762	
213	0	32780	32878	
214	0	32864	32655	
215	0	32864	32836	
216	0	32788	32727	
217	0	32798	32744	
218	0	32826	32801	
219	0	32893	32784	
220	0	32776	32734	
221	0	32880	32790	
222	0	32792	32752	
223	0	32812	32774	
224	0	32788	32792	
225	0	32810	32698	
226	0	32816	32743	
227	0	32820	32808	
228	0	32768	32740	
229	0	32852	32759	
230	0	32806	32770	
231	0	32794	32748	
232	0	32772	32694	
233	0	32820	32724	
234	0	32780	32808	
235	0	32752	32760	
236	0	32836	32772	
237	0	32840	32803	
238	0	32802	32806	
239	0	32758	32638	
240	0	32904	32698	
241	0	32784	32878	
242	0	32800	32848	
243	0	32804	32783	
244	0	32812	32812	
245	0	32838	32710	
246	0	32768	32708	
247	0	32844	32734	
248	0	32816	32820	
249	0	32826	32792	
250	0	32938	32775	
251	0	32752	32775	
252	0	32852	32608	
253	0	32794	32716	
254	0	32744	32794	
255	0	32836	32775	
256	0	32862	32766	
257	0	32812	32752	
258	0	32824	32704	
259	0	32782	32758	
260	0	32804	32796	
261	0	32816	32894	
262	0	32856	32836	
263	0	32820	32756	
264	0	32768	32692	
265	0	32840	32668	
266	0	32798	32687	
267	0	32812	32721	
268	0	32792	32679	
269	0	32864	32807	
270	0	32824	32816	
271	0	32814	32725	
272	0	32780	32838	
273	0	32790	32838	
274	0	32852	32742	
275	0	32784	32738	
276	0	32860	32719	
277	0	32740	32775	
278	0	32836	32742	
279	0	32874	32770	
280	0	32796	32846	
281	0	32846	32830	
282	0	32816	32808	
283	0	32800	32796	
284	0	32752	32736	
285	0	32856	32724	
286	0	32844	32672	
287	0	32804	32788	
288	0	32804	32866	
289	0	32830	32794	
290	0	32788	32775	
291	0	32848	32756	
292	0	32812	32670	
293	0	32774	32712	
294	0	32832	32720	
295	0	32854	32732	
296	0	32840	32802	
297	0	32812	32774	
298	0	32820	32708	
299	0	32782	32756	
300	0	32800	32870	
301	0	32820	32840	
302	0	32812	32775	
303	0	32816	32694	
304	0	32804	32764	
305	0	32816	32750	
306	0	32832	32807	
307	0	32740	32774	
308	0	32856	32742	
309	0	32792	32736	
310	0	32828	32771	
311	0	32824	32644	
312	0	32796	32634	
313	0	32752	32788	
314	0	32824	32788	
315	0	32752	32724	
316	0	32772	32752	
317	0	32728	32676	
318	0	32752	32590	
319	0	32798	32628	
320	0	32746	32644	
321	0	32742	32703	
322	0	32728	32858	
323	0	32748	32764	
324	0	32848	32775	
325	0	32782	32790	
326	0	32728	32775	
327	0	32772	32774	
328	0	32868	32870	
329	0	32844	32710	
330	0	32928	32712	
331	0	32786	32876	
332	0	32872	32884	
333	0	32894	32879	
334	0	32902	32900	
335	0	32904	32932	
336	0	32876	32872	
337	0	32890	32855	
338	0	32988	32754	
339	0	32960	32896	
340	0	32920	32895	
341	0	32902	32903	
342	0	32800	32775	
343	0	32876	32900	
344	0	32888	32848	
345	0	32840	32838	
346	0	32866	32850	
347	0	32860	32902	
348	0	32856	32818	
349	0	32828	32918	
350	0	32846	32711	
351	0	32822	32602	
352	0	32740	32647	
353	0	32784	32680	
354	0	32718	32720	
355	0	32780	32644	
356	0	32776	32727	
357	0	32748	32644	
358	0	32756	32597	
359	0	32718	32620	
360	0	32730	32674	
361	0	32713	32583	
362	0	32744	32884	
363	0	32760	32807	
364	0	32728	32788	
365	0	32788	32862	
366	0	32808	32772	
367	0	32818	32775	
368	0	32832	32722	
369	0	32770	32743	
370	0	32812	32782	
371	0	32810	32823	
372	0	32844	32788	
373	0	32842	32806	
374	0	32808	32748	
375	0	32777	32732	
376	0	32796	32714	
377	0	32890	32706	
378	0	32816	32796	
379	0	32800	32736	
380	0	32736	32830	
381	0	32804	32823	
382	0	32824	32820	
383	0	32817	32823	
384	0	32788	32740	
385	0	32868	32692	
386	0	32832	32700	
387	0	32802	32740	
388	0	32786	32724	
389	0	32846	32836	
390	0	32832	32823	
391	0	32836	32746	
392	0	32802	32839	
393	0	32856	32800	
394	0	32786	32768	
395	0	32800	32756	
396	0	32764	32656	
397	0	32810	32708	
398	0	32872	32760	
399	0	32806	32844	
400	0	32770	32772	
401	0	32726	32711	
402	0	32856	32796	
403	0	32868	32812	
404	0	32808	32871	
405	0	32768	32678	
406	0	32816	32746	
407	0	32764	32679	
408	0	32792	32688	
409	0	32853	32870	
410	0	32760	32820	
411	0	32872	32775	
412	0	32808	32839	
413	0	32826	32788	
414	0	32846	32790	
415	0	32838	32729	
416	0	32852	32624	
417	0	32808	32762	
418	0	32792	32788	
419	0	32760	32748	
420	0	32836	32775	
421	0	32768	32743	
422	0	32816	32794	
423	0	32830	32773	
424	0	32824	32770	
425	0	32800	32703	
426	0	32828	32730	
427	0	32816	32726	
428	0	32752	32824	
429	0	32858	32754	
430	0	32844	32770	
431	0	32794	32764	
432	0	32768	32662	
433	0	32856	32682	
434	0	32836	32766	
435	0	32748	32764	
436	0	32832	32846	
437	0	32808	32724	
438	0	32820	32678	
439	0	32768	32752	
440	0	32788	32930	
441	0	32868	32832	
442	0	32750	32762	
443	0	32846	32839	
444	0	32788	32730	
445	0	32784	32710	
446	0	32780	32812	
447	0	32820	32874	
448	0	32816	32771	
449	0	32790	32804	
450	0	32834	32692	
451	0	32872	32676	
452	0	32790	32692	
453	0	32784	32886	
454	0	32798	32796	
455	0	32844	32748	
456	0	32818	32740	
457	0	32780	32804	
458	0	32792	32798	
459	0	32852	32678	
460	0	32836	32656	
461	0	32820	32846	
462	0	32764	32854	
463	0	32804	32858	
464	0	32836	32758	
465	0	32854	32692	
466	0	32836	32834	
467	0	32846	32863	
468	0	32804	32751	
469	0	32816	32744	
470	0	32788	32728	
471	0	32826	32716	
472	0	32808	32814	
473	0	32798	32724	
474	0	32828	32741	
475	0	32868	32772	
476	0	32820	32902	
477	0	32836	32788	
478	0	32744	32678	
479	0	32840	32758	
480	0	32838	32708	
481	0	32761	32839	
482	0	32806	32790	
483	0	32830	32822	
484	0	32836	32686	
485	0	32778	32682	
486	0	32836	32730	
487	0	32778	32807	
488	0	32804	32708	
489	0	32756	32703	
490	0	32780	32858	
491	0	32858	32798	
492	0	32822	32764	
493	0	32888	32768	
494	0	32748	32772	
495	0	32736	32678	
496	0	32798	32696	
497	0	32828	32775	
498	0	32836	32732	
499	0	32808	32726	
500	0	32836	32810	
501	0	32750	32760	
502	0	32828	32814	
503	0	32734	32775	
504	0	32832	32870	
505	0	32792	32826	
506	0	32858	32744	
507	0	32794	32719	
508	0	32864	32724	
509	0	32812	32766	
510	0	32820	32884	
511	0	32768	32743	
512	0	32819	32830	
513	0	32844	32760	
514	0	32796	32807	
515	0	32892	32647	
516	0	32834	32836	
517	0	32844	32731	
518	0	32792	32764	
519	0	32808	32742	
520	0	32800	32682	
521	0	32802	32750	
522	0	32862	32812	
523	0	32842	32857	
524	0	32876	32822	
525	0	32792	32680	
526	0	32810	32748	
527	0	32818	32828	
528	0	32832	32798	
529	0	32800	32868	
530	0	32824	32812	
531	0	32820	32758	
532	0	32772	32820	
533	0	32784	32748	
534	0	32832	32804	
535	0	32860	32676	
536	0	32790	32796	
537	0	32812	32758	
538	0	32766	32724	
539	0	32872	32836	
540	0	32788	32668	
541	0	32768	32722	
542	0	32792	32796	
543	0	32817	32775	
544	0	32896	32774	
545	0	32794	32740	
546	0	32816	32788	
547	0	32788	32812	
548	0	32792	32862	
549	0	32788	32698	
550	0	32832	32666	
551	0	32820	32775	
552	0	32880	32775	
553	0	32840	32848	
554	0	32794	32742	
555	0	32853	32668	
556	0	32772	32775	
557	0	32822	32884	
558	0	32778	32775	
559	0	32744	32871	
560	0	32808	32756	
561	0	32886	32729	
562	0	32808	32868	
563	0	32812	32802	
564	0	32774	32766	
565	0	32804	32822	
566	0	32820	32706	
567	0	32832	32684	
568	0	32816	32808	
569	0	32748	32796	
570	0	32836	32852	
571	0	32804	32788	
572	0	32772	32724	
573	0	32789	32825	
574	0	32832	32752	
575	0	32804	32772	
576	0	32796	32720	
577	0	32800	32694	
578	0	32888	32775	
579	0	32816	32730	
580	0	32832	32858	
581	0	32834	32842	
582	0	32788	32698	
583	0	32790	32802	
584	0	32834	32758	
585	0	32834	32854	
586	0	32811	32686	
587	0	32774	32786	
588	0	32858	32831	
589	0	32782	32748	
590	0	32826	32786	
591	0	32772	32742	
592	0	32816	32752	
593	0	32852	32818	
594	0	32860	32760	
595	0	32800	32910	
596	0	32774	32700	
597	0	32874	32742	
598	0	32864	32678	
599	0	32868	32807	
600	0	32784	32759	
601	0	32804	32822	
602	0	32790	32774	
603	0	32774	32732	
604	0	32784	32800	
605	0	32846	32848	
606	0	32832	32855	
607	0	32774	32712	
608	0	32860	32762	
609	0	32824	32812	
610	0	32764	32732	
611	0	32874	32791	
612	0	32808	32734	
613	0	32828	32702	
614	0	32848	32847	
615	0	32792	32760	
616	0	32782	32864	
617	0	32814	32750	
618	0	32858	32648	
619	0	32820	32710	
620	0	32804	32796	
621	0	32780	32790	
622	0	32858	32839	
623	0	32832	32688	
624	0	32800	32702	
625	0	32764	32782	
626	0	32832	32750	
627	0	32812	32760	
628	0	32820	32762	
629	0	32852	32838	
630	0	32816	32775	
631	0	32836	32686	
632	0	32798	32886	
633	0	32792	32839	
634	0	32744	32756	
635	0	32840	32711	
636	0	32824	32692	
637	0	32764	32735	
638	0	32872	32790	
639	0	32822	32728	
640	0	32852	32796	
641	0	32856	32855	
642	0	32808	32708	
643	0	32788	32856	
644	0	32832	32774	
645	0	32736	32799	
646	0	32784	32772	
647	0	32802	32804	
648	0	32762	32782	
649	0	32802	32682	
650	0	32808	32732	
651	0	32825	32785	
652	0	32772	32794	
653	0	32796	32826	
654	0	32828	32726	
655	0	32734	32663	
656	0	32884	32804	
657	0	32820	32792	
658	0	32804	32766	
659	0	32820	32668	
660	0	32766	32764	
661	0	32812	32839	
662	0	32776	32775	
663	0	32776	32792	
664	0	32788	32760	
665	0	32780	32726	
666	0	32844	32842	
667	0	32790	32754	
668	0	32804	32711	
669	0	32772	32800	
670	0	32874	32727	
671	0	32808	32702	
672	0	32848	32764	
673	0	32752	32807	
674	0	32834	32807	
675	0	32800	32726	
676	0	32816	32775	
677	0	32860	32712	
678	0	32820	32738	
679	0	32788	32704	
680	0	32818	32810	
681	0	32788	32839	
682	0	32752	32798	
683	0	32800	32828	
684	0	32832	32828	
685	0	32848	32684	
686	0	32784	32748	
687	0	32844	32808	
688	0	32788	32724	
689	0	32808	32839	
690	0	32826	32746	
691	0	32900	32686	
692	0	32772	32721	
693	0	32778	32870	
694	0	32836	32748	
695	0	32736	32794	
696	0	32775	32706	
697	0	32804	32668	
698	0	32840	32814	
699	0	32810	32742	
700	0	32754	32795	
701	0	32876	32842	
702	0	32844	32739	
703	0	32804	32711	
704	0	32836	32866	
705	0	32788	32721	
706	0	32776	32791	
707	0	32800	32676	
708	0	32804	32742	
709	0	32830	32730	
710	0	32808	32798	
711	0	32782	32744	
712	0	32820	32877	
713	0	32800	32738	
714	0	32792	32697	
715	0	32815	32794	
716	0	32822	32740	
717	0	32856	32775	
718	0	32890	32775	
719	0	32808	32756	
720	0	32804	32730	
721	0	32800	32830	
722	0	32892	32902	
723	0	32804	32817	
724	0	32856	32808	
725	0	32841	32644	
726	0	32772	32661	
727	0	32816	32686	
728	0	32816	32769	
729	0	32776	32796	
730	0	32808	32840	
731	0	32828	32751	
732	0	32804	32687	
733	0	32784	32785	
734	0	32808	32764	
735	0	32804	32727	
736	0	32844	32804	
737	0	32750	32804	
738	0	32800	32636	
739	0	32852	32666	
740	0	32804	32876	
741	0	32758	32886	
742	0	32852	32828	
743	0	32786	32790	
744	0	32784	32840	
745	0	32824	32827	
746	0	32840	32768	
747	0	32774	32730	
748	0	32808	32700	
749	0	32784	32700	
750	0	32798	32702	
751	0	32840	32805	
752	0	32768	32756	
753	0	32816	32838	
754	0	32800	32756	
755	0	32900	32815	
756	0	32820	32718	
757	0	32834	32660	
758	0	32834	32710	
759	0	32756	32720	
760	0	32804	32839	
761	0	32826	32774	
762	0	32844	32764	
763	0	32804	32775	
764	0	32822	32788	
765	0	32844	32744	
766	0	32820	32774	
767	0	32784	32775	
768	0	32804	32746	
769	0	32864	32810	
770	0	32784	32847	
771	0	32794	32772	
772	0	32796	32708	
773	0	32844	32758	
774	0	32804	32820	
775	0	32926	32812	
776	0	32842	32756	
777	0	32812	32782	
778	0	32812	32802	
779	0	32760	32698	
780	0	32778	32758	
781	0	32744	32748	
782	0	32836	32746	
783	0	32840	32726	
784	0	32794	32714	
785	0	32816	32836	
786	0	32812	32798	
787	0	32874	32832	
788	0	32804	32767	
789	0	32820	32742	
790	0	32800	32710	
791	0	32810	32871	
792	0	32872	32816	
793	0	32872	32800	
794	0	32814	32756	
795	0	32796	32692	
796	0	32826	32679	
797	0	32794	32758	
798	0	32834	32775	
799	0	32806	32820	
800	0	32774	32775	
801	0	32866	32775	
802	0	32784	32832	
803	0	32784	32729	
804	0	32800	32714	
805	0	32860	32748	
806	0	32842	32796	
807	0	32762	32774	
808	0	32818	32734	
809	0	32782	32772	
810	0	32836	32757	
811	0	32894	32619	
812	0	32806	32684	
813	0	32782	32807	
814	0	32808	32774	
815	0	32892	32800	
816	0	32852	32738	
817	0	32870	32768	
818	0	32776	32700	
819	0	32848	32726	
820	0	32838	32823	
821	0	32768	32748	
822	0	32800	32727	
823	0	32828	32812	
824	0	32866	32876	
825	0	32856	32743	
826	0	32676	32710	
827	0	32780	32864	
828	0	32864	32744	
829	0	32800	32784	
830	0	32834	32762	
831	0	32824	32700	
832	0	32816	32775	
833	0	32780	32762	
834	0	32764	32806	
835	0	32832	32775	
836	0	32740	32731	
837	0	32776	32647	
838	0	32774	32842	
839	0	32860	32772	
840	0	32832	32754	
841	0	32820	32800	
842	0	32790	32680	
843	0	32782	32736	
844	0	32804	32824	
845	0	32838	32766	
846	0	32774	32866	
847	0	32768	32716	
848	0	32824	32826	
849	0	32820	32870	
850	0	32830	32708	
851	0	32806	32652	
852	0	32828	32820	
853	0	32794	32796	
854	0	32806	32740	
855	0	32792	32839	
856	0	32806	32807	
857	0	32830	32673	
858	0	32788	32744	
859	0	32846	32871	
860	0	32848	32820	
861	0	32792	32704	
862	0	32868	32806	
863	0	32836	32770	
864	0	32788	32826	
865	0	32752	32816	
866	0	32808	32796	
867	0	32808	32712	
868	0	32770	32647	
869	0	32810	32740	
870	0	32780	32820	
871	0	32826	32792	
872	0	32868	32806	
873	0	32784	32775	
874	0	32826	32818	
875	0	32856	32775	
876	0	32792	32738	
877	0	32832	32750	
878	0	32812	32623	
879	0	32724	32698	
880	0	32844	32784	
881	0	32844	32764	
882	0	32798	32852	
883	0	32868	32775	
884	0	32770	32815	
885	0	32798	32860	
886	0	32752	32814	
887	0	32808	32662	
888	0	32756	32758	
889	0	32836	32730	
890	0	32840	32766	
891	0	32896	32775	
892	0	32768	32814	
893	0	32852	32810	
894	0	32892	32849	
895	0	32840	32774	
896	0	32792	32700	
897	0	32810	32736	
898	0	32800	32687	
899	0	32820	32804	
900	0	32786	32878	
901	0	32824	32812	
902	0	32788	32791	
903	0	32796	32836	
904	0	32792	32802	
905	0	32828	32823	
906	0	32844	32750	
907	0	32844	32775	
908	0	32830	32723	
909	0	32798	32700	
910	0	32830	32694	
911	0	32792	32884	
912	0	32792	32762	
913	0	32782	32836	
914	0	32848	32770	
915	0	32826	32670	
916	0	32788	32812	
917	0	32774	32744	
918	0	32756	32602	
919	0	32850	32740	
920	0	32806	32839	
921	0	32776	32820	
922	0	32776	32810	
923	0	32792	32775	
924	0	32848	32834	
925	0	32808	32775	
926	0	32752	32686	
927	0	32788	32750	
928	0	32816	32711	
929	0	32810	32834	
930	0	32824	32794	
931	0	32858	32820	
932	0	32786	32786	
933	0	32830	32743	
934	0	32760	32774	
935	0	32784	32700	
936	0	32742	32608	
937	0	32756	32838	
938	0	32828	32772	
939	0	32816	32790	
940	0	32884	32826	
941	0	32860	32812	
942	0	32742	32742	
943	0	32826	32846	
944	0	32768	32796	
945	0	32820	32844	
946	0	32812	32714	
947	0	32836	32700	
948	0	32804	32792	
949	0	32804	32764	
950	0	32844	32775	
951	0	32768	32794	
952	0	32870	32718	
953	0	32776	32664	
954	0	32896	32696	
955	0	32860	32784	
956	0	32788	32735	
957	0	32800	32766	
958	0	32804	32768	
959	0	32788	32718	
960	0	32804	32760	
961	0	32848	32806	
962	0	32754	32759	
963	0	32846	32828	
964	0	32784	32804	
965	0	32838	32714	
966	0	32868	32775	
967	0	32828	32762	
968	0	32780	32884	
969	0	32777	32760	
970	0	32824	32720	
971	0	32782	32694	
972	0	32818	32743	
973	0	32791	32710	
974	0	32801	32708	
975	0	32842	32766	
976	0	32784	32706	
977	0	32804	32684	
978	0	32840	32775	
979	0	32856	32770	
980	0	32864	32772	
981	0	32828	32890	
982	0	32769	32727	
983	0	32796	32764	
984	0	32860	32847	
985	0	32820	32838	
986	0	32802	32790	
987	0	32732	32807	
988	0	32844	32694	
989	0	32848	32823	
990	0	32756	32828	
991	0	32774	32716	
992	0	32796	32726	
993	0	32756	32684	
994	0	32788	32638	
995	0	32772	32792	
996	0	32776	32652	
997	0	32768	32711	
998	0	32728	32702	
999	0	32744	32694	
1000	0	32760	32732	
1001	0	32796	32744	
1002	0	32782	32668	
1003	0	32768	32711	
1004	0	32756	32692	
1005	0	32740	32796	
1006	0	32748	32832	
1007	0	32790	32748	
1008	0	32744	32856	
1009	0	32840	32744	
1010	0	32860	32734	
1011	0	32834	32903	
1012	0	32888	32853	
1013	0	32828	32874	
1014	0	32880	32910	
1015	0	32880	32921	
1016	0	32954	32798	
1017	0	32906	32806	
1018	0	33002	32980	
1019	0	33008	32903	
1020	0	32924	32884	
1021	0	32924	32902	
1022	0	32924	32849	
1023	0	32874	32726	
1024	0	32872	32775	
1025	0	32854	32911	
1026	0	32840	32871	
1027	0	32824	32896	
1028	0	32878	32882	
1029	0	32904	32844	
1030	0	32816	32752	
1031	0	32762	32666	
1032	0	32760	32704	
1033	0	32804	32768	
1034	0	32782	32740	
1035	0	32712	32676	
1036	0	32810	32632	
1037	0	32768	32604	
1038	0	32784	32696	
1039	0	32712	32692	
1040	0	32732	32723	
1041	0	32772	32790	
1042	0	32694	32644	
1043	0	32785	32628	
1044	0	32824	32710	
1045	0	32774	32802	
1046	0	32860	32806	
1047	0	32774	32742	
1048	0	32812	32788	
1049	0	32784	32770	
1050	0	32848	32854	
1051	0	32698	32678	
1052	0	32828	32702	
1053	0	32828	32828	
1054	0	32844	32774	
1055	0	32842	32771	
1056	0	32828	32794	
1057	0	32802	32775	
1058	0	32775	32830	
1059	0	32786	32775	
1060	0	32750	32642	
1061	0	32764	32692	
1062	0	32766	32736	
1063	0	32856	32790	
1064	0	32820	32798	
1065	0	32878	32790	
1066	0	32780	32788	
1067	0	32780	32726	
1068	0	32856	32700	
1069	0	32840	32692	
1070	0	32836	32796	
1071	0	32775	32884	
1072	0	32834	32769	
1073	0	32786	32709	
1074	0	32752	32688	
1075	0	32800	32775	
1076	0	32868	32800	
1077	0	32816	32832	
1078	0	32820	32710	
1079	0	32768	32679	
1080	0	32881	32783	
1081	0	32764	32806	
1082	0	32808	32862	
1083	0	32832	32706	
1084	0	32848	32686	
1085	0	32808	32764	
1086	0	32832	32802	
1087	0	32804	32742	
1088	0	32792	32768	
1089	0	32852	32775	
1090	0	32772	32796	
1091	0	32828	32870	
1092	0	32848	32738	
1093	0	32796	32712	
1094	0	32832	32740	
1095	0	32768	32804	
1096	0	32840	32794	
1097	0	32768	32730	
1098	0	32816	32760	
1099	0	32820	32742	
1100	0	32796	32710	
1101	0	32800	32718	
1102	0	32800	32736	
1103	0	32792	32753	
1104	0	32864	32792	
1105	0	32832	32819	
1106	0	32834	32755	
1107	0	32836	32710	
1108	0	32800	32756	
1109	0	32848	32708	
1110	0	32818	32711	
1111	0	32776	32762	
1112	0	32866	32832	
1113	0	32828	32775	
1114	0	32826	32840	
1115	0	32818	32756	
1116	0	32792	32672	
1117	0	32828	32736	
1118	0	32842	32870	
1119	0	32868	32722	
1120	0	32804	32810	
1121	0	32780	32896	
1122	0	32772	32706	
1123	0	32756	32704	
1124	0	32796	32702	
1125	0	32800	32838	
1126	0	32836	32812	
1127	0	32816	32770	
1128	0	32812	32790	
1129	0	32746	32834	
1130	0	32804	32844	
1131	0	32776	32794	
1132	0	32792	32828	
1133	0	32756	32775	
1134	0	32836	32770	
1135	0	32832	32692	
1136	0	32821	32664	
1137	0	32800	32704	
1138	0	32820	32716	
1139	0	32816	32674	
1140	0	32806	32768	
1141	0	32788	32706	
1142	0	32874	32752	
1143	0	32812	32726	
1144	0	32836	32796	
1145	0	32841	32895	
1146	0	32740	32736	
1147	0	32836	32712	
1148	0	32832	32839	
1149	0	32788	32814	
1150	0	32760	32738	
1151	0	32822	32807	
1152	0	32794	32792	
1153	0	32812	32766	
1154	0	32808	32698	
1155	0	32828	32806	
1156	0	32816	32687	
1157	0	32788	32743	
1158	0	32800	32664	
1159	0	32830	32620	
1160	0	32816	32736	
1161	0	32800	32708	
1162	0	32766	32769	
1163	0	32808	32823	
1164	0	32878	32847	
1165	0	32792	32775	
1166	0	32804	32804	
1167	0	32798	32716	
1168	0	32816	32844	
1169	0	32814	32854	
1170	0	32780	32775	
1171	0	32820	32684	
1172	0	32806	32694	
1173	0	32796	32692	
1174	0	32784	32730	
1175	0	32876	32702	
1176	0	32794	32688	
1177	0	32860	32871	
1178	0	32828	32728	
1179	0	32792	32807	
1180	0	32756	32814	
1181	0	32850	32798	
1182	0	32774	32816	
1183	0	32756	32726	
1184	0	32804	32838	
1185	0	32796	32838	
1186	0	32824	32775	
1187	0	32732	32742	
1188	0	32820	32832	
1189	0	32790	32759	
1190	0	32792	32683	
1191	0	32842	32718	
1192	0	32792	32790	
1193	0	32742	32753	
1194	0	32840	32775	
1195	0	32836	32710	
1196	0	32792	32724	
1197	0	32780	32750	
1198	0	32836	32832	
1199	0	32844	32828	
1200	0	32860	32748	
1201	0	32816	32730	
1202	0	32804	32743	
1203	0	32794	32852	
1204	0	32800	32826	
1205	0	32760	32740	
1206	0	32808	32762	
1207	0	32800	32792	
1208	0	32804	32886	
1209	0	32804	32806	
1210	0	32836	32764	
1211	0	32808	32596	
1212	0	32782	32756	
1213	0	32798	32817	
1214	0	32808	32775	
1215	0	32772	32750	
1216	0	32836	32814	
1217	0	32852	32698	
1218	0	32792	32676	
1219	0	32764	32658	
1220	0	32832	32724	
1221	0	32796	32722	
1222	0	32846	32744	
1223	0	32778	32743	
1224	0	32790	32678	
1225	0	32852	32774	
1226	0	32828	32721	
1227	0	32776	32676	
1228	0	32830	32758	
1229	0	32804	32816	
1230	0	32800	32791	
1231	0	32800	32820	
1232	0	32800	32775	
1233	0	32756	32727	
1234	0	32836	32747	
1235	0	32820	32738	
1236	0	32816	32822	
1237	0	32832	32752	
1238	0	32852	32822	
1239	0	32804	32748	
1240	0	32832	32812	
1241	0	32792	32858	
1242	0	32832	32844	
1243	0	32796	32766	
1244	0	32794	32836	
1245	0	32800	32858	
1246	0	32860	32838	
1247	0	32800	32860	
1248	0	32812	32814	
1249	0	32762	32770	
1250	0	32826	32750	
1251	0	32788	32750	
1252	0	32884	32830	
1253	0	32884	32774	
1254	0	32844	32828	
1255	0	32828	32764	
1256	0	32870	32762	
1257	0	32844	32775	
1258	0	32814	32824	
1259	0	32792	32734	
1260	0	32812	32808	
1261	0	32864	32802	
1262	0	32736	32792	
1263	0	32816	32804	
1264	0	32727	32724	
1265	0	32764	32767	
1266	0	32802	32832	
1267	0	32832	32754	
1268	0	32884	32810	
1269	0	32844	32782	
1270	0	32820	32775	
1271	0	32788	32736	
1272	0	32830	32774	
1273	0	32782	32727	
1274	0	32850	32821	
1275	0	32794	32763	
1276	0	32824	32806	
1277	0	32800	32766	
1278	0	32788	32806	
1279	0	32836	32860	
1280	0	32776	32804	
1281	0	32796	32754	
1282	0	32866	32822	
1283	0	32826	32802	
1284	0	32836	32760	
1285	0	32760	32838	
1286	0	32836	32710	
1287	0	32852	32810	
1288	0	32788	32812	
1289	0	32834	32750	
1290	0	32820	32804	
1291	0	32768	32710	
1292	0	32778	32756	
1293	0	32792	32746	
1294	0	32842	32746	
1295	0	32752	32826	
1296	0	32780	32718	
1297	0	32784	32804	
1298	0	32808	32716	
1299	0	32760	32810	
1300	0	32832	32748	
1301	0	32838	32796	
1302	0	32834	32847	
1303	0	32834	32742	
1304	0	32824	32804	
1305	0	32796	32682	
1306	0	32866	32743	
1307	0	32808	32704	
1308	0	32852	32686	
1309	0	32816	32740	
1310	0	32752	32690	
1311	0	32788	32584	
1312	0	32808	32772	
1313	0	32800	32730	
1314	0	32756	32836	
1315	0	32800	32775	
1316	0	32780	32760	
1317	0	32802	32752	
1318	0	32886	32818	
1319	0	32778	32820	
1320	0	32812	32751	
1321	0	32804	32810	
1322	0	32788	32820	
1323	0	32792	32902	
1324	0	32808	32754	
1325	0	32824	32839	
1326	0	32770	32700	
1327	0	32820	32728	
1328	0	32822	32802	
1329	0	32832	32761	
1330	0	32772	32828	
1331	0	32804	32844	
1332	0	32888	32726	
1333	0	32784	32663	
1334	0	32864	32682	
1335	0	32794	32655	
1336	0	32780	32871	
1337	0	32792	32748	
1338	0	32802	32814	
1339	0	32782	32740	
1340	0	32812	32720	
1341	0	32864	32816	
1342	0	32804	32730	
1343	0	32784	32716	
1344	0	32774	32732	
1345	0	32768	32782	
1346	0	32836	32792	
1347	0	32804	32775	
1348	0	32828	32774	
1349	0	32826	32870	
1350	0	32800	32874	
1351	0	32812	32970	
1352	0	32850	32775	
1353	0	32804	32775	
1354	0	32790	32636	
1355	0	32792	32734	
1356	0	32810	32775	
1357	0	32856	32804	
1358	0	32860	32846	
1359	0	32864	32890	
1360	0	32808	32966	
1361	0	32764	32790	
1362	0	32744	32668	
1363	0	32688	32622	
1364	0	32744	32558	
1365	0	32798	32662	
1366	0	32948	32596	
1367	0	32998	32636	
1368	0	32948	32752	
1369	0	32896	32858	
1370	0	32840	32910	
1371	0	32772	32853	
1372	0	32722	32956	
1373	0	32716	32830	
1374	0	32716	32748	
1375	0	32764	32836	
1376	0	32756	32732	
1377	0	32801	32704	
1378	0	32846	32702	
1379	0	32844	32800	
1380	0	32836	32834	
1381	0	32888	32751	
1382	0	32764	32818	
1383	0	32792	32738	
1384	0	32720	32626	
1385	0	32716	32577	
1386	0	32772	32730	
1387	0	32834	32832	
1388	0	32840	32828	
1389	0	32852	32799	
1390	0	32910	32806	
1391	0	32892	32935	
1392	0	32868	33024	
1393	0	32784	32984	
1394	0	32800	32824	
1395	0	32792	32655	
1396	0	32864	32569	
1397	0	32848	32574	
1398	0	32848	32632	
1399	0	32780	32695	
1400	0	32820	32696	
1401	0	32810	32696	
1402	0	32728	32657	
1403	0	32708	32760	
1404	0	32804	32722	
1405	0	32780	32720	
1406	0	32818	32608	
1407	0	32824	32718	
1408	0	32820	32724	
1409	0	32804	32756	
1410	0	32816	32736	
1411	0	32764	32679	
1412	0	32852	32692	
1413	0	32792	32864	
1414	0	32840	32908	
1415	0	32866	32786	
1416	0	32817	32735	
1417	0	32856	32752	
1418	0	32816	32775	
1419	0	32804	32774	
1420	0	32764	32738	
1421	0	32788	32676	
1422	0	32834	32892	
1423	0	32842	32775	
1424	0	32836	32775	
1425	0	32820	32679	
1426	0	32836	32750	
1427	0	32832	32852	
1428	0	32796	32660	
1429	0	32800	32722	
1430	0	32868	32826	
1431	0	32828	32788	
1432	0	32864	32804	
1433	0	32796	32646	
1434	0	32858	32670	
1435	0	32784	32766	
1436	0	32848	32804	
1437	0	32816	32770	
1438	0	32818	32840	
1439	0	32848	32840	
1440	0	32804	32752	
1441	0	32732	32882	
1442	0	32876	32695	
1443	0	32896	32738	
1444	0	32968	32758	
1445	0	32884	32671	
1446	0	32876	32676	
1447	0	32844	32820	
1448	0	32770	32756	
1449	0	32756	32664	
1450	0	32730	32598	
1451	0	32566	32820	
1452	0	32476	32839	
1453	0	32624	32832	
1454	0	32806	32718	
1455	0	32882	32820	
1456	0	32900	32870	
1457	0	32884	32900	
1458	0	32888	32832	
1459	0	32892	32692	
1460	0	32864	32736	
1461	0	32848	32746	
1462	0	32794	32789	
1463	0	32846	32804	
1464	0	32828	32748	
1465	0	32712	32752	
1466	0	32613	32732	
1467	0	32684	32895	
1468	0	32808	32832	
1469	0	32848	32824	
1470	0	32966	32680	
1471	0	32908	32775	
1472	0	32856	32860	
1473	0	32790	32956	
1474	0	32820	32932	
1475	0	32852	32854	
1476	0	32840	32752	
1477	0	32776	32784	
1478	0	32764	32798	
1479	0	32768	32647	
1480	0	32808	32650	
1481	0	32748	32702	
1482	0	32832	32660	
1483	0	32810	32628	
1484	0	32878	32678	
1485	0	32818	32722	
1486	0	32832	32706	
1487	0	32832	32692	
1488	0	32836	32810	
1489	0	32782	32903	
1490	0	32800	32868	
1491	0	32848	32884	
1492	0	32810	32810	
1493	0	32822	32700	
1494	0	32840	32732	
1495	0	32860	32754	
1496	0	32822	32775	
1497	0	32848	32719	
1498	0	32836	32838	
1499	0	32812	32788	
1500	0	32814	32732	
1501	0	32804	32798	
1502	0	32828	32810	
1503	0	32774	32738	
1504	0	32764	32764	
1505	0	32780	32624	
1506	0	32804	32670	
1507	0	32858	32784	
1508	0	32836	32724	
1509	0	32792	32802	
1510	0	32772	32692	
1511	0	32892	32719	
1512	0	32824	32842	
1513	0	32868	32746	
1514	0	32832	32694	
1515	0	32800	32856	
1516	0	32800	32796	
1517	0	32804	32711	
1518	0	32788	32842	
1519	0	32836	32775	
1520	0	32776	32768	
1521	0	32776	32759	
1522	0	32824	32827	
1523	0	32880	32745	
1524	0	32808	32683	
1525	0	32812	32834	
1526	0	32788	32854	
1527	0	32820	32775	
1528	0	32800	32837	
1529	0	32744	32753	
1530	0	32798	32654	
1531	0	32788	32660	
1532	0	32764	32756	
1533	0	32832	32758	
1534	0	32832	32827	
1535	0	32868	32775	
1536	0	32858	32767	
1537	0	32728	32658	
1538	0	32832	32702	
1539	0	32852	32678	
1540	0	32808	32759	
1541	0	32764	32860	
1542	0	32784	32794	
1543	0	32818	32852	
1544	0	32844	32750	
1545	0	32772	32806	
1546	0	32834	32660	
1547	0	32772	32770	
1548	0	32800	32718	
1549	0	32856	32810	
1550	0	32844	32838	
1551	0	32740	32770	
1552	0	32768	32772	
1553	0	32794	32712	
1554	0	32844	32692	
1555	0	32810	32720	
1556	0	32756	32830	
1557	0	32876	32824	
1558	0	32784	32768	
1559	0	32760	32709	
1560	0	32820	32802	
1561	0	32880	32727	
1562	0	32820	32746	
1563	0	32824	32844	
1564	0	32828	32775	
1565	0	32820	32806	
1566	0	32764	32844	
1567	0	32853	32743	
1568	0	32858	32708	
1569	0	32792	32756	
1570	0	32836	32712	
1571	0	32828	32822	
1572	0	32834	32770	
1573	0	32748	32758	
1574	0	32816	32794	
1575	0	32834	32784	
1576	0	32800	32846	
1577	0	32788	32751	
1578	0	32807	32690	
1579	0	32804	32702	
1580	0	32780	32774	
1581	0	32804	32738	
1582	0	32772	32689	
1583	0	32836	32812	
1584	0	32832	32796	
1585	0	32808	32775	
1586	0	32842	32710	
1587	0	32816	32806	
1588	0	32772	32842	
1589	0	32832	32775	
1590	0	32804	32662	
1591	0	32832	32714	
1592	0	32800	32804	
1593	0	32814	32830	
1594	0	32860	32775	
1595	0	32808	32742	
1596	0	32838	32750	
1597	0	32816	32775	
1598	0	32808	32750	
1599	0	32852	32642	
1600	0	32760	32775	
1601	0	32798	32710	
1602	0	32818	32819	
1603	0	32784	32798	
1604	0	32836	32820	
1605	0	32776	32790	
1606	0	32844	32870	
1607	0	32749	32746	
1608	0	32850	32692	
1609	0	32792	32820	
1610	0	32868	32702	
1611	0	32758	32775	
1612	0	32852	32876	
1613	0	32836	32646	
1614	0	32812	32710	
1615	0	32784	32806	
1616	0	32809	32748	
1617	0	32784	32836	
1618	0	32868	32738	
1619	0	32742	32672	
1620	0	32856	32702	
1621	0	32852	32830	
1622	0	32748	32807	
1623	0	32832	32711	
1624	0	32780	32796	
1625	0	32806	32788	
1626	0	32812	32642	
1627	0	32846	32732	
1628	0	32802	32794	
1629	0	32796	32804	
1630	0	32880	32775	
1631	0	32840	32806	
1632	0	32766	32720	
1633	0	32812	32796	
1634	0	32816	32839	
1635	0	32848	32694	
1636	0	32794	32712	
1637	0	32796	32884	
1638	0	32834	32736	
1639	0	32814	32844	
1640	0	32770	32774	
1641	0	32800	32695	
1642	0	32824	32722	
1643	0	32812	32815	
1644	0	32796	32708	
1645	0	32796	32838	
1646	0	32818	32670	
1647	0	32896	32662	
1648	0	32840	32844	
1649	0	32824	32775	
1650	0	32836	32790	
1651	0	32780	32826	
1652	0	32792	32734	
1653	0	32840	32678	
1654	0	32816	32814	
1655	0	32744	32775	
1656	0	32806	32856	
1657	0	32812	32728	
1658	0	32844	32689	
1659	0	32842	32814	
1660	0	32808	32802	
1661	0	32775	32850	
1662	0	32812	32766	
1663	0	32820	32696	
1664	0	32812	32774	
1665	0	32892	32852	
1666	0	32844	32868	
1667	0	32794	32718	
1668	0	32856	32800	
1669	0	32800	32815	
1670	0	32832	32768	
1671	0	32908	32722	
1672	0	32802	32711	
1673	0	32852	32726	
1674	0	32832	32775	
1675	0	32756	32806	
1676	0	32834	32774	
1677	0	32746	32712	
1678	0	32768	32794	
1679	0	32748	32674	
1680	0	32824	32607	
1681	0	32810	32847	
1682	0	32836	32768	
1683	0	32836	32764	
1684	0	32748	32652	
1685	0	32796	32618	
1686	0	32744	32758	
1687	0	32734	32751	
1688	0	32672	32704	
1689	0	32732	32630	
1690	0	32734	32632	
1691	0	32712	32636	
1692	0	32776	32634	
1693	0	32738	32758	
1694	0	32738	32732	
1695	0	32712	32712	
1696	0	32746	32686	
1697	0	32784	32820	
1698	0	32762	32672	
1699	0	32796	32775	
1700	0	32818	32846	
1701	0	32872	32744	
1702	0	32884	32984	
1703	0	32878	32884	
1704	0	32844	32775	
1705	0	32918	32846	
1706	0	32954	32948	
1707	0	32940	32888	
1708	0	32920	32890	
1709	0	32970	32903	
1710	0	32976	32848	
1711	0	32952	32978	
1712	0	32912	32848	
1713	0	32890	32756	
1714	0	32906	32854	
1715	0	32868	32871	
1716	0	32830	32782	
1717	0	32832	32796	
1718	0	32868	32870	
1719	0	32818	32878	
1720	0	32820	32775	
1721	0	32812	32826	
1722	0	32776	32756	
1723	0	32788	32642	
1724	0	32796	32636	
1725	0	32750	32730	
1726	0	32700	32718	
1727	0	32720	32618	
1728	0	32688	32711	
1729	0	32764	32624	
1730	0	32792	32566	
1731	0	32782	32631	
1732	0	32740	32644	
1733	0	32812	32772	
1734	0	32748	32688	
1735	0	32806	32770	
1736	0	32842	32823	
1737	0	32790	32724	
1738	0	32798	32676	
1739	0	32790	32807	
1740	0	32780	32871	
1741	0	32768	32756	
1742	0	32836	32832	
1743	0	32824	32742	
1744	0	32872	32712	
1745	0	32856	32854	
1746	0	32778	32775	
1747	0	32788	32850	
1748	0	32836	32826	
1749	0	32815	32775	
1750	0	32770	32847	
1751	0	32808	32774	
1752	0	32792	32775	
1753	0	32856	32662	
1754	0	32784	32758	
1755	0	32854	32852	
1756	0	32842	32708	
1757	0	32848	32694	
1758	0	32880	32742	
1759	0	32760	32852	
1760	0	32840	32790	
1761	0	32890	32712	
1762	0	32856	32826	
1763	0	32760	32775	
1764	0	32812	32656	
1765	0	32800	32754	
1766	0	32806	32852	
1767	0	32816	32746	
1768	0	32836	32736	
1769	0	32828	32775	
1770	0	32774	32798	
1771	0	32820	32704	
1772	0	32792	32674	
1773	0	32784	32724	
1774	0	32816	32658	
1775	0	32784	32826	
1776	0	32816	32775	
1777	0	32784	32804	
1778	0	32816	32718	
1779	0	32744	32804	
1780	0	32838	32796	
1781	0	32808	32839	
1782	0	32798	32826	
1783	0	32836	32766	
1784	0	32874	32636	
1785	0	32828	32702	
1786	0	32834	32684	
1787	0	32794	32917	
1788	0	32798	32775	
1789	0	32792	32826	
1790	0	32820	32710	
1791	0	32762	32702	
1792	0	32838	32799	
1793	0	32892	32720	
1794	0	32834	32698	
1795	0	32768	32716	
1796	0	32780	32775	
1797	0	32776	32790	
1798	0	32804	32810	
1799	0	32812	32798	
1800	0	32752	32720	
1801	0	32812	32787	
1802	0	32800	32816	
1803	0	32776	32774	
1804	0	32788	32775	
1805	0	32836	32716	
1806	0	32832	32748	
1807	0	32760	32750	
1808	0	32796	32822	
1809	0	32844	32823	
1810	0	32808	32674	
1811	0	32844	32742	
1812	0	32830	32775	
1813	0	32784	32810	
1814	0	32800	32806	
1815	0	32744	32826	
1816	0	32890	32638	
1817	0	32812	32734	
1818	0	32828	32734	
1819	0	32812	32852	
1820	0	32840	32800	
1821	0	32852	32689	
1822	0	32804	32694	
1823	0	32800	32846	
1824	0	32804	32812	
1825	0	32814	32775	
1826	0	32828	32668	
1827	0	32772	32839	
1828	0	32814	32760	
1829	0	32756	32816	
1830	0	32816	32647	
1831	0	32810	32743	
1832	0	32840	32830	
1833	0	32824	32760	
1834	0	32800	32775	
1835	0	32820	32814	
1836	0	32848	32768	
1837	0	32770	32734	
1838	0	32764	32822	
1839	0	32860	32768	
1840	0	32836	32788	
1841	0	32784	32738	
1842	0	32804	32656	
1843	0	32832	32718	
1844	0	32772	32698	
1845	0	32816	32846	
1846	0	32836	32764	
1847	0	32812	32766	
1848	0	32888	32791	
1849	0	32798	32742	
1850	0	32752	32752	
1851	0	32848	32750	
1852	0	32832	32743	
1853	0	32853	32684	
1854	0	32808	32748	
1855	0	32788	32847	
1856	0	32752	32746	
1857	0	32874	32828	
1858	0	32798	32767	
1859	0	32832	32790	
1860	0	32816	32670	
1861	0	32816	32716	
1862	0	32800	32790	
1863	0	32788	32788	
1864	0	32794	32863	
1865	0	32852	32798	
1866	0	32848	32822	
1867	0	32786	32752	
1868	0	32818	32664	
1869	0	32768	32674	
1870	0	32868	32650	
1871	0	32828	32684	
1872	0	32836	32758	
1873	0	32844	32800	
1874	0	32752	32796	
1875	0	32848	32740	
1876	0	32852	32742	
1877	0	32820	32754	
1878	0	32764	32775	
1879	0	32780	32688	
1880	0	32812	32770	
1881	0	32772	32807	
1882	0	32831	32748	
1883	0	32804	32775	
1884	0	32848	32770	
1885	0	32856	32730	
1886	0	32816	32704	
1887	0	32756	32836	
1888	0	32752	32775	
1889	0	32804	32751	
1890	0	32848	32742	
1891	0	32810	32775	
1892	0	32764	32698	
1893	0	32854	32834	
1894	0	32798	32790	
1895	0	32832	32798	
1896	0	32820	32754	
1897	0	32820	32838	
1898	0	32832	32668	
1899	0	32826	32715	
1900	0	32778	32711	
1901	0	32814	32884	
1902	0	32842	32790	
1903	0	32828	32788	
1904	0	32784	32754	
1905	0	32820	32728	
1906	0	32780	32708	
1907	0	32840	32804	
1908	0	32804	32775	
1909	0	32800	32809	
1910	0	32772	32671	
1911	0	32786	32704	
1912	0	32764	32734	
1913	0	32760	32775	
1914	0	32868	32790	
1915	0	32912	32767	
1916	0	32832	32800	
1917	0	32834	32679	
1918	0	32792	32703	
1919	0	32830	32772	
1920	0	32814	32748	
1921	0	32812	32816	
1922	0	32808	32775	
1923	0	32828	32702	
1924	0	32798	32704	
1925	0	32874	32794	
1926	0	32824	32838	
1927	0	32832	32792	
1928	0	32768	32790	
1929	0	32820	32904	
1930	0	32806	32836	
1931	0	32804	32758	
1932	0	32814	32660	
1933	0	32798	32692	
1934	0	32772	32760	
1935	0	32784	32832	
1936	0	32826	32782	
1937	0	32824	32798	
1938	0	32864	32818	
1939	0	32820	32743	
1940	0	32838	32768	
1941	0	32780	32723	
1942	0	32816	32812	
1943	0	32816	32810	
1944	0	32788	32806	
1945	0	32802	32823	
1946	0	32870	32820	
1947	0	32864	32686	
1948	0	32820	32738	
1949	0	32796	32732	
1950	0	32832	32751	
1951	0	32808	32724	
1952	0	32852	32812	
1953	0	32784	32794	
1954	0	32828	32678	
1955	0	32872	32698	
1956	0	32764	32730	
1957	0	32828	32794	
1958	0	32848	32836	
1959	0	32832	32720	
1960	0	32808	32824	
1961	0	32796	32736	
1962	0	32826	32660	
1963	0	32800	32774	
1964	0	32774	32796	
1965	0	32804	32772	
1966	0	32764	32826	
1967	0	32810	32666	
1968	0	32816	32668	
1969	0	32776	32722	
1970	0	32824	32838	
1971	0	32864	32775	
1972	0	32828	32810	
1973	0	32822	32825	
1974	0	32794	32696	
1975	0	32786	32714	
1976	0	32808	32682	
1977	0	32774	32748	
1978	0	32776	32720	
1979	0	32752	32802	
1980	0	32824	32860	
1981	0	32812	32722	
1982	0	32824	32862	
1983	0	32782	32838	
1984	0	32752	32726	
1985	0	32812	32864	
1986	0	32812	32746	
1987	0	32800	32746	
1988	0	32802	32820	
1989	0	32780	32724	
1990	0	32836	32786	
1991	0	32799	32775	
1992	0	32872	32680	
1993	0	32836	32742	
1994	0	32852	32772	
1995	0	32818	32738	
1996	0	32820	32709	
1997	0	32770	32850	
1998	0	32764	32736	
1999	0	32764	32711	
2000	0	32896	32724	
2001	0	32736	32831	
2002	0	32728	32788	
2003	0	32874	32786	
2004	0	32756	32754	
2005	0	32838	32708	
2006	0	32778	32740	
2007	0	32848	32734	
2008	0	32906	32762	
2009	0	32812	32775	
2010	0	32866	32694	
2011	0	32856	32818	
2012	0	32814	32652	
2013	0	32824	32830	
2014	0	32804	32634	
2015	0	32812	32674	
2016	0	32800	32775	
2017	0	32792	32766	
2018	0	32854	32774	
2019	0	32808	32694	
2020	0	32788	32764	
2021	0	32824	32834	
2022	0	32744	32826	
2023	0	32820	32752	
2024	0	32810	32687	
2025	0	32808	32772	
2026	0	32768	32726	
2027	0	32840	32816	
2028	0	32772	32812	
2029	0	32810	32834	
2030	0	32792	32732	
2031	0	32756	32702	
2032	0	32892	32734	
2033	0	32816	32686	
2034	0	32762	32810	
2035	0	32768	32704	
2036	0	32740	32764	
2037	0	32828	32774	
2038	0	32844	32710	
2039	0	32820	32728	
2040	0	32846	32882	
2041	0	32852	32808	
2042	0	32816	32814	
2043	0	32832	32730	
2044	0	32792	32718	
2045	0	32792	32807	
2046	0	32780	32807	
2047	0	32784	32732	
2048	0	32780	32754	
2049	0	32860	32658	
2050	0	32796	32730	
2051	0	32712	32854	
2052	0	32792	32718	
2053	0	32808	32738	
2054	0	32810	32756	
2055	0	32828	32822	
2056	0	32860	32742	
2057	0	32816	32708	
2058	0	32826	32854	
2059	0	32790	32838	
2060	0	32782	32748	
2061	0	32824	32774	
2062	0	32778	32772	
2063	0	32820	32728	
2064	0	32868	32856	
2065	0	32800	32866	
2066	0	32868	32802	
2067	0	32842	32701	
2068	0	32804	32792	
2069	0	32840	32820	
2070	0	32812	32810	
2071	0	32910	32798	
2072	0	32804	32642	
2073	0	32802	32678	
2074	0	32760	32762	
2075	0	32724	32736	
2076	0	32760	32796	
2077	0	32724	32806	
2078	0	32880	32716	
2079	0	32732	32766	
2080	0	32834	32825	
2081	0	32818	32706	
2082	0	32784	32838	
2083	0	32876	32710	
2084	0	32820	32716	
2085	0	32828	32764	
2086	0	32832	32690	
2087	0	32792	32775	
2088	0	32796	32846	
2089	0	32752	32718	
2090	0	32826	32768	
2091	0	32800	32775	
2092	0	32800	32766	
2093	0	32768	32854	
2094	0	32896	32836	
2095	0	32896	32756	
2096	0	32816	32704	
2097	0	32828	32880	
2098	0	32856	32811	
2099	0	32860	32702	
2100	0	32768	32807	
2101	0	32778	32679	
2102	0	32804	32686	
2103	0	32780	32624	
2104	0	32754	32694	
2105	0	32816	32772	
2106	0	32780	32702	
2107	0	32820	32708	
2108	0	32826	32792	
2109	0	32864	32710	
2110	0	32784	32814	
2111	0	32794	32758	
2112	0	32814	32706	
2113	0	32810	32766	
2114	0	32898	32878	
2115	0	32818	32850	
2116	0	32778	32666	
2117	0	32817	32816	
2118	0	32864	32762	
2119	0	32780	32804	
2120	0	32810	32690	
2121	0	32774	32900	
2122	0	32742	32828	
2123	0	32768	32711	
2124	0	32788	32848	
2125	0	32844	32820	
2126	0	32792	32897	
2127	0	32836	32775	
2128	0	32830	32821	
2129	0	32836	32711	
2130	0	32820	32708	
2131	0	32846	32742	
2132	0	32778	32807	
2133	0	32764	32704	
2134	0	32856	32775	
2135	0	32836	32806	
2136	0	32816	32712	
2137	0	32816	32700	
2138	0	32808	32752	
2139	0	32848	32847	
2140	0	32772	32788	
2141	0	32808	32799	
2142	0	32802	32766	
2143	0	32828	32682	
2144	0	32798	32727	
2145	0	32846	32756	
2146	0	32836	32834	
2147	0	32832	32740	
2148	0	32782	32716	
2149	0	32840	32694	
2150	0	32820	32804	
2151	0	32812	32870	
2152	0	32816	32750	
2153	0	32820	32814	
2154	0	32852	32790	
2155	0	32840	32740	
2156	0	32774	32822	
2157	0	32822	32644	
2158	0	32832	32716	
2159	0	32792	32828	
2160	0	32810	32832	
2161	0	32744	32766	
2162	0	32854	32768	
2163	0	32770	32775	
2164	0	32852	32839	
2165	0	32808	32811	
2166	0	32768	32702	
2167	0	32776	32652	
2168	0	32836	32841	
2169	0	32892	32767	
2170	0	32828	32839	
2171	0	32804	32774	
2172	0	32864	32836	
2173	0	32792	32694	
2174	0	32764	32848	
2175	0	32884	32750	
2176	0	32884	32748	
2177	0	32774	32774	
2178	0	32773	32696	
2179	0	32904	32775	
2180	0	32800	32742	
2181	0	32798	32711	
2182	0	32828	32839	
2183	0	32832	32742	
2184	0	32776	32748	
2185	0	32724	32730	
2186	0	32808	32764	
2187	0	32852	32696	
2188	0	32778	32724	
2189	0	32800	32690	
2190	0	32776	32708	
2191	0	32834	32816	
2192	0	32900	32756	
2193	0	32852	32746	
2194	0	32860	32720	
2195	0	32804	32736	
2196	0	32854	32808	
2197	0	32882	32760	
2198	0	32836	32696	
2199	0	32785	32740	
2200	0	32824	32740	
2201	0	32754	32846	
2202	0	32692	32823	
2203	0	32778	32775	
2204	0	32800	32839	
2205	0	32868	32726	
2206	0	32796	32768	
2207	0	32852	32711	
2208	0	32828	32730	
2209	0	32802	32775	
2210	0	32848	32775	
2211	0	32776	32732	
2212	0	32752	32810	
2213	0	32820	32788	
2214	0	32868	32886	
2215	0	32868	32822	
2216	0	32796	32748	
2217	0	32840	32692	
2218	0	32812	32672	
2219	0	32836	32799	
2220	0	32744	32820	
2221	0	32748	32818	
2222	0	32792	32742	
2223	0	32816	32768	
2224	0	32857	32806	
2225	0	32844	32652	
2226	0	32810	32686	
2227	0	32732	32668	
2228	0	32804	32836	
2229	0	32806	32738	
2230	0	32808	32810	
2231	0	32783	32718	
2232	0	32848	32818	
2233	0	32828	32679	
2234	0	32844	32647	
2235	0	32892	32714	
2236	0	32834	32775	
2237	0	32804	32775	
2238	0	32822	32810	
2239	0	32772	32838	
2240	0	32750	32775	
2241	0	32800	32775	
2242	0	32856	32754	
2243	0	32866	32780	
2244	0	32830	32736	
2245	0	32796	32766	
2246	0	32848	32871	
2247	0	32878	32811	
2248	0	32796	32728	
2249	0	32804	32740	
2250	0	32828	32796	
2251	0	32792	32775	
2252	0	32790	32774	
2253	0	32832	32800	
2254	0	32856	32858	
2255	0	32878	32663	
2256	0	32744	32660	
2257	0	32805	32711	
2258	0	32788	32764	
2259	0	32796	32734	
2260	0	32848	32794	
2261	0	32836	32842	
2262	0	32716	32889	
2263	0	32816	32880	
2264	0	32788	32836	
2265	0	32808	32702	
2266	0	32804	32740	
2267	0	32782	32774	
2268	0	32780	32710	
2269	0	32800	32792	
2270	0	32816	32744	
2271	0	32852	32726	
2272	0	32746	32588	
2273	0	32810	32661	
2274	0	32836	32807	
2275	0	32825	32802	
2276	0	32876	32864	
2277	0	32768	32727	
2278	0	32768	32800	
2279	0	32869	32762	
2280	0	32836	32752	
2281	0	32834	32820	
2282	0	32784	32860	
2283	0	32840	32782	
2284	0	32823	32830	
2285	0	32808	32802	
2286	0	32800	32816	
2287	0	32868	32791	
2288	0	32820	32708	
2289	0	32772	32722	
2290	0	32802	32766	
2291	0	32778	32720	
2292	0	32836	32740	
2293	0	32800	32718	
2294	0	32736	32692	
2295	0	32728	32706	
2296	0	32766	32700	
2297	0	32820	32679	
2298	0	32902	32766	
2299	0	32796	32736	
2300	0	32832	32734	
2301	0	32820	32758	
2302	0	32896	32742	
2303	0	32826	32842	
2304	0	32744	32802	
2305	0	32880	32812	
2306	0	32814	32764	
2307	0	32820	32826	
2308	0	32868	32775	
2309	0	32834	32839	
2310	0	32822	32770	
2311	0	32760	32727	
2312	0	32740	32703	
2313	0	32862	32806	
2314	0	32784	32774	
2315	0	32806	32850	
2316	0	32840	32767	
2317	0	32832	32742	
2318	0	32748	32799	
2319	0	32816	32791	
2320	0	32780	32839	
2321	0	32800	32880	
2322	0	32740	32804	
2323	0	32804	32760	
2324	0	32876	32775	
2325	0	32804	32654	
2326	0	32814	32670	
2327	0	32826	32700	
2328	0	32772	32716	
2329	0	32832	32729	
2330	0	32792	32670	
2331	0	32872	32775	
2332	0	32804	32742	
2333	0	32796	32830	
2334	0	32790	32803	
2335	0	32814	32770	
2336	0	32824	32654	
2337	0	32780	32742	
2338	0	32792	32775	
2339	0	32798	32700	
2340	0	32758	32730	
2341	0	32756	32726	
2342	0	32750	32734	
2343	0	32752	32806	
2344	0	32836	32839	
2345	0	32840	32754	
2346	0	32840	32758	
2347	0	32876	32764	
2348	0	32856	32896	
2349	0	32828	32775	
2350	0	32808	32720	
2351	0	32874	32664	
2352	0	32862	32702	
2353	0	32794	32860	
2354	0	32746	32794	
2355	0	32868	32788	
2356	0	32824	32790	
2357	0	32800	32734	
2358	0	32756	32660	
2359	0	32852	32775	
2360	0	32824	32890	
2361	0	32808	32724	
2362	0	32832	32726	
2363	0	32869	32694	
2364	0	32836	32748	
2365	0	32724	32663	
2366	0	32864	32750	
2367	0	32756	32768	
2368	0	32840	32942	
2369	0	32804	32802	
2370	0	32876	32796	
2371	0	32824	32850	
2372	0	32838	32839	
2373	0	32802	32799	
2374	0	32724	32766	
2375	0	32783	32727	
2376	0	32836	32830	
2377	0	32806	32858	
2378	0	32801	32772	
2379	0	32858	32772	
2380	0	32824	32774	
2381	0	32888	32831	
2382	0	32856	32796	
2383	0	32804	32711	
2384	0	32834	32642	
2385	0	32760	32710	
2386	0	32794	32664	
2387	0	32802	32686	
2388	0	32844	32748	
2389	0	32836	32687	
2390	0	32848	32668	
2391	0	32808	32664	
2392	0	32808	32626	
2393	0	32804	32674	
2394	0	32706	32670	
2395	0	32800	32705	
2396	0	32782	32722	
2397	0	32784	32820	
2398	0	32754	32615	
2399	0	32786	32686	
2400	0	32728	32775	
2401	0	32724	32762	
2402	0	32746	32760	
2403	0	32736	32732	
2404	0	32764	32743	
2405	0	32808	32700	
2406	0	32784	32870	
2407	0	32788	32824	
2408	0	32856	32874	
2409	0	32845	32876	
2410	0	32872	32985	
2411	0	32824	32775	
2412	0	32788	32812	
2413	0	32868	32930	
2414	0	32948	33017	
2415	0	32958	32936	
2416	0	33004	32898	
2417	0	32932	32858	
2418	0	32864	32770	
2419	0	32900	32900	
2420	0	32884	32889	
2421	0	32802	32798	
2422	0	32884	32862	
2423	0	32856	32888	
2424	0	32860	32870	
2425	0	32916	32764	
2426	0	32872	32854	
2427	0	32872	32746	
2428	0	32876	32822	
2429	0	32864	32762	
2430	0	32816	32622	
2431	0	32800	32762	
2432	0	32702	32758	
2433	0	32722	32724	
2434	0	32730	32634	
2435	0	32752	32764	
2436	0	32666	32647	
2437	0	32700	32662	
2438	0	32724	32688	
2439	0	32740	32638	
2440	0	32736	32800	
2441	0	32736	32748	
2442	0	32836	32831	
2443	0	32830	32742	
2444	0	32844	32652	
2445	0	32792	32671	
2446	0	32820	32720	
2447	0	32868	32764	
2448	0	32864	32742	
2449	0	32832	32742	
2450	0	32904	32750	
2451	0	32820	32832	
2452	0	32864	32802	
2453	0	32826	32871	
2454	0	32896	32711	
2455	0	32990	32676	
2456	0	32812	32736	
2457	0	32756	32532	
2458	0	32848	32396	
2459	0	32880	32472	
2460	0	32804	32654	
2461	0	32858	32772	
2462	0	32832	32752	
2463	0	32780	32945	
2464	0	32742	33166	
2465	0	32684	33212	
2466	0	32748	33135	
2467	0	32796	33078	
2468	0	32744	32974	
2469	0	32740	32852	
2470	0	32738	32791	
2471	0	32764	32760	
2472	0	32818	32867	
2473	0	32772	32693	
2474	0	32874	32738	
2475	0	32824	32730	
2476	0	32810	32636	
2477	0	32872	32622	
2478	0	33010	32820	
2479	0	32888	32684	
2480	0	32932	32775	
2481	0	32880	32752	
2482	0	32888	32659	
2483	0	32780	32583	
2484	0	32768	32796	
2485	0	32756	32720	
2486	0	32764	32722	
2487	0	32724	32756	
2488	0	32792	32679	
2489	0	32800	32743	
2490	0	32830	32756	
2491	0	32808	32852	
2492	0	32824	32838	
2493	0	32820	32697	
2494	0	32782	32722	
2495	0	32704	32816	
2496	0	32690	32752	
2497	0	32728	32772	
2498	0	32708	32710	
2499	0	32704	32710	
2500	0	32634	32810	
2501	0	32730	32757	
2502	0	32784	32762	
2503	0	32832	32714	
2504	0	32892	32687	
2505	0	32904	32808	
2506	0	32915	32718	
2507	0	32884	32874	
2508	0	32904	32724	
2509	0	32892	32666	
2510	0	32944	32751	
2511	0	32936	32832	
2512	0	32916	32775	
2513	0	32952	32728	
2514	0	32846	32724	
2515	0	32848	32810	
2516	0	32852	32792	
2517	0	32756	32810	
2518	0	32712	32832	
2519	0	32712	32730	
2520	0	32742	32714	
2521	0	32744	32716	
2522	0	32814	32862	
2523	0	32856	32822	
2524	0	32824	32870	
2525	0	32824	32804	
2526	0	32832	32734	
2527	0	32804	32766	
2528	0	32804	32754	
2529	0	32784	32764	
2530	0	32798	32811	
2531	0	32822	32770	
2532	0	32820	32772	
2533	0	32864	32812	
2534	0	32728	32752	
2535	0	32778	32732	
2536	0	32814	32664	
2537	0	32840	32816	
2538	0	32888	32834	
2539	0	32866	32788	
2540	0	32792	32807	
2541	0	32856	32820	
2542	0	32800	32766	
2543	0	32808	32721	
2544	0	32782	32772	
2545	0	32836	32756	
2546	0	32780	32838	
2547	0	32804	32788	
2548	0	32740	32654	
2549	0	32832	32828	
2550	0	32846	32772	
2551	0	32886	32775	
2552	0	32800	32790	
2553	0	32846	32775	
2554	0	32828	32824	
2555	0	32796	32734	
2556	0	32844	32804	
2557	0	32800	32666	
2558	0	32772	32551	
2559	0	32788	32798	
2560	0	32809	32790	
2561	0	32780	32706	
2562	0	32800	32863	
2563	0	32826	32688	
2564	0	32764	32796	
2565	0	32748	32864	
2566	0	32756	32854	
2567	0	32694	32916	
2568	0	32724	32974	
2569	0	32686	32818	
2570	0	32888	32766	
2571	0	32866	32808	
2572	0	32866	32686	
2573	0	32804	32799	
2574	0	32868	32734	
2575	0	32898	32631	
2576	0	32896	32774	
2577	0	32816	32790	
2578	0	32834	32770	
2579	0	32796	32743	
2580	0	32818	32710	
2581	0	32868	32626	
2582	0	32868	32596	
2583	0	32752	32682	
2584	0	32848	32628	
2585	0	32862	32750	
2586	0	32838	32804	
2587	0	32808	32775	
2588	0	32852	32844	
2589	0	32802	32882	
2590	0	32836	32870	
2591	0	32820	32856	
2592	0	32820	32834	
2593	0	32778	32734	
2594	0	32864	32735	
2595	0	32769	32719	
2596	0	32840	32750	
2597	0	32808	32775	
2598	0	32864	32738	
2599	0	32852	32675	
2600	0	32832	32806	
2601	0	32816	32834	
2602	0	32812	32828	
2603	0	32764	32738	
2604	0	32754	32807	
2605	0	32828	32748	
2606	0	32860	32662	
2607	0	32814	32764	
2608	0	32780	32706	
2609	0	32836	32716	
2610	0	32860	32747	
2611	0	32820	32802	
2612	0	32792	32730	
2613	0	32784	32711	
2614	0	32774	32750	
2615	0	32748	32678	
2616	0	32740	32748	
2617	0	32810	32676	
2618	0	32796	32775	
2619	0	32820	32814	
2620	0	32852	32762	
2621	0	32812	32743	
2622	0	32816	32743	
2623	0	32842	32810	
2624	0	32824	32704	
2625	0	32784	32694	
2626	0	32748	32690	
2627	0	32756	32722	
2628	0	32802	32796	
2629	0	32852	32800	
2630	0	32704	32796	
2631	0	32732	32766	
2632	0	32784	32775	
2633	0	32808	32820	
2634	0	32808	32807	
2635	0	32960	32772	
2636	0	32895	32742	
2637	0	32896	32774	
2638	0	32824	32775	
2639	0	32794	32775	
2640	0	32796	32796	
2641	0	32820	32793	
2642	0	32850	32766	
2643	0	32874	32794	
2644	0	32804	32730	
2645	0	32784	32740	
2646	0	32782	32762	
2647	0	32802	32800	
2648	0	32816	32811	
2649	0	32772	32696	
2650	0	32742	32750	
2651	0	32760	32798	
2652	0	32872	32750	
2653	0	32775	32812	
2654	0	32792	32804	
2655	0	32820	32818	
2656	0	32852	32730	
2657	0	32878	32719	
2658	0	32782	32731	
2659	0	32804	32761	
2660	0	32864	32874	
2661	0	32800	32828	
2662	0	32724	32810	
2663	0	32794	32806	
2664	0	32756	32828	
2665	0	32808	32752	
2666	0	32876	32808	
2667	0	32800	32844	
2668	0	32818	32798	
2669	0	32836	32746	
2670	0	32852	32784	
2671	0	32820	32806	
2672	0	32832	32766	
2673	0	32788	32726	
2674	0	32796	32726	
2675	0	32844	32754	
2676	0	32796	32774	
2677	0	32768	32756	
2678	0	32808	32742	
2679	0	32768	32852	
2680	0	32872	32820	
2681	0	32752	32742	
2682	0	32790	32796	
2683	0	32744	32744	
2684	0	32782	32830	
2685	0	32748	32775	
2686	0	32828	32727	
2687	0	32836	32764	
2688	0	32892	32756	
2689	0	32922	32759	
2690	0	32880	32743	
2691	0	32860	32710	
2692	0	32792	32808	
2693	0	32794	32758	
2694	0	32840	32804	
2695	0	32864	32820	
2696	0	32902	32694	
2697	0	32828	32756	
2698	0	32816	32748	
2699	0	32836	32840	
2700	0	32788	32812	
2701	0	32872	32804	
2702	0	32736	32724	
2703	0	32748	32748	
2704	0	32788	32762	
2705	0	32820	32747	
2706	0	32740	32826	
2707	0	32790	32770	
2708	0	32776	32798	
2709	0	32820	32648	
2710	0	32742	32708	
2711	0	32800	32674	
2712	0	32836	32672	
2713	0	32836	32704	
2714	0	32798	32742	
2715	0	32764	32820	
2716	0	32764	32756	
2717	0	32792	32682	
2718	0	32832	32764	
2719	0	32872	32768	
2720	0	32890	32786	
2721	0	32770	32784	
2722	0	32744	32814	
2723	0	32674	32774	
2724	0	32704	32824	
2725	0	32830	32839	
2726	0	32884	32850	
2727	0	32824	32796	
2728	0	32862	32824	
2729	0	32812	32794	
2730	0	32784	32770	
2731	0	32760	32820	
2732	0	32868	32775	
2733	0	32796	32684	
2734	0	32796	32680	
2735	0	32840	32700	
2736	0	32824	32703	
2737	0	32750	32748	
2738	0	32784	32766	
2739	0	32844	32860	
2740	0	32600	32854	
2741	0	32706	32772	
2742	0	32828	32774	
2743	0	33016	32772	
2744	0	33044	32775	
2745	0	32940	32800	
2746	0	32814	32775	
2747	0	32864	32688	
2748	0	32960	32630	
2749	0	32800	32854	
2750	0	32892	32794	
2751	0	32776	32788	
2752	0	32712	32799	
2753	0	32688	32775	
2754	0	32864	32660	
2755	0	32852	32734	
2756	0	32852	32722	
2757	0	32792	32762	
2758	0	32888	32808	
2759	0	32792	32716	
2760	0	32746	32788	
2761	0	32640	32764	
2762	0	32680	32620	
2763	0	32656	32638	
2764	0	32676	32658	
2765	0	32806	32702	
2766	0	32784	32775	
2767	0	32732	32753	
2768	0	32804	32804	
2769	0	32826	32812	
2770	0	32844	32702	
2771	0	32784	32746	
2772	0	32812	32734	
2773	0	32890	32740	
2774	0	32948	32716	
2775	0	32862	32814	
2776	0	32880	32802	
2777	0	32880	32774	
2778	0	32776	32774	
2779	0	32836	32700	
2780	0	32740	32832	
2781	0	32732	32872	
2782	0	32704	32839	
2783	0	32668	32743	
2784	0	32880	32868	
2785	0	32888	32769	
2786	0	32784	32686	
2787	0	32868	32679	
2788	0	32902	32742	
2789	0	32896	32780	
2790	0	32744	32794	
2791	0	32844	32798	
2792	0	32860	32774	
2793	0	32852	32714	
2794	0	32856	32724	
2795	0	32872	32756	
2796	0	32824	32736	
2797	0	32772	32734	
2798	0	32802	32686	
2799	0	32812	32823	
2800	0	32798	32860	
2801	0	32836	32802	
2802	0	32772	32774	
2803	0	32862	32712	
2804	0	32848	32698	
2805	0	32832	32775	
2806	0	32894	32743	
2807	0	32808	32644	
2808	0	32864	32726	
2809	0	32804	32742	
2810	0	32712	32728	
2811	0	32724	32796	
2812	0	32804	32804	
2813	0	32856	32895	
2814	0	32782	32824	
2815	0	32768	32814	
2816	0	32826	32911	
2817	0	32896	32764	
2818	0	32740	32726	
2819	0	32832	32694	
2820	0	32896	32791	
2821	0	32828	32764	
2822	0	32876	32884	
2823	0	32838	32760	
2824	0	32788	32725	
2825	0	32840	32732	
2826	0	32824	32742	
2827	0	32822	32758	
2828	0	32802	32746	
2829	0	32880	32826	
2830	0	32824	32774	
2831	0	32772	32762	
2832	0	32800	32754	
2833	0	32752	32708	
2834	0	32810	32812	
2835	0	32836	32775	
2836	0	32804	32775	
2837	0	32812	32762	
2838	0	32800	32708	
2839	0	32876	32772	
2840	0	32856	32927	
2841	0	32816	32808	
2842	0	32794	32772	
2843	0	32776	32792	
2844	0	32858	32858	
2845	0	32782	32858	
2846	0	32768	32709	
2847	0	32728	32724	
2848	0	32782	32698	
2849	0	32810	32834	
2850	0	32878	32782	
2851	0	32800	32759	
2852	0	32768	32728	
2853	0	32856	32790	
2854	0	32830	32640	
2855	0	32806	32714	
2856	0	32794	32650	
2857	0	32886	32670	
2858	0	32808	32720	
2859	0	32784	32847	
2860	0	32824	32856	
2861	0	32782	32775	
2862	0	32836	32772	
2863	0	32808	32796	
2864	0	32868	32828	
2865	0	32808	32744	
2866	0	32772	32775	
2867	0	32764	32640	
2868	0	32780	32716	
2869	0	32896	32678	
2870	0	32824	32743	
2871	0	32788	32807	
2872	0	32812	32770	
2873	0	32764	32830	
2874	0	32792	32730	
2875	0	32766	32772	
2876	0	32772	32750	
2877	0	32732	32839	
2878	0	32768	32902	
2879	0	32800	32806	
2880	0	32920	32726	
2881	0	32988	32692	
2882	0	32936	32862	
2883	0	32817	32818	
2884	0	32874	32840	
2885	0	32844	32793	
2886	0	32842	32766	
2887	0	32800	32812	
2888	0	32770	32807	
2889	0	32804	32664	
2890	0	32778	32750	
2891	0	32840	32647	
2892	0	32804	32824	
2893	0	32844	32792	
2894	0	32760	32767	
2895	0	32790	32718	
2896	0	32788	32796	
2897	0	32772	32806	
2898	0	32804	32704	
2899	0	32800	32766	
2900	0	32752	32769	
2901	0	32770	32734	
2902	0	32748	32850	
2903	0	32848	32892	
2904	0	32868	32766	
2905	0	32864	32796	
2906	0	32892	32775	
2907	0	32862	32816	
2908	0	32816	32823	
2909	0	32804	32704	
2910	0	32740	32759	
2911	0	32780	32628	
2912	0	32884	32682	
2913	0	32884	32698	
2914	0	32822	32799	
2915	0	32816	32694	
2916	0	32724	32887	
2917	0	32796	32788	
2918	0	32804	32698	
2919	0	32788	32726	
2920	0	32740	32708	
2921	0	32788	32756	
2922	0	32783	32670	
2923	0	32820	32692	
2924	0	32781	32742	
2925	0	32826	32798	
2926	0	32868	32838	
2927	0	32826	32768	
2928	0	32774	32808	
2929	0	32822	32775	
2930	0	32826	32678	
2931	0	32832	32862	
2932	0	32798	32771	
2933	0	32832	32766	
2934	0	32846	32766	
2935	0	32780	32745	
2936	0	32768	32698	
2937	0	32784	32666	
2938	0	32826	32718	
2939	0	32806	32692	
2940	0	32800	32878	
2941	0	32802	32860	
2942	0	32816	32703	
2943	0	32716	32838	
2944	0	32870	32775	
2945	0	32806	32716	
2946	0	32796	32870	
2947	0	32780	32775	
2948	0	32824	32736	
2949	0	32856	32658	
2950	0	32748	32668	
2951	0	32780	32614	
2952	0	32692	32760	
2953	0	32708	32742	
2954	0	32748	32721	
2955	0	32768	32694	
2956	0	32840	32910	
2957	0	32844	32764	
2958	0	32932	32774	
2959	0	32916	32980	
2960	0	32804	32855	
2961	0	32784	32819	
2962	0	32768	32674	
2963	0	32838	32700	
2964	0	32789	32652	
2965	0	32776	32616	
2966	0	32800	32762	
2967	0	32698	32820	
2968	0	32708	32836	
2969	0	32630	32836	
2970	0	32696	32759	
2971	0	32748	32830	
2972	0	32860	32978	
2973	0	32856	32863	
2974	0	32808	32801	
2975	0	32796	32647	
2976	0	32732	32766	
2977	0	32826	32743	
2978	0	32974	32772	
2979	0	33030	32854	
2980	0	32972	32806	
2981	0	33038	33052	
2982	0	33044	33023	
2983	0	32994	32988	
2984	0	32974	32854	
2985	0	32880	32918	
2986	0	32878	32926	
2987	0	32884	32844	
2988	0	32816	32802	
2989	0	32808	32704	
2990	0	32752	32640	
2991	0	32794	32519	
2992	0	32764	32574	
2993	0	32758	32644	
2994	0	32700	32710	
2995	0	32668	32703	
2996	0	32572	32684	
2997	0	32546	32629	
2998	0	32388	32532	
2999	0	32520	32542	
3000	0	32596	32668	
3001	0	32676	32604	
3002	0	32810	32634	
3003	0	32956	32832	
3004	0	32932	32886	
3005	0	33060	32948	
3006	0	33020	32924	
3007	0	33092	32842	
3008	0	33014	32896	
3009	0	33018	32962	
3010	0	33060	33030	
3011	0	33058	32972	
3012	0	32996	32807	
3013	0	32968	32810	
3014	0	32932	32806	
3015	0	32964	32796	
3016	0	32872	32710	
3017	0	32814	32624	
3018	0	32800	32568	
3019	0	32834	32688	
3020	0	32752	32674	
3021	0	32776	32552	
3022	0	32692	32580	
3023	0	32678	32630	
3024	0	32652	32894	
3025	0	32668	32890	
3026	0	32536	32827	
3027	0	32532	32780	
3028	0	32430	32688	
3029	0	32486	32642	
3030	0	32600	32591	
3031	0	32686	32668	
3032	0	32694	32743	
3033	0	32740	32718	
3034	0	32828	32603	
3035	0	32764	32756	
3036	0	32795	32664	
3037	0	32788	32635	
3038	0	32972	32647	
3039	0	33016	32754	
3040	0	33050	33058	
3041	0	33120	32848	
3042	0	33076	32842	
3043	0	33032	32817	
3044	0	33052	32884	
3045	0	33016	32868	
3046	0	32996	32898	
3047	0	32848	32839	
3048	0	32754	32962	
3049	0	32652	33094	
3050	0	32388	32952	
3051	0	32036	32828	
3052	0	32032	32900	
3053	0	32340	32770	
3054	0	32452	32300	
3055	0	32684	32199	
3056	0	32882	32295	
3057	0	33006	32458	
3058	0	33040	32508	
3059	0	33048	32900	
3060	0	33068	33220	
3061	0	33110	33236	
3062	0	33020	33308	
3063	0	33192	33212	
3064	0	33168	32990	
3065	0	33134	32759	
3066	0	33126	32760	
3067	0	33102	32519	
3068	0	33096	32568	
3069	0	33092	32584	
3070	0	33046	32652	
3071	0	32996	32722	
3072	0	32830	32596	
3073	0	32904	32646	
3074	0	32872	32767	
3075	0	32840	32806	
3076	0	32760	32948	
3077	0	32644	32880	
3078	0	32602	32936	
3079	0	32576	32840	
3080	0	32420	32839	
3081	0	32420	32814	
3082	0	32396	32790	
3083	0	32356	32746	
3084	0	32380	32544	
3085	0	32514	32519	
3086	0	32492	32682	
3087	0	32622	32458	
3088	0	32764	32408	
3089	0	32964	32468	
3090	0	32944	32519	
3091	0	33016	32620	
3092	0	33092	32840	
3093	0	33112	32976	
3094	0	33076	33026	
3095	0	33158	33164	
3096	0	33160	33180	
3097	0	33172	33144	
3098	0	33064	32908	
3099	0	32970	33030	
3100	0	32960	32910	
3101	0	32904	32972	
3102	0	32938	32842	
3103	0	32952	32884	
3104	0	32832	32988	
3105	0	32860	32898	
3106	0	32874	32775	
3107	0	32766	32684	
3108	0	32760	32560	
3109	0	32714	32743	
3110	0	32684	32706	
3111	0	32736	32664	
3112	0	32714	32692	
3113	0	32668	32582	
3114	0	32576	32582	
3115	0	32654	32634	
3116	0	32488	32519	
3117	0	32444	32618	
3118	0	32408	32600	
3119	0	32460	32550	
3120	0	32596	32548	
3121	0	32684	32694	
3122	0	32774	32712	
3123	0	32816	32844	
3124	0	32904	32794	
3125	0	32938	32728	
3126	0	32956	32656	
3127	0	32954	32644	
3128	0	32948	32608	
3129	0	32897	32764	
3130	0	32804	32790	
3131	0	32744	32858	
3132	0	32676	32586	
3133	0	32852	32696	
3134	0	32748	32950	
3135	0	32842	32774	
3136	0	32888	32836	
3137	0	32790	32920	
3138	0	32657	32724	
3139	0	32576	33338	
3140	0	32500	33324	
3141	0	32500	33178	
3142	0	32736	32804	
3143	0	32812	32702	
3144	0	32724	32539	
3145	0	32764	32292	
3146	0	32692	32032	
3147	0	32706	32188	
3148	0	32994	32298	
3149	0	32966	32433	
3150	0	33088	32462	
3151	0	33200	32660	
3152	0	33182	32934	
3153	0	33156	33134	
3154	0	33072	33090	
3155	0	33160	33498	
3156	0	33280	33832	
3157	0	33282	33758	
3158	0	33216	33266	
3159	0	33252	32775	
3160	0	33080	32886	
3161	0	32956	32858	
3162	0	32682	33066	
3163	0	32590	32775	
3164	0	32560	32616	
3165	0	32494	32792	
3166	0	32432	32580	
3167	0	32568	32590	
3168	0	32532	32775	
3169	0	32604	32722	
3170	0	32684	32486	
3171	0	32802	32650	
3172	0	32732	32666	
3173	0	32736	32583	
3174	0	32775	32592	
3175	0	32870	32742	
3176	0	32892	32712	
3177	0	32950	32748	
3178	0	32968	32732	
3179	0	33004	32804	
3180	0	32930	32784	
3181	0	32840	32514	
3182	0	32784	32204	
3183	0	32760	32148	
3184	0	32768	32291	
3185	0	32712	32390	
3186	0	32680	32714	
3187	0	32610	32892	
3188	0	32646	32751	
3189	0	32724	32576	
3190	0	32846	32466	
3191	0	32696	32720	
3192	0	32792	32988	
3193	0	32740	33026	
3194	0	32706	33076	
3195	0	32708	33080	
3196	0	32592	33203	
3197	0	32672	33062	
3198	0	32778	32904	
3199	0	32728	32944	
3200	0	32728	32952	
3201	0	32704	32738	
3202	0	32698	32871	
3203	0	32696	32748	
3204	0	32780	32814	
3205	0	32752	32764	
3206	0	32760	32742	
3207	0	32832	32800	
3208	0	32968	32746	
3209	0	32972	32564	
3210	0	32948	32690	
3211	0	33016	32744	
3212	0	33046	32416	
3213	0	32948	32244	
3214	0	32868	32526	
3215	0	32890	32718	
3216	0	32896	32764	
3217	0	32786	32880	
3218	0	32688	32976	
3219	0	32604	32695	
3220	0	32660	32814	
3221	0	32496	32212	
3222	0	32592	32420	
3223	0	32480	32732	
3224	0	32516	33038	
3225	0	32574	33230	
3226	0	32656	33340	
3227	0	32892	33150	
3228	0	33060	32860	
3229	0	33268	32636	
3230	0	33124	32967	
3231	0	33108	32724	
3232	0	33068	32762	
3233	0	33180	32858	
3234	0	32770	33076	
3235	0	32620	33235	
3236	0	32724	32934	
3237	0	32716	33052	
3238	0	32812	32598	
3239	0	32946	32252	
3240	0	33014	32678	
3241	0	33196	32946	
3242	0	33068	32737	
3243	0	33056	32724	
3244	0	32956	32416	
3245	0	32984	31714	
3246	0	33108	31716	
3247	0	33108	32526	
3248	0	33132	33287	
3249	0	33018	33422	
3250	0	32896	33438	
3251	0	32816	32988	
3252	0	32822	33479	
3253	0	32790	33078	
3254	0	32634	32088	
3255	0	32504	32558	
3256	0	32488	33159	
3257	0	32434	33284	
3258	0	32596	33783	
3259	0	32592	33514	
3260	0	32568	32804	
3261	0	32624	32255	
3262	0	32642	31942	
3263	0	32666	31904	
3264	0	32654	32190	
3265	0	32730	32519	
3266	0	32756	32999	
3267	0	32774	33208	
3268	0	32868	33426	
3269	0	32784	33466	
3270	0	32546	33210	
3271	0	32540	33313	
3272	0	32480	33006	
3273	0	32616	32756	
3274	0	32648	32524	
3275	0	32720	32596	
3276	0	32816	32391	
3277	0	32764	32238	
3278	0	32940	32162	
3279	0	33024	32316	
3280	0	33096	32570	
3281	0	33044	32551	
3282	0	32978	32564	
3283	0	32922	32532	
3284	0	32966	32576	
3285	0	33002	32706	
3286	0	33042	32764	
3287	0	33008	32497	
3288	0	32932	32222	
3289	0	32922	32191	
3290	0	32792	31879	
3291	0	32778	31700	
3292	0	32647	32040	
3293	0	32644	32807	
3294	0	32644	33603	
3295	0	32516	33954	
3296	0	32472	33742	
3297	0	32556	33566	
3298	0	32600	33490	
3299	0	32692	33383	
3300	0	32796	33507	
3301	0	32648	33302	
3302	0	32788	33093	
3303	0	32906	32868	
3304	0	32880	32704	
3305	0	32976	32216	
3306	0	32876	31974	
3307	0	32684	31558	
3308	0	32424	31812	
3309	0	32476	32404	
3310	0	32612	32924	
3311	0	32672	33076	
3312	0	32832	33102	
3313	0	32986	33231	
3314	0	33096	33264	
3315	0	33222	32852	
3316	0	33212	32710	
3317	0	33192	33010	
3318	0	33072	32670	
3319	0	33052	32538	
3320	0	33016	33308	
3321	0	32748	32574	
3322	0	32416	32076	
3323	0	32348	31322	
3324	0	32154	31460	
3325	0	32422	31266	
3326	0	32560	31676	
3327	0	32906	32582	
3328	0	33252	32804	
3329	0	33342	33670	
3330	0	33460	33524	
3331	0	33506	32910	
3332	0	33472	33880	
3333	0	33478	34311	
3334	0	33428	33876	
3335	0	33248	34389	
3336	0	33160	35158	
3337	0	33316	34519	
3338	0	33184	33660	
3339	0	32992	32870	
3340	0	32944	32226	
3341	0	32644	32252	
3342	0	32652	32007	
3343	0	32510	32252	
3344	0	32496	32042	
3345	0	32516	32070	
3346	0	32404	31892	
3347	0	32292	32054	
3348	0	32270	32024	
3349	0	32360	31614	
3350	0	32364	31239	
3351	0	32454	31084	
3352	0	32396	31583	
3353	0	32594	32480	
3354	0	32769	33599	
3355	0	33000	34116	
3356	0	33148	34545	
3357	0	33152	34274	
3358	0	33054	33920	
3359	0	33068	33040	
3360	0	32978	32274	
3361	0	32860	32263	
3362	0	32800	31911	
3363	0	32608	32368	
3364	0	32600	32775	
3365	0	32576	32791	
3366	0	32596	32978	
3367	0	32668	33026	
3368	0	32672	32698	
3369	0	32684	32775	
3370	0	32756	32766	
3371	0	32794	32710	
3372	0	32700	32710	
3373	0	32680	32722	
3374	0	32704	32722	
3375	0	32768	32752	
3376	0	32796	32796	
3377	0	32828	32839	
3378	0	32858	32692	
3379	0	32828	32726	
3380	0	32756	32734	
3381	0	32832	32832	
3382	0	32744	32765	
3383	0	32834	32655	
3384	0	32860	32594	
3385	0	32920	32686	
3386	0	32884	32610	
3387	0	32910	32743	
3388	0	32896	32639	
3389	0	32648	32256	
3390	0	32326	32410	
3391	0	32306	32000	
3392	0	32300	31546	
3393	0	32270	31846	
3394	0	32524	32362	
3395	0	32642	32988	
3396	0	32984	33144	
3397	0	33200	34138	
3398	0	33160	34362	
3399	0	33352	34310	
3400	0	33656	34088	
3401	0	33716	32810	
3402	0	33676	32098	
3403	0	33200	32262	
3404	0	32892	32468	
3405	0	32756	32380	
3406	0	32470	33086	
3407	0	32490	31798	
3408	0	32212	31294	
3409	0	31743	31786	
3410	0	31464	32544	
3411	0	31680	33092	
3412	0	32056	33311	
3413	0	32448	32510	
3414	0	32828	32744	
3415	0	32922	32806	
3416	0	33425	34000	
3417	0	33898	35074	
3418	0	34164	34788	
3419	0	34296	33650	
3420	0	34204	32692	
3421	0	33862	32164	
3422	0	33376	32549	
3423	0	33318	32174	
3424	0	33188	32090	
3425	0	33090	32548	
3426	0	32718	33008	
3427	0	32676	33202	
3428	0	32906	33100	
3429	0	32730	33126	
3430	0	32524	32983	
3431	0	32508	32644	
3432	0	32424	32807	
3433	0	32028	32296	
3434	0	31778	32296	
3435	0	31746	30980	
3436	0	32240	30273	
3437	0	32330	31232	
3438	0	32592	31336	
3439	0	32766	31956	
3440	0	32864	32484	
3441	0	32912	33730	
3442	0	33050	33734	
3443	0	33228	32994	
3444	0	33232	33287	
3445	0	33468	33860	
3446	0	33540	33710	
3447	0	33390	33724	
3448	0	33164	33460	
3449	0	32884	33665	
3450	0	32644	33946	
3451	0	32658	34218	
3452	0	32304	34096	
3453	0	32206	33724	
3454	0	32124	33400	
3455	0	32388	32766	
3456	0	32097	32156	
3457	0	32058	31746	
3458	0	31880	31722	
3459	0	31906	31954	
3460	0	32380	31778	
3461	0	32580	31867	
3462	0	32644	31778	
3463	0	32686	31578	
3464	0	32554	31696	
3465	0	32738	32042	
3466	0	33108	32170	
3467	0	33190	32610	
3468	0	33240	32516	
3469	0	33402	32466	
3470	0	33200	33218	
3471	0	33132	33316	
3472	0	33402	33324	
3473	0	33904	33282	
3474	0	34120	32657	
3475	0	34284	32314	
3476	0	34328	32807	
3477	0	33956	33093	
3478	0	33248	33588	
3479	0	32652	34311	
3480	0	32436	33903	
3481	0	32206	33350	
3482	0	32342	32678	
3483	0	31996	32382	
3484	0	31576	31502	
3485	0	31354	31626	
3486	0	31476	31964	
3487	0	31760	32514	
3488	0	32172	32712	
3489	0	32434	33287	
3490	0	32688	32756	
3491	0	32696	31484	
3492	0	32804	30912	
3493	0	32405	32284	
3494	0	32680	33208	
3495	0	33176	32602	
3496	0	33448	32007	
3497	0	33332	32852	
3498	0	33334	34700	
3499	0	33420	35316	
3500	0	33540	35370	
3501	0	33604	35078	
3502	0	33724	34842	
3503	0	33268	34006	
3504	0	33116	32542	
3505	0	33248	30572	
3506	0	32896	30446	
3507	0	32724	31126	
3508	0	32860	31239	
3509	0	32808	31920	
3510	0	32136	33306	
3511	0	32132	33028	
3512	0	32032	31370	
3513	0	32193	29038	
3514	0	31928	29008	
3515	0	32188	32188	
3516	0	32550	35280	
3517	0	33052	36416	
3518	0	33470	36252	
3519	0	33444	35250	
3520	0	33720	34120	
3521	0	33590	33671	
3522	0	33504	34030	
3523	0	33464	33732	
3524	0	32938	32868	
3525	0	32516	32100	
3526	0	32308	31918	
3527	0	32298	31768	
3528	0	32520	31342	
3529	0	32436	31010	
3530	0	32488	31559	
3531	0	32828	31710	
3532	0	32710	31620	
3533	0	32636	32684	
3534	0	32500	33320	
3535	0	31974	33006	
3536	0	31946	32792	
3537	0	31772	31962	
3538	0	32214	32468	
3539	0	32644	33130	
3540	0	33034	33316	
3541	0	33096	32021	
3542	0	33562	32132	
3543	0	33856	31798	
3544	0	33654	32702	
3545	0	33448	33648	
3546	0	33134	34396	
3547	0	33236	34470	
3548	0	33100	34070	
3549	0	33034	33550	
3550	0	32906	33204	
3551	0	32896	33158	
3552	0	33192	32728	
3553	0	33206	32876	
3554	0	33212	32580	
3555	0	33030	32290	
3556	0	33016	32213	
3557	0	32992	31902	
3558	0	32782	32100	
3559	0	32516	32160	
3560	0	32200	32126	
3561	0	31962	32328	
3562	0	31716	32650	
3563	0	31352	31584	
3564	0	31018	31358	
3565	0	31274	30646	
3566	0	31646	30492	
3567	0	31820	31702	
3568	0	32000	32816	
3569	0	31896	34294	
3570	0	31803	34684	
3571	0	31918	35440	
3572	0	32264	35314	
3573	0	32700	33860	
3574	0	33424	33308	
3575	0	34449	33456	
3576	0	35040	32362	
3577	0	35614	33406	
3578	0	36016	33606	
3579	0	35748	32810	
3580	0	35104	33086	
3581	0	34292	32556	
3582	0	33428	32704	
3583	0	33114	32732	
3584	0	32680	32338	
3585	0	32320	32300	
3586	0	32168	32839	
3587	0	32152	32062	
3588	0	31864	30112	
3589	0	31714	28446	
3590	0	31624	31184	
3591	0	31744	32454	
3592	0	32196	33140	
3593	0	32036	34126	
3594	0	31760	34585	
3595	0	31912	35631	
3596	0	32098	34983	
3597	0	32096	34588	
3598	0	32080	33268	
3599	0	32020	32596	
3600	0	32769	31832	
3601	0	33196	32741	
3602	0	33684	32556	
3603	0	33932	32538	
3604	0	33856	32310	
3605	0	33334	32964	
3606	0	33504	32496	
3607	0	33940	32385	
3608	0	34081	33084	
3609	0	34064	32666	
3610	0	34376	31522	
3611	0	34276	31612	
3612	0	33832	31118	
3613	0	33252	31911	
3614	0	32652	32944	
3615	0	32385	33140	
3616	0	31764	32980	
3617	0	31628	33466	
3618	0	31512	33962	
3619	0	31576	32128	
3620	0	31776	32335	
3621	0	32004	32740	
3622	0	32388	32960	
3623	0	32449	33680	
3624	0	32508	33940	
3625	0	32200	34100	
3626	0	31960	33480	
3627	0	31996	33078	
3628	0	32244	32967	
3629	0	32188	32720	
3630	0	32372	32118	
3631	0	32432	32072	
3632	0	32881	31392	
3633	0	32836	30828	
3634	0	32564	30168	
3635	0	32264	29712	
3636	0	32444	30530	
3637	0	33080	32692	
3638	0	33004	34426	
3639	0	33216	35232	
3640	0	33568	35568	
3641	0	34042	34988	
3642	0	34312	34266	
3643	0	34552	33863	
3644	0	34468	33828	
3645	0	34274	33034	
3646	0	33576	32348	
3647	0	33076	32287	
3648	0	32748	31848	
3649	0	32638	31860	
3650	0	32708	32504	
3651	0	32538	32286	
3652	0	32294	32428	
3653	0	32204	32388	
3654	0	32260	31935	
3655	0	32700	31292	
3656	0	32846	31748	
3657	0	32848	32452	
3658	0	32704	32660	
3659	0	32260	32932	
3660	0	31804	32982	
3661	0	31532	32518	
3662	0	31852	32460	
3663	0	31832	31882	
3664	0	32232	32276	
3665	0	32498	34054	
3666	0	32440	34278	
3667	0	32468	34448	
3668	0	32720	33688	
3669	0	33340	31668	
3670	0	33922	32068	
3671	0	34260	32610	
3672	0	34282	33576	
3673	0	34200	33726	
3674	0	34084	33120	
3675	0	33864	33857	
3676	0	33114	33322	
3677	0	32356	32796	
3678	0	32224	33606	
3679	0	32260	32342	
3680	0	32300	32602	
3681	0	31790	32593	
3682	0	31084	32480	
3683	0	31092	31976	
3684	0	31344	31280	
3685	0	32014	31519	
3686	0	32520	31650	
3687	0	32964	31880	
3688	0	33228	33732	
3689	0	33524	34840	
3690	0	33972	34652	
3691	0	33946	33358	
3692	0	33360	32160	
3693	0	33348	31572	
3694	0	33472	31202	
3695	0	33836	31956	
3696	0	33572	33892	
3697	0	33132	32542	
3698	0	33108	30506	
3699	0	32908	32862	
3700	0	32892	33690	
3701	0	32708	34026	
3702	0	32578	34990	
3703	0	32472	34431	
3704	0	32436	34490	
3705	0	32542	33004	
3706	0	32508	31390	
3707	0	32602	31884	
3708	0	32865	32512	
3709	0	33340	32708	
3710	0	33180	33671	
3711	0	32920	33776	
3712	0	31744	33066	
3713	0	31090	31712	
3714	0	30940	31194	
3715	0	31290	32026	
3716	0	32104	31908	
3717	0	32592	32976	
3718	0	32674	33244	
3719	0	32940	32193	
3720	0	33408	32628	
3721	0	33684	32007	
3722	0	34192	32352	
3723	0	34070	32590	
3724	0	34318	32952	
3725	0	34532	33723	
3726	0	34244	33874	
3727	0	33806	33606	
3728	0	33094	33634	
3729	0	32028	32994	
3730	0	31298	32292	
3731	0	31440	31366	
3732	0	31016	32064	
3733	0	30530	32027	
3734	0	30274	32432	
3735	0	30904	32414	
3736	0	32052	31960	
3737	0	33158	32798	
3738	0	33812	32814	
3739	0	34144	32698	
3740	0	34540	32664	
3741	0	34580	32784	
3742	0	34560	33584	
3743	0	34632	33806	
3744	0	34428	34112	
3745	0	34060	33724	
3746	0	33592	33089	
3747	0	33594	32566	
3748	0	33408	32390	
3749	0	33248	32964	
3750	0	32958	32401	
3751	0	32710	31044	
3752	0	32716	31797	
3753	0	32568	31953	
3754	0	31782	32536	
3755	0	31216	32436	
3756	0	31468	30844	
3757	0	31388	31486	
3758	0	31564	32608	
3759	0	31513	33878	
3760	0	31756	34932	
3761	0	32008	35274	
3762	0	31920	34528	
3763	0	31952	33357	
3764	0	32076	32920	
3765	0	32244	32383	
3766	0	32688	31346	
3767	0	32852	32384	
3768	0	33178	31576	
3769	0	33624	31972	
3770	0	33892	32263	
3771	0	33904	33252	
3772	0	33624	33140	
3773	0	33728	33415	
3774	0	33852	32788	
3775	0	33634	32950	
3776	0	33242	33670	
3777	0	33032	32324	
3778	0	32920	32838	
3779	0	32584	33510	
3780	0	31830	32532	
3781	0	31780	32718	
3782	0	32184	32954	
3783	0	32274	32892	
3784	0	32274	32836	
3785	0	32280	32759	
3786	0	32472	32972	
3787	0	32748	32839	
3788	0	33148	33156	
3789	0	33380	33076	
3790	0	33282	35200	
3791	0	33088	35950	
3792	0	33192	34892	
3793	0	33078	33112	
3794	0	33238	31040	
3795	0	32968	30506	
3796	0	32428	30908	
3797	0	32360	31400	
3798	0	32676	32692	
3799	0	32636	32954	
3800	0	32324	32260	
3801	0	31985	31921	
3802	0	32360	32096	
3803	0	32348	32466	
3804	0	32216	32532	
3805	0	32032	32460	
3806	0	32324	32248	
3807	0	32414	32286	
3808	0	32404	32296	
3809	0	32552	32420	
3810	0	32816	32455	
3811	0	33482	32658	
3812	0	33808	32775	
3813	0	33998	33116	
3814	0	34224	33055	
3815	0	34192	33004	
3816	0	34220	33415	
3817	0	34520	32772	
3818	0	34328	32742	
3819	0	34152	33508	
3820	0	34156	33084	
3821	0	33680	31878	
3822	0	33402	32025	
3823	0	32450	32396	
3824	0	31572	32048	
3825	0	30474	32824	
3826	0	29938	32898	
3827	0	30222	32890	
3828	0	30584	33038	
3829	0	31208	33140	
3830	0	31884	32732	
3831	0	32036	33352	
3832	0	32142	33036	
3833	0	33018	32774	
3834	0	33287	32322	
3835	0	33740	32688	
3836	0	34462	32799	
3837	0	34912	32700	
3838	0	34552	33118	
3839	0	33992	32892	
3840	0	33588	32808	
3841	0	33772	32492	
3842	0	33730	32135	
3843	0	33740	32818	
3844	0	33296	33100	
3845	0	32772	32846	
3846	0	32948	31614	
3847	0	32768	31740	
3848	0	32450	31184	
3849	0	32090	30944	
3850	0	31884	32070	
3851	0	31864	33130	
3852	0	31808	34028	
3853	0	32016	34346	
3854	0	32076	33920	
3855	0	32372	32882	
3856	0	32388	32772	
3857	0	32674	33156	
3858	0	33000	33050	
3859	0	32932	33284	
3860	0	32880	33550	
3861	0	32804	33575	
3862	0	32794	33020	
3863	0	32692	33244	
3864	0	32684	33232	
3865	0	32778	32687	
3866	0	32298	32302	
3867	0	32134	31980	
3868	0	32040	32386	
3869	0	32444	32167	
3870	0	32716	31826	
3871	0	32628	32263	
3872	0	32808	32551	
3873	0	32868	33201	
3874	0	33056	32912	
3875	0	33300	33336	
3876	0	33480	33531	
3877	0	33392	32730	
3878	0	33148	32342	
3879	0	33288	32572	
3880	0	33372	32656	
3881	0	33208	32650	
3882	0	32840	32388	
3883	0	32756	32434	
3884	0	32714	31999	
3885	0	32616	31562	
3886	0	32024	31758	
3887	0	31624	32456	
3888	0	31778	33730	
3889	0	32420	34172	
3890	0	33108	34588	
3891	0	33620	34123	
3892	0	33662	33774	
3893	0	33064	33799	
3894	0	32814	32948	
3895	0	32330	32320	
3896	0	32160	31726	
3897	0	32288	31736	
3898	0	32706	32184	
3899	0	32816	32948	
3900	0	32784	32756	
3901	0	32816	33344	
3902	0	33178	32812	
3903	0	33212	31564	
3904	0	33120	31124	
3905	0	33344	31172	
3906	0	33656	32110	
3907	0	33610	33020	
3908	0	33860	33576	
3909	0	33840	34548	
3910	0	33520	34764	
3911	0	33052	34484	
3912	0	32556	33842	
3913	0	32500	33700	
3914	0	32168	33252	
3915	0	32704	32878	
3916	0	33234	32104	
3917	0	33352	31642	
3918	0	33264	31879	
3919	0	33572	31592	
3920	0	33304	31512	
3921	0	33032	32506	
3922	0	32316	32447	
3923	0	32060	32324	
3924	0	32124	32390	
3925	0	31886	32202	
3926	0	31968	32418	
3927	0	32370	32090	
3928	0	32340	32612	
3929	0	32566	32620	
3930	0	32756	32178	
3931	0	32832	33244	
3932	0	32934	32800	
3933	0	32952	32703	
3934	0	32680	32396	
3935	0	32444	32583	
3936	0	32902	33902	
3937	0	33104	34732	
3938	0	32968	34528	
3939	0	33056	34030	
3940	0	33112	33255	
3941	0	33016	32704	
3942	0	32644	32508	
3943	0	32556	32990	
3944	0	32676	32438	
3945	0	32552	32228	
3946	0	32478	32548	
3947	0	32724	32502	
3948	0	32756	32458	
3949	0	32596	32327	
3950	0	32328	32116	
3951	0	32464	32204	
3952	0	32572	32756	
3953	0	32704	32970	
3954	0	32858	32516	
3955	0	32902	32519	
3956	0	32892	32802	
3957	0	33008	31906	
3958	0	32986	32455	
3959	0	33100	33364	
3960	0	33000	33646	
3961	0	32904	33578	
3962	0	33058	34302	
3963	0	32968	33564	
3964	0	33012	33087	
3965	0	32840	32460	
3966	0	32864	32834	
3967	0	32826	32464	
3968	0	32788	31942	
3969	0	32894	32764	
3970	0	32696	33484	
3971	0	32624	33624	
3972	0	32606	33222	
3973	0	32706	33096	
3974	0	32528	32948	
3975	0	32534	32576	
3976	0	32948	32664	
3977	0	32780	32126	
3978	0	32514	32361	
3979	0	32348	32816	
3980	0	32394	32774	
3981	0	32768	32799	
3982	0	32536	32210	
3983	0	32276	32042	
3984	0	32422	32204	
3985	0	32588	31146	
3986	0	32310	31204	
3987	0	32820	32388	
3988	0	33412	33306	
3989	0	33288	33794	
3990	0	33040	34224	
3991	0	33352	34344	
3992	0	33126	32682	
3993	0	32846	32316	
3994	0	32642	31784	
3995	0	32584	31612	
3996	0	32690	31590	
3997	0	33648	32666	
3998	0	34430	32936	
3999	0	34412	33030	
4000	0	34096	33344	
4001	0	33544	33382	
4002	0	33584	32962	
4003	0	33118	33012	
4004	0	33168	33623	
4005	0	32384	33700	
4006	0	31832	33080	
4007	0	31568	32807	
4008	0	31608	32810	
4009	0	31720	32700	
4010	0	32176	32375	
4011	0	32326	32048	
4012	0	32452	32263	
4013	0	32566	31476	
4014	0	33060	31742	
4015	0	33112	32308	
4016	0	32844	33344	
4017	0	32704	33922	
4018	0	33060	34246	
4019	0	33416	33770	
4020	0	33300	34414	
4021	0	33088	33130	
4022	0	32964	32423	
4023	0	32788	32220	
4024	0	32680	32288	
4025	0	32730	32330	
4026	0	32664	32662	
4027	0	32620	33270	
4028	0	32606	32764	
4029	0	32642	32478	
4030	0	32736	32775	
4031	0	32700	32668	
4032	0	32748	32254	
4033	0	32492	32148	
4034	0	32489	32510	
4035	0	32810	32706	
4036	0	32786	32764	
4037	0	32994	32532	
4038	0	33132	32372	
4039	0	32742	32298	
4040	0	32690	32380	
4041	0	32842	32702	
4042	0	32606	32952	
4043	0	32684	33039	
4044	0	32840	33070	
4045	0	32764	33026	
4046	0	32511	33094	
4047	0	32700	32428	
4048	0	32642	32708	
4049	0	32834	32132	
4050	0	32740	32828	
4051	0	32676	33143	
4052	0	32690	32870	
4053	0	32732	32884	
4054	0	32816	32828	
4055	0	32984	32956	
4056	0	33093	33390	
4057	0	32878	33191	
4058	0	32865	32710	
4059	0	33036	32692	
4060	0	33128	32792	
4061	0	33132	32815	
4062	0	33060	32632	
4063	0	33072	32736	
4064	0	33250	32678	
4065	0	32876	32708	
4066	0	32744	32546	
4067	0	32900	32454	
4068	0	32720	33274	
4069	0	32670	33457	
4070	0	32665	32380	
4071	0	32654	32743	
4072	0	32680	32300	
4073	0	32868	32604	
4074	0	33100	32871	
4075	0	33000	32158	
4076	0	32796	32144	
4077	0	32540	32647	
4078	0	32860	33118	
4079	0	32864	32704	
4080	0	32324	32220	
4081	0	32448	33114	
4082	0	32528	33480	
4083	0	32248	33799	
4084	0	31770	33834	
4085	0	31584	33692	
4086	0	32060	33204	
4087	0	32444	32948	
4088	0	32704	32570	
4089	0	33284	32598	
4090	0	33528	32196	
4091	0	33702	31890	
4092	0	33910	31972	
4093	0	34146	32398	
4094	0	34128	32500	
4095	0	34340	32444	
4096	0	34376	32808	
4097	0	34332	32921	
4098	0	33908	32680	
4099	0	33776	32730	
4100	0	33476	32856	
4101	0	33193	32108	
4102	0	32594	32572	
4103	0	32288	32850	
4104	0	31906	33310	
4105	0	31622	33260	
4106	0	31464	33742	
4107	0	31596	33318	
4108	0	31748	33212	
4109	0	32024	33049	
4110	0	32228	32918	
4111	0	32524	32311	
4112	0	32804	32364	
4113	0	32852	32610	
4114	0	32712	33543	
4115	0	32552	33959	
4116	0	32668	32956	
4117	0	32836	32433	
4118	0	32914	32202	
4119	0	32736	32295	
4120	0	32838	32331	
4121	0	32764	32412	
4122	0	32554	32532	
4123	0	32440	32682	
4124	0	32600	32604	
4125	0	32888	32766	
4126	0	33000	32716	
4127	0	33060	32736	
4128	0	32878	32612	
4129	0	32872	32591	
4130	0	32992	32664	
4131	0	33016	32741	
4132	0	32836	32870	
4133	0	33024	32879	
4134	0	32710	32887	
4135	0	32672	32630	
4136	0	32620	32668	
4137	0	32792	32660	
4138	0	32834	32775	
4139	0	32814	32512	
4140	0	32652	32506	
4141	0	32824	32320	
4142	0	32974	32559	
4143	0	33018	32900	
4144	0	32972	33072	
4145	0	32858	32602	
4146	0	33044	32558	
4147	0	32804	32558	
4148	0	32364	32810	
4149	0	32688	32886	
4150	0	32974	32642	
4151	0	33062	32583	
4152	0	33008	32455	
4153	0	32972	32666	
4154	0	32922	32524	
4155	0	33036	32148	
4156	0	32940	32257	
4157	0	32678	32488	
4158	0	32794	32486	
4159	0	32772	33012	
4160	0	32628	32764	
4161	0	32684	32180	
4162	0	32646	32240	
4163	0	32500	32741	
4164	0	32724	33256	
4165	0	32840	33799	
4166	0	32940	33207	
4167	0	32866	33072	
4168	0	33036	32721	
4169	0	33052	32368	
4170	0	33054	33306	
4171	0	32778	32448	
4172	0	32936	32570	
4173	0	32942	33002	
4174	0	32780	32966	
4175	0	33168	32744	
4176	0	33002	32722	
4177	0	32836	33112	
4178	0	32860	33380	
4179	0	32836	33104	
4180	0	32714	33002	
4181	0	32584	33003	
4182	0	32624	32992	
4183	0	32806	33030	
4184	0	32752	32894	
4185	0	32936	32481	
4186	0	33052	32468	
4187	0	32792	32670	
4188	0	32641	32676	
4189	0	32458	32708	
4190	0	32688	32794	
4191	0	32606	32864	
4192	0	32552	32860	
4193	0	32532	33008	
4194	0	32492	32806	
4195	0	32752	32834	
4196	0	32820	32746	
4197	0	32736	32750	
4198	0	32872	32638	
4199	0	32960	32726	
4200	0	33116	32826	
4201	0	33092	32758	
4202	0	33152	32534	
4203	0	33356	32430	
4204	0	33160	32543	
4205	0	32704	32954	
4206	0	32492	32934	
4207	0	32582	32887	
4208	0	32500	33054	
4209	0	32148	32860	
4210	0	32202	33151	
4211	0	32754	32986	
4212	0	32996	32807	
4213	0	33216	32716	
4214	0	33128	32604	
4215	0	33060	32662	
4216	0	33104	32708	
4217	0	32954	32664	
4218	0	33008	32650	
4219	0	32934	32620	
4220	0	33092	32502	
4221	0	33036	32526	
4222	0	32816	32519	
4223	0	32858	32656	
4224	0	32834	32732	
4225	0	32700	32730	
4226	0	32510	33045	
4227	0	32572	33258	
4228	0	32788	32752	
4229	0	32760	32775	
4230	0	32688	32074	
4231	0	32971	31840	
4232	0	33020	31510	
4233	0	32680	31783	
4234	0	32794	32154	
4235	0	32808	33012	
4236	0	32494	33220	
4237	0	32468	32976	
4238	0	32636	33510	
4239	0	32844	33728	
4240	0	32648	33588	
4241	0	32412	33390	
4242	0	32554	33318	
4243	0	32816	32919	
4244	0	32910	32962	
4245	0	32880	33120	
4246	0	32952	33150	
4247	0	33076	32942	
4248	0	33072	33055	
4249	0	33044	32978	
4250	0	33056	32650	
4251	0	32996	32454	
4252	0	32992	32304	
4253	0	32752	32142	
4254	0	32870	31920	
4255	0	32790	31916	
4256	0	32724	32468	
4257	0	32646	32044	
4258	0	32624	31679	
4259	0	32602	31412	
4260	0	32548	31682	
4261	0	32648	32078	
4262	0	32696	32446	
4263	0	32800	32796	
4264	0	33012	33210	
4265	0	32784	33124	
4266	0	32952	33207	
4267	0	32974	33326	
4268	0	32980	33320	
4269	0	32916	33282	
4270	0	32840	33260	
4271	0	32840	33312	
4272	0	32884	33476	
4273	0	32884	33332	
4274	0	33024	33224	
4275	0	32864	33058	
4276	0	32904	32998	
4277	0	33044	32896	
4278	0	32892	32711	
4279	0	32628	32844	
4280	0	32798	32730	
4281	0	32910	32532	
4282	0	32934	32606	
4283	0	32768	32676	
4284	0	32564	32839	
4285	0	32588	32940	
4286	0	32656	32775	
4287	0	32694	32774	
4288	0	32756	32798	
4289	0	32944	32479	
4290	0	32692	32692	
4291	0	32626	32678	
4292	0	32656	32834	
4293	0	32744	33028	
4294	0	32728	33006	
4295	0	32742	32812	
4296	0	32762	32732	
4297	0	32896	33051	
4298	0	32706	32892	
4299	0	32826	32595	
4300	0	32984	32352	
4301	0	33008	32702	
4302	0	32992	32842	
4303	0	32842	32850	
4304	0	32752	32878	
4305	0	32728	33060	
4306	0	32834	32946	
4307	0	32864	32848	
4308	0	32944	32768	
4309	0	32944	32962	
4310	0	32952	32874	
4311	0	32816	32647	
4312	0	32838	32692	
4313	0	32842	32895	
4314	0	32600	32934	
4315	0	32724	32738	
4316	0	32815	32508	
4317	0	32864	32590	
4318	0	32768	32742	
4319	0	32856	32903	
4320	0	32872	32852	
4321	0	32754	32540	
4322	0	32884	32687	
4323	0	32686	32700	
4324	0	32572	32263	
4325	0	32728	32251	
4326	0	32968	32698	
4327	0	33052	32834	
4328	0	32868	32900	
4329	0	32796	33098	
4330	0	33056	33486	
4331	0	32938	33788	
4332	0	32736	33461	
4333	0	32818	33316	
4334	0	32852	33142	
4335	0	32874	32952	
4336	0	32912	32830	
4337	0	32876	32544	
4338	0	32870	32336	
4339	0	32714	32290	
4340	0	32644	32458	
4341	0	32824	32476	
4342	0	32784	32524	
4343	0	32696	32384	
4344	0	32524	32472	
4345	0	32556	32391	
4346	0	32768	32102	
4347	0	32840	32124	
4348	0	32944	32104	
4349	0	32980	32172	
4350	0	33029	32483	
4351	0	32966	32834	
4352	0	32836	32966	
4353	0	32738	33409	
4354	0	32960	33074	
4355	0	33044	33174	
4356	0	32898	33287	
4357	0	32696	33132	
4358	0	32632	33158	
4359	0	32516	33191	
4360	0	32312	33012	
4361	0	32406	33070	
4362	0	32662	33212	
4363	0	32856	33280	
4364	0	32943	33060	
4365	0	32780	33118	
4366	0	32726	33002	
4367	0	33118	32802	
4368	0	33124	32618	
4369	0	33286	32472	
4370	0	33236	32775	
4371	0	33136	32868	
4372	0	32992	32886	
4373	0	32764	32826	
4374	0	32704	32858	
4375	0	32725	32848	
4376	0	32618	32628	
4377	0	32564	32728	
4378	0	32568	32668	
4379	0	32740	32646	
4380	0	32912	32564	
4381	0	32888	32476	
4382	0	32846	32392	
4383	0	32662	32634	
4384	0	32696	32548	
4385	0	32748	32663	
4386	0	32676	32862	
4387	0	32678	32842	
4388	0	32648	32782	
4389	0	32864	32519	
4390	0	32706	32410	
4391	0	32732	32244	
4392	0	32744	32383	
4393	0	32764	32408	
4394	0	32880	32684	
4395	0	32946	32700	
4396	0	32884	32476	
4397	0	33000	32572	
4398	0	33008	32886	
4399	0	32776	32864	
4400	0	32748	32846	
4401	0	32920	32908	
4402	0	32889	32891	
4403	0	32760	33196	
4404	0	32792	33110	
4405	0	32824	33038	
4406	0	32872	32967	
4407	0	33004	33046	
4408	0	33020	33063	
4409	0	32982	32743	
4410	0	32846	32854	
4411	0	32628	33140	
4412	0	32552	32870	
4413	0	32716	32956	
4414	0	32680	32853	
4415	0	32762	32382	
4416	0	32960	32295	
4417	0	32814	32494	
4418	0	32638	32737	
4419	0	32704	32643	
4420	0	32768	32597	
4421	0	32808	32422	
4422	0	32902	32352	
4423	0	32904	32314	
4424	0	32952	32422	
4425	0	32788	32606	
4426	0	32716	32874	
4427	0	32802	32943	
4428	0	32868	32924	
4429	0	32904	32951	
4430	0	32764	32878	
4431	0	32912	32992	
4432	0	32772	33024	
4433	0	32760	33248	
4434	0	32884	33182	
4435	0	32924	33183	
4436	0	32908	33284	
4437	0	32788	33324	
4438	0	32722	32807	
4439	0	32800	32846	
4440	0	33020	32820	
4441	0	32970	32842	
4442	0	32938	32544	
4443	0	32880	32647	
4444	0	32952	32688	
4445	0	32668	32878	
4446	0	32416	32487	
4447	0	32540	32151	
4448	0	32652	32210	
4449	0	32746	32218	
4450	0	32844	32423	
4451	0	33018	32460	
4452	0	32646	32506	
4453	0	32542	32452	
4454	0	32708	32446	
4455	0	32882	32668	
4456	0	33160	32858	
4457	0	33312	32898	
4458	0	33222	33110	
4459	0	33152	33268	
4460	0	33192	33084	
4461	0	33040	32967	
4462	0	32832	32920	
4463	0	32530	32864	
4464	0	32380	32790	
4465	0	32380	32876	
4466	0	32420	32928	
4467	0	32384	32860	
4468	0	32508	32726	
4469	0	32554	32742	
4470	0	32558	32768	
4471	0	32760	32662	
4472	0	32668	32496	
4473	0	32738	32608	
4474	0	32778	32718	
4475	0	32918	32441	
4476	0	32936	32358	
4477	0	33156	32362	
4478	0	33036	32500	
4479	0	32976	32678	
4480	0	32976	32860	
4481	0	32784	32988	
4482	0	33064	33112	
4483	0	33110	33346	
4484	0	32790	33719	
4485	0	32884	33886	
4486	0	33036	33626	
4487	0	32856	33534	
4488	0	32920	33330	
4489	0	33088	33196	
4490	0	33054	32868	
4491	0	33034	32622	
4492	0	33052	32892	
4493	0	33064	33122	
4494	0	32970	33198	
4495	0	32994	32888	
4496	0	32904	32668	
4497	0	32504	32574	
4498	0	32652	32398	
4499	0	32834	32324	
4500	0	32548	32398	
4501	0	32584	32474	
4502	0	32348	32344	
4503	0	32316	32404	
4504	0	32405	32360	
4505	0	32508	32390	
4506	0	32448	32678	
4507	0	32468	32801	
4508	0	32460	32647	
4509	0	32706	32020	
4510	0	32852	32100	
4511	0	32828	32299	
4512	0	32840	32596	
4513	0	32950	32868	
4514	0	33160	33172	
4515	0	32916	33262	
4516	0	33142	33202	
4517	0	33112	32992	
4518	0	33020	33044	
4519	0	32980	32864	
4520	0	32860	32966	
4521	0	32932	32434	
4522	0	33136	32369	
4523	0	33048	32148	
4524	0	33102	31496	
4525	0	33296	31610	
4526	0	33054	32263	
4527	0	32652	32495	
4528	0	32550	32568	
4529	0	32452	32580	
4530	0	32404	32630	
4531	0	32421	32862	
4532	0	32468	33076	
4533	0	32514	33050	
4534	0	32602	33062	
4535	0	32820	33042	
4536	0	32775	33012	
4537	0	32888	32770	
4538	0	32800	32682	
4539	0	32676	32983	
4540	0	32688	33012	
4541	0	32724	33116	
4542	0	32688	33031	
4543	0	32976	32903	
4544	0	33156	32798	
4545	0	33110	32760	
4546	0	32960	32796	
4547	0	33138	32903	
4548	0	33200	32918	
4549	0	33106	32801	
4550	0	33176	32802	
4551	0	33062	32937	
4552	0	32822	32790	
4553	0	32708	32826	
4554	0	32356	33031	
4555	0	32378	32672	
4556	0	32458	32682	
4557	0	32516	32842	
4558	0	32680	32678	
4559	0	32772	32660	
4560	0	32780	32634	
4561	0	32776	32468	
4562	0	32776	32422	
4563	0	32938	32551	
4564	0	32806	32790	
4565	0	32708	32792	
4566	0	32648	32614	
4567	0	32820	32670	
4568	0	32996	32758	
4569	0	33082	32808	
4570	0	33232	32836	
4571	0	33212	32926	
4572	0	33280	32814	
4573	0	33064	32756	
4574	0	32896	32826	
4575	0	32646	32790	
4576	0	32320	32866	
4577	0	32274	32831	
4578	0	32544	32786	
4579	0	32900	33158	
4580	0	32944	33287	
4581	0	32908	33224	
4582	0	32940	33310	
4583	0	32814	33320	
4584	0	32772	33190	
4585	0	33024	32888	
4586	0	33198	32942	
4587	0	33070	32754	
4588	0	32872	32482	
4589	0	32776	32511	
4590	0	32836	32396	
4591	0	32828	32374	
4592	0	32816	32086	
4593	0	32572	32075	
4594	0	32474	32102	
4595	0	32644	31902	
4596	0	32764	31930	
4597	0	32532	32068	
4598	0	32406	32494	
4599	0	32380	32886	
4600	0	32568	33166	
4601	0	32764	33168	
4602	0	33084	33098	
4603	0	32978	33056	
4604	0	33252	32970	
4605	0	33188	32895	
4606	0	32844	32936	
4607	0	32348	33119	
4608	0	32596	33426	
4609	0	32980	33360	
4610	0	33296	33466	
4611	0	33324	33396	
4612	0	32880	33174	
4613	0	32688	33118	
4614	0	32414	33173	
4615	0	32492	33136	
4616	0	32676	32668	
4617	0	32680	32448	
4618	0	32646	32444	
4619	0	32640	32304	
4620	0	32784	32044	
4621	0	32804	32080	
4622	0	32696	32146	
4623	0	32798	32159	
4624	0	32908	32328	
4625	0	32802	32465	
4626	0	32928	32574	
4627	0	33012	32620	
4628	0	32936	32442	
4629	0	32852	32495	
4630	0	32690	32814	
4631	0	32628	32954	
4632	0	32688	32922	
4633	0	32872	32996	
4634	0	32912	33108	
4635	0	32894	33092	
4636	0	32772	33090	
4637	0	32828	32941	
4638	0	32764	32802	
4639	0	32912	32944	
4640	0	32984	32952	
4641	0	33060	33089	
4642	0	33066	33022	
4643	0	32916	32903	
4644	0	32616	33024	
4645	0	32840	33108	
4646	0	32912	33137	
4647	0	32892	33263	
4648	0	32952	32910	
4649	0	32924	32424	
4650	0	32704	31988	
4651	0	32534	32192	
4652	0	32636	32471	
4653	0	32616	32540	
4654	0	32748	32650	
4655	0	32832	32644	
4656	0	32828	32612	
4657	0	32872	32789	
4658	0	32816	32903	
4659	0	32898	32887	
4660	0	32780	32892	
4661	0	32808	32775	
4662	0	32912	32815	
4663	0	32744	32930	
4664	0	32782	32836	
4665	0	32822	33060	
4666	0	32860	32988	
4667	0	32902	32927	
4668	0	32940	32760	
4669	0	32918	32740	
4670	0	32952	32868	
4671	0	33064	33047	
4672	0	33048	33078	
4673	0	32896	32844	
4674	0	32756	32710	
4675	0	32560	32652	
4676	0	32602	32723	
4677	0	32420	33134	
4678	0	32664	33146	
4679	0	32872	32922	
4680	0	32808	32748	
4681	0	32908	32504	
4682	0	32974	32278	
4683	0	32490	32098	
4684	0	32616	32148	
4685	0	32460	32408	
4686	0	32702	32230	
4687	0	32840	32048	
4688	0	32764	32134	
4689	0	32972	32108	
4690	0	32892	32284	
4691	0	32944	32468	
4692	0	32904	32616	
4693	0	32774	32670	
4694	0	32692	32775	
4695	0	32705	32940	
4696	0	32648	32920	
4697	0	32800	33031	
4698	0	32916	33020	
4699	0	33184	33204	
4700	0	33292	33356	
4701	0	33060	33204	
4702	0	32864	33006	
4703	0	32892	33014	
4704	0	32892	33168	
4705	0	32852	33542	
4706	0	32652	33426	
4707	0	32452	32996	
4708	0	32420	33063	
4709	0	32450	33088	
4710	0	32516	33046	
4711	0	32520	32894	
4712	0	32567	32519	
4713	0	32676	32254	
4714	0	32734	32038	
4715	0	32794	32362	
4716	0	32936	32332	
4717	0	33038	32486	
4718	0	33120	32478	
4719	0	32976	32572	
4720	0	32924	32720	
4721	0	32936	32556	
4722	0	32980	32674	
4723	0	32918	32738	
4724	0	32946	32906	
4725	0	32896	32874	
4726	0	32902	32900	
4727	0	32892	33015	
4728	0	32832	32822	
4729	0	32878	32864	
4730	0	32848	32944	
4731	0	32816	33066	
4732	0	32704	33303	
4733	0	32804	32990	
4734	0	32800	32928	
4735	0	32790	32854	
4736	0	32828	32992	
4737	0	32898	33050	
4738	0	32926	33240	
4739	0	32716	32964	
4740	0	32712	32772	
4741	0	32660	32679	
4742	0	32632	32710	
4743	0	32772	32500	
4744	0	32868	32302	
4745	0	33020	32401	
4746	0	33036	32434	
4747	0	32844	32519	
4748	0	32746	32458	
4749	0	32744	32284	
4750	0	32664	32252	
4751	0	32668	32391	
4752	0	32800	32488	
4753	0	32816	32606	
4754	0	32848	32680	
4755	0	32844	33038	
4756	0	32730	33262	
4757	0	32874	33070	
4758	0	32794	32874	
4759	0	32912	32602	
4760	0	32832	32380	
4761	0	32828	32922	
4762	0	33148	33031	
4763	0	32864	33142	
4764	0	32980	32912	
4765	0	32944	32831	
4766	0	32730	32910	
4767	0	32704	33128	
4768	0	32520	33383	
4769	0	32720	33415	
4770	0	32816	33404	
4771	0	32762	33066	
4772	0	32759	32782	
4773	0	32650	32702	
4774	0	32664	32678	
4775	0	32808	32519	
4776	0	32730	32496	
4777	0	32640	32432	
4778	0	32704	32296	
4779	0	32696	32236	
4780	0	32708	32316	
4781	0	32652	32416	
4782	0	32664	32578	
4783	0	32640	32639	
4784	0	32840	32615	
4785	0	32980	32544	
4786	0	32996	32704	
4787	0	33086	32775	
4788	0	32926	32839	
4789	0	32836	32898	
4790	0	32868	32850	
4791	0	32884	33031	
4792	0	32812	33122	
4793	0	32824	33031	
4794	0	32806	32810	
4795	0	32776	32930	
4796	0	32784	32818	
4797	0	32813	32804	
4798	0	32868	33028	
4799	0	32848	33136	
4800	0	32916	33026	
4801	0	32804	33216	
4802	0	32904	33122	
4803	0	32908	33191	
4804	0	32848	33112	
4805	0	32805	32924	
4806	0	32778	32743	
4807	0	32788	32718	
4808	0	32882	32562	
4809	0	32884	32590	
4810	0	32916	32660	
4811	0	32912	32564	
4812	0	32853	32436	
4813	0	32828	32298	
4814	0	32756	32156	
4815	0	32636	31824	
4816	0	32692	32073	
4817	0	32660	32280	
4818	0	32716	32348	
4819	0	32860	32340	
4820	0	32828	32423	
4821	0	32872	32558	
4822	0	32732	32588	
4823	0	32818	32580	
4824	0	32844	32581	
4825	0	32854	32775	
4826	0	32764	32930	
4827	0	32828	33326	
4828	0	32780	33447	
4829	0	32824	33383	
4830	0	33120	33316	
4831	0	33013	33347	
4832	0	32980	33112	
4833	0	32900	33218	
4834	0	32856	33186	
4835	0	32776	33080	
4836	0	32796	33086	
4837	0	33024	32930	
4838	0	33012	33113	
4839	0	32860	32857	
4840	0	32628	32340	
4841	0	32636	31848	
4842	0	32482	31980	
4843	0	32768	32537	
4844	0	32944	32804	
4845	0	32936	32742	
4846	0	32672	33004	
4847	0	32689	32720	
4848	0	32720	32318	
4849	0	32910	32171	
4850	0	32872	32062	
4851	0	32736	32324	
4852	0	32550	32200	
4853	0	32522	32358	
4854	0	32470	32513	
4855	0	32580	32446	
4856	0	32852	32517	
4857	0	32840	32734	
4858	0	32850	32924	
4859	0	32748	33128	
4860	0	32782	33031	
4861	0	32720	32960	
4862	0	32992	33162	
4863	0	32940	32986	
4864	0	32960	33220	
4865	0	32968	33190	
4866	0	32896	33110	
4867	0	32880	33118	
4868	0	32934	33183	
4869	0	32922	33190	
4870	0	32670	33270	
4871	0	32799	33508	
4872	0	32904	33280	
4873	0	33040	33096	
4874	0	32988	33012	
4875	0	32909	32967	
4876	0	32854	33002	
4877	0	32980	32694	
4878	0	32996	32420	
4879	0	32900	32222	
4880	0	32684	32180	
4881	0	32416	32231	
4882	0	32634	32219	
4883	0	32852	32184	
4884	0	32958	32202	
4885	0	33050	32284	
4886	0	32906	32352	
4887	0	32824	32548	
4888	0	32776	32588	
4889	0	32568	32658	
4890	0	32574	32598	
4891	0	32598	32722	
4892	0	32484	32702	
4893	0	32708	32726	
4894	0	32846	32926	
4895	0	32772	32966	
4896	0	32816	32976	
4897	0	32764	32978	
4898	0	32828	33216	
4899	0	32848	33230	
4900	0	32866	33328	
4901	0	32892	33462	
4902	0	32866	33390	
4903	0	32857	33380	
4904	0	32884	33233	
4905	0	32852	33486	
4906	0	32946	33682	
4907	0	32976	34090	
4908	0	32954	33534	
4909	0	32774	32860	
4910	0	32792	32228	
4911	0	32938	31700	
4912	0	32960	31712	
4913	0	33016	31746	
4914	0	33064	31649	
4915	0	32932	31806	
4916	0	32806	31774	
4917	0	32720	31651	
4918	0	32580	31744	
4919	0	32448	31978	
4920	0	32340	32386	
4921	0	32512	32654	
4922	0	32608	32448	
4923	0	32696	32380	
4924	0	32668	32756	
4925	0	32700	32802	
4926	0	32948	32840	
4927	0	32756	33110	
4928	0	32762	33356	
4929	0	32856	33351	
4930	0	33102	33370	
4931	0	33016	33380	
4932	0	32864	33310	
4933	0	32872	33319	
4934	0	33052	33326	
4935	0	32848	33143	
4936	0	32888	33172	
4937	0	32904	33232	
4938	0	32968	33256	
4939	0	32892	33252	
4940	0	32796	33092	
4941	0	32929	33195	
4942	0	32878	33152	
4943	0	32772	32898	
4944	0	32716	32838	
4945	0	32708	32682	
4946	0	32552	32652	
4947	0	32484	32566	
4948	0	32516	32436	
4949	0	32592	32378	
4950	0	32818	32368	
4951	0	33448	32534	
4952	0	33492	32424	
4953	0	33088	32370	
4954	0	32854	32420	
4955	0	33004	32680	
4956	0	32792	32680	
4957	0	32814	32704	
4958	0	32598	32594	
4959	0	32604	32798	
4960	0	32664	33012	
4961	0	32800	33072	
4962	0	32684	33236	
4963	0	32576	33096	
4964	0	32640	32876	
4965	0	32516	32775	
4966	0	32508	32982	
4967	0	32596	33202	
4968	0	32576	33060	
4969	0	32732	32750	
4970	0	32808	32474	
4971	0	32664	32668	
4972	0	32760	32592	
4973	0	32920	32462	
4974	0	33018	32426	
4975	0	33048	32530	
4976	0	32864	32750	
4977	0	32862	32890	
4978	0	33084	32900	
4979	0	33230	32678	
4980	0	33048	32570	
4981	0	32904	32519	
4982	0	32912	32594	
4983	0	32964	32519	
4984	0	32908	32388	
4985	0	32946	32583	
4986	0	32938	32839	
4987	0	32780	32767	
4988	0	32678	32529	
4989	0	32720	32362	
4990	0	32728	32180	
4991	0	32828	32263	
4992	0	32824	32144	
4993	0	32888	32098	
4994	0	32716	32160	
4995	0	32678	32104	
4996	0	32676	32199	
4997	0	32720	32436	
4998	0	32716	32708	
4999	0	32738	32871	
5000	0	32708	32715	
5001	0	32716	32854	
5002	0	32764	32842	
5003	0	32798	33122	
5004	0	32804	33226	
5005	0	32792	33186	
5006	0	32840	33336	
5007	0	32908	33750	
5008	0	32940	33892	
5009	0	32832	34114	
5010	0	32868	33820	
5011	0	32954	33470	
5012	0	32946	33157	
5013	0	32712	33130	
5014	0	32670	33135	
5015	0	32962	33223	
5016	0	33210	32878	
5017	0	33280	32712	
5018	0	33422	32628	
5019	0	32976	32216	
5020	0	32408	32076	
5021	0	32370	31924	
5022	0	32428	32314	
5023	0	32692	32232	
5024	0	33122	31948	
5025	0	32928	32024	
5026	0	32558	32070	
5027	0	32832	32358	
5028	0	32896	32656	
5029	0	32726	32668	
5030	0	32624	32826	
5031	0	32404	32878	
5032	0	32270	32834	
5033	0	32324	32860	
5034	0	32458	32942	
5035	0	32608	33074	
5036	0	32756	33066	
5037	0	32974	33175	
5038	0	33234	33056	
5039	0	33092	33158	
5040	0	33086	33212	
5041	0	33172	33228	
5042	0	32942	33178	
5043	0	32944	33024	
5044	0	32761	33028	
5045	0	32686	32820	
5046	0	32564	32815	
5047	0	32436	32952	
5048	0	32588	33068	
5049	0	32586	33094	
5050	0	32720	33134	
5051	0	32764	33041	
5052	0	32924	32958	
5053	0	32752	32712	
5054	0	32716	32551	
5055	0	32764	32138	
5056	0	33080	31736	
5057	0	33274	31450	
5058	0	33160	31316	
5059	0	33040	31512	
5060	0	33260	31900	
5061	0	32728	32374	
5062	0	32224	32618	
5063	0	32516	32774	
5064	0	33254	33212	
5065	0	33406	33486	
5066	0	33024	33576	
5067	0	32484	33254	
5068	0	32628	33191	
5069	0	32676	33425	
5070	0	32704	33190	
5071	0	32790	32658	
5072	0	32672	32404	
5073	0	32654	32146	
5074	0	32706	31836	
5075	0	32652	31696	
5076	0	32730	31616	
5077	0	32636	31828	
5078	0	32657	32026	
5079	0	32728	32486	
5080	0	32644	33358	
5081	0	32716	33756	
5082	0	32720	33558	
5083	0	32752	33452	
5084	0	32892	33236	
5085	0	33024	33010	
5086	0	33042	32916	
5087	0	33076	32636	
5088	0	32968	32444	
5089	0	32766	32647	
5090	0	33028	32508	
5091	0	33192	32510	
5092	0	33162	32596	
5093	0	32964	32456	
5094	0	32470	32982	
5095	0	32812	33047	
5096	0	33036	33392	
5097	0	33684	33412	
5098	0	33544	33350	
5099	0	32720	33159	
5100	0	32484	33263	
5101	0	32528	33287	
5102	0	32488	33063	
5103	0	32720	32642	
5104	0	32476	32506	
5105	0	32080	32472	
5106	0	31948	32534	
5107	0	32356	32614	
5108	0	32430	32482	
5109	0	32308	32356	
5110	0	32552	32476	
5111	0	32896	32337	
5112	0	32728	32560	
5113	0	32420	32634	
5114	0	32796	32775	
5115	0	32932	32754	
5116	0	33816	32940	
5117	0	34048	33047	
5118	0	33010	33031	
5119	0	32604	32940	
5120	0	32529	32946	
5121	0	32657	32894	
5122	0	33700	33036	
5123	0	33992	33159	
5124	0	33896	33064	
5125	0	33688	32978	
5126	0	33190	33278	
5127	0	32750	33742	
5128	0	32470	33600	
5129	0	32002	33415	
5130	0	31794	32900	
5131	0	31484	32604	
5132	0	31024	32372	
5133	0	31120	32322	
5134	0	32714	32328	
5135	0	33136	32498	
5136	0	33476	32012	
5137	0	34024	31857	
5138	0	32916	31609	
5139	0	32292	31864	
5140	0	33116	32370	
5141	0	33220	32388	
5142	0	32542	32650	
5143	0	32622	32906	
5144	0	33106	32770	
5145	0	32620	33028	
5146	0	32906	33624	
5147	0	33804	34172	
5148	0	33260	34668	
5149	0	33020	34741	
5150	0	33192	34536	
5151	0	34148	33630	
5152	0	33184	32647	
5153	0	32236	31628	
5154	0	31724	31098	
5155	0	31712	30892	
5156	0	31713	30648	
5157	0	31744	30516	
5158	0	32156	30546	
5159	0	32518	30812	
5160	0	32720	31046	
5161	0	32512	31610	
5162	0	32712	31920	
5163	0	32980	32262	
5164	0	33588	32588	
5165	0	33066	32940	
5166	0	33130	33396	
5167	0	33022	34324	
5168	0	32772	34596	
5169	0	32678	34836	
5170	0	32494	34688	
5171	0	32676	34662	
5172	0	32856	34278	
5173	0	32980	33942	
5174	0	32922	33383	
5175	0	32884	33324	
5176	0	33056	33447	
5177	0	33088	33024	
5178	0	33056	32583	
5179	0	33160	32640	
5180	0	33144	32422	
5181	0	33234	32592	
5182	0	33226	32206	
5183	0	33200	32080	
5184	0	32972	31905	
5185	0	32841	31684	
5186	0	32852	31436	
5187	0	32756	31348	
5188	0	32824	31510	
5189	0	32822	31826	
5190	0	32876	32146	
5191	0	32834	32276	
5192	0	32822	32410	
5193	0	32788	32670	
5194	0	32680	33054	
5195	0	32616	33110	
5196	0	32437	33316	
5197	0	32302	33662	
5198	0	32970	33674	
5199	0	33616	33772	
5200	0	33902	33660	
5201	0	33264	33610	
5202	0	32734	33616	
5203	0	32276	33673	
5204	0	32086	33330	
5205	0	31908	33112	
5206	0	32404	33168	
5207	0	33380	33026	
5208	0	33614	32990	
5209	0	33024	32722	
5210	0	33002	32542	
5211	0	32761	32498	
5212	0	32344	32470	
5213	0	32196	32398	
5214	0	32182	32426	
5215	0	32540	32436	
5216	0	32552	32580	
5217	0	32832	32558	
5218	0	33008	32640	
5219	0	32900	32574	
5220	0	33020	32604	
5221	0	33272	32582	
5222	0	33072	32822	
5223	0	32436	33244	
5224	0	32944	33478	
5225	0	33446	34136	
5226	0	34156	34376	
5227	0	33976	34279	
5228	0	32590	33734	
5229	0	31956	33031	
5230	0	31920	32672	
5231	0	32004	32199	
5232	0	32564	31792	
5233	0	33104	31474	
5234	0	33084	31334	
5235	0	32634	31264	
5236	0	32326	31102	
5237	0	32098	31186	
5238	0	32536	31428	
5239	0	33332	31548	
5240	0	32956	31640	
5241	0	32656	31943	
5242	0	32610	32022	
5243	0	32600	32198	
5244	0	32614	32599	
5245	0	32544	32951	
5246	0	32660	33072	
5247	0	32796	32879	
5248	0	32742	33008	
5249	0	32864	33038	
5250	0	32908	33478	
5251	0	32972	33726	
5252	0	32988	33734	
5253	0	32956	33562	
5254	0	32818	33564	
5255	0	32886	33504	
5256	0	33052	33456	
5257	0	33210	33562	
5258	0	33096	33654	
5259	0	33482	33688	
5260	0	33526	33754	
5261	0	33066	33543	
5262	0	32960	33576	
5263	0	33012	33319	
5264	0	33264	33197	
5265	0	32542	33274	
5266	0	32198	32876	
5267	0	32096	32342	
5268	0	32066	31764	
5269	0	32478	31274	
5270	0	32372	31175	
5271	0	32352	31390	
5272	0	32352	31590	
5273	0	32632	31866	
5274	0	32840	31988	
5275	0	32858	32055	
5276	0	32848	32356	
5277	0	32940	32512	
5278	0	32924	32732	
5279	0	33062	32892	
5280	0	33048	33070	
5281	0	33064	33063	
5282	0	33060	33148	
5283	0	33002	33212	
5284	0	32960	33228	
5285	0	33008	33232	
5286	0	32996	33122	
5287	0	32886	33058	
5288	0	32828	33070	
5289	0	32736	33030	
5290	0	32918	33150	
5291	0	33000	33134	
5292	0	32794	33228	
5293	0	32712	33460	
5294	0	32846	33438	
5295	0	32878	33180	
5296	0	32900	32958	
5297	0	32996	32564	
5298	0	32836	32254	
5299	0	32576	32318	
5300	0	32624	32190	
5301	0	32714	32170	
5302	0	32510	32155	
5303	0	33136	32231	
5304	0	32888	32502	
5305	0	32640	32660	
5306	0	32564	32679	
5307	0	32904	32744	
5308	0	33568	32903	
5309	0	33694	32962	
5310	0	33034	32862	
5311	0	32540	32856	
5312	0	32774	32814	
5313	0	32608	32678	
5314	0	32208	32510	
5315	0	32328	32372	
5316	0	32370	32382	
5317	0	32304	32500	
5318	0	32660	32364	
5319	0	33144	32540	
5320	0	33056	32726	
5321	0	33002	32924	
5322	0	32892	33186	
5323	0	32552	33319	
5324	0	33292	33392	
5325	0	34120	33140	
5326	0	33318	32888	
5327	0	33030	32935	
5328	0	32856	32846	
5329	0	32634	32609	
5330	0	32198	32578	
5331	0	31894	32519	
5332	0	31796	32494	
5333	0	31764	32367	
5334	0	32098	32356	
5335	0	32472	32198	
5336	0	32756	32208	
5337	0	32976	32258	
5338	0	32934	32470	
5339	0	32908	32798	
5340	0	32956	32806	
5341	0	33000	32728	
5342	0	32992	32874	
5343	0	33074	32951	
5344	0	32796	32936	
5345	0	32944	33031	
5346	0	33344	32977	
5347	0	33304	32940	
5348	0	33048	32742	
5349	0	32924	32703	
5350	0	32870	32876	
5351	0	32736	32948	
5352	0	32618	32866	
5353	0	32628	32769	
5354	0	32736	32871	
5355	0	32830	32722	
5356	0	32730	32796	
5357	0	32800	32775	
5358	0	32772	32844	
5359	0	32660	32924	
5360	0	32704	32990	
5361	0	32768	32970	
5362	0	32858	32994	
5363	0	32816	32902	
5364	0	32818	32956	
5365	0	32868	33063	
5366	0	32860	32990	
5367	0	32854	32916	
5368	0	32938	32788	
5369	0	32894	32850	
5370	0	32832	32806	
5371	0	32824	32756	
5372	0	32872	32688	
5373	0	32852	32838	
5374	0	32892	32818	
5375	0	32844	32838	
5376	0	32802	32708	
5377	0	32842	32679	
5378	0	32760	32662	
5379	0	32916	32676	
5380	0	32936	32727	
5381	0	32808	32719	
5382	0	32784	32802	
5383	0	32796	32550	
5384	0	32892	32641	
5385	0	32992	32836	
5386	0	32808	32831	
5387	0	32776	32964	
5388	0	32762	32895	
5389	0	32808	32744	
5390	0	32914	32704	
5391	0	33124	32852	
5392	0	33180	32844	
5393	0	32868	32692	
5394	0	32564	32572	
5395	0	32584	32556	
5396	0	32706	32682	
5397	0	32732	33026	
5398	0	32808	33164	
5399	0	32668	33310	
5400	0	32648	33399	
5401	0	32737	33206	
5402	0	32812	32882	
5403	0	32968	32559	
5404	0	32932	32228	
5405	0	33108	31952	
5406	0	32980	31855	
5407	0	32751	32186	
5408	0	32840	32628	
5409	0	32674	32775	
5410	0	32582	32600	
5411	0	32644	32788	
5412	0	32660	32740	
5413	0	32652	32682	
5414	0	32750	32682	
5415	0	32720	32508	
5416	0	32842	32410	
5417	0	32544	32418	
5418	0	32972	32412	
5419	0	33280	32400	
5420	0	33088	32568	
5421	0	32780	32743	
5422	0	32528	32855	
5423	0	33114	32914	
5424	0	33204	32740	
5425	0	32892	32703	
5426	0	33104	32718	
5427	0	32782	32567	
5428	0	32312	32610	
5429	0	32450	32922	
5430	0	32312	32926	
5431	0	32612	33160	
5432	0	32610	33287	
5433	0	32758	33184	
5434	0	32910	33116	
5435	0	33044	33116	
5436	0	33060	33004	
5437	0	32968	33006	
5438	0	32928	32826	
5439	0	32926	32682	
5440	0	32984	32704	
5441	0	32906	32708	
5442	0	32896	32666	
5443	0	32720	32762	
5444	0	32714	32592	
5445	0	32672	32670	
5446	0	32714	32654	
5447	0	32716	32640	
5448	0	32834	32732	
5449	0	32848	32734	
5450	0	32816	32732	
5451	0	32808	32764	
5452	0	32788	32678	
5453	0	32932	32808	
5454	0	32798	32710	
5455	0	32864	32647	
5456	0	32940	32626	
5457	0	32816	32636	
5458	0	32914	32608	
5459	0	32828	32612	
5460	0	32838	32687	
5461	0	32860	32860	
5462	0	32884	32830	
5463	0	32832	32902	
5464	0	32830	32998	
5465	0	32838	32922	
5466	0	32884	32914	
5467	0	32864	32942	
5468	0	32906	32918	
5469	0	32772	32692	
5470	0	32828	32626	
5471	0	32776	32628	
5472	0	32830	32664	
5473	0	32784	32716	
5474	0	32732	32734	
5475	0	32728	32642	
5476	0	32696	32616	
5477	0	32680	32628	
5478	0	32802	32844	
5479	0	32746	32714	
5480	0	32772	32726	
5481	0	32748	32788	
5482	0	32828	32692	
5483	0	32872	32736	
5484	0	32852	32734	
5485	0	32908	32736	
5486	0	32856	32746	
5487	0	32652	32823	
5488	0	32802	32887	
5489	0	33176	32790	
5490	0	33077	32726	
5491	0	32862	32744	
5492	0	32764	32823	
5493	0	32715	33002	
5494	0	32688	33188	
5495	0	32542	33359	
5496	0	32552	33466	
5497	0	32748	33140	
5498	0	32664	33008	
5499	0	32758	32654	
5500	0	32846	32440	
5501	0	33384	32324	
5502	0	32976	32172	
5503	0	32948	32183	
5504	0	32734	32214	
5505	0	32810	32308	
5506	0	32510	32519	
5507	0	32458	32506	
5508	0	32688	32580	
5509	0	32652	32574	
5510	0	32736	32580	
5511	0	32788	32815	
5512	0	32700	32759	
5513	0	32888	32788	
5514	0	32890	32927	
5515	0	33004	32862	
5516	0	32912	32799	
5517	0	32836	32948	
5518	0	32616	33022	
5519	0	32790	33436	
5520	0	32628	33499	
5521	0	32788	33399	
5522	0	33134	33074	
5523	0	32821	32934	
5524	0	32792	32599	
5525	0	32794	32416	
5526	0	32924	32572	
5527	0	32942	32754	
5528	0	32794	32838	
5529	0	32724	32668	
5530	0	32704	32484	
5531	0	32772	32362	
5532	0	32808	32276	
5533	0	32704	32360	
5534	0	32750	32500	
5535	0	32758	32398	
5536	0	32728	32407	
5537	0	32732	32564	
5538	0	32746	32748	
5539	0	32802	32728	
5540	0	32840	32856	
5541	0	32836	32902	
5542	0	32792	33076	
5543	0	32732	33140	
5544	0	32854	32972	
5545	0	32856	32902	
5546	0	32814	32960	
5547	0	32840	33073	
5548	0	32770	32961	
5549	0	32800	32940	
5550	0	32824	32922	
5551	0	32790	32538	
5552	0	32864	32820	
5553	0	32816	32856	
5554	0	32848	32768	
5555	0	32802	32730	
5556	0	32800	32764	
5557	0	32804	32802	
5558	0	32852	32743	
5559	0	32780	32714	
5560	0	32838	32678	
5561	0	32825	32712	
5562	0	32748	32716	
5563	0	32708	32800	
5564	0	32808	32967	
5565	0	32812	32847	
5566	0	32754	32775	
5567	0	32736	32647	
5568	0	32898	32542	
5569	0	32876	32578	
5570	0	32856	32576	
5571	0	32880	32692	
5572	0	32884	32775	
5573	0	32896	32839	
5574	0	32828	32790	
5575	0	32726	32804	
5576	0	32762	32856	
5577	0	32784	32878	
5578	0	32708	32846	
5579	0	32688	32892	
5580	0	32736	32759	
5581	0	32796	32742	
5582	0	32784	32716	
5583	0	32769	32824	
5584	0	32804	32750	
5585	0	32764	32742	
5586	0	32762	32762	
5587	0	32848	32794	
5588	0	32844	32753	
5589	0	32868	32782	
5590	0	32758	32836	
5591	0	32930	32666	
5592	0	32854	32760	
5593	0	32868	32874	
5594	0	32676	32820	
5595	0	32632	32670	
5596	0	33130	32791	
5597	0	33348	32938	
5598	0	33316	32910	
5599	0	32964	32880	
5600	0	32780	32668	
5601	0	32876	32544	
5602	0	32746	32614	
5603	0	32572	32711	
5604	0	32444	32754	
5605	0	32432	32812	
5606	0	32328	32708	
5607	0	32404	32775	
5608	0	32558	32910	
5609	0	32632	32806	
5610	0	32682	32847	
5611	0	32732	32689	
5612	0	32944	32632	
5613	0	32964	32704	
5614	0	33038	32799	
5615	0	32944	32807	
5616	0	33028	32695	
5617	0	32904	32710	
5618	0	32968	32932	
5619	0	32964	32858	
5620	0	32932	32832	
5621	0	32820	32854	
5622	0	32842	32773	
5623	0	32852	32845	
5624	0	32956	32817	
5625	0	32944	32790	
5626	0	32896	32828	
5627	0	32814	32708	
5628	0	32692	32815	
5629	0	32730	32818	
5630	0	32750	32650	
5631	0	32748	32570	
5632	0	32844	32540	
5633	0	32868	32615	
5634	0	32760	32580	
5635	0	32820	32636	
5636	0	32812	32519	
5637	0	32792	32671	
5638	0	32796	32870	
5639	0	32752	32792	
5640	0	32868	32820	
5641	0	32854	32920	
5642	0	32792	32748	
5643	0	32772	32756	
5644	0	32836	32850	
5645	0	32796	32800	
5646	0	32844	32722	
5647	0	32820	32766	
5648	0	32880	32916	
5649	0	32828	32911	
5650	0	32816	32878	
5651	0	32784	32775	
5652	0	32698	32884	
5653	0	32788	32679	
5654	0	32802	32673	
5655	0	32892	32824	
5656	0	32880	32670	
5657	0	32750	32620	
5658	0	32856	32618	
5659	0	32896	32756	
5660	0	32840	32706	
5661	0	32816	32898	
5662	0	32768	32822	
5663	0	32736	32860	
5664	0	32798	32876	
5665	0	32804	32774	
5666	0	32864	32910	
5667	0	32824	32904	
5668	0	32784	32839	
5669	0	32720	32762	
5670	0	32812	32840	
5671	0	32750	32772	
5672	0	32784	32781	
5673	0	32810	32800	
5674	0	32808	32724	
5675	0	32760	32714	
5676	0	32788	32730	
5677	0	32808	32707	
5678	0	32816	32568	
5679	0	32824	32636	
5680	0	32768	32727	
5681	0	32744	32764	
5682	0	32782	32794	
5683	0	32864	32799	
5684	0	32898	32704	
5685	0	32856	32836	
5686	0	32784	32775	
5687	0	32818	32740	
5688	0	32868	32608	
5689	0	32856	32606	
5690	0	32716	32823	
5691	0	32848	32926	
5692	0	32784	32892	
5693	0	32772	32826	
5694	0	32788	32714	
5695	0	32804	32728	
5696	0	32856	32752	
5697	0	32852	32706	
5698	0	32796	32732	
5699	0	32804	32724	
5700	0	32798	32820	
5701	0	32816	32660	
5702	0	32836	32734	
5703	0	32770	32828	
5704	0	32780	32836	
5705	0	32822	32863	
5706	0	32784	32810	
5707	0	32740	32700	
5708	0	32810	32840	
5709	0	32752	32938	
5710	0	32718	32808	
5711	0	32924	32806	
5712	0	32960	32756	
5713	0	32952	32614	
5714	0	33168	32582	
5715	0	33016	32446	
5716	0	32852	32702	
5717	0	32724	32703	
5718	0	32966	32936	
5719	0	32912	32775	
5720	0	32706	32803	
5721	0	32688	32784	
5722	0	32652	32756	
5723	0	32628	32704	
5724	0	32664	32676	
5725	0	32720	32554	
5726	0	32734	32632	
5727	0	32710	32906	
5728	0	32808	32912	
5729	0	32844	32786	
5730	0	32838	32815	
5731	0	32804	32896	
5732	0	32842	32898	
5733	0	32864	32926	
5734	0	32804	32775	
5735	0	32852	32839	
5736	0	32892	32834	
5737	0	32860	32775	
5738	0	32800	32804	
5739	0	32868	32736	
5740	0	32878	32800	
5741	0	32734	32862	
5742	0	32840	32775	
5743	0	32868	32622	
5744	0	32802	32636	
5745	0	32820	32704	
5746	0	32836	32743	
5747	0	32804	32730	
5748	0	32840	32860	
5749	0	32768	32818	
5750	0	32800	32750	
5751	0	32824	32709	
5752	0	32820	32654	
5753	0	32808	32695	
5754	0	32776	32847	
5755	0	32836	32768	
5756	0	32784	32693	
5757	0	32758	32775	
5758	0	32766	32793	
5759	0	32828	32764	
5760	0	32824	32839	
5761	0	32736	32706	
5762	0	32772	32775	
5763	0	32828	32871	
5764	0	32770	32884	
5765	0	32796	32862	
5766	0	32816	32819	
5767	0	32868	32846	
5768	0	32820	32762	
5769	0	32824	32548	
5770	0	32776	32640	
5771	0	32804	32600	
5772	0	32818	32762	
5773	0	32864	32830	
5774	0	32764	32696	
5775	0	32840	32721	
5776	0	32828	32791	
5777	0	32864	32804	
5778	0	32810	32742	
5779	0	32840	32720	
5780	0	32832	32756	
5781	0	32872	32850	
5782	0	32888	32764	
5783	0	32740	32767	
5784	0	32872	32775	
5785	0	32912	32881	
5786	0	32908	32900	
5787	0	32886	32848	
5788	0	32814	32839	
5789	0	32770	32775	
5790	0	32736	32698	
5791	0	32724	32712	
5792	0	32656	32822	
5793	0	32706	32738	
5794	0	32736	32793	
5795	0	32708	32652	
5796	0	32798	32585	
5797	0	32872	32756	
5798	0	32860	32903	
5799	0	32812	32876	
5800	0	32821	32764	
5801	0	32896	32710	
5802	0	32868	32743	
5803	0	32856	32640	
5804	0	32824	32596	
5805	0	32850	32678	
5806	0	32868	32678	
5807	0	32860	32618	
5808	0	32904	32727	
5809	0	32812	32696	
5810	0	32816	32734	
5811	0	32784	32882	
5812	0	32728	32838	
5813	0	32792	32863	
5814	0	32820	32788	
5815	0	32888	32790	
5816	0	32876	32818	
5817	0	32992	32804	
5818	0	32964	32839	
5819	0	32906	32870	
5820	0	32886	32824	
5821	0	32848	32734	
5822	0	32830	32770	
5823	0	32924	32716	
5824	0	32804	32666	
5825	0	32844	32612	
5826	0	32756	32696	
5827	0	32624	32828	
5828	0	32552	32632	
5829	0	32540	32679	
5830	0	32548	32724	
5831	0	32635	32756	
5832	0	32764	32792	
5833	0	32774	32732	
5834	0	32776	32810	
5835	0	32788	32830	
5836	0	32916	32810	
5837	0	32716	32822	
5838	0	32884	32668	
5839	0	32908	32588	
5840	0	32952	32724	
5841	0	32798	32582	
5842	0	32810	32689	
5843	0	32756	32628	
5844	0	32688	32618	
5845	0	32580	32712	
5846	0	32584	32686	
5847	0	32652	32711	
5848	0	32732	32692	
5849	0	32752	32647	
5850	0	32898	32664	
5851	0	32890	32812	
5852	0	32808	32803	
5853	0	32782	32769	
5854	0	32788	32796	
5855	0	32884	32674	
5856	0	32876	32825	
5857	0	32953	32703	
5858	0	32944	32732	
5859	0	32806	32914	
5860	0	32932	32951	
5861	0	32952	32870	
5862	0	32912	32876	
5863	0	32852	33138	
5864	0	32824	33236	
5865	0	32860	33114	
5866	0	32920	33122	
5867	0	32960	32972	
5868	0	32950	32912	
5869	0	32902	32632	
5870	0	32834	32644	
5871	0	32826	32646	
5872	0	32874	32678	
5873	0	32812	32814	
5874	0	32866	33002	
5875	0	32826	32848	
5876	0	32860	32770	
5877	0	32808	32764	
5878	0	32798	32740	
5879	0	32768	32710	
5880	0	32756	32663	
5881	0	32776	32582	
5882	0	32816	32594	
5883	0	32748	32546	
5884	0	32774	32634	
5885	0	32750	32664	
5886	0	32700	32646	
5887	0	32768	32714	
5888	0	32794	32658	
5889	0	32756	32630	
5890	0	32834	32560	
5891	0	32760	32622	
5892	0	32786	32600	
5893	0	32696	32768	
5894	0	32782	32903	
5895	0	32740	32806	
5896	0	32804	32668	
5897	0	32768	32752	
5898	0	32868	32775	
5899	0	32866	32676	
5900	0	32844	32770	
5901	0	32864	32817	
5902	0	32918	32814	
5903	0	32900	32854	
5904	0	32848	32760	
5905	0	32764	32710	
5906	0	32752	32711	
5907	0	32760	32732	
5908	0	32680	32740	
5909	0	32715	32746	
5910	0	32686	32872	
5911	0	32769	32900	
5912	0	32756	32915	
5913	0	32814	32844	
5914	0	32812	32878	
5915	0	32846	32670	
5916	0	32828	32536	
5917	0	32892	32591	
5918	0	32912	32708	
5919	0	32840	32756	
5920	0	32860	32607	
5921	0	32808	32814	
5922	0	32750	32764	
5923	0	32792	32816	
5924	0	32848	32775	
5925	0	32904	32714	
5926	0	32896	32775	
5927	0	32808	32711	
5928	0	32808	32751	
5929	0	32732	32808	
5930	0	32766	32730	
5931	0	32878	32852	
5932	0	32836	32982	
5933	0	32810	32876	
5934	0	32788	32946	
5935	0	32800	32999	
5936	0	32912	32806	
5937	0	32826	32542	
5938	0	32828	32716	
5939	0	32884	32711	
5940	0	32796	32772	
5941	0	32772	32670	
5942	0	32864	32742	
5943	0	32852	32710	
5944	0	32688	32720	
5945	0	32818	32708	
5946	0	32628	32676	
5947	0	32712	32610	
5948	0	32622	32638	
5949	0	32620	32724	
5950	0	32650	32716	
5951	0	32844	32697	
5952	0	32880	32790	
5953	0	32860	32800	
5954	0	32904	32802	
5955	0	32906	32788	
5956	0	32912	32842	
5957	0	32872	32824	
5958	0	32820	32742	
5959	0	32810	32800	
5960	0	32788	32806	
5961	0	32828	32858	
5962	0	32762	32858	
5963	0	32856	32798	
5964	0	32770	32930	
5965	0	32852	32876	
5966	0	32864	32775	
5967	0	32900	32767	
5968	0	32884	32826	
5969	0	32852	32666	
5970	0	32916	32736	
5971	0	32808	32600	
5972	0	32796	32706	
5973	0	32908	32736	
5974	0	32752	32726	
5975	0	32916	32646	
5976	0	32834	32716	
5977	0	32742	32796	
5978	0	32834	32746	
5979	0	32796	32796	
5980	0	32784	32858	
5981	0	32838	32826	
5982	0	32762	32807	
5983	0	32756	32878	
5984	0	32752	32844	
5985	0	32776	32744	
5986	0	32780	32712	
5987	0	32834	32780	
5988	0	32748	32660	
5989	0	32840	32630	
5990	0	32788	32736	
5991	0	32888	32691	
5992	0	32896	32816	
5993	0	32860	32852	
5994	0	32824	32862	
5995	0	32876	32792	
5996	0	32800	32748	
5997	0	32904	32746	
5998	0	32852	32768	
5999	0	32824	32847	
6000	0	32760	32798	
6001	0	32791	32815	
6002	0	32834	32758	
6003	0	32786	32738	
6004	0	32812	32807	
6005	0	32822	32700	
6006	0	32928	32767	
6007	0	32888	32854	
6008	0	32836	32775	
6009	0	33017	32750	
6010	0	33044	32692	
6011	0	32900	32795	
6012	0	32752	32892	
