# OpenSignals Text File Format. Version 1
# {"00:07:80:8C:0A:39": {"position": 0, "device": "biosignalsplux", "device name": "00:07:80:8C:0A:39", "device connection": "BTH00:07:80:8C:0A:39", "sampling rate": 1000, "resolution": [16, 16], "firmware version": 776, "comments": "", "keywords": "", "mode": 0, "sync interval": 2, "date": "2023-3-16", "time": "13:27:25.637", "channels": [1, 2], "sensor": ["EMG", "EMG"], "label": ["CH1", "CH2"], "column": ["nSeq", "DI", "CH1", "CH2"], "special": [{"SpO2": [80, 40, 5, 4, 3, 3]}, {"SpO2": [80, 40, 5, 4, 3, 3]}, {"SpO2": [80, 40, 5, 4, 3, 3]}, {"SpO2": [80, 40, 5, 4, 3, 3]}, {"SpO2": [80, 40, 5, 4, 3, 3]}, {"SpO2": [80, 40, 5, 4, 3, 3]}, {"SpO2": [80, 40, 5, 4, 3, 3]}, {"SpO2": [80, 40, 5, 4, 3, 3]}], "digital IO": [0, 1], "sleeve color": ["gray", "yellow"], "convertedValues": 0}}
# EndOfHeader
0	0	32796	32794	
1	0	32804	32772	
2	0	32834	32746	
3	0	32798	32704	
4	0	32825	32798	
5	0	32788	32799	
6	0	32862	32760	
7	0	32796	32764	
8	0	32830	32743	
9	0	32823	32660	
10	0	32788	32820	
11	0	32876	32735	
12	0	32742	32726	
13	0	32828	32838	
14	0	32844	32796	
15	0	32812	32724	
16	0	32822	32788	
17	0	32766	32840	
18	0	32808	32852	
19	0	32802	32800	
20	0	32822	32775	
21	0	32808	32833	
22	0	32826	32702	
23	0	32818	32788	
24	0	32848	32834	
25	0	32776	32644	
26	0	32834	32676	
27	0	32860	32753	
28	0	32832	32918	
29	0	32789	32740	
30	0	32800	32820	
31	0	32756	32799	
32	0	32768	32698	
33	0	32822	32756	
34	0	32864	32819	
35	0	32850	32767	
36	0	32744	32700	
37	0	32796	32728	
38	0	32848	32766	
39	0	32812	32854	
40	0	32840	32775	
41	0	32841	32696	
42	0	32820	32730	
43	0	32793	32708	
44	0	32852	32814	
45	0	32756	32706	
46	0	32768	32756	
47	0	32796	32842	
48	0	32884	32872	
49	0	32720	32764	
50	0	32832	32686	
51	0	32788	32828	
52	0	32800	32711	
53	0	32848	32878	
54	0	32764	32686	
55	0	32806	32760	
56	0	32808	32818	
57	0	32818	32798	
58	0	32768	32748	
59	0	32892	32775	
60	0	32820	32788	
61	0	32896	32821	
62	0	32820	32775	
63	0	32852	32764	
64	0	32792	32839	
65	0	32792	32740	
66	0	32748	32646	
67	0	32724	32782	
68	0	32802	32775	
69	0	32840	32820	
70	0	32802	32724	
71	0	32760	32732	
72	0	32744	32904	
73	0	32836	32775	
74	0	32817	32876	
75	0	32762	32760	
76	0	32732	32734	
77	0	32840	32790	
78	0	32878	32794	
79	0	32816	32743	
80	0	32756	32832	
81	0	32822	32775	
82	0	32820	32822	
83	0	32816	32796	
84	0	32788	32726	
85	0	32770	32847	
86	0	32773	32832	
87	0	32804	32820	
88	0	32772	32658	
89	0	32772	32866	
90	0	32860	32772	
91	0	32774	32796	
92	0	32744	32696	
93	0	32840	32692	
94	0	32832	32842	
95	0	32828	32818	
96	0	32800	32832	
97	0	32881	32708	
98	0	32776	32804	
99	0	32798	32800	
100	0	32816	32775	
101	0	32790	32788	
102	0	32840	32828	
103	0	32796	32769	
104	0	32872	32756	
105	0	32834	32696	
106	0	32850	32704	
107	0	32798	32737	
108	0	32832	32753	
109	0	32836	32788	
110	0	32836	32724	
111	0	32868	32726	
112	0	32816	32702	
113	0	32756	32807	
114	0	32768	32820	
115	0	32792	32724	
116	0	32802	32832	
117	0	32820	32870	
118	0	32810	32805	
119	0	32800	32774	
120	0	32816	32876	
121	0	32872	32835	
122	0	32824	32816	
123	0	32788	32700	
124	0	32870	32740	
125	0	32812	32828	
126	0	32796	32734	
127	0	32816	32790	
128	0	32896	32674	
129	0	32878	32672	
130	0	32826	32666	
131	0	32756	32720	
132	0	32924	32808	
133	0	32772	32654	
134	0	32820	32679	
135	0	32834	32748	
136	0	32824	32703	
137	0	32880	32810	
138	0	32828	32770	
139	0	32808	32762	
140	0	32740	32692	
141	0	32776	32809	
142	0	32834	32790	
143	0	32784	32790	
144	0	32828	32716	
145	0	32798	32832	
146	0	32784	32732	
147	0	32852	32748	
148	0	32808	32754	
149	0	32816	32728	
150	0	32792	32878	
151	0	32818	32775	
152	0	32864	32838	
153	0	32812	32746	
154	0	32816	32700	
155	0	32880	32838	
156	0	32834	32788	
157	0	32780	32732	
158	0	32802	32730	
159	0	32788	32775	
160	0	32778	32790	
161	0	32800	32916	
162	0	32856	32726	
163	0	32796	32724	
164	0	32800	32828	
165	0	32792	32748	
166	0	32784	32775	
167	0	32892	32756	
168	0	32804	32750	
169	0	32832	32676	
170	0	32806	32742	
171	0	32792	32680	
172	0	32764	32828	
173	0	32852	32796	
174	0	32824	32834	
175	0	32776	32830	
176	0	32796	32682	
177	0	32846	32854	
178	0	32818	32761	
179	0	32772	32804	
180	0	32796	32708	
181	0	32788	32706	
182	0	32846	32800	
183	0	32760	32700	
184	0	32820	32852	
185	0	32812	32774	
186	0	32810	32740	
187	0	32808	32788	
188	0	32824	32808	
189	0	32808	32711	
190	0	32836	32708	
191	0	32928	32764	
192	0	32844	32832	
193	0	32780	32716	
194	0	32746	32864	
195	0	32886	32892	
196	0	32896	32746	
197	0	32804	32735	
198	0	32804	32836	
199	0	32828	32800	
200	0	32798	32772	
201	0	32778	32704	
202	0	32860	32754	
203	0	32740	32769	
204	0	32804	32742	
205	0	32798	32820	
206	0	32824	32722	
207	0	32846	32798	
208	0	32816	32668	
209	0	32794	32756	
210	0	32774	32764	
211	0	32772	32748	
212	0	32764	32794	
213	0	32736	32798	
214	0	32820	32668	
215	0	32822	32860	
216	0	32808	32862	
217	0	32858	32766	
218	0	32860	32750	
219	0	32832	32759	
220	0	32826	32816	
221	0	32784	32760	
222	0	32780	32758	
223	0	32792	32742	
224	0	32836	32816	
225	0	32820	32804	
226	0	32770	32668	
227	0	32760	32704	
228	0	32798	32720	
229	0	32834	32844	
230	0	32772	32788	
231	0	32834	32724	
232	0	32884	32734	
233	0	32868	32752	
234	0	32820	32750	
235	0	32768	32860	
236	0	32812	32808	
237	0	32734	32794	
238	0	32812	32788	
239	0	32748	32730	
240	0	32856	32788	
241	0	32812	32764	
242	0	32820	32852	
243	0	32868	32650	
244	0	32788	32900	
245	0	32800	32736	
246	0	32808	32730	
247	0	32768	32784	
248	0	32800	32706	
249	0	32808	32820	
250	0	32764	32726	
251	0	32864	32830	
252	0	32856	32724	
253	0	32850	32888	
254	0	32836	32727	
255	0	32828	32828	
256	0	32832	32828	
257	0	32846	32710	
258	0	32812	32784	
259	0	32820	32768	
260	0	32788	32697	
261	0	32800	32828	
262	0	32834	32740	
263	0	32900	32754	
264	0	32784	32678	
265	0	32804	32790	
266	0	32820	32810	
267	0	32770	32646	
268	0	32872	32760	
269	0	32812	32774	
270	0	32804	32839	
271	0	32756	32674	
272	0	32776	32700	
273	0	32780	32746	
274	0	32856	32798	
275	0	32772	32802	
276	0	32824	32679	
277	0	32844	32816	
278	0	32820	32766	
279	0	32808	32804	
280	0	32758	32794	
281	0	32782	32892	
282	0	32844	32668	
283	0	32793	32820	
284	0	32842	32738	
285	0	32772	32752	
286	0	32802	32775	
287	0	32828	32655	
288	0	32808	32690	
289	0	32852	32839	
290	0	32806	32754	
291	0	32816	32856	
292	0	32794	32676	
293	0	32828	32810	
294	0	32860	32744	
295	0	32844	32812	
296	0	32840	32838	
297	0	32760	32823	
298	0	32778	32790	
299	0	32790	32758	
300	0	32772	32839	
301	0	32862	32732	
302	0	32868	32746	
303	0	32844	32775	
304	0	32846	32753	
305	0	32844	32746	
306	0	32792	32644	
307	0	32790	32844	
308	0	32794	32820	
309	0	32817	32712	
310	0	32756	32775	
311	0	32840	32832	
312	0	32876	32808	
313	0	32878	32716	
314	0	32804	32706	
315	0	32768	32814	
316	0	32818	32828	
317	0	32860	32750	
318	0	32808	32797	
319	0	32844	32775	
320	0	32836	32730	
321	0	32847	32703	
322	0	32798	32871	
323	0	32768	32790	
324	0	32810	32689	
325	0	32820	32775	
326	0	32816	32804	
327	0	32806	32734	
328	0	32792	32836	
329	0	32856	32748	
330	0	32868	32772	
331	0	32758	32655	
332	0	32804	32788	
333	0	32806	32804	
334	0	32844	32775	
335	0	32846	32804	
336	0	32840	32732	
337	0	32780	32812	
338	0	32824	32800	
339	0	32784	32652	
340	0	32784	32732	
341	0	32780	32808	
342	0	32876	32704	
343	0	32804	32756	
344	0	32876	32766	
345	0	32840	32775	
346	0	32786	32910	
347	0	32816	32772	
348	0	32820	32711	
349	0	32812	32670	
350	0	32876	32760	
351	0	32832	32746	
352	0	32760	32751	
353	0	32810	32698	
354	0	32856	32816	
355	0	32754	32871	
356	0	32772	32674	
357	0	32728	32800	
358	0	32820	32775	
359	0	32878	32806	
360	0	32868	32772	
361	0	32764	32802	
362	0	32802	32750	
363	0	32828	32814	
364	0	32884	32694	
365	0	32764	32789	
366	0	32774	32815	
367	0	32858	32694	
368	0	32822	32774	
369	0	32836	32740	
370	0	32774	32764	
371	0	32848	32742	
372	0	32860	32762	
373	0	32868	32710	
374	0	32756	32871	
375	0	32828	32719	
376	0	32776	32814	
377	0	32820	32727	
378	0	32856	32788	
379	0	32784	32774	
380	0	32828	32746	
381	0	32734	32766	
382	0	32844	32740	
383	0	32746	32742	
384	0	32842	32852	
385	0	32784	32775	
386	0	32822	32764	
387	0	32824	32774	
388	0	32804	32732	
389	0	32864	32725	
390	0	32876	32870	
391	0	32784	32710	
392	0	32796	32855	
393	0	32870	32756	
394	0	32810	32742	
395	0	32820	32732	
396	0	32808	32790	
397	0	32860	32810	
398	0	32812	32842	
399	0	32766	32718	
400	0	32828	32814	
401	0	32740	32858	
402	0	32762	32775	
403	0	32820	32727	
404	0	32830	32640	
405	0	32816	32760	
406	0	32832	32727	
407	0	32732	32809	
408	0	32824	32810	
409	0	32848	32615	
410	0	32712	32804	
411	0	32800	32828	
412	0	32788	32820	
413	0	32812	32742	
414	0	32816	32737	
415	0	32792	32814	
416	0	32824	32826	
417	0	32816	32836	
418	0	32776	32714	
419	0	32848	32818	
420	0	32848	32764	
421	0	32736	32918	
422	0	32804	32728	
423	0	32832	32679	
424	0	32772	32866	
425	0	32874	32760	
426	0	32876	32804	
427	0	32790	32756	
428	0	32788	32718	
429	0	32822	32900	
430	0	32828	32708	
431	0	32836	32752	
432	0	32780	32708	
433	0	32764	32718	
434	0	32828	32811	
435	0	32816	32743	
436	0	32804	32806	
437	0	32776	32732	
438	0	32844	32716	
439	0	32834	32736	
440	0	32808	32866	
441	0	32796	32791	
442	0	32856	32654	
443	0	32844	32806	
444	0	32812	32760	
445	0	32792	32702	
446	0	32792	32700	
447	0	32820	32792	
448	0	32780	32788	
449	0	32788	32762	
450	0	32788	32674	
451	0	32798	32837	
452	0	32856	32775	
453	0	32854	32692	
454	0	32768	32818	
455	0	32832	32814	
456	0	32860	32727	
457	0	32768	32808	
458	0	32844	32838	
459	0	32808	32774	
460	0	32802	32726	
461	0	32832	32816	
462	0	32820	32775	
463	0	32806	32772	
464	0	32792	32678	
465	0	32852	32820	
466	0	32830	32724	
467	0	32780	32834	
468	0	32848	32638	
469	0	32814	32812	
470	0	32812	32732	
471	0	32882	32824	
472	0	32880	32655	
473	0	32740	32824	
474	0	32872	32775	
475	0	32816	32838	
476	0	32748	32704	
477	0	32788	32862	
478	0	32874	32718	
479	0	32828	32756	
480	0	32868	32674	
481	0	32872	32775	
482	0	32816	32822	
483	0	32800	32668	
484	0	32804	32734	
485	0	32808	32775	
486	0	32778	32842	
487	0	32796	32672	
488	0	32784	32807	
489	0	32807	32764	
490	0	32768	32716	
491	0	32818	32760	
492	0	32820	32752	
493	0	32812	32801	
494	0	32852	32822	
495	0	32836	32768	
496	0	32784	32804	
497	0	32836	32679	
498	0	32826	32720	
499	0	32780	32822	
500	0	32908	32732	
501	0	32822	32805	
502	0	32824	32772	
503	0	32812	32822	
504	0	32804	32735	
505	0	32812	32736	
506	0	32852	32810	
507	0	32896	32762	
508	0	32896	32687	
509	0	32876	32604	
510	0	32868	32711	
511	0	32832	32632	
512	0	32892	32558	
513	0	32860	32524	
514	0	32892	32506	
515	0	32876	32385	
516	0	32902	32540	
517	0	32856	32556	
518	0	32796	32510	
519	0	32831	32486	
520	0	32832	32552	
521	0	32860	32562	
522	0	32852	32478	
523	0	32788	32632	
524	0	32798	32832	
525	0	32712	32702	
526	0	32768	32884	
527	0	32728	33074	
528	0	32663	33089	
529	0	32612	33328	
530	0	32618	33492	
531	0	32610	33412	
532	0	32592	33446	
533	0	32568	33622	
534	0	32648	33607	
535	0	32592	33620	
536	0	32660	33520	
537	0	32708	33282	
538	0	32676	33031	
539	0	32746	32956	
540	0	32768	32732	
541	0	32826	32642	
542	0	32856	32512	
543	0	32824	32379	
544	0	32928	32412	
545	0	32868	32420	
546	0	32912	32344	
547	0	32896	32329	
548	0	32940	32380	
549	0	32884	32468	
550	0	32904	32370	
551	0	32880	32398	
552	0	32934	32604	
553	0	32864	32542	
554	0	32846	32596	
555	0	32868	32622	
556	0	32888	32730	
557	0	32891	32742	
558	0	32874	32806	
559	0	32840	32752	
560	0	32920	32832	
561	0	32844	32724	
562	0	32940	32666	
563	0	32824	32766	
564	0	32834	32768	
565	0	32884	32832	
566	0	32820	32810	
567	0	32820	32818	
568	0	32824	32810	
569	0	32804	32775	
570	0	32852	32807	
571	0	32804	32694	
572	0	32744	32716	
573	0	32740	32834	
574	0	32792	32870	
575	0	32744	32686	
576	0	32706	32754	
577	0	32760	32842	
578	0	32788	32754	
579	0	32818	32778	
580	0	32792	32698	
581	0	32820	32816	
582	0	32752	32842	
583	0	32772	32670	
584	0	32808	32695	
585	0	32820	32854	
586	0	32854	32790	
587	0	32864	32760	
588	0	32810	32804	
589	0	32782	32756	
590	0	32816	32770	
591	0	32832	32700	
592	0	32824	32807	
593	0	32848	32772	
594	0	32810	32892	
595	0	32796	32772	
596	0	32800	32754	
597	0	32772	32794	
598	0	32840	32738	
599	0	32768	32796	
600	0	32800	32832	
601	0	32794	32736	
602	0	32889	32722	
603	0	32812	32772	
604	0	32830	32775	
605	0	32800	32679	
606	0	32728	32769	
607	0	32772	32754	
608	0	32870	32748	
609	0	32808	32806	
610	0	32792	32788	
611	0	32820	32856	
612	0	32792	32694	
613	0	32772	32794	
614	0	32880	32846	
615	0	32792	32695	
616	0	32772	32766	
617	0	32812	32742	
618	0	32804	32816	
619	0	32832	32637	
620	0	32776	32772	
621	0	32832	32764	
622	0	32880	32702	
623	0	32798	32860	
624	0	32752	32794	
625	0	32776	32655	
626	0	32794	32732	
627	0	32798	32786	
628	0	32812	32756	
629	0	32806	32775	
630	0	32800	32814	
631	0	32782	32736	
632	0	32820	32775	
633	0	32804	32830	
634	0	32776	32687	
635	0	32842	32820	
636	0	32808	32850	
637	0	32832	32830	
638	0	32820	32690	
639	0	32780	32790	
640	0	32828	32894	
641	0	32788	32768	
642	0	32772	32769	
643	0	32762	32676	
644	0	32810	32836	
645	0	32788	32772	
646	0	32856	32794	
647	0	32816	32700	
648	0	32740	32788	
649	0	32840	32820	
650	0	32824	32807	
651	0	32862	32820	
652	0	32854	32654	
653	0	32792	32686	
654	0	32816	32758	
655	0	32842	32897	
656	0	32772	32679	
657	0	32772	32746	
658	0	32788	32740	
659	0	32847	32762	
660	0	32872	32678	
661	0	32788	32804	
662	0	32756	32740	
663	0	32748	32682	
664	0	32843	32928	
665	0	32784	32768	
666	0	32792	32770	
667	0	32844	32679	
668	0	32752	32704	
669	0	32832	32748	
670	0	32772	32846	
671	0	32816	32775	
672	0	32836	32800	
673	0	32780	32696	
674	0	32802	32844	
675	0	32796	32830	
676	0	32832	32682	
677	0	32808	32772	
678	0	32800	32801	
679	0	32824	32766	
680	0	32860	32792	
681	0	32792	32817	
682	0	32864	32702	
683	0	32820	32756	
684	0	32774	32816	
685	0	32832	32698	
686	0	32786	32775	
687	0	32825	32810	
688	0	32836	32727	
689	0	32772	32844	
690	0	32820	32748	
691	0	32820	32710	
692	0	32792	32732	
693	0	32692	32697	
694	0	32776	32774	
695	0	32808	32732	
696	0	32816	32796	
697	0	32842	32718	
698	0	32822	32807	
699	0	32842	32840	
700	0	32872	32768	
701	0	32802	32774	
702	0	32852	32788	
703	0	32824	32775	
704	0	32820	32724	
705	0	32800	32791	
706	0	32812	32754	
707	0	32768	32750	
708	0	32844	32742	
709	0	32792	32788	
710	0	32888	32660	
711	0	32820	32739	
712	0	32814	32686	
713	0	32760	32752	
714	0	32856	32764	
715	0	32798	32744	
716	0	32840	32703	
717	0	32828	32831	
718	0	32816	32702	
719	0	32768	32757	
720	0	32796	32769	
721	0	32804	32772	
722	0	32826	32740	
723	0	32868	32799	
724	0	32844	32706	
725	0	32750	32744	
726	0	32791	32772	
727	0	32838	32798	
728	0	32820	32753	
729	0	32822	32814	
730	0	32860	32804	
731	0	32818	32754	
732	0	32804	32864	
733	0	32760	32706	
734	0	32866	32766	
735	0	32776	32668	
736	0	32824	32806	
737	0	32807	32711	
738	0	32844	32686	
739	0	32792	32624	
740	0	32826	32826	
741	0	32729	32786	
742	0	32812	32815	
743	0	32846	32634	
744	0	32816	32769	
745	0	32798	32668	
746	0	32758	32775	
747	0	32725	32704	
748	0	32832	32811	
749	0	32850	32742	
750	0	32804	32757	
751	0	32840	32770	
752	0	32828	32810	
753	0	32844	32720	
754	0	32804	32846	
755	0	32832	32711	
756	0	32820	32895	
757	0	32824	32804	
758	0	32780	32647	
759	0	32792	32743	
760	0	32802	32730	
761	0	32788	32766	
762	0	32780	32772	
763	0	32762	32624	
764	0	32766	32774	
765	0	32808	32718	
766	0	32804	32838	
767	0	32801	32851	
768	0	32784	32838	
769	0	32764	32746	
770	0	32788	32688	
771	0	32780	32876	
772	0	32812	32732	
773	0	32796	32719	
774	0	32800	32791	
775	0	32844	32718	
776	0	32888	32760	
777	0	32804	32743	
778	0	32796	32826	
779	0	32852	32742	
780	0	32838	32732	
781	0	32790	32756	
782	0	32788	32820	
783	0	32804	32788	
784	0	32812	32870	
785	0	32776	32856	
786	0	32828	32808	
787	0	32810	32738	
788	0	32834	32736	
789	0	32873	32736	
790	0	32796	32696	
791	0	32850	32830	
792	0	32832	32679	
793	0	32790	32770	
794	0	32768	32775	
795	0	32836	32751	
796	0	32810	32828	
797	0	32868	32714	
798	0	32792	32796	
799	0	32790	32718	
800	0	32768	32759	
801	0	32872	32760	
802	0	32812	32845	
803	0	32858	32824	
804	0	32843	32798	
805	0	32832	32862	
806	0	32854	32764	
807	0	32828	32822	
808	0	32780	32628	
809	0	32814	32798	
810	0	32790	32784	
811	0	32760	32750	
812	0	32828	32724	
813	0	32820	32656	
814	0	32764	32706	
815	0	32828	32690	
816	0	32868	32698	
817	0	32812	32694	
818	0	32820	32842	
819	0	32886	32752	
820	0	32802	32750	
821	0	32844	32814	
822	0	32832	32687	
823	0	32820	32774	
824	0	32770	32828	
825	0	32752	32764	
826	0	32784	32812	
827	0	32804	32626	
828	0	32890	32828	
829	0	32836	32878	
830	0	32764	32775	
831	0	32820	32827	
832	0	32852	32712	
833	0	32754	32766	
834	0	32808	32744	
835	0	32760	32866	
836	0	32820	32711	
837	0	32812	32834	
838	0	32810	32764	
839	0	32808	32746	
840	0	32872	32886	
841	0	32834	32820	
842	0	32794	32682	
843	0	32802	32775	
844	0	32820	32719	
845	0	32806	32706	
846	0	32820	32915	
847	0	32796	32828	
848	0	32780	32655	
849	0	32868	32800	
850	0	32724	32614	
851	0	32872	32850	
852	0	32842	32830	
853	0	32828	32642	
854	0	32764	32775	
855	0	32788	32790	
856	0	32812	32738	
857	0	32840	32832	
858	0	32794	32775	
859	0	32864	32727	
860	0	32800	32879	
861	0	32836	32828	
862	0	32818	32748	
863	0	32790	32769	
864	0	32780	32750	
865	0	32800	32774	
866	0	32824	32758	
867	0	32788	32728	
868	0	32864	32792	
869	0	32826	32728	
870	0	32840	32700	
871	0	32812	32758	
872	0	32768	32750	
873	0	32832	32849	
874	0	32804	32760	
875	0	32794	32844	
876	0	32774	32729	
877	0	32842	32706	
878	0	32792	32708	
879	0	32768	32775	
880	0	32832	32806	
881	0	32772	32762	
882	0	32846	32775	
883	0	32804	32700	
884	0	32828	32787	
885	0	32856	32716	
886	0	32740	32736	
887	0	32784	32772	
888	0	32816	32838	
889	0	32820	32692	
890	0	32734	32706	
891	0	32844	32646	
892	0	32784	32800	
893	0	32768	32718	
894	0	32776	32900	
895	0	32869	32801	
896	0	32846	32770	
897	0	32780	32834	
898	0	32856	32748	
899	0	32854	32878	
900	0	32804	32775	
901	0	32840	32714	
902	0	32846	32820	
903	0	32812	32712	
904	0	32740	32844	
905	0	32732	32810	
906	0	32804	32694	
907	0	32744	32752	
908	0	32860	32695	
909	0	32812	32770	
910	0	32788	32799	
911	0	32788	32723	
912	0	32806	32732	
913	0	32828	32672	
914	0	32816	32706	
915	0	32784	32632	
916	0	32816	32757	
917	0	32780	32702	
918	0	32788	32775	
919	0	32850	32751	
920	0	32760	32694	
921	0	32828	32785	
922	0	32816	32647	
923	0	32804	32881	
924	0	32848	32846	
925	0	32872	32817	
926	0	32740	32734	
927	0	32842	32830	
928	0	32786	32894	
929	0	32808	32801	
930	0	32896	32738	
931	0	32808	32736	
932	0	32762	32669	
933	0	32820	32764	
934	0	32876	32890	
935	0	32852	32775	
936	0	32810	32699	
937	0	32792	32736	
938	0	32830	32802	
939	0	32828	32724	
940	0	32780	32770	
941	0	32764	32818	
942	0	32837	32663	
943	0	32834	32800	
944	0	32804	32706	
945	0	32780	32775	
946	0	32776	32847	
947	0	32796	32700	
948	0	32808	32775	
949	0	32776	32670	
950	0	32816	32820	
951	0	32822	32708	
952	0	32782	32824	
953	0	32904	32766	
954	0	32840	32684	
955	0	32804	32770	
956	0	32804	32664	
957	0	32844	32822	
958	0	32806	32764	
959	0	32784	32796	
960	0	32826	32848	
961	0	32856	32764	
962	0	32830	32748	
963	0	32800	32756	
964	0	32794	32684	
965	0	32804	32762	
966	0	32804	32751	
967	0	32800	32724	
968	0	32796	32714	
969	0	32820	32734	
970	0	32804	32759	
971	0	32852	32808	
972	0	32785	32724	
973	0	32808	32830	
974	0	32842	32766	
975	0	32836	32718	
976	0	32798	32796	
977	0	32772	32756	
978	0	32828	32821	
979	0	32834	32710	
980	0	32790	32842	
981	0	32874	32872	
982	0	32834	32775	
983	0	32778	32888	
984	0	32860	32775	
985	0	32818	32722	
986	0	32776	32688	
987	0	32836	32708	
988	0	32850	32774	
989	0	32848	32811	
990	0	32856	32855	
991	0	32772	32807	
992	0	32752	32668	
993	0	32772	32725	
994	0	32808	32816	
995	0	32772	32750	
996	0	32884	32798	
997	0	32852	32692	
998	0	32808	32838	
999	0	32756	32728	
1000	0	32806	32756	
1001	0	32826	32760	
1002	0	32816	32804	
1003	0	32788	32772	
1004	0	32788	32632	
1005	0	32814	32790	
1006	0	32892	32750	
1007	0	32804	32704	
1008	0	32868	32689	
1009	0	32800	32708	
1010	0	32846	32724	
1011	0	32768	32860	
1012	0	32844	32796	
1013	0	32778	32668	
1014	0	32804	32806	
1015	0	32876	32830	
1016	0	32828	32706	
1017	0	32764	32734	
1018	0	32808	32808	
1019	0	32788	32724	
1020	0	32792	32767	
1021	0	32816	32775	
1022	0	32786	32849	
1023	0	32808	32716	
1024	0	32796	32882	
1025	0	32830	32846	
1026	0	32788	32758	
1027	0	32760	32820	
1028	0	32748	32816	
1029	0	32782	32668	
1030	0	32832	32774	
1031	0	32820	32775	
1032	0	32804	32630	
1033	0	32832	32775	
1034	0	32832	32838	
1035	0	32828	32706	
1036	0	32802	32828	
1037	0	32796	32816	
1038	0	32828	32716	
1039	0	32752	32823	
1040	0	32772	32694	
1041	0	32792	32844	
1042	0	32788	32694	
1043	0	32844	32848	
1044	0	32832	32775	
1045	0	32772	32670	
1046	0	32784	32822	
1047	0	32796	32756	
1048	0	32768	32694	
1049	0	32866	32796	
1050	0	32844	32738	
1051	0	32836	32744	
1052	0	32830	32807	
1053	0	32838	32775	
1054	0	32812	32658	
1055	0	32816	32775	
1056	0	32818	32830	
1057	0	32788	32742	
1058	0	32792	32806	
1059	0	32812	32816	
1060	0	32820	32702	
1061	0	32800	32802	
1062	0	32800	32822	
1063	0	32832	32668	
1064	0	32854	32768	
1065	0	32772	32805	
1066	0	32900	32738	
1067	0	32860	32790	
1068	0	32870	32714	
1069	0	32782	32821	
1070	0	32828	32642	
1071	0	32788	32820	
1072	0	32844	32812	
1073	0	32828	32698	
1074	0	32860	32730	
1075	0	32852	32896	
1076	0	32780	32743	
1077	0	32792	32735	
1078	0	32796	32726	
1079	0	32838	32789	
1080	0	32768	32839	
1081	0	32784	32718	
1082	0	32804	32762	
1083	0	32792	32662	
1084	0	32728	32750	
1085	0	32802	32732	
1086	0	32750	32630	
1087	0	32784	32775	
1088	0	32716	32860	
1089	0	32868	32662	
1090	0	32838	32842	
1091	0	32800	32880	
1092	0	32832	32774	
1093	0	32880	32835	
1094	0	32808	32702	
1095	0	32900	32865	
1096	0	32822	32886	
1097	0	32792	32738	
1098	0	32834	32736	
1099	0	32824	32646	
1100	0	32852	32746	
1101	0	32828	32647	
1102	0	32744	32708	
1103	0	32804	32724	
1104	0	32794	32796	
1105	0	32848	32802	
1106	0	32806	32700	
1107	0	32792	32802	
1108	0	32740	32788	
1109	0	32800	32690	
1110	0	32786	32794	
1111	0	32802	32775	
1112	0	32774	32636	
1113	0	32804	32870	
1114	0	32800	32796	
1115	0	32792	32758	
1116	0	32782	32736	
1117	0	32820	32870	
1118	0	32804	32775	
1119	0	32752	32775	
1120	0	32852	32823	
1121	0	32804	32750	
1122	0	32852	32839	
1123	0	32804	32784	
1124	0	32912	32706	
1125	0	32852	32752	
1126	0	32750	32806	
1127	0	32840	32718	
1128	0	32786	32642	
1129	0	32802	32750	
1130	0	32840	32839	
1131	0	32800	32628	
1132	0	32762	32743	
1133	0	32812	32710	
1134	0	32824	32664	
1135	0	32956	32700	
1136	0	32820	32799	
1137	0	32822	32830	
1138	0	32812	32696	
1139	0	32784	32794	
1140	0	32774	32808	
1141	0	32808	32768	
1142	0	32762	32874	
1143	0	32822	32830	
1144	0	32828	32738	
1145	0	32832	32746	
1146	0	32728	32948	
1147	0	32752	32788	
1148	0	32780	32775	
1149	0	32766	32696	
1150	0	32876	32832	
1151	0	32828	32736	
1152	0	32848	32772	
1153	0	32741	32774	
1154	0	32844	32764	
1155	0	32844	32676	
1156	0	32812	32748	
1157	0	32808	32806	
1158	0	32880	32687	
1159	0	32824	32767	
1160	0	32740	32716	
1161	0	32752	32694	
1162	0	32772	32836	
1163	0	32846	32790	
1164	0	32756	32676	
1165	0	32802	32742	
1166	0	32884	32760	
1167	0	32817	32741	
1168	0	32790	32890	
1169	0	32844	32830	
1170	0	32786	32748	
1171	0	32836	32796	
1172	0	32792	32800	
1173	0	32868	32678	
1174	0	32792	32864	
1175	0	32798	32760	
1176	0	32848	32914	
1177	0	32828	32768	
1178	0	32852	32822	
1179	0	32812	32746	
1180	0	32776	32711	
1181	0	32800	32838	
1182	0	32832	32870	
1183	0	32760	32692	
1184	0	32808	32759	
1185	0	32812	32730	
1186	0	32772	32676	
1187	0	32770	32808	
1188	0	32800	32774	
1189	0	32892	32694	
1190	0	32804	32798	
1191	0	32820	32832	
1192	0	32768	32714	
1193	0	32788	32792	
1194	0	32904	32740	
1195	0	32912	32608	
1196	0	32874	32642	
1197	0	32856	32647	
1198	0	32898	32488	
1199	0	32796	32484	
1200	0	32874	32452	
1201	0	32870	32391	
1202	0	32896	32516	
1203	0	32889	32382	
1204	0	32899	32490	
1205	0	32860	32519	
1206	0	32888	32460	
1207	0	32842	32502	
1208	0	32824	32434	
1209	0	32876	32644	
1210	0	32784	32726	
1211	0	32734	32804	
1212	0	32750	32934	
1213	0	32748	33020	
1214	0	32738	33180	
1215	0	32648	33312	
1216	0	32640	33490	
1217	0	32558	33474	
1218	0	32544	33600	
1219	0	32504	33638	
1220	0	32564	33656	
1221	0	32608	33511	
1222	0	32610	33511	
1223	0	32690	33501	
1224	0	32682	33166	
1225	0	32756	32967	
1226	0	32800	32775	
1227	0	32840	32636	
1228	0	32884	32462	
1229	0	32852	32455	
1230	0	32896	32364	
1231	0	32840	32269	
1232	0	32854	32350	
1233	0	32977	32310	
1234	0	32932	32327	
1235	0	32898	32300	
1236	0	32916	32518	
1237	0	32882	32470	
1238	0	32828	32412	
1239	0	32832	32594	
1240	0	32828	32503	
1241	0	32828	32636	
1242	0	32858	32582	
1243	0	32926	32670	
1244	0	32844	32812	
1245	0	32856	32828	
1246	0	32846	32764	
1247	0	32844	32842	
1248	0	32890	32844	
1249	0	32916	32820	
1250	0	32821	32706	
1251	0	32828	32792	
1252	0	32896	32708	
1253	0	32822	32802	
1254	0	32824	32894	
1255	0	32853	32839	
1256	0	32808	32828	
1257	0	32840	32828	
1258	0	32808	32894	
1259	0	32824	32791	
1260	0	32780	32828	
1261	0	32772	32710	
1262	0	32816	32828	
1263	0	32824	32791	
1264	0	32808	32855	
1265	0	32792	32726	
1266	0	32774	32775	
1267	0	32760	32662	
1268	0	32740	32834	
1269	0	32824	32766	
1270	0	32858	32812	
1271	0	32822	32758	
1272	0	32862	32702	
1273	0	32832	32767	
1274	0	32756	32724	
1275	0	32818	32775	
1276	0	32688	32687	
1277	0	32772	32719	
1278	0	32801	32694	
1279	0	32808	32774	
1280	0	32784	32739	
1281	0	32836	32750	
1282	0	32820	32768	
1283	0	32848	32686	
1284	0	32836	32836	
1285	0	32828	32690	
1286	0	32838	32800	
1287	0	32868	32679	
1288	0	32836	32750	
1289	0	32860	32812	
1290	0	32856	32865	
1291	0	32826	32762	
1292	0	32778	32794	
1293	0	32752	32792	
1294	0	32800	32982	
1295	0	32808	32919	
1296	0	32760	32758	
1297	0	32820	32761	
1298	0	32792	32756	
1299	0	32784	32889	
1300	0	32732	32839	
1301	0	32788	32684	
1302	0	32806	32750	
1303	0	32868	32700	
1304	0	32844	32830	
1305	0	32828	32792	
1306	0	32848	32692	
1307	0	32868	32676	
1308	0	32870	32692	
1309	0	32784	32815	
1310	0	32809	32705	
1311	0	32871	32820	
1312	0	32800	32822	
1313	0	32804	32766	
1314	0	32840	32716	
1315	0	32840	32610	
1316	0	32820	32894	
1317	0	32764	32774	
1318	0	32870	32705	
1319	0	32802	32772	
1320	0	32774	32780	
1321	0	32708	32848	
1322	0	32810	32710	
1323	0	32812	32802	
1324	0	32802	32799	
1325	0	32802	32672	
1326	0	32860	32818	
1327	0	32834	32820	
1328	0	32824	32684	
1329	0	32844	32775	
1330	0	32826	32854	
1331	0	32764	32680	
1332	0	32794	32762	
1333	0	32788	32764	
1334	0	32840	32840	
1335	0	32864	32708	
1336	0	32846	32704	
1337	0	32792	32758	
1338	0	32796	32692	
1339	0	32760	32830	
1340	0	32900	32743	
1341	0	32874	32678	
1342	0	32764	32772	
1343	0	32794	32716	
1344	0	32800	32732	
1345	0	32776	32722	
1346	0	32808	32774	
1347	0	32860	32774	
1348	0	32876	32743	
1349	0	32794	32838	
1350	0	32834	32762	
1351	0	32812	32656	
1352	0	32810	32759	
1353	0	32768	32770	
1354	0	32818	32812	
1355	0	32788	32806	
1356	0	32778	32697	
1357	0	32864	32831	
1358	0	32774	32828	
1359	0	32836	32830	
1360	0	32814	32880	
1361	0	32836	32840	
1362	0	32834	32758	
1363	0	32832	32820	
1364	0	32820	32756	
1365	0	32812	32826	
1366	0	32774	32698	
1367	0	32756	32806	
1368	0	32792	32766	
1369	0	32820	32584	
1370	0	32818	32775	
1371	0	32792	32804	
1372	0	32800	32638	
1373	0	32834	32756	
1374	0	32788	32804	
1375	0	32832	32646	
1376	0	32816	32766	
1377	0	32800	32746	
1378	0	32866	32696	
1379	0	32784	32734	
1380	0	32778	32820	
1381	0	32872	32756	
1382	0	32834	32772	
1383	0	32812	32804	
1384	0	32776	32695	
1385	0	32800	32674	
1386	0	32884	32740	
1387	0	32896	32769	
1388	0	32840	32674	
1389	0	32782	32760	
1390	0	32800	32756	
1391	0	32824	32766	
1392	0	32804	32802	
1393	0	32812	32814	
1394	0	32788	32830	
1395	0	32812	32774	
1396	0	32868	32759	
1397	0	32808	32839	
1398	0	32808	32762	
1399	0	32790	32807	
1400	0	32814	32874	
1401	0	32780	32712	
1402	0	32808	32812	
1403	0	32808	32710	
1404	0	32772	32708	
1405	0	32798	32772	
1406	0	32804	32718	
1407	0	32798	32752	
1408	0	32840	32643	
1409	0	32762	32692	
1410	0	32878	32726	
1411	0	32800	32742	
1412	0	32840	32807	
1413	0	32844	32670	
1414	0	32772	32711	
1415	0	32750	32796	
1416	0	32836	32774	
1417	0	32876	32898	
1418	0	32860	32768	
1419	0	32828	32752	
1420	0	32784	32764	
1421	0	32844	32706	
1422	0	32810	32775	
1423	0	32804	32739	
1424	0	32760	32710	
1425	0	32750	32763	
1426	0	32798	32652	
1427	0	32712	32775	
1428	0	32796	32786	
1429	0	32808	32730	
1430	0	32816	32774	
1431	0	32828	32679	
1432	0	32760	32750	
1433	0	32789	32848	
1434	0	32814	32700	
1435	0	32872	32804	
1436	0	32814	32744	
1437	0	32840	32806	
1438	0	32842	32830	
1439	0	32820	32720	
1440	0	32750	32764	
1441	0	32862	32759	
1442	0	32762	32822	
1443	0	32812	32890	
1444	0	32714	32812	
1445	0	32788	32852	
1446	0	32852	32775	
1447	0	32874	32828	
1448	0	32828	32774	
1449	0	32808	32834	
1450	0	32848	32812	
1451	0	32816	32706	
1452	0	32820	32687	
1453	0	32802	32686	
1454	0	32754	32817	
1455	0	32792	32792	
1456	0	32802	32870	
1457	0	32816	32829	
1458	0	32816	32775	
1459	0	32792	32775	
1460	0	32780	32738	
1461	0	32724	32864	
1462	0	32838	32846	
1463	0	32804	32801	
1464	0	32860	32855	
1465	0	32876	32808	
1466	0	32780	32887	
1467	0	32852	32750	
1468	0	32832	32770	
1469	0	32836	32740	
1470	0	32802	32844	
1471	0	32796	32786	
1472	0	32816	32722	
1473	0	32772	32814	
1474	0	32796	32686	
1475	0	32820	32774	
1476	0	32772	32766	
1477	0	32840	32724	
1478	0	32852	32808	
1479	0	32784	32710	
1480	0	32820	32794	
1481	0	32768	32761	
1482	0	32776	32736	
1483	0	32832	32705	
1484	0	32756	32652	
1485	0	32778	32799	
1486	0	32772	32816	
1487	0	32860	32711	
1488	0	32780	32714	
1489	0	32808	32632	
1490	0	32784	32775	
1491	0	32846	32742	
1492	0	32842	32672	
1493	0	32772	32688	
1494	0	32812	32711	
1495	0	32804	32826	
1496	0	32740	32770	
1497	0	32862	32648	
1498	0	32818	32775	
1499	0	32860	32745	
1500	0	32804	32806	
1501	0	32868	32852	
1502	0	32810	32666	
1503	0	32800	32830	
1504	0	32786	32664	
1505	0	32788	32732	
1506	0	32804	32711	
1507	0	32830	32800	
1508	0	32804	32775	
1509	0	32782	32676	
1510	0	32836	32832	
1511	0	32856	32760	
1512	0	32794	32774	
1513	0	32834	32794	
1514	0	32832	32694	
1515	0	32870	32852	
1516	0	32807	32658	
1517	0	32820	32739	
1518	0	32822	32724	
1519	0	32784	32858	
1520	0	32836	32818	
1521	0	32826	32772	
1522	0	32788	32794	
1523	0	32764	32757	
1524	0	32780	32775	
1525	0	32816	32680	
1526	0	32808	32752	
1527	0	32824	32775	
1528	0	32820	32686	
1529	0	32832	32718	
1530	0	32754	32711	
1531	0	32884	32794	
1532	0	32826	32793	
1533	0	32760	32700	
1534	0	32786	32746	
1535	0	32852	32810	
1536	0	32816	32814	
1537	0	32878	32849	
1538	0	32820	32714	
1539	0	32796	32814	
1540	0	32828	32775	
1541	0	32746	32772	
1542	0	32706	32762	
1543	0	32816	32582	
1544	0	32780	32688	
1545	0	32788	32720	
1546	0	32784	32848	
1547	0	32784	32796	
1548	0	32734	32700	
1549	0	32822	32788	
1550	0	32800	32660	
1551	0	32832	32758	
1552	0	32810	32788	
1553	0	32804	32744	
1554	0	32776	32775	
1555	0	32872	32774	
1556	0	32830	32836	
1557	0	32864	32775	
1558	0	32778	32764	
1559	0	32772	32816	
1560	0	32808	32774	
1561	0	32792	32706	
1562	0	32788	32768	
1563	0	32788	32829	
1564	0	32848	32916	
1565	0	32874	32849	
1566	0	32788	32698	
1567	0	32774	32743	
1568	0	32788	32671	
1569	0	32836	32764	
1570	0	32780	32786	
1571	0	32818	32752	
1572	0	32824	32772	
1573	0	32818	32727	
1574	0	32798	32768	
1575	0	32796	32756	
1576	0	32812	32696	
1577	0	32856	32775	
1578	0	32836	32774	
1579	0	32764	32652	
1580	0	32812	32720	
1581	0	32810	32644	
1582	0	32804	32762	
1583	0	32778	32764	
1584	0	32804	32772	
1585	0	32736	32796	
1586	0	32840	32700	
1587	0	32744	32740	
1588	0	32784	32742	
1589	0	32894	32807	
1590	0	32754	32658	
1591	0	32784	32800	
1592	0	32860	32751	
1593	0	32865	32788	
1594	0	32844	32790	
1595	0	32772	32657	
1596	0	32756	32852	
1597	0	32786	32764	
1598	0	32858	32743	
1599	0	32856	32740	
1600	0	32868	32746	
1601	0	32760	32804	
1602	0	32786	32878	
1603	0	32725	32746	
1604	0	32796	32806	
1605	0	32740	32740	
1606	0	32812	32808	
1607	0	32756	32856	
1608	0	32844	32828	
1609	0	32788	32876	
1610	0	32836	32689	
1611	0	32848	32820	
1612	0	32772	32722	
1613	0	32820	32672	
1614	0	32804	32820	
1615	0	32848	32660	
1616	0	32800	32772	
1617	0	32802	32764	
1618	0	32860	32704	
1619	0	32808	32888	
1620	0	32800	32848	
1621	0	32764	32692	
1622	0	32764	32775	
1623	0	32820	32760	
1624	0	32836	32704	
1625	0	32810	32744	
1626	0	32752	32708	
1627	0	32754	32856	
1628	0	32744	32732	
1629	0	32820	32680	
1630	0	32856	32812	
1631	0	32804	32736	
1632	0	32790	32814	
1633	0	32822	32900	
1634	0	32816	32767	
1635	0	32802	32774	
1636	0	32832	32788	
1637	0	32836	32792	
1638	0	32760	32798	
1639	0	32808	32794	
1640	0	32750	32775	
1641	0	32836	32814	
1642	0	32776	32820	
1643	0	32826	32730	
1644	0	32812	32812	
1645	0	32730	32647	
1646	0	32766	32898	
1647	0	32874	32868	
1648	0	32856	32774	
1649	0	32760	32687	
1650	0	32794	32844	
1651	0	32788	32740	
1652	0	32864	32696	
1653	0	32766	32772	
1654	0	32840	32678	
1655	0	32832	32838	
1656	0	32736	32710	
1657	0	32816	32831	
1658	0	32796	32796	
1659	0	32788	32696	
1660	0	32801	32726	
1661	0	32784	32772	
1662	0	32828	32671	
1663	0	32816	32758	
1664	0	32796	32864	
1665	0	32828	32856	
1666	0	32832	32882	
1667	0	32782	32756	
1668	0	32836	32728	
1669	0	32812	32750	
1670	0	32796	32775	
1671	0	32812	32666	
1672	0	32762	32732	
1673	0	32866	32770	
1674	0	32765	32706	
1675	0	32812	32814	
1676	0	32844	32807	
1677	0	32802	32652	
1678	0	32828	32911	
1679	0	32784	32802	
1680	0	32812	32878	
1681	0	32832	32686	
1682	0	32776	32793	
1683	0	32804	32732	
1684	0	32822	32744	
1685	0	32848	32705	
1686	0	32756	32775	
1687	0	32848	32724	
1688	0	32804	32775	
1689	0	32836	32796	
1690	0	32780	32704	
1691	0	32828	32887	
1692	0	32860	32824	
1693	0	32806	32706	
1694	0	32814	32794	
1695	0	32772	32702	
1696	0	32774	32850	
1697	0	32820	32788	
1698	0	32794	32746	
1699	0	32784	32886	
1700	0	32864	32903	
1701	0	32846	32678	
1702	0	32856	32887	
1703	0	32860	32796	
1704	0	32820	32639	
1705	0	32768	32716	
1706	0	32808	32790	
1707	0	32768	32615	
1708	0	32780	32774	
1709	0	32868	32879	
1710	0	32822	32682	
1711	0	32796	32824	
1712	0	32780	32830	
1713	0	32824	32644	
1714	0	32724	32774	
1715	0	32816	32730	
1716	0	32834	32696	
1717	0	32778	32789	
1718	0	32820	32742	
1719	0	32832	32800	
1720	0	32774	32858	
1721	0	32818	32725	
1722	0	32772	32708	
1723	0	32884	32855	
1724	0	32820	32727	
1725	0	32842	32802	
1726	0	32792	32828	
1727	0	32868	32666	
1728	0	32832	32801	
1729	0	32816	32690	
1730	0	32754	32839	
1731	0	32776	32798	
1732	0	32800	32654	
1733	0	32866	32775	
1734	0	32752	32764	
1735	0	32756	32716	
1736	0	32806	32738	
1737	0	32876	32775	
1738	0	32784	32680	
1739	0	32784	32832	
1740	0	32828	32775	
1741	0	32800	32690	
1742	0	32810	32876	
1743	0	32876	32864	
1744	0	32846	32804	
1745	0	32836	32823	
1746	0	32816	32734	
1747	0	32812	32816	
1748	0	32756	32775	
1749	0	32800	32732	
1750	0	32776	32807	
1751	0	32804	32866	
1752	0	32826	32686	
1753	0	32808	32772	
1754	0	32876	32773	
1755	0	32832	32716	
1756	0	32792	32738	
1757	0	32884	32801	
1758	0	32812	32768	
1759	0	32770	32808	
1760	0	32842	32796	
1761	0	32848	32710	
1762	0	32768	32775	
1763	0	32796	32818	
1764	0	32777	32655	
1765	0	32806	32706	
1766	0	32828	32748	
1767	0	32788	32794	
1768	0	32780	32800	
1769	0	32768	32789	
1770	0	32777	32808	
1771	0	32814	32786	
1772	0	32824	32688	
1773	0	32788	32862	
1774	0	32928	32878	
1775	0	32832	32730	
1776	0	32872	32888	
1777	0	32778	32814	
1778	0	32780	32758	
1779	0	32716	32775	
1780	0	32816	32746	
1781	0	32828	32638	
1782	0	32816	32775	
1783	0	32792	32704	
1784	0	32832	32650	
1785	0	32840	32834	
1786	0	32804	32828	
1787	0	32846	32746	
1788	0	32828	32855	
1789	0	32804	32746	
1790	0	32856	32759	
1791	0	32828	32714	
1792	0	32800	32762	
1793	0	32836	32668	
1794	0	32788	32775	
1795	0	32796	32804	
1796	0	32824	32720	
1797	0	32816	32716	
1798	0	32800	32743	
1799	0	32816	32838	
1800	0	32782	32882	
1801	0	32890	32775	
1802	0	32770	32788	
1803	0	32784	32740	
1804	0	32804	32852	
1805	0	32821	32894	
1806	0	32824	32762	
1807	0	32864	32828	
1808	0	32834	32828	
1809	0	32784	32804	
1810	0	32772	32680	
1811	0	32856	32796	
1812	0	32784	32824	
1813	0	32792	32800	
1814	0	32816	32749	
1815	0	32866	32712	
1816	0	32775	32804	
1817	0	32814	32825	
1818	0	32806	32680	
1819	0	32818	32834	
1820	0	32796	32796	
1821	0	32788	32692	
1822	0	32840	32764	
1823	0	32872	32770	
1824	0	32828	32696	
1825	0	32830	32726	
1826	0	32824	32757	
1827	0	32874	32775	
1828	0	32744	32786	
1829	0	32796	32736	
1830	0	32824	32746	
1831	0	32772	32726	
1832	0	32904	32692	
1833	0	32824	32818	
1834	0	32840	32770	
1835	0	32808	32796	
1836	0	32838	32772	
1837	0	32724	32852	
1838	0	32738	32792	
1839	0	32792	32839	
1840	0	32796	32724	
1841	0	32864	32886	
1842	0	32844	32823	
1843	0	32796	32736	
1844	0	32806	32764	
1845	0	32846	32775	
1846	0	32784	32743	
1847	0	32804	32772	
1848	0	32840	32728	
1849	0	32808	32775	
1850	0	32756	32714	
1851	0	32784	32795	
1852	0	32846	32734	
1853	0	32876	32642	
1854	0	32770	32772	
1855	0	32796	32791	
1856	0	32782	32696	
1857	0	32806	32856	
1858	0	32840	32818	
1859	0	32928	32660	
1860	0	32889	32759	
1861	0	32916	32644	
1862	0	32940	32572	
1863	0	32888	32625	
1864	0	32828	32492	
1865	0	32822	32454	
1866	0	32880	32580	
1867	0	32824	32548	
1868	0	32888	32384	
1869	0	32856	32510	
1870	0	32852	32478	
1871	0	32764	32436	
1872	0	32756	32519	
1873	0	32792	32551	
1874	0	32864	32490	
1875	0	32736	32626	
1876	0	32820	32698	
1877	0	32754	32626	
1878	0	32788	32990	
1879	0	32704	33024	
1880	0	32728	33268	
1881	0	32644	33426	
1882	0	32612	33415	
1883	0	32544	33647	
1884	0	32542	33588	
1885	0	32546	33582	
1886	0	32586	33694	
1887	0	32648	33622	
1888	0	32582	33535	
1889	0	32694	33420	
1890	0	32708	33279	
1891	0	32832	32924	
1892	0	32780	32748	
1893	0	32872	32422	
1894	0	32848	32507	
1895	0	32846	32383	
1896	0	32902	32257	
1897	0	32906	32366	
1898	0	32960	32352	
1899	0	32956	32358	
1900	0	32920	32364	
1901	0	32856	32432	
1902	0	32954	32414	
1903	0	32952	32367	
1904	0	32900	32454	
1905	0	32868	32642	
1906	0	32912	32564	
1907	0	32816	32609	
1908	0	32864	32678	
1909	0	32844	32697	
1910	0	32862	32796	
1911	0	32844	32718	
1912	0	32944	32830	
1913	0	32928	32810	
1914	0	32932	32708	
1915	0	32864	32748	
1916	0	32886	32814	
1917	0	32864	32766	
1918	0	32800	32837	
1919	0	32876	32842	
1920	0	32840	32766	
1921	0	32832	32882	
1922	0	32804	32820	
1923	0	32744	32788	
1924	0	32769	32790	
1925	0	32786	32808	
1926	0	32740	32726	
1927	0	32756	32794	
1928	0	32764	32720	
1929	0	32770	32786	
1930	0	32808	32705	
1931	0	32820	32814	
1932	0	32768	32714	
1933	0	32776	32738	
1934	0	32766	32826	
1935	0	32784	32804	
1936	0	32796	32674	
1937	0	32768	32842	
1938	0	32790	32768	
1939	0	32826	32670	
1940	0	32786	32788	
1941	0	32748	32760	
1942	0	32806	32732	
1943	0	32804	32762	
1944	0	32841	32801	
1945	0	32766	32748	
1946	0	32860	32831	
1947	0	32798	32670	
1948	0	32824	32798	
1949	0	32792	32761	
1950	0	32766	32799	
1951	0	32848	32788	
1952	0	32830	32702	
1953	0	32824	32792	
1954	0	32828	32799	
1955	0	32756	32680	
1956	0	32770	32808	
1957	0	32788	32814	
1958	0	32800	32790	
1959	0	32842	32732	
1960	0	32828	32754	
1961	0	32808	32916	
1962	0	32730	32796	
1963	0	32872	32710	
1964	0	32876	32804	
1965	0	32760	32705	
1966	0	32784	32820	
1967	0	32762	32734	
1968	0	32828	32764	
1969	0	32830	32764	
1970	0	32780	32703	
1971	0	32780	32775	
1972	0	32826	32806	
1973	0	32822	32854	
1974	0	32808	32602	
1975	0	32904	32807	
1976	0	32824	32828	
1977	0	32844	32710	
1978	0	32822	32742	
1979	0	32772	32798	
1980	0	32792	32751	
1981	0	32824	32756	
1982	0	32852	32762	
1983	0	32756	32898	
1984	0	32808	32754	
1985	0	32842	32878	
1986	0	32780	32663	
1987	0	32800	32824	
1988	0	32796	32768	
1989	0	32812	32687	
1990	0	32858	32770	
1991	0	32868	32759	
1992	0	32842	32846	
1993	0	32782	32728	
1994	0	32772	32839	
1995	0	32796	32718	
1996	0	32838	32785	
1997	0	32860	32764	
1998	0	32830	32878	
1999	0	32812	32772	
2000	0	32788	32684	
2001	0	32792	32728	
2002	0	32804	32760	
2003	0	32828	32876	
2004	0	32838	32762	
2005	0	32736	32766	
2006	0	32772	32784	
2007	0	32808	32794	
2008	0	32832	32718	
2009	0	32864	32728	
2010	0	32892	32774	
2011	0	32796	32746	
2012	0	32796	32740	
2013	0	32856	32743	
2014	0	32847	32807	
2015	0	32766	32743	
2016	0	32796	32895	
2017	0	32748	32769	
2018	0	32782	32684	
2019	0	32776	32750	
2020	0	32840	32808	
2021	0	32812	32854	
2022	0	32794	32706	
2023	0	32850	32775	
2024	0	32856	32784	
2025	0	32828	32736	
2026	0	32754	32790	
2027	0	32772	32758	
2028	0	32800	32754	
2029	0	32824	32784	
2030	0	32880	32736	
2031	0	32864	32702	
2032	0	32752	32800	
2033	0	32828	32816	
2034	0	32812	32716	
2035	0	32742	32832	
2036	0	32840	32752	
2037	0	32779	32906	
2038	0	32756	32692	
2039	0	32808	32762	
2040	0	32800	32838	
2041	0	32816	32711	
2042	0	32758	32774	
2043	0	32794	32724	
2044	0	32844	32750	
2045	0	32856	32748	
2046	0	32820	32828	
2047	0	32794	32752	
2048	0	32881	32770	
2049	0	32824	32808	
2050	0	32812	32748	
2051	0	32802	32687	
2052	0	32828	32834	
2053	0	32780	32760	
2054	0	32816	32730	
2055	0	32818	32775	
2056	0	32857	32830	
2057	0	32808	32773	
2058	0	32752	32796	
2059	0	32764	32764	
2060	0	32798	32840	
2061	0	32832	32676	
2062	0	32848	32727	
2063	0	32800	32775	
2064	0	32788	32852	
2065	0	32836	32726	
2066	0	32816	32768	
2067	0	32856	32746	
2068	0	32860	32740	
2069	0	32816	32760	
2070	0	32778	32798	
2071	0	32776	32768	
2072	0	32824	32708	
2073	0	32768	32700	
2074	0	32784	32774	
2075	0	32788	32775	
2076	0	32830	32694	
2077	0	32862	32860	
2078	0	32864	32821	
2079	0	32836	32750	
2080	0	32814	32663	
2081	0	32774	32727	
2082	0	32924	32752	
2083	0	32880	32756	
2084	0	32740	32599	
2085	0	32820	32809	
2086	0	32784	32724	
2087	0	32764	32816	
2088	0	32788	32735	
2089	0	32788	32864	
2090	0	32836	32822	
2091	0	32812	32814	
2092	0	32800	32767	
2093	0	32872	32762	
2094	0	32812	32805	
2095	0	32761	32856	
2096	0	32778	32748	
2097	0	32814	32752	
2098	0	32860	32758	
2099	0	32830	32826	
2100	0	32772	32775	
2101	0	32868	32812	
2102	0	32844	32790	
2103	0	32738	32751	
2104	0	32802	32712	
2105	0	32728	32772	
2106	0	32752	32789	
2107	0	32744	32682	
2108	0	32802	32695	
2109	0	32772	32822	
2110	0	32796	32720	
2111	0	32832	32764	
2112	0	32802	32702	
2113	0	32796	32810	
2114	0	32802	32852	
2115	0	32788	32727	
2116	0	32844	32746	
2117	0	32832	32839	
2118	0	32820	32770	
2119	0	32768	32756	
2120	0	32820	32734	
2121	0	32832	32818	
2122	0	32792	32856	
2123	0	32800	32687	
2124	0	32820	32688	
2125	0	32752	32735	
2126	0	32796	32710	
2127	0	32800	32739	
2128	0	32860	32775	
2129	0	32876	32798	
2130	0	32812	32846	
2131	0	32732	32766	
2132	0	32750	32838	
2133	0	32792	32798	
2134	0	32872	32839	
2135	0	32822	32799	
2136	0	32732	32690	
2137	0	32844	32826	
2138	0	32804	32830	
2139	0	32768	32792	
2140	0	32896	32676	
2141	0	32775	32817	
2142	0	32836	32772	
2143	0	32784	32732	
2144	0	32776	32764	
2145	0	32840	32806	
2146	0	32818	32711	
2147	0	32776	32749	
2148	0	32812	32775	
2149	0	32820	32808	
2150	0	32880	32672	
2151	0	32820	32727	
2152	0	32832	32774	
2153	0	32896	32816	
2154	0	32852	32694	
2155	0	32764	32762	
2156	0	32810	32775	
2157	0	32864	32792	
2158	0	32814	32728	
2159	0	32836	32818	
2160	0	32796	32822	
2161	0	32748	32682	
2162	0	32776	32619	
2163	0	32792	32743	
2164	0	32840	32775	
2165	0	32794	32705	
2166	0	32784	32736	
2167	0	32852	32846	
2168	0	32784	32660	
2169	0	32816	32820	
2170	0	32796	32768	
2171	0	32856	32775	
2172	0	32828	32700	
2173	0	32832	32736	
2174	0	32762	32742	
2175	0	32817	32743	
2176	0	32868	32852	
2177	0	32834	32770	
2178	0	32878	32748	
2179	0	32768	32760	
2180	0	32852	32866	
2181	0	32836	32710	
2182	0	32956	32874	
2183	0	32836	32762	
2184	0	32768	32756	
2185	0	32740	32664	
2186	0	32748	32834	
2187	0	32764	32844	
2188	0	32828	32734	
2189	0	32820	32704	
2190	0	32806	32828	
2191	0	32858	32738	
2192	0	32760	32804	
2193	0	32820	32830	
2194	0	32872	32818	
2195	0	32846	32711	
2196	0	32764	32772	
2197	0	32814	32894	
2198	0	32778	32711	
2199	0	32860	32800	
2200	0	32792	32743	
2201	0	32782	32706	
2202	0	32790	32792	
2203	0	32788	32724	
2204	0	32804	32670	
2205	0	32816	32742	
2206	0	32806	32871	
2207	0	32792	32679	
2208	0	32822	32828	
2209	0	32808	32794	
2210	0	32822	32746	
2211	0	32736	32726	
2212	0	32804	32770	
2213	0	32826	32652	
2214	0	32852	32839	
2215	0	32848	32759	
2216	0	32816	32842	
2217	0	32864	32860	
2218	0	32908	32733	
2219	0	32796	32670	
2220	0	32838	32775	
2221	0	32808	32863	
2222	0	32808	32839	
2223	0	32798	32842	
2224	0	32800	32764	
2225	0	32768	32767	
2226	0	32876	32698	
2227	0	32796	32804	
2228	0	32818	32794	
2229	0	32860	32801	
2230	0	32808	32728	
2231	0	32824	32716	
2232	0	32752	32750	
2233	0	32812	32683	
2234	0	32820	32846	
2235	0	32870	32710	
2236	0	32832	32708	
2237	0	32804	32746	
2238	0	32828	32804	
2239	0	32820	32751	
2240	0	32762	32820	
2241	0	32764	32744	
2242	0	32854	32868	
2243	0	32798	32670	
2244	0	32769	32775	
2245	0	32820	32788	
2246	0	32806	32854	
2247	0	32866	32748	
2248	0	32716	32766	
2249	0	32840	32788	
2250	0	32808	32794	
2251	0	32845	32730	
2252	0	32876	32844	
2253	0	32862	32839	
2254	0	32839	32692	
2255	0	32784	32871	
2256	0	32776	32728	
2257	0	32856	32785	
2258	0	32828	32730	
2259	0	32804	32718	
2260	0	32856	32774	
2261	0	32836	32812	
2262	0	32808	32828	
2263	0	32802	32660	
2264	0	32836	32772	
2265	0	32816	32820	
2266	0	32750	32676	
2267	0	32820	32700	
2268	0	32840	32706	
2269	0	32806	32753	
2270	0	32798	32814	
2271	0	32788	32775	
2272	0	32784	32670	
2273	0	32804	32782	
2274	0	32864	32796	
2275	0	32834	32688	
2276	0	32792	32775	
2277	0	32826	32700	
2278	0	32792	32729	
2279	0	32804	32818	
2280	0	32776	32790	
2281	0	32796	32880	
2282	0	32832	32772	
2283	0	32766	32722	
2284	0	32864	32775	
2285	0	32776	32772	
2286	0	32790	32752	
2287	0	32860	32906	
2288	0	32880	32774	
2289	0	32804	32702	
2290	0	32840	32775	
2291	0	32778	32722	
2292	0	32760	32788	
2293	0	32812	32762	
2294	0	32776	32734	
2295	0	32756	32770	
2296	0	32836	32774	
2297	0	32812	32775	
2298	0	32793	32680	
2299	0	32844	32795	
2300	0	32876	32796	
2301	0	32776	32686	
2302	0	32856	32768	
2303	0	32858	32775	
2304	0	32728	32708	
2305	0	32820	32750	
2306	0	32748	32746	
2307	0	32828	32752	
2308	0	32828	32839	
2309	0	32786	32732	
2310	0	32748	32744	
2311	0	32812	32794	
2312	0	32812	32758	
2313	0	32832	32839	
2314	0	32778	32719	
2315	0	32762	32768	
2316	0	32856	32708	
2317	0	32864	32808	
2318	0	32836	32852	
2319	0	32820	32804	
2320	0	32796	32692	
2321	0	32782	32823	
2322	0	32792	32829	
2323	0	32824	32716	
2324	0	32822	32824	
2325	0	32800	32815	
2326	0	32778	32769	
2327	0	32772	32692	
2328	0	32844	32768	
2329	0	32782	32792	
2330	0	32868	32686	
2331	0	32800	32796	
2332	0	32792	32774	
2333	0	32766	32678	
2334	0	32804	32812	
2335	0	32808	32868	
2336	0	32808	32724	
2337	0	32816	32848	
2338	0	32800	32816	
2339	0	32806	32786	
2340	0	32866	32758	
2341	0	32796	32790	
2342	0	32820	32790	
2343	0	32772	32839	
2344	0	32844	32775	
2345	0	32828	32657	
2346	0	32788	32820	
2347	0	32788	32774	
2348	0	32824	32720	
2349	0	32798	32790	
2350	0	32812	32762	
2351	0	32806	32647	
2352	0	32780	32752	
2353	0	32876	32802	
2354	0	32804	32753	
2355	0	32784	32836	
2356	0	32854	32850	
2357	0	32820	32678	
2358	0	32824	32820	
2359	0	32756	32806	
2360	0	32832	32791	
2361	0	32816	32798	
2362	0	32808	32810	
2363	0	32860	32682	
2364	0	32816	32812	
2365	0	32808	32746	
2366	0	32800	32712	
2367	0	32800	32814	
2368	0	32786	32792	
2369	0	32790	32767	
2370	0	32812	32812	
2371	0	32822	32688	
2372	0	32888	32775	
2373	0	32766	32791	
2374	0	32738	32750	
2375	0	32800	32660	
2376	0	32884	32820	
2377	0	32784	32814	
2378	0	32868	32713	
2379	0	32846	32855	
2380	0	32794	32796	
2381	0	32824	32689	
2382	0	32808	32718	
2383	0	32816	32814	
2384	0	32804	32738	
2385	0	32826	32860	
2386	0	32816	32806	
2387	0	32790	32775	
2388	0	32786	32864	
2389	0	32794	32804	
2390	0	32816	32770	
2391	0	32792	32708	
2392	0	32826	32822	
2393	0	32788	32711	
2394	0	32804	32788	
2395	0	32816	32830	
2396	0	32798	32686	
2397	0	32804	32844	
2398	0	32845	32822	
2399	0	32824	32868	
2400	0	32876	32638	
2401	0	32848	32750	
2402	0	32778	32688	
2403	0	32868	32848	
2404	0	32816	32816	
2405	0	32776	32622	
2406	0	32832	32800	
2407	0	32784	32688	
2408	0	32848	32647	
2409	0	32792	32775	
2410	0	32820	32823	
2411	0	32764	32827	
2412	0	32824	32683	
2413	0	32836	32756	
2414	0	32832	32788	
2415	0	32788	32694	
2416	0	32780	32810	
2417	0	32764	32839	
2418	0	32804	32742	
2419	0	32840	32768	
2420	0	32886	32827	
2421	0	32824	32828	
2422	0	32788	32804	
2423	0	32824	32831	
2424	0	32828	32708	
2425	0	32800	32728	
2426	0	32824	32710	
2427	0	32712	32814	
2428	0	32744	32756	
2429	0	32824	32734	
2430	0	32828	32708	
2431	0	32832	32784	
2432	0	32824	32736	
2433	0	32808	32735	
2434	0	32852	32788	
2435	0	32804	32751	
2436	0	32776	32784	
2437	0	32782	32735	
2438	0	32812	32720	
2439	0	32792	32807	
2440	0	32816	32788	
2441	0	32788	32647	
2442	0	32826	32790	
2443	0	32752	32820	
2444	0	32804	32727	
2445	0	32820	32806	
2446	0	32804	32838	
2447	0	32824	32683	
2448	0	32890	32800	
2449	0	32756	32768	
2450	0	32804	32892	
2451	0	32846	32815	
2452	0	32814	32668	
2453	0	32792	32796	
2454	0	32782	32828	
2455	0	32794	32796	
2456	0	32892	32852	
2457	0	32784	32890	
2458	0	32808	32751	
2459	0	32776	32802	
2460	0	32812	32721	
2461	0	32843	32741	
2462	0	32802	32732	
2463	0	32840	32818	
2464	0	32824	32775	
2465	0	32756	32807	
2466	0	32888	32655	
2467	0	32828	32758	
2468	0	32804	32796	
2469	0	32836	32725	
2470	0	32808	32760	
2471	0	32812	32735	
2472	0	32802	32820	
2473	0	32812	32800	
2474	0	32772	32691	
2475	0	32834	32775	
2476	0	32840	32726	
2477	0	32850	32800	
2478	0	32768	32756	
2479	0	32824	32700	
2480	0	32782	32790	
2481	0	32765	32775	
2482	0	32768	32757	
2483	0	32796	32839	
2484	0	32844	32810	
2485	0	32814	32687	
2486	0	32818	32734	
2487	0	32834	32828	
2488	0	32820	32876	
2489	0	32820	32791	
2490	0	32776	32810	
2491	0	32730	32820	
2492	0	32876	32772	
2493	0	32804	32682	
2494	0	32792	32822	
2495	0	32828	32836	
2496	0	32856	32806	
2497	0	32842	32775	
2498	0	32768	32804	
2499	0	32854	32775	
2500	0	32796	32695	
2501	0	32848	32751	
2502	0	32798	32674	
2503	0	32808	32596	
2504	0	32772	32790	
2505	0	32832	32839	
2506	0	32770	32850	
2507	0	32780	32678	
2508	0	32730	32837	
2509	0	32852	32774	
2510	0	32808	32791	
2511	0	32860	32716	
2512	0	32834	32870	
2513	0	32790	32788	
2514	0	32842	32704	
2515	0	32720	32852	
2516	0	32810	32818	
2517	0	32860	32812	
2518	0	32800	32706	
2519	0	32868	32900	
2520	0	32778	32804	
2521	0	32796	32724	
2522	0	32792	32686	
2523	0	32836	32757	
2524	0	32784	32856	
2525	0	32766	32702	
2526	0	32892	32735	
2527	0	32870	32792	
2528	0	32888	32794	
2529	0	32894	32672	
2530	0	32844	32729	
2531	0	32868	32720	
2532	0	32888	32615	
2533	0	32924	32566	
2534	0	32874	32564	
2535	0	32884	32559	
2536	0	32920	32422	
2537	0	32780	32615	
2538	0	32850	32574	
2539	0	32824	32487	
2540	0	32884	32516	
2541	0	32844	32582	
2542	0	32868	32574	
2543	0	32834	32404	
2544	0	32788	32498	
2545	0	32720	32606	
2546	0	32766	32622	
2547	0	32796	32876	
2548	0	32686	32903	
2549	0	32632	32948	
2550	0	32764	33170	
2551	0	32660	33262	
2552	0	32636	33466	
2553	0	32616	33406	
2554	0	32548	33462	
2555	0	32578	33579	
2556	0	32612	33550	
2557	0	32586	33536	
2558	0	32660	33508	
2559	0	32676	33438	
2560	0	32664	33102	
2561	0	32760	32870	
2562	0	32762	32814	
2563	0	32804	32586	
2564	0	32824	32504	
2565	0	32854	32490	
2566	0	32904	32424	
2567	0	32868	32334	
2568	0	32949	32334	
2569	0	32978	32455	
2570	0	32908	32446	
2571	0	32904	32341	
2572	0	32948	32412	
2573	0	32886	32481	
2574	0	32876	32567	
2575	0	32884	32540	
2576	0	32868	32628	
2577	0	32844	32664	
2578	0	32846	32700	
2579	0	32902	32758	
2580	0	32938	32775	
2581	0	32892	32700	
2582	0	32932	32734	
2583	0	32860	32807	
2584	0	32908	32700	
2585	0	32888	32689	
2586	0	32858	32764	
2587	0	32864	32876	
2588	0	32868	32805	
2589	0	32872	32790	
2590	0	32794	32732	
2591	0	32746	32712	
2592	0	32788	32814	
2593	0	32862	32816	
2594	0	32774	32804	
2595	0	32776	32684	
2596	0	32814	32826	
2597	0	32780	32836	
2598	0	32764	32871	
2599	0	32716	32708	
2600	0	32768	32760	
2601	0	32738	32888	
2602	0	32798	32829	
2603	0	32814	32696	
2604	0	32844	32742	
2605	0	32752	32744	
2606	0	32754	32767	
2607	0	32712	32736	
2608	0	32824	32812	
2609	0	32796	32752	
2610	0	32792	32686	
2611	0	32792	32762	
2612	0	32800	32790	
2613	0	32836	32839	
2614	0	32776	32666	
2615	0	32836	32775	
2616	0	32752	32744	
2617	0	32856	32775	
2618	0	32772	32695	
2619	0	32792	32746	
2620	0	32832	32917	
2621	0	32858	32762	
2622	0	32840	32817	
2623	0	32788	32796	
2624	0	32802	32718	
2625	0	32760	32828	
2626	0	32812	32772	
2627	0	32824	32716	
2628	0	32864	32658	
2629	0	32882	32764	
2630	0	32780	32831	
2631	0	32880	32690	
2632	0	32732	32918	
2633	0	32752	32751	
2634	0	32752	32702	
2635	0	32808	32732	
2636	0	32852	32758	
2637	0	32826	32764	
2638	0	32814	32736	
2639	0	32805	32664	
2640	0	32864	32851	
2641	0	32768	32798	
2642	0	32814	32647	
2643	0	32804	32799	
2644	0	32840	32798	
2645	0	32792	32774	
2646	0	32860	32878	
2647	0	32796	32801	
2648	0	32812	32814	
2649	0	32794	32836	
2650	0	32842	32742	
2651	0	32848	32818	
2652	0	32828	32784	
2653	0	32746	32820	
2654	0	32794	32814	
2655	0	32852	32748	
2656	0	32858	32718	
2657	0	32896	32815	
2658	0	32828	32832	
2659	0	32836	32740	
2660	0	32756	32823	
2661	0	32764	32745	
2662	0	32800	32756	
2663	0	32820	32724	
2664	0	32728	32758	
2665	0	32880	32746	
2666	0	32850	32818	
2667	0	32776	32732	
2668	0	32754	32610	
2669	0	32800	32796	
2670	0	32800	32746	
2671	0	32792	32790	
2672	0	32728	32720	
2673	0	32832	32775	
2674	0	32820	32762	
2675	0	32846	32808	
2676	0	32834	32775	
2677	0	32816	32704	
2678	0	32868	32812	
2679	0	32738	32734	
2680	0	32756	32816	
2681	0	32840	32774	
2682	0	32832	32868	
2683	0	32868	32758	
2684	0	32820	32884	
2685	0	32792	32684	
2686	0	32836	32790	
2687	0	32828	32728	
2688	0	32774	32770	
2689	0	32814	32754	
2690	0	32812	32798	
2691	0	32868	32748	
2692	0	32784	32724	
2693	0	32772	32700	
2694	0	32812	32760	
2695	0	32844	32734	
2696	0	32802	32770	
2697	0	32828	32654	
2698	0	32848	32792	
2699	0	32852	32794	
2700	0	32796	32736	
2701	0	32804	32706	
2702	0	32810	32790	
2703	0	32806	32784	
2704	0	32780	32893	
2705	0	32860	32775	
2706	0	32794	32775	
2707	0	32856	32830	
2708	0	32820	32676	
2709	0	32788	32760	
2710	0	32806	32796	
2711	0	32792	32746	
2712	0	32818	32666	
2713	0	32784	32798	
2714	0	32892	32793	
2715	0	32886	32845	
2716	0	32752	32702	
2717	0	32820	32842	
2718	0	32828	32716	
2719	0	32772	32770	
2720	0	32804	32750	
2721	0	32902	32832	
2722	0	32814	32732	
2723	0	32832	32738	
2724	0	32772	32676	
2725	0	32814	32756	
2726	0	32824	32815	
2727	0	32796	32692	
2728	0	32752	32679	
2729	0	32800	32770	
2730	0	32764	32775	
2731	0	32796	32726	
2732	0	32838	32822	
2733	0	32775	32835	
2734	0	32808	32670	
2735	0	32794	32812	
2736	0	32866	32724	
2737	0	32836	32752	
2738	0	32816	32693	
2739	0	32830	32854	
2740	0	32828	32775	
2741	0	32804	32666	
2742	0	32808	32742	
2743	0	32862	32800	
2744	0	32784	32700	
2745	0	32812	32828	
2746	0	32788	32792	
2747	0	32808	32743	
2748	0	32806	32724	
2749	0	32832	32724	
2750	0	32814	32800	
2751	0	32852	32752	
2752	0	32780	32724	
2753	0	32804	32860	
2754	0	32804	32854	
2755	0	32825	32788	
2756	0	32840	32708	
2757	0	32824	32816	
2758	0	32800	32814	
2759	0	32858	32762	
2760	0	32804	32796	
2761	0	32800	32830	
2762	0	32900	32756	
2763	0	32714	32775	
2764	0	32828	32748	
2765	0	32808	32767	
2766	0	32834	32672	
2767	0	32788	32775	
2768	0	32740	32756	
2769	0	32848	32788	
2770	0	32865	32666	
2771	0	32780	32800	
2772	0	32772	32724	
2773	0	32804	32785	
2774	0	32808	32678	
2775	0	32724	32798	
2776	0	32856	32803	
2777	0	32808	32655	
2778	0	32820	32768	
2779	0	32792	32838	
2780	0	32860	32768	
2781	0	32740	32817	
2782	0	32808	32758	
2783	0	32844	32738	
2784	0	32808	32898	
2785	0	32798	32820	
2786	0	32750	32683	
2787	0	32800	32774	
2788	0	32826	32850	
2789	0	32844	32770	
2790	0	32812	32823	
2791	0	32770	32828	
2792	0	32852	32740	
2793	0	32808	32814	
2794	0	32886	32706	
2795	0	32812	32758	
2796	0	32774	32886	
2797	0	32748	32870	
2798	0	32748	32718	
2799	0	32720	32804	
2800	0	32792	32756	
2801	0	32764	32796	
2802	0	32764	32666	
2803	0	32780	32740	
2804	0	32840	32810	
2805	0	32832	32710	
2806	0	32840	32775	
2807	0	32836	32814	
2808	0	32836	32632	
2809	0	32752	32880	
2810	0	32784	32748	
2811	0	32786	32775	
2812	0	32828	32888	
2813	0	32864	32774	
2814	0	32856	32832	
2815	0	32790	32756	
2816	0	32804	32816	
2817	0	32832	32764	
2818	0	32825	32736	
2819	0	32908	32772	
2820	0	32756	32794	
2821	0	32764	32810	
2822	0	32790	32744	
2823	0	32704	32771	
2824	0	32852	32874	
2825	0	32908	32690	
2826	0	32792	32775	
2827	0	32802	32798	
2828	0	32828	32766	
2829	0	32750	32698	
2830	0	32792	32772	
2831	0	32828	32766	
2832	0	32836	32716	
2833	0	32832	32775	
2834	0	32784	32807	
2835	0	32844	32720	
2836	0	32828	32784	
2837	0	32832	32752	
2838	0	32848	32796	
2839	0	32768	32703	
2840	0	32868	32704	
2841	0	32821	32807	
2842	0	32796	32679	
2843	0	32817	32784	
2844	0	32834	32752	
2845	0	32834	32752	
2846	0	32830	32672	
2847	0	32844	32800	
2848	0	32844	32900	
2849	0	32736	32746	
2850	0	32816	32616	
2851	0	32784	32830	
2852	0	32774	32829	
2853	0	32838	32764	
2854	0	32816	32647	
2855	0	32782	32775	
2856	0	32848	32774	
2857	0	32840	32734	
2858	0	32826	32748	
2859	0	32792	32804	
2860	0	32792	32822	
2861	0	32844	32775	
2862	0	32852	32730	
2863	0	32798	32675	
2864	0	32784	32784	
2865	0	32849	32694	
2866	0	32804	32884	
2867	0	32872	32625	
2868	0	32788	32798	
2869	0	32770	32750	
2870	0	32810	32788	
2871	0	32844	32756	
2872	0	32804	32790	
2873	0	32846	32820	
2874	0	32828	32775	
2875	0	32768	32742	
2876	0	32812	32784	
2877	0	32812	32863	
2878	0	32856	32732	
2879	0	32808	32828	
2880	0	32738	32836	
2881	0	32798	32647	
2882	0	32814	32839	
2883	0	32766	32770	
2884	0	32802	32710	
2885	0	32752	32744	
2886	0	32852	32751	
2887	0	32852	32750	
2888	0	32842	32762	
2889	0	32858	32772	
2890	0	32820	32696	
2891	0	32732	32807	
2892	0	32784	32750	
2893	0	32822	32671	
2894	0	32821	32756	
2895	0	32820	32759	
2896	0	32816	32730	
2897	0	32774	32872	
2898	0	32772	32823	
2899	0	32832	32716	
2900	0	32852	32788	
2901	0	32812	32830	
2902	0	32854	32726	
2903	0	32766	32842	
2904	0	32788	32780	
2905	0	32812	32775	
2906	0	32828	32868	
2907	0	32876	32802	
2908	0	32776	32719	
2909	0	32880	32756	
2910	0	32808	32818	
2911	0	32792	32679	
2912	0	32784	32780	
2913	0	32746	32708	
2914	0	32792	32748	
2915	0	32888	32796	
2916	0	32775	32672	
2917	0	32856	32815	
2918	0	32796	32775	
2919	0	32788	32750	
2920	0	32802	32768	
2921	0	32828	32761	
2922	0	32780	32715	
2923	0	32796	32774	
2924	0	32846	32764	
2925	0	32764	32710	
2926	0	32798	32848	
2927	0	32830	32760	
2928	0	32792	32832	
2929	0	32791	32674	
2930	0	32840	32821	
2931	0	32776	32775	
2932	0	32900	32785	
2933	0	32836	32702	
2934	0	32788	32832	
2935	0	32756	32766	
2936	0	32876	32705	
2937	0	32909	32794	
2938	0	32780	32804	
2939	0	32805	32836	
2940	0	32776	32702	
2941	0	32812	32764	
2942	0	32780	32744	
2943	0	32782	32750	
2944	0	32832	32807	
2945	0	32816	32842	
2946	0	32872	32807	
2947	0	32792	32775	
2948	0	32748	32743	
2949	0	32734	32738	
2950	0	32826	32775	
2951	0	32784	32670	
2952	0	32781	32774	
2953	0	32812	32752	
2954	0	32808	32775	
2955	0	32784	32702	
2956	0	32796	32774	
2957	0	32780	32758	
2958	0	32855	32788	
2959	0	32774	32734	
2960	0	32764	32892	
2961	0	32772	32760	
2962	0	32812	32718	
2963	0	32906	32754	
2964	0	32796	32727	
2965	0	32772	32666	
2966	0	32808	32758	
2967	0	32826	32766	
2968	0	32816	32792	
2969	0	32908	32652	
2970	0	32896	32792	
2971	0	32856	32814	
2972	0	32848	32864	
2973	0	32736	32646	
2974	0	32836	32806	
2975	0	32852	32766	
2976	0	32756	32846	
2977	0	32782	32732	
2978	0	32860	32718	
2979	0	32796	32815	
2980	0	32808	32723	
2981	0	32828	32814	
2982	0	32792	32679	
2983	0	32800	32738	
2984	0	32800	32748	
2985	0	32775	32832	
2986	0	32743	32746	
2987	0	32790	32716	
2988	0	32808	32830	
2989	0	32842	32818	
2990	0	32764	32812	
2991	0	32852	32756	
2992	0	32804	32760	
2993	0	32824	32806	
2994	0	32788	32872	
2995	0	32852	32743	
2996	0	32825	32788	
2997	0	32808	32814	
2998	0	32828	32766	
2999	0	32765	32794	
3000	0	32810	32769	
3001	0	32788	32882	
3002	0	32764	32720	
3003	0	32808	32775	
3004	0	32816	32806	
3005	0	32800	32740	
3006	0	32828	32874	
3007	0	32872	32684	
3008	0	32820	32738	
3009	0	32848	32828	
3010	0	32848	32900	
3011	0	32808	32702	
3012	0	32856	32823	
3013	0	32852	32740	
3014	0	32760	32820	
3015	0	32782	32647	
3016	0	32808	32774	
3017	0	32782	32686	
3018	0	32836	32788	
3019	0	32750	32762	
3020	0	32766	32724	
3021	0	32804	32798	
3022	0	32816	32807	
3023	0	32848	32790	
3024	0	32784	32636	
3025	0	32780	32826	
3026	0	32872	32775	
3027	0	32850	32791	
3028	0	32780	32704	
3029	0	32834	32828	
3030	0	32800	32775	
3031	0	32784	32808	
3032	0	32842	32710	
3033	0	32839	32692	
3034	0	32808	32810	
3035	0	32824	32775	
3036	0	32774	32744	
3037	0	32860	32708	
3038	0	32806	32756	
3039	0	32904	32788	
3040	0	32834	32804	
3041	0	32780	32775	
3042	0	32872	32836	
3043	0	32808	32775	
3044	0	32836	32702	
3045	0	32852	32775	
3046	0	32760	32742	
3047	0	32804	32908	
3048	0	32758	32817	
3049	0	32740	32775	
3050	0	32768	32870	
3051	0	32852	32810	
3052	0	32830	32743	
3053	0	32832	32804	
3054	0	32800	32730	
3055	0	32806	32917	
3056	0	32814	32775	
3057	0	32792	32732	
3058	0	32800	32753	
3059	0	32780	32868	
3060	0	32788	32679	
3061	0	32916	32836	
3062	0	32816	32764	
3063	0	32808	32714	
3064	0	32840	32791	
3065	0	32788	32694	
3066	0	32866	32743	
3067	0	32768	32714	
3068	0	32822	32820	
3069	0	32828	32604	
3070	0	32780	32790	
3071	0	32774	32828	
3072	0	32748	32696	
3073	0	32784	32700	
3074	0	32830	32616	
3075	0	32766	32774	
3076	0	32768	32710	
3077	0	32742	32704	
3078	0	32796	32807	
3079	0	32832	32852	
3080	0	32832	32775	
3081	0	32832	32806	
3082	0	32798	32750	
3083	0	32796	32846	
3084	0	32820	32740	
3085	0	32853	32794	
3086	0	32816	32812	
3087	0	32780	32766	
3088	0	32824	32775	
3089	0	32798	32807	
3090	0	32816	32830	
3091	0	32752	32754	
3092	0	32821	32712	
3093	0	32778	32793	
3094	0	32800	32656	
3095	0	32858	32704	
3096	0	32868	32734	
3097	0	32800	32871	
3098	0	32852	32732	
3099	0	32856	32742	
3100	0	32876	32762	
3101	0	32772	32694	
3102	0	32776	32724	
3103	0	32824	32750	
3104	0	32802	32807	
3105	0	32788	32794	
3106	0	32846	32743	
3107	0	32816	32815	
3108	0	32748	32822	
3109	0	32740	32764	
3110	0	32754	32788	
3111	0	32800	32900	
3112	0	32758	32804	
3113	0	32752	32790	
3114	0	32846	32698	
3115	0	32868	32760	
3116	0	32788	32708	
3117	0	32789	32816	
3118	0	32800	32724	
3119	0	32836	32656	
3120	0	32796	32790	
3121	0	32830	32796	
3122	0	32804	32798	
3123	0	32778	32746	
3124	0	32754	32672	
3125	0	32784	32728	
3126	0	32830	32750	
3127	0	32816	32806	
3128	0	32836	32775	
3129	0	32906	32826	
3130	0	32824	32756	
3131	0	32892	32790	
3132	0	32800	32638	
3133	0	32784	32734	
3134	0	32798	32772	
3135	0	32872	32860	
3136	0	32832	32732	
3137	0	32780	32675	
3138	0	32802	32808	
3139	0	32804	32768	
3140	0	32784	32804	
3141	0	32804	32772	
3142	0	32844	32782	
3143	0	32840	32756	
3144	0	32746	32772	
3145	0	32792	32718	
3146	0	32796	32780	
3147	0	32810	32830	
3148	0	32752	32718	
3149	0	32804	32852	
3150	0	32824	32671	
3151	0	32844	32750	
3152	0	32836	32775	
3153	0	32844	32852	
3154	0	32868	32732	
3155	0	32832	32727	
3156	0	32820	32713	
3157	0	32789	32839	
3158	0	32772	32748	
3159	0	32831	32838	
3160	0	32768	32727	
3161	0	32800	32730	
3162	0	32860	32828	
3163	0	32778	32775	
3164	0	32862	32820	
3165	0	32864	32800	
3166	0	32884	32682	
3167	0	32840	32660	
3168	0	32780	32828	
3169	0	32812	32799	
3170	0	32774	32706	
3171	0	32820	32852	
3172	0	32756	32807	
3173	0	32852	32686	
3174	0	32800	32838	
3175	0	32796	32768	
3176	0	32720	32678	
3177	0	32828	32798	
3178	0	32792	32798	
3179	0	32794	32678	
3180	0	32804	32751	
3181	0	32818	32674	
3182	0	32826	32724	
3183	0	32792	32722	
3184	0	32804	32694	
3185	0	32868	32712	
3186	0	32770	32794	
3187	0	32872	32740	
3188	0	32872	32833	
3189	0	32816	32775	
3190	0	32786	32664	
3191	0	32752	32848	
3192	0	32810	32775	
3193	0	32846	32922	
3194	0	32776	32740	
3195	0	32844	32775	
3196	0	32810	32775	
3197	0	32792	32839	
3198	0	32844	32708	
3199	0	32844	32812	
3200	0	32837	32788	
3201	0	32816	32730	
3202	0	32842	32786	
3203	0	32832	32854	
3204	0	32840	32618	
3205	0	32864	32759	
3206	0	32804	32716	
3207	0	32852	32718	
3208	0	32832	32775	
3209	0	32834	32726	
3210	0	32876	32726	
3211	0	32906	32628	
3212	0	32928	32614	
3213	0	32844	32588	
3214	0	32879	32454	
3215	0	32845	32512	
3216	0	32840	32590	
3217	0	32840	32464	
3218	0	32800	32519	
3219	0	32780	32474	
3220	0	32820	32609	
3221	0	32840	32463	
3222	0	32796	32566	
3223	0	32744	32508	
3224	0	32776	32583	
3225	0	32852	32602	
3226	0	32808	32775	
3227	0	32760	32798	
3228	0	32804	32881	
3229	0	32748	33030	
3230	0	32730	33216	
3231	0	32708	33228	
3232	0	32616	33492	
3233	0	32624	33458	
3234	0	32558	33556	
3235	0	32596	33500	
3236	0	32648	33656	
3237	0	32612	33472	
3238	0	32712	33510	
3239	0	32640	33258	
3240	0	32672	33248	
3241	0	32856	33016	
3242	0	32792	32700	
3243	0	32808	32655	
3244	0	32872	32542	
3245	0	32850	32376	
3246	0	32852	32440	
3247	0	32885	32300	
3248	0	32948	32263	
3249	0	32924	32426	
3250	0	32952	32430	
3251	0	32916	32362	
3252	0	32940	32442	
3253	0	32870	32476	
3254	0	32878	32422	
3255	0	32884	32550	
3256	0	32868	32560	
3257	0	32804	32564	
3258	0	32934	32647	
3259	0	32926	32670	
3260	0	32894	32748	
3261	0	32936	32742	
3262	0	32900	32823	
3263	0	32874	32676	
3264	0	32876	32800	
3265	0	32914	32860	
3266	0	32906	32710	
3267	0	32856	32804	
3268	0	32880	32834	
3269	0	32920	32686	
3270	0	32864	32820	
3271	0	32800	32800	
3272	0	32761	32674	
3273	0	32828	32871	
3274	0	32784	32836	
3275	0	32734	32770	
3276	0	32758	32660	
3277	0	32752	32818	
3278	0	32772	32808	
3279	0	32752	32772	
3280	0	32750	32858	
3281	0	32778	32830	
3282	0	32794	32748	
3283	0	32792	32704	
3284	0	32816	32855	
3285	0	32784	32847	
3286	0	32816	32744	
3287	0	32836	32718	
3288	0	32752	32752	
3289	0	32748	32725	
3290	0	32836	32734	
3291	0	32788	32802	
3292	0	32878	32792	
3293	0	32784	32659	
3294	0	32860	32736	
3295	0	32756	32794	
3296	0	32775	32714	
3297	0	32758	32774	
3298	0	32830	32758	
3299	0	32782	32824	
3300	0	32926	32732	
3301	0	32768	32759	
3302	0	32822	32818	
3303	0	32868	32726	
3304	0	32788	32708	
3305	0	32824	32766	
3306	0	32842	32766	
3307	0	32780	32703	
3308	0	32832	32823	
3309	0	32800	32870	
3310	0	32790	32696	
3311	0	32796	32796	
3312	0	32772	32775	
3313	0	32812	32806	
3314	0	32808	32736	
3315	0	32720	32802	
3316	0	32808	32726	
3317	0	32812	32796	
3318	0	32836	32682	
3319	0	32831	32774	
3320	0	32816	32690	
3321	0	32824	32798	
3322	0	32812	32694	
3323	0	32780	32768	
3324	0	32806	32838	
3325	0	32816	32710	
3326	0	32836	32824	
3327	0	32848	32764	
3328	0	32856	32716	
3329	0	32855	32854	
3330	0	32752	32806	
3331	0	32844	32870	
3332	0	32800	32812	
3333	0	32786	32796	
3334	0	32816	32724	
3335	0	32816	32775	
3336	0	32788	32852	
3337	0	32762	32775	
3338	0	32788	32856	
3339	0	32788	32810	
3340	0	32804	32812	
3341	0	32844	32660	
3342	0	32828	32832	
3343	0	32834	32719	
3344	0	32808	32839	
3345	0	32832	32700	
3346	0	32744	32766	
3347	0	32790	32740	
3348	0	32848	32820	
3349	0	32806	32658	
3350	0	32852	32746	
3351	0	32848	32808	
3352	0	32834	32700	
3353	0	32840	32882	
3354	0	32864	32775	
3355	0	32824	32775	
3356	0	32832	32775	
3357	0	32837	32766	
3358	0	32876	32816	
3359	0	32816	32919	
3360	0	32784	32788	
3361	0	32784	32678	
3362	0	32772	32858	
3363	0	32774	32715	
3364	0	32746	32606	
3365	0	32784	32804	
3366	0	32784	32728	
3367	0	32772	32654	
3368	0	32800	32714	
3369	0	32808	32743	
3370	0	32836	32796	
3371	0	32904	32743	
3372	0	32824	32758	
3373	0	32790	32816	
3374	0	32814	32647	
3375	0	32806	32742	
3376	0	32788	32822	
3377	0	32784	32743	
3378	0	32792	32846	
3379	0	32780	32818	
3380	0	32812	32834	
3381	0	32830	32862	
3382	0	32804	32805	
3383	0	32884	32700	
3384	0	32820	32752	
3385	0	32858	32686	
3386	0	32792	32783	
3387	0	32824	32714	
3388	0	32876	32770	
3389	0	32828	32736	
3390	0	32768	32684	
3391	0	32772	32807	
3392	0	32800	32791	
3393	0	32816	32775	
3394	0	32775	32726	
3395	0	32744	32826	
3396	0	32832	32810	
3397	0	32905	32752	
3398	0	32844	32860	
3399	0	32804	32812	
3400	0	32834	32740	
3401	0	32804	32756	
3402	0	32744	32737	
3403	0	32738	32808	
3404	0	32844	32720	
3405	0	32796	32854	
3406	0	32756	32732	
3407	0	32814	32814	
3408	0	32832	32704	
3409	0	32812	32814	
3410	0	32852	32774	
3411	0	32794	32870	
3412	0	32700	32696	
3413	0	32740	32816	
3414	0	33012	32774	
3415	0	32920	32748	
3416	0	32772	32814	
3417	0	32772	32716	
3418	0	32832	32868	
3419	0	32796	32794	
3420	0	32808	32674	
3421	0	32796	32712	
3422	0	32718	32762	
3423	0	32646	32584	
3424	0	32894	32732	
3425	0	32936	32852	
3426	0	32906	32674	
3427	0	32892	32788	
3428	0	32826	32714	
3429	0	32792	32738	
3430	0	32788	32826	
3431	0	32800	32890	
3432	0	32768	32764	
3433	0	32824	32812	
3434	0	32818	32708	
3435	0	32820	32882	
3436	0	32828	32764	
3437	0	32928	32726	
3438	0	32888	32754	
3439	0	32800	32766	
3440	0	32774	32743	
3441	0	32796	32774	
3442	0	32800	32714	
3443	0	32836	32727	
3444	0	32824	32710	
3445	0	32832	32854	
3446	0	32788	32699	
3447	0	32800	32684	
3448	0	32804	32766	
3449	0	32732	32823	
3450	0	32752	32726	
3451	0	32778	32756	
3452	0	32764	32810	
3453	0	32774	32702	
3454	0	32800	32848	
3455	0	32816	32839	
3456	0	32842	32679	
3457	0	32796	32714	
3458	0	32780	32660	
3459	0	32804	32775	
3460	0	32808	32822	
3461	0	32821	32742	
3462	0	32814	32752	
3463	0	32838	32832	
3464	0	32888	32839	
3465	0	32824	32804	
3466	0	32870	32851	
3467	0	32814	32740	
3468	0	32728	32836	
3469	0	32864	32839	
3470	0	32744	32738	
3471	0	32768	32772	
3472	0	32726	32903	
3473	0	32734	32812	
3474	0	32724	32772	
3475	0	32652	32706	
3476	0	32904	32823	
3477	0	32936	32820	
3478	0	32862	32760	
3479	0	32796	32858	
3480	0	32760	32874	
3481	0	32798	32726	
3482	0	32752	32831	
3483	0	32840	32814	
3484	0	32800	32908	
3485	0	32840	32728	
3486	0	32832	32820	
3487	0	32832	32799	
3488	0	32744	32730	
3489	0	32908	32792	
3490	0	32848	32671	
3491	0	32604	32836	
3492	0	32760	32708	
3493	0	32752	32756	
3494	0	32924	32636	
3495	0	32956	32740	
3496	0	32816	32714	
3497	0	32800	32708	
3498	0	32792	32775	
3499	0	32780	32772	
3500	0	32768	32679	
3501	0	32821	32732	
3502	0	32808	32746	
3503	0	32854	32775	
3504	0	32724	32708	
3505	0	32812	32832	
3506	0	32775	32663	
3507	0	32820	32748	
3508	0	32748	32834	
3509	0	32800	32775	
3510	0	32772	32848	
3511	0	32736	32740	
3512	0	32908	32798	
3513	0	32988	32794	
3514	0	32814	32743	
3515	0	32752	32785	
3516	0	32788	32790	
3517	0	32684	32724	
3518	0	32852	32796	
3519	0	33112	32775	
3520	0	33024	32636	
3521	0	32756	32748	
3522	0	32768	32752	
3523	0	32820	32759	
3524	0	32778	32758	
3525	0	32804	32807	
3526	0	32823	32696	
3527	0	32812	32775	
3528	0	32688	32726	
3529	0	32849	32636	
3530	0	32814	32711	
3531	0	32660	32775	
3532	0	32800	32700	
3533	0	32984	32748	
3534	0	32968	32754	
3535	0	32904	32802	
3536	0	32878	32937	
3537	0	32864	32837	
3538	0	32816	32722	
3539	0	32810	32892	
3540	0	32796	32708	
3541	0	32816	32858	
3542	0	32786	32835	
3543	0	32760	32802	
3544	0	32656	32876	
3545	0	32948	32644	
3546	0	32876	32714	
3547	0	32804	32752	
3548	0	32852	32790	
3549	0	32784	32627	
3550	0	32788	32722	
3551	0	32714	32774	
3552	0	32742	32608	
3553	0	32772	32652	
3554	0	32752	32710	
3555	0	32844	32828	
3556	0	32906	32810	
3557	0	32740	32816	
3558	0	32862	32791	
3559	0	32800	32699	
3560	0	32865	32815	
3561	0	32894	32728	
3562	0	32904	32623	
3563	0	32728	32638	
3564	0	32893	32714	
3565	0	32792	32836	
3566	0	32782	32743	
3567	0	32752	32814	
3568	0	32872	32842	
3569	0	32816	32816	
3570	0	32774	32836	
3571	0	32780	32754	
3572	0	32808	32735	
3573	0	32752	32854	
3574	0	32816	32850	
3575	0	32852	32753	
3576	0	32728	32732	
3577	0	32832	32870	
3578	0	32792	32748	
3579	0	32805	32682	
3580	0	32840	32817	
3581	0	32826	32736	
3582	0	32834	32884	
3583	0	32856	32680	
3584	0	32812	32828	
3585	0	32784	32703	
3586	0	32912	32698	
3587	0	32872	32668	
3588	0	32788	32832	
3589	0	32816	32808	
3590	0	32770	32714	
3591	0	32728	32796	
3592	0	32800	32684	
3593	0	32728	32770	
3594	0	32810	32740	
3595	0	32764	32714	
3596	0	32790	32822	
3597	0	32960	32876	
3598	0	32838	32628	
3599	0	32878	32698	
3600	0	32868	32858	
3601	0	32740	32782	
3602	0	32864	32696	
3603	0	32834	32726	
3604	0	32948	32912	
3605	0	32996	32791	
3606	0	32828	32792	
3607	0	32772	32728	
3608	0	32722	32772	
3609	0	32702	32874	
3610	0	32670	32852	
3611	0	32732	32794	
3612	0	32864	32775	
3613	0	32862	32856	
3614	0	32702	32792	
3615	0	32772	32684	
3616	0	32923	32774	
3617	0	32684	32838	
3618	0	32800	32775	
3619	0	33174	32716	
3620	0	32868	32743	
3621	0	32770	32768	
3622	0	32837	32770	
3623	0	32618	32635	
3624	0	32660	32583	
3625	0	32892	32768	
3626	0	32708	32734	
3627	0	32756	32736	
3628	0	32930	32652	
3629	0	32802	32814	
3630	0	32764	32844	
3631	0	32740	32738	
3632	0	32784	32775	
3633	0	32744	32871	
3634	0	32812	32824	
3635	0	32852	32767	
3636	0	32804	32818	
3637	0	32892	32774	
3638	0	32952	32788	
3639	0	32794	32828	
3640	0	32740	32711	
3641	0	32750	32808	
3642	0	32736	32775	
3643	0	32822	32674	
3644	0	32704	32740	
3645	0	32800	32775	
3646	0	32910	32740	
3647	0	32820	32676	
3648	0	32808	32634	
3649	0	32852	32802	
3650	0	32860	32786	
3651	0	32791	32666	
3652	0	32802	32786	
3653	0	32784	32825	
3654	0	32764	32726	
3655	0	32870	32736	
3656	0	32900	32766	
3657	0	32788	32767	
3658	0	32855	32696	
3659	0	32830	32726	
3660	0	32706	32816	
3661	0	32668	32756	
3662	0	32834	32704	
3663	0	32938	32856	
3664	0	32784	32853	
3665	0	32740	32668	
3666	0	32840	32876	
3667	0	32720	32828	
3668	0	32796	32772	
3669	0	32876	32780	
3670	0	32632	32838	
3671	0	32912	32800	
3672	0	32884	32806	
3673	0	32858	32782	
3674	0	32760	32793	
3675	0	32812	32710	
3676	0	32824	32796	
3677	0	32740	32792	
3678	0	32808	32772	
3679	0	32738	32830	
3680	0	32788	32759	
3681	0	32650	32724	
3682	0	32738	32849	
3683	0	33216	32762	
3684	0	32768	32828	
3685	0	33045	32808	
3686	0	32792	32692	
3687	0	32958	32768	
3688	0	32808	32694	
3689	0	32744	32836	
3690	0	32706	32664	
3691	0	32788	32674	
3692	0	32756	32740	
3693	0	32788	32740	
3694	0	32820	32718	
3695	0	32712	32519	
3696	0	32764	32754	
3697	0	32866	32832	
3698	0	32876	32798	
3699	0	32746	32884	
3700	0	32798	32881	
3701	0	32990	32800	
3702	0	32836	32728	
3703	0	32768	32858	
3704	0	32760	32874	
3705	0	32756	32830	
3706	0	32728	32839	
3707	0	32736	32743	
3708	0	32774	32788	
3709	0	32762	32721	
3710	0	32800	32828	
3711	0	32848	32790	
3712	0	32802	32775	
3713	0	32832	32708	
3714	0	32784	32666	
3715	0	33000	32774	
3716	0	32912	32865	
3717	0	32792	32766	
3718	0	32834	32788	
3719	0	32784	32816	
3720	0	32802	32804	
3721	0	32766	32848	
3722	0	32732	32750	
3723	0	32730	32728	
3724	0	32736	32866	
3725	0	33036	32844	
3726	0	32898	32708	
3727	0	32840	32718	
3728	0	32784	32629	
3729	0	32792	32820	
3730	0	32880	32825	
3731	0	32988	32800	
3732	0	32886	32840	
3733	0	32836	32644	
3734	0	32820	32698	
3735	0	32812	32689	
3736	0	32808	32800	
3737	0	32802	32714	
3738	0	32792	32887	
3739	0	32744	32784	
3740	0	32844	32766	
3741	0	32810	32612	
3742	0	32682	32644	
3743	0	32948	32672	
3744	0	32894	32759	
3745	0	32848	32754	
3746	0	32896	32692	
3747	0	32884	32918	
3748	0	33056	32838	
3749	0	32668	32867	
3750	0	32816	32724	
3751	0	32834	32740	
3752	0	32676	32764	
3753	0	32746	32775	
3754	0	32744	32622	
3755	0	32762	32792	
3756	0	32780	32724	
3757	0	32756	32846	
3758	0	32888	32688	
3759	0	32746	32698	
3760	0	32986	32752	
3761	0	32868	32766	
3762	0	32430	32604	
3763	0	32844	32772	
3764	0	32960	32863	
3765	0	32800	32766	
3766	0	32736	32714	
3767	0	32516	32846	
3768	0	32912	32798	
3769	0	32724	32792	
3770	0	32760	32745	
3771	0	32704	32793	
3772	0	32746	32730	
3773	0	32864	32816	
3774	0	32914	32748	
3775	0	32848	32902	
3776	0	32900	32799	
3777	0	32884	32786	
3778	0	32766	32821	
3779	0	32764	32858	
3780	0	32800	32801	
3781	0	32732	32766	
3782	0	32752	32703	
3783	0	32840	32847	
3784	0	32826	32692	
3785	0	32784	32660	
3786	0	32740	32713	
3787	0	32960	32702	
3788	0	32862	32645	
3789	0	32826	32794	
3790	0	32810	32828	
3791	0	32821	32756	
3792	0	32640	32714	
3793	0	32788	32884	
3794	0	32828	32854	
3795	0	32830	32680	
3796	0	32744	32871	
3797	0	32836	32910	
3798	0	32828	32751	
3799	0	32890	32798	
3800	0	32712	32812	
3801	0	32776	32698	
3802	0	32874	32812	
3803	0	32856	32775	
3804	0	32744	32824	
3805	0	32960	32628	
3806	0	32840	32748	
3807	0	32832	32734	
3808	0	32756	32792	
3809	0	32760	32743	
3810	0	32728	32696	
3811	0	32790	32808	
3812	0	32748	32725	
3813	0	32830	32839	
3814	0	32932	32628	
3815	0	33052	32775	
3816	0	32801	32724	
3817	0	32876	32790	
3818	0	33112	32742	
3819	0	32908	32900	
3820	0	32840	32753	
3821	0	32792	32860	
3822	0	32756	32807	
3823	0	32754	32703	
3824	0	32788	32775	
3825	0	32824	32792	
3826	0	32736	32868	
3827	0	32816	32724	
3828	0	32756	32892	
3829	0	32660	32658	
3830	0	32609	32668	
3831	0	32596	32514	
3832	0	32884	32726	
3833	0	32922	32698	
3834	0	32872	32844	
3835	0	33076	32766	
3836	0	32924	32804	
3837	0	32508	32830	
3838	0	32808	32934	
3839	0	32922	32864	
3840	0	33092	32916	
3841	0	32916	32775	
3842	0	32804	32724	
3843	0	32836	32807	
3844	0	33048	32676	
3845	0	32612	32832	
3846	0	32783	32784	
3847	0	33092	32639	
3848	0	32774	32742	
3849	0	32712	32774	
3850	0	32778	32748	
3851	0	32780	32775	
3852	0	32748	32775	
3853	0	32758	32808	
3854	0	32648	32700	
3855	0	32586	32718	
3856	0	32636	32606	
3857	0	32564	32706	
3858	0	32566	32684	
3859	0	32752	32734	
3860	0	32586	32762	
3861	0	32580	32818	
3862	0	32836	32796	
3863	0	32892	32830	
3864	0	32904	32775	
3865	0	32872	32751	
3866	0	32910	32732	
3867	0	32880	32846	
3868	0	32936	32775	
3869	0	32902	32836	
3870	0	32904	32748	
3871	0	33000	32724	
3872	0	32908	32878	
3873	0	32944	32918	
3874	0	32888	32727	
3875	0	32868	32835	
3876	0	32856	32782	
3877	0	33008	32623	
3878	0	33140	32718	
3879	0	32744	32636	
3880	0	32892	32494	
3881	0	32876	32514	
3882	0	32864	32486	
3883	0	32848	32550	
3884	0	32816	32546	
3885	0	32872	32510	
3886	0	32844	32332	
3887	0	32872	32455	
3888	0	32868	32551	
3889	0	32860	32497	
3890	0	32732	32508	
3891	0	32790	32590	
3892	0	32904	32580	
3893	0	32804	32804	
3894	0	32738	32852	
3895	0	32758	32756	
3896	0	32744	32896	
3897	0	32752	33126	
3898	0	32624	33208	
3899	0	32468	33440	
3900	0	32820	33474	
3901	0	32368	33642	
3902	0	32564	33667	
3903	0	32450	33650	
3904	0	32642	33540	
3905	0	32600	33597	
3906	0	32586	33592	
3907	0	32688	33287	
3908	0	32692	33017	
3909	0	32853	32750	
3910	0	32774	32590	
3911	0	33120	32544	
3912	0	33036	32442	
3913	0	32804	32406	
3914	0	33028	32324	
3915	0	32872	32324	
3916	0	32868	32364	
3917	0	32892	32462	
3918	0	32788	32362	
3919	0	32896	32412	
3920	0	32944	32352	
3921	0	32916	32519	
3922	0	32866	32538	
3923	0	32780	32564	
3924	0	32804	32391	
3925	0	32756	32490	
3926	0	32792	32628	
3927	0	32872	32705	
3928	0	32838	32762	
3929	0	32884	32943	
3930	0	32840	32710	
3931	0	32960	32662	
3932	0	32876	32868	
3933	0	33156	32990	
3934	0	33028	32812	
3935	0	33004	32775	
3936	0	33058	32812	
3937	0	32992	32984	
3938	0	32878	32864	
3939	0	32886	32844	
3940	0	32788	32769	
3941	0	32908	32644	
3942	0	32672	32798	
3943	0	32528	32769	
3944	0	32506	32655	
3945	0	32446	32832	
3946	0	32440	32770	
3947	0	32528	32655	
3948	0	32644	32810	
3949	0	32644	32808	
3950	0	32812	32871	
3951	0	32872	32693	
3952	0	32888	32846	
3953	0	32836	32834	
3954	0	32904	32614	
3955	0	32952	32686	
3956	0	32870	32756	
3957	0	32848	32718	
3958	0	32764	32743	
3959	0	32770	32746	
3960	0	32968	32706	
3961	0	32888	32756	
3962	0	32764	32828	
3963	0	32696	32824	
3964	0	32680	32775	
3965	0	32832	32892	
3966	0	32832	32862	
3967	0	32834	32720	
3968	0	32808	32774	
3969	0	32908	32666	
3970	0	32988	32692	
3971	0	33086	32620	
3972	0	32756	32770	
3973	0	32852	32730	
3974	0	32852	32750	
3975	0	32928	32908	
3976	0	32968	32884	
3977	0	32432	32763	
3978	0	32708	32775	
3979	0	32460	32662	
3980	0	32912	32670	
3981	0	32864	32644	
3982	0	32758	32918	
3983	0	32775	32812	
3984	0	32778	32858	
3985	0	32792	32756	
3986	0	32748	32677	
3987	0	32748	32753	
3988	0	32782	32819	
3989	0	32798	32788	
3990	0	32756	32730	
3991	0	32888	32788	
3992	0	32764	32742	
3993	0	32960	32719	
3994	0	32752	32762	
3995	0	32916	32770	
3996	0	32880	32762	
3997	0	32869	32675	
3998	0	32898	32844	
3999	0	32810	32802	
4000	0	32744	32711	
4001	0	32676	32820	
4002	0	32660	32804	
4003	0	32748	32692	
4004	0	32784	32775	
4005	0	32922	32775	
4006	0	32958	32817	
4007	0	32958	32826	
4008	0	32788	32668	
4009	0	32900	32842	
4010	0	32746	32674	
4011	0	32960	32811	
4012	0	33088	32604	
4013	0	33010	32679	
4014	0	32744	32664	
4015	0	32918	32836	
4016	0	32876	32752	
4017	0	32780	32775	
4018	0	32772	32836	
4019	0	32836	33000	
4020	0	32446	32830	
4021	0	32632	32709	
4022	0	32696	32808	
4023	0	32750	32796	
4024	0	32782	32812	
4025	0	32998	32726	
4026	0	32680	32766	
4027	0	32744	32796	
4028	0	32868	32636	
4029	0	33052	32718	
4030	0	32818	32718	
4031	0	32792	32630	
4032	0	32804	32686	
4033	0	32738	32566	
4034	0	32772	32752	
4035	0	32786	32752	
4036	0	32822	32740	
4037	0	32816	32897	
4038	0	32844	32838	
4039	0	32844	32839	
4040	0	32862	32669	
4041	0	32854	32834	
4042	0	32748	32738	
4043	0	32848	32770	
4044	0	32816	32980	
4045	0	32790	32934	
4046	0	32820	32879	
4047	0	32890	32775	
4048	0	32788	32775	
4049	0	32858	32786	
4050	0	32840	32628	
4051	0	32804	32642	
4052	0	32852	32756	
4053	0	32908	32706	
4054	0	32816	32775	
4055	0	32768	32926	
4056	0	32736	32674	
4057	0	32810	32708	
4058	0	32682	32726	
4059	0	32656	32628	
4060	0	32900	32758	
4061	0	32888	32751	
4062	0	32792	32770	
4063	0	32820	32607	
4064	0	32828	32758	
4065	0	32846	32775	
4066	0	32814	32760	
4067	0	32732	32796	
4068	0	32982	32836	
4069	0	32952	32764	
4070	0	32826	32822	
4071	0	32956	32847	
4072	0	33186	32768	
4073	0	32568	32828	
4074	0	32830	32886	
4075	0	32772	32711	
4076	0	32860	32903	
4077	0	32728	32892	
4078	0	32628	32762	
4079	0	32816	32856	
4080	0	32908	32684	
4081	0	32890	32759	
4082	0	32760	32842	
4083	0	32816	32742	
4084	0	32789	32593	
4085	0	32784	32618	
4086	0	33024	32760	
4087	0	32840	32752	
4088	0	32784	32746	
4089	0	32802	32732	
4090	0	32780	32718	
4091	0	32812	32724	
4092	0	32966	32820	
4093	0	32354	32708	
4094	0	32706	32737	
4095	0	32694	32762	
4096	0	32662	32806	
4097	0	32820	32820	
4098	0	32816	32696	
4099	0	32838	32752	
4100	0	32864	32718	
4101	0	32844	32766	
4102	0	33032	32798	
4103	0	32876	32752	
4104	0	32984	32764	
4105	0	32952	32948	
4106	0	32882	32768	
4107	0	32832	32800	
4108	0	32904	32896	
4109	0	32964	32812	
4110	0	33000	32856	
4111	0	32868	32644	
4112	0	32860	32748	
4113	0	32746	32766	
4114	0	32586	32816	
4115	0	32800	32694	
4116	0	32775	32828	
4117	0	32769	32752	
4118	0	32720	32753	
4119	0	32662	32764	
4120	0	32630	32700	
4121	0	32652	32820	
4122	0	32759	32746	
4123	0	32752	32871	
4124	0	32784	32815	
4125	0	32714	32799	
4126	0	32888	32668	
4127	0	32812	32794	
4128	0	32758	32730	
4129	0	32752	32692	
4130	0	32716	32824	
4131	0	32680	32680	
4132	0	32768	32648	
4133	0	32718	32718	
4134	0	32850	32688	
4135	0	32762	32654	
4136	0	32902	32764	
4137	0	32865	32864	
4138	0	32960	32860	
4139	0	32880	32761	
4140	0	32832	32796	
4141	0	33084	32802	
4142	0	33056	32712	
4143	0	32966	32822	
4144	0	32876	32832	
4145	0	32804	32757	
4146	0	32820	32868	
4147	0	32768	32724	
4148	0	32736	32760	
4149	0	32800	32818	
4150	0	32732	32830	
4151	0	32756	32775	
4152	0	32508	32688	
4153	0	32752	32832	
4154	0	32842	32815	
4155	0	32862	32710	
4156	0	32760	32934	
4157	0	32788	32864	
4158	0	32756	32768	
4159	0	32792	32820	
4160	0	32796	32768	
4161	0	32916	32742	
4162	0	32910	32592	
4163	0	32832	32678	
4164	0	32848	32832	
4165	0	32986	32903	
4166	0	32824	32711	
4167	0	32772	32840	
4168	0	32976	32514	
4169	0	32834	32769	
4170	0	32822	32752	
4171	0	32738	32804	
4172	0	32604	32680	
4173	0	32616	32688	
4174	0	32648	32706	
4175	0	32885	32675	
4176	0	33098	32788	
4177	0	32744	32686	
4178	0	32606	32708	
4179	0	32876	32690	
4180	0	32988	32751	
4181	0	33084	32720	
4182	0	33048	32740	
4183	0	32936	32842	
4184	0	32869	32771	
4185	0	32904	32730	
4186	0	32896	32832	
4187	0	32688	32844	
4188	0	32552	32870	
4189	0	32388	32775	
4190	0	32418	32810	
4191	0	32484	32750	
4192	0	32664	32814	
4193	0	32806	32722	
4194	0	32784	32862	
4195	0	32876	32900	
4196	0	32960	32832	
4197	0	32898	32746	
4198	0	32884	32839	
4199	0	32900	32734	
4200	0	32944	32670	
4201	0	32936	32628	
4202	0	32884	32772	
4203	0	32800	32676	
4204	0	32758	32775	
4205	0	32722	32662	
4206	0	32808	32756	
4207	0	32810	32700	
4208	0	32869	32824	
4209	0	32778	32711	
4210	0	32820	32806	
4211	0	32782	32812	
4212	0	32832	32772	
4213	0	32896	32583	
4214	0	32850	32903	
4215	0	32881	32876	
4216	0	32860	32716	
4217	0	32786	32796	
4218	0	32720	32798	
4219	0	32860	32804	
4220	0	33000	32798	
4221	0	32938	32775	
4222	0	32856	32682	
4223	0	32820	32570	
4224	0	32840	32768	
4225	0	32812	32716	
4226	0	32828	32666	
4227	0	32720	32586	
4228	0	32846	32762	
4229	0	32780	32716	
4230	0	32600	32580	
4231	0	32740	32700	
4232	0	32748	32800	
4233	0	32789	32736	
4234	0	32736	32834	
4235	0	32710	32769	
4236	0	32792	32756	
4237	0	32808	32916	
4238	0	32888	32888	
4239	0	32769	32938	
4240	0	32876	32722	
4241	0	32894	32814	
4242	0	32832	32740	
4243	0	32832	32862	
4244	0	32824	32855	
4245	0	32884	32794	
4246	0	32888	32794	
4247	0	32850	32838	
4248	0	32884	32644	
4249	0	32928	32559	
4250	0	32884	32865	
4251	0	32697	32774	
4252	0	32756	32712	
4253	0	32766	32690	
4254	0	32776	32810	
4255	0	32772	32744	
4256	0	32756	32711	
4257	0	32796	32740	
4258	0	32764	32750	
4259	0	32696	32839	
4260	0	32752	32775	
4261	0	32794	32817	
4262	0	32760	32664	
4263	0	32764	32775	
4264	0	32724	32760	
4265	0	32750	32742	
4266	0	32888	32822	
4267	0	32868	32775	
4268	0	33046	32710	
4269	0	32852	32718	
4270	0	32900	32805	
4271	0	32929	32670	
4272	0	32898	32721	
4273	0	32822	32801	
4274	0	33180	32840	
4275	0	33164	32850	
4276	0	33072	32805	
4277	0	32824	32728	
4278	0	32784	32810	
4279	0	32888	32798	
4280	0	32544	32762	
4281	0	32716	32758	
4282	0	32620	32646	
4283	0	32612	32810	
4284	0	32628	32806	
4285	0	32702	32818	
4286	0	32792	32706	
4287	0	32340	32750	
4288	0	32632	32719	
4289	0	32836	32816	
4290	0	32984	32683	
4291	0	32992	32846	
4292	0	32916	32814	
4293	0	32788	32742	
4294	0	32852	32863	
4295	0	32700	32772	
4296	0	32766	33041	
4297	0	32806	32800	
4298	0	32944	32823	
4299	0	32956	32756	
4300	0	32960	32732	
4301	0	32964	32862	
4302	0	32980	32754	
4303	0	32925	32836	
4304	0	32940	32700	
4305	0	32852	32822	
4306	0	32686	32880	
4307	0	32642	32704	
4308	0	32650	32614	
4309	0	32612	32750	
4310	0	32464	32636	
4311	0	32512	32711	
4312	0	32661	32572	
4313	0	32744	32636	
4314	0	33144	32720	
4315	0	33109	32684	
4316	0	32924	32632	
4317	0	33018	32743	
4318	0	33060	32832	
4319	0	33105	32908	
4320	0	32934	32734	
4321	0	33042	32826	
4322	0	33020	32810	
4323	0	32872	32741	
4324	0	32832	32788	
4325	0	32700	32924	
4326	0	32624	32881	
4327	0	32580	32712	
4328	0	32656	32759	
4329	0	32772	32678	
4330	0	32804	32868	
4331	0	32658	32724	
4332	0	32648	32843	
4333	0	32628	32991	
4334	0	32592	32751	
4335	0	32609	32839	
4336	0	32512	32754	
4337	0	32512	32702	
4338	0	32556	32726	
4339	0	32732	32774	
4340	0	32756	32594	
4341	0	32854	32634	
4342	0	32956	32622	
4343	0	32918	32634	
4344	0	32864	32687	
4345	0	32941	32658	
4346	0	32804	32746	
4347	0	32768	32786	
4348	0	32796	32740	
4349	0	32736	32858	
4350	0	32852	32855	
4351	0	32934	32820	
4352	0	32972	32775	
4353	0	32990	32870	
4354	0	32944	32838	
4355	0	32988	32674	
4356	0	32934	32812	
4357	0	32924	32740	
4358	0	32908	32881	
4359	0	32924	32782	
4360	0	33068	32775	
4361	0	33098	32746	
4362	0	32940	32804	
4363	0	32892	32788	
4364	0	32808	32734	
4365	0	32740	32818	
4366	0	32784	32748	
4367	0	32652	32678	
4368	0	32732	32871	
4369	0	32680	32800	
4370	0	32668	32793	
4371	0	32808	32767	
4372	0	32782	32648	
4373	0	32692	32831	
4374	0	32860	32764	
4375	0	32860	32788	
4376	0	32808	32683	
4377	0	32944	32742	
4378	0	32924	32804	
4379	0	32816	32711	
4380	0	32728	32775	
4381	0	32736	32868	
4382	0	32968	32754	
4383	0	32906	32744	
4384	0	32964	32876	
4385	0	32490	32786	
4386	0	33284	32802	
4387	0	32896	32672	
4388	0	32656	32625	
4389	0	32602	32528	
4390	0	32509	32622	
4391	0	32560	32608	
4392	0	32566	32730	
4393	0	32630	32758	
4394	0	32724	32647	
4395	0	32908	32696	
4396	0	32760	32804	
4397	0	32758	32886	
4398	0	32744	32826	
4399	0	32884	32774	
4400	0	33057	32924	
4401	0	32996	32798	
4402	0	33024	32938	
4403	0	33080	33080	
4404	0	33128	32698	
4405	0	32940	32825	
4406	0	32640	32887	
4407	0	32528	32644	
4408	0	32360	32680	
4409	0	32208	32710	
4410	0	32460	32782	
4411	0	32576	32848	
4412	0	32538	32748	
4413	0	32504	32678	
4414	0	32678	32734	
4415	0	32750	32703	
4416	0	32980	32812	
4417	0	33110	32768	
4418	0	33176	32844	
4419	0	33172	32822	
4420	0	33144	32822	
4421	0	32998	32860	
4422	0	32924	32834	
4423	0	32900	32736	
4424	0	32836	32766	
4425	0	32850	32904	
4426	0	32784	32823	
4427	0	32952	32695	
4428	0	33014	32870	
4429	0	32954	32766	
4430	0	32866	32555	
4431	0	32836	32681	
4432	0	32816	32734	
4433	0	32804	32698	
4434	0	32596	32772	
4435	0	32544	32775	
4436	0	32404	32784	
4437	0	32436	32784	
4438	0	32538	32712	
4439	0	32776	32807	
4440	0	32884	32818	
4441	0	32974	32774	
4442	0	33012	32744	
4443	0	33034	32762	
4444	0	33076	32818	
4445	0	32944	32775	
4446	0	32932	32775	
4447	0	32898	32758	
4448	0	32884	32749	
4449	0	32945	32775	
4450	0	32742	32740	
4451	0	32604	32868	
4452	0	32590	32700	
4453	0	32684	32876	
4454	0	32724	32752	
4455	0	32736	32788	
4456	0	32724	32714	
4457	0	32758	32732	
4458	0	32848	32865	
4459	0	32836	32868	
4460	0	33080	32614	
4461	0	33144	32774	
4462	0	32940	32788	
4463	0	32926	32698	
4464	0	32856	32750	
4465	0	32812	32864	
4466	0	32514	32874	
4467	0	32434	32775	
4468	0	32700	32616	
4469	0	33026	32692	
4470	0	33244	32816	
4471	0	33060	32731	
4472	0	32964	32762	
4473	0	32740	32718	
4474	0	32548	32775	
4475	0	32532	32810	
4476	0	32492	32734	
4477	0	32490	32846	
4478	0	32526	32775	
4479	0	32360	32878	
4480	0	32526	32772	
4481	0	32656	32578	
4482	0	32750	32756	
4483	0	32874	32730	
4484	0	33072	32679	
4485	0	33244	32600	
4486	0	33244	32631	
4487	0	33156	32602	
4488	0	33192	32870	
4489	0	32980	32743	
4490	0	32844	32952	
4491	0	32702	32768	
4492	0	32684	32824	
4493	0	32632	32743	
4494	0	32704	32738	
4495	0	32784	32834	
4496	0	32775	32796	
4497	0	32820	32704	
4498	0	32884	32920	
4499	0	32802	32948	
4500	0	32836	32662	
4501	0	32808	32718	
4502	0	33008	32888	
4503	0	33104	32740	
4504	0	33088	32672	
4505	0	32984	32690	
4506	0	32900	32756	
4507	0	32740	32863	
4508	0	32588	32830	
4509	0	32612	32631	
4510	0	32484	32788	
4511	0	32452	32743	
4512	0	32524	32616	
4513	0	32640	32792	
4514	0	32576	32678	
4515	0	32832	32775	
4516	0	32944	32838	
4517	0	32988	32592	
4518	0	33070	32807	
4519	0	33104	32832	
4520	0	32984	32770	
4521	0	32992	32526	
4522	0	32892	32418	
4523	0	33076	32434	
4524	0	33022	32320	
4525	0	32948	32592	
4526	0	32792	32298	
4527	0	32682	32474	
4528	0	32764	32483	
4529	0	32766	32436	
4530	0	32896	32452	
4531	0	33042	32446	
4532	0	33188	32650	
4533	0	33242	32694	
4534	0	33160	32802	
4535	0	32968	33036	
4536	0	32644	33010	
4537	0	32468	33387	
4538	0	32528	33518	
4539	0	32416	33532	
4540	0	31922	33628	
4541	0	32478	33584	
4542	0	32736	33770	
4543	0	32540	33831	
4544	0	32550	33711	
4545	0	32436	33656	
4546	0	32336	33382	
4547	0	32320	33086	
4548	0	32428	32888	
4549	0	32412	32580	
4550	0	32500	32460	
4551	0	32652	32422	
4552	0	32780	32378	
4553	0	32772	32258	
4554	0	32880	32299	
4555	0	33080	32188	
4556	0	33160	32257	
4557	0	33168	32415	
4558	0	33432	32288	
4559	0	33392	32510	
4560	0	33260	32460	
4561	0	33092	32568	
4562	0	33004	32366	
4563	0	32962	32575	
4564	0	32930	32572	
4565	0	32888	32684	
4566	0	32868	32756	
4567	0	32840	32750	
4568	0	32876	32858	
4569	0	33038	32660	
4570	0	33216	32827	
4571	0	33172	32693	
4572	0	33180	32908	
4573	0	32992	32887	
4574	0	32810	32696	
4575	0	32610	32786	
4576	0	32444	32734	
4577	0	32364	32847	
4578	0	32548	32708	
4579	0	32704	32935	
4580	0	32768	32836	
4581	0	32780	32857	
4582	0	32826	32924	
4583	0	33000	32764	
4584	0	33036	32752	
4585	0	33196	32698	
4586	0	33183	32736	
4587	0	32954	32825	
4588	0	32816	32705	
4589	0	32900	32708	
4590	0	32638	32698	
4591	0	32676	32662	
4592	0	32856	32644	
4593	0	32854	32811	
4594	0	32692	32775	
4595	0	32565	32746	
4596	0	32618	32734	
4597	0	32708	32764	
4598	0	32600	32847	
4599	0	32548	32746	
4600	0	32554	32796	
4601	0	32692	32839	
4602	0	32696	32764	
4603	0	32634	32775	
4604	0	32622	32732	
4605	0	32638	32672	
4606	0	32740	32798	
4607	0	32760	32670	
4608	0	32664	32742	
4609	0	32798	32903	
4610	0	32936	32792	
4611	0	32970	32742	
4612	0	33060	32774	
4613	0	33126	32834	
4614	0	33314	32790	
4615	0	33146	32800	
4616	0	33118	32676	
4617	0	33240	32825	
4618	0	33094	32756	
4619	0	33032	32782	
4620	0	32824	32732	
4621	0	32676	32750	
4622	0	32644	32710	
4623	0	32560	32860	
4624	0	32388	32726	
4625	0	32456	32670	
4626	0	32513	32807	
4627	0	32364	32820	
4628	0	32390	32718	
4629	0	32360	32804	
4630	0	32436	32696	
4631	0	32406	32748	
4632	0	32460	32735	
4633	0	32760	32752	
4634	0	32974	32830	
4635	0	33138	32838	
4636	0	33258	32742	
4637	0	33214	32764	
4638	0	33116	32846	
4639	0	33122	32812	
4640	0	33100	32774	
4641	0	33056	32614	
4642	0	33088	32767	
4643	0	33294	32834	
4644	0	33296	32668	
4645	0	32944	32686	
4646	0	32780	32726	
4647	0	32816	32775	
4648	0	32564	32812	
4649	0	32548	32668	
4650	0	32646	32742	
4651	0	32418	32810	
4652	0	32464	32816	
4653	0	32464	32763	
4654	0	32424	32808	
4655	0	32464	32686	
4656	0	32534	32800	
4657	0	32784	32844	
4658	0	32940	32750	
4659	0	33144	32775	
4660	0	33424	32644	
4661	0	33246	32796	
4662	0	33032	32836	
4663	0	32862	32719	
4664	0	32912	32772	
4665	0	32866	32916	
4666	0	33000	32774	
4667	0	32804	32854	
4668	0	32932	32734	
4669	0	33120	32749	
4670	0	32812	32890	
4671	0	32736	32752	
4672	0	32724	32775	
4673	0	32672	32798	
4674	0	32516	32708	
4675	0	32653	32762	
4676	0	32744	32700	
4677	0	32580	32729	
4678	0	32392	32724	
4679	0	32558	32716	
4680	0	32454	32766	
4681	0	32276	32775	
4682	0	32732	32716	
4683	0	33352	32756	
4684	0	33280	32865	
4685	0	33248	32752	
4686	0	33292	32676	
4687	0	33216	32772	
4688	0	32964	32775	
4689	0	32568	32730	
4690	0	32384	32702	
4691	0	32456	32819	
4692	0	32484	32720	
4693	0	32372	32774	
4694	0	32520	32924	
4695	0	32626	32689	
4696	0	32896	32818	
4697	0	32880	32775	
4698	0	32888	32624	
4699	0	33004	32748	
4700	0	33092	32692	
4701	0	33126	32824	
4702	0	33190	32775	
4703	0	33324	32784	
4704	0	33470	32844	
4705	0	33222	32828	
4706	0	32950	32658	
4707	0	32644	32828	
4708	0	32626	32836	
4709	0	32554	32881	
4710	0	32452	32821	
4711	0	32500	32700	
4712	0	32872	32852	
4713	0	33046	32686	
4714	0	32936	32790	
4715	0	32950	32694	
4716	0	32758	32774	
4717	0	32524	32722	
4718	0	32578	32687	
4719	0	32396	32780	
4720	0	32306	32686	
4721	0	32354	32762	
4722	0	32548	32678	
4723	0	32744	32831	
4724	0	32980	32844	
4725	0	33356	32775	
4726	0	33360	32742	
4727	0	33046	32752	
4728	0	32928	32712	
4729	0	32874	32758	
4730	0	32708	32848	
4731	0	32676	32938	
4732	0	32816	32784	
4733	0	33088	32688	
4734	0	33220	32640	
4735	0	33134	32775	
4736	0	32718	32774	
4737	0	32572	32682	
4738	0	32572	32903	
4739	0	32424	32806	
4740	0	32248	32676	
4741	0	32178	32822	
4742	0	32562	32528	
4743	0	33060	32820	
4744	0	33228	32868	
4745	0	33268	32756	
4746	0	33376	32854	
4747	0	32968	32820	
4748	0	32724	32748	
4749	0	32775	32750	
4750	0	32608	32727	
4751	0	32620	32836	
4752	0	32672	32775	
4753	0	32830	32738	
4754	0	32580	32750	
4755	0	32408	32761	
4756	0	33000	32697	
4757	0	32993	32818	
4758	0	33460	32810	
4759	0	33493	32790	
4760	0	33077	32874	
4761	0	32632	32734	
4762	0	32532	32796	
4763	0	32464	32846	
4764	0	32232	32710	
4765	0	32192	32734	
4766	0	32216	32748	
4767	0	32528	32732	
4768	0	32830	32740	
4769	0	32996	32775	
4770	0	32968	32822	
4771	0	32748	32766	
4772	0	32844	32836	
4773	0	32848	32803	
4774	0	32954	32694	
4775	0	32936	32814	
4776	0	32984	32800	
4777	0	32984	32916	
4778	0	33054	32840	
4779	0	32804	32682	
4780	0	32842	32788	
4781	0	32948	32743	
4782	0	32828	32820	
4783	0	32872	32676	
4784	0	32886	32798	
4785	0	33052	32856	
4786	0	33050	32704	
4787	0	33233	32862	
4788	0	33088	32791	
4789	0	33028	32790	
4790	0	32798	32780	
4791	0	32614	32744	
4792	0	32410	32726	
4793	0	32364	32750	
4794	0	32752	32802	
4795	0	32868	32834	
4796	0	32764	32566	
4797	0	32616	32854	
4798	0	32744	32799	
4799	0	32556	32790	
4800	0	32762	32906	
4801	0	32808	32711	
4802	0	32912	32739	
4803	0	32876	32748	
4804	0	32784	32862	
4805	0	32692	32675	
4806	0	32804	32684	
4807	0	33008	32985	
4808	0	32714	32738	
4809	0	32670	32712	
4810	0	32968	32804	
4811	0	33064	32800	
4812	0	33114	32656	
4813	0	32724	32714	
4814	0	32564	32775	
4815	0	32580	32692	
4816	0	32660	32822	
4817	0	32688	32668	
4818	0	32948	32943	
4819	0	32980	32856	
4820	0	32700	32686	
4821	0	32784	32736	
4822	0	32538	32704	
4823	0	32476	32762	
4824	0	32440	32670	
4825	0	32798	32768	
4826	0	32700	32764	
4827	0	32834	32692	
4828	0	33101	32840	
4829	0	33268	32855	
4830	0	33268	32834	
4831	0	33004	32743	
4832	0	32904	32676	
4833	0	32960	32694	
4834	0	32976	32638	
4835	0	32776	32726	
4836	0	32817	32743	
4837	0	32788	32684	
4838	0	32668	32839	
4839	0	32548	32772	
4840	0	32484	32802	
4841	0	32642	32711	
4842	0	32700	32690	
4843	0	32620	32764	
4844	0	33188	32902	
4845	0	33452	32714	
4846	0	33200	32816	
4847	0	33120	32851	
4848	0	33280	32738	
4849	0	33256	32771	
4850	0	33072	32864	
4851	0	32760	32639	
4852	0	32290	32840	
4853	0	32288	32762	
4854	0	32608	32900	
4855	0	32292	32775	
4856	0	32488	32800	
4857	0	32902	32737	
4858	0	32720	32888	
4859	0	32569	32748	
4860	0	32452	32736	
4861	0	32244	32750	
4862	0	32376	32692	
4863	0	32636	32761	
4864	0	32758	32752	
4865	0	32920	32814	
4866	0	33214	32710	
4867	0	33470	32824	
4868	0	33348	32716	
4869	0	33292	32718	
4870	0	33258	32822	
4871	0	33104	32738	
4872	0	32892	32740	
4873	0	33168	32642	
4874	0	32796	32806	
4875	0	32740	33022	
4876	0	32612	32694	
4877	0	32518	32668	
4878	0	32640	32839	
4879	0	32596	32742	
4880	0	32698	32748	
4881	0	32908	32764	
4882	0	33359	32892	
4883	0	33092	32727	
4884	0	32824	32834	
4885	0	32690	32684	
4886	0	32578	32784	
4887	0	32232	32727	
4888	0	31938	32644	
4889	0	31720	32719	
4890	0	31742	32679	
4891	0	31992	32757	
4892	0	32308	32743	
4893	0	32676	32802	
4894	0	32742	32660	
4895	0	32960	32855	
4896	0	33280	32862	
4897	0	33404	32680	
4898	0	33536	32724	
4899	0	33522	32818	
4900	0	33554	32690	
4901	0	33622	32972	
4902	0	33624	32968	
4903	0	33566	32768	
4904	0	33492	32602	
4905	0	33120	32804	
4906	0	32760	32686	
4907	0	32604	32697	
4908	0	32476	32768	
4909	0	32408	32775	
4910	0	32436	32762	
4911	0	32792	32727	
4912	0	32760	32746	
4913	0	32600	32692	
4914	0	32505	32916	
4915	0	32372	32772	
4916	0	32204	32775	
4917	0	32193	32792	
4918	0	32372	32678	
4919	0	32608	32792	
4920	0	32940	32822	
4921	0	33372	32734	
4922	0	33322	32848	
4923	0	33446	32710	
4924	0	33566	32646	
4925	0	33356	32754	
4926	0	32960	32772	
4927	0	32460	32802	
4928	0	32796	32756	
4929	0	32356	32868	
4930	0	32264	32737	
4931	0	32064	32662	
4932	0	32284	32790	
4933	0	32608	32836	
4934	0	32968	32711	
4935	0	33028	32775	
4936	0	32936	32732	
4937	0	32830	32848	
4938	0	32688	32807	
4939	0	32808	32884	
4940	0	32804	32862	
4941	0	32734	32612	
4942	0	33028	32903	
4943	0	33016	32678	
4944	0	33016	32684	
4945	0	32940	32775	
4946	0	32986	32808	
4947	0	32888	32964	
4948	0	33006	32530	
4949	0	33094	32878	
4950	0	33182	32804	
4951	0	32996	32725	
4952	0	32820	32576	
4953	0	32710	32684	
4954	0	32568	32890	
4955	0	32564	32814	
4956	0	32800	32711	
4957	0	32968	32712	
4958	0	33016	32817	
4959	0	33076	32838	
4960	0	33140	32646	
4961	0	32864	32850	
4962	0	32673	32840	
4963	0	32424	32756	
4964	0	32336	32742	
4965	0	32196	32698	
4966	0	32412	32740	
4967	0	32150	32798	
4968	0	32016	32689	
4969	0	32548	32718	
4970	0	32708	32811	
4971	0	32993	32814	
4972	0	33050	32736	
4973	0	33838	32958	
4974	0	33588	32722	
4975	0	33216	32704	
4976	0	33496	32823	
4977	0	33418	32806	
4978	0	32908	32714	
4979	0	32442	32755	
4980	0	32632	32822	
4981	0	32408	32737	
4982	0	32238	32788	
4983	0	32282	32775	
4984	0	32964	32710	
4985	0	33064	32679	
4986	0	33340	32860	
4987	0	33316	32696	
4988	0	32834	32868	
4989	0	32664	32820	
4990	0	33630	32736	
4991	0	34032	32788	
4992	0	34206	32911	
4993	0	33753	32682	
4994	0	32578	32614	
4995	0	31958	32888	
4996	0	31930	32680	
4997	0	31420	32692	
4998	0	31496	32679	
4999	0	31968	32602	
5000	0	31848	32860	
5001	0	31806	32608	
5002	0	32186	32752	
5003	0	32360	32700	
5004	0	32658	32826	
5005	0	32752	32726	
5006	0	32664	32818	
5007	0	32564	32822	
5008	0	32804	32743	
5009	0	32984	32698	
5010	0	32904	32932	
5011	0	32924	32836	
5012	0	32812	32830	
5013	0	33076	32808	
5014	0	33548	32716	
5015	0	33378	32746	
5016	0	33488	32818	
5017	0	33772	32736	
5018	0	33716	32775	
5019	0	33376	32752	
5020	0	33220	32830	
5021	0	33054	32641	
5022	0	33084	32760	
5023	0	33106	32730	
5024	0	33418	32732	
5025	0	33722	32748	
5026	0	33662	32944	
5027	0	33248	32647	
5028	0	33026	32719	
5029	0	32520	32624	
5030	0	31700	32716	
5031	0	31522	32898	
5032	0	31412	32766	
5033	0	30960	32871	
5034	0	31416	32670	
5035	0	32036	32644	
5036	0	31944	32898	
5037	0	32076	32852	
5038	0	32908	32730	
5039	0	33364	32768	
5040	0	33089	32773	
5041	0	33100	32748	
5042	0	33412	32702	
5043	0	33400	32794	
5044	0	33632	32792	
5045	0	33490	32775	
5046	0	33354	32836	
5047	0	33160	32702	
5048	0	32897	32845	
5049	0	32584	32788	
5050	0	32396	32663	
5051	0	32576	32820	
5052	0	32610	32774	
5053	0	32734	32768	
5054	0	32782	32742	
5055	0	33042	32826	
5056	0	32994	32807	
5057	0	32778	32725	
5058	0	32680	32775	
5059	0	32856	32600	
5060	0	32952	32724	
5061	0	32956	32700	
5062	0	33092	32724	
5063	0	33090	32839	
5064	0	33180	32690	
5065	0	32653	32822	
5066	0	32980	32684	
5067	0	33044	32788	
5068	0	33108	32766	
5069	0	33248	32736	
5070	0	32994	32878	
5071	0	32672	32815	
5072	0	32380	32678	
5073	0	32432	32612	
5074	0	32312	32798	
5075	0	32062	32825	
5076	0	31928	32812	
5077	0	32066	32859	
5078	0	32104	32811	
5079	0	32384	32812	
5080	0	32446	32892	
5081	0	32704	32692	
5082	0	33084	32666	
5083	0	33164	32720	
5084	0	33232	32704	
5085	0	33376	32750	
5086	0	33376	32807	
5087	0	33264	32849	
5088	0	33470	32754	
5089	0	33512	32848	
5090	0	33298	32736	
5091	0	33081	32700	
5092	0	32944	32642	
5093	0	32832	32682	
5094	0	32796	32822	
5095	0	32864	32938	
5096	0	32848	32770	
5097	0	32618	32766	
5098	0	32608	32700	
5099	0	32916	32552	
5100	0	32757	32718	
5101	0	32438	32822	
5102	0	32650	33098	
5103	0	32770	32882	
5104	0	33354	32576	
5105	0	34036	32916	
5106	0	34282	32806	
5107	0	34564	32896	
5108	0	34306	32775	
5109	0	32522	32796	
5110	0	30964	32788	
5111	0	30176	32501	
5112	0	29356	32560	
5113	0	30060	32647	
5114	0	30876	32638	
5115	0	31158	32860	
5116	0	31824	32818	
5117	0	32396	32820	
5118	0	32776	32604	
5119	0	33622	32816	
5120	0	33688	32728	
5121	0	34084	32764	
5122	0	34264	32694	
5123	0	34472	32809	
5124	0	34174	32788	
5125	0	34062	32838	
5126	0	33766	32798	
5127	0	33568	32671	
5128	0	33764	32724	
5129	0	33468	32718	
5130	0	33224	32739	
5131	0	32775	32682	
5132	0	32396	32743	
5133	0	32082	32672	
5134	0	31768	32622	
5135	0	31826	32492	
5136	0	32246	32682	
5137	0	32368	32628	
5138	0	32624	32566	
5139	0	33137	32558	
5140	0	33768	32552	
5141	0	33492	32511	
5142	0	33312	32450	
5143	0	33152	32490	
5144	0	32638	32420	
5145	0	32364	32593	
5146	0	32332	32584	
5147	0	32540	32262	
5148	0	32464	32495	
5149	0	32824	32688	
5150	0	33263	32810	
5151	0	33634	32841	
5152	0	33812	32958	
5153	0	33392	33210	
5154	0	32552	33084	
5155	0	32337	33296	
5156	0	32096	33472	
5157	0	31724	33554	
5158	0	31638	33732	
5159	0	32158	33790	
5160	0	32328	33872	
5161	0	32158	33780	
5162	0	32296	33460	
5163	0	32768	33650	
5164	0	32488	33344	
5165	0	32335	32775	
5166	0	32504	32576	
5167	0	32424	32420	
5168	0	32352	32560	
5169	0	32616	32222	
5170	0	33065	32374	
5171	0	33464	32154	
5172	0	33808	32298	
5173	0	33800	32338	
5174	0	33928	32078	
5175	0	33288	32399	
5176	0	33592	32586	
5177	0	34402	32410	
5178	0	33938	32430	
5179	0	33338	32426	
5180	0	33036	32743	
5181	0	33064	32569	
5182	0	32606	32488	
5183	0	32190	32930	
5184	0	31512	32790	
5185	0	31254	33051	
5186	0	31630	32703	
5187	0	31972	32532	
5188	0	31942	32714	
5189	0	32194	32686	
5190	0	32644	32664	
5191	0	32780	32711	
5192	0	32938	32628	
5193	0	33132	32716	
5194	0	33118	32714	
5195	0	33572	32900	
5196	0	33584	32816	
5197	0	33628	32788	
5198	0	33734	32740	
5199	0	33064	32712	
5200	0	33238	32743	
5201	0	34098	32856	
5202	0	33568	32930	
5203	0	32702	32826	
5204	0	32433	32854	
5205	0	32402	32983	
5206	0	32200	32738	
5207	0	32652	32754	
5208	0	32472	32829	
5209	0	32360	32694	
5210	0	32548	32831	
5211	0	32144	32655	
5212	0	31674	32681	
5213	0	31972	32644	
5214	0	32478	32856	
5215	0	32764	32698	
5216	0	33119	32868	
5217	0	33336	32932	
5218	0	33254	32855	
5219	0	33930	32862	
5220	0	34124	32878	
5221	0	33812	32868	
5222	0	33152	32752	
5223	0	32688	32720	
5224	0	31928	32654	
5225	0	31570	32780	
5226	0	31956	32668	
5227	0	32444	32824	
5228	0	32656	32708	
5229	0	32968	32679	
5230	0	32678	32632	
5231	0	31992	32898	
5232	0	32344	32636	
5233	0	32648	32980	
5234	0	32384	32714	
5235	0	33380	32810	
5236	0	33620	32854	
5237	0	33626	33073	
5238	0	33412	32743	
5239	0	33196	32655	
5240	0	32736	32679	
5241	0	32600	32722	
5242	0	32482	32684	
5243	0	32532	32898	
5244	0	33064	32855	
5245	0	33560	32855	
5246	0	33636	32662	
5247	0	33276	32632	
5248	0	33180	32698	
5249	0	33102	32684	
5250	0	33064	32764	
5251	0	32608	32682	
5252	0	32426	32767	
5253	0	33040	32708	
5254	0	33136	32762	
5255	0	32524	32710	
5256	0	32326	32710	
5257	0	31620	32674	
5258	0	31656	32694	
5259	0	31948	32830	
5260	0	31792	32860	
5261	0	32266	32668	
5262	0	32320	33044	
5263	0	32372	32848	
5264	0	31818	32656	
5265	0	33088	32820	
5266	0	33696	32680	
5267	0	33798	32802	
5268	0	33958	32868	
5269	0	33826	32806	
5270	0	33416	32694	
5271	0	33228	32822	
5272	0	33644	32430	
5273	0	33646	32789	
5274	0	33364	32722	
5275	0	32678	32751	
5276	0	32394	32912	
5277	0	32076	32660	
5278	0	31640	32824	
5279	0	31736	32808	
5280	0	32384	32728	
5281	0	32816	32952	
5282	0	32552	32662	
5283	0	33080	32840	
5284	0	32880	32788	
5285	0	33148	32804	
5286	0	33092	32656	
5287	0	33100	32724	
5288	0	33048	32824	
5289	0	32888	32696	
5290	0	32744	32663	
5291	0	32868	32816	
5292	0	33748	32728	
5293	0	33692	32775	
5294	0	33990	32766	
5295	0	34056	32928	
5296	0	33350	32882	
5297	0	32792	32746	
5298	0	31950	32746	
5299	0	31632	32796	
5300	0	31544	32828	
5301	0	31324	32686	
5302	0	31396	32892	
5303	0	31732	32820	
5304	0	31928	32673	
5305	0	32396	32775	
5306	0	32772	32760	
5307	0	33122	32632	
5308	0	33140	32812	
5309	0	33040	32855	
5310	0	33050	32821	
5311	0	32834	32798	
5312	0	32886	32700	
5313	0	32988	32715	
5314	0	33120	32748	
5315	0	33376	32630	
5316	0	33298	32730	
5317	0	33226	32724	
5318	0	33068	32838	
5319	0	33119	32732	
5320	0	33488	32860	
5321	0	33984	32836	
5322	0	33836	32871	
5323	0	33504	32646	
5324	0	33408	32774	
5325	0	33158	32808	
5326	0	32554	32746	
5327	0	32112	32700	
5328	0	32134	32742	
5329	0	32154	32775	
5330	0	31916	32702	
5331	0	32656	32715	
5332	0	32640	32726	
5333	0	32454	32684	
5334	0	32392	32704	
5335	0	32086	32641	
5336	0	31904	32708	
5337	0	32308	32800	
5338	0	32164	32678	
5339	0	32066	32743	
5340	0	32820	32844	
5341	0	33772	32862	
5342	0	33572	32804	
5343	0	33524	32946	
5344	0	33474	32948	
5345	0	33656	33024	
5346	0	33798	32775	
5347	0	33976	32804	
5348	0	33224	32839	
5349	0	32708	32775	
5350	0	32484	32679	
5351	0	32376	32788	
5352	0	32600	32815	
5353	0	32632	32826	
5354	0	31524	32640	
5355	0	31834	32802	
5356	0	32094	32705	
5357	0	31860	32689	
5358	0	31856	32764	
5359	0	32194	32790	
5360	0	33342	32688	
5361	0	34174	32756	
5362	0	34106	32846	
5363	0	33972	32700	
5364	0	33772	32718	
5365	0	33664	32578	
5366	0	33250	32746	
5367	0	32918	32856	
5368	0	32332	32760	
5369	0	32158	32846	
5370	0	31936	32754	
5371	0	31806	32882	
5372	0	31716	32671	
5373	0	31738	32775	
5374	0	31876	32775	
5375	0	32258	32732	
5376	0	32220	32720	
5377	0	32938	32850	
5378	0	33686	32865	
5379	0	33670	32692	
5380	0	34008	32663	
5381	0	33504	32759	
5382	0	33424	32624	
5383	0	32961	32690	
5384	0	32756	32628	
5385	0	32470	32670	
5386	0	32744	32775	
5387	0	33172	32810	
5388	0	34080	32820	
5389	0	34670	32764	
5390	0	34816	32928	
5391	0	34452	32956	
5392	0	33252	32792	
5393	0	31838	32794	
5394	0	31057	32740	
5395	0	30888	32822	
5396	0	30824	32766	
5397	0	30870	32738	
5398	0	31572	32844	
5399	0	32245	33040	
5400	0	32680	33144	
5401	0	33280	33172	
5402	0	33488	33078	
5403	0	33108	33263	
5404	0	33008	33255	
5405	0	33073	32985	
5406	0	32702	32808	
5407	0	32496	32578	
5408	0	32168	32178	
5409	0	32596	32006	
5410	0	32760	32064	
5411	0	33034	32094	
5412	0	33642	32168	
5413	0	33938	32396	
5414	0	34368	32310	
5415	0	34864	32628	
5416	0	34776	32692	
5417	0	33656	32658	
5418	0	32736	32804	
5419	0	31540	32968	
5420	0	30961	33016	
5421	0	31072	33050	
5422	0	31596	33301	
5423	0	33100	33192	
5424	0	33924	33220	
5425	0	33700	32874	
5426	0	33068	33022	
5427	0	31886	32800	
5428	0	31108	32878	
5429	0	30766	32750	
5430	0	30200	32664	
5431	0	29928	32880	
5432	0	30480	32934	
5433	0	32188	33170	
5434	0	33124	33188	
5435	0	33540	32871	
5436	0	33884	32698	
5437	0	34210	32702	
5438	0	34492	32775	
5439	0	34580	32868	
5440	0	34464	32812	
5441	0	35312	32828	
5442	0	35778	32860	
5443	0	35054	32660	
5444	0	34084	32610	
5445	0	33114	32480	
5446	0	32208	32457	
5447	0	31588	32252	
5448	0	31976	32302	
5449	0	32410	32257	
5450	0	31894	32130	
5451	0	32864	32208	
5452	0	34100	32378	
5453	0	34240	32440	
5454	0	32814	32566	
5455	0	31440	32732	
5456	0	30212	32930	
5457	0	29364	33052	
5458	0	30456	33096	
5459	0	32164	33196	
5460	0	33250	33097	
5461	0	33466	33240	
5462	0	33480	33030	
5463	0	32912	33096	
5464	0	32860	32944	
5465	0	32440	32884	
5466	0	32304	32898	
5467	0	32368	32774	
5468	0	32806	32612	
5469	0	33136	32602	
5470	0	33572	32588	
5471	0	33488	32636	
5472	0	33976	32442	
5473	0	34548	32551	
5474	0	34648	32682	
5475	0	34661	32614	
5476	0	34086	32696	
5477	0	33192	32826	
5478	0	33152	32903	
5479	0	33734	32846	
5480	0	33920	32852	
5481	0	33052	32798	
5482	0	31664	33090	
5483	0	30828	32966	
5484	0	30164	32784	
5485	0	30572	32874	
5486	0	31132	32672	
5487	0	31224	32647	
5488	0	31212	32644	
5489	0	31340	32694	
5490	0	31576	32676	
5491	0	31752	32847	
5492	0	32062	32702	
5493	0	32746	32758	
5494	0	33020	32720	
5495	0	33576	32746	
5496	0	34306	32748	
5497	0	35136	32918	
5498	0	35140	32972	
5499	0	35630	32986	
5500	0	36308	32896	
5501	0	34886	32892	
5502	0	33456	32721	
5503	0	32428	32628	
5504	0	31788	32465	
5505	0	31648	32324	
5506	0	31568	32414	
5507	0	30880	32620	
5508	0	30530	32631	
5509	0	30488	32804	
5510	0	30828	32854	
5511	0	31926	32748	
5512	0	33462	32892	
5513	0	34532	32860	
5514	0	34980	32798	
5515	0	35738	32980	
5516	0	34980	32904	
5517	0	33988	32916	
5518	0	33376	32908	
5519	0	31778	32716	
5520	0	30752	32756	
5521	0	30260	32724	
5522	0	30626	32881	
5523	0	31182	32934	
5524	0	31260	32752	
5525	0	32004	32812	
5526	0	33066	32691	
5527	0	34000	32644	
5528	0	34552	32822	
5529	0	34204	32695	
5530	0	34284	32726	
5531	0	35292	32674	
5532	0	34956	32876	
5533	0	34026	32876	
5534	0	33956	32960	
5535	0	33128	32930	
5536	0	32144	33191	
5537	0	31368	32932	
5538	0	30964	32665	
5539	0	32458	32444	
5540	0	33036	32272	
5541	0	33032	32448	
5542	0	33352	32330	
5543	0	32848	32542	
5544	0	31428	32728	
5545	0	30465	32640	
5546	0	29240	32670	
5547	0	29812	32734	
5548	0	31656	32702	
5549	0	32608	32775	
5550	0	32906	32775	
5551	0	33520	32882	
5552	0	34036	32890	
5553	0	34476	32796	
5554	0	34904	32764	
5555	0	34308	32801	
5556	0	33388	32702	
5557	0	32814	32716	
5558	0	31948	32759	
5559	0	32024	32975	
5560	0	32380	32966	
5561	0	33162	33360	
5562	0	33348	33182	
5563	0	33448	32846	
5564	0	34432	32772	
5565	0	35702	32732	
5566	0	35856	32644	
5567	0	35768	32556	
5568	0	34448	32474	
5569	0	32168	32628	
5570	0	30676	32641	
5571	0	29528	32280	
5572	0	29232	32534	
5573	0	29664	32568	
5574	0	30324	32686	
5575	0	31348	32926	
5576	0	32520	32966	
5577	0	32956	33044	
5578	0	32868	33135	
5579	0	32560	32986	
5580	0	33400	33140	
5581	0	34808	32934	
5582	0	35342	32908	
5583	0	35032	32910	
5584	0	34910	32908	
5585	0	33714	32886	
5586	0	32662	32852	
5587	0	32398	32808	
5588	0	31784	32743	
5589	0	31336	32743	
5590	0	31082	32630	
5591	0	30680	32558	
5592	0	30738	32449	
5593	0	31768	32466	
5594	0	32808	32511	
5595	0	33196	32528	
5596	0	33800	32740	
5597	0	33998	32790	
5598	0	33588	32849	
5599	0	33694	32888	
5600	0	34356	32756	
5601	0	34444	32764	
5602	0	34628	32751	
5603	0	34688	32600	
5604	0	34110	32544	
5605	0	32788	32828	
5606	0	31530	32984	
5607	0	30816	32775	
5608	0	30956	32812	
5609	0	30748	32822	
5610	0	30968	32892	
5611	0	31908	32714	
5612	0	32148	32708	
5613	0	31996	32720	
5614	0	31724	32810	
5615	0	32764	32668	
5616	0	32436	32666	
5617	0	32422	32660	
5618	0	33214	32756	
5619	0	33608	32680	
5620	0	33804	32892	
5621	0	34260	32872	
5622	0	35016	32830	
5623	0	36340	33008	
5624	0	35302	32908	
5625	0	34556	32832	
5626	0	33852	32750	
5627	0	32738	32854	
5628	0	31438	32942	
5629	0	30604	32832	
5630	0	30516	32604	
5631	0	30980	32563	
5632	0	32372	32350	
5633	0	34841	32439	
5634	0	35616	32486	
5635	0	34536	32760	
5636	0	33330	32572	
5637	0	31632	32576	
5638	0	29616	32580	
5639	0	28510	32638	
5640	0	28404	32792	
5641	0	30732	32880	
5642	0	32888	32994	
5643	0	33524	32796	
5644	0	33826	32876	
5645	0	34612	32968	
5646	0	34058	32856	
5647	0	32734	32871	
5648	0	31912	32736	
5649	0	31988	32608	
5650	0	33392	32590	
5651	0	34154	32984	
5652	0	34766	32716	
5653	0	35186	32660	
5654	0	35024	32704	
5655	0	35124	32775	
5656	0	34632	32727	
5657	0	33370	32732	
5658	0	33215	33015	
5659	0	33660	32858	
5660	0	32772	32824	
5661	0	30860	32672	
5662	0	30274	32892	
5663	0	30020	32944	
5664	0	30482	32880	
5665	0	30634	32972	
5666	0	30912	32960	
5667	0	30790	32871	
5668	0	30970	32730	
5669	0	32008	32526	
5670	0	32624	32903	
5671	0	32580	32596	
5672	0	32860	32511	
5673	0	32892	32660	
5674	0	33368	32694	
5675	0	33684	32586	
5676	0	34000	32807	
5677	0	34000	32836	
5678	0	34160	32698	
5679	0	34500	32588	
5680	0	34260	32640	
5681	0	34340	32618	
5682	0	34956	32664	
5683	0	35628	32775	
5684	0	35700	32808	
5685	0	35012	32676	
5686	0	34496	32884	
5687	0	34148	32896	
5688	0	33108	32706	
5689	0	31866	32866	
5690	0	30880	32852	
5691	0	30060	32804	
5692	0	29216	32764	
5693	0	29220	32614	
5694	0	30672	32751	
5695	0	30908	32806	
5696	0	31700	32583	
5697	0	31072	32644	
5698	0	30654	32861	
5699	0	31234	32832	
5700	0	31916	33022	
5701	0	31848	32850	
5702	0	33124	32702	
5703	0	34272	32868	
5704	0	34424	32804	
5705	0	34992	32772	
5706	0	35144	32860	
5707	0	34756	32951	
5708	0	34396	32909	
5709	0	33732	32608	
5710	0	33904	32792	
5711	0	34781	32792	
5712	0	35306	32694	
5713	0	35064	33052	
5714	0	34574	33000	
5715	0	33968	32792	
5716	0	31864	32524	
5717	0	31180	32532	
5718	0	32054	32282	
5719	0	32544	32343	
5720	0	31646	32318	
5721	0	31752	32568	
5722	0	30048	32314	
5723	0	29930	32626	
5724	0	29930	32650	
5725	0	29477	32492	
5726	0	29818	32735	
5727	0	30596	32895	
5728	0	31514	32944	
5729	0	33052	33100	
5730	0	33892	33204	
5731	0	34124	33042	
5732	0	34180	33188	
5733	0	33720	33092	
5734	0	34052	33100	
5735	0	34516	32896	
5736	0	34848	32942	
5737	0	35748	33048	
5738	0	36406	32788	
5739	0	35034	32804	
5740	0	33844	32576	
5741	0	32400	32391	
5742	0	31448	32508	
5743	0	30292	32510	
5744	0	30628	32724	
5745	0	31734	32829	
5746	0	33182	32586	
5747	0	33902	32623	
5748	0	34510	32533	
5749	0	35490	32478	
5750	0	34348	32628	
5751	0	32928	32610	
5752	0	32366	32554	
5753	0	31264	32442	
5754	0	30984	32646	
5755	0	30972	32647	
5756	0	31156	32711	
5757	0	31250	32775	
5758	0	31564	32775	
5759	0	31642	32565	
5760	0	31492	32612	
5761	0	31160	32468	
5762	0	31960	32398	
5763	0	33210	32506	
5764	0	33928	32406	
5765	0	34152	32324	
5766	0	34412	32490	
5767	0	34684	32550	
5768	0	34540	32372	
5769	0	33160	32446	
5770	0	33568	32647	
5771	0	34012	32645	
5772	0	33484	32808	
5773	0	33052	33018	
5774	0	32756	33086	
5775	0	32884	33424	
5776	0	33260	33614	
5777	0	33164	33580	
5778	0	32553	33828	
5779	0	31658	33717	
5780	0	31320	33870	
5781	0	31098	33756	
5782	0	31568	33964	
5783	0	33042	33758	
5784	0	33248	33796	
5785	0	33162	33644	
5786	0	32466	33281	
5787	0	34296	32910	
5788	0	35608	32792	
5789	0	35054	32423	
5790	0	34016	32236	
5791	0	32388	32192	
5792	0	30964	31888	
5793	0	29476	31870	
5794	0	29208	31912	
5795	0	29864	32063	
5796	0	31608	32208	
5797	0	33616	32408	
5798	0	33732	32318	
5799	0	33286	32302	
5800	0	33060	32448	
5801	0	32256	32372	
5802	0	32440	32539	
5803	0	32614	32431	
5804	0	33244	32465	
5805	0	33708	32702	
5806	0	34398	32978	
5807	0	34732	32784	
5808	0	34800	32798	
5809	0	33916	32650	
5810	0	32928	32808	
5811	0	32156	32642	
5812	0	31272	32798	
5813	0	30844	32564	
5814	0	31350	32468	
5815	0	32194	32644	
5816	0	32668	32775	
5817	0	33062	32992	
5818	0	33480	32700	
5819	0	34134	33012	
5820	0	34136	33078	
5821	0	35432	33108	
5822	0	35416	33023	
5823	0	34600	32960	
5824	0	33444	32868	
5825	0	32440	32884	
5826	0	31840	32916	
5827	0	31310	32807	
5828	0	31040	32628	
5829	0	31432	32838	
5830	0	31648	32743	
5831	0	32020	32815	
5832	0	32920	32657	
5833	0	33264	32604	
5834	0	33560	32694	
5835	0	33876	32740	
5836	0	32944	32858	
5837	0	32276	32771	
5838	0	31504	32764	
5839	0	31568	32775	
5840	0	31870	32820	
5841	0	32272	32594	
5842	0	33476	32800	
5843	0	33928	32679	
5844	0	32610	32722	
5845	0	32730	32770	
5846	0	32100	32712	
5847	0	32804	32770	
5848	0	32628	32576	
5849	0	32356	32844	
5850	0	32360	32976	
5851	0	32164	32932	
5852	0	32440	33092	
5853	0	32832	33006	
5854	0	33188	32740	
5855	0	33210	32934	
5856	0	33076	32767	
5857	0	33364	32519	
5858	0	34064	32668	
5859	0	33988	32632	
5860	0	33712	32482	
5861	0	33212	32670	
5862	0	33432	32622	
5863	0	33628	32644	
5864	0	33568	32840	
5865	0	33004	32758	
5866	0	32056	32768	
5867	0	32280	32740	
5868	0	31788	32878	
5869	0	32164	32712	
5870	0	32684	32940	
5871	0	32942	33070	
5872	0	32644	32802	
5873	0	32096	32872	
5874	0	32240	32773	
5875	0	32316	32838	
5876	0	32756	32932	
5877	0	33224	32882	
5878	0	33160	32712	
5879	0	33084	32646	
5880	0	33128	32800	
5881	0	33184	32648	
5882	0	33476	32788	
5883	0	33724	32687	
5884	0	33448	32655	
5885	0	32964	32688	
5886	0	32248	32742	
5887	0	31484	32876	
5888	0	31956	32662	
5889	0	32456	32832	
5890	0	33138	32828	
5891	0	33338	32826	
5892	0	33184	32638	
5893	0	33062	32716	
5894	0	33384	32670	
5895	0	33210	32704	
5896	0	32586	32596	
5897	0	32184	32718	
5898	0	31750	32600	
5899	0	31358	32626	
5900	0	31426	32788	
5901	0	32306	32889	
5902	0	32836	32956	
5903	0	33100	33020	
5904	0	32982	33095	
5905	0	33204	32828	
5906	0	33468	32654	
5907	0	33720	32815	
5908	0	34082	32814	
5909	0	34160	32634	
5910	0	33488	32464	
5911	0	32872	32710	
5912	0	32440	32638	
5913	0	32064	32582	
5914	0	31966	32660	
5915	0	32468	32774	
5916	0	32416	32775	
5917	0	32324	32798	
5918	0	32092	32844	
5919	0	31260	32864	
5920	0	32436	32912	
5921	0	32868	33012	
5922	0	32550	32880	
5923	0	32522	32964	
5924	0	32752	32768	
5925	0	33156	32974	
5926	0	33256	32906	
5927	0	33456	32758	
5928	0	33400	32534	
5929	0	33432	32746	
5930	0	33388	32596	
5931	0	33306	32514	
5932	0	33238	32580	
5933	0	33156	32700	
5934	0	32960	32741	
5935	0	33100	32687	
5936	0	33620	32862	
5937	0	34246	32814	
5938	0	34380	32788	
5939	0	33594	32775	
5940	0	32992	32793	
5941	0	32240	32818	
5942	0	32068	32744	
5943	0	32504	32836	
5944	0	31768	32836	
5945	0	31676	32642	
5946	0	31156	32644	
5947	0	31768	32782	
5948	0	31801	32630	
5949	0	31648	32714	
5950	0	31894	32722	
5951	0	32492	32604	
5952	0	32660	32765	
5953	0	33124	32718	
5954	0	33064	32870	
5955	0	33000	32737	
5956	0	33360	32790	
5957	0	33720	32836	
5958	0	33674	32768	
5959	0	33956	32888	
5960	0	33848	32710	
5961	0	33624	32706	
5962	0	33208	32647	
5963	0	33000	32796	
5964	0	33068	32775	
5965	0	32906	32764	
5966	0	32504	32663	
5967	0	32192	32746	
5968	0	32004	32584	
5969	0	32052	32622	
5970	0	32206	32488	
5971	0	31970	32684	
5972	0	31968	32733	
5973	0	32208	32772	
5974	0	32512	32792	
5975	0	32982	32903	
5976	0	33614	32874	
5977	0	33722	32948	
5978	0	33738	33050	
5979	0	33640	32908	
5980	0	33340	32982	
5981	0	32920	32880	
5982	0	32506	32762	
5983	0	32414	32846	
5984	0	32732	32820	
5985	0	32646	32844	
5986	0	32380	32806	
5987	0	32284	32804	
5988	0	32228	32799	
5989	0	32316	32847	
5990	0	32612	32790	
5991	0	32916	32830	
5992	0	33400	32688	
5993	0	33404	32524	
5994	0	32932	32556	
5995	0	33070	32716	
5996	0	33020	32711	
5997	0	33192	32639	
5998	0	33416	32684	
5999	0	33452	32668	
6000	0	33134	32638	
6001	0	32977	32784	
6002	0	32856	32774	
6003	0	32612	32615	
6004	0	32236	32823	
6005	0	32112	32775	
6006	0	32268	32948	
6007	0	32538	32752	
6008	0	32586	32872	
6009	0	32252	32732	
6010	0	31940	32812	
6011	0	32288	32647	
6012	0	32200	32839	
