# OpenSignals Text File Format. Version 1
# {"00:07:80:8C:0A:39": {"position": 0, "device": "biosignalsplux", "device name": "00:07:80:8C:0A:39", "device connection": "BTH00:07:80:8C:0A:39", "sampling rate": 1000, "resolution": [16, 16], "firmware version": 776, "comments": "", "keywords": "", "mode": 0, "sync interval": 2, "date": "2023-3-20", "time": "10:5:21.406", "channels": [1, 2], "sensor": ["EMG", "EMG"], "label": ["CH1", "CH2"], "column": ["nSeq", "DI", "CH1", "CH2"], "special": [{"SpO2": [80, 40, 5, 4, 3, 3]}, {"SpO2": [80, 40, 5, 4, 3, 3]}, {"SpO2": [80, 40, 5, 4, 3, 3]}, {"SpO2": [80, 40, 5, 4, 3, 3]}, {"SpO2": [80, 40, 5, 4, 3, 3]}, {"SpO2": [80, 40, 5, 4, 3, 3]}, {"SpO2": [80, 40, 5, 4, 3, 3]}, {"SpO2": [80, 40, 5, 4, 3, 3]}], "digital IO": [0, 1], "sleeve color": ["gray", "yellow"], "convertedValues": 0}}
# EndOfHeader
0	0	32772	32724	
1	0	32832	32848	
2	0	32838	32775	
3	0	32862	32714	
4	0	32860	32802	
5	0	32742	32716	
6	0	32768	32800	
7	0	32792	32679	
8	0	32790	32865	
9	0	32764	32836	
10	0	32788	32748	
11	0	32796	32714	
12	0	32744	32775	
13	0	32790	32818	
14	0	32812	32775	
15	0	32752	32718	
16	0	32760	32726	
17	0	32874	32828	
18	0	32964	32774	
19	0	32888	32630	
20	0	32816	32931	
21	0	32812	32742	
22	0	32666	32748	
23	0	32644	32758	
24	0	32782	32876	
25	0	32672	32770	
26	0	32852	32756	
27	0	32968	32710	
28	0	32910	32762	
29	0	32881	32848	
30	0	32804	32846	
31	0	32768	32662	
32	0	32776	32871	
33	0	32694	32702	
34	0	32800	32724	
35	0	32960	32628	
36	0	32828	32823	
37	0	32976	32864	
38	0	32856	32816	
39	0	32678	32706	
40	0	32628	32774	
41	0	32748	32824	
42	0	32636	32727	
43	0	32826	32816	
44	0	32896	32774	
45	0	32876	32876	
46	0	32846	32758	
47	0	32896	32839	
48	0	32764	32820	
49	0	32836	32704	
50	0	32828	32812	
51	0	32808	32844	
52	0	32800	32935	
53	0	32768	32832	
54	0	32696	32748	
55	0	32780	32775	
56	0	32922	32684	
57	0	32848	32679	
58	0	32956	32840	
59	0	33092	32876	
60	0	33104	32838	
61	0	32958	32644	
62	0	32728	32658	
63	0	32488	32807	
64	0	32332	32791	
65	0	32486	32796	
66	0	32956	32844	
67	0	33148	32812	
68	0	32918	32868	
69	0	32576	32752	
70	0	32652	32775	
71	0	32840	32661	
72	0	32834	32775	
73	0	32692	32816	
74	0	32678	32864	
75	0	32878	32992	
76	0	32840	32903	
77	0	32934	32748	
78	0	32744	32774	
79	0	32826	32658	
80	0	32876	32666	
81	0	32896	32870	
82	0	32784	32838	
83	0	32836	32758	
84	0	32884	32710	
85	0	32874	32876	
86	0	32892	32860	
87	0	32868	32849	
88	0	32828	32758	
89	0	32834	32740	
90	0	32888	32720	
91	0	32904	32805	
92	0	32854	32864	
93	0	32864	32712	
94	0	32844	32764	
95	0	32847	32804	
96	0	32900	32766	
97	0	32868	32718	
98	0	32830	32784	
99	0	32876	32690	
100	0	32918	32790	
101	0	32892	32695	
102	0	32896	32884	
103	0	32932	32743	
104	0	32906	32720	
105	0	32876	32695	
106	0	32724	32835	
107	0	32796	32828	
108	0	32748	32628	
109	0	32776	32761	
110	0	32942	32710	
111	0	32922	32732	
112	0	32874	32795	
113	0	32816	32566	
114	0	32628	32763	
115	0	32744	32764	
116	0	32810	32752	
117	0	32944	32764	
118	0	32964	32775	
119	0	32894	32686	
120	0	32772	32797	
121	0	32740	32653	
122	0	32772	32680	
123	0	32740	32664	
124	0	32702	32630	
125	0	32780	32748	
126	0	32912	32606	
127	0	32866	32839	
128	0	32896	32760	
129	0	32912	32810	
130	0	32864	32738	
131	0	32812	32734	
132	0	32706	32825	
133	0	32860	32800	
134	0	32942	32752	
135	0	32770	32725	
136	0	32832	32748	
137	0	32816	32775	
138	0	32888	32798	
139	0	32944	32640	
140	0	32840	32702	
141	0	32896	32730	
142	0	32840	32664	
143	0	32972	32747	
144	0	32872	32724	
145	0	32870	32766	
146	0	32816	32671	
147	0	32778	32644	
148	0	32772	32704	
149	0	32864	32750	
150	0	32816	32734	
151	0	32832	32821	
152	0	32936	32742	
153	0	32906	32832	
154	0	32832	32796	
155	0	32746	32775	
156	0	32775	32736	
157	0	32656	32936	
158	0	32757	32872	
159	0	32740	32799	
160	0	32832	32839	
161	0	32816	32830	
162	0	32688	32839	
163	0	32616	32794	
164	0	32636	32748	
165	0	32756	32724	
166	0	32884	32768	
167	0	32928	32709	
168	0	32926	32724	
169	0	32808	32836	
170	0	32804	32644	
171	0	32696	32692	
172	0	32728	32744	
173	0	32592	32831	
174	0	32654	32728	
175	0	32847	32672	
176	0	33084	32856	
177	0	33160	32775	
178	0	33152	32807	
179	0	32900	32760	
180	0	32576	32758	
181	0	32408	32848	
182	0	32564	32738	
183	0	32554	32714	
184	0	32638	32804	
185	0	32640	32770	
186	0	32856	32756	
187	0	32840	32665	
188	0	32872	32786	
189	0	32858	32760	
190	0	32740	32799	
191	0	32908	32687	
192	0	32761	32774	
193	0	32786	32726	
194	0	32802	32704	
195	0	32832	32774	
196	0	32828	32786	
197	0	32884	32740	
198	0	32812	32702	
199	0	32820	32764	
200	0	32764	32800	
201	0	32752	32716	
202	0	32811	32838	
203	0	32752	32760	
204	0	32848	32803	
205	0	32780	32646	
206	0	32824	32850	
207	0	32826	32810	
208	0	32780	32820	
209	0	32790	32724	
210	0	32870	32862	
211	0	32804	32808	
212	0	32748	32862	
213	0	32836	32688	
214	0	32848	32740	
215	0	32812	32786	
216	0	32824	32748	
217	0	32830	32655	
218	0	32750	32682	
219	0	32780	32798	
220	0	32802	32684	
221	0	32756	32872	
222	0	32722	32670	
223	0	32796	32796	
224	0	32772	32775	
225	0	32764	32692	
226	0	32754	32824	
227	0	32800	32750	
228	0	32804	32870	
229	0	32824	32775	
230	0	32856	32814	
231	0	32804	32784	
232	0	32746	32738	
233	0	32898	32720	
234	0	32872	32788	
235	0	32900	32802	
236	0	32840	32642	
237	0	32716	32804	
238	0	32688	32774	
239	0	32814	32710	
240	0	32798	32844	
241	0	32774	32737	
242	0	32792	32720	
243	0	32872	32687	
244	0	32848	32847	
245	0	32868	32892	
246	0	32849	32752	
247	0	32856	32850	
248	0	32896	32906	
249	0	32884	32742	
250	0	32824	32800	
251	0	32828	32824	
252	0	32788	32856	
253	0	32852	32633	
254	0	32868	32774	
255	0	32816	32758	
256	0	32732	32708	
257	0	32758	32564	
258	0	32790	32696	
259	0	32822	32775	
260	0	32846	32807	
261	0	32832	32642	
262	0	32760	32775	
263	0	32796	32764	
264	0	32777	32916	
265	0	32848	32864	
266	0	32800	32796	
267	0	32848	32705	
268	0	32720	32636	
269	0	32725	32798	
270	0	32716	32764	
271	0	32932	32686	
272	0	32904	32840	
273	0	32928	32775	
274	0	32920	32812	
275	0	32836	32666	
276	0	32840	32805	
277	0	32818	32820	
278	0	32634	32726	
279	0	32672	32714	
280	0	32824	32734	
281	0	32864	32772	
282	0	32830	32856	
283	0	32864	32718	
284	0	32834	32748	
285	0	32780	32852	
286	0	32820	32800	
287	0	32764	32654	
288	0	32766	32708	
289	0	32788	32711	
290	0	32860	32751	
291	0	32846	32615	
292	0	32884	32924	
293	0	32836	32906	
294	0	32792	33004	
295	0	32860	32936	
296	0	32772	33068	
297	0	32774	32826	
298	0	32800	32734	
299	0	32918	32698	
300	0	32938	32884	
301	0	32832	32770	
302	0	32808	32948	
303	0	32782	32911	
304	0	32764	32610	
305	0	32852	32695	
306	0	32853	32596	
307	0	32768	32295	
308	0	32720	32122	
309	0	32750	32212	
310	0	32832	32391	
311	0	32856	32519	
312	0	32840	32639	
313	0	32808	32764	
314	0	32760	32808	
315	0	32732	33132	
316	0	32726	33076	
317	0	32756	32873	
318	0	32834	33015	
319	0	32880	32972	
320	0	32790	32986	
321	0	32750	32876	
322	0	32800	32896	
323	0	32750	32952	
324	0	32740	32926	
325	0	32826	32820	
326	0	32732	32828	
327	0	32752	32876	
328	0	32860	32702	
329	0	32924	32775	
330	0	33016	32746	
331	0	33008	32703	
332	0	32896	32612	
333	0	32862	32698	
334	0	32953	32612	
335	0	32956	32596	
336	0	33080	32496	
337	0	33040	32676	
338	0	33114	32672	
339	0	32894	32644	
340	0	32774	32640	
341	0	32800	32702	
342	0	32716	32718	
343	0	32756	32663	
344	0	32860	32704	
345	0	32832	32702	
346	0	32908	32644	
347	0	32920	32775	
348	0	32752	32814	
349	0	32676	32894	
350	0	32740	32816	
351	0	32652	32886	
352	0	32728	32893	
353	0	32608	32894	
354	0	32592	33006	
355	0	32546	33060	
356	0	32492	33094	
357	0	32432	33076	
358	0	32486	33086	
359	0	32548	33048	
360	0	32604	33056	
361	0	32642	32919	
362	0	32666	33042	
363	0	32684	32876	
364	0	32756	32938	
365	0	32736	32682	
366	0	32860	32841	
367	0	32810	32634	
368	0	32896	32596	
369	0	32932	32452	
370	0	32896	32614	
371	0	32980	32668	
372	0	32914	32775	
373	0	33008	32644	
374	0	32960	32679	
375	0	32908	32564	
376	0	32872	32584	
377	0	32988	32430	
378	0	32892	32576	
379	0	32944	32740	
380	0	32896	32823	
381	0	32808	32772	
382	0	32848	32653	
383	0	32868	32711	
384	0	32836	32804	
385	0	32788	32684	
386	0	32880	32624	
387	0	32808	32751	
388	0	32848	32888	
389	0	32780	32694	
390	0	32708	32722	
391	0	32752	32792	
392	0	32790	32802	
393	0	32826	32708	
394	0	32792	32752	
395	0	32808	32742	
396	0	32900	32756	
397	0	32828	32686	
398	0	32840	32724	
399	0	32824	32775	
400	0	32752	32820	
401	0	32848	32662	
402	0	32880	32834	
403	0	32852	32746	
404	0	32860	32801	
405	0	32798	32718	
406	0	32892	32734	
407	0	32920	32696	
408	0	32866	32756	
409	0	32724	32773	
410	0	32684	32660	
411	0	32712	32824	
412	0	32812	32759	
413	0	32808	32848	
414	0	32828	32708	
415	0	32794	32692	
416	0	32874	32786	
417	0	32788	32775	
418	0	32826	32820	
419	0	32808	32844	
420	0	32882	32772	
421	0	32832	32734	
422	0	32844	32896	
423	0	32768	32848	
424	0	32772	32810	
425	0	32784	32878	
426	0	32932	32816	
427	0	32854	32852	
428	0	32874	32816	
429	0	32820	32916	
430	0	32792	33072	
431	0	32864	32714	
432	0	32772	32881	
433	0	32770	32768	
434	0	32784	32707	
435	0	32776	32656	
436	0	32788	32687	
437	0	32804	32714	
438	0	32792	32590	
439	0	32808	32766	
440	0	32834	32796	
441	0	32846	32895	
442	0	32772	32934	
443	0	32786	32686	
444	0	32746	32576	
445	0	32872	32610	
446	0	32874	32548	
447	0	32820	32564	
448	0	32766	32684	
449	0	32800	32728	
450	0	32800	32710	
451	0	32788	32678	
452	0	32830	32916	
453	0	32794	32884	
454	0	32798	32879	
455	0	32820	32818	
456	0	32794	32800	
457	0	32712	32840	
458	0	32812	32810	
459	0	32838	32810	
460	0	32812	32640	
461	0	32764	32856	
462	0	32748	32848	
463	0	32784	32798	
464	0	32768	32688	
465	0	32848	32836	
466	0	32826	32800	
467	0	32740	32836	
468	0	32812	32798	
469	0	32816	32774	
470	0	32774	32788	
471	0	32788	32769	
472	0	32789	32808	
473	0	32860	32862	
474	0	32790	32734	
475	0	32896	32726	
476	0	32800	32952	
477	0	32780	32878	
478	0	32872	32832	
479	0	32792	32734	
480	0	32804	32512	
481	0	32796	32556	
482	0	32808	32856	
483	0	32752	32854	
484	0	32740	32775	
485	0	32726	32882	
486	0	32836	32800	
487	0	32856	33050	
488	0	32852	32885	
489	0	32850	32693	
490	0	32780	32548	
491	0	32816	32466	
492	0	32820	32814	
493	0	32824	32640	
494	0	32788	32503	
495	0	32824	32750	
496	0	32828	32942	
497	0	32816	32775	
498	0	32842	32554	
499	0	32864	32615	
500	0	32724	32660	
501	0	32804	32732	
502	0	32816	32620	
503	0	32802	32708	
504	0	32820	32820	
505	0	32852	32856	
506	0	32900	32920	
507	0	32836	32854	
508	0	32888	32772	
509	0	32840	32694	
510	0	32836	32742	
511	0	32884	32818	
512	0	32864	32798	
513	0	32808	32730	
514	0	32818	32796	
515	0	32784	32750	
516	0	32808	32830	
517	0	32812	32822	
518	0	32776	32672	
519	0	32764	32676	
520	0	32750	32770	
521	0	32812	32868	
522	0	32832	32700	
523	0	32808	32718	
524	0	32828	32847	
525	0	32776	32746	
526	0	32804	32856	
527	0	32768	32652	
528	0	32876	32796	
529	0	32808	32816	
530	0	32812	32766	
531	0	32775	32754	
532	0	32816	32714	
533	0	32802	32924	
534	0	32820	32899	
535	0	32834	32926	
536	0	32746	32810	
537	0	32792	33002	
538	0	32826	33004	
539	0	32878	33180	
540	0	32936	33062	
541	0	32800	32903	
542	0	32774	32914	
543	0	32814	32700	
544	0	32824	32472	
545	0	32840	32220	
546	0	32866	32190	
547	0	32854	32284	
548	0	32782	32638	
549	0	32734	32376	
550	0	32828	32206	
551	0	32840	32672	
552	0	32870	33480	
553	0	32824	34138	
554	0	32740	33550	
555	0	32668	33030	
556	0	32774	32814	
557	0	32780	32564	
558	0	32840	32238	
559	0	32708	32164	
560	0	32728	32174	
561	0	32834	32319	
562	0	32804	31767	
563	0	32764	32097	
564	0	32734	32446	
565	0	32830	32903	
566	0	32792	33198	
567	0	32852	33156	
568	0	32950	32954	
569	0	33008	32958	
570	0	33118	33046	
571	0	32976	33055	
572	0	32972	33012	
573	0	32898	32964	
574	0	32670	32943	
575	0	32558	32924	
576	0	32612	32726	
577	0	32612	32784	
578	0	32648	32775	
579	0	32702	32722	
580	0	32836	32812	
581	0	32836	32796	
582	0	32888	32500	
583	0	32844	32590	
584	0	32826	32516	
585	0	32848	32746	
586	0	32902	33170	
587	0	32826	32974	
588	0	32800	32819	
589	0	32814	32892	
590	0	32812	32711	
591	0	32732	32550	
592	0	32808	32602	
593	0	32816	32710	
594	0	32758	32818	
595	0	32824	32775	
596	0	32828	32680	
597	0	32788	32772	
598	0	32852	32880	
599	0	32820	32752	
600	0	32898	32567	
601	0	32826	32717	
602	0	32880	32842	
603	0	32776	32839	
604	0	32790	32837	
605	0	32892	32818	
606	0	32864	32954	
607	0	32868	32890	
608	0	32782	32950	
609	0	32740	32642	
610	0	32788	32697	
611	0	32868	33017	
612	0	32908	33378	
613	0	32988	33568	
614	0	32768	33530	
615	0	32752	33436	
616	0	32818	32860	
617	0	32612	32116	
618	0	32708	31970	
619	0	32720	32188	
620	0	32830	31904	
621	0	32792	31828	
622	0	32868	32716	
623	0	32764	32836	
624	0	32853	32100	
625	0	32724	31950	
626	0	32652	32174	
627	0	32808	33164	
628	0	32764	33610	
629	0	32748	33696	
630	0	32872	33516	
631	0	32908	32769	
632	0	32898	32417	
633	0	32868	32104	
634	0	32848	31950	
635	0	33086	32312	
636	0	33206	32356	
637	0	32852	32654	
638	0	32744	33156	
639	0	32776	33198	
640	0	32782	33116	
641	0	32682	32822	
642	0	32732	33004	
643	0	32712	32824	
644	0	32702	32724	
645	0	32644	32762	
646	0	32684	32604	
647	0	32860	32996	
648	0	32828	33095	
649	0	32801	32967	
650	0	32836	32678	
651	0	32808	32692	
652	0	32888	32688	
653	0	32820	32874	
654	0	32928	32750	
655	0	32848	32842	
656	0	32860	32802	
657	0	32768	32758	
658	0	32716	32748	
659	0	32776	32807	
660	0	32708	32714	
661	0	32880	32716	
662	0	32892	32786	
663	0	32828	32775	
664	0	32792	32668	
665	0	32792	32876	
666	0	32842	32750	
667	0	32846	32838	
668	0	32860	32770	
669	0	32774	32663	
670	0	32838	32771	
671	0	32810	32727	
672	0	32778	32748	
673	0	32790	32658	
674	0	32778	32674	
675	0	32706	32692	
676	0	32884	32768	
677	0	32920	32836	
678	0	32826	32911	
679	0	32740	32824	
680	0	32812	33000	
681	0	33048	33434	
682	0	32896	33428	
683	0	32728	33159	
684	0	32854	32856	
685	0	32738	32312	
686	0	32751	32308	
687	0	32670	31992	
688	0	32580	31593	
689	0	32604	31914	
690	0	32560	32492	
691	0	32670	33008	
692	0	32753	33310	
693	0	32776	33341	
694	0	32898	33178	
695	0	32948	32798	
696	0	33000	32679	
697	0	32772	32542	
698	0	32768	32756	
699	0	32772	33024	
700	0	32884	33018	
701	0	32868	33178	
702	0	32942	32580	
703	0	33228	32200	
704	0	33138	32162	
705	0	32964	32076	
706	0	32940	32528	
707	0	32908	32870	
708	0	32824	33054	
709	0	32728	33063	
710	0	32692	32842	
711	0	32504	32860	
712	0	32550	32836	
713	0	32720	32850	
714	0	32656	32893	
715	0	32742	32702	
716	0	32756	32900	
717	0	32824	32734	
718	0	32816	33006	
719	0	32832	32986	
720	0	32804	32798	
721	0	32870	32854	
722	0	32804	32724	
723	0	32798	32568	
724	0	32810	32530	
725	0	32784	32596	
726	0	32803	32940	
727	0	32834	32876	
728	0	32770	32894	
729	0	32784	32754	
730	0	32880	32726	
731	0	32912	32933	
732	0	32836	32770	
733	0	32772	32766	
734	0	32804	32683	
735	0	32816	32818	
736	0	32794	32814	
737	0	32726	32704	
738	0	32796	32774	
739	0	32744	32838	
740	0	32798	32680	
741	0	32792	32746	
742	0	32910	32861	
743	0	32808	32762	
744	0	32812	32804	
745	0	32872	32690	
746	0	32866	32714	
747	0	32820	32833	
748	0	32766	32858	
749	0	32748	32671	
750	0	32816	32728	
751	0	32752	32799	
752	0	32836	32847	
753	0	32856	32682	
754	0	32868	32774	
755	0	32746	32692	
756	0	32804	32810	
757	0	32804	32698	
758	0	32740	32678	
759	0	32808	32689	
760	0	32874	32784	
761	0	32840	32725	
762	0	32834	32863	
763	0	32822	32757	
764	0	32816	32858	
765	0	32776	32746	
766	0	32910	32718	
767	0	32794	32826	
768	0	32792	32739	
769	0	32812	32799	
770	0	32814	32686	
771	0	32816	32828	
772	0	32832	32812	
773	0	32874	32748	
774	0	32858	32818	
775	0	32798	32708	
776	0	32794	32752	
777	0	32810	32775	
778	0	32849	32775	
779	0	32766	32679	
780	0	32846	32804	
781	0	32806	32820	
782	0	32784	32866	
783	0	32768	32662	
784	0	32784	32831	
785	0	32782	32840	
786	0	32756	32852	
787	0	32834	32676	
788	0	32866	32804	
789	0	32808	32712	
790	0	32732	32775	
791	0	32782	32707	
792	0	32810	32807	
793	0	32816	32840	
794	0	32828	32734	
795	0	32744	32807	
796	0	32836	32825	
797	0	32772	32800	
798	0	32820	32724	
799	0	32796	32768	
800	0	32844	32821	
801	0	32876	32722	
802	0	32968	32840	
803	0	32968	32726	
804	0	32906	32840	
805	0	32730	32674	
806	0	32708	32724	
807	0	32548	32764	
808	0	32576	32838	
809	0	32616	32700	
810	0	32644	32647	
811	0	32738	32720	
812	0	32800	32775	
813	0	32880	32732	
814	0	32844	32702	
815	0	32790	32916	
816	0	32914	32775	
817	0	32888	32814	
818	0	32800	32768	
819	0	32816	32718	
820	0	32864	32814	
821	0	32804	32718	
822	0	32824	32786	
823	0	32780	32764	
824	0	32804	32894	
825	0	32814	32812	
826	0	32856	32766	
827	0	32892	32671	
828	0	32910	32656	
829	0	32842	32738	
830	0	32848	32830	
831	0	32816	32682	
832	0	32788	32654	
833	0	32748	32711	
834	0	32784	32804	
835	0	32814	32816	
836	0	32896	32848	
837	0	32884	32698	
838	0	32852	32803	
839	0	32864	33022	
840	0	32744	32844	
841	0	32742	32756	
842	0	32768	32598	
843	0	32632	32758	
844	0	32774	32695	
845	0	32713	32640	
846	0	32896	32536	
847	0	33036	32748	
848	0	32998	32710	
849	0	32896	32726	
850	0	32810	32690	
851	0	32676	32966	
852	0	32552	32914	
853	0	32658	32879	
854	0	32756	32820	
855	0	32792	32863	
856	0	32836	32968	
857	0	32796	32934	
858	0	32862	32792	
859	0	32800	32647	
860	0	32886	32788	
861	0	32936	32896	
862	0	32874	32775	
863	0	32852	32720	
864	0	32816	32796	
865	0	32858	32692	
866	0	32728	32836	
867	0	32738	32580	
868	0	32740	32759	
869	0	32812	32759	
870	0	32858	32750	
871	0	32876	32716	
872	0	32860	32812	
873	0	32864	32780	
874	0	32876	32796	
875	0	32788	32756	
876	0	32814	32738	
877	0	32794	32775	
878	0	32798	32687	
879	0	32764	32810	
880	0	32822	32790	
881	0	32840	32863	
882	0	32774	32839	
883	0	32828	32698	
884	0	32882	32682	
885	0	32876	32772	
886	0	32868	32834	
887	0	32832	32810	
888	0	32840	32726	
889	0	32788	32816	
890	0	32784	32762	
891	0	32752	32775	
892	0	32890	32696	
893	0	32849	32796	
894	0	32760	32962	
895	0	32744	32967	
896	0	32800	32694	
897	0	32828	32738	
898	0	32852	32768	
899	0	32760	32678	
900	0	32822	32560	
901	0	32828	32535	
902	0	32800	32519	
903	0	32880	32750	
904	0	32806	32624	
905	0	32802	32662	
906	0	32854	32814	
907	0	32808	32734	
908	0	32824	32848	
909	0	32836	32868	
910	0	32836	32812	
911	0	32828	32878	
912	0	32766	32812	
913	0	32788	32886	
914	0	32804	32807	
915	0	32790	32804	
916	0	32804	32862	
917	0	32828	32806	
918	0	32774	32710	
919	0	32830	32676	
920	0	32814	32760	
921	0	32746	32743	
922	0	32780	32846	
923	0	32824	32726	
924	0	32846	32850	
925	0	32766	32760	
926	0	32808	32791	
927	0	32836	32664	
928	0	32860	32662	
929	0	32864	32832	
930	0	32736	32775	
931	0	32808	32724	
932	0	32746	32696	
933	0	32756	32840	
934	0	32800	32788	
935	0	32824	32839	
936	0	32848	32647	
937	0	32852	32871	
938	0	32880	32804	
939	0	32846	32853	
940	0	32896	32758	
941	0	32860	32708	
942	0	32856	32802	
943	0	32784	32743	
944	0	32768	32694	
945	0	32752	32718	
946	0	32706	32700	
947	0	32796	32799	
948	0	32844	32716	
949	0	32862	32752	
950	0	32860	32702	
951	0	32866	32798	
952	0	32928	32744	
953	0	32800	32722	
954	0	32880	32775	
955	0	32836	32796	
956	0	32816	32719	
957	0	32816	32670	
958	0	32836	32736	
959	0	32772	32785	
960	0	32800	32775	
961	0	32864	32846	
962	0	32816	32689	
963	0	32806	32718	
964	0	32768	32690	
965	0	32806	32712	
966	0	32822	32822	
967	0	32844	32775	
968	0	32820	32712	
969	0	32780	32682	
970	0	32754	32759	
971	0	32820	32846	
972	0	32808	32719	
973	0	32768	32848	
974	0	32800	32814	
975	0	32796	32775	
976	0	32782	32668	
977	0	32826	32818	
978	0	32880	32846	
979	0	32832	32850	
980	0	32768	32764	
981	0	32808	32718	
982	0	32721	32766	
983	0	32724	32647	
984	0	32716	32582	
985	0	32784	32598	
986	0	32802	32686	
987	0	32752	32732	
988	0	32796	32828	
989	0	32732	32716	
990	0	32896	32868	
991	0	32842	32844	
992	0	32860	32834	
993	0	32838	32820	
994	0	32832	32732	
995	0	32844	32826	
996	0	32740	32838	
997	0	32820	32703	
998	0	32828	32762	
999	0	32872	32775	
1000	0	32820	32750	
1001	0	32772	32716	
1002	0	32824	32694	
1003	0	32768	32791	
1004	0	32764	32734	
1005	0	32728	32684	
1006	0	32756	32794	
1007	0	32864	32842	
1008	0	32832	32847	
1009	0	32856	32792	
1010	0	32820	32676	
1011	0	32780	32807	
1012	0	32838	32678	
1013	0	32832	32773	
1014	0	32818	32718	
1015	0	32728	32884	
1016	0	32754	32732	
1017	0	32792	32820	
1018	0	32778	32743	
1019	0	32808	32743	
1020	0	32752	32842	
1021	0	32792	32803	
1022	0	32714	32700	
1023	0	32832	32679	
1024	0	32840	32750	
1025	0	32800	32804	
1026	0	32866	32679	
1027	0	32776	32788	
1028	0	32776	32814	
1029	0	32817	32702	
1030	0	32796	32874	
1031	0	32794	32824	
1032	0	32769	32807	
1033	0	32756	32775	
1034	0	32864	32807	
1035	0	32846	32684	
1036	0	32876	32870	
1037	0	32744	32638	
1038	0	32788	32770	
1039	0	32828	32720	
1040	0	32828	32750	
1041	0	32860	32808	
1042	0	32804	32820	
1043	0	32736	32800	
1044	0	32808	32828	
1045	0	32840	32806	
1046	0	32810	32690	
1047	0	32820	32807	
1048	0	32772	32794	
1049	0	32822	32844	
1050	0	32700	32718	
1051	0	32812	32775	
1052	0	32804	32822	
1053	0	32814	32718	
1054	0	32828	32738	
1055	0	32776	32770	
1056	0	32788	32828	
1057	0	32786	32852	
1058	0	32824	32790	
1059	0	32814	32847	
1060	0	32862	32759	
1061	0	32880	32622	
1062	0	32828	32626	
1063	0	32876	32666	
1064	0	32908	32692	
1065	0	32944	32518	
1066	0	33052	32580	
1067	0	32994	32620	
1068	0	33030	32506	
1069	0	32956	32728	
1070	0	32938	32644	
1071	0	32886	32713	
1072	0	32836	32670	
1073	0	32868	32764	
1074	0	32888	32775	
1075	0	32856	32658	
1076	0	32960	32682	
1077	0	32910	32644	
1078	0	32832	32646	
1079	0	32812	32848	
1080	0	32738	32900	
1081	0	32660	32932	
1082	0	32668	32815	
1083	0	32636	32854	
1084	0	32636	32889	
1085	0	32588	33154	
1086	0	32540	33038	
1087	0	32548	33104	
1088	0	32504	33016	
1089	0	32484	33116	
1090	0	32572	33127	
1091	0	32596	33094	
1092	0	32556	32896	
1093	0	32668	32895	
1094	0	32736	32922	
1095	0	32698	32999	
1096	0	32738	32866	
1097	0	32812	32755	
1098	0	32868	32678	
1099	0	32834	32762	
1100	0	32896	32670	
1101	0	33000	32654	
1102	0	32988	32594	
1103	0	32940	32582	
1104	0	32976	32556	
1105	0	33012	32586	
1106	0	32900	32678	
1107	0	32938	32708	
1108	0	32924	32775	
1109	0	32921	32647	
1110	0	32884	32588	
1111	0	32876	32636	
1112	0	32930	32730	
1113	0	32868	32794	
1114	0	32822	32775	
1115	0	32810	32662	
1116	0	32842	32775	
1117	0	32844	32724	
1118	0	32792	32823	
1119	0	32848	32698	
1120	0	32816	32703	
1121	0	32760	32839	
1122	0	32826	32736	
1123	0	32792	32842	
1124	0	32844	32674	
1125	0	32806	32646	
1126	0	32800	32699	
1127	0	32816	32832	
1128	0	32856	32712	
1129	0	32748	32760	
1130	0	32790	32760	
1131	0	32840	32688	
1132	0	32856	32676	
1133	0	32792	32806	
1134	0	32794	32754	
1135	0	32812	32839	
1136	0	32797	32772	
1137	0	32788	32744	
1138	0	32784	32770	
1139	0	32912	32849	
1140	0	32878	32834	
1141	0	32768	32622	
1142	0	32776	32854	
1143	0	32804	32820	
1144	0	32794	32759	
1145	0	32744	32752	
1146	0	32782	32740	
1147	0	32772	32676	
1148	0	32840	32846	
1149	0	32884	32774	
1150	0	32808	32726	
1151	0	32892	32746	
1152	0	32822	32821	
1153	0	32796	32788	
1154	0	32836	32668	
1155	0	32796	32698	
1156	0	32804	32743	
1157	0	32770	32729	
1158	0	32812	32775	
1159	0	32852	32594	
1160	0	32796	32692	
1161	0	32828	32820	
1162	0	32778	32812	
1163	0	32828	32848	
1164	0	32820	32680	
1165	0	32864	32804	
1166	0	32775	32871	
1167	0	32780	32736	
1168	0	32744	32711	
1169	0	32844	32804	
1170	0	32888	32820	
1171	0	32806	32728	
1172	0	32788	32698	
1173	0	32792	32692	
1174	0	32768	32769	
1175	0	32800	32775	
1176	0	32848	32764	
1177	0	32816	32852	
1178	0	32744	32762	
1179	0	32784	32826	
1180	0	32856	32748	
1181	0	32796	32796	
1182	0	32812	32798	
1183	0	32852	32736	
1184	0	32776	32807	
1185	0	32820	32700	
1186	0	32734	32737	
1187	0	32816	32736	
1188	0	32880	32807	
1189	0	32808	32807	
1190	0	32732	32702	
1191	0	32868	32738	
1192	0	32772	32830	
1193	0	32804	32767	
1194	0	32770	32823	
1195	0	32832	32750	
1196	0	32750	32766	
1197	0	32848	32667	
1198	0	32778	32742	
1199	0	32807	32738	
1200	0	32834	32822	
1201	0	32787	32676	
1202	0	32828	32606	
1203	0	32776	32801	
1204	0	32848	32732	
1205	0	32840	32706	
1206	0	32828	32775	
1207	0	32836	32810	
1208	0	32758	32724	
1209	0	32864	32880	
1210	0	32828	32839	
1211	0	32828	32818	
1212	0	32810	32762	
1213	0	32816	32703	
1214	0	32776	32838	
1215	0	32844	32762	
1216	0	32864	32852	
1217	0	32824	32806	
1218	0	32856	32694	
1219	0	32764	32718	
1220	0	32834	32797	
1221	0	32814	32852	
1222	0	32760	32838	
1223	0	32832	32670	
1224	0	32744	32698	
1225	0	32768	32742	
1226	0	32816	32758	
1227	0	32856	32804	
1228	0	32878	32703	
1229	0	32772	32687	
1230	0	32826	32820	
1231	0	32782	32804	
1232	0	32740	32810	
1233	0	32824	32838	
1234	0	32820	32715	
1235	0	32856	32780	
1236	0	32796	32740	
1237	0	32832	32818	
1238	0	32816	32711	
1239	0	32828	32705	
1240	0	32798	32770	
1241	0	32808	32834	
1242	0	32703	32814	
1243	0	32804	32703	
1244	0	32796	32823	
1245	0	32825	32768	
1246	0	32824	32754	
1247	0	32832	32810	
1248	0	32826	32742	
1249	0	32832	32686	
1250	0	32792	32775	
1251	0	32756	32720	
1252	0	32816	32806	
1253	0	32792	32674	
1254	0	32864	32818	
1255	0	32782	32774	
1256	0	32828	32792	
1257	0	32820	32694	
1258	0	32880	32834	
1259	0	32824	32775	
1260	0	32756	32798	
1261	0	32844	32720	
1262	0	32826	32794	
1263	0	32788	32711	
1264	0	32810	32881	
1265	0	32850	32668	
1266	0	32888	32664	
1267	0	32804	32587	
1268	0	32756	32694	
1269	0	32780	32735	
1270	0	32840	32898	
1271	0	32816	32856	
1272	0	32822	32732	
1273	0	32810	32790	
1274	0	32804	32862	
1275	0	32786	32787	
1276	0	32844	32832	
1277	0	32847	32708	
1278	0	32854	32682	
1279	0	32780	32807	
1280	0	32782	32850	
1281	0	32790	32658	
1282	0	32748	32800	
1283	0	32784	32817	
1284	0	32852	32742	
1285	0	32868	32812	
1286	0	32820	32722	
1287	0	32892	32807	
1288	0	32816	32728	
1289	0	32806	32866	
1290	0	32852	32802	
1291	0	32838	32752	
1292	0	32792	32714	
1293	0	32812	32718	
1294	0	32836	32798	
1295	0	32768	32647	
1296	0	32784	32700	
1297	0	32848	32932	
1298	0	32836	32704	
1299	0	32788	32896	
1300	0	32850	32838	
1301	0	32780	32844	
1302	0	32812	32624	
1303	0	32748	32732	
1304	0	32810	32708	
1305	0	32760	32639	
1306	0	32836	32798	
1307	0	32862	32897	
1308	0	32840	32820	
1309	0	32748	32838	
1310	0	32775	32775	
1311	0	32808	32812	
1312	0	32792	32724	
1313	0	32752	32806	
1314	0	32812	32760	
1315	0	32818	32775	
1316	0	32854	32700	
1317	0	32816	32868	
1318	0	32820	32726	
1319	0	32792	32870	
1320	0	32746	32694	
1321	0	32792	32822	
1322	0	32788	32854	
1323	0	32800	32676	
1324	0	32798	32838	
1325	0	32820	32833	
1326	0	32816	32646	
1327	0	32784	32808	
1328	0	32832	32822	
1329	0	32784	32756	
1330	0	32801	32696	
1331	0	32790	32874	
1332	0	32788	32775	
1333	0	32796	32660	
1334	0	32792	32828	
1335	0	32824	32775	
1336	0	32784	32844	
1337	0	32820	32646	
1338	0	32792	32871	
1339	0	32792	32800	
1340	0	32798	32668	
1341	0	32824	32834	
1342	0	32804	32812	
1343	0	32808	32802	
1344	0	32738	32727	
1345	0	32808	32858	
1346	0	32744	32828	
1347	0	32800	32858	
1348	0	32836	32600	
1349	0	32832	32755	
1350	0	32796	32744	
1351	0	32832	32697	
1352	0	32830	32679	
1353	0	32824	32834	
1354	0	32880	32742	
1355	0	32748	32903	
1356	0	32740	32688	
1357	0	32860	32798	
1358	0	32812	32720	
1359	0	32816	32736	
1360	0	32814	32676	
1361	0	32812	32774	
1362	0	32794	32767	
1363	0	32824	32775	
1364	0	32860	32823	
1365	0	32775	32711	
1366	0	32880	32788	
1367	0	32842	32804	
1368	0	32864	32630	
1369	0	32806	32903	
1370	0	32836	32726	
1371	0	32824	32852	
1372	0	32784	32774	
1373	0	32870	32735	
1374	0	32824	32775	
1375	0	32808	32742	
1376	0	32896	32692	
1377	0	32820	32838	
1378	0	32848	32732	
1379	0	32752	32852	
1380	0	32772	32734	
1381	0	32716	32676	
1382	0	32762	32824	
1383	0	32832	32764	
1384	0	32878	32775	
1385	0	32812	32790	
1386	0	32808	32710	
1387	0	32810	32754	
1388	0	32748	32752	
1389	0	32820	32754	
1390	0	32816	32812	
1391	0	32836	32678	
1392	0	32892	32811	
1393	0	32860	32716	
1394	0	32836	32860	
1395	0	32794	32694	
1396	0	32820	32756	
1397	0	32768	32798	
1398	0	32878	32702	
1399	0	32828	32836	
1400	0	32824	32742	
1401	0	32837	32808	
1402	0	32822	32836	
1403	0	32782	32736	
1404	0	32810	32832	
1405	0	32788	32724	
1406	0	32848	32708	
1407	0	32836	32775	
1408	0	32774	32708	
1409	0	32804	32782	
1410	0	32836	32664	
1411	0	32788	32818	
1412	0	32788	32687	
1413	0	32820	32692	
1414	0	32772	32656	
1415	0	32785	32775	
1416	0	32775	32855	
1417	0	32808	32737	
1418	0	32820	32804	
1419	0	32792	32644	
1420	0	32842	32830	
1421	0	32816	32800	
1422	0	32810	32886	
1423	0	32796	32714	
1424	0	32900	32692	
1425	0	32800	32743	
1426	0	32788	32844	
1427	0	32804	32732	
1428	0	32816	32800	
1429	0	32848	32711	
1430	0	32858	32692	
1431	0	32904	32762	
1432	0	32791	32758	
1433	0	32780	32718	
1434	0	32754	32790	
1435	0	32784	32756	
1436	0	32788	32898	
1437	0	32792	32874	
1438	0	32778	32775	
1439	0	32800	32693	
1440	0	32828	32686	
1441	0	32828	32682	
1442	0	32782	32653	
1443	0	32858	32648	
1444	0	32792	32775	
1445	0	32832	32847	
1446	0	32828	32823	
1447	0	32876	32810	
1448	0	32836	32820	
1449	0	32806	32853	
1450	0	32798	32723	
1451	0	32814	32775	
1452	0	32812	32704	
1453	0	32840	32772	
1454	0	32906	32646	
1455	0	32976	32798	
1456	0	32942	32820	
1457	0	32864	32846	
1458	0	32902	32710	
1459	0	32896	32878	
1460	0	32752	32760	
1461	0	32560	32743	
1462	0	32576	32754	
1463	0	32740	32719	
1464	0	32696	32834	
1465	0	32800	32759	
1466	0	32804	32756	
1467	0	32764	32672	
1468	0	32760	32802	
1469	0	32732	32724	
1470	0	32768	32735	
1471	0	32842	32879	
1472	0	32960	32824	
1473	0	32892	32774	
1474	0	32784	32660	
1475	0	32742	32775	
1476	0	32776	32759	
1477	0	32792	32664	
1478	0	32876	32808	
1479	0	32848	32775	
1480	0	32836	32688	
1481	0	32820	32834	
1482	0	32794	32758	
1483	0	32808	32665	
1484	0	32808	32748	
1485	0	32788	32702	
1486	0	32836	32750	
1487	0	32776	32756	
1488	0	32892	32852	
1489	0	32824	32814	
1490	0	32856	32732	
1491	0	32836	32768	
1492	0	32868	32654	
1493	0	32856	32814	
1494	0	32808	32806	
1495	0	32840	32830	
1496	0	32704	32678	
1497	0	32834	32796	
1498	0	32806	32802	
1499	0	32806	32758	
1500	0	32824	32711	
1501	0	32752	32824	
1502	0	32796	32732	
1503	0	32830	32760	
1504	0	32832	32742	
1505	0	32848	32698	
1506	0	32834	32830	
1507	0	32836	32710	
1508	0	32900	32804	
1509	0	32838	32854	
1510	0	32888	32682	
1511	0	32824	32751	
1512	0	32808	32784	
1513	0	32850	32787	
1514	0	32794	32694	
1515	0	32784	32658	
1516	0	32816	32796	
1517	0	32790	32760	
1518	0	32750	32754	
1519	0	32740	32804	
1520	0	32772	32764	
1521	0	32798	32703	
1522	0	32808	32806	
1523	0	32856	32782	
1524	0	32764	32729	
1525	0	32822	32711	
1526	0	32898	32852	
1527	0	32904	32765	
1528	0	32846	32734	
1529	0	32872	32716	
1530	0	32836	32732	
1531	0	32836	32828	
1532	0	32734	32824	
1533	0	32704	32838	
1534	0	32718	32752	
1535	0	32846	32802	
1536	0	32844	32768	
1537	0	32790	32666	
1538	0	32792	32730	
1539	0	32770	32712	
1540	0	32762	32798	
1541	0	32890	32818	
1542	0	32878	32738	
1543	0	32940	32838	
1544	0	32896	32674	
1545	0	32796	32742	
1546	0	32704	32743	
1547	0	32716	32832	
1548	0	32868	32768	
1549	0	32744	32658	
1550	0	32880	32806	
1551	0	33104	32820	
1552	0	33000	32682	
1553	0	32878	32763	
1554	0	32896	32768	
1555	0	32728	32720	
1556	0	32653	32740	
1557	0	32788	32808	
1558	0	32884	32848	
1559	0	32890	32758	
1560	0	32756	32820	
1561	0	32600	32818	
1562	0	32238	32734	
1563	0	32112	32722	
1564	0	32520	32828	
1565	0	32794	32718	
1566	0	32828	32775	
1567	0	32838	32736	
1568	0	32856	32718	
1569	0	32812	32768	
1570	0	32870	32804	
1571	0	32936	32687	
1572	0	32960	32867	
1573	0	33022	32719	
1574	0	32998	32810	
1575	0	32962	32668	
1576	0	32918	32732	
1577	0	32878	32732	
1578	0	32852	32900	
1579	0	32778	32886	
1580	0	32784	32767	
1581	0	32736	32716	
1582	0	32780	32759	
1583	0	32808	32816	
1584	0	32810	32647	
1585	0	32800	32684	
1586	0	32800	32631	
1587	0	32775	32806	
1588	0	32850	32700	
1589	0	32780	32942	
1590	0	32864	32788	
1591	0	32804	32746	
1592	0	32794	32818	
1593	0	32818	32792	
1594	0	32796	32748	
1595	0	32764	32836	
1596	0	32820	32796	
1597	0	32888	32720	
1598	0	32848	32720	
1599	0	32838	32740	
1600	0	32922	32732	
1601	0	32960	32614	
1602	0	32888	32872	
1603	0	32828	32856	
1604	0	32956	32642	
1605	0	32844	32838	
1606	0	32670	32726	
1607	0	32590	32806	
1608	0	32652	32693	
1609	0	32848	32775	
1610	0	32970	32775	
1611	0	32839	32775	
1612	0	32756	32800	
1613	0	32612	32830	
1614	0	32612	32772	
1615	0	32616	32775	
1616	0	32842	33006	
1617	0	32942	32792	
1618	0	32710	32900	
1619	0	32304	32928	
1620	0	32456	33078	
1621	0	32576	32980	
1622	0	32672	32546	
1623	0	33016	32420	
1624	0	33240	32263	
1625	0	33228	32324	
1626	0	33144	32318	
1627	0	32996	32592	
1628	0	32876	32692	
1629	0	32862	32991	
1630	0	32948	32846	
1631	0	32932	33064	
1632	0	33208	32956	
1633	0	33152	33008	
1634	0	33054	32854	
1635	0	32820	32852	
1636	0	32460	32870	
1637	0	32184	32816	
1638	0	32102	32792	
1639	0	32246	32742	
1640	0	32516	32598	
1641	0	32736	32454	
1642	0	32976	32348	
1643	0	33108	32496	
1644	0	33282	32582	
1645	0	33156	32834	
1646	0	32924	32926	
1647	0	32696	32884	
1648	0	32648	32848	
1649	0	32528	32903	
1650	0	32800	32963	
1651	0	33080	32808	
1652	0	32952	32807	
1653	0	33196	32844	
1654	0	33272	32715	
1655	0	33216	32610	
1656	0	32508	32686	
1657	0	32100	32672	
1658	0	32134	32592	
1659	0	32512	32711	
1660	0	32580	32794	
1661	0	32802	32738	
1662	0	32856	32862	
1663	0	33008	32806	
1664	0	32944	32810	
1665	0	32696	32775	
1666	0	32516	32866	
1667	0	32332	32896	
1668	0	32432	32858	
1669	0	32872	32882	
1670	0	32920	32874	
1671	0	32914	32922	
1672	0	32752	32718	
1673	0	32788	32784	
1674	0	33028	32794	
1675	0	33160	32714	
1676	0	33130	32675	
1677	0	33276	32647	
1678	0	33448	32652	
1679	0	33252	32612	
1680	0	32964	32548	
1681	0	32896	32682	
1682	0	33072	32839	
1683	0	32546	32919	
1684	0	32372	32930	
1685	0	32456	32818	
1686	0	32896	32852	
1687	0	32954	32775	
1688	0	32628	32783	
1689	0	32366	32686	
1690	0	32032	32724	
1691	0	31588	32624	
1692	0	31700	32727	
1693	0	32488	32670	
1694	0	33008	32814	
1695	0	33072	32934	
1696	0	33222	32874	
1697	0	33450	32998	
1698	0	33660	32924	
1699	0	33614	32870	
1700	0	33296	32884	
1701	0	33084	32864	
1702	0	32850	32584	
1703	0	32400	32476	
1704	0	32416	32668	
1705	0	32494	32652	
1706	0	32804	32612	
1707	0	33156	32620	
1708	0	33190	32646	
1709	0	33070	32716	
1710	0	32908	32806	
1711	0	32892	32818	
1712	0	32880	32874	
1713	0	32716	32775	
1714	0	32736	32770	
1715	0	32628	32836	
1716	0	32736	32775	
1717	0	32582	32762	
1718	0	32740	32736	
1719	0	32816	32662	
1720	0	32904	32736	
1721	0	32935	32790	
1722	0	32996	32775	
1723	0	32988	32850	
1724	0	33028	32636	
1725	0	32884	32654	
1726	0	32860	32775	
1727	0	32940	32760	
1728	0	32804	32855	
1729	0	33020	32775	
1730	0	33254	32840	
1731	0	33468	32775	
1732	0	33396	32800	
1733	0	33052	32736	
1734	0	32512	32660	
1735	0	32182	32751	
1736	0	32148	32740	
1737	0	32048	32764	
1738	0	31824	32564	
1739	0	31558	32692	
1740	0	31646	32802	
1741	0	31893	32898	
1742	0	32344	32773	
1743	0	33172	32884	
1744	0	33464	32792	
1745	0	33448	32775	
1746	0	33560	32740	
1747	0	33408	32814	
1748	0	33026	32828	
1749	0	32904	32806	
1750	0	32976	32682	
1751	0	33188	32775	
1752	0	33134	32762	
1753	0	32974	32856	
1754	0	32912	32662	
1755	0	33000	32712	
1756	0	32890	32756	
1757	0	32612	32774	
1758	0	32688	32788	
1759	0	32716	32803	
1760	0	32608	32830	
1761	0	32496	32760	
1762	0	32668	32666	
1763	0	32760	32794	
1764	0	32944	32658	
1765	0	32832	32673	
1766	0	32768	32551	
1767	0	32904	32775	
1768	0	32956	32936	
1769	0	33016	32794	
1770	0	32864	32806	
1771	0	32784	32812	
1772	0	33290	32750	
1773	0	33406	32714	
1774	0	33588	32799	
1775	0	33294	32784	
1776	0	32956	32716	
1777	0	32724	32692	
1778	0	32500	32556	
1779	0	32340	32340	
1780	0	32208	32445	
1781	0	32266	32560	
1782	0	32560	32608	
1783	0	32714	32772	
1784	0	32775	32760	
1785	0	33202	32740	
1786	0	33198	32654	
1787	0	33444	32870	
1788	0	33610	32775	
1789	0	33773	32652	
1790	0	32930	32786	
1791	0	32330	32820	
1792	0	32204	32846	
1793	0	32276	32823	
1794	0	31968	32839	
1795	0	31984	32934	
1796	0	31912	32923	
1797	0	32228	33090	
1798	0	32704	33166	
1799	0	32874	33181	
1800	0	32910	33028	
1801	0	32786	33147	
1802	0	32760	33054	
1803	0	32568	32920	
1804	0	32354	32895	
1805	0	32622	32910	
1806	0	33456	32788	
1807	0	33380	32800	
1808	0	33270	32722	
1809	0	32928	32686	
1810	0	32788	32684	
1811	0	32730	32578	
1812	0	32944	32647	
1813	0	33330	32646	
1814	0	33096	32560	
1815	0	32752	32674	
1816	0	32064	32551	
1817	0	31832	32564	
1818	0	32512	32711	
1819	0	32876	32802	
1820	0	32916	32770	
1821	0	33152	32692	
1822	0	33000	32642	
1823	0	33088	32662	
1824	0	32996	32630	
1825	0	32992	32578	
1826	0	32831	32580	
1827	0	32880	32642	
1828	0	33036	32772	
1829	0	33260	32812	
1830	0	33292	32732	
1831	0	33224	32748	
1832	0	32852	32922	
1833	0	32548	32856	
1834	0	32692	32768	
1835	0	32852	32762	
1836	0	32916	32788	
1837	0	32766	32784	
1838	0	32458	32750	
1839	0	32560	32711	
1840	0	32602	32689	
1841	0	32608	32718	
1842	0	32344	32676	
1843	0	32616	32738	
1844	0	32772	32741	
1845	0	32708	32750	
1846	0	32532	32774	
1847	0	32520	32852	
1848	0	32706	32712	
1849	0	33144	32887	
1850	0	33380	32839	
1851	0	33376	32772	
1852	0	33166	32746	
1853	0	33092	32830	
1854	0	32984	32774	
1855	0	32908	32823	
1856	0	33016	32800	
1857	0	32980	32709	
1858	0	32897	32890	
1859	0	32684	32734	
1860	0	32398	32768	
1861	0	32404	32772	
1862	0	32370	32698	
1863	0	32620	32880	
1864	0	32696	32828	
1865	0	32776	32770	
1866	0	32720	32639	
1867	0	32808	32678	
1868	0	33206	32836	
1869	0	33120	32718	
1870	0	33194	32814	
1871	0	33148	32758	
1872	0	32686	32686	
1873	0	32492	32758	
1874	0	32700	32740	
1875	0	32824	32775	
1876	0	32928	32692	
1877	0	32868	32760	
1878	0	33100	32708	
1879	0	33386	32673	
1880	0	33168	32804	
1881	0	32704	32704	
1882	0	32302	32722	
1883	0	32566	32679	
1884	0	33336	32865	
1885	0	33256	32780	
1886	0	32380	32774	
1887	0	32368	32832	
1888	0	32216	32810	
1889	0	31762	32768	
1890	0	32122	32844	
1891	0	32752	32865	
1892	0	33012	32775	
1893	0	33284	32710	
1894	0	33174	32752	
1895	0	33176	32760	
1896	0	33180	32836	
1897	0	33036	32702	
1898	0	32984	32620	
1899	0	32744	32764	
1900	0	32518	32744	
1901	0	32580	32742	
1902	0	32896	32624	
1903	0	33056	32804	
1904	0	32918	32810	
1905	0	32980	32822	
1906	0	32938	32698	
1907	0	32886	32866	
1908	0	32896	32772	
1909	0	32842	32702	
1910	0	32652	32696	
1911	0	32482	32774	
1912	0	32578	32787	
1913	0	32570	32668	
1914	0	32666	32802	
1915	0	32884	32718	
1916	0	32884	32708	
1917	0	32862	32616	
1918	0	32894	32748	
1919	0	32826	32806	
1920	0	32708	32666	
1921	0	32628	32757	
1922	0	32860	32800	
1923	0	33117	32790	
1924	0	33276	32842	
1925	0	32876	32673	
1926	0	32856	32844	
1927	0	32692	32932	
1928	0	32821	32836	
1929	0	32898	32790	
1930	0	32920	32760	
1931	0	32812	32796	
1932	0	32560	32902	
1933	0	32608	32804	
1934	0	32500	32786	
1935	0	32526	32759	
1936	0	32868	32698	
1937	0	33042	32676	
1938	0	33300	32772	
1939	0	33080	32714	
1940	0	32756	32764	
1941	0	32396	32720	
1942	0	32526	32652	
1943	0	32622	32750	
1944	0	32638	32712	
1945	0	32732	32646	
1946	0	32888	32919	
1947	0	33024	32820	
1948	0	32992	32760	
1949	0	32898	32766	
1950	0	32812	32775	
1951	0	32750	32826	
1952	0	32705	32768	
1953	0	32778	32816	
1954	0	32784	32800	
1955	0	32884	32656	
1956	0	33040	32746	
1957	0	33042	32655	
1958	0	32868	32775	
1959	0	32832	32750	
1960	0	32740	32868	
1961	0	32806	32775	
1962	0	32692	32684	
1963	0	32746	32774	
1964	0	32970	32724	
1965	0	32738	32814	
1966	0	32246	32638	
1967	0	32176	32887	
1968	0	32576	32910	
1969	0	32868	32951	
1970	0	32894	32872	
1971	0	32918	32945	
1972	0	32834	32903	
1973	0	32962	32892	
1974	0	32972	32694	
1975	0	32780	32647	
1976	0	32832	32724	
1977	0	32780	32705	
1978	0	32740	32663	
1979	0	33064	32642	
1980	0	32970	32877	
1981	0	33008	32720	
1982	0	33158	32738	
1983	0	33090	32801	
1984	0	32952	32620	
1985	0	32728	32734	
1986	0	32562	32812	
1987	0	32476	32775	
1988	0	32594	32862	
1989	0	32668	32839	
1990	0	32862	32736	
1991	0	32874	32858	
1992	0	33028	32836	
1993	0	33092	32744	
1994	0	33036	32740	
1995	0	32962	32684	
1996	0	32848	32775	
1997	0	32768	32799	
1998	0	32560	32847	
1999	0	32488	32647	
2000	0	32600	32748	
2001	0	32840	32698	
2002	0	33040	32680	
2003	0	33428	32660	
2004	0	33628	32807	
2005	0	33500	32742	
2006	0	33072	32843	
2007	0	32650	32718	
2008	0	31976	32692	
2009	0	31696	32680	
2010	0	31972	32688	
2011	0	32206	32724	
2012	0	32486	32858	
2013	0	32620	32726	
2014	0	32824	32820	
2015	0	33128	32836	
2016	0	32980	32714	
2017	0	33068	32871	
2018	0	33132	32830	
2019	0	33596	32868	
2020	0	33612	32756	
2021	0	33120	32632	
2022	0	32332	32721	
2023	0	32112	32743	
2024	0	31834	32692	
2025	0	32174	32804	
2026	0	32846	32837	
2027	0	33316	32768	
2028	0	33416	32848	
2029	0	33596	32878	
2030	0	33542	32748	
2031	0	33266	32756	
2032	0	33337	32814	
2033	0	31984	32768	
2034	0	31748	32897	
2035	0	31780	32894	
2036	0	31776	32828	
2037	0	32430	32796	
2038	0	32952	32772	
2039	0	33280	32628	
2040	0	33264	32584	
2041	0	32996	32796	
2042	0	33004	32800	
2043	0	32960	32864	
2044	0	32692	32713	
2045	0	32588	32759	
2046	0	32672	32528	
2047	0	32768	32494	
2048	0	32668	32490	
2049	0	32786	32801	
2050	0	32908	32894	
2051	0	33224	32887	
2052	0	33344	32814	
2053	0	33220	32942	
2054	0	33036	32820	
2055	0	32868	32754	
2056	0	32852	32711	
2057	0	32736	32684	
2058	0	32812	32719	
2059	0	32848	32760	
2060	0	32774	32775	
2061	0	32720	32910	
2062	0	32676	32839	
2063	0	32640	32775	
2064	0	32512	32660	
2065	0	32742	32740	
2066	0	32998	32752	
2067	0	32984	32822	
2068	0	32656	32760	
2069	0	32412	32798	
2070	0	32060	32807	
2071	0	32252	32655	
2072	0	32850	32676	
2073	0	33070	32714	
2074	0	33194	32750	
2075	0	33040	32674	
2076	0	33274	32831	
2077	0	33268	32840	
2078	0	33122	32759	
2079	0	33134	32746	
2080	0	33048	32758	
2081	0	32842	32787	
2082	0	32724	32690	
2083	0	32693	32768	
2084	0	32712	32810	
2085	0	32624	32710	
2086	0	32848	32858	
2087	0	32558	32820	
2088	0	32484	32711	
2089	0	32286	32802	
2090	0	32140	32807	
2091	0	32366	32662	
2092	0	32840	32820	
2093	0	33228	32788	
2094	0	33536	32775	
2095	0	33792	32724	
2096	0	33668	32839	
2097	0	33372	32726	
2098	0	32914	32856	
2099	0	32544	32798	
2100	0	31872	32844	
2101	0	31632	32772	
2102	0	31672	32710	
2103	0	32084	32820	
2104	0	32656	32839	
2105	0	32992	32775	
2106	0	33452	32804	
2107	0	33580	32838	
2108	0	33656	32775	
2109	0	33458	32665	
2110	0	32736	32756	
2111	0	32277	32804	
2112	0	32196	32647	
2113	0	32336	32694	
2114	0	32696	32758	
2115	0	32816	32764	
2116	0	32996	32720	
2117	0	33056	32806	
2118	0	33008	32672	
2119	0	32934	32692	
2120	0	32884	32821	
2121	0	32816	32836	
2122	0	32744	32673	
2123	0	32736	32676	
2124	0	32832	32864	
2125	0	32816	32800	
2126	0	32888	32720	
2127	0	32882	32807	
2128	0	32792	32724	
2129	0	32848	32708	
2130	0	32942	32574	
2131	0	33046	32798	
2132	0	33132	32734	
2133	0	33091	32727	
2134	0	33032	32680	
2135	0	32954	32872	
2136	0	32754	32849	
2137	0	32608	32788	
2138	0	32684	32745	
2139	0	32544	32774	
2140	0	32600	32857	
2141	0	32442	32694	
2142	0	32354	32816	
2143	0	32468	32775	
2144	0	32866	32820	
2145	0	32984	32815	
2146	0	32906	32721	
2147	0	32896	32732	
2148	0	32900	32714	
2149	0	32872	32754	
2150	0	32876	32810	
2151	0	32892	32756	
2152	0	32806	32836	
2153	0	32904	32739	
2154	0	32892	32822	
2155	0	32940	32775	
2156	0	32888	32644	
2157	0	32860	32775	
2158	0	32928	32775	
2159	0	32846	32834	
2160	0	32804	32770	
2161	0	32702	32670	
2162	0	32732	32728	
2163	0	32776	32655	
2164	0	32977	32766	
2165	0	32920	32838	
2166	0	32804	32751	
2167	0	32724	32775	
2168	0	32740	32839	
2169	0	32592	32743	
2170	0	32670	32858	
2171	0	32852	32662	
2172	0	32728	32678	
2173	0	32664	32862	
2174	0	32748	32851	
2175	0	32944	32828	
2176	0	33010	32807	
2177	0	32970	32806	
2178	0	32890	32858	
2179	0	32558	32830	
2180	0	32376	32736	
2181	0	32584	32682	
2182	0	32840	32812	
2183	0	32976	32700	
2184	0	33062	32836	
2185	0	32912	32732	
2186	0	32868	32744	
2187	0	32596	32788	
2188	0	32288	32744	
2189	0	32408	32746	
2190	0	32732	32720	
2191	0	32784	32820	
2192	0	32928	32748	
2193	0	33020	32865	
2194	0	33056	32842	
2195	0	32990	32874	
2196	0	32964	32842	
2197	0	32964	32775	
2198	0	32840	32836	
2199	0	32708	32774	
2200	0	32834	32676	
2201	0	32772	32756	
2202	0	32756	32728	
2203	0	32788	32796	
2204	0	32788	32702	
2205	0	32744	32624	
2206	0	32764	32795	
2207	0	32968	32794	
2208	0	33192	32836	
2209	0	33130	32748	
2210	0	33070	32764	
2211	0	32976	32689	
2212	0	32736	32664	
2213	0	32820	32702	
2214	0	33022	32692	
2215	0	32924	32850	
2216	0	32736	32652	
2217	0	32488	32648	
2218	0	32350	32797	
2219	0	32558	32770	
2220	0	32520	32756	
2221	0	32620	32676	
2222	0	32320	32701	
2223	0	32326	32798	
2224	0	32490	32992	
2225	0	32476	33008	
2226	0	32852	32896	
2227	0	33148	32904	
2228	0	33164	32660	
2229	0	33124	32450	
2230	0	32920	32263	
2231	0	32940	32535	
2232	0	32984	32679	
2233	0	32908	32954	
2234	0	32930	32823	
2235	0	32864	32816	
2236	0	32880	33012	
2237	0	32936	32903	
2238	0	32908	32871	
2239	0	32868	32799	
2240	0	32862	32764	
2241	0	32900	32822	
2242	0	32874	32794	
2243	0	32828	32834	
2244	0	32772	32764	
2245	0	32760	32719	
2246	0	32772	32789	
2247	0	32808	32708	
2248	0	32782	32626	
2249	0	32800	32772	
2250	0	32784	32738	
2251	0	32792	32696	
2252	0	32814	32740	
2253	0	32852	32830	
2254	0	32902	32828	
2255	0	32864	32896	
2256	0	32794	32786	
2257	0	32700	32692	
2258	0	32820	32810	
2259	0	32908	32719	
2260	0	32944	32756	
2261	0	32864	32692	
2262	0	32754	32791	
2263	0	32814	32864	
2264	0	32796	32662	
2265	0	32804	32742	
2266	0	32850	32552	
2267	0	32844	32772	
2268	0	32680	32770	
2269	0	32540	32762	
2270	0	32664	32624	
2271	0	32804	32770	
2272	0	32836	32750	
2273	0	32940	32882	
2274	0	32866	32818	
2275	0	32802	32826	
2276	0	32860	33062	
2277	0	32860	33036	
2278	0	32880	33022	
2279	0	32824	32840	
2280	0	32834	32782	
2281	0	32858	32912	
2282	0	32816	32892	
2283	0	32836	32848	
2284	0	32820	32932	
2285	0	32788	32838	
2286	0	32860	32848	
2287	0	32960	32802	
2288	0	32898	32630	
2289	0	32880	32654	
2290	0	32814	32696	
2291	0	32760	32698	
2292	0	32596	32700	
2293	0	32672	32704	
2294	0	32694	32662	
2295	0	32868	32854	
2296	0	32882	32834	
2297	0	32970	32894	
2298	0	33128	32732	
2299	0	33060	32703	
2300	0	32932	32831	
2301	0	32816	32736	
2302	0	32534	32828	
2303	0	32472	32696	
2304	0	32684	32750	
2305	0	32768	32844	
2306	0	32928	32732	
2307	0	32806	32772	
2308	0	32660	32738	
2309	0	32559	32636	
2310	0	32684	32714	
2311	0	32772	32816	
2312	0	32784	32775	
2313	0	32884	32836	
2314	0	32868	32673	
2315	0	32836	32726	
2316	0	32908	32663	
2317	0	32860	32706	
2318	0	32908	32776	
2319	0	32864	32727	
2320	0	32890	32829	
2321	0	32868	32740	
2322	0	32828	32680	
2323	0	32756	32607	
2324	0	32760	32735	
2325	0	32818	32834	
2326	0	32788	32750	
2327	0	32780	32728	
2328	0	32768	32788	
2329	0	32810	32723	
2330	0	32732	32732	
2331	0	32782	32772	
2332	0	32776	32767	
2333	0	32720	32728	
2334	0	32818	32775	
2335	0	32732	32876	
2336	0	32792	32775	
2337	0	32776	32808	
2338	0	32802	32772	
2339	0	32798	32824	
2340	0	32840	32766	
2341	0	32776	32772	
2342	0	32812	32608	
2343	0	32856	32692	
2344	0	32868	32588	
2345	0	32855	32823	
2346	0	32768	32660	
2347	0	32712	32664	
2348	0	32758	32740	
2349	0	32824	32844	
2350	0	32796	32682	
2351	0	32852	32596	
2352	0	32876	32624	
2353	0	32940	32721	
2354	0	32904	32814	
2355	0	32892	32942	
2356	0	32800	32764	
2357	0	32948	32770	
2358	0	32796	32702	
2359	0	32816	32860	
2360	0	32856	32932	
2361	0	32780	32819	
2362	0	32786	32794	
2363	0	32792	32892	
2364	0	32784	32856	
2365	0	32776	32736	
2366	0	32784	32743	
2367	0	32756	32743	
2368	0	32836	32692	
2369	0	32820	32536	
2370	0	32774	32670	
2371	0	32788	32775	
2372	0	32820	32789	
2373	0	32852	32702	
2374	0	32808	32712	
2375	0	32814	32692	
2376	0	32860	32673	
2377	0	32852	32743	
2378	0	32908	32828	
2379	0	32916	32898	
2380	0	32870	32758	
2381	0	32874	32887	
2382	0	32794	32796	
2383	0	32852	32832	
2384	0	32832	32840	
2385	0	32780	32745	
2386	0	32696	32668	
2387	0	32744	32730	
2388	0	32812	32775	
2389	0	32884	32670	
2390	0	32800	32726	
2391	0	32816	32748	
2392	0	32806	32762	
2393	0	32768	32729	
2394	0	32748	32644	
2395	0	32780	32788	
2396	0	32834	32652	
2397	0	32880	32714	
2398	0	32868	32631	
2399	0	32876	32722	
2400	0	32884	32800	
2401	0	32884	32879	
2402	0	32828	32662	
2403	0	32804	32752	
2404	0	32768	32775	
2405	0	32788	32775	
2406	0	32768	32642	
2407	0	32864	32654	
2408	0	32808	32794	
2409	0	32822	32788	
2410	0	32844	32730	
2411	0	32847	32664	
2412	0	32734	32593	
2413	0	32794	32538	
2414	0	32830	32654	
2415	0	32696	32550	
2416	0	32788	32681	
2417	0	32842	32788	
2418	0	32838	32766	
2419	0	32816	32948	
2420	0	32874	32818	
2421	0	32822	32871	
2422	0	32858	33012	
2423	0	32846	33084	
2424	0	32716	32896	
2425	0	32676	32756	
2426	0	32788	32756	
2427	0	32816	32824	
2428	0	32816	32786	
2429	0	32904	32946	
2430	0	32796	32864	
2431	0	32828	33254	
2432	0	32868	33796	
2433	0	32828	33778	
2434	0	32832	33467	
2435	0	32826	32940	
2436	0	32828	32614	
2437	0	32812	32368	
2438	0	32740	32340	
2439	0	32744	32384	
2440	0	32756	32359	
2441	0	32764	32213	
2442	0	32740	32564	
2443	0	32796	32490	
2444	0	32716	32582	
2445	0	32800	32572	
2446	0	32872	32678	
2447	0	32836	32690	
2448	0	32884	32668	
2449	0	32792	32718	
2450	0	32844	32764	
2451	0	32812	32586	
2452	0	32816	32688	
2453	0	32826	32746	
2454	0	32816	32658	
2455	0	32728	32812	
2456	0	32808	32798	
2457	0	32824	32746	
2458	0	32828	32689	
2459	0	32794	32743	
2460	0	32820	32822	
2461	0	32798	32684	
2462	0	32777	32886	
2463	0	32728	32700	
2464	0	32804	32775	
2465	0	32808	32671	
2466	0	32830	32694	
2467	0	32832	32664	
2468	0	32844	32582	
2469	0	32942	32730	
2470	0	32978	32702	
2471	0	33006	32656	
2472	0	32900	32624	
2473	0	32918	32688	
2474	0	32932	32744	
2475	0	32916	32578	
2476	0	32964	32638	
2477	0	32932	32796	
2478	0	32788	32874	
2479	0	32824	32752	
2480	0	32888	32832	
2481	0	32906	32884	
2482	0	32836	32592	
2483	0	32948	32644	
2484	0	32868	32492	
2485	0	32894	32636	
2486	0	32810	32598	
2487	0	32812	32672	
2488	0	32720	32848	
2489	0	32616	32860	
2490	0	32608	32964	
2491	0	32664	33074	
2492	0	32594	33180	
2493	0	32524	33068	
2494	0	32436	33174	
2495	0	32392	33287	
2496	0	32420	33142	
2497	0	32456	33110	
2498	0	32564	33024	
2499	0	32608	33118	
2500	0	32720	32928	
2501	0	32736	32966	
2502	0	32820	32774	
2503	0	32832	32743	
2504	0	32900	32685	
2505	0	32822	32546	
2506	0	32914	32564	
2507	0	32956	32492	
2508	0	32800	32532	
2509	0	32864	32586	
2510	0	32948	32431	
2511	0	32910	32540	
2512	0	32898	32560	
2513	0	32886	32524	
2514	0	32868	32615	
2515	0	32880	32754	
2516	0	32976	32674	
2517	0	33020	32628	
2518	0	33244	32730	
2519	0	33428	32788	
2520	0	33422	32746	
2521	0	33272	32838	
2522	0	33178	32820	
2523	0	33010	32805	
2524	0	32884	32838	
2525	0	32588	32770	
2526	0	32460	32568	
2527	0	32416	32662	
2528	0	32052	32696	
2529	0	32140	32714	
2530	0	32246	32804	
2531	0	32234	32790	
2532	0	32196	33000	
2533	0	32308	32972	
2534	0	32572	32742	
2535	0	32662	32748	
2536	0	32788	32903	
2537	0	32812	32768	
2538	0	32936	32858	
2539	0	33046	32702	
2540	0	33088	32660	
2541	0	33140	32751	
2542	0	33073	32774	
2543	0	33044	32628	
2544	0	32990	32794	
2545	0	32934	32743	
2546	0	32908	32834	
2547	0	32784	32728	
2548	0	32812	32850	
2549	0	32868	32820	
2550	0	32808	32706	
2551	0	32820	32864	
2552	0	32825	32770	
2553	0	32810	32674	
2554	0	32860	32855	
2555	0	32888	32734	
2556	0	32896	32804	
2557	0	32824	32744	
2558	0	32904	32706	
2559	0	32862	32692	
2560	0	32778	32760	
2561	0	32812	32695	
2562	0	32820	32822	
2563	0	32856	32822	
2564	0	32808	32714	
2565	0	32780	32890	
2566	0	32792	32834	
2567	0	32790	32696	
2568	0	32826	32696	
2569	0	32824	32807	
2570	0	32912	32706	
2571	0	32928	32842	
2572	0	32928	32746	
2573	0	32810	32838	
2574	0	32916	32775	
2575	0	32900	32847	
2576	0	32808	32952	
2577	0	32717	33004	
2578	0	32732	32964	
2579	0	32700	32884	
2580	0	32780	32754	
2581	0	32898	32724	
2582	0	32924	32799	
2583	0	32938	32583	
2584	0	32862	32850	
2585	0	32960	32752	
2586	0	33032	32775	
2587	0	32822	32850	
2588	0	32756	32950	
2589	0	32768	32826	
2590	0	32668	32767	
2591	0	32580	32692	
2592	0	32576	32670	
2593	0	32476	32549	
2594	0	32828	32366	
2595	0	32992	32332	
2596	0	32842	32574	
2597	0	32876	32697	
2598	0	32852	32788	
2599	0	32672	32775	
2600	0	32644	32762	
2601	0	32528	32884	
2602	0	32692	32902	
2603	0	32676	32812	
2604	0	32648	32882	
2605	0	32548	32848	
2606	0	32716	32948	
2607	0	32610	32818	
2608	0	32664	32802	
2609	0	32704	32854	
2610	0	32816	32929	
2611	0	32908	32842	
2612	0	33028	32700	
2613	0	32996	32764	
2614	0	33016	32812	
2615	0	33032	32812	
2616	0	32928	32687	
2617	0	32884	32647	
2618	0	32948	32690	
2619	0	32983	32790	
2620	0	32950	32764	
2621	0	32900	32710	
2622	0	32886	32644	
2623	0	32784	32750	
2624	0	32798	32745	
2625	0	32774	32887	
2626	0	32780	32678	
2627	0	32794	32775	
2628	0	32852	32663	
2629	0	32788	32746	
2630	0	32848	32660	
2631	0	32792	32772	
2632	0	32808	32932	
2633	0	32843	32856	
2634	0	32860	32862	
2635	0	32946	32788	
2636	0	32886	32876	
2637	0	32777	33036	
2638	0	32796	32940	
2639	0	32748	32924	
2640	0	32838	32712	
2641	0	32860	32678	
2642	0	32780	32640	
2643	0	32750	32655	
2644	0	32786	32711	
2645	0	32788	32754	
2646	0	32824	32636	
2647	0	32848	32570	
2648	0	32786	32716	
2649	0	32780	32702	
2650	0	32866	32642	
2651	0	32778	32706	
2652	0	32820	32644	
2653	0	32848	32654	
2654	0	32772	32720	
2655	0	32788	32887	
2656	0	32822	32902	
2657	0	32800	32948	
2658	0	32808	32775	
2659	0	32852	32764	
2660	0	32728	32688	
2661	0	32683	32744	
2662	0	32792	32714	
2663	0	32876	32918	
2664	0	32790	32903	
2665	0	32812	32908	
2666	0	32700	32839	
2667	0	32704	32782	
2668	0	32688	32868	
2669	0	32757	32792	
2670	0	32786	32688	
2671	0	32772	32612	
2672	0	32754	32706	
2673	0	32890	32756	
2674	0	32944	32796	
2675	0	32916	32678	
2676	0	32944	32744	
2677	0	33018	32836	
2678	0	33108	32820	
2679	0	32948	32841	
2680	0	32820	32722	
2681	0	32668	32846	
2682	0	32620	32614	
2683	0	32532	32686	
2684	0	32570	32796	
2685	0	32640	32697	
2686	0	32616	32644	
2687	0	32668	32775	
2688	0	32774	32764	
2689	0	32780	32794	
2690	0	32768	32656	
2691	0	32856	32815	
2692	0	32860	32794	
2693	0	32878	32838	
2694	0	32808	32795	
2695	0	32868	32798	
2696	0	32754	32855	
2697	0	32860	32718	
2698	0	32790	32808	
2699	0	32768	32742	
2700	0	32850	32708	
2701	0	32793	32834	
2702	0	32820	32794	
2703	0	32802	32812	
2704	0	32804	32772	
2705	0	32804	32770	
2706	0	32896	32839	
2707	0	32845	32874	
2708	0	32932	32878	
2709	0	32964	32692	
2710	0	32852	32796	
2711	0	32884	32682	
2712	0	32844	32774	
2713	0	32718	32823	
2714	0	32688	32652	
2715	0	32724	32885	
2716	0	32792	32759	
2717	0	32762	32775	
2718	0	32764	32864	
2719	0	32716	32654	
2720	0	32764	32618	
2721	0	32788	32811	
2722	0	32816	32774	
2723	0	32726	32729	
2724	0	32750	32852	
2725	0	32740	32802	
2726	0	32780	32721	
2727	0	32820	32684	
2728	0	32772	32810	
2729	0	32864	32826	
2730	0	32850	32694	
2731	0	32856	32775	
2732	0	32900	32726	
2733	0	32820	32666	
2734	0	32744	32739	
2735	0	32708	32748	
2736	0	32708	32842	
2737	0	32744	32828	
2738	0	32774	32764	
2739	0	32936	32888	
2740	0	32872	32846	
2741	0	32848	32838	
2742	0	32810	32839	
2743	0	32756	32712	
2744	0	32668	32772	
2745	0	32720	32754	
2746	0	32994	32734	
2747	0	32960	32794	
2748	0	32950	32825	
2749	0	32732	32719	
2750	0	32670	32710	
2751	0	32540	32676	
2752	0	32482	32714	
2753	0	32528	32775	
2754	0	32456	32760	
2755	0	32504	32732	
2756	0	32490	32775	
2757	0	32684	32883	
2758	0	32880	32916	
2759	0	32898	32952	
2760	0	32964	32910	
2761	0	32946	32768	
2762	0	32988	32812	
2763	0	32756	32775	
2764	0	32860	32664	
2765	0	32936	32814	
2766	0	32976	32772	
2767	0	32904	32632	
2768	0	33052	32743	
2769	0	33048	32742	
2770	0	32970	32647	
2771	0	32948	32710	
2772	0	32898	32823	
2773	0	32844	32676	
2774	0	32992	32740	
2775	0	33046	32721	
2776	0	32948	32775	
2777	0	32856	32754	
2778	0	32896	32696	
2779	0	32900	32810	
2780	0	32784	32775	
2781	0	32716	32700	
2782	0	32788	32790	
2783	0	32732	32866	
2784	0	32700	32712	
2785	0	32672	32808	
2786	0	32584	32742	
2787	0	32664	32706	
2788	0	32740	32679	
2789	0	32696	32766	
2790	0	32740	32700	
2791	0	32835	32725	
2792	0	32832	32725	
2793	0	32808	32814	
2794	0	32784	32790	
2795	0	32872	32742	
2796	0	32777	32724	
2797	0	32910	32740	
2798	0	32848	32728	
2799	0	32880	32698	
2800	0	32846	32710	
2801	0	32698	32839	
2802	0	32754	32753	
2803	0	32824	32728	
2804	0	32928	32764	
2805	0	32854	32839	
2806	0	32968	32954	
2807	0	32916	32860	
2808	0	32926	32910	
2809	0	33004	32820	
2810	0	32884	32856	
2811	0	32980	32694	
2812	0	32872	32775	
2813	0	32916	32775	
2814	0	32900	32711	
2815	0	32783	32548	
2816	0	33032	32670	
2817	0	33096	32643	
2818	0	32994	32614	
2819	0	32984	32766	
2820	0	32984	32774	
2821	0	32976	32888	
2822	0	32930	32764	
2823	0	32708	32714	
2824	0	32674	32738	
2825	0	32518	32775	
2826	0	32380	32660	
2827	0	32424	32750	
2828	0	32500	32774	
2829	0	32652	32766	
2830	0	32580	32672	
2831	0	32848	32755	
2832	0	33012	32788	
2833	0	33028	32804	
2834	0	33132	32672	
2835	0	33080	32662	
2836	0	33024	32706	
2837	0	32930	32808	
2838	0	32840	32734	
2839	0	32736	32728	
2840	0	32796	32679	
2841	0	32728	32604	
2842	0	32700	32839	
2843	0	32686	32788	
2844	0	32748	32828	
2845	0	32818	32852	
2846	0	32912	32743	
2847	0	32894	32704	
2848	0	32840	32856	
2849	0	32980	32838	
2850	0	32906	32808	
2851	0	32976	32839	
2852	0	32880	32807	
2853	0	32932	32798	
2854	0	32988	32932	
2855	0	32848	32839	
2856	0	32714	32807	
2857	0	32830	32758	
2858	0	32754	32842	
2859	0	32676	32844	
2860	0	32616	32642	
2861	0	32648	32588	
2862	0	32610	32631	
2863	0	32672	32768	
2864	0	32708	32638	
2865	0	32850	32684	
2866	0	32790	32634	
2867	0	33220	32708	
2868	0	33372	32766	
2869	0	33410	32790	
2870	0	33136	32583	
2871	0	33016	32583	
2872	0	32832	32780	
2873	0	32752	32756	
2874	0	32682	32943	
2875	0	32652	32894	
2876	0	32610	32903	
2877	0	32508	32932	
2878	0	32516	33015	
2879	0	32792	32932	
2880	0	33100	33002	
2881	0	33188	32856	
2882	0	33300	32556	
2883	0	33146	32464	
2884	0	32712	32574	
2885	0	32366	32700	
2886	0	32084	32756	
2887	0	31965	32692	
2888	0	32052	32722	
2889	0	32316	32706	
2890	0	32502	32826	
2891	0	33052	32805	
2892	0	34348	32760	
2893	0	34432	32801	
2894	0	34152	32815	
2895	0	33912	32743	
2896	0	33560	32676	
2897	0	33153	32664	
2898	0	32920	32711	
2899	0	32644	32708	
2900	0	32424	32719	
2901	0	32254	32896	
2902	0	32120	32678	
2903	0	32080	32847	
2904	0	32056	32871	
2905	0	32088	32767	
2906	0	32194	32847	
2907	0	32302	32774	
2908	0	32366	32711	
2909	0	32426	32822	
2910	0	32666	32812	
2911	0	32696	32788	
2912	0	32804	32804	
2913	0	32860	32748	
2914	0	32928	32799	
2915	0	32858	32842	
2916	0	32856	32807	
2917	0	32840	32762	
2918	0	32880	32728	
2919	0	32960	32583	
2920	0	32984	32820	
2921	0	32996	32754	
2922	0	32936	32838	
2923	0	32764	32711	
2924	0	32710	32772	
2925	0	32592	32757	
2926	0	32588	32676	
2927	0	32650	32582	
2928	0	32732	32719	
2929	0	32718	32866	
2930	0	32804	32842	
2931	0	32700	32764	
2932	0	32810	32820	
2933	0	33002	32844	
2934	0	32992	32916	
2935	0	32930	32800	
2936	0	32932	32614	
2937	0	32768	32656	
2938	0	32870	32670	
2939	0	32746	32748	
2940	0	32660	32772	
2941	0	32672	32808	
2942	0	32648	32842	
2943	0	32666	32832	
2944	0	32636	32800	
2945	0	32780	32836	
2946	0	32834	32796	
2947	0	32776	32772	
2948	0	32744	32775	
2949	0	32856	32718	
2950	0	32976	32668	
2951	0	33164	32590	
2952	0	33244	32726	
2953	0	33272	32676	
2954	0	33158	32990	
2955	0	33088	32960	
2956	0	32856	32974	
2957	0	32672	32934	
2958	0	32524	32926	
2959	0	32532	32806	
2960	0	32776	32711	
2961	0	32740	32716	
2962	0	32860	32726	
2963	0	32780	32825	
2964	0	32624	32662	
2965	0	32700	32726	
2966	0	32648	32802	
2967	0	32558	32768	
2968	0	32510	32804	
2969	0	32664	32644	
2970	0	32616	32662	
2971	0	32560	32644	
2972	0	32632	32462	
2973	0	32772	32550	
2974	0	32980	32702	
2975	0	33100	32710	
2976	0	33140	32820	
2977	0	33092	32847	
2978	0	33002	32951	
2979	0	32904	32868	
2980	0	32950	32910	
2981	0	32804	32828	
2982	0	32790	32652	
2983	0	32776	32874	
2984	0	32732	32848	
2985	0	32680	32903	
2986	0	32596	32847	
2987	0	32798	32767	
2988	0	32794	32712	
2989	0	32894	32772	
2990	0	33124	32684	
2991	0	33356	32791	
2992	0	33456	32775	
2993	0	33468	32742	
2994	0	33364	32706	
2995	0	33292	32690	
2996	0	33224	32804	
2997	0	33064	32644	
2998	0	32852	32666	
2999	0	32328	32676	
3000	0	32292	32870	
3001	0	32086	32748	
3002	0	32234	32852	
3003	0	32360	32846	
3004	0	32368	32832	
3005	0	32464	32814	
3006	0	32388	32791	
3007	0	32328	32935	
3008	0	32432	32791	
3009	0	32214	32729	
3010	0	32334	32700	
3011	0	32544	32663	
3012	0	32870	32759	
3013	0	32906	32743	
3014	0	33188	32807	
3015	0	33192	32700	
3016	0	33140	32674	
3017	0	33018	32738	
3018	0	33044	32736	
3019	0	33108	32732	
3020	0	33082	32920	
3021	0	33052	32882	
3022	0	33102	32975	
3023	0	33141	32822	
3024	0	33160	32736	
3025	0	33108	32660	
3026	0	33044	32676	
3027	0	32890	32729	
3028	0	32784	32727	
3029	0	32776	32756	
3030	0	32812	32818	
3031	0	32804	32816	
3032	0	32832	32654	
3033	0	32640	32878	
3034	0	32598	32710	
3035	0	32750	32844	
3036	0	32660	32650	
3037	0	32702	32784	
3038	0	32668	32751	
3039	0	32700	32820	
3040	0	32664	32852	
3041	0	32676	32616	
3042	0	32828	32658	
3043	0	32698	32870	
3044	0	32760	32870	
3045	0	32717	32639	
3046	0	32738	32689	
3047	0	32884	32732	
3048	0	32958	32695	
3049	0	32954	32724	
3050	0	32868	32671	
3051	0	32972	32791	
3052	0	33164	32846	
3053	0	33142	32870	
3054	0	33048	32942	
3055	0	33032	32830	
3056	0	32904	32846	
3057	0	32818	32775	
3058	0	32648	32806	
3059	0	32728	32656	
3060	0	32672	32688	
3061	0	32580	32726	
3062	0	32656	32764	
3063	0	32660	32660	
3064	0	32724	32750	
3065	0	32864	32839	
3066	0	33066	32668	
3067	0	32996	32734	
3068	0	32952	32730	
3069	0	32920	32710	
3070	0	32792	32640	
3071	0	32728	32870	
3072	0	32670	32758	
3073	0	32650	32724	
3074	0	32484	32738	
3075	0	32536	32820	
3076	0	32528	32882	
3077	0	32612	32710	
3078	0	32740	32826	
3079	0	32922	32798	
3080	0	33164	32860	
3081	0	33132	32758	
3082	0	33140	32850	
3083	0	33010	32828	
3084	0	32948	32710	
3085	0	32708	32807	
3086	0	32724	32688	
3087	0	32626	32775	
3088	0	32564	32702	
3089	0	32664	32704	
3090	0	32632	32730	
3091	0	32704	32820	
3092	0	32778	32743	
3093	0	32778	32966	
3094	0	32808	32834	
3095	0	32882	32844	
3096	0	32892	32935	
3097	0	32780	33106	
3098	0	32694	33028	
3099	0	32676	32938	
3100	0	32752	32658	
3101	0	32640	32542	
3102	0	32676	32368	
3103	0	32676	32310	
3104	0	32700	32584	
3105	0	32816	32764	
3106	0	32968	32662	
3107	0	33108	32635	
3108	0	33038	32766	
3109	0	33146	32840	
3110	0	33188	32740	
3111	0	33008	32866	
3112	0	32824	32868	
3113	0	32678	32738	
3114	0	32480	32790	
3115	0	32328	32788	
3116	0	32084	32768	
3117	0	32088	32758	
3118	0	32308	32768	
3119	0	32464	32855	
3120	0	32596	32807	
3121	0	32650	32807	
3122	0	32792	32808	
3123	0	32984	32744	
3124	0	33048	32614	
3125	0	33158	32700	
3126	0	33178	32704	
3127	0	33184	32764	
3128	0	33246	32864	
3129	0	33120	32890	
3130	0	32993	32994	
3131	0	32936	32876	
3132	0	32844	32804	
3133	0	32946	32912	
3134	0	32760	32800	
3135	0	32808	32604	
3136	0	32812	32668	
3137	0	32810	32830	
3138	0	32838	32962	
3139	0	32790	32846	
3140	0	33070	32839	
3141	0	33002	32634	
3142	0	32849	32460	
3143	0	32810	32336	
3144	0	32788	32487	
3145	0	32600	32840	
3146	0	32604	32820	
3147	0	32688	32897	
3148	0	32762	32832	
3149	0	32888	32884	
3150	0	33042	32748	
3151	0	32966	32862	
3152	0	32966	32796	
3153	0	32840	32726	
3154	0	32804	32956	
3155	0	32676	32788	
3156	0	32448	32798	
3157	0	32416	32720	
3158	0	32480	32706	
3159	0	32540	32570	
3160	0	32500	32640	
3161	0	32814	32568	
3162	0	33038	32702	
3163	0	33182	32572	
3164	0	33208	32633	
3165	0	33196	32596	
3166	0	33112	32658	
3167	0	33000	32748	
3168	0	32932	32629	
3169	0	32922	32610	
3170	0	32916	32694	
3171	0	33022	32620	
3172	0	32932	32730	
3173	0	32832	32771	
3174	0	32740	32910	
3175	0	32620	32748	
3176	0	32652	32804	
3177	0	32722	32876	
3178	0	32668	32934	
3179	0	32534	32934	
3180	0	32384	33208	
3181	0	32302	33268	
3182	0	32336	33116	
3183	0	32548	33226	
3184	0	32716	33086	
3185	0	32692	33058	
3186	0	32632	32918	
3187	0	32648	33022	
3188	0	32712	33036	
3189	0	32768	32948	
3190	0	32692	32860	
3191	0	32736	32839	
3192	0	32680	32652	
3193	0	32676	32516	
3194	0	32756	32502	
3195	0	32916	32500	
3196	0	32928	32564	
3197	0	33020	32422	
3198	0	33044	32446	
3199	0	33038	32526	
3200	0	33006	32668	
3201	0	33024	32764	
3202	0	32986	32608	
3203	0	32984	32704	
3204	0	32932	32750	
3205	0	32866	32820	
3206	0	32876	32796	
3207	0	32880	32708	
3208	0	32856	32680	
3209	0	32862	32642	
3210	0	32882	32620	
3211	0	32724	32702	
3212	0	32810	32710	
3213	0	32884	32864	
3214	0	32928	32760	
3215	0	32948	32894	
3216	0	32928	32775	
3217	0	32910	32808	
3218	0	32928	32852	
3219	0	32928	32848	
3220	0	32934	32726	
3221	0	32940	32742	
3222	0	32928	32676	
3223	0	32866	32836	
3224	0	32930	32722	
3225	0	32960	32666	
3226	0	32924	32864	
3227	0	32924	32724	
3228	0	32796	32886	
3229	0	32790	32774	
3230	0	32876	32727	
3231	0	32804	32730	
3232	0	32814	32700	
3233	0	32724	32740	
3234	0	32768	32679	
3235	0	32744	32808	
3236	0	32834	32840	
3237	0	32882	32775	
3238	0	32832	32836	
3239	0	32808	32904	
3240	0	32880	32899	
3241	0	32890	32703	
3242	0	32870	32854	
3243	0	32937	32714	
3244	0	32912	32712	
3245	0	32816	32750	
3246	0	32928	32750	
3247	0	32860	32836	
3248	0	32832	32903	
3249	0	32908	32871	
3250	0	32840	32766	
3251	0	32806	32938	
3252	0	32826	32703	
3253	0	32826	32903	
3254	0	32794	32756	
3255	0	32764	32960	
3256	0	32816	32759	
3257	0	32822	32761	
3258	0	32928	32480	
3259	0	32914	32616	
3260	0	32812	32756	
3261	0	32772	32640	
3262	0	32814	32814	
3263	0	32854	32642	
3264	0	32838	32694	
3265	0	32860	32663	
3266	0	32824	32598	
3267	0	32736	32726	
3268	0	32736	32744	
3269	0	32790	32943	
3270	0	32780	32918	
3271	0	32740	32647	
3272	0	32736	32762	
3273	0	32722	32908	
3274	0	32792	32745	
3275	0	32808	32868	
3276	0	32772	32830	
3277	0	32866	32849	
3278	0	32856	32775	
3279	0	32840	32764	
3280	0	32868	32782	
3281	0	32844	32775	
3282	0	32804	32812	
3283	0	32780	32775	
3284	0	32764	32687	
3285	0	32746	32663	
3286	0	32668	32804	
3287	0	32600	32859	
3288	0	32684	32855	
3289	0	32712	32769	
3290	0	32766	32802	
3291	0	32746	32727	
3292	0	32768	32759	
3293	0	32744	32862	
3294	0	32896	32870	
3295	0	32872	32858	
3296	0	32884	32814	
3297	0	32880	32807	
3298	0	32816	32764	
3299	0	32824	32708	
3300	0	32900	32720	
3301	0	32940	32766	
3302	0	32920	32708	
3303	0	32906	32912	
3304	0	32858	32734	
3305	0	32752	32734	
3306	0	32764	32618	
3307	0	32688	32664	
3308	0	32630	32546	
3309	0	32602	32692	
3310	0	32684	32711	
3311	0	32740	32748	
3312	0	32756	32858	
3313	0	32744	32860	
3314	0	32782	32814	
3315	0	32774	32917	
3316	0	32828	32810	
3317	0	32804	32849	
3318	0	32780	32746	
3319	0	32807	32860	
3320	0	32756	32804	
3321	0	32728	32884	
3322	0	32721	32676	
3323	0	32738	32810	
3324	0	32744	32775	
3325	0	32714	32696	
3326	0	32600	32830	
3327	0	32678	32784	
3328	0	32708	32884	
3329	0	32836	32816	
3330	0	32972	32800	
3331	0	32956	32806	
3332	0	32964	32775	
3333	0	32928	32812	
3334	0	32936	32762	
3335	0	32916	32903	
3336	0	32942	32747	
3337	0	32876	32636	
3338	0	32820	32647	
3339	0	32726	32708	
3340	0	32932	32602	
3341	0	32840	32816	
3342	0	32786	32884	
3343	0	32768	32820	
3344	0	32850	32876	
3345	0	32824	32802	
3346	0	32864	32860	
3347	0	32810	32673	
3348	0	32676	32754	
3349	0	32762	32842	
3350	0	32938	32719	
3351	0	32972	32846	
3352	0	32980	32788	
3353	0	32878	32622	
3354	0	32828	32705	
3355	0	32796	32650	
3356	0	32788	32703	
3357	0	32686	32684	
3358	0	32748	32574	
3359	0	32704	32647	
3360	0	32672	32638	
3361	0	32808	32551	
3362	0	32816	32687	
3363	0	32834	32702	
3364	0	32810	32624	
3365	0	32864	32735	
3366	0	32742	32712	
3367	0	32840	32759	
3368	0	32846	32786	
3369	0	32868	32630	
3370	0	32880	32732	
3371	0	32942	32854	
3372	0	32936	32748	
3373	0	32866	32772	
3374	0	32836	32676	
3375	0	32812	32770	
3376	0	32836	32726	
3377	0	32772	32710	
3378	0	32808	32830	
3379	0	32744	32828	
3380	0	32696	32678	
3381	0	32696	32807	
3382	0	32676	32862	
3383	0	32690	32736	
3384	0	32684	32838	
3385	0	32692	32848	
3386	0	32740	32736	
3387	0	32664	32754	
3388	0	32604	32775	
3389	0	32606	32788	
3390	0	32672	32874	
3391	0	32700	32928	
3392	0	32662	32903	
3393	0	32594	32698	
3394	0	32702	32807	
3395	0	32704	32756	
3396	0	32764	32658	
3397	0	32716	32747	
3398	0	32728	32839	
3399	0	32716	32839	
3400	0	32700	32732	
3401	0	32652	32862	
3402	0	32716	32748	
3403	0	32674	32610	
3404	0	32708	32775	
3405	0	32760	32764	
3406	0	32826	32775	
3407	0	32913	32775	
3408	0	32868	32796	
3409	0	32886	32870	
3410	0	32836	32838	
3411	0	32878	32767	
3412	0	32774	32719	
3413	0	32700	32826	
3414	0	32620	32869	
3415	0	32664	32764	
3416	0	32672	32752	
3417	0	32674	32800	
3418	0	32762	32868	
3419	0	32748	32836	
3420	0	32824	32858	
3421	0	32848	32686	
3422	0	32884	32906	
3423	0	32760	32712	
3424	0	32836	32706	
3425	0	32898	32676	
3426	0	32992	32916	
3427	0	33032	32839	
3428	0	32964	32804	
3429	0	32932	32806	
3430	0	32932	32810	
3431	0	32724	32862	
3432	0	32640	32828	
3433	0	32672	32837	
3434	0	32702	32689	
3435	0	32656	32735	
3436	0	32516	32802	
3437	0	32630	32664	
3438	0	32724	32823	
3439	0	32856	32748	
3440	0	33112	32782	
3441	0	33070	32692	
3442	0	32866	32868	
3443	0	32874	32744	
3444	0	32666	32832	
3445	0	32290	32604	
3446	0	32120	32804	
3447	0	32156	32742	
3448	0	32392	32682	
3449	0	32476	32692	
3450	0	32596	32710	
3451	0	32644	32698	
3452	0	32810	32830	
3453	0	32932	32671	
3454	0	32986	32692	
3455	0	33040	32583	
3456	0	33080	32726	
3457	0	33248	32742	
3458	0	33178	32698	
3459	0	33068	32876	
3460	0	33044	32850	
3461	0	33136	32802	
3462	0	33048	32679	
3463	0	33048	32698	
3464	0	33204	32719	
3465	0	33160	32718	
3466	0	33104	32647	
3467	0	32920	32724	
3468	0	32930	32612	
3469	0	32910	32775	
3470	0	32980	32664	
3471	0	32920	32631	
3472	0	32884	32752	
3473	0	32824	32718	
3474	0	32856	32724	
3475	0	32920	32668	
3476	0	33032	32788	
3477	0	32984	32712	
3478	0	32904	32786	
3479	0	32810	32668	
3480	0	32896	32690	
3481	0	32864	32696	
3482	0	32972	32612	
3483	0	32988	32750	
3484	0	32920	32731	
3485	0	32940	32736	
3486	0	32920	32652	
3487	0	33026	32775	
3488	0	32878	32740	
3489	0	32848	32636	
3490	0	32768	32632	
3491	0	32784	32825	
3492	0	32860	32761	
3493	0	32918	32758	
3494	0	32880	32694	
3495	0	32798	32864	
3496	0	32816	32892	
3497	0	32800	32887	
3498	0	32756	32775	
3499	0	32778	32844	
3500	0	32812	32719	
3501	0	32820	32820	
3502	0	32774	32734	
3503	0	32752	32814	
3504	0	32732	32830	
3505	0	32764	32832	
3506	0	32736	32775	
3507	0	32801	32711	
3508	0	32776	32823	
3509	0	32808	32860	
3510	0	32693	32671	
3511	0	32726	32802	
3512	0	32810	32834	
3513	0	32720	32696	
3514	0	32724	32721	
3515	0	32860	32804	
3516	0	32830	32712	
3517	0	32928	32782	
3518	0	32804	32756	
3519	0	32688	32746	
3520	0	32746	32834	
3521	0	32772	32798	
3522	0	32838	32686	
3523	0	32836	32770	
3524	0	32868	32843	
3525	0	32800	32764	
3526	0	32820	32816	
3527	0	32792	32700	
3528	0	32716	32876	
3529	0	32724	32848	
3530	0	32736	32792	
3531	0	32792	32772	
3532	0	32800	32730	
3533	0	32944	33054	
3534	0	32916	32902	
3535	0	32768	32708	
3536	0	32716	32742	
3537	0	32664	32774	
3538	0	32456	32586	
3539	0	32444	32622	
3540	0	32360	32696	
3541	0	32584	32595	
3542	0	32596	32680	
3543	0	32632	32740	
3544	0	32656	32687	
3545	0	32864	32790	
3546	0	32949	32820	
3547	0	33000	32847	
3548	0	32944	32890	
3549	0	32948	32846	
3550	0	32964	32775	
3551	0	32908	32922	
3552	0	32920	32824	
3553	0	32974	32828	
3554	0	32936	32775	
3555	0	32892	32798	
3556	0	32840	32766	
3557	0	32748	32871	
3558	0	32768	32850	
3559	0	32858	32844	
3560	0	32774	32799	
3561	0	32704	32700	
3562	0	32658	32636	
3563	0	32578	32807	
3564	0	32638	32742	
3565	0	32778	32710	
3566	0	32800	32775	
3567	0	32910	32910	
3568	0	32832	32823	
3569	0	33016	32534	
3570	0	32924	32772	
3571	0	32892	32762	
3572	0	32852	32799	
3573	0	32828	32820	
3574	0	32772	32772	
3575	0	32714	32775	
3576	0	32738	32772	
3577	0	32716	32659	
3578	0	32860	32742	
3579	0	32986	32847	
3580	0	32936	32806	
3581	0	32904	32750	
3582	0	32838	32740	
3583	0	32700	32738	
3584	0	32642	32830	
3585	0	32588	32743	
3586	0	32713	32821	
3587	0	32802	32807	
3588	0	32764	32644	
3589	0	32812	32775	
3590	0	32800	32804	
3591	0	32752	32730	
3592	0	32820	32827	
3593	0	32936	32836	
3594	0	32968	32698	
3595	0	32912	32830	
3596	0	33100	32744	
3597	0	33054	32711	
3598	0	32992	32638	
3599	0	33092	32704	
3600	0	33098	32796	
3601	0	33066	32700	
3602	0	33032	32714	
3603	0	32970	32780	
3604	0	33100	32724	
3605	0	33136	32722	
3606	0	33052	32895	
3607	0	32968	32903	
3608	0	33012	32692	
3609	0	32818	32740	
3610	0	32806	32634	
3611	0	32674	32647	
3612	0	32674	32664	
3613	0	32736	32815	
3614	0	32660	32623	
3615	0	32656	32666	
3616	0	32756	32858	
3617	0	32884	32775	
3618	0	33084	32854	
3619	0	33064	32814	
3620	0	33044	32820	
3621	0	33108	32788	
3622	0	33058	32830	
3623	0	32952	32647	
3624	0	32932	32704	
3625	0	32904	32698	
3626	0	32874	32662	
3627	0	32932	32796	
3628	0	32888	32832	
3629	0	32836	32656	
3630	0	32754	32760	
3631	0	32772	32807	
3632	0	32812	32708	
3633	0	32776	32804	
3634	0	32838	32794	
3635	0	32836	32704	
3636	0	32742	32808	
3637	0	32728	32676	
3638	0	32752	32812	
3639	0	32784	32772	
3640	0	32840	32767	
3641	0	32870	32846	
3642	0	32904	32743	
3643	0	32902	32732	
3644	0	32834	32839	
3645	0	32852	32868	
3646	0	32792	32760	
3647	0	32872	32770	
3648	0	32800	32808	
3649	0	32780	32700	
3650	0	32788	32702	
3651	0	32772	32728	
3652	0	32801	32832	
3653	0	32834	32808	
3654	0	32740	32814	
3655	0	32692	32825	
3656	0	32644	32679	
3657	0	32656	32839	
3658	0	32752	32762	
3659	0	32802	32840	
3660	0	32860	32769	
3661	0	32888	32692	
3662	0	32880	32800	
3663	0	32798	32767	
3664	0	32782	32842	
3665	0	32780	32852	
3666	0	32708	32673	
3667	0	32596	32808	
3668	0	32700	32826	
3669	0	32725	32743	
3670	0	32748	32774	
3671	0	32908	32712	
3672	0	32892	32746	
3673	0	32812	32818	
3674	0	32838	32738	
3675	0	32838	32775	
3676	0	32870	32800	
3677	0	32888	32762	
3678	0	32920	32826	
3679	0	32980	32852	
3680	0	32922	32774	
3681	0	32940	32808	
3682	0	32740	32862	
3683	0	32740	32542	
3684	0	32800	32673	
3685	0	32820	32615	
3686	0	32904	32615	
3687	0	32852	32748	
3688	0	32992	32816	
3689	0	33004	32816	
3690	0	32908	32644	
3691	0	32764	32878	
3692	0	32732	32775	
3693	0	32644	32686	
3694	0	33036	32766	
3695	0	32760	32823	
3696	0	32663	32910	
3697	0	32412	32922	
3698	0	32328	33008	
3699	0	32294	32972	
3700	0	32420	32834	
3701	0	32608	32708	
3702	0	32725	32710	
3703	0	32674	32532	
3704	0	32514	32486	
3705	0	32552	32492	
3706	0	32580	32732	
3707	0	32642	32916	
3708	0	32880	32775	
3709	0	32976	32894	
3710	0	33060	32878	
3711	0	33008	32811	
3712	0	32968	32750	
3713	0	32948	32796	
3714	0	32928	32820	
3715	0	32924	32775	
3716	0	32936	32892	
3717	0	32848	32807	
3718	0	32846	32802	
3719	0	32864	32664	
3720	0	32892	32750	
3721	0	32828	32746	
3722	0	32770	32756	
3723	0	32620	32674	
3724	0	32698	32836	
3725	0	32748	32775	
3726	0	32828	32836	
3727	0	32828	32679	
3728	0	32868	32836	
3729	0	32920	32799	
3730	0	32884	32869	
3731	0	32860	32799	
3732	0	32936	32826	
3733	0	32920	32746	
3734	0	32856	32702	
3735	0	32858	32680	
3736	0	32844	32794	
3737	0	32880	32824	
3738	0	32788	32775	
3739	0	32724	32790	
3740	0	32722	32768	
3741	0	32774	32812	
3742	0	32636	32746	
3743	0	32562	32844	
3744	0	32508	32652	
3745	0	32644	32814	
3746	0	32684	32640	
3747	0	32748	32670	
3748	0	32868	32854	
3749	0	32876	32862	
3750	0	32688	32930	
3751	0	32628	32766	
3752	0	32608	32858	
3753	0	32620	32852	
3754	0	32630	32830	
3755	0	32546	32746	
3756	0	32696	32600	
3757	0	32744	32756	
3758	0	32756	32774	
3759	0	32768	32766	
3760	0	32846	32804	
3761	0	33064	32704	
3762	0	33310	32702	
3763	0	33340	32796	
3764	0	33492	32775	
3765	0	33412	32702	
3766	0	33252	32615	
3767	0	33066	32852	
3768	0	32820	32810	
3769	0	32586	32836	
3770	0	32304	32647	
3771	0	32240	32657	
3772	0	32064	32804	
3773	0	32104	32719	
3774	0	32340	32745	
3775	0	32556	32814	
3776	0	32738	32806	
3777	0	32708	32784	
3778	0	32912	32724	
3779	0	32994	32792	
3780	0	33104	32750	
3781	0	33016	32794	
3782	0	33016	32700	
3783	0	33018	32654	
3784	0	32896	32692	
3785	0	32852	32766	
3786	0	32930	32814	
3787	0	32836	32870	
3788	0	32740	32724	
3789	0	32764	32711	
3790	0	32753	32775	
3791	0	32748	32739	
3792	0	32741	32804	
3793	0	32796	32710	
3794	0	32676	32658	
3795	0	32794	32846	
3796	0	32716	32818	
3797	0	32776	32824	
3798	0	32898	32736	
3799	0	32902	32814	
3800	0	32948	32746	
3801	0	32946	32710	
3802	0	32952	32812	
3803	0	32856	32830	
3804	0	32836	32765	
3805	0	32832	32686	
3806	0	32810	32854	
3807	0	32876	32742	
3808	0	32908	32768	
3809	0	32860	32614	
3810	0	32784	32647	
3811	0	32676	32735	
3812	0	32408	32689	
3813	0	32512	32774	
3814	0	32586	32844	
3815	0	32690	32719	
3816	0	32640	32666	
3817	0	32768	32819	
3818	0	33004	32774	
3819	0	32960	32731	
3820	0	33016	32735	
3821	0	32932	32711	
3822	0	32806	32688	
3823	0	32872	32736	
3824	0	32695	32775	
3825	0	32796	32746	
3826	0	32876	32834	
3827	0	32999	32743	
3828	0	33068	32752	
3829	0	33084	32816	
3830	0	32918	32834	
3831	0	32774	32829	
3832	0	32670	32816	
3833	0	32484	32764	
3834	0	32500	32864	
3835	0	32492	32724	
3836	0	32680	32775	
3837	0	32596	32684	
3838	0	32520	32615	
3839	0	32776	32604	
3840	0	32998	32580	
3841	0	32864	32614	
3842	0	32752	32590	
3843	0	32902	32526	
3844	0	33100	32601	
3845	0	33228	32652	
3846	0	33292	32714	
3847	0	33136	32606	
3848	0	33098	32740	
3849	0	33080	32720	
3850	0	33082	32746	
3851	0	33060	32676	
3852	0	32968	32552	
3853	0	32944	32751	
3854	0	32914	32656	
3855	0	32950	32846	
3856	0	32900	32954	
3857	0	32764	32804	
3858	0	32682	32892	
3859	0	32732	32970	
3860	0	32712	33090	
3861	0	32664	33063	
3862	0	32582	33100	
3863	0	32528	33281	
3864	0	32448	33169	
3865	0	32528	33239	
3866	0	32548	33012	
3867	0	32668	33008	
3868	0	32832	32854	
3869	0	32908	32794	
3870	0	32912	32956	
3871	0	32824	32944	
3872	0	32864	32710	
3873	0	32852	32807	
3874	0	32888	32683	
3875	0	32720	32615	
3876	0	32732	32616	
3877	0	32692	32670	
3878	0	32668	32580	
3879	0	32692	32626	
3880	0	32672	32528	
3881	0	32736	32688	
3882	0	32886	32647	
3883	0	33044	32628	
3884	0	32959	32668	
3885	0	32784	32734	
3886	0	32824	32658	
3887	0	32722	32622	
3888	0	32668	32735	
3889	0	32806	32714	
3890	0	32920	32724	
3891	0	32996	32790	
3892	0	32970	32796	
3893	0	32852	32696	
3894	0	32780	32704	
3895	0	32798	32738	
3896	0	32744	32736	
3897	0	32700	32582	
3898	0	32808	32807	
3899	0	32853	32775	
3900	0	32974	32738	
3901	0	32936	33027	
3902	0	32896	32872	
3903	0	32884	32852	
3904	0	32752	32647	
3905	0	32736	32718	
3906	0	32696	32730	
3907	0	32810	32759	
3908	0	32866	32698	
3909	0	32926	32996	
3910	0	32884	32830	
3911	0	32774	32792	
3912	0	32620	32772	
3913	0	32312	32775	
3914	0	32212	32830	
3915	0	32174	32700	
3916	0	32276	32840	
3917	0	32422	32766	
3918	0	32750	32826	
3919	0	32948	32738	
3920	0	33226	32756	
3921	0	33218	32807	
3922	0	33180	32656	
3923	0	32996	32826	
3924	0	32796	32800	
3925	0	32676	32742	
3926	0	32508	32835	
3927	0	32532	32775	
3928	0	32732	32658	
3929	0	32722	32636	
3930	0	32760	32804	
3931	0	32908	32771	
3932	0	32928	32704	
3933	0	32965	32718	
3934	0	32900	32708	
3935	0	32876	32772	
3936	0	32998	32630	
3937	0	33182	32894	
3938	0	33118	32822	
3939	0	33060	32837	
3940	0	32972	32676	
3941	0	32772	32689	
3942	0	32648	32662	
3943	0	32668	32490	
3944	0	32624	32646	
3945	0	32500	32764	
3946	0	32628	32807	
3947	0	32774	32983	
3948	0	32900	33034	
3949	0	33060	32969	
3950	0	33108	33119	
3951	0	33018	32820	
3952	0	32978	32524	
3953	0	32884	32247	
3954	0	32688	32572	
3955	0	32564	32758	
3956	0	32612	33062	
3957	0	32608	33063	
3958	0	32610	32962	
3959	0	32674	32879	
3960	0	32856	32614	
3961	0	32860	32391	
3962	0	33016	32470	
3963	0	33002	32647	
3964	0	33136	32903	
3965	0	33176	32728	
3966	0	33237	32751	
3967	0	33092	32852	
3968	0	32920	32702	
3969	0	32888	32756	
3970	0	32816	32752	
3971	0	32886	32631	
3972	0	32885	32592	
3973	0	32868	32856	
3974	0	32833	32820	
3975	0	32896	32820	
3976	0	32928	32730	
3977	0	32928	32880	
3978	0	32912	32832	
3979	0	32908	32704	
3980	0	32818	32710	
3981	0	32828	32790	
3982	0	32888	32775	
3983	0	32846	32689	
3984	0	32709	32729	
3985	0	32728	32774	
3986	0	32690	32740	
3987	0	32693	32790	
3988	0	32786	32794	
3989	0	32820	32775	
3990	0	32884	32704	
3991	0	32818	32854	
3992	0	32800	32833	
3993	0	32730	32816	
3994	0	32692	32775	
3995	0	32282	32764	
3996	0	32174	32748	
3997	0	32364	32734	
3998	0	32476	32834	
3999	0	32582	32794	
4000	0	32644	32836	
4001	0	32692	32636	
4002	0	32744	32722	
4003	0	32968	32800	
4004	0	33092	32736	
4005	0	32900	32815	
4006	0	32946	32852	
4007	0	32854	32730	
4008	0	32780	32740	
4009	0	32708	32800	
4010	0	32680	32710	
4011	0	32762	32756	
4012	0	32864	32764	
4013	0	32788	32843	
4014	0	32766	32807	
4015	0	32716	32684	
4016	0	32726	32836	
4017	0	32692	32806	
4018	0	32720	32670	
4019	0	32636	32761	
4020	0	32600	32760	
4021	0	32756	32740	
4022	0	32896	32694	
4023	0	33100	32721	
4024	0	33018	32802	
4025	0	32964	32834	
4026	0	33096	32734	
4027	0	32898	32783	
4028	0	32820	32932	
4029	0	33016	32926	
4030	0	32948	32875	
4031	0	32904	32948	
4032	0	32780	32846	
4033	0	32710	32638	
4034	0	32714	32418	
4035	0	32522	32570	
4036	0	32476	32746	
4037	0	32588	32706	
4038	0	32708	32860	
4039	0	32748	32698	
4040	0	32798	32666	
4041	0	32936	32609	
4042	0	32844	32668	
4043	0	32880	32652	
4044	0	32904	32724	
4045	0	32834	32750	
4046	0	32834	32892	
4047	0	32906	32889	
4048	0	32710	32708	
4049	0	32682	32846	
4050	0	32642	32850	
4051	0	32856	32804	
4052	0	32862	32824	
4053	0	32968	32758	
4054	0	32952	32732	
4055	0	32932	32856	
4056	0	32944	32844	
4057	0	32904	32742	
4058	0	33148	32664	
4059	0	32992	32590	
4060	0	32940	32730	
4061	0	32822	32708	
4062	0	32660	32806	
4063	0	32508	33076	
4064	0	32364	33054	
4065	0	32440	33002	
4066	0	32511	32959	
4067	0	32572	32692	
4068	0	32692	32660	
4069	0	32930	32562	
4070	0	33024	32686	
4071	0	32888	32836	
4072	0	32722	32704	
4073	0	32566	32668	
4074	0	32592	32556	
4075	0	32748	32482	
4076	0	32804	32510	
4077	0	32788	32628	
4078	0	32810	32546	
4079	0	32956	32822	
4080	0	33032	32897	
4081	0	33052	32895	
4082	0	32976	32964	
4083	0	33060	32988	
4084	0	33044	32870	
4085	0	33086	32944	
4086	0	33092	32919	
4087	0	32996	32868	
4088	0	32934	32943	
4089	0	32796	33004	
4090	0	32674	32736	
4091	0	32630	32900	
4092	0	32716	32709	
4093	0	32714	32500	
4094	0	32763	32564	
4095	0	32934	32472	
4096	0	33044	32782	
4097	0	32988	32660	
4098	0	33044	32816	
4099	0	33030	32738	
4100	0	32944	32700	
4101	0	32940	32666	
4102	0	32916	32704	
4103	0	32582	32567	
4104	0	32510	32679	
4105	0	32528	32644	
4106	0	32584	32946	
4107	0	32612	33028	
4108	0	32532	32988	
4109	0	32388	33014	
4110	0	32462	32870	
4111	0	32384	32666	
4112	0	32484	32729	
4113	0	32641	32768	
4114	0	32881	32938	
4115	0	33060	32948	
4116	0	33144	32860	
4117	0	33072	32952	
4118	0	33058	32802	
4119	0	32858	32796	
4120	0	32696	32760	
4121	0	32848	32716	
4122	0	32848	32680	
4123	0	32796	32647	
4124	0	32824	32678	
4125	0	32900	32662	
4126	0	32936	32636	
4127	0	32890	32788	
4128	0	32936	32840	
4129	0	32848	32644	
4130	0	32762	32742	
4131	0	32724	32729	
4132	0	32736	32647	
4133	0	32613	32743	
4134	0	32756	32775	
4135	0	32928	32822	
4136	0	32960	32804	
4137	0	33162	32666	
4138	0	33120	32804	
4139	0	32956	32650	
4140	0	32878	32890	
4141	0	32852	32857	
4142	0	32822	32806	
4143	0	32654	32775	
4144	0	32548	32802	
4145	0	32604	32833	
4146	0	32748	32690	
4147	0	32870	32756	
4148	0	32862	32794	
4149	0	32970	32652	
4150	0	32916	32703	
4151	0	32856	32740	
4152	0	32876	32652	
4153	0	32870	32732	
4154	0	32682	32758	
4155	0	32776	32814	
4156	0	32798	32767	
4157	0	32906	32774	
4158	0	33004	32672	
4159	0	32928	32460	
4160	0	32764	32804	
4161	0	32664	32788	
4162	0	32612	32947	
4163	0	32560	33073	
4164	0	32682	33200	
4165	0	32868	33180	
4166	0	32936	32865	
4167	0	32954	32572	
4168	0	32908	32325	
4169	0	32852	32196	
4170	0	32882	32502	
4171	0	32814	32674	
4172	0	32748	32792	
4173	0	32916	32723	
4174	0	32896	32847	
4175	0	32856	32902	
4176	0	32938	32768	
4177	0	32912	32834	
4178	0	32756	32771	
4179	0	32730	32792	
4180	0	32668	32757	
4181	0	32704	32742	
4182	0	32680	32775	
4183	0	32636	32724	
4184	0	32684	32705	
4185	0	32824	32799	
4186	0	32912	32775	
4187	0	32906	32796	
4188	0	32822	32690	
4189	0	32868	32768	
4190	0	32732	32732	
4191	0	32892	32866	
4192	0	32800	32716	
4193	0	32752	32832	
4194	0	32812	32775	
4195	0	32856	32809	
4196	0	32790	32684	
4197	0	32818	32838	
4198	0	32836	32740	
4199	0	32780	32820	
4200	0	32820	32718	
4201	0	32772	32844	
4202	0	32748	32795	
4203	0	32688	32727	
4204	0	32816	32762	
4205	0	32832	32836	
4206	0	32900	32818	
4207	0	32826	32658	
4208	0	32832	32708	
4209	0	32804	32679	
4210	0	32864	32774	
4211	0	32926	32695	
4212	0	32884	32774	
4213	0	32854	32856	
4214	0	32798	32798	
4215	0	32938	32736	
4216	0	32964	32860	
4217	0	32948	32756	
4218	0	32916	32712	
4219	0	32792	32775	
4220	0	32804	32754	
4221	0	32736	32870	
4222	0	32540	32696	
4223	0	32630	32864	
4224	0	32804	32802	
4225	0	32798	32828	
4226	0	32828	32700	
4227	0	32706	32764	
4228	0	32788	32871	
4229	0	32764	32708	
4230	0	32548	32894	
4231	0	32400	32750	
4232	0	32372	32766	
4233	0	32504	32734	
4234	0	32672	32679	
4235	0	32728	32786	
4236	0	32838	32766	
4237	0	32944	32815	
4238	0	32943	32684	
4239	0	33072	32888	
4240	0	33000	32678	
4241	0	32996	32702	
4242	0	33026	32710	
4243	0	32964	32770	
4244	0	33034	32799	
4245	0	32924	32712	
4246	0	32832	32704	
4247	0	32888	32806	
4248	0	32826	32810	
4249	0	32848	32663	
4250	0	32828	32720	
4251	0	32874	32841	
4252	0	32826	32758	
4253	0	32888	32699	
4254	0	32900	32732	
4255	0	32844	32758	
4256	0	32850	32740	
4257	0	32896	32698	
4258	0	32832	32864	
4259	0	32842	32876	
4260	0	32848	32679	
4261	0	32832	32791	
4262	0	32804	32684	
4263	0	32872	32736	
4264	0	32828	32726	
4265	0	32916	32852	
4266	0	32848	32884	
4267	0	32750	32692	
4268	0	32840	32838	
4269	0	32808	32811	
4270	0	32808	32720	
4271	0	32794	32865	
4272	0	32840	32800	
4273	0	32704	32724	
4274	0	32760	32871	
4275	0	32742	32771	
4276	0	32808	32756	
4277	0	32760	32806	
4278	0	32764	32764	
4279	0	32764	32716	
4280	0	32760	32807	
4281	0	32824	32792	
4282	0	32832	32816	
4283	0	32852	32662	
4284	0	32808	32848	
4285	0	32796	32800	
4286	0	32836	32743	
4287	0	32802	32928	
4288	0	32848	32689	
4289	0	32772	32760	
4290	0	32740	32728	
4291	0	32782	32791	
4292	0	32808	32758	
4293	0	32712	32775	
4294	0	32774	32752	
4295	0	32775	32764	
4296	0	32841	32764	
4297	0	32744	32746	
4298	0	32728	32712	
4299	0	32808	32816	
4300	0	32788	32676	
4301	0	32708	32775	
4302	0	32752	32726	
4303	0	32752	32708	
4304	0	32732	32756	
4305	0	32772	32729	
4306	0	32812	32839	
4307	0	32780	32714	
4308	0	32856	32822	
4309	0	32896	32790	
4310	0	32964	32678	
4311	0	32894	32826	
4312	0	32878	32806	
4313	0	32824	32788	
4314	0	32918	32762	
4315	0	32894	32791	
4316	0	32808	32688	
4317	0	32736	32772	
4318	0	32822	32724	
4319	0	32848	32686	
4320	0	33002	32852	
4321	0	32940	32751	
4322	0	32816	32758	
4323	0	32764	32712	
4324	0	32820	32790	
4325	0	32728	32828	
4326	0	32764	32775	
4327	0	32792	32734	
4328	0	32822	32790	
4329	0	32700	32758	
4330	0	32714	32802	
4331	0	32722	32814	
4332	0	32734	32770	
4333	0	32784	32775	
4334	0	32728	32756	
4335	0	32792	32766	
4336	0	32876	32775	
4337	0	32906	32821	
4338	0	32840	32692	
4339	0	32790	32742	
4340	0	32780	32824	
4341	0	32716	32700	
4342	0	32664	32746	
4343	0	32784	32762	
4344	0	32832	32724	
4345	0	32760	32758	
4346	0	32794	32754	
4347	0	32864	32756	
4348	0	32812	32688	
4349	0	32840	32752	
4350	0	32806	32775	
4351	0	32816	32807	
4352	0	32830	32723	
4353	0	32972	32758	
4354	0	32893	32820	
4355	0	32938	32722	
4356	0	32868	32903	
4357	0	32882	32710	
4358	0	32792	32754	
4359	0	32842	32639	
4360	0	32920	32722	
4361	0	32900	32788	
4362	0	32896	32655	
4363	0	32864	32770	
4364	0	32922	32806	
4365	0	32784	32736	
4366	0	32928	32870	
4367	0	32922	32820	
4368	0	32916	32749	
4369	0	32898	32836	
4370	0	32972	32760	
4371	0	32920	32760	
4372	0	32876	32798	
4373	0	32842	32772	
4374	0	32816	32796	
4375	0	32774	32928	
4376	0	32720	32772	
4377	0	32760	32830	
4378	0	32720	32768	
4379	0	32770	32696	
4380	0	32670	32798	
4381	0	32688	32812	
4382	0	32636	32695	
4383	0	32696	32798	
4384	0	32844	32822	
4385	0	32884	32716	
4386	0	32832	32862	
4387	0	32888	32794	
4388	0	32888	32679	
4389	0	32896	32775	
4390	0	32810	32805	
4391	0	32824	32679	
4392	0	32828	32774	
4393	0	32832	32788	
4394	0	32844	32766	
4395	0	32832	32793	
4396	0	32832	32835	
4397	0	32762	32702	
4398	0	32784	32740	
4399	0	32750	32762	
4400	0	32740	32692	
4401	0	32700	32764	
4402	0	32730	32881	
4403	0	32724	32663	
4404	0	32732	32775	
4405	0	32704	32802	
4406	0	32760	32672	
4407	0	32680	32816	
4408	0	32762	32798	
4409	0	32750	32740	
4410	0	32740	32856	
4411	0	32792	32823	
4412	0	32856	32740	
4413	0	32728	32724	
4414	0	32736	32798	
4415	0	32820	32760	
4416	0	32868	32828	
4417	0	32792	32696	
4418	0	32728	32654	
4419	0	32806	32807	
4420	0	32808	32792	
4421	0	32792	32718	
4422	0	32892	32761	
4423	0	32816	32809	
4424	0	32796	32800	
4425	0	32804	32756	
4426	0	32872	32807	
4427	0	32840	32764	
4428	0	32924	32652	
4429	0	32898	32850	
4430	0	32892	32756	
4431	0	32840	32750	
4432	0	32932	32839	
4433	0	32970	32818	
4434	0	32968	32815	
4435	0	32896	32629	
4436	0	32936	32767	
4437	0	32924	32748	
4438	0	32908	32711	
4439	0	32896	32817	
4440	0	32840	32756	
4441	0	32800	32679	
4442	0	32734	32815	
4443	0	32802	32798	
4444	0	32840	32663	
4445	0	32848	32772	
4446	0	32880	32820	
4447	0	32872	32648	
4448	0	32808	32798	
4449	0	32836	32775	
4450	0	32728	32806	
4451	0	32660	32810	
4452	0	32788	32844	
4453	0	32678	32775	
4454	0	32566	32800	
4455	0	32568	32750	
4456	0	32596	32761	
4457	0	32716	32874	
4458	0	32756	32732	
4459	0	32792	32687	
4460	0	32794	32864	
4461	0	32840	32734	
4462	0	32879	32806	
4463	0	32848	32647	
4464	0	32908	32830	
4465	0	32848	32743	
4466	0	32804	32662	
4467	0	32801	32684	
4468	0	32816	32736	
4469	0	32836	32806	
4470	0	32808	32726	
4471	0	32760	32883	
4472	0	32876	32892	
4473	0	32792	32728	
4474	0	32904	32836	
4475	0	32876	32836	
4476	0	32820	32764	
4477	0	32856	32714	
4478	0	32842	32752	
4479	0	32908	32756	
4480	0	32840	32775	
4481	0	32800	32819	
4482	0	32833	32740	
4483	0	32846	32746	
4484	0	32874	32615	
4485	0	32964	32812	
4486	0	32872	32796	
4487	0	32858	32786	
4488	0	32898	32732	
4489	0	32924	32775	
4490	0	32852	32811	
4491	0	32856	32710	
4492	0	32840	32742	
4493	0	32760	32738	
4494	0	32748	32804	
4495	0	32764	32730	
4496	0	32896	32839	
4497	0	32900	32754	
4498	0	32782	32668	
4499	0	32746	32816	
4500	0	32702	32744	
4501	0	32724	32775	
4502	0	32880	32678	
4503	0	32908	32838	
4504	0	32864	32791	
4505	0	32824	32758	
4506	0	32816	32764	
4507	0	32724	32767	
4508	0	32692	32727	
4509	0	32716	32902	
4510	0	32716	32748	
4511	0	32798	32868	
4512	0	32888	32734	
4513	0	32852	32732	
4514	0	32834	32801	
4515	0	32792	32734	
4516	0	32804	32748	
4517	0	32770	32671	
4518	0	32764	32714	
4519	0	32766	32673	
4520	0	32846	32711	
4521	0	32878	32582	
4522	0	32920	32508	
4523	0	32900	32618	
4524	0	32994	32607	
4525	0	32912	32660	
4526	0	32980	32608	
4527	0	32892	32599	
4528	0	32854	32686	
4529	0	32848	32664	
4530	0	32892	32756	
4531	0	32944	32628	
4532	0	32904	32710	
4533	0	32920	32652	
4534	0	33064	32700	
4535	0	33086	32679	
4536	0	32904	32876	
4537	0	32860	32892	
4538	0	32768	32794	
4539	0	32789	32958	
4540	0	32744	32926	
4541	0	32736	32980	
4542	0	32692	33040	
4543	0	32560	33047	
4544	0	32452	33255	
4545	0	32402	33340	
4546	0	32326	33220	
4547	0	32356	33188	
4548	0	32436	33060	
4549	0	32488	32977	
4550	0	32608	32954	
4551	0	32572	32848	
4552	0	32604	32922	
4553	0	32644	32899	
4554	0	32732	32743	
4555	0	32784	32828	
4556	0	32928	32618	
4557	0	32913	32583	
4558	0	32924	32600	
4559	0	32900	32552	
4560	0	32884	32608	
4561	0	32920	32440	
4562	0	33004	32620	
4563	0	32964	32594	
4564	0	32950	32604	
4565	0	32900	32528	
4566	0	32916	32562	
4567	0	32872	32612	
4568	0	32848	32662	
4569	0	32768	32730	
4570	0	32848	32615	
4571	0	32876	32704	
4572	0	32920	32702	
4573	0	32854	32686	
4574	0	32856	32748	
4575	0	32800	32788	
4576	0	32800	32800	
4577	0	32868	32728	
4578	0	32864	32782	
4579	0	32830	32794	
4580	0	32796	32774	
4581	0	32868	32682	
4582	0	32810	32838	
4583	0	32802	32742	
4584	0	32822	32762	
4585	0	32848	32638	
4586	0	32856	32827	
4587	0	32820	32770	
4588	0	32780	32853	
4589	0	32802	32775	
4590	0	32808	32732	
4591	0	32804	32790	
4592	0	32816	32816	
4593	0	32792	32708	
4594	0	32846	32716	
4595	0	32792	32751	
4596	0	32752	32734	
4597	0	32818	32759	
4598	0	32782	32720	
4599	0	32816	32836	
4600	0	32824	32770	
4601	0	32768	32790	
4602	0	32834	32742	
4603	0	32820	32756	
4604	0	32856	32886	
4605	0	32892	32820	
4606	0	32828	32830	
4607	0	32836	32850	
4608	0	32764	32824	
4609	0	32764	32702	
4610	0	32696	32818	
4611	0	32634	32748	
4612	0	32656	32756	
4613	0	32718	32742	
4614	0	32834	32786	
4615	0	32864	32695	
4616	0	32908	32814	
4617	0	32880	32688	
4618	0	32816	32695	
4619	0	32784	32775	
4620	0	32828	32710	
4621	0	32804	32628	
4622	0	32752	32828	
4623	0	32824	32728	
4624	0	32792	32823	
4625	0	32876	32743	
4626	0	32872	32838	
4627	0	32838	32775	
4628	0	32760	32878	
4629	0	32854	32756	
4630	0	32784	32788	
4631	0	32800	32722	
4632	0	32836	32759	
4633	0	32825	32672	
4634	0	32736	32774	
4635	0	32812	32740	
4636	0	32836	32796	
4637	0	32800	32718	
4638	0	32756	32796	
4639	0	32786	32828	
4640	0	32792	32726	
4641	0	32844	32766	
4642	0	32872	32772	
4643	0	32786	32694	
4644	0	32768	32857	
4645	0	32780	32775	
4646	0	32872	32772	
4647	0	32812	32884	
4648	0	32824	32796	
4649	0	32868	32736	
4650	0	32840	32736	
4651	0	32844	32711	
4652	0	32844	32852	
4653	0	32864	32711	
4654	0	32816	32770	
4655	0	32862	32804	
4656	0	32873	32685	
4657	0	32878	32742	
4658	0	32816	32830	
4659	0	32860	32858	
4660	0	32812	32775	
4661	0	32820	32764	
4662	0	32816	32703	
4663	0	32820	32722	
4664	0	32800	32807	
4665	0	32772	32842	
4666	0	32802	32798	
4667	0	32774	32665	
4668	0	32692	32746	
4669	0	32789	32816	
4670	0	32804	32716	
4671	0	32828	32726	
4672	0	32908	32693	
4673	0	32776	32730	
4674	0	32820	32769	
4675	0	32836	32772	
4676	0	32858	32804	
4677	0	32800	32760	
4678	0	32776	32740	
4679	0	32872	32744	
4680	0	32860	32706	
4681	0	32834	32710	
4682	0	32794	32712	
4683	0	32878	32708	
4684	0	32768	32810	
4685	0	32808	32794	
4686	0	32760	32647	
4687	0	32856	32852	
4688	0	32840	32796	
4689	0	32772	32706	
4690	0	32784	32860	
4691	0	32718	32840	
4692	0	32742	32660	
4693	0	32840	32774	
4694	0	32853	32840	
4695	0	32856	32775	
4696	0	32884	32775	
4697	0	32836	32748	
4698	0	32760	32684	
4699	0	32788	32824	
4700	0	32728	32788	
4701	0	32836	32660	
4702	0	32790	32774	
4703	0	32858	32750	
4704	0	32838	32584	
4705	0	32804	32764	
4706	0	32784	32775	
4707	0	32832	32670	
4708	0	32852	32855	
4709	0	32840	32846	
4710	0	32814	32832	
4711	0	32796	32750	
4712	0	32856	32814	
4713	0	32820	32762	
4714	0	32757	32770	
4715	0	32730	32870	
4716	0	32754	32732	
4717	0	32728	32694	
4718	0	32768	32820	
4719	0	32864	32752	
4720	0	32784	32796	
4721	0	32858	32700	
4722	0	32856	32753	
4723	0	32812	32666	
4724	0	32788	32775	
4725	0	32804	32736	
4726	0	32832	32710	
4727	0	32824	32871	
4728	0	32814	32806	
4729	0	32865	32814	
4730	0	32822	32684	
4731	0	32886	32734	
4732	0	32780	32775	
4733	0	32856	32712	
4734	0	32812	32775	
4735	0	32870	32726	
4736	0	32844	32887	
4737	0	32874	32736	
4738	0	32820	32695	
4739	0	32766	32892	
4740	0	32728	32742	
4741	0	32792	32751	
4742	0	32696	32835	
4743	0	32736	32792	
4744	0	32812	32814	
4745	0	32820	32681	
4746	0	32818	32808	
4747	0	32860	32836	
4748	0	32820	32704	
4749	0	32782	32788	
4750	0	32842	32832	
4751	0	32836	32730	
4752	0	32792	32752	
4753	0	32808	32716	
4754	0	32764	32748	
4755	0	32778	32816	
4756	0	32834	32862	
4757	0	32764	32682	
4758	0	32852	32799	
4759	0	32812	32794	
4760	0	32780	32706	
4761	0	32772	32743	
4762	0	32792	32786	
4763	0	32810	32679	
4764	0	32792	32766	
4765	0	32884	32839	
4766	0	32808	32710	
4767	0	32836	32832	
4768	0	32780	32830	
4769	0	32778	32806	
4770	0	32778	32775	
4771	0	32800	32774	
4772	0	32812	32750	
4773	0	32808	32816	
4774	0	32764	32768	
4775	0	32756	32700	
4776	0	32760	32876	
4777	0	32832	32790	
4778	0	32804	32743	
4779	0	32800	32892	
4780	0	32802	32761	
4781	0	32884	32814	
4782	0	32804	32714	
4783	0	32804	32744	
4784	0	32770	32774	
4785	0	32730	32807	
4786	0	32828	32679	
4787	0	32750	32748	
4788	0	32728	32804	
4789	0	32758	32692	
4790	0	32808	32838	
4791	0	32774	32772	
4792	0	32740	32786	
4793	0	32776	32732	
4794	0	32848	32836	
4795	0	32888	32724	
4796	0	32852	32824	
4797	0	32880	32786	
4798	0	32836	32794	
4799	0	32806	32686	
4800	0	32798	32774	
4801	0	32848	32903	
4802	0	32856	32715	
4803	0	32830	32760	
4804	0	32738	32742	
4805	0	32820	32762	
4806	0	32828	32849	
4807	0	32856	32834	
4808	0	32776	32656	
4809	0	32836	32728	
4810	0	32816	32775	
4811	0	32802	32740	
4812	0	32826	32815	
4813	0	32840	32791	
4814	0	32842	32706	
4815	0	32786	32746	
4816	0	32804	32807	
4817	0	32824	32700	
4818	0	32862	32748	
4819	0	32848	32770	
4820	0	32792	32702	
4821	0	32800	32808	
4822	0	32815	32772	
4823	0	32788	32640	
4824	0	32824	32846	
4825	0	32746	32756	
4826	0	32804	32688	
4827	0	32858	32852	
4828	0	32760	32772	
4829	0	32714	32670	
4830	0	32801	32841	
4831	0	32870	32870	
4832	0	32770	32623	
4833	0	32789	32846	
4834	0	32848	32798	
4835	0	32804	32692	
4836	0	32780	32775	
4837	0	32844	32810	
4838	0	32848	32674	
4839	0	32868	32756	
4840	0	32788	32812	
4841	0	32792	32754	
4842	0	32770	32710	
4843	0	32774	32702	
4844	0	32744	32702	
4845	0	32728	32656	
4846	0	32768	32775	
4847	0	32784	32856	
4848	0	32788	32766	
4849	0	32874	32862	
4850	0	32804	32847	
4851	0	32852	32700	
4852	0	32836	32822	
4853	0	32804	32791	
4854	0	32884	32760	
4855	0	32826	32723	
4856	0	32764	32735	
4857	0	32796	32775	
4858	0	32793	32712	
4859	0	32775	32792	
4860	0	32768	32821	
4861	0	32816	32652	
4862	0	32814	32782	
4863	0	32820	32870	
4864	0	32792	32698	
4865	0	32858	32756	
4866	0	32828	32806	
4867	0	32736	32708	
4868	0	32772	32858	
4869	0	32848	32758	
4870	0	32776	32828	
4871	0	32844	32792	
4872	0	32840	32775	
4873	0	32828	32682	
4874	0	32856	32762	
4875	0	32792	32738	
4876	0	32834	32766	
4877	0	32836	32902	
4878	0	32848	32775	
4879	0	32852	32797	
4880	0	32810	32732	
4881	0	32834	32820	
4882	0	32828	32720	
4883	0	32834	32750	
4884	0	32794	32728	
4885	0	32806	32676	
4886	0	32750	32756	
4887	0	32832	32686	
4888	0	32760	32855	
4889	0	32816	32774	
4890	0	32866	32722	
4891	0	32768	32734	
4892	0	32808	32793	
4893	0	32820	32790	
4894	0	32882	32792	
4895	0	32828	32692	
4896	0	32846	32847	
4897	0	32760	32760	
4898	0	32800	32796	
4899	0	32784	32775	
4900	0	32759	32775	
4901	0	32816	32814	
4902	0	32832	32674	
4903	0	32848	32756	
4904	0	32878	32766	
4905	0	32796	32660	
4906	0	32814	32756	
4907	0	32834	32816	
4908	0	32813	32733	
4909	0	32766	32820	
4910	0	32768	32816	
4911	0	32796	32680	
4912	0	32822	32788	
4913	0	32806	32816	
4914	0	32828	32792	
4915	0	32864	32808	
4916	0	32818	32748	
4917	0	32768	32775	
4918	0	32768	32774	
4919	0	32788	32880	
4920	0	32800	32710	
4921	0	32820	32812	
4922	0	32818	32814	
4923	0	32824	32664	
4924	0	32810	32734	
4925	0	32826	32768	
4926	0	32748	32738	
4927	0	32768	32828	
4928	0	32868	32814	
4929	0	32828	32697	
4930	0	32824	32838	
4931	0	32804	32806	
4932	0	32890	32816	
4933	0	32812	32714	
4934	0	32828	32754	
4935	0	32832	32839	
4936	0	32792	32694	
4937	0	32810	32788	
4938	0	32768	32731	
4939	0	32852	32790	
4940	0	32760	32673	
4941	0	32828	32753	
4942	0	32856	32820	
4943	0	32792	32775	
4944	0	32822	32726	
4945	0	32784	32670	
4946	0	32782	32820	
4947	0	32812	32756	
4948	0	32796	32754	
4949	0	32800	32804	
4950	0	32808	32838	
4951	0	32828	32775	
4952	0	32926	32820	
4953	0	32862	32850	
4954	0	32834	32754	
4955	0	32752	32812	
4956	0	32800	32684	
4957	0	32778	32858	
4958	0	32816	32675	
4959	0	32776	32628	
4960	0	32748	32673	
4961	0	32832	32764	
4962	0	32884	32814	
4963	0	32800	32774	
4964	0	32800	32670	
4965	0	32800	32743	
4966	0	32748	32738	
4967	0	32785	32794	
4968	0	32820	32712	
4969	0	32820	32740	
4970	0	32842	32786	
4971	0	32832	32744	
4972	0	32826	32680	
4973	0	32780	32795	
4974	0	32804	32830	
4975	0	32856	32766	
4976	0	32848	32834	
4977	0	32816	32807	
4978	0	32816	32791	
4979	0	32888	32662	
4980	0	32844	32830	
4981	0	32852	32775	
4982	0	32740	32825	
4983	0	32788	32652	
4984	0	32762	32846	
4985	0	32764	32746	
4986	0	32752	32898	
4987	0	32796	32674	
4988	0	32800	32822	
4989	0	32780	32826	
4990	0	32802	32692	
4991	0	32812	32764	
4992	0	32796	32792	
4993	0	32828	32840	
4994	0	32818	32707	
4995	0	32816	32703	
4996	0	32808	32740	
4997	0	32792	32822	
4998	0	32856	32702	
4999	0	32769	32788	
5000	0	32796	32762	
5001	0	32810	32772	
5002	0	32768	32660	
5003	0	32798	32836	
5004	0	32776	32694	
5005	0	32796	32688	
5006	0	32748	32847	
5007	0	32792	32796	
5008	0	32808	32743	
5009	0	32820	32703	
5010	0	32776	32820	
5011	0	32798	32722	
5012	0	32858	32775	
5013	0	32860	32722	
5014	0	32848	32822	
5015	0	32828	32848	
5016	0	32820	32742	
5017	0	32868	32775	
5018	0	32808	32812	
5019	0	32816	32724	
5020	0	32760	32734	
5021	0	32805	32824	
5022	0	32788	32770	
5023	0	32764	32654	
5024	0	32772	32700	
5025	0	32804	32838	
5026	0	32764	32800	
5027	0	32800	32684	
5028	0	32800	32784	
5029	0	32808	32734	
5030	0	32806	32839	
5031	0	32842	32696	
5032	0	32784	32732	
5033	0	32836	32710	
5034	0	32800	32705	
5035	0	32764	32712	
5036	0	32804	32808	
5037	0	32782	32752	
5038	0	32836	32838	
5039	0	32832	32718	
5040	0	32836	32796	
5041	0	32816	32738	
5042	0	32840	32668	
5043	0	32836	32821	
5044	0	32828	32718	
5045	0	32746	32668	
5046	0	32814	32836	
5047	0	32876	32816	
5048	0	32833	32654	
5049	0	32816	32870	
5050	0	32818	32754	
5051	0	32820	32794	
5052	0	32880	32756	
5053	0	32768	32804	
5054	0	32792	32890	
5055	0	32764	32711	
5056	0	32778	32724	
5057	0	32792	32752	
5058	0	32768	32692	
5059	0	32790	32769	
5060	0	32796	32772	
5061	0	32852	32642	
5062	0	32816	32840	
5063	0	32860	32738	
5064	0	32792	32671	
5065	0	32792	32820	
5066	0	32790	32775	
5067	0	32836	32716	
5068	0	32760	32744	
5069	0	32820	32810	
5070	0	32832	32750	
5071	0	32798	32804	
5072	0	32864	32824	
5073	0	32808	32772	
5074	0	32811	32871	
5075	0	32826	32811	
5076	0	32832	32702	
5077	0	32838	32834	
5078	0	32808	32739	
5079	0	32836	32672	
5080	0	32820	32838	
5081	0	32800	32815	
5082	0	32828	32694	
5083	0	32844	32670	
5084	0	32804	32715	
5085	0	32816	32702	
5086	0	32772	32810	
5087	0	32828	32828	
5088	0	32816	32812	
5089	0	32786	32738	
5090	0	32802	32807	
5091	0	32761	32728	
5092	0	32854	32746	
5093	0	32818	32766	
5094	0	32792	32775	
5095	0	32894	32734	
5096	0	32808	32814	
5097	0	32804	32764	
5098	0	32712	32760	
5099	0	32812	32815	
5100	0	32880	32775	
5101	0	32836	32741	
5102	0	32780	32775	
5103	0	32796	32732	
5104	0	32814	32710	
5105	0	32793	32788	
5106	0	32820	32775	
5107	0	32812	32684	
5108	0	32780	32806	
5109	0	32840	32722	
5110	0	32770	32742	
5111	0	32808	32738	
5112	0	32810	32812	
5113	0	32836	32740	
5114	0	32826	32734	
5115	0	32820	32775	
5116	0	32786	32756	
5117	0	32792	32852	
5118	0	32834	32666	
5119	0	32742	32847	
5120	0	32772	32728	
5121	0	32864	32698	
5122	0	32812	32818	
5123	0	32864	32783	
5124	0	32828	32647	
5125	0	32790	32862	
5126	0	32808	32807	
5127	0	32808	32732	
5128	0	32754	32860	
5129	0	32754	32812	
5130	0	32824	32804	
5131	0	32750	32764	
5132	0	32762	32832	
5133	0	32800	32860	
5134	0	32778	32714	
5135	0	32878	32730	
5136	0	32816	32804	
5137	0	32874	32668	
5138	0	32898	32798	
5139	0	32816	32775	
5140	0	32816	32652	
5141	0	32764	32756	
5142	0	32814	32815	
5143	0	32864	32697	
5144	0	32744	32831	
5145	0	32808	32770	
5146	0	32760	32775	
5147	0	32844	32640	
5148	0	32804	32884	
5149	0	32772	32790	
5150	0	32846	32628	
5151	0	32832	32788	
5152	0	32824	32828	
5153	0	32820	32746	
5154	0	32784	32839	
5155	0	32858	32705	
5156	0	32780	32774	
5157	0	32834	32738	
5158	0	32818	32892	
5159	0	32808	32676	
5160	0	32758	32802	
5161	0	32816	32668	
5162	0	32832	32807	
5163	0	32746	32747	
5164	0	32782	32690	
5165	0	32788	32838	
5166	0	32838	32802	
5167	0	32864	32774	
5168	0	32776	32734	
5169	0	32806	32728	
5170	0	32820	32858	
5171	0	32836	32848	
5172	0	32836	32686	
5173	0	32774	32732	
5174	0	32802	32775	
5175	0	32828	32697	
5176	0	32848	32864	
5177	0	32892	32807	
5178	0	32845	32775	
5179	0	32772	32710	
5180	0	32792	32702	
5181	0	32800	32766	
5182	0	32816	32798	
5183	0	32860	32742	
5184	0	32828	32743	
5185	0	32901	32712	
5186	0	32792	32766	
5187	0	32766	32696	
5188	0	32820	32788	
5189	0	32740	32806	
5190	0	32800	32775	
5191	0	32832	32775	
5192	0	32820	32743	
5193	0	32784	32736	
5194	0	32820	32730	
5195	0	32804	32806	
5196	0	32766	32814	
5197	0	32784	32706	
5198	0	32782	32748	
5199	0	32804	32743	
5200	0	32804	32900	
5201	0	32764	32712	
5202	0	32708	32756	
5203	0	32784	32804	
5204	0	32820	32662	
5205	0	32816	32634	
5206	0	32896	32726	
5207	0	32888	32686	
5208	0	32894	32532	
5209	0	32944	32704	
5210	0	32946	32534	
5211	0	33034	32528	
5212	0	32994	32544	
5213	0	32994	32557	
5214	0	32924	32644	
5215	0	32934	32496	
5216	0	32860	32710	
5217	0	32816	32679	
5218	0	32840	32807	
5219	0	32940	32596	
5220	0	32932	32702	
5221	0	32930	32694	
5222	0	32936	32666	
5223	0	32862	32772	
5224	0	32818	32808	
5225	0	32724	32718	
5226	0	32628	32903	
5227	0	32640	32914	
5228	0	32676	33008	
5229	0	32612	32995	
5230	0	32564	33216	
5231	0	32474	33236	
5232	0	32496	33162	
5233	0	32456	33306	
5234	0	32524	33210	
5235	0	32564	33174	
5236	0	32576	33012	
5237	0	32728	32940	
5238	0	32696	32944	
5239	0	32664	32916	
5240	0	32732	32860	
5241	0	32770	32766	
5242	0	32776	32684	
5243	0	32868	32700	
5244	0	32894	32618	
5245	0	32890	32572	
5246	0	32864	32510	
5247	0	32932	32591	
5248	0	33048	32534	
5249	0	32976	32460	
5250	0	32960	32636	
5251	0	32892	32663	
5252	0	32866	32580	
5253	0	32876	32642	
5254	0	32878	32710	
5255	0	32820	32687	
5256	0	32952	32608	
5257	0	32868	32705	
5258	0	32878	32634	
5259	0	32828	32716	
5260	0	32894	32696	
5261	0	32816	32775	
5262	0	32856	32746	
5263	0	32840	32853	
5264	0	32808	32720	
5265	0	32718	32806	
5266	0	32748	32744	
5267	0	32764	32863	
5268	0	32818	32810	
5269	0	32748	32679	
5270	0	32792	32864	
5271	0	32748	32755	
5272	0	32824	32854	
5273	0	32814	32728	
5274	0	32812	32740	
5275	0	32792	32840	
5276	0	32832	32812	
5277	0	32824	32662	
5278	0	32910	32752	
5279	0	32804	32760	
5280	0	32824	32775	
5281	0	32830	32743	
5282	0	32825	32879	
5283	0	32792	32682	
5284	0	32782	32762	
5285	0	32816	32634	
5286	0	32792	32775	
5287	0	32792	32682	
5288	0	32830	32775	
5289	0	32840	32708	
5290	0	32822	32740	
5291	0	32808	32754	
5292	0	32906	32734	
5293	0	32808	32860	
5294	0	32836	32804	
5295	0	32802	32774	
5296	0	32778	32742	
5297	0	32832	32842	
5298	0	32816	32826	
5299	0	32760	32686	
5300	0	32880	32775	
5301	0	32792	32744	
5302	0	32792	32662	
5303	0	32794	32742	
5304	0	32802	32737	
5305	0	32808	32806	
5306	0	32720	32710	
5307	0	32784	32759	
5308	0	32790	32738	
5309	0	32746	32838	
5310	0	32832	32775	
5311	0	32888	32742	
5312	0	32864	32790	
5313	0	32896	32807	
5314	0	32836	32694	
5315	0	32844	32838	
5316	0	32846	32810	
5317	0	32748	32775	
5318	0	32828	32694	
5319	0	32810	32896	
5320	0	32814	32676	
5321	0	32832	32804	
5322	0	32860	32688	
5323	0	32800	32711	
5324	0	32840	32740	
5325	0	32744	32832	
5326	0	32732	32794	
5327	0	32768	32714	
5328	0	32776	32884	
5329	0	32848	32764	
5330	0	32842	32844	
5331	0	32740	32716	
5332	0	32838	32746	
5333	0	32784	32748	
5334	0	32790	32775	
5335	0	32836	32782	
5336	0	32788	32714	
5337	0	32808	32812	
5338	0	32788	32802	
5339	0	32812	32710	
5340	0	32796	32775	
5341	0	32700	32865	
5342	0	32804	32682	
5343	0	32776	32709	
5344	0	32792	32828	
5345	0	32826	32775	
5346	0	32760	32668	
5347	0	32864	32774	
5348	0	32844	32815	
5349	0	32752	32714	
5350	0	32876	32772	
5351	0	32836	32807	
5352	0	32868	32866	
5353	0	32780	32654	
5354	0	32852	32807	
5355	0	32824	32716	
5356	0	32876	32727	
5357	0	32822	32728	
5358	0	32844	32774	
5359	0	32760	32841	
5360	0	32808	32711	
5361	0	32782	32810	
5362	0	32748	32759	
5363	0	32768	32880	
5364	0	32804	32716	
5365	0	32854	32708	
5366	0	32814	32718	
5367	0	32758	32766	
5368	0	32850	32764	
5369	0	32752	32807	
5370	0	32848	32742	
5371	0	32822	32823	
5372	0	32824	32618	
5373	0	32812	32804	
5374	0	32878	32820	
5375	0	32760	32736	
5376	0	32828	32708	
5377	0	32800	32735	
5378	0	32856	32798	
5379	0	32788	32714	
5380	0	32842	32718	
5381	0	32828	32732	
5382	0	32772	32842	
5383	0	32832	32775	
5384	0	32812	32824	
5385	0	32780	32768	
5386	0	32906	32806	
5387	0	32828	32763	
5388	0	32844	32807	
5389	0	32784	32772	
5390	0	32786	32668	
5391	0	32872	32802	
5392	0	32816	32794	
5393	0	32812	32831	
5394	0	32832	32724	
5395	0	32810	32775	
5396	0	32780	32775	
5397	0	32792	32710	
5398	0	32794	32745	
5399	0	32836	32774	
5400	0	32760	32770	
5401	0	32736	32646	
5402	0	32748	32894	
5403	0	32820	32761	
5404	0	32796	32728	
5405	0	32792	32694	
5406	0	32892	32702	
5407	0	32772	32767	
5408	0	32818	32760	
5409	0	32760	32751	
5410	0	32836	32746	
5411	0	32814	32854	
5412	0	32816	32692	
5413	0	32824	32829	
5414	0	32804	32834	
5415	0	32804	32751	
5416	0	32849	32719	
5417	0	32806	32762	
5418	0	32834	32736	
5419	0	32832	32676	
5420	0	32752	32696	
5421	0	32804	32807	
5422	0	32828	32766	
5423	0	32764	32800	
5424	0	32800	32708	
5425	0	32788	32818	
5426	0	32816	32712	
5427	0	32838	32724	
5428	0	32756	32676	
5429	0	32808	32846	
5430	0	32864	32758	
5431	0	32832	32836	
5432	0	32832	32750	
5433	0	32837	32756	
5434	0	32858	32744	
5435	0	32840	32788	
5436	0	32832	32716	
5437	0	32824	32844	
5438	0	32760	32750	
5439	0	32828	32804	
5440	0	32792	32640	
5441	0	32772	32856	
5442	0	32780	32775	
5443	0	32788	32722	
5444	0	32772	32706	
5445	0	32776	32775	
5446	0	32823	32852	
5447	0	32802	32702	
5448	0	32808	32719	
5449	0	32802	32832	
5450	0	32800	32858	
5451	0	32756	32708	
5452	0	32832	32834	
5453	0	32816	32846	
5454	0	32822	32792	
5455	0	32792	32668	
5456	0	32832	32788	
5457	0	32872	32724	
5458	0	32810	32820	
5459	0	32732	32702	
5460	0	32708	32832	
5461	0	32746	32792	
5462	0	32804	32775	
5463	0	32840	32766	
5464	0	32790	32680	
5465	0	32800	32775	
5466	0	32798	32742	
5467	0	32820	32762	
5468	0	32764	32820	
5469	0	32810	32806	
5470	0	32804	32682	
5471	0	32804	32896	
5472	0	32850	32746	
5473	0	32804	32775	
5474	0	32832	32748	
5475	0	32816	32846	
5476	0	32806	32824	
5477	0	32808	32794	
5478	0	32720	32870	
5479	0	32744	32791	
5480	0	32774	32757	
5481	0	32774	32807	
5482	0	32790	32736	
5483	0	32775	32672	
5484	0	32766	32788	
5485	0	32860	32805	
5486	0	32816	32698	
5487	0	32826	32770	
5488	0	32792	32812	
5489	0	32744	32647	
5490	0	32816	32826	
5491	0	32776	32836	
5492	0	32830	32791	
5493	0	32824	32704	
5494	0	32876	32770	
5495	0	32826	32830	
5496	0	32816	32678	
5497	0	32828	32817	
5498	0	32860	32828	
5499	0	32846	32798	
5500	0	32790	32704	
5501	0	32878	32748	
5502	0	32800	32754	
5503	0	32756	32686	
5504	0	32736	32700	
5505	0	32804	32727	
5506	0	32808	32716	
5507	0	32746	32756	
5508	0	32844	32746	
5509	0	32836	32672	
5510	0	32800	32827	
5511	0	32878	32836	
5512	0	32798	32751	
5513	0	32828	32692	
5514	0	32784	32782	
5515	0	32832	32774	
5516	0	32820	32802	
5517	0	32844	32775	
5518	0	32796	32786	
5519	0	32820	32758	
5520	0	32804	32743	
5521	0	32778	32748	
5522	0	32840	32709	
5523	0	32800	32830	
5524	0	32780	32708	
5525	0	32774	32728	
5526	0	32804	32710	
5527	0	32862	32720	
5528	0	32812	32759	
5529	0	32852	32772	
5530	0	32840	32674	
5531	0	32820	32807	
5532	0	32886	32788	
5533	0	32806	32704	
5534	0	32798	32814	
5535	0	32816	32750	
5536	0	32740	32824	
5537	0	32788	32764	
5538	0	32786	32732	
5539	0	32732	32792	
5540	0	32792	32820	
5541	0	32792	32727	
5542	0	32824	32794	
5543	0	32820	32747	
5544	0	32796	32711	
5545	0	32828	32796	
5546	0	32842	32822	
5547	0	32824	32746	
5548	0	32832	32788	
5549	0	32784	32796	
5550	0	32842	32724	
5551	0	32788	32882	
5552	0	32848	32642	
5553	0	32888	32775	
5554	0	32836	32764	
5555	0	32760	32754	
5556	0	32794	32712	
5557	0	32836	32750	
5558	0	32828	32742	
5559	0	32800	32724	
5560	0	32877	32790	
5561	0	32794	32713	
5562	0	32828	32752	
5563	0	32808	32824	
5564	0	32816	32770	
5565	0	32828	32841	
5566	0	32788	32684	
5567	0	32842	32689	
5568	0	32904	32814	
5569	0	32860	32728	
5570	0	32876	32750	
5571	0	32936	32874	
5572	0	32874	32765	
5573	0	32776	32714	
5574	0	32817	32788	
5575	0	32720	32804	
5576	0	32752	32799	
5577	0	32820	32696	
5578	0	32780	32798	
5579	0	32816	32826	
5580	0	32796	32724	
5581	0	32782	32746	
5582	0	32730	32785	
5583	0	32780	32734	
5584	0	32784	32734	
5585	0	32788	32808	
5586	0	32792	32680	
5587	0	32808	32756	
5588	0	32894	32804	
5589	0	32900	32704	
5590	0	32900	32759	
5591	0	32756	32862	
5592	0	32840	32703	
5593	0	32704	32864	
5594	0	32860	32716	
5595	0	32722	32748	
5596	0	32844	32743	
5597	0	32814	32860	
5598	0	32772	32785	
5599	0	32804	32728	
5600	0	32849	32826	
5601	0	32760	32640	
5602	0	32830	32714	
5603	0	32824	32775	
5604	0	32864	32701	
5605	0	32780	32839	
5606	0	32792	32754	
5607	0	32869	32822	
5608	0	32782	32748	
5609	0	32856	32690	
5610	0	32852	32775	
5611	0	32812	32775	
5612	0	32852	32680	
5613	0	32868	32768	
5614	0	32800	32758	
5615	0	32816	32668	
5616	0	32712	32815	
5617	0	32834	32752	
5618	0	32820	32688	
5619	0	32820	32762	
5620	0	32836	32870	
5621	0	32828	32698	
5622	0	32836	32814	
5623	0	32804	32774	
5624	0	32804	32638	
5625	0	32784	32820	
5626	0	32784	32736	
5627	0	32804	32748	
5628	0	32840	32734	
5629	0	32872	32753	
5630	0	32842	32852	
5631	0	32824	32764	
5632	0	32784	32796	
5633	0	32744	32761	
5634	0	32788	32660	
5635	0	32768	32844	
5636	0	32764	32825	
5637	0	32808	32766	
5638	0	32842	32812	
5639	0	32792	32658	
5640	0	32792	32791	
5641	0	32838	32796	
5642	0	32812	32714	
5643	0	32812	32750	
5644	0	32844	32798	
5645	0	32765	32740	
5646	0	32848	32752	
5647	0	32768	32775	
5648	0	32802	32754	
5649	0	32850	32750	
5650	0	32832	32638	
5651	0	32852	32775	
5652	0	32830	32836	
5653	0	32744	32762	
5654	0	32804	32840	
5655	0	32812	32746	
5656	0	32850	32711	
5657	0	32812	32768	
5658	0	32836	32659	
5659	0	32772	32743	
5660	0	32876	32702	
5661	0	32836	32756	
5662	0	32800	32820	
5663	0	32804	32800	
5664	0	32860	32732	
5665	0	32846	32758	
5666	0	32828	32775	
5667	0	32828	32860	
5668	0	32848	32806	
5669	0	32820	32806	
5670	0	32784	32756	
5671	0	32844	32719	
5672	0	32820	32718	
5673	0	32828	32854	
5674	0	32756	32854	
5675	0	32796	32756	
5676	0	32828	32718	
5677	0	32800	32799	
5678	0	32792	32684	
5679	0	32760	32752	
5680	0	32868	32798	
5681	0	32780	32742	
5682	0	32844	32726	
5683	0	32756	32675	
5684	0	32772	32798	
5685	0	32840	32820	
5686	0	32824	32794	
5687	0	32789	32792	
5688	0	32792	32832	
5689	0	32800	32694	
5690	0	32836	32796	
5691	0	32834	32839	
5692	0	32844	32732	
5693	0	32822	32768	
5694	0	32756	32839	
5695	0	32816	32736	
5696	0	32846	32738	
5697	0	32785	32732	
5698	0	32816	32796	
5699	0	32804	32757	
5700	0	32828	32702	
5701	0	32774	32752	
5702	0	32752	32801	
5703	0	32788	32762	
5704	0	32804	32718	
5705	0	32840	32846	
5706	0	32798	32664	
5707	0	32837	32756	
5708	0	32772	32712	
5709	0	32856	32880	
5710	0	32884	32748	
5711	0	32804	32686	
5712	0	32798	32794	
5713	0	32764	32751	
5714	0	32784	32719	
5715	0	32812	32680	
5716	0	32811	32792	
5717	0	32844	32804	
5718	0	32812	32718	
5719	0	32826	32808	
5720	0	32780	32775	
5721	0	32808	32860	
5722	0	32790	32850	
5723	0	32820	32722	
5724	0	32818	32766	
5725	0	32824	32662	
5726	0	32826	32822	
5727	0	32860	32842	
5728	0	32756	32695	
5729	0	32780	32812	
5730	0	32784	32772	
5731	0	32878	32686	
5732	0	32778	32868	
5733	0	32812	32646	
5734	0	32778	32798	
5735	0	32756	32834	
5736	0	32784	32668	
5737	0	32812	32752	
5738	0	32808	32808	
5739	0	32868	32646	
5740	0	32844	32797	
5741	0	32772	32686	
5742	0	32796	32852	
5743	0	32804	32746	
5744	0	32780	32647	
5745	0	32829	32802	
5746	0	32756	32692	
5747	0	32880	32678	
5748	0	32860	32784	
5749	0	32868	32744	
5750	0	32744	32710	
5751	0	32820	32858	
5752	0	32848	32804	
5753	0	32840	32728	
5754	0	32756	32884	
5755	0	32854	32748	
5756	0	32852	32720	
5757	0	32812	32775	
5758	0	32824	32722	
5759	0	32828	32768	
5760	0	32816	32795	
5761	0	32808	32772	
5762	0	32804	32706	
5763	0	32892	32775	
5764	0	32784	32716	
5765	0	32824	32792	
5766	0	32816	32696	
5767	0	32812	32790	
5768	0	32848	32684	
5769	0	32730	32944	
5770	0	32788	32763	
5771	0	32834	32856	
5772	0	32801	32735	
5773	0	32824	32775	
5774	0	32804	32890	
5775	0	32796	32710	
5776	0	32788	32852	
5777	0	32828	32736	
5778	0	32824	32756	
5779	0	32780	32848	
5780	0	32808	32815	
5781	0	32760	32750	
5782	0	32818	32804	
5783	0	32792	32854	
5784	0	32776	32716	
5785	0	32752	32702	
5786	0	32848	32775	
5787	0	32792	32828	
5788	0	32784	32775	
5789	0	32814	32756	
5790	0	32846	32708	
5791	0	32832	32772	
5792	0	32834	32756	
5793	0	32804	32752	
5794	0	32790	32678	
5795	0	32832	32775	
5796	0	32800	32736	
5797	0	32782	32806	
5798	0	32754	32751	
5799	0	32840	32806	
5800	0	32880	32812	
5801	0	32836	32870	
5802	0	32752	32792	
5803	0	32800	32642	
5804	0	32806	32828	
5805	0	32852	32804	
5806	0	32836	32708	
5807	0	32832	32768	
5808	0	32816	32804	
5809	0	32788	32704	
5810	0	32856	32848	
5811	0	32878	32848	
5812	0	32802	32710	
5813	0	32788	32775	
5814	0	32816	32766	
5815	0	32788	32678	
5816	0	32874	32726	
5817	0	32788	32775	
5818	0	32852	32775	
5819	0	32816	32834	
5820	0	32876	32775	
5821	0	32912	32718	
5822	0	32880	32769	
5823	0	32852	32730	
5824	0	32748	32772	
5825	0	32804	32796	
5826	0	32796	32682	
5827	0	32804	32817	
5828	0	32756	32675	
5829	0	32740	32862	
5830	0	32836	32820	
5831	0	32828	32660	
5832	0	32752	32740	
5833	0	32848	32751	
5834	0	32784	32892	
5835	0	32820	32810	
5836	0	32818	32647	
5837	0	32842	32874	
5838	0	32816	32812	
5839	0	32808	32702	
5840	0	32820	32720	
5841	0	32804	32756	
5842	0	32804	32800	
5843	0	32784	32754	
5844	0	32732	32741	
5845	0	32816	32697	
5846	0	32788	32716	
5847	0	32808	32791	
5848	0	32900	32883	
5849	0	32838	32822	
5850	0	32800	32708	
5851	0	32798	32804	
5852	0	32790	32725	
5853	0	32736	32724	
5854	0	32904	32804	
5855	0	32888	32660	
5856	0	32852	32822	
5857	0	32836	32796	
5858	0	32836	32775	
5859	0	32780	32734	
5860	0	32724	32758	
5861	0	32802	32740	
5862	0	32840	32817	
5863	0	32786	32759	
5864	0	32744	32738	
5865	0	32798	32772	
5866	0	32852	32704	
5867	0	32820	32661	
5868	0	32768	32766	
5869	0	32828	32823	
5870	0	32800	32694	
5871	0	32784	32811	
5872	0	32804	32752	
5873	0	32846	32763	
5874	0	32842	32786	
5875	0	32864	32746	
5876	0	32782	32679	
5877	0	32769	32824	
5878	0	32828	32775	
5879	0	32804	32774	
5880	0	32772	32687	
5881	0	32816	32838	
5882	0	32864	32682	
5883	0	32782	32678	
5884	0	32808	32737	
5885	0	32860	32718	
5886	0	32772	32811	
5887	0	32836	32679	
5888	0	32860	32772	
5889	0	32812	32695	
5890	0	32804	32846	
5891	0	32788	32830	
5892	0	32808	32718	
5893	0	32772	32752	
5894	0	32845	32775	
5895	0	32796	32714	
5896	0	32812	32750	
5897	0	32796	32742	
5898	0	32832	32836	
5899	0	32810	32752	
5900	0	32826	32703	
5901	0	32828	32775	
5902	0	32749	32846	
5903	0	32736	32702	
5904	0	32740	32814	
5905	0	32756	32814	
5906	0	32810	32700	
5907	0	32798	32710	
5908	0	32844	32730	
5909	0	32862	32654	
5910	0	32864	32742	
5911	0	32844	32704	
5912	0	32916	32578	
5913	0	32970	32702	
5914	0	32964	32602	
5915	0	32978	32503	
5916	0	33004	32596	
5917	0	33032	32612	
5918	0	32969	32570	
5919	0	32940	32631	
5920	0	32888	32700	
5921	0	32870	32673	
5922	0	32876	32706	
5923	0	32968	32705	
5924	0	32916	32672	
5925	0	32892	32718	
5926	0	32926	32759	
5927	0	32888	32704	
5928	0	32808	32906	
5929	0	32748	32818	
5930	0	32710	32826	
5931	0	32686	32916	
5932	0	32672	32871	
5933	0	32668	33006	
5934	0	32632	33044	
5935	0	32494	33172	
5936	0	32500	33308	
5937	0	32424	33182	
5938	0	32420	33186	
5939	0	32560	33174	
5940	0	32600	33060	
5941	0	32662	32884	
5942	0	32689	32903	
5943	0	32776	32808	
5944	0	32744	32862	
5945	0	32820	32804	
5946	0	32768	32740	
5947	0	32810	32708	
5948	0	32892	32720	
5949	0	32924	32657	
5950	0	32916	32692	
5951	0	32992	32618	
5952	0	32879	32519	
5953	0	32932	32538	
5954	0	32932	32655	
5955	0	32896	32560	
5956	0	33016	32548	
5957	0	32928	32598	
5958	0	32921	32673	
5959	0	32900	32576	
5960	0	32928	32718	
5961	0	32778	32662	
5962	0	32832	32652	
5963	0	32848	32758	
5964	0	32804	32680	
5965	0	32784	32680	
5966	0	32828	32826	
5967	0	32808	32728	
5968	0	32844	32732	
5969	0	32868	32872	
5970	0	32772	32775	
5971	0	32856	32740	
5972	0	32852	32894	
5973	0	32814	32775	
5974	0	32794	32742	
5975	0	32820	32724	
5976	0	32804	32828	
5977	0	32796	32842	
5978	0	32724	32692	
5979	0	32752	32840	
5980	0	32844	32764	
5981	0	32760	32832	
5982	0	32784	32725	
5983	0	32792	32808	
5984	0	32846	32772	
5985	0	32830	32724	
5986	0	32800	32718	
5987	0	32760	32743	
5988	0	32770	32830	
5989	0	32808	32714	
5990	0	32768	32772	
5991	0	32800	32828	
5992	0	32862	32734	
5993	0	32860	32826	
5994	0	32820	32746	
5995	0	32752	32716	
5996	0	32792	32764	
5997	0	32820	32796	
5998	0	32784	32726	
5999	0	32808	32828	
6000	0	32760	32816	
6001	0	32800	32708	
6002	0	32848	32878	
6003	0	32800	32764	
6004	0	32800	32711	
6005	0	32836	32774	
6006	0	32806	32766	
6007	0	32796	32700	
6008	0	32756	32815	
6009	0	32840	32762	
6010	0	32866	32746	
6011	0	32816	32846	
6012	0	32798	32854	
