# OpenSignals Text File Format. Version 1
# {"00:07:80:8C:0A:39": {"position": 0, "device": "biosignalsplux", "device name": "00:07:80:8C:0A:39", "device connection": "BTH00:07:80:8C:0A:39", "sampling rate": 1000, "resolution": [16, 16], "firmware version": 776, "comments": "", "keywords": "", "mode": 0, "sync interval": 2, "date": "2023-3-20", "time": "10:54:56.78", "channels": [1, 2], "sensor": ["EMG", "EMG"], "label": ["CH1", "CH2"], "column": ["nSeq", "DI", "CH1", "CH2"], "special": [{"SpO2": [80, 40, 5, 4, 3, 3]}, {"SpO2": [80, 40, 5, 4, 3, 3]}, {"SpO2": [80, 40, 5, 4, 3, 3]}, {"SpO2": [80, 40, 5, 4, 3, 3]}, {"SpO2": [80, 40, 5, 4, 3, 3]}, {"SpO2": [80, 40, 5, 4, 3, 3]}, {"SpO2": [80, 40, 5, 4, 3, 3]}, {"SpO2": [80, 40, 5, 4, 3, 3]}], "digital IO": [0, 1], "sleeve color": ["gray", "yellow"], "convertedValues": 0}}
# EndOfHeader
0	0	32832	32794	
1	0	32816	32847	
2	0	32772	32756	
3	0	32836	32714	
4	0	32828	32702	
5	0	32756	32690	
6	0	32836	32774	
7	0	32816	32724	
8	0	32806	32796	
9	0	32808	32831	
10	0	32826	32792	
11	0	32860	32748	
12	0	32780	32640	
13	0	32848	32762	
14	0	32788	32768	
15	0	32852	32774	
16	0	32800	32848	
17	0	32776	32692	
18	0	32794	32722	
19	0	32792	32732	
20	0	32846	32768	
21	0	32840	32732	
22	0	32824	32822	
23	0	32808	32750	
24	0	32804	32788	
25	0	32822	32796	
26	0	32828	32775	
27	0	32804	32792	
28	0	32812	32632	
29	0	32836	32680	
30	0	32804	32775	
31	0	32848	32846	
32	0	32816	32748	
33	0	32732	32846	
34	0	32792	32775	
35	0	32828	32724	
36	0	32852	32803	
37	0	32836	32775	
38	0	32792	32823	
39	0	32890	32757	
40	0	32792	32694	
41	0	32746	32698	
42	0	32808	32666	
43	0	32806	32760	
44	0	32828	32711	
45	0	32804	32700	
46	0	32800	32743	
47	0	32832	32696	
48	0	32776	32835	
49	0	32831	32806	
50	0	32848	32761	
51	0	32800	32855	
52	0	32884	32830	
53	0	32834	32746	
54	0	32808	32772	
55	0	32745	32785	
56	0	32846	32839	
57	0	32810	32768	
58	0	32802	32828	
59	0	32774	32908	
60	0	32802	32775	
61	0	32780	32688	
62	0	32808	32738	
63	0	32808	32696	
64	0	32806	32667	
65	0	32726	32642	
66	0	32888	32750	
67	0	32826	32804	
68	0	32780	32823	
69	0	32822	32756	
70	0	32856	32806	
71	0	32800	32775	
72	0	32764	32800	
73	0	32798	32784	
74	0	32772	32704	
75	0	32838	32812	
76	0	32796	32824	
77	0	32728	32810	
78	0	32860	32812	
79	0	32868	32806	
80	0	32816	32844	
81	0	32788	32724	
82	0	32840	32774	
83	0	32866	32770	
84	0	32836	32826	
85	0	32822	32820	
86	0	32830	32806	
87	0	32850	32852	
88	0	32792	32740	
89	0	32852	32745	
90	0	32772	32711	
91	0	32792	32734	
92	0	32784	32702	
93	0	32802	32687	
94	0	32858	32736	
95	0	32788	32775	
96	0	32804	32750	
97	0	32794	32737	
98	0	32768	32756	
99	0	32856	32766	
100	0	32804	32762	
101	0	32888	32799	
102	0	32828	32868	
103	0	32792	32903	
104	0	32849	32743	
105	0	32876	32687	
106	0	32804	32626	
107	0	32846	32678	
108	0	32816	32647	
109	0	32862	32748	
110	0	32762	32662	
111	0	32818	32692	
112	0	32788	32718	
113	0	32788	32740	
114	0	32810	32746	
115	0	32828	32734	
116	0	32840	32692	
117	0	32808	32775	
118	0	32808	32846	
119	0	32814	32756	
120	0	32836	32724	
121	0	32748	32814	
122	0	32788	32768	
123	0	32833	32702	
124	0	32836	32732	
125	0	32776	32790	
126	0	32840	32770	
127	0	32792	32763	
128	0	32784	32740	
129	0	32784	32710	
130	0	32760	32663	
131	0	32808	32666	
132	0	32856	32646	
133	0	32856	32792	
134	0	32820	32788	
135	0	32776	32855	
136	0	32826	32716	
137	0	32840	32852	
138	0	32816	32732	
139	0	32804	32716	
140	0	32850	32764	
141	0	32840	32725	
142	0	32808	32742	
143	0	32836	32774	
144	0	32792	32860	
145	0	32802	32791	
146	0	32796	32822	
147	0	32816	32786	
148	0	32814	32848	
149	0	32784	32890	
150	0	32860	32724	
151	0	32834	32870	
152	0	32784	32807	
153	0	32756	32832	
154	0	32866	32820	
155	0	32756	32830	
156	0	32778	32787	
157	0	32854	32832	
158	0	32772	32943	
159	0	32800	32686	
160	0	32842	32720	
161	0	32772	32652	
162	0	32794	32734	
163	0	32844	32644	
164	0	32838	32712	
165	0	32814	32775	
166	0	32844	32786	
167	0	32828	32801	
168	0	32844	32812	
169	0	32854	32756	
170	0	32832	32839	
171	0	32792	32724	
172	0	32812	32796	
173	0	32792	32718	
174	0	32816	32631	
175	0	32770	32704	
176	0	32830	32640	
177	0	32812	32742	
178	0	32836	32721	
179	0	32824	32666	
180	0	32800	32839	
181	0	32776	32871	
182	0	32800	32850	
183	0	32789	32795	
184	0	32800	32806	
185	0	32820	32773	
186	0	32832	32848	
187	0	32762	32764	
188	0	32784	32756	
189	0	32868	32700	
190	0	32816	32806	
191	0	32804	32742	
192	0	32852	32742	
193	0	32804	32634	
194	0	32820	32671	
195	0	32792	32788	
196	0	32816	32558	
197	0	32804	32678	
198	0	32788	32696	
199	0	32838	32714	
200	0	32824	32764	
201	0	32784	32680	
202	0	32828	32684	
203	0	32736	32652	
204	0	32846	32668	
205	0	32868	32704	
206	0	32800	32700	
207	0	32798	32740	
208	0	32816	32862	
209	0	32764	32817	
210	0	32858	32816	
211	0	32808	32822	
212	0	32876	32846	
213	0	32802	32822	
214	0	32756	32724	
215	0	32816	32806	
216	0	32862	32807	
217	0	32784	32775	
218	0	32774	32860	
219	0	32828	32604	
220	0	32768	32737	
221	0	32828	32696	
222	0	32836	32834	
223	0	32804	32796	
224	0	32838	32790	
225	0	32876	32712	
226	0	32802	32842	
227	0	32756	32764	
228	0	32866	32728	
229	0	32814	32860	
230	0	32736	32766	
231	0	32830	32944	
232	0	32804	32758	
233	0	32804	32735	
234	0	32800	32782	
235	0	32800	32744	
236	0	32808	32716	
237	0	32768	32708	
238	0	32832	32754	
239	0	32828	32740	
240	0	32806	32744	
241	0	32800	32849	
242	0	32864	32816	
243	0	32864	32841	
244	0	32814	32686	
245	0	32776	32732	
246	0	32812	32679	
247	0	32852	32790	
248	0	32776	32734	
249	0	32774	32758	
250	0	32800	32750	
251	0	32808	32798	
252	0	32818	32844	
253	0	32810	32724	
254	0	32804	32839	
255	0	32840	32710	
256	0	32824	32734	
257	0	32757	32732	
258	0	32764	32746	
259	0	32808	32692	
260	0	32844	32810	
261	0	32800	32812	
262	0	32812	32736	
263	0	32848	32820	
264	0	32804	32726	
265	0	32836	32770	
266	0	32852	32732	
267	0	32775	32828	
268	0	32812	32672	
269	0	32750	32744	
270	0	32884	32724	
271	0	32824	32834	
272	0	32776	32881	
273	0	32788	32758	
274	0	32860	32742	
275	0	32766	32736	
276	0	32856	32876	
277	0	32744	32684	
278	0	32748	32764	
279	0	32828	32826	
280	0	32836	32647	
281	0	32788	32716	
282	0	32792	32812	
283	0	32784	32800	
284	0	32868	32680	
285	0	32808	32764	
286	0	32812	32830	
287	0	32836	32823	
288	0	32836	32744	
289	0	32831	32694	
290	0	32796	32775	
291	0	32864	32694	
292	0	32812	32856	
293	0	32812	32838	
294	0	32740	32698	
295	0	32794	32764	
296	0	32820	32694	
297	0	32744	32753	
298	0	32808	32830	
299	0	32798	32748	
300	0	32812	32762	
301	0	32836	32640	
302	0	32746	32848	
303	0	32856	32888	
304	0	32804	32790	
305	0	32898	32743	
306	0	32808	32684	
307	0	32788	32710	
308	0	32828	32759	
309	0	32810	32768	
310	0	32748	32836	
311	0	32791	32756	
312	0	32800	32806	
313	0	32812	32736	
314	0	32872	32732	
315	0	32804	32678	
316	0	32768	32836	
317	0	32836	32895	
318	0	32808	32775	
319	0	32818	32716	
320	0	32780	32662	
321	0	32772	32712	
322	0	32800	32754	
323	0	32868	32796	
324	0	32784	32894	
325	0	32798	32680	
326	0	32800	32748	
327	0	32804	32687	
328	0	32848	32708	
329	0	32860	32644	
330	0	32804	32740	
331	0	32836	32728	
332	0	32760	32878	
333	0	32844	32790	
334	0	32780	32812	
335	0	32796	32834	
336	0	32808	32806	
337	0	32792	32800	
338	0	32804	32755	
339	0	32852	32790	
340	0	32810	32710	
341	0	32780	32822	
342	0	32834	32764	
343	0	32792	32788	
344	0	32762	32726	
345	0	32788	32746	
346	0	32775	32828	
347	0	32800	32846	
348	0	32734	32748	
349	0	32776	32796	
350	0	32892	32695	
351	0	32795	32740	
352	0	32820	32716	
353	0	32844	32870	
354	0	32820	32766	
355	0	32828	32698	
356	0	32802	32760	
357	0	32832	32672	
358	0	32824	32718	
359	0	32828	32743	
360	0	32830	32846	
361	0	32850	32775	
362	0	32828	32710	
363	0	32820	32734	
364	0	32784	32678	
365	0	32872	32718	
366	0	32806	32738	
367	0	32780	32831	
368	0	32828	32758	
369	0	32746	32786	
370	0	32800	32726	
371	0	32776	32780	
372	0	32748	32780	
373	0	32808	32795	
374	0	32766	32820	
375	0	32884	32724	
376	0	32800	32734	
377	0	32790	32742	
378	0	32768	32732	
379	0	32772	32722	
380	0	32832	32772	
381	0	32836	32670	
382	0	32776	32891	
383	0	32864	32910	
384	0	32824	32744	
385	0	32780	32820	
386	0	32852	32690	
387	0	32844	32758	
388	0	32882	32689	
389	0	32796	32806	
390	0	32860	32800	
391	0	32788	32701	
392	0	32842	32724	
393	0	32776	32700	
394	0	32810	32711	
395	0	32852	32774	
396	0	32804	32834	
397	0	32804	32815	
398	0	32824	32770	
399	0	32848	32752	
400	0	32772	32796	
401	0	32808	32812	
402	0	32796	32748	
403	0	32824	32820	
404	0	32762	32705	
405	0	32806	32868	
406	0	32812	32788	
407	0	32820	32602	
408	0	32788	32758	
409	0	32800	32700	
410	0	32734	32754	
411	0	32792	32788	
412	0	32848	32794	
413	0	32816	32740	
414	0	32834	32808	
415	0	32820	32774	
416	0	32792	32812	
417	0	32762	32620	
418	0	32732	32724	
419	0	32798	32724	
420	0	32880	32724	
421	0	32852	32702	
422	0	32852	32768	
423	0	32832	32726	
424	0	32816	32742	
425	0	32836	32670	
426	0	32874	32760	
427	0	32848	32695	
428	0	32850	32736	
429	0	32848	32702	
430	0	32868	32688	
431	0	32852	32737	
432	0	32816	32780	
433	0	32852	32734	
434	0	32856	32698	
435	0	32896	32748	
436	0	32912	32708	
437	0	32884	32740	
438	0	32912	32726	
439	0	32908	32800	
440	0	32842	32758	
441	0	32868	32744	
442	0	32872	32756	
443	0	32876	32757	
444	0	32896	32700	
445	0	32924	32734	
446	0	32832	32864	
447	0	32700	32882	
448	0	32728	32924	
449	0	32732	32986	
450	0	32606	32917	
451	0	32688	32968	
452	0	32748	32915	
453	0	32662	32884	
454	0	32696	33024	
455	0	32612	33058	
456	0	32684	33022	
457	0	32636	32834	
458	0	32630	32912	
459	0	32612	32964	
460	0	32616	32910	
461	0	32680	32976	
462	0	32664	33108	
463	0	32632	32935	
464	0	32689	32852	
465	0	32714	32894	
466	0	32828	32884	
467	0	32868	32692	
468	0	32916	32628	
469	0	32888	32526	
470	0	32920	32526	
471	0	32948	32483	
472	0	32896	32606	
473	0	32964	32680	
474	0	32942	32598	
475	0	32928	32612	
476	0	32960	32615	
477	0	32944	32519	
478	0	32850	32592	
479	0	32788	32697	
480	0	32872	32775	
481	0	32792	32796	
482	0	32830	32792	
483	0	32822	32798	
484	0	32776	32802	
485	0	32820	32842	
486	0	32768	32798	
487	0	32778	32718	
488	0	32804	32700	
489	0	32848	32656	
490	0	32838	32770	
491	0	32706	32766	
492	0	32796	32748	
493	0	32792	32775	
494	0	32772	32740	
495	0	32836	32710	
496	0	32826	32824	
497	0	32820	32784	
498	0	32832	32750	
499	0	32832	32799	
500	0	32868	32830	
501	0	32836	32700	
502	0	32796	32716	
503	0	32836	32686	
504	0	32778	32642	
505	0	32809	32804	
506	0	32784	32680	
507	0	32820	32714	
508	0	32848	32828	
509	0	32824	32872	
510	0	32816	32824	
511	0	32816	32700	
512	0	32754	32764	
513	0	32816	32766	
514	0	32852	32666	
515	0	32820	32686	
516	0	32868	32626	
517	0	32826	32678	
518	0	32824	32684	
519	0	32816	32708	
520	0	32830	32678	
521	0	32852	32652	
522	0	32874	32715	
523	0	32864	32668	
524	0	32856	32807	
525	0	32760	32822	
526	0	32890	32800	
527	0	32856	32775	
528	0	32876	32856	
529	0	32842	32700	
530	0	32756	32700	
531	0	32832	32716	
532	0	32824	32692	
533	0	32828	32688	
534	0	32804	32643	
535	0	32836	32688	
536	0	32920	32647	
537	0	32834	32692	
538	0	32864	32659	
539	0	32844	32746	
540	0	32780	32679	
541	0	32720	32676	
542	0	32864	32647	
543	0	32834	32612	
544	0	32824	32698	
545	0	32814	32812	
546	0	32832	32842	
547	0	32794	32824	
548	0	32794	32868	
549	0	32792	32762	
550	0	32774	32866	
551	0	32764	32862	
552	0	32696	32814	
553	0	32856	32724	
554	0	32792	32770	
555	0	32860	32839	
556	0	32848	32791	
557	0	32790	32822	
558	0	32778	32764	
559	0	32788	32854	
560	0	32820	32734	
561	0	32750	32722	
562	0	32840	32764	
563	0	32800	32820	
564	0	32792	32710	
565	0	32802	32810	
566	0	32756	32856	
567	0	32842	32860	
568	0	32832	32810	
569	0	32820	32750	
570	0	32748	32770	
571	0	32802	32838	
572	0	32816	32790	
573	0	32832	32696	
574	0	32790	32756	
575	0	32804	32708	
576	0	32828	32720	
577	0	32791	32660	
578	0	32812	32702	
579	0	32816	32822	
580	0	32820	32841	
581	0	32740	32836	
582	0	32804	32812	
583	0	32824	32871	
584	0	32866	32758	
585	0	32884	32775	
586	0	32804	32800	
587	0	32772	32732	
588	0	32806	32740	
589	0	32770	32710	
590	0	32776	32775	
591	0	32868	32820	
592	0	32909	32814	
593	0	32784	32770	
594	0	32828	32786	
595	0	32862	32847	
596	0	32868	32836	
597	0	32832	32836	
598	0	32828	32786	
599	0	32804	32838	
600	0	32792	32742	
601	0	32824	32742	
602	0	32789	32804	
603	0	32768	32746	
604	0	32837	32704	
605	0	32824	32711	
606	0	32816	32710	
607	0	32826	32728	
608	0	32808	32692	
609	0	32840	32804	
610	0	32814	32680	
611	0	32778	32744	
612	0	32868	32732	
613	0	32806	32774	
614	0	32788	32750	
615	0	32788	32740	
616	0	32846	32796	
617	0	32788	32775	
618	0	32808	32772	
619	0	32776	32832	
620	0	32804	32770	
621	0	32810	32710	
622	0	32804	32753	
623	0	32834	32858	
624	0	32820	32694	
625	0	32816	32820	
626	0	32780	32818	
627	0	32764	32728	
628	0	32832	32782	
629	0	32846	32786	
630	0	32792	32734	
631	0	32766	32736	
632	0	32788	32808	
633	0	32818	32808	
634	0	32788	32884	
635	0	32814	32804	
636	0	32756	32796	
637	0	32798	32721	
638	0	32788	32812	
639	0	32828	32796	
640	0	32852	32854	
641	0	32828	32834	
642	0	32832	32768	
643	0	32828	32725	
644	0	32764	32722	
645	0	32830	32751	
646	0	32772	32696	
647	0	32852	32810	
648	0	32816	32775	
649	0	32748	32806	
650	0	32786	32796	
651	0	32780	32724	
652	0	32848	32775	
653	0	32856	32772	
654	0	32858	32794	
655	0	32812	32812	
656	0	32796	32824	
657	0	32804	32725	
658	0	32848	32704	
659	0	32808	32726	
660	0	32804	32680	
661	0	32836	32734	
662	0	32856	32670	
663	0	32760	32760	
664	0	32808	32692	
665	0	32792	32791	
666	0	32860	32734	
667	0	32824	32766	
668	0	32802	32806	
669	0	32848	32844	
670	0	32824	32774	
671	0	32832	32736	
672	0	32852	32742	
673	0	32858	32775	
674	0	32854	32806	
675	0	32752	32794	
676	0	32836	32790	
677	0	32860	32788	
678	0	32828	32796	
679	0	32820	32726	
680	0	32862	32800	
681	0	32732	32872	
682	0	32748	32799	
683	0	32804	32852	
684	0	32814	32852	
685	0	32814	32775	
686	0	32884	32786	
687	0	32800	32844	
688	0	32772	32662	
689	0	32782	32665	
690	0	32828	32728	
691	0	32800	32894	
692	0	32790	32804	
693	0	32752	32838	
694	0	32882	32836	
695	0	32860	32775	
696	0	32848	32752	
697	0	32812	32696	
698	0	32764	32698	
699	0	32800	32828	
700	0	32828	32836	
701	0	32848	32802	
702	0	32832	32798	
703	0	32836	32808	
704	0	32860	32775	
705	0	32802	32744	
706	0	32772	32814	
707	0	32808	32832	
708	0	32800	32792	
709	0	32792	32802	
710	0	32848	32664	
711	0	32746	32670	
712	0	32750	32775	
713	0	32820	32726	
714	0	32800	32686	
715	0	32840	32804	
716	0	32820	32874	
717	0	32730	32760	
718	0	32768	32798	
719	0	32798	32812	
720	0	32856	32836	
721	0	32832	32916	
722	0	32752	32756	
723	0	32814	32752	
724	0	32848	32706	
725	0	32796	32647	
726	0	32782	32775	
727	0	32852	32791	
728	0	32780	32788	
729	0	32804	32892	
730	0	32784	32742	
731	0	32686	32796	
732	0	32814	32711	
733	0	32810	32799	
734	0	32852	32775	
735	0	32816	32871	
736	0	32834	32769	
737	0	32824	32750	
738	0	32768	32743	
739	0	32764	32636	
740	0	32814	32694	
741	0	32752	32735	
742	0	32816	32724	
743	0	32820	32686	
744	0	32758	32664	
745	0	32784	32634	
746	0	32760	32726	
747	0	32828	32876	
748	0	32822	32857	
749	0	32858	32890	
750	0	32848	32818	
751	0	32808	32839	
752	0	32832	32711	
753	0	32836	32751	
754	0	32825	32838	
755	0	32792	32775	
756	0	32740	32807	
757	0	32752	32826	
758	0	32785	32752	
759	0	32824	32774	
760	0	32820	32690	
761	0	32792	32742	
762	0	32860	32660	
763	0	32856	32810	
764	0	32834	32866	
765	0	32784	32846	
766	0	32758	32812	
767	0	32756	32792	
768	0	32778	32815	
769	0	32825	32775	
770	0	32772	32774	
771	0	32804	32834	
772	0	32821	32884	
773	0	32812	32804	
774	0	32800	32704	
775	0	32880	32684	
776	0	32828	32647	
777	0	32812	32662	
778	0	32756	32692	
779	0	32772	32768	
780	0	32768	32792	
781	0	32832	32720	
782	0	32826	32775	
783	0	32820	32775	
784	0	32828	32832	
785	0	32764	32860	
786	0	32788	32730	
787	0	32864	32775	
788	0	32840	32734	
789	0	32800	32686	
790	0	32832	32791	
791	0	32816	32674	
792	0	32826	32798	
793	0	32848	32806	
794	0	32844	32724	
795	0	32824	32718	
796	0	32824	32679	
797	0	32730	32818	
798	0	32794	32684	
799	0	32808	32712	
800	0	32863	32772	
801	0	32848	32784	
802	0	32844	32752	
803	0	32838	32804	
804	0	32830	32752	
805	0	32816	32748	
806	0	32724	32726	
807	0	32784	32775	
808	0	32874	32808	
809	0	32828	32636	
810	0	32828	32710	
811	0	32848	32730	
812	0	32812	32835	
813	0	32852	32832	
814	0	32866	32775	
815	0	32824	32768	
816	0	32810	32696	
817	0	32728	32796	
818	0	32832	32858	
819	0	32792	32799	
820	0	32816	32775	
821	0	32864	32828	
822	0	32782	32870	
823	0	32738	32711	
824	0	32782	32820	
825	0	32798	32654	
826	0	32800	32785	
827	0	32821	32720	
828	0	32840	32796	
829	0	32816	32902	
830	0	32816	32696	
831	0	32752	32708	
832	0	32918	32718	
833	0	32850	32790	
834	0	32854	32838	
835	0	32796	32734	
836	0	32812	32712	
837	0	32760	32646	
838	0	32828	32783	
839	0	32742	32848	
840	0	32816	32846	
841	0	32932	32724	
842	0	32824	32775	
843	0	32824	32818	
844	0	32776	32686	
845	0	32832	32764	
846	0	32760	32832	
847	0	32792	32740	
848	0	32788	32676	
849	0	32836	32768	
850	0	32840	32724	
851	0	32864	32762	
852	0	32834	32728	
853	0	32856	32775	
854	0	32836	32844	
855	0	32862	32682	
856	0	32904	32759	
857	0	32740	32675	
858	0	32770	32775	
859	0	32784	32700	
860	0	32812	32842	
861	0	32776	32734	
862	0	32804	32860	
863	0	32772	32828	
864	0	32844	32856	
865	0	32856	32822	
866	0	32844	32834	
867	0	32832	32672	
868	0	32808	32801	
869	0	32776	32808	
870	0	32752	32810	
871	0	32788	32799	
872	0	32769	32774	
873	0	32796	32810	
874	0	32744	32717	
875	0	32820	32800	
876	0	32774	32700	
877	0	32838	32743	
878	0	32832	32790	
879	0	32840	32775	
880	0	32823	32832	
881	0	32748	32740	
882	0	32810	32738	
883	0	32858	32702	
884	0	32832	32706	
885	0	32836	32743	
886	0	32802	32806	
887	0	32850	32836	
888	0	32798	32730	
889	0	32844	32745	
890	0	32784	32770	
891	0	32808	32862	
892	0	32748	32706	
893	0	32808	32742	
894	0	32814	32732	
895	0	32788	32810	
896	0	32775	32718	
897	0	32818	32822	
898	0	32880	32799	
899	0	32774	32666	
900	0	32836	32752	
901	0	32860	32711	
902	0	32834	32826	
903	0	32872	32700	
904	0	32764	32842	
905	0	32764	32826	
906	0	32876	32714	
907	0	32830	32807	
908	0	32816	32674	
909	0	32824	32736	
910	0	32816	32791	
911	0	32752	32796	
912	0	32800	32823	
913	0	32828	32648	
914	0	32820	32740	
915	0	32846	32775	
916	0	32798	32807	
917	0	32816	32810	
918	0	32828	32746	
919	0	32832	32787	
920	0	32780	32670	
921	0	32820	32775	
922	0	32816	32792	
923	0	32772	32822	
924	0	32824	32768	
925	0	32842	32796	
926	0	32818	32839	
927	0	32832	32718	
928	0	32832	32709	
929	0	32806	32712	
930	0	32824	32770	
931	0	32756	32747	
932	0	32828	32848	
933	0	32848	32730	
934	0	32752	32800	
935	0	32878	32800	
936	0	32800	32688	
937	0	32778	32775	
938	0	32824	32712	
939	0	32840	32790	
940	0	32754	32775	
941	0	32768	32692	
942	0	32828	32860	
943	0	32800	32870	
944	0	32794	32696	
945	0	32744	32751	
946	0	32848	32658	
947	0	32874	32798	
948	0	32852	32775	
949	0	32852	32764	
950	0	32808	32800	
951	0	32792	32812	
952	0	32876	32724	
953	0	32869	32748	
954	0	32782	32732	
955	0	32788	32788	
956	0	32764	32820	
957	0	32809	32712	
958	0	32788	32756	
959	0	32792	32860	
960	0	32810	32725	
961	0	32802	32743	
962	0	32808	32854	
963	0	32856	32808	
964	0	32808	32794	
965	0	32852	32732	
966	0	32860	32896	
967	0	32784	32864	
968	0	32775	32762	
969	0	32842	32756	
970	0	32832	32679	
971	0	32834	32766	
972	0	32848	32786	
973	0	32840	32747	
974	0	32806	32726	
975	0	32816	32796	
976	0	32810	32820	
977	0	32776	32775	
978	0	32824	32582	
979	0	32794	32760	
980	0	32818	32766	
981	0	32778	32740	
982	0	32812	32836	
983	0	32852	32791	
984	0	32766	32740	
985	0	32876	32764	
986	0	32824	32850	
987	0	32804	32838	
988	0	32804	32679	
989	0	32800	32718	
990	0	32774	32641	
991	0	32812	32761	
992	0	32724	32818	
993	0	32816	32702	
994	0	32864	32847	
995	0	32822	32720	
996	0	32766	32775	
997	0	32760	32702	
998	0	32800	32830	
999	0	32804	32831	
1000	0	32832	32710	
1001	0	32792	32748	
1002	0	32802	32803	
1003	0	32770	32775	
1004	0	32784	32720	
1005	0	32832	32739	
1006	0	32880	32820	
1007	0	32808	32708	
1008	0	32930	32730	
1009	0	32774	32838	
1010	0	32858	32758	
1011	0	32810	32728	
1012	0	32778	32738	
1013	0	32832	32830	
1014	0	32780	32710	
1015	0	32808	32732	
1016	0	32768	32740	
1017	0	32820	32790	
1018	0	32800	32802	
1019	0	32796	32668	
1020	0	32838	32698	
1021	0	32816	32794	
1022	0	32776	32754	
1023	0	32860	32751	
1024	0	32844	32839	
1025	0	32672	32775	
1026	0	32808	32800	
1027	0	32792	32714	
1028	0	32772	32826	
1029	0	32808	32796	
1030	0	32804	32774	
1031	0	32800	32814	
1032	0	32816	32687	
1033	0	32842	32746	
1034	0	32816	32786	
1035	0	32872	32762	
1036	0	32838	32814	
1037	0	32848	32752	
1038	0	32796	32698	
1039	0	32836	32688	
1040	0	32764	32696	
1041	0	32764	32860	
1042	0	32804	32828	
1043	0	32814	32820	
1044	0	32793	32673	
1045	0	32760	32830	
1046	0	32792	32752	
1047	0	32776	32708	
1048	0	32832	32710	
1049	0	32834	32712	
1050	0	32848	32800	
1051	0	32800	32775	
1052	0	32774	32796	
1053	0	32764	32796	
1054	0	32816	32718	
1055	0	32802	32804	
1056	0	32825	32839	
1057	0	32768	32660	
1058	0	32808	32744	
1059	0	32768	32768	
1060	0	32820	32673	
1061	0	32832	32719	
1062	0	32868	32746	
1063	0	32800	32812	
1064	0	32840	32775	
1065	0	32772	32736	
1066	0	32778	32730	
1067	0	32840	32702	
1068	0	32840	32880	
1069	0	32812	32806	
1070	0	32804	32786	
1071	0	32794	32748	
1072	0	32768	32668	
1073	0	32808	32807	
1074	0	32800	32751	
1075	0	32864	32772	
1076	0	32812	32852	
1077	0	32822	32828	
1078	0	32810	32708	
1079	0	32802	32762	
1080	0	32804	32836	
1081	0	32840	32702	
1082	0	32744	32762	
1083	0	32772	32706	
1084	0	32858	32774	
1085	0	32804	32855	
1086	0	32834	32688	
1087	0	32864	32732	
1088	0	32820	32716	
1089	0	32780	32838	
1090	0	32868	32798	
1091	0	32774	32644	
1092	0	32832	32792	
1093	0	32796	32726	
1094	0	32828	32828	
1095	0	32804	32754	
1096	0	32780	32684	
1097	0	32780	32870	
1098	0	32800	32724	
1099	0	32816	32854	
1100	0	32808	32742	
1101	0	32800	32682	
1102	0	32821	32804	
1103	0	32816	32692	
1104	0	32824	32886	
1105	0	32816	32738	
1106	0	32868	32686	
1107	0	32881	32826	
1108	0	32828	32836	
1109	0	32752	32678	
1110	0	32784	32796	
1111	0	32830	32748	
1112	0	32800	32656	
1113	0	32858	32775	
1114	0	32816	32769	
1115	0	32824	32828	
1116	0	32804	32884	
1117	0	32792	32628	
1118	0	32762	32775	
1119	0	32768	32795	
1120	0	32786	32738	
1121	0	32878	32742	
1122	0	32856	32697	
1123	0	32832	32810	
1124	0	32812	32818	
1125	0	32856	32764	
1126	0	32790	32771	
1127	0	32788	32705	
1128	0	32825	32855	
1129	0	32824	32839	
1130	0	32784	32662	
1131	0	32748	32698	
1132	0	32788	32734	
1133	0	32796	32775	
1134	0	32876	32775	
1135	0	32848	32684	
1136	0	32785	32798	
1137	0	32752	32766	
1138	0	32780	32644	
1139	0	32870	32921	
1140	0	32838	32834	
1141	0	32794	32732	
1142	0	32828	32814	
1143	0	32822	32792	
1144	0	32856	32764	
1145	0	32784	32774	
1146	0	32840	32804	
1147	0	32748	32890	
1148	0	32814	32761	
1149	0	32808	32774	
1150	0	32846	32674	
1151	0	32802	32756	
1152	0	32832	32759	
1153	0	32816	32822	
1154	0	32788	32674	
1155	0	32788	32744	
1156	0	32872	32698	
1157	0	32816	32806	
1158	0	32764	32814	
1159	0	32856	32720	
1160	0	32796	32754	
1161	0	32868	32694	
1162	0	32852	32838	
1163	0	32800	32775	
1164	0	32778	32708	
1165	0	32802	32775	
1166	0	32842	32726	
1167	0	32814	32844	
1168	0	32784	32730	
1169	0	32828	32850	
1170	0	32788	32714	
1171	0	32804	32830	
1172	0	32821	32743	
1173	0	32815	32772	
1174	0	32832	32854	
1175	0	32832	32828	
1176	0	32794	32796	
1177	0	32808	32732	
1178	0	32834	32710	
1179	0	32866	32724	
1180	0	32708	32800	
1181	0	32828	32804	
1182	0	32878	32692	
1183	0	32892	32752	
1184	0	32816	32760	
1185	0	32810	32738	
1186	0	32800	32808	
1187	0	32788	32802	
1188	0	32772	32698	
1189	0	32806	32742	
1190	0	32828	32738	
1191	0	32744	32716	
1192	0	32836	32748	
1193	0	32783	32820	
1194	0	32812	32766	
1195	0	32866	32822	
1196	0	32790	32812	
1197	0	32794	32721	
1198	0	32796	32775	
1199	0	32856	32692	
1200	0	32748	32790	
1201	0	32810	32718	
1202	0	32784	32802	
1203	0	32832	32734	
1204	0	32784	32808	
1205	0	32804	32808	
1206	0	32842	32786	
1207	0	32768	32796	
1208	0	32804	32721	
1209	0	32772	32751	
1210	0	32838	32616	
1211	0	32804	32812	
1212	0	32836	32700	
1213	0	32780	32850	
1214	0	32871	32759	
1215	0	32780	32775	
1216	0	32780	32774	
1217	0	32810	32660	
1218	0	32800	32740	
1219	0	32796	32660	
1220	0	32804	32775	
1221	0	32802	32737	
1222	0	32856	32820	
1223	0	32882	32775	
1224	0	32844	32742	
1225	0	32820	32824	
1226	0	32792	32826	
1227	0	32820	32775	
1228	0	32832	32804	
1229	0	32836	32682	
1230	0	32828	32756	
1231	0	32768	32728	
1232	0	32836	32823	
1233	0	32796	32828	
1234	0	32832	32740	
1235	0	32816	32844	
1236	0	32800	32724	
1237	0	32788	32756	
1238	0	32824	32612	
1239	0	32764	32726	
1240	0	32808	32758	
1241	0	32846	32743	
1242	0	32810	32725	
1243	0	32816	32676	
1244	0	32826	32804	
1245	0	32868	32744	
1246	0	32716	32838	
1247	0	32816	32800	
1248	0	32798	32756	
1249	0	32828	32772	
1250	0	32794	32722	
1251	0	32800	32804	
1252	0	32932	32710	
1253	0	32790	32775	
1254	0	32756	32844	
1255	0	32772	32752	
1256	0	32800	32866	
1257	0	32774	32712	
1258	0	32850	32732	
1259	0	32770	32732	
1260	0	32788	32775	
1261	0	32784	32704	
1262	0	32808	32772	
1263	0	32856	32694	
1264	0	32804	32738	
1265	0	32912	32711	
1266	0	32788	32804	
1267	0	32816	32712	
1268	0	32804	32820	
1269	0	32792	32836	
1270	0	32712	32811	
1271	0	32800	32768	
1272	0	32848	32724	
1273	0	32826	32864	
1274	0	32840	32760	
1275	0	32816	32766	
1276	0	32862	32704	
1277	0	32848	32704	
1278	0	32820	32706	
1279	0	32834	32796	
1280	0	32840	32650	
1281	0	32820	32793	
1282	0	32824	32894	
1283	0	32801	32812	
1284	0	32860	32818	
1285	0	32774	32704	
1286	0	32786	32818	
1287	0	32784	32830	
1288	0	32840	32751	
1289	0	32836	32796	
1290	0	32770	32655	
1291	0	32762	32793	
1292	0	32816	32840	
1293	0	32802	32810	
1294	0	32744	32846	
1295	0	32828	32839	
1296	0	32840	32830	
1297	0	32830	32812	
1298	0	32840	32752	
1299	0	32748	32720	
1300	0	32802	32770	
1301	0	32814	32682	
1302	0	32802	32748	
1303	0	32804	32639	
1304	0	32810	32720	
1305	0	32820	32692	
1306	0	32836	32766	
1307	0	32830	32820	
1308	0	32804	32782	
1309	0	32760	32844	
1310	0	32798	32737	
1311	0	32780	32802	
1312	0	32782	32691	
1313	0	32784	32728	
1314	0	32828	32608	
1315	0	32864	32740	
1316	0	32812	32678	
1317	0	32772	32806	
1318	0	32744	32690	
1319	0	32856	32775	
1320	0	32828	32726	
1321	0	32780	32671	
1322	0	32830	32688	
1323	0	32814	32716	
1324	0	32784	32694	
1325	0	32776	32708	
1326	0	32832	32724	
1327	0	32808	32775	
1328	0	32796	32800	
1329	0	32810	32784	
1330	0	32800	32734	
1331	0	32834	32700	
1332	0	32804	32664	
1333	0	32822	32724	
1334	0	32812	32728	
1335	0	32766	32646	
1336	0	32836	32806	
1337	0	32804	32852	
1338	0	32872	32854	
1339	0	32844	32826	
1340	0	32792	32752	
1341	0	32836	32814	
1342	0	32808	32852	
1343	0	32820	32839	
1344	0	32808	32775	
1345	0	32804	32756	
1346	0	32778	32760	
1347	0	32822	32732	
1348	0	32804	32736	
1349	0	32852	32832	
1350	0	32800	32838	
1351	0	32768	32856	
1352	0	32808	32791	
1353	0	32830	32724	
1354	0	32874	32744	
1355	0	32800	32834	
1356	0	32804	32746	
1357	0	32774	32796	
1358	0	32810	32839	
1359	0	32806	32848	
1360	0	32796	32782	
1361	0	32782	32820	
1362	0	32846	32775	
1363	0	32808	32868	
1364	0	32784	32830	
1365	0	32780	32772	
1366	0	32818	32808	
1367	0	32804	32775	
1368	0	32834	32864	
1369	0	32832	32734	
1370	0	32870	32744	
1371	0	32842	32810	
1372	0	32786	32748	
1373	0	32864	32767	
1374	0	32810	32788	
1375	0	32816	32770	
1376	0	32808	32772	
1377	0	32812	32732	
1378	0	32748	32770	
1379	0	32796	32710	
1380	0	32834	32764	
1381	0	32852	32758	
1382	0	32848	32764	
1383	0	32788	32814	
1384	0	32836	32746	
1385	0	32802	32876	
1386	0	32818	32798	
1387	0	32776	32762	
1388	0	32840	32826	
1389	0	32816	32788	
1390	0	32778	32900	
1391	0	32848	32760	
1392	0	32856	32752	
1393	0	32884	32775	
1394	0	32840	32841	
1395	0	32772	32822	
1396	0	32818	32724	
1397	0	32730	32684	
1398	0	32798	32720	
1399	0	32802	32655	
1400	0	32768	32796	
1401	0	32836	32810	
1402	0	32848	32810	
1403	0	32748	32846	
1404	0	32750	32735	
1405	0	32846	32798	
1406	0	32780	32664	
1407	0	32816	32788	
1408	0	32800	32820	
1409	0	32860	32719	
1410	0	32748	32716	
1411	0	32854	32743	
1412	0	32834	32824	
1413	0	32781	32846	
1414	0	32772	32727	
1415	0	32872	32810	
1416	0	32848	32728	
1417	0	32756	32740	
1418	0	32760	32748	
1419	0	32766	32750	
1420	0	32822	32760	
1421	0	32812	32799	
1422	0	32802	32703	
1423	0	32836	32800	
1424	0	32852	32890	
1425	0	32778	32827	
1426	0	32800	32826	
1427	0	32868	32872	
1428	0	32784	32818	
1429	0	32800	32766	
1430	0	32808	32832	
1431	0	32782	32788	
1432	0	32798	32848	
1433	0	32818	32654	
1434	0	32826	32831	
1435	0	32848	32683	
1436	0	32746	32802	
1437	0	32824	32742	
1438	0	32820	32792	
1439	0	32816	32798	
1440	0	32784	32796	
1441	0	32828	32814	
1442	0	32808	32815	
1443	0	32816	32750	
1444	0	32748	32812	
1445	0	32848	32770	
1446	0	32808	32736	
1447	0	32820	32818	
1448	0	32874	32804	
1449	0	32780	32775	
1450	0	32800	32848	
1451	0	32852	32764	
1452	0	32836	32768	
1453	0	32812	32775	
1454	0	32830	32761	
1455	0	32788	32710	
1456	0	32764	32838	
1457	0	32800	32754	
1458	0	32784	32746	
1459	0	32770	32708	
1460	0	32740	32791	
1461	0	32776	32799	
1462	0	32892	32714	
1463	0	32848	32828	
1464	0	32796	32768	
1465	0	32876	32688	
1466	0	32832	32824	
1467	0	32852	32768	
1468	0	32840	32646	
1469	0	32868	32734	
1470	0	32874	32726	
1471	0	32862	32743	
1472	0	32840	32682	
1473	0	32800	32640	
1474	0	32888	32676	
1475	0	32865	32756	
1476	0	32868	32798	
1477	0	32800	32618	
1478	0	32940	32606	
1479	0	32872	32598	
1480	0	32892	32678	
1481	0	32872	32698	
1482	0	32900	32694	
1483	0	32956	32710	
1484	0	32916	32769	
1485	0	32848	32712	
1486	0	32896	32738	
1487	0	32878	32730	
1488	0	32868	32720	
1489	0	32828	32676	
1490	0	32882	32804	
1491	0	32804	32874	
1492	0	32744	32894	
1493	0	32680	32930	
1494	0	32654	32886	
1495	0	32632	32932	
1496	0	32656	32982	
1497	0	32672	32978	
1498	0	32640	32982	
1499	0	32676	32946	
1500	0	32608	32954	
1501	0	32658	32922	
1502	0	32706	32942	
1503	0	32686	32999	
1504	0	32596	33020	
1505	0	32686	33010	
1506	0	32668	33048	
1507	0	32626	33018	
1508	0	32686	33006	
1509	0	32716	32988	
1510	0	32720	32910	
1511	0	32812	32788	
1512	0	32796	32698	
1513	0	32906	32620	
1514	0	32952	32578	
1515	0	32964	32638	
1516	0	32936	32480	
1517	0	32912	32604	
1518	0	32936	32531	
1519	0	32912	32584	
1520	0	32908	32512	
1521	0	32910	32586	
1522	0	32916	32580	
1523	0	32874	32564	
1524	0	32920	32668	
1525	0	32812	32668	
1526	0	32836	32756	
1527	0	32844	32812	
1528	0	32836	32775	
1529	0	32810	32742	
1530	0	32776	32759	
1531	0	32846	32775	
1532	0	32780	32792	
1533	0	32774	32696	
1534	0	32810	32720	
1535	0	32766	32698	
1536	0	32828	32711	
1537	0	32872	32728	
1538	0	32808	32756	
1539	0	32808	32792	
1540	0	32836	32739	
1541	0	32790	32724	
1542	0	32824	32686	
1543	0	32884	32814	
1544	0	32868	32844	
1545	0	32868	32753	
1546	0	32832	32728	
1547	0	32764	32722	
1548	0	32724	32802	
1549	0	32780	32801	
1550	0	32788	32835	
1551	0	32826	32807	
1552	0	32766	32838	
1553	0	32788	32828	
1554	0	32872	32682	
1555	0	32816	32856	
1556	0	32804	32856	
1557	0	32838	32814	
1558	0	32816	32808	
1559	0	32816	32804	
1560	0	32856	32716	
1561	0	32872	32676	
1562	0	32806	32784	
1563	0	32864	32796	
1564	0	32854	32847	
1565	0	32854	32783	
1566	0	32820	32652	
1567	0	32838	32799	
1568	0	32812	32855	
1569	0	32828	32718	
1570	0	32884	32730	
1571	0	32884	32687	
1572	0	32824	32772	
1573	0	32932	32744	
1574	0	32840	32752	
1575	0	32858	32858	
1576	0	32856	32775	
1577	0	32884	32806	
1578	0	32864	32654	
1579	0	32832	32775	
1580	0	32900	32678	
1581	0	32848	32796	
1582	0	32830	32850	
1583	0	32926	32740	
1584	0	32800	32682	
1585	0	32808	32672	
1586	0	32782	32804	
1587	0	32844	32870	
1588	0	32800	32810	
1589	0	32808	32712	
1590	0	32812	32802	
1591	0	32776	32788	
1592	0	32788	32794	
1593	0	32820	32830	
1594	0	32796	32680	
1595	0	32748	32742	
1596	0	32770	32844	
1597	0	32842	32852	
1598	0	32736	32748	
1599	0	32768	32612	
1600	0	32748	32732	
1601	0	32896	32700	
1602	0	32768	32761	
1603	0	32760	32775	
1604	0	32824	32767	
1605	0	32784	32752	
1606	0	32760	32786	
1607	0	32808	32822	
1608	0	32796	32802	
1609	0	32852	32740	
1610	0	32812	32758	
1611	0	32900	32814	
1612	0	32764	32716	
1613	0	32808	32758	
1614	0	32800	32807	
1615	0	32786	32774	
1616	0	32792	32820	
1617	0	32816	32847	
1618	0	32756	32844	
1619	0	32772	32753	
1620	0	32788	32766	
1621	0	32816	32830	
1622	0	32840	32632	
1623	0	32832	32671	
1624	0	32786	32742	
1625	0	32772	32743	
1626	0	32768	32799	
1627	0	32772	32807	
1628	0	32848	32812	
1629	0	32816	32746	
1630	0	32820	32711	
1631	0	32804	32807	
1632	0	32888	32840	
1633	0	32816	32804	
1634	0	32890	32728	
1635	0	32828	32828	
1636	0	32774	32766	
1637	0	32826	32804	
1638	0	32840	32832	
1639	0	32864	32774	
1640	0	32776	32746	
1641	0	32836	32784	
1642	0	32818	32820	
1643	0	32828	32708	
1644	0	32848	32724	
1645	0	32824	32702	
1646	0	32810	32732	
1647	0	32808	32730	
1648	0	32788	32792	
1649	0	32792	32830	
1650	0	32832	32823	
1651	0	32778	32888	
1652	0	32800	32772	
1653	0	32810	32774	
1654	0	32796	32775	
1655	0	32816	32748	
1656	0	32822	32630	
1657	0	32778	32746	
1658	0	32832	32775	
1659	0	32830	32689	
1660	0	32748	32670	
1661	0	32838	32836	
1662	0	32812	32844	
1663	0	32828	32860	
1664	0	32772	32775	
1665	0	32792	32810	
1666	0	32736	32818	
1667	0	32804	32748	
1668	0	32792	32758	
1669	0	32848	32710	
1670	0	32848	32775	
1671	0	32784	32658	
1672	0	32784	32706	
1673	0	32788	32752	
1674	0	32744	32718	
1675	0	32796	32694	
1676	0	32810	32759	
1677	0	32838	32726	
1678	0	32856	32807	
1679	0	32808	32686	
1680	0	32784	32775	
1681	0	32772	32870	
1682	0	32858	32770	
1683	0	32804	32774	
1684	0	32790	32695	
1685	0	32832	32812	
1686	0	32782	32718	
1687	0	32876	32660	
1688	0	32792	32626	
1689	0	32792	32670	
1690	0	32822	32702	
1691	0	32752	32766	
1692	0	32794	32784	
1693	0	32836	32839	
1694	0	32878	32682	
1695	0	32778	32775	
1696	0	32720	32862	
1697	0	32836	32834	
1698	0	32804	32796	
1699	0	32812	32830	
1700	0	32802	32852	
1701	0	32846	32780	
1702	0	32740	32890	
1703	0	32776	32790	
1704	0	32784	32836	
1705	0	32774	32800	
1706	0	32832	32757	
1707	0	32848	32772	
1708	0	32854	32696	
1709	0	32855	32718	
1710	0	32812	32726	
1711	0	32744	32744	
1712	0	32804	32812	
1713	0	32768	32686	
1714	0	32792	32760	
1715	0	32830	32870	
1716	0	32792	32808	
1717	0	32800	32816	
1718	0	32824	32764	
1719	0	32848	32700	
1720	0	32784	32775	
1721	0	32808	32807	
1722	0	32856	32868	
1723	0	32882	32752	
1724	0	32804	32862	
1725	0	32896	32878	
1726	0	32812	32756	
1727	0	32832	32722	
1728	0	32876	32836	
1729	0	32804	32664	
1730	0	32780	32808	
1731	0	32841	32756	
1732	0	32782	32762	
1733	0	32816	32736	
1734	0	32772	32775	
1735	0	32802	32694	
1736	0	32824	32847	
1737	0	32776	32798	
1738	0	32738	32838	
1739	0	32830	32775	
1740	0	32820	32766	
1741	0	32848	32794	
1742	0	32775	32724	
1743	0	32824	32835	
1744	0	32860	32708	
1745	0	32840	32807	
1746	0	32822	32784	
1747	0	32810	32748	
1748	0	32764	32786	
1749	0	32794	32824	
1750	0	32800	32898	
1751	0	32786	32735	
1752	0	32812	32823	
1753	0	32824	32784	
1754	0	32798	32712	
1755	0	32800	32732	
1756	0	32816	32792	
1757	0	32788	32798	
1758	0	32756	32812	
1759	0	32820	32722	
1760	0	32816	32732	
1761	0	32816	32704	
1762	0	32796	32732	
1763	0	32800	32658	
1764	0	32776	32640	
1765	0	32768	32748	
1766	0	32878	32736	
1767	0	32812	32628	
1768	0	32794	32708	
1769	0	32802	32682	
1770	0	32804	32740	
1771	0	32832	32814	
1772	0	32820	32804	
1773	0	32768	32764	
1774	0	32868	32844	
1775	0	32824	32884	
1776	0	32804	32832	
1777	0	32772	32816	
1778	0	32800	32734	
1779	0	32874	32874	
1780	0	32796	32804	
1781	0	32800	32710	
1782	0	32758	32710	
1783	0	32840	32751	
1784	0	32790	32858	
1785	0	32884	32824	
1786	0	32798	32770	
1787	0	32856	32743	
1788	0	32772	32806	
1789	0	32820	32740	
1790	0	32824	32775	
1791	0	32758	32718	
1792	0	32820	32796	
1793	0	32824	32688	
1794	0	32816	32807	
1795	0	32864	32878	
1796	0	32824	32692	
1797	0	32772	32708	
1798	0	32800	32720	
1799	0	32821	32804	
1800	0	32896	32655	
1801	0	32800	32874	
1802	0	32784	32774	
1803	0	32778	32750	
1804	0	32812	32734	
1805	0	32780	32820	
1806	0	32766	32788	
1807	0	32832	32863	
1808	0	32808	32834	
1809	0	32794	32694	
1810	0	32804	32770	
1811	0	32820	32708	
1812	0	32781	32800	
1813	0	32804	32711	
1814	0	32816	32790	
1815	0	32840	32897	
1816	0	32772	32799	
1817	0	32760	32814	
1818	0	32776	32708	
1819	0	32826	32826	
1820	0	32840	32652	
1821	0	32840	32769	
1822	0	32832	32732	
1823	0	32758	32738	
1824	0	32794	32710	
1825	0	32850	32775	
1826	0	32852	32860	
1827	0	32766	32664	
1828	0	32782	32788	
1829	0	32888	32726	
1830	0	32824	32744	
1831	0	32814	32686	
1832	0	32838	32814	
1833	0	32840	32740	
1834	0	32776	32854	
1835	0	32732	32760	
1836	0	32836	32769	
1837	0	32760	32738	
1838	0	32824	32705	
1839	0	32760	32759	
1840	0	32800	32764	
1841	0	32790	32822	
1842	0	32804	32789	
1843	0	32864	32818	
1844	0	32896	32796	
1845	0	32810	32679	
1846	0	32816	32802	
1847	0	32768	32837	
1848	0	32828	32790	
1849	0	32800	32896	
1850	0	32830	32804	
1851	0	32758	32746	
1852	0	32794	32657	
1853	0	32832	32821	
1854	0	32828	32774	
1855	0	32808	32732	
1856	0	32804	32700	
1857	0	32794	32724	
1858	0	32804	32798	
1859	0	32809	32764	
1860	0	32768	32688	
1861	0	32876	32825	
1862	0	32896	32870	
1863	0	32764	32692	
1864	0	32796	32766	
1865	0	32810	32650	
1866	0	32802	32871	
1867	0	32814	32894	
1868	0	32844	32770	
1869	0	32796	32746	
1870	0	32816	32708	
1871	0	32836	32826	
1872	0	32812	32756	
1873	0	32808	32792	
1874	0	32828	32798	
1875	0	32828	32710	
1876	0	32826	32700	
1877	0	32848	32770	
1878	0	32760	32808	
1879	0	32834	32719	
1880	0	32908	32799	
1881	0	32748	32730	
1882	0	32754	32688	
1883	0	32800	32766	
1884	0	32828	32766	
1885	0	32872	32775	
1886	0	32798	32775	
1887	0	32868	32788	
1888	0	32808	32775	
1889	0	32872	32634	
1890	0	32760	32718	
1891	0	32760	32697	
1892	0	32832	32804	
1893	0	32794	32646	
1894	0	32852	32823	
1895	0	32820	32714	
1896	0	32828	32702	
1897	0	32790	32788	
1898	0	32848	32694	
1899	0	32776	32812	
1900	0	32776	32769	
1901	0	32832	32655	
1902	0	32848	32714	
1903	0	32848	32798	
1904	0	32864	32806	
1905	0	32832	32842	
1906	0	32716	32692	
1907	0	32728	32804	
1908	0	32812	32841	
1909	0	32826	32646	
1910	0	32804	32732	
1911	0	32820	32735	
1912	0	32796	32772	
1913	0	32794	32902	
1914	0	32804	32808	
1915	0	32788	32798	
1916	0	32874	32794	
1917	0	32824	32736	
1918	0	32732	32717	
1919	0	32832	32662	
1920	0	32816	32815	
1921	0	32796	32816	
1922	0	32844	32826	
1923	0	32808	32820	
1924	0	32844	32830	
1925	0	32856	32804	
1926	0	32808	32748	
1927	0	32872	32724	
1928	0	32846	32720	
1929	0	32806	32742	
1930	0	32808	32775	
1931	0	32752	32862	
1932	0	32840	32826	
1933	0	32852	32752	
1934	0	32836	32798	
1935	0	32788	32684	
1936	0	32786	32754	
1937	0	32808	32692	
1938	0	32760	32752	
1939	0	32836	32688	
1940	0	32796	32802	
1941	0	32738	32792	
1942	0	32856	32812	
1943	0	32812	32738	
1944	0	32852	32830	
1945	0	32804	32742	
1946	0	32836	32798	
1947	0	32812	32844	
1948	0	32816	32711	
1949	0	32774	32848	
1950	0	32744	32762	
1951	0	32744	32794	
1952	0	32840	32718	
1953	0	32792	32680	
1954	0	32832	32670	
1955	0	32796	32807	
1956	0	32740	32692	
1957	0	32792	32798	
1958	0	32808	32696	
1959	0	32852	32807	
1960	0	32892	32775	
1961	0	32754	32769	
1962	0	32856	32836	
1963	0	32814	32762	
1964	0	32808	32846	
1965	0	32832	32679	
1966	0	32834	32774	
1967	0	32832	32708	
1968	0	32820	32854	
1969	0	32844	32896	
1970	0	32744	32802	
1971	0	32812	32732	
1972	0	32794	32729	
1973	0	32784	32732	
1974	0	32776	32771	
1975	0	32824	32775	
1976	0	32838	32750	
1977	0	32776	32688	
1978	0	32834	32800	
1979	0	32830	32656	
1980	0	32798	32742	
1981	0	32836	32712	
1982	0	32784	32798	
1983	0	32796	32784	
1984	0	32804	32842	
1985	0	32796	32798	
1986	0	32816	32694	
1987	0	32760	32798	
1988	0	32824	32764	
1989	0	32856	32766	
1990	0	32748	32678	
1991	0	32864	32728	
1992	0	32780	32743	
1993	0	32792	32787	
1994	0	32814	32834	
1995	0	32764	32772	
1996	0	32788	32748	
1997	0	32858	32842	
1998	0	32846	32740	
1999	0	32823	32740	
2000	0	32836	32726	
2001	0	32856	32744	
2002	0	32796	32750	
2003	0	32846	32769	
2004	0	32776	32775	
2005	0	32796	32762	
2006	0	32830	32708	
2007	0	32822	32774	
2008	0	32816	32760	
2009	0	32778	32775	
2010	0	32808	32770	
2011	0	32832	32806	
2012	0	32772	32759	
2013	0	32768	32740	
2014	0	32800	32844	
2015	0	32798	32806	
2016	0	32872	32806	
2017	0	32820	32752	
2018	0	32836	32692	
2019	0	32882	32764	
2020	0	32768	32678	
2021	0	32808	32774	
2022	0	32818	32788	
2023	0	32808	32838	
2024	0	32848	32710	
2025	0	32832	32718	
2026	0	32776	32860	
2027	0	32772	32792	
2028	0	32790	32786	
2029	0	32856	32719	
2030	0	32796	32844	
2031	0	32842	32876	
2032	0	32714	32758	
2033	0	32788	32764	
2034	0	32836	32740	
2035	0	32840	32686	
2036	0	32804	32698	
2037	0	32808	32807	
2038	0	32792	32754	
2039	0	32804	32816	
2040	0	32830	32768	
2041	0	32844	32836	
2042	0	32812	32820	
2043	0	32768	32718	
2044	0	32848	32886	
2045	0	32820	32764	
2046	0	32810	32796	
2047	0	32856	32712	
2048	0	32872	32826	
2049	0	32808	32752	
2050	0	32800	32830	
2051	0	32752	32828	
2052	0	32806	32734	
2053	0	32774	32789	
2054	0	32822	32622	
2055	0	32814	32824	
2056	0	32858	32718	
2057	0	32820	32760	
2058	0	32810	32794	
2059	0	32804	32708	
2060	0	32808	32786	
2061	0	32752	32752	
2062	0	32798	32704	
2063	0	32768	32714	
2064	0	32808	32804	
2065	0	32840	32699	
2066	0	32864	32750	
2067	0	32860	32704	
2068	0	32804	32839	
2069	0	32836	32724	
2070	0	32848	32798	
2071	0	32848	32678	
2072	0	32822	32772	
2073	0	32776	32916	
2074	0	32838	32774	
2075	0	32832	32828	
2076	0	32800	32738	
2077	0	32810	32734	
2078	0	32822	32690	
2079	0	32806	32866	
2080	0	32760	32706	
2081	0	32752	32724	
2082	0	32798	32720	
2083	0	32810	32770	
2084	0	32756	32712	
2085	0	32844	32838	
2086	0	32826	32750	
2087	0	32896	32810	
2088	0	32844	32807	
2089	0	32796	32740	
2090	0	32860	32708	
2091	0	32760	32716	
2092	0	32776	32756	
2093	0	32820	32676	
2094	0	32826	32749	
2095	0	32836	32794	
2096	0	32782	32721	
2097	0	32818	32826	
2098	0	32804	32606	
2099	0	32842	32748	
2100	0	32820	32708	
2101	0	32889	32860	
2102	0	32802	32842	
2103	0	32812	32784	
2104	0	32840	32852	
2105	0	32754	32687	
2106	0	32784	32758	
2107	0	32841	32734	
2108	0	32748	32808	
2109	0	32746	32812	
2110	0	32750	32812	
2111	0	32742	32812	
2112	0	32826	32760	
2113	0	32826	32814	
2114	0	32872	32740	
2115	0	32840	32775	
2116	0	32790	32608	
2117	0	32812	32796	
2118	0	32814	32662	
2119	0	32808	32886	
2120	0	32798	32820	
2121	0	32774	32862	
2122	0	32812	32772	
2123	0	32848	32686	
2124	0	32814	32775	
2125	0	32776	32725	
2126	0	32794	32770	
2127	0	32896	32839	
2128	0	32734	32756	
2129	0	32834	32816	
2130	0	32800	32679	
2131	0	32800	32742	
2132	0	32828	32852	
2133	0	32792	32790	
2134	0	32792	32750	
2135	0	32828	32794	
2136	0	32772	32820	
2137	0	32788	32812	
2138	0	32810	32798	
2139	0	32810	32727	
2140	0	32852	32620	
2141	0	32816	32712	
2142	0	32776	32839	
2143	0	32782	32875	
2144	0	32836	32790	
2145	0	32792	32802	
2146	0	32784	32852	
2147	0	32846	32816	
2148	0	32832	32696	
2149	0	32788	32801	
2150	0	32856	32640	
2151	0	32840	32810	
2152	0	32820	32788	
2153	0	32784	32804	
2154	0	32804	32766	
2155	0	32808	32742	
2156	0	32808	32775	
2157	0	32872	32735	
2158	0	32852	32746	
2159	0	32750	32772	
2160	0	32764	32751	
2161	0	32880	32814	
2162	0	32864	32812	
2163	0	32796	32844	
2164	0	32836	32828	
2165	0	32818	32814	
2166	0	32808	32775	
2167	0	32834	32795	
2168	0	32802	32742	
2169	0	32820	32796	
2170	0	32822	32689	
2171	0	32824	32722	
2172	0	32780	32704	
2173	0	32828	32775	
2174	0	32838	32682	
2175	0	32772	32766	
2176	0	32796	32669	
2177	0	32748	32740	
2178	0	32800	32734	
2179	0	32798	32775	
2180	0	32768	32720	
2181	0	32776	32775	
2182	0	32804	32744	
2183	0	32804	32799	
2184	0	32792	32775	
2185	0	32760	32673	
2186	0	32840	32816	
2187	0	32884	32700	
2188	0	32812	32752	
2189	0	32806	32712	
2190	0	32802	32807	
2191	0	32844	32716	
2192	0	32776	32876	
2193	0	32808	32705	
2194	0	32808	32846	
2195	0	32856	32828	
2196	0	32820	32740	
2197	0	32842	32748	
2198	0	32792	32772	
2199	0	32780	32918	
2200	0	32770	32775	
2201	0	32788	32844	
2202	0	32796	32628	
2203	0	32836	32756	
2204	0	32812	32668	
2205	0	32822	32854	
2206	0	32776	32804	
2207	0	32828	32756	
2208	0	32786	32838	
2209	0	32784	32709	
2210	0	32832	32748	
2211	0	32774	32732	
2212	0	32824	32806	
2213	0	32824	32758	
2214	0	32832	32772	
2215	0	32792	32766	
2216	0	32776	32775	
2217	0	32746	32767	
2218	0	32824	32769	
2219	0	32828	32748	
2220	0	32848	32720	
2221	0	32804	32762	
2222	0	32832	32806	
2223	0	32792	32764	
2224	0	32816	32764	
2225	0	32884	32744	
2226	0	32732	32836	
2227	0	32734	32852	
2228	0	32790	32792	
2229	0	32828	32854	
2230	0	32840	32850	
2231	0	32802	32752	
2232	0	32852	32646	
2233	0	32744	32734	
2234	0	32840	32656	
2235	0	32800	32802	
2236	0	32820	32768	
2237	0	32804	32815	
2238	0	32830	32839	
2239	0	32812	32854	
2240	0	32778	32838	
2241	0	32808	32820	
2242	0	32812	32684	
2243	0	32864	32824	
2244	0	32836	32654	
2245	0	32868	32792	
2246	0	32828	32916	
2247	0	32734	32834	
2248	0	32760	32810	
2249	0	32900	32692	
2250	0	32844	32764	
2251	0	32796	32688	
2252	0	32768	32710	
2253	0	32828	32682	
2254	0	32798	32746	
2255	0	32858	32724	
2256	0	32816	32816	
2257	0	32804	32849	
2258	0	32836	32804	
2259	0	32796	32824	
2260	0	32780	32743	
2261	0	32776	32755	
2262	0	32846	32719	
2263	0	32834	32856	
2264	0	32792	32798	
2265	0	32830	32844	
2266	0	32874	32751	
2267	0	32785	32756	
2268	0	32856	32766	
2269	0	32756	32750	
2270	0	32836	32832	
2271	0	32804	32728	
2272	0	32846	32775	
2273	0	32818	32775	
2274	0	32774	32727	
2275	0	32824	32656	
2276	0	32756	32699	
2277	0	32825	32678	
2278	0	32796	32759	
2279	0	32826	32804	
2280	0	32880	32775	
2281	0	32802	32758	
2282	0	32846	32759	
2283	0	32824	32854	
2284	0	32808	32760	
2285	0	32812	32802	
2286	0	32792	32760	
2287	0	32790	32736	
2288	0	32844	32753	
2289	0	32816	32790	
2290	0	32772	32766	
2291	0	32824	32775	
2292	0	32794	32692	
2293	0	32850	32784	
2294	0	32794	32760	
2295	0	32736	32736	
2296	0	32784	32809	
2297	0	32772	32726	
2298	0	32832	32775	
2299	0	32816	32870	
2300	0	32802	32775	
2301	0	32788	32882	
2302	0	32780	32775	
2303	0	32834	32712	
2304	0	32768	32724	
2305	0	32752	32748	
2306	0	32886	32664	
2307	0	32774	32732	
2308	0	32828	32670	
2309	0	32834	32700	
2310	0	32792	32812	
2311	0	32784	32764	
2312	0	32796	32832	
2313	0	32818	32766	
2314	0	32836	32798	
2315	0	32872	32734	
2316	0	32764	32774	
2317	0	32828	32836	
2318	0	32752	32774	
2319	0	32800	32762	
2320	0	32835	32748	
2321	0	32808	32786	
2322	0	32804	32836	
2323	0	32784	32864	
2324	0	32832	32666	
2325	0	32840	32652	
2326	0	32792	32790	
2327	0	32816	32773	
2328	0	32840	32584	
2329	0	32840	32714	
2330	0	32780	32704	
2331	0	32834	32892	
2332	0	32740	32814	
2333	0	32836	32788	
2334	0	32842	32808	
2335	0	32842	32812	
2336	0	32794	32836	
2337	0	32816	32676	
2338	0	32814	32775	
2339	0	32772	32806	
2340	0	32840	32762	
2341	0	32744	32769	
2342	0	32766	32765	
2343	0	32824	32871	
2344	0	32793	32844	
2345	0	32872	32812	
2346	0	32836	32730	
2347	0	32852	32686	
2348	0	32850	32742	
2349	0	32832	32773	
2350	0	32820	32734	
2351	0	32850	32732	
2352	0	32782	32774	
2353	0	32840	32775	
2354	0	32792	32750	
2355	0	32808	32796	
2356	0	32784	32790	
2357	0	32804	32766	
2358	0	32770	32855	
2359	0	32836	32737	
2360	0	32814	32740	
2361	0	32792	32687	
2362	0	32808	32728	
2363	0	32824	32788	
2364	0	32792	32701	
2365	0	32836	32716	
2366	0	32828	32688	
2367	0	32844	32775	
2368	0	32800	32696	
2369	0	32842	32743	
2370	0	32784	32697	
2371	0	32752	32632	
2372	0	32822	32704	
2373	0	32792	32774	
2374	0	32738	32656	
2375	0	32808	32792	
2376	0	32790	32715	
2377	0	32818	32766	
2378	0	32776	32814	
2379	0	32788	32718	
2380	0	32836	32798	
2381	0	32844	32740	
2382	0	32824	32854	
2383	0	32850	32807	
2384	0	32768	32714	
2385	0	32804	32806	
2386	0	32818	32807	
2387	0	32826	32790	
2388	0	32750	32855	
2389	0	32828	32838	
2390	0	32788	32775	
2391	0	32774	32668	
2392	0	32756	32664	
2393	0	32809	32708	
2394	0	32820	32732	
2395	0	32748	32744	
2396	0	32796	32614	
2397	0	32800	32723	
2398	0	32792	32819	
2399	0	32782	32788	
2400	0	32782	32782	
2401	0	32800	32800	
2402	0	32872	32788	
2403	0	32834	32690	
2404	0	32752	32792	
2405	0	32824	32766	
2406	0	32808	32766	
2407	0	32824	32879	
2408	0	32826	32750	
2409	0	32848	32648	
2410	0	32856	32762	
2411	0	32826	32720	
2412	0	32810	32738	
2413	0	32847	32724	
2414	0	32782	32775	
2415	0	32816	32679	
2416	0	32808	32724	
2417	0	32768	32674	
2418	0	32780	32708	
2419	0	32826	32888	
2420	0	32786	32743	
2421	0	32812	32692	
2422	0	32824	32712	
2423	0	32804	32826	
2424	0	32774	32812	
2425	0	32800	32830	
2426	0	32760	32814	
2427	0	32772	32804	
2428	0	32774	32798	
2429	0	32820	32801	
2430	0	32864	32844	
2431	0	32776	32871	
2432	0	32784	32756	
2433	0	32720	32807	
2434	0	32848	32812	
2435	0	32896	32714	
2436	0	32824	32720	
2437	0	32816	32692	
2438	0	32748	32711	
2439	0	32828	32671	
2440	0	32804	32740	
2441	0	32796	32689	
2442	0	32824	32704	
2443	0	32800	32775	
2444	0	32786	32768	
2445	0	32852	32810	
2446	0	32860	32790	
2447	0	32796	32762	
2448	0	32776	32775	
2449	0	32824	32750	
2450	0	32858	32775	
2451	0	32834	32818	
2452	0	32796	32800	
2453	0	32804	32884	
2454	0	32812	32804	
2455	0	32772	32830	
2456	0	32798	32807	
2457	0	32840	32748	
2458	0	32728	32792	
2459	0	32806	32720	
2460	0	32856	32734	
2461	0	32844	32746	
2462	0	32820	32672	
2463	0	32772	32702	
2464	0	32844	32807	
2465	0	32820	32728	
2466	0	32780	32730	
2467	0	32884	32730	
2468	0	32760	32744	
2469	0	32892	32692	
2470	0	32828	32710	
2471	0	32832	32748	
2472	0	32774	32775	
2473	0	32780	32775	
2474	0	32852	32798	
2475	0	32796	32836	
2476	0	32878	32738	
2477	0	32768	32751	
2478	0	32824	32740	
2479	0	32812	32719	
2480	0	32775	32775	
2481	0	32864	32808	
2482	0	32808	32800	
2483	0	32840	32790	
2484	0	32844	32770	
2485	0	32780	32806	
2486	0	32772	32820	
2487	0	32804	32784	
2488	0	32820	32798	
2489	0	32860	32737	
2490	0	32832	32756	
2491	0	32790	32714	
2492	0	32856	32674	
2493	0	32900	32702	
2494	0	32808	32748	
2495	0	32778	32720	
2496	0	32812	32664	
2497	0	32754	32718	
2498	0	32780	32672	
2499	0	32840	32796	
2500	0	32816	32736	
2501	0	32772	32826	
2502	0	32844	32794	
2503	0	32860	32728	
2504	0	32832	32770	
2505	0	32798	32775	
2506	0	32806	32856	
2507	0	32836	32775	
2508	0	32752	32736	
2509	0	32804	32756	
2510	0	32788	32800	
2511	0	32826	32806	
2512	0	32832	32844	
2513	0	32856	32835	
2514	0	32840	32722	
2515	0	32828	32687	
2516	0	32770	32766	
2517	0	32800	32720	
2518	0	32756	32680	
2519	0	32852	32708	
2520	0	32800	32700	
2521	0	32800	32696	
2522	0	32796	32690	
2523	0	32840	32680	
2524	0	32776	32762	
2525	0	32824	32748	
2526	0	32784	32774	
2527	0	32832	32734	
2528	0	32844	32774	
2529	0	32788	32804	
2530	0	32804	32796	
2531	0	32804	32775	
2532	0	32816	32775	
2533	0	32770	32792	
2534	0	32786	32792	
2535	0	32864	32798	
2536	0	32784	32728	
2537	0	32808	32804	
2538	0	32808	32794	
2539	0	32940	32775	
2540	0	32858	32708	
2541	0	32856	32738	
2542	0	32856	32660	
2543	0	32834	32722	
2544	0	32896	32703	
2545	0	32824	32708	
2546	0	32844	32824	
2547	0	32850	32632	
2548	0	32860	32666	
2549	0	32896	32652	
2550	0	32905	32624	
2551	0	32872	32644	
2552	0	32900	32672	
2553	0	32860	32683	
2554	0	32912	32602	
2555	0	32906	32624	
2556	0	32852	32598	
2557	0	32928	32742	
2558	0	32884	32718	
2559	0	32832	32736	
2560	0	32824	32775	
2561	0	32820	32833	
2562	0	32784	32900	
2563	0	32846	32804	
2564	0	32688	32920	
2565	0	32658	32942	
2566	0	32648	32903	
2567	0	32664	32852	
2568	0	32652	32885	
2569	0	32664	32941	
2570	0	32700	32984	
2571	0	32664	33028	
2572	0	32624	33008	
2573	0	32706	32886	
2574	0	32594	32952	
2575	0	32656	32874	
2576	0	32624	32812	
2577	0	32660	32990	
2578	0	32580	32868	
2579	0	32656	32880	
2580	0	32652	32920	
2581	0	32682	32804	
2582	0	32804	32730	
2583	0	32864	32628	
2584	0	32906	32507	
2585	0	32948	32494	
2586	0	32860	32572	
2587	0	33024	32544	
2588	0	32952	32664	
2589	0	32944	32596	
2590	0	32940	32676	
2591	0	32856	32632	
2592	0	32880	32650	
2593	0	32880	32684	
2594	0	32840	32724	
2595	0	32838	32718	
2596	0	32824	32772	
2597	0	32832	32742	
2598	0	32824	32796	
2599	0	32824	32755	
2600	0	32846	32828	
2601	0	32876	32772	
2602	0	32772	32696	
2603	0	32772	32660	
2604	0	32804	32774	
2605	0	32802	32708	
2606	0	32856	32789	
2607	0	32740	32820	
2608	0	32848	32810	
2609	0	32856	32762	
2610	0	32834	32750	
2611	0	32888	32708	
2612	0	32830	32738	
2613	0	32816	32815	
2614	0	32896	32788	
2615	0	32840	32743	
2616	0	32796	32758	
2617	0	32754	32799	
2618	0	32824	32792	
2619	0	32812	32736	
2620	0	32850	32690	
2621	0	32830	32753	
2622	0	32812	32700	
2623	0	32844	32737	
2624	0	32848	32804	
2625	0	32840	32698	
2626	0	32820	32708	
2627	0	32792	32712	
2628	0	32816	32728	
2629	0	32833	32760	
2630	0	32806	32799	
2631	0	32832	32810	
2632	0	32796	32722	
2633	0	32850	32730	
2634	0	32834	32806	
2635	0	32825	32874	
2636	0	32860	32724	
2637	0	32820	32635	
2638	0	32852	32694	
2639	0	32822	32650	
2640	0	32846	32812	
2641	0	32876	32774	
2642	0	32840	32674	
2643	0	32922	32822	
2644	0	32868	32879	
2645	0	32816	32839	
2646	0	32782	32822	
2647	0	32844	32743	
2648	0	32864	32775	
2649	0	32854	32770	
2650	0	32828	32804	
2651	0	32792	32730	
2652	0	32866	32812	
2653	0	32836	32799	
2654	0	32766	32775	
2655	0	32864	32840	
2656	0	32801	32828	
2657	0	32848	32711	
2658	0	32794	32739	
2659	0	32788	32692	
2660	0	32796	32679	
2661	0	32804	32658	
2662	0	32822	32728	
2663	0	32784	32705	
2664	0	32788	32704	
2665	0	32796	32695	
2666	0	32824	32719	
2667	0	32790	32684	
2668	0	32816	32772	
2669	0	32814	32692	
2670	0	32832	32736	
2671	0	32744	32759	
2672	0	32756	32871	
2673	0	32792	32800	
2674	0	32814	32810	
2675	0	32828	32718	
2676	0	32792	32696	
2677	0	32805	32678	
2678	0	32772	32710	
2679	0	32792	32828	
2680	0	32810	32806	
2681	0	32776	32847	
2682	0	32834	32730	
2683	0	32796	32842	
2684	0	32796	32890	
2685	0	32808	32792	
2686	0	32840	32758	
2687	0	32788	32807	
2688	0	32794	32836	
2689	0	32860	32800	
2690	0	32762	32816	
2691	0	32804	32806	
2692	0	32822	32754	
2693	0	32776	32748	
2694	0	32848	32878	
2695	0	32760	32812	
2696	0	32808	32842	
2697	0	32780	32794	
2698	0	32836	32832	
2699	0	32864	32804	
2700	0	32832	32794	
2701	0	32844	32790	
2702	0	32788	32816	
2703	0	32822	32736	
2704	0	32840	32830	
2705	0	32890	32774	
2706	0	32828	32734	
2707	0	32820	32642	
2708	0	32814	32736	
2709	0	32792	32710	
2710	0	32764	32788	
2711	0	32776	32789	
2712	0	32808	32802	
2713	0	32880	32830	
2714	0	32816	32718	
2715	0	32876	32748	
2716	0	32788	32736	
2717	0	32796	32732	
2718	0	32836	32839	
2719	0	32808	32764	
2720	0	32892	32716	
2721	0	32744	32734	
2722	0	32878	32748	
2723	0	32804	32732	
2724	0	32852	32722	
2725	0	32812	32806	
2726	0	32884	32775	
2727	0	32812	32796	
2728	0	32826	32750	
2729	0	32821	32790	
2730	0	32832	32678	
2731	0	32812	32742	
2732	0	32756	32711	
2733	0	32768	32664	
2734	0	32812	32720	
2735	0	32856	32838	
2736	0	32756	32686	
2737	0	32838	32774	
2738	0	32802	32716	
2739	0	32756	32812	
2740	0	32804	32825	
2741	0	32812	32818	
2742	0	32828	32834	
2743	0	32864	32800	
2744	0	32800	32847	
2745	0	32840	32837	
2746	0	32848	32746	
2747	0	32824	32830	
2748	0	32756	32720	
2749	0	32900	32806	
2750	0	32868	32700	
2751	0	32764	32718	
2752	0	32812	32676	
2753	0	32840	32892	
2754	0	32794	32806	
2755	0	32840	32828	
2756	0	32814	32828	
2757	0	32796	32775	
2758	0	32800	32815	
2759	0	32808	32726	
2760	0	32772	32772	
2761	0	32812	32664	
2762	0	32748	32810	
2763	0	32870	32816	
2764	0	32840	32816	
2765	0	32852	32760	
2766	0	32760	32696	
2767	0	32820	32753	
2768	0	32788	32774	
2769	0	32836	32771	
2770	0	32804	32890	
2771	0	32828	32697	
2772	0	32820	32766	
2773	0	32788	32775	
2774	0	32769	32766	
2775	0	32898	32812	
2776	0	32816	32714	
2777	0	32832	32750	
2778	0	32796	32800	
2779	0	32804	32770	
2780	0	32808	32830	
2781	0	32804	32724	
2782	0	32788	32717	
2783	0	32836	32756	
2784	0	32768	32884	
2785	0	32872	32750	
2786	0	32852	32748	
2787	0	32820	32822	
2788	0	32816	32850	
2789	0	32882	32670	
2790	0	32825	32604	
2791	0	32796	32817	
2792	0	32788	32764	
2793	0	32802	32815	
2794	0	32816	32810	
2795	0	32816	32728	
2796	0	32756	32775	
2797	0	32816	32846	
2798	0	32836	32712	
2799	0	32814	32772	
2800	0	32800	32774	
2801	0	32772	32721	
2802	0	32846	32712	
2803	0	32800	32774	
2804	0	32780	32766	
2805	0	32832	32788	
2806	0	32816	32806	
2807	0	32832	32760	
2808	0	32806	32656	
2809	0	32828	32720	
2810	0	32784	32820	
2811	0	32796	32774	
2812	0	32800	32812	
2813	0	32820	32719	
2814	0	32868	32769	
2815	0	32792	32770	
2816	0	32796	32790	
2817	0	32784	32721	
2818	0	32812	32775	
2819	0	32836	32722	
2820	0	32850	32718	
2821	0	32796	32775	
2822	0	32778	32759	
2823	0	32852	32760	
2824	0	32832	32768	
2825	0	32756	32786	
2826	0	32786	32808	
2827	0	32832	32734	
2828	0	32800	32720	
2829	0	32836	32748	
2830	0	32800	32854	
2831	0	32880	32775	
2832	0	32776	32732	
2833	0	32802	32907	
2834	0	32838	32712	
2835	0	32742	32684	
2836	0	32860	32671	
2837	0	32802	32802	
2838	0	32812	32772	
2839	0	32734	32748	
2840	0	32820	32782	
2841	0	32820	32847	
2842	0	32804	32646	
2843	0	32848	32697	
2844	0	32820	32762	
2845	0	32874	32731	
2846	0	32788	32822	
2847	0	32826	32758	
2848	0	32808	32794	
2849	0	32808	32775	
2850	0	32784	32798	
2851	0	32780	32838	
2852	0	32804	32798	
2853	0	32786	32682	
2854	0	32848	32853	
2855	0	32818	32758	
2856	0	32810	32721	
2857	0	32772	32718	
2858	0	32816	32696	
2859	0	32766	32770	
2860	0	32804	32836	
2861	0	32824	32838	
2862	0	32848	32807	
2863	0	32824	32740	
2864	0	32840	32754	
2865	0	32830	32796	
2866	0	32728	32712	
2867	0	32786	32704	
2868	0	32810	32672	
2869	0	32830	32720	
2870	0	32804	32850	
2871	0	32832	32772	
2872	0	32862	32692	
2873	0	32772	32798	
2874	0	32800	32804	
2875	0	32820	32834	
2876	0	32776	32735	
2877	0	32790	32666	
2878	0	32804	32708	
2879	0	32788	32759	
2880	0	32796	32657	
2881	0	32772	32700	
2882	0	32818	32756	
2883	0	32812	32738	
2884	0	32762	32768	
2885	0	32808	32769	
2886	0	32802	32775	
2887	0	32812	32796	
2888	0	32830	32792	
2889	0	32840	32724	
2890	0	32832	32730	
2891	0	32852	32775	
2892	0	32826	32756	
2893	0	32782	32800	
2894	0	32868	32788	
2895	0	32792	32839	
2896	0	32788	32719	
2897	0	32824	32746	
2898	0	32750	32696	
2899	0	32740	32700	
2900	0	32804	32794	
2901	0	32780	32742	
2902	0	32824	32828	
2903	0	32800	32775	
2904	0	32792	32628	
2905	0	32824	32680	
2906	0	32786	32802	
2907	0	32832	32844	
2908	0	32890	32774	
2909	0	32864	32850	
2910	0	32792	32775	
2911	0	32812	32679	
2912	0	32800	32764	
2913	0	32832	32772	
2914	0	32802	32798	
2915	0	32844	32753	
2916	0	32764	32759	
2917	0	32850	32764	
2918	0	32816	32748	
2919	0	32816	32796	
2920	0	32764	32823	
2921	0	32756	32756	
2922	0	32836	32764	
2923	0	32792	32772	
2924	0	32802	32732	
2925	0	32824	32756	
2926	0	32840	32808	
2927	0	32852	32798	
2928	0	32812	32684	
2929	0	32836	32664	
2930	0	32892	32764	
2931	0	32808	32848	
2932	0	32744	32772	
2933	0	32748	32702	
2934	0	32800	32879	
2935	0	32800	32831	
2936	0	32792	32696	
2937	0	32848	32670	
2938	0	32802	32791	
2939	0	32884	32775	
2940	0	32856	32775	
2941	0	32812	32802	
2942	0	32786	32654	
2943	0	32826	32726	
2944	0	32836	32775	
2945	0	32828	32839	
2946	0	32824	32804	
2947	0	32772	32742	
2948	0	32832	32758	
2949	0	32774	32848	
2950	0	32828	32722	
2951	0	32822	32722	
2952	0	32748	32698	
2953	0	32830	32860	
2954	0	32734	32754	
2955	0	32826	32865	
2956	0	32840	32678	
2957	0	32760	32736	
2958	0	32804	32814	
2959	0	32790	32775	
2960	0	32746	32751	
2961	0	32820	32806	
2962	0	32808	32811	
2963	0	32840	32727	
2964	0	32796	32732	
2965	0	32780	32670	
2966	0	32824	32749	
2967	0	32772	32734	
2968	0	32832	32848	
2969	0	32796	32860	
2970	0	32848	32750	
2971	0	32754	32736	
2972	0	32800	32769	
2973	0	32862	32820	
2974	0	32742	32756	
2975	0	32768	32672	
2976	0	32828	32748	
2977	0	32790	32762	
2978	0	32812	32679	
2979	0	32771	32708	
2980	0	32836	32804	
2981	0	32842	32786	
2982	0	32780	32772	
2983	0	32824	32822	
2984	0	32820	32720	
2985	0	32822	32696	
2986	0	32844	32619	
2987	0	32828	32775	
2988	0	32853	32758	
2989	0	32832	32796	
2990	0	32796	32724	
2991	0	32760	32828	
2992	0	32828	32852	
2993	0	32780	32735	
2994	0	32832	32714	
2995	0	32764	32860	
2996	0	32824	32794	
2997	0	32808	32756	
2998	0	32824	32780	
2999	0	32784	32842	
3000	0	32824	32814	
3001	0	32776	32775	
3002	0	32792	32807	
3003	0	32834	32807	
3004	0	32824	32911	
3005	0	32876	32752	
3006	0	32864	32684	
3007	0	32816	32758	
3008	0	32808	32775	
3009	0	32794	32816	
3010	0	32812	32775	
3011	0	32824	32855	
3012	0	32789	32644	
3013	0	32880	32694	
3014	0	32812	32736	
3015	0	32784	32830	
3016	0	32796	32774	
3017	0	32792	32760	
3018	0	32812	32678	
3019	0	32802	32793	
3020	0	32852	32846	
3021	0	32758	32727	
3022	0	32818	32775	
3023	0	32802	32688	
3024	0	32880	32658	
3025	0	32768	32736	
3026	0	32800	32742	
3027	0	32872	32836	
3028	0	32828	32796	
3029	0	32788	32664	
3030	0	32800	32758	
3031	0	32775	32764	
3032	0	32780	32734	
3033	0	32848	32860	
3034	0	32788	32718	
3035	0	32808	32672	
3036	0	32846	32814	
3037	0	32796	32754	
3038	0	32802	32817	
3039	0	32800	32750	
3040	0	32848	32734	
3041	0	32796	32804	
3042	0	32872	32806	
3043	0	32794	32764	
3044	0	32748	32839	
3045	0	32812	32850	
3046	0	32768	32810	
3047	0	32794	32804	
3048	0	32848	32834	
3049	0	32792	32633	
3050	0	32810	32740	
3051	0	32770	32720	
3052	0	32772	32806	
3053	0	32888	32858	
3054	0	32830	32812	
3055	0	32830	32742	
3056	0	32776	32748	
3057	0	32782	32764	
3058	0	32808	32764	
3059	0	32810	32834	
3060	0	32840	32716	
3061	0	32828	32718	
3062	0	32828	32688	
3063	0	32800	32732	
3064	0	32852	32712	
3065	0	32866	32766	
3066	0	32812	32775	
3067	0	32824	32702	
3068	0	32812	32677	
3069	0	32808	32684	
3070	0	32788	32742	
3071	0	32838	32628	
3072	0	32775	32810	
3073	0	32792	32726	
3074	0	32768	32666	
3075	0	32868	32736	
3076	0	32832	32799	
3077	0	32872	32679	
3078	0	32772	32756	
3079	0	32746	32869	
3080	0	32780	32807	
3081	0	32784	32806	
3082	0	32888	32666	
3083	0	32852	32743	
3084	0	32834	32688	
3085	0	32806	32750	
3086	0	32760	32802	
3087	0	32812	32775	
3088	0	32812	32775	
3089	0	32842	32686	
3090	0	32756	32734	
3091	0	32788	32646	
3092	0	32800	32795	
3093	0	32840	32752	
3094	0	32837	32784	
3095	0	32768	32644	
3096	0	32848	32822	
3097	0	32868	32708	
3098	0	32808	32807	
3099	0	32772	32734	
3100	0	32768	32830	
3101	0	32772	32818	
3102	0	32852	32740	
3103	0	32828	32686	
3104	0	32866	32775	
3105	0	32800	32692	
3106	0	32870	32732	
3107	0	32806	32738	
3108	0	32874	32726	
3109	0	32792	32689	
3110	0	32796	32774	
3111	0	32820	32775	
3112	0	32848	32762	
3113	0	32836	32734	
3114	0	32834	32756	
3115	0	32744	32788	
3116	0	32750	32814	
3117	0	32824	32828	
3118	0	32800	32708	
3119	0	32762	32732	
3120	0	32818	32758	
3121	0	32792	32711	
3122	0	32796	32734	
3123	0	32780	32786	
3124	0	32828	32868	
3125	0	32844	32775	
3126	0	32852	32726	
3127	0	32840	32841	
3128	0	32788	32798	
3129	0	32806	32708	
3130	0	32784	32695	
3131	0	32820	32643	
3132	0	32836	32686	
3133	0	32828	32766	
3134	0	32816	32846	
3135	0	32788	32840	
3136	0	32752	32856	
3137	0	32760	32852	
3138	0	32820	32732	
3139	0	32744	32742	
3140	0	32796	32807	
3141	0	32862	32784	
3142	0	32838	32838	
3143	0	32842	32774	
3144	0	32880	32670	
3145	0	32868	32794	
3146	0	32776	32800	
3147	0	32804	32831	
3148	0	32808	32764	
3149	0	32812	32780	
3150	0	32820	32687	
3151	0	32800	32836	
3152	0	32830	32678	
3153	0	32784	32766	
3154	0	32744	32836	
3155	0	32812	32860	
3156	0	32804	32824	
3157	0	32842	32848	
3158	0	32864	32752	
3159	0	32832	32775	
3160	0	32784	32668	
3161	0	32810	32792	
3162	0	32812	32882	
3163	0	32842	32782	
3164	0	32832	32870	
3165	0	32774	32828	
3166	0	32772	32814	
3167	0	32804	32790	
3168	0	32780	32812	
3169	0	32780	32664	
3170	0	32812	32711	
3171	0	32842	32726	
3172	0	32848	32794	
3173	0	32776	32734	
3174	0	32860	32711	
3175	0	32840	32798	
3176	0	32948	32812	
3177	0	32798	32696	
3178	0	32840	32706	
3179	0	32804	32654	
3180	0	32792	32748	
3181	0	32826	32686	
3182	0	32808	32854	
3183	0	32808	32775	
3184	0	32822	32775	
3185	0	32800	32799	
3186	0	32792	32766	
3187	0	32784	32808	
3188	0	32811	32756	
3189	0	32802	32802	
3190	0	32782	32826	
3191	0	32780	32636	
3192	0	32792	32838	
3193	0	32808	32852	
3194	0	32824	32774	
3195	0	32808	32758	
3196	0	32846	32737	
3197	0	32786	32795	
3198	0	32888	32830	
3199	0	32862	32770	
3200	0	32810	32706	
3201	0	32762	32632	
3202	0	32876	32801	
3203	0	32802	32862	
3204	0	32832	32811	
3205	0	32817	32770	
3206	0	32762	32756	
3207	0	32841	32716	
3208	0	32814	32672	
3209	0	32812	32764	
3210	0	32824	32812	
3211	0	32836	32770	
3212	0	32762	32806	
3213	0	32828	32679	
3214	0	32816	32807	
3215	0	32808	32798	
3216	0	32882	32730	
3217	0	32792	32716	
3218	0	32784	32704	
3219	0	32812	32730	
3220	0	32840	32815	
3221	0	32840	32696	
3222	0	32752	32788	
3223	0	32842	32734	
3224	0	32806	32766	
3225	0	32792	32755	
3226	0	32788	32755	
3227	0	32830	32784	
3228	0	32848	32898	
3229	0	32876	32790	
3230	0	32814	32748	
3231	0	32798	32742	
3232	0	32768	32682	
3233	0	32792	32844	
3234	0	32800	32868	
3235	0	32821	32746	
3236	0	32752	32775	
3237	0	32796	32823	
3238	0	32776	32774	
3239	0	32700	32790	
3240	0	32808	32724	
3241	0	32880	32802	
3242	0	32800	32838	
3243	0	32856	32710	
3244	0	32801	32719	
3245	0	32780	32742	
3246	0	32828	32838	
3247	0	32906	32696	
3248	0	32798	32849	
3249	0	32856	32838	
3250	0	32824	32751	
3251	0	32762	32750	
3252	0	32800	32724	
3253	0	32792	32838	
3254	0	32826	32676	
3255	0	32836	32788	
3256	0	32804	32880	
3257	0	32800	32678	
3258	0	32796	32748	
3259	0	32812	32726	
3260	0	32794	32767	
3261	0	32796	32744	
3262	0	32884	32658	
3263	0	32884	32836	
3264	0	32832	32772	
3265	0	32826	32708	
3266	0	32776	32719	
3267	0	32852	32775	
3268	0	32812	32788	
3269	0	32764	32732	
3270	0	32844	32672	
3271	0	32828	32814	
3272	0	32836	32692	
3273	0	32826	32828	
3274	0	32800	32810	
3275	0	32752	32798	
3276	0	32810	32767	
3277	0	32840	32662	
3278	0	32828	32834	
3279	0	32784	32740	
3280	0	32820	32876	
3281	0	32826	32775	
3282	0	32876	32654	
3283	0	32760	32746	
3284	0	32810	32922	
3285	0	32816	32688	
3286	0	32748	32740	
3287	0	32800	32728	
3288	0	32754	32844	
3289	0	32868	32844	
3290	0	32848	32794	
3291	0	32756	32798	
3292	0	32826	32832	
3293	0	32782	32731	
3294	0	32804	32832	
3295	0	32852	32734	
3296	0	32800	32806	
3297	0	32836	32822	
3298	0	32830	32828	
3299	0	32792	32844	
3300	0	32800	32750	
3301	0	32798	32788	
3302	0	32800	32702	
3303	0	32868	32794	
3304	0	32796	32788	
3305	0	32788	32768	
3306	0	32822	32646	
3307	0	32788	32774	
3308	0	32870	32704	
3309	0	32772	32811	
3310	0	32780	32838	
3311	0	32776	32750	
3312	0	32816	32710	
3313	0	32776	32820	
3314	0	32808	32742	
3315	0	32800	32839	
3316	0	32784	32762	
3317	0	32768	32622	
3318	0	32816	32807	
3319	0	32812	32722	
3320	0	32788	32734	
3321	0	32852	32688	
3322	0	32888	32708	
3323	0	32840	32704	
3324	0	32832	32804	
3325	0	32804	32894	
3326	0	32864	32846	
3327	0	32744	32704	
3328	0	32816	32775	
3329	0	32824	32775	
3330	0	32805	32806	
3331	0	32904	32722	
3332	0	32776	32718	
3333	0	32796	32794	
3334	0	32798	32679	
3335	0	32804	32774	
3336	0	32832	32694	
3337	0	32842	32724	
3338	0	32764	32764	
3339	0	32784	32791	
3340	0	32854	32738	
3341	0	32778	32822	
3342	0	32802	32711	
3343	0	32804	32764	
3344	0	32864	32750	
3345	0	32752	32738	
3346	0	32832	32630	
3347	0	32856	32791	
3348	0	32828	32678	
3349	0	32800	32800	
3350	0	32830	32746	
3351	0	32776	32801	
3352	0	32794	32696	
3353	0	32812	32852	
3354	0	32880	32738	
3355	0	32852	32784	
3356	0	32826	32714	
3357	0	32822	32676	
3358	0	32800	32766	
3359	0	32748	32704	
3360	0	32804	32744	
3361	0	32830	32804	
3362	0	32804	32720	
3363	0	32784	32783	
3364	0	32844	32638	
3365	0	32818	32793	
3366	0	32808	32684	
3367	0	32776	32764	
3368	0	32802	32764	
3369	0	32814	32775	
3370	0	32796	32672	
3371	0	32828	32800	
3372	0	32824	32748	
3373	0	32836	32770	
3374	0	32828	32710	
3375	0	32820	32754	
3376	0	32812	32726	
3377	0	32748	32756	
3378	0	32858	32706	
3379	0	32768	32775	
3380	0	32920	32756	
3381	0	32796	32736	
3382	0	32802	32806	
3383	0	32792	32775	
3384	0	32804	32775	
3385	0	32832	32802	
3386	0	32816	32850	
3387	0	32880	32804	
3388	0	32796	32748	
3389	0	32840	32758	
3390	0	32772	32754	
3391	0	32832	32676	
3392	0	32796	32807	
3393	0	32840	32804	
3394	0	32800	32820	
3395	0	32826	32775	
3396	0	32846	32775	
3397	0	32800	32760	
3398	0	32752	32812	
3399	0	32844	32759	
3400	0	32778	32772	
3401	0	32860	32796	
3402	0	32824	32758	
3403	0	32812	32742	
3404	0	32808	32820	
3405	0	32826	32810	
3406	0	32822	32804	
3407	0	32816	32762	
3408	0	32844	32743	
3409	0	32824	32662	
3410	0	32796	32644	
3411	0	32812	32708	
3412	0	32776	32831	
3413	0	32796	32724	
3414	0	32772	32842	
3415	0	32849	32765	
3416	0	32756	32730	
3417	0	32794	32775	
3418	0	32816	32848	
3419	0	32792	32806	
3420	0	32820	32742	
3421	0	32812	32679	
3422	0	32768	32730	
3423	0	32852	32748	
3424	0	32856	32870	
3425	0	32802	32804	
3426	0	32800	32856	
3427	0	32882	32768	
3428	0	32772	32724	
3429	0	32776	32761	
3430	0	32822	32726	
3431	0	32776	32840	
3432	0	32822	32628	
3433	0	32798	32772	
3434	0	32780	32774	
3435	0	32740	32775	
3436	0	32852	32810	
3437	0	32814	32762	
3438	0	32798	32768	
3439	0	32824	32764	
3440	0	32744	32810	
3441	0	32744	32720	
3442	0	32820	32812	
3443	0	32804	32759	
3444	0	32832	32704	
3445	0	32816	32784	
3446	0	32836	32695	
3447	0	32722	32758	
3448	0	32840	32810	
3449	0	32850	32762	
3450	0	32800	32846	
3451	0	32796	32666	
3452	0	32816	32813	
3453	0	32836	32721	
3454	0	32880	32798	
3455	0	32804	32842	
3456	0	32852	32706	
3457	0	32832	32824	
3458	0	32836	32682	
3459	0	32772	32800	
3460	0	32832	32696	
3461	0	32802	32754	
3462	0	32800	32714	
3463	0	32824	32767	
3464	0	32826	32744	
3465	0	32780	32839	
3466	0	32796	32806	
3467	0	32776	32801	
3468	0	32838	32906	
3469	0	32790	32801	
3470	0	32824	32747	
3471	0	32856	32862	
3472	0	32790	32714	
3473	0	32832	32796	
3474	0	32848	32806	
3475	0	32832	32721	
3476	0	32791	32828	
3477	0	32792	32721	
3478	0	32820	32860	
3479	0	32828	32734	
3480	0	32798	32743	
3481	0	32782	32670	
3482	0	32808	32818	
3483	0	32765	32686	
3484	0	32808	32786	
3485	0	32792	32876	
3486	0	32820	32775	
3487	0	32788	32806	
3488	0	32836	32758	
3489	0	32828	32756	
3490	0	32829	32698	
3491	0	32792	32810	
3492	0	32784	32692	
3493	0	32818	32938	
3494	0	32842	32764	
3495	0	32808	32828	
3496	0	32804	32775	
3497	0	32838	32642	
3498	0	32868	32800	
3499	0	32756	32644	
3500	0	32841	32769	
3501	0	32822	32667	
3502	0	32870	32744	
3503	0	32840	32724	
3504	0	32764	32830	
3505	0	32780	32911	
3506	0	32808	32766	
3507	0	32842	32798	
3508	0	32778	32696	
3509	0	32770	32698	
3510	0	32741	32642	
3511	0	32848	32750	
3512	0	32850	32688	
3513	0	32792	32748	
3514	0	32828	32708	
3515	0	32900	32766	
3516	0	32802	32664	
3517	0	32784	32764	
3518	0	32808	32682	
3519	0	32834	32770	
3520	0	32750	32660	
3521	0	32804	32808	
3522	0	32816	32790	
3523	0	32772	32924	
3524	0	32772	32740	
3525	0	32828	32758	
3526	0	32728	32790	
3527	0	32878	32720	
3528	0	32800	32774	
3529	0	32856	32639	
3530	0	32842	32696	
3531	0	32752	32682	
3532	0	32824	32772	
3533	0	32818	32687	
3534	0	32844	32774	
3535	0	32808	32836	
3536	0	32788	32756	
3537	0	32790	32814	
3538	0	32824	32746	
3539	0	32824	32737	
3540	0	32800	32724	
3541	0	32804	32792	
3542	0	32794	32679	
3543	0	32858	32792	
3544	0	32824	32660	
3545	0	32828	32822	
3546	0	32820	32716	
3547	0	32840	32880	
3548	0	32868	32838	
3549	0	32784	32751	
3550	0	32826	32766	
3551	0	32798	32654	
3552	0	32788	32736	
3553	0	32802	32719	
3554	0	32792	32676	
3555	0	32830	32635	
3556	0	32808	32746	
3557	0	32772	32664	
3558	0	32832	32591	
3559	0	32752	32732	
3560	0	32842	32872	
3561	0	32834	32814	
3562	0	32846	32842	
3563	0	32824	32775	
3564	0	32852	32820	
3565	0	32824	32812	
3566	0	32812	32759	
3567	0	32828	32772	
3568	0	32820	32768	
3569	0	32772	32824	
3570	0	32808	32676	
3571	0	32820	32772	
3572	0	32750	32842	
3573	0	32788	32812	
3574	0	32798	32772	
3575	0	32860	32647	
3576	0	32778	32770	
3577	0	32838	32654	
3578	0	32814	32775	
3579	0	32840	32836	
3580	0	32856	32834	
3581	0	32832	32790	
3582	0	32792	32756	
3583	0	32788	32829	
3584	0	32878	32682	
3585	0	32808	32775	
3586	0	32840	32735	
3587	0	32821	32766	
3588	0	32792	32764	
3589	0	32784	32750	
3590	0	32818	32726	
3591	0	32821	32775	
3592	0	32832	32682	
3593	0	32826	32852	
3594	0	32824	32812	
3595	0	32808	32775	
3596	0	32820	32775	
3597	0	32812	32638	
3598	0	32748	32764	
3599	0	32836	32726	
3600	0	32784	32791	
3601	0	32828	32754	
3602	0	32796	32644	
3603	0	32786	32744	
3604	0	32821	32708	
3605	0	32814	32796	
3606	0	32852	32895	
3607	0	32820	32775	
3608	0	32810	32900	
3609	0	32826	32815	
3610	0	32720	32836	
3611	0	32836	32735	
3612	0	32836	32828	
3613	0	32824	32669	
3614	0	32802	32790	
3615	0	32804	32714	
3616	0	32830	32758	
3617	0	32832	32727	
3618	0	32820	32852	
3619	0	32780	32788	
3620	0	32820	32784	
3621	0	32820	32828	
3622	0	32784	32743	
3623	0	32848	32738	
3624	0	32862	32676	
3625	0	32848	32855	
3626	0	32884	32576	
3627	0	32860	32708	
3628	0	32828	32576	
3629	0	32920	32708	
3630	0	32900	32646	
3631	0	32868	32660	
3632	0	32902	32586	
3633	0	32832	32692	
3634	0	32844	32716	
3635	0	32852	32682	
3636	0	32864	32615	
3637	0	32868	32694	
3638	0	32856	32794	
3639	0	32868	32704	
3640	0	32924	32750	
3641	0	32830	32743	
3642	0	32912	32742	
3643	0	32880	32724	
3644	0	32860	32740	
3645	0	32792	32682	
3646	0	32856	32749	
3647	0	32808	32826	
3648	0	32792	32894	
3649	0	32686	32831	
3650	0	32628	32922	
3651	0	32660	32856	
3652	0	32748	32881	
3653	0	32694	32880	
3654	0	32692	32982	
3655	0	32696	32908	
3656	0	32634	32986	
3657	0	32620	32889	
3658	0	32604	33006	
3659	0	32684	32864	
3660	0	32644	33028	
3661	0	32580	32914	
3662	0	32628	32980	
3663	0	32632	33052	
3664	0	32628	32916	
3665	0	32728	32982	
3666	0	32700	32852	
3667	0	32812	32854	
3668	0	32856	32760	
3669	0	32932	32519	
3670	0	32896	32606	
3671	0	32952	32519	
3672	0	32964	32544	
3673	0	32884	32571	
3674	0	32936	32498	
3675	0	32910	32496	
3676	0	32918	32629	
3677	0	32804	32516	
3678	0	32853	32750	
3679	0	32902	32752	
3680	0	32868	32654	
3681	0	32884	32756	
3682	0	32826	32654	
3683	0	32820	32750	
3684	0	32834	32748	
3685	0	32804	32774	
3686	0	32856	32844	
3687	0	32840	32876	
3688	0	32786	32871	
3689	0	32850	32842	
3690	0	32840	32830	
3691	0	32796	32775	
3692	0	32792	32786	
3693	0	32840	32772	
3694	0	32844	32770	
3695	0	32812	32756	
3696	0	32846	32826	
3697	0	32868	32764	
3698	0	32812	32842	
3699	0	32844	32775	
3700	0	32772	32854	
3701	0	32828	32818	
3702	0	32793	32871	
3703	0	32824	32838	
3704	0	32838	32867	
3705	0	32804	32808	
3706	0	32864	32775	
3707	0	32816	32708	
3708	0	32792	32763	
3709	0	32864	32828	
3710	0	32828	32798	
3711	0	32800	32798	
3712	0	32772	32846	
3713	0	32840	32774	
3714	0	32808	32743	
3715	0	32888	32734	
3716	0	32768	32727	
3717	0	32840	32768	
3718	0	32812	32711	
3719	0	32804	32775	
3720	0	32788	32764	
3721	0	32856	32766	
3722	0	32888	32790	
3723	0	32824	32754	
3724	0	32912	32790	
3725	0	32768	32828	
3726	0	32784	32768	
3727	0	32836	32798	
3728	0	32824	32807	
3729	0	32922	32775	
3730	0	32816	32726	
3731	0	32836	32788	
3732	0	32808	32658	
3733	0	32810	32627	
3734	0	32776	32664	
3735	0	32864	32876	
3736	0	32768	32860	
3737	0	32840	32848	
3738	0	32864	32812	
3739	0	32796	32775	
3740	0	32764	32708	
3741	0	32784	32846	
3742	0	32844	32802	
3743	0	32840	32760	
3744	0	32846	32692	
3745	0	32782	32856	
3746	0	32836	32732	
3747	0	32832	32798	
3748	0	32832	32786	
3749	0	32776	32804	
3750	0	32764	32712	
3751	0	32796	32714	
3752	0	32724	32704	
3753	0	32796	32754	
3754	0	32836	32784	
3755	0	32852	32733	
3756	0	32792	32831	
3757	0	32778	32796	
3758	0	32788	32816	
3759	0	32784	32862	
3760	0	32784	32854	
3761	0	32782	32820	
3762	0	32784	32774	
3763	0	32848	32743	
3764	0	32804	32799	
3765	0	32766	32714	
3766	0	32832	32788	
3767	0	32768	32847	
3768	0	32812	32861	
3769	0	32852	32796	
3770	0	32824	32764	
3771	0	32784	32756	
3772	0	32790	32701	
3773	0	32860	32686	
3774	0	32760	32716	
3775	0	32780	32724	
3776	0	32790	32866	
3777	0	32808	32902	
3778	0	32810	32815	
3779	0	32788	32788	
3780	0	32832	32722	
3781	0	32816	32831	
3782	0	32848	32714	
3783	0	32822	32704	
3784	0	32836	32698	
3785	0	32852	32848	
3786	0	32744	32816	
3787	0	32804	32828	
3788	0	32866	32705	
3789	0	32852	32774	
3790	0	32820	32806	
3791	0	32768	32804	
3792	0	32788	32740	
3793	0	32788	32663	
3794	0	32860	32806	
3795	0	32864	32800	
3796	0	32796	32748	
3797	0	32832	32714	
3798	0	32806	32732	
3799	0	32796	32744	
3800	0	32808	32868	
3801	0	32872	32746	
3802	0	32794	32758	
3803	0	32760	32714	
3804	0	32836	32822	
3805	0	32764	32766	
3806	0	32840	32790	
3807	0	32836	32738	
3808	0	32802	32792	
3809	0	32796	32738	
3810	0	32820	32808	
3811	0	32836	32854	
3812	0	32816	32736	
3813	0	32836	32798	
3814	0	32876	32859	
3815	0	32780	32647	
3816	0	32828	32719	
3817	0	32754	32716	
3818	0	32816	32814	
3819	0	32844	32827	
3820	0	32810	32774	
3821	0	32768	32806	
3822	0	32810	32689	
3823	0	32846	32775	
3824	0	32812	32775	
3825	0	32808	32766	
3826	0	32828	32678	
3827	0	32834	32796	
3828	0	32802	32711	
3829	0	32800	32826	
3830	0	32752	32658	
3831	0	32828	32723	
3832	0	32776	32754	
3833	0	32804	32839	
3834	0	32872	32829	
3835	0	32828	32800	
3836	0	32808	32799	
3837	0	32756	32798	
3838	0	32736	32766	
3839	0	32788	32718	
3840	0	32832	32678	
3841	0	32805	32772	
3842	0	32808	32736	
3843	0	32856	32688	
3844	0	32748	32695	
3845	0	32764	32806	
3846	0	32820	32775	
3847	0	32874	32769	
3848	0	32832	32784	
3849	0	32782	32775	
3850	0	32854	32823	
3851	0	32800	32930	
3852	0	32780	32775	
3853	0	32790	32820	
3854	0	32784	32838	
3855	0	32744	32798	
3856	0	32806	32780	
3857	0	32816	32775	
3858	0	32768	32772	
3859	0	32884	32775	
3860	0	32824	32742	
3861	0	32848	32743	
3862	0	32824	32804	
3863	0	32738	32775	
3864	0	32840	32802	
3865	0	32824	32796	
3866	0	32808	32812	
3867	0	32856	32760	
3868	0	32788	32724	
3869	0	32780	32796	
3870	0	32824	32808	
3871	0	32754	32767	
3872	0	32804	32775	
3873	0	32800	32782	
3874	0	32812	32698	
3875	0	32800	32670	
3876	0	32824	32734	
3877	0	32812	32692	
3878	0	32879	32808	
3879	0	32840	32810	
3880	0	32768	32760	
3881	0	32824	32720	
3882	0	32868	32808	
3883	0	32868	32864	
3884	0	32852	32804	
3885	0	32784	32821	
3886	0	32818	32820	
3887	0	32838	32846	
3888	0	32818	32690	
3889	0	32830	32666	
3890	0	32772	32746	
3891	0	32724	32726	
3892	0	32804	32709	
3893	0	32826	32775	
3894	0	32794	32742	
3895	0	32820	32794	
3896	0	32800	32751	
3897	0	32816	32784	
3898	0	32752	32802	
3899	0	32880	32792	
3900	0	32840	32775	
3901	0	32804	32802	
3902	0	32812	32775	
3903	0	32820	32782	
3904	0	32798	32786	
3905	0	32784	32818	
3906	0	32784	32898	
3907	0	32842	32852	
3908	0	32816	32720	
3909	0	32842	32678	
3910	0	32860	32684	
3911	0	32852	32692	
3912	0	32816	32664	
3913	0	32784	32806	
3914	0	32796	32716	
3915	0	32860	32638	
3916	0	32756	32624	
3917	0	32728	32766	
3918	0	32792	32770	
3919	0	32810	32830	
3920	0	32792	32746	
3921	0	32860	32750	
3922	0	32881	32764	
3923	0	32846	32870	
3924	0	32836	32834	
3925	0	32788	32732	
3926	0	32856	32771	
3927	0	32840	32693	
3928	0	32853	32632	
3929	0	32850	32676	
3930	0	32772	32762	
3931	0	32808	32742	
3932	0	32838	32794	
3933	0	32808	32743	
3934	0	32780	32764	
3935	0	32836	32820	
3936	0	32800	32796	
3937	0	32840	32796	
3938	0	32816	32820	
3939	0	32744	32718	
3940	0	32736	32709	
3941	0	32762	32804	
3942	0	32816	32852	
3943	0	32806	32772	
3944	0	32788	32760	
3945	0	32846	32654	
3946	0	32825	32704	
3947	0	32772	32684	
3948	0	32824	32764	
3949	0	32828	32760	
3950	0	32816	32798	
3951	0	32782	32868	
3952	0	32764	32769	
3953	0	32820	32804	
3954	0	32874	32772	
3955	0	32820	32736	
3956	0	32842	32792	
3957	0	32792	32738	
3958	0	32752	32696	
3959	0	32824	32798	
3960	0	32816	32772	
3961	0	32752	32730	
3962	0	32796	32775	
3963	0	32780	32716	
3964	0	32868	32664	
3965	0	32796	32679	
3966	0	32773	32664	
3967	0	32906	32688	
3968	0	32780	32822	
3969	0	32820	32771	
3970	0	32772	32832	
3971	0	32762	32786	
3972	0	32804	32897	
3973	0	32860	32820	
3974	0	32816	32775	
3975	0	32812	32830	
3976	0	32808	32746	
3977	0	32808	32866	
3978	0	32818	32848	
3979	0	32792	32815	
3980	0	32740	32844	
3981	0	32808	32731	
3982	0	32788	32760	
3983	0	32866	32720	
3984	0	32894	32774	
3985	0	32868	32775	
3986	0	32846	32837	
3987	0	32830	32820	
3988	0	32784	32794	
3989	0	32750	32686	
3990	0	32772	32726	
3991	0	32792	32730	
3992	0	32840	32665	
3993	0	32872	32700	
3994	0	32826	32722	
3995	0	32824	32662	
3996	0	32732	32714	
3997	0	32850	32734	
3998	0	32804	32762	
3999	0	32776	32868	
4000	0	32790	32818	
4001	0	32812	32870	
4002	0	32838	32775	
4003	0	32848	32734	
4004	0	32760	32862	
4005	0	32862	32830	
4006	0	32828	32800	
4007	0	32852	32823	
4008	0	32774	32809	
4009	0	32820	32760	
4010	0	32796	32820	
4011	0	32874	32790	
4012	0	32792	32767	
4013	0	32788	32775	
4014	0	32852	32794	
4015	0	32820	32788	
4016	0	32744	32682	
4017	0	32778	32662	
4018	0	32848	32756	
4019	0	32852	32628	
4020	0	32816	32633	
4021	0	32830	32694	
4022	0	32808	32694	
4023	0	32876	32708	
4024	0	32864	32792	
4025	0	32702	32810	
4026	0	32816	32856	
4027	0	32832	32743	
4028	0	32800	32754	
4029	0	32808	32750	
4030	0	32800	32775	
4031	0	32774	32762	
4032	0	32816	32752	
4033	0	32810	32844	
4034	0	32800	32766	
4035	0	32872	32868	
4036	0	32776	32810	
4037	0	32804	32764	
4038	0	32836	32710	
4039	0	32800	32694	
4040	0	32798	32684	
4041	0	32812	32710	
4042	0	32855	32816	
4043	0	32780	32764	
4044	0	32804	32775	
4045	0	32760	32714	
4046	0	32778	32760	
4047	0	32828	32775	
4048	0	32834	32772	
4049	0	32780	32746	
4050	0	32784	32730	
4051	0	32718	32710	
4052	0	32808	32836	
4053	0	32872	32828	
4054	0	32856	32828	
4055	0	32884	32775	
4056	0	32800	32757	
4057	0	32824	32734	
4058	0	32840	32850	
4059	0	32814	32804	
4060	0	32834	32766	
4061	0	32852	32646	
4062	0	32786	32676	
4063	0	32800	32708	
4064	0	32840	32676	
4065	0	32812	32720	
4066	0	32782	32712	
4067	0	32836	32682	
4068	0	32840	32686	
4069	0	32800	32687	
4070	0	32818	32711	
4071	0	32838	32678	
4072	0	32880	32714	
4073	0	32800	32796	
4074	0	32836	32830	
4075	0	32876	32835	
4076	0	32852	32798	
4077	0	32852	32814	
4078	0	32804	32894	
4079	0	32768	32830	
4080	0	32750	32807	
4081	0	32830	32775	
4082	0	32804	32760	
4083	0	32824	32770	
4084	0	32820	32743	
4085	0	32774	32804	
4086	0	32752	32754	
4087	0	32816	32727	
4088	0	32788	32748	
4089	0	32732	32693	
4090	0	32806	32826	
4091	0	32822	32814	
4092	0	32743	32804	
4093	0	32796	32775	
4094	0	32824	32720	
4095	0	32880	32748	
4096	0	32882	32800	
4097	0	32868	32786	
4098	0	32802	32794	
4099	0	32864	32812	
4100	0	32816	32796	
4101	0	32864	32804	
4102	0	32844	32850	
4103	0	32836	32839	
4104	0	32898	32760	
4105	0	32824	32752	
4106	0	32814	32766	
4107	0	32820	32762	
4108	0	32848	32758	
4109	0	32860	32715	
4110	0	32848	32775	
4111	0	32780	32752	
4112	0	32816	32812	
4113	0	32894	32903	
4114	0	32754	32800	
4115	0	32700	32797	
4116	0	32764	32820	
4117	0	32804	32740	
4118	0	32792	32704	
4119	0	32760	32734	
4120	0	32704	32814	
4121	0	32766	32756	
4122	0	32772	32775	
4123	0	32784	32775	
4124	0	32840	32808	
4125	0	32744	32788	
4126	0	32817	32796	
4127	0	32784	32834	
4128	0	32752	32758	
4129	0	32816	32756	
4130	0	32788	32874	
4131	0	32788	32760	
4132	0	32800	32791	
4133	0	32748	32770	
4134	0	32868	32788	
4135	0	32880	32740	
4136	0	32790	32834	
4137	0	32796	32800	
4138	0	32824	32764	
4139	0	32896	32822	
4140	0	32772	32818	
4141	0	32752	32815	
4142	0	32868	32770	
4143	0	32842	32775	
4144	0	32826	32760	
4145	0	32836	32729	
4146	0	32816	32646	
4147	0	32810	32688	
4148	0	32808	32612	
4149	0	32846	32622	
4150	0	32836	32732	
4151	0	32840	32724	
4152	0	32832	32710	
4153	0	32752	32752	
4154	0	32780	32716	
4155	0	32804	32754	
4156	0	32796	32706	
4157	0	32860	32628	
4158	0	32752	32740	
4159	0	32744	32806	
4160	0	32791	32828	
4161	0	32844	32706	
4162	0	32900	32706	
4163	0	32826	32732	
4164	0	32816	32708	
4165	0	32816	32743	
4166	0	32868	32756	
4167	0	32776	32690	
4168	0	32838	32636	
4169	0	32802	32728	
4170	0	32764	32632	
4171	0	32830	32706	
4172	0	32800	32737	
4173	0	32876	32652	
4174	0	32816	32710	
4175	0	32768	32674	
4176	0	32820	32727	
4177	0	32774	32830	
4178	0	32708	32852	
4179	0	32802	32820	
4180	0	32808	32842	
4181	0	32846	32834	
4182	0	32792	32854	
4183	0	32820	32824	
4184	0	32868	32790	
4185	0	32848	32807	
4186	0	32814	32788	
4187	0	32812	32806	
4188	0	32789	32891	
4189	0	32820	32884	
4190	0	32832	32711	
4191	0	32796	32734	
4192	0	32846	32632	
4193	0	32842	32708	
4194	0	32806	32662	
4195	0	32856	32646	
4196	0	32824	32822	
4197	0	32812	32824	
4198	0	32822	32804	
4199	0	32868	32876	
4200	0	32794	32774	
4201	0	32842	32740	
4202	0	32834	32711	
4203	0	32860	32598	
4204	0	32844	32724	
4205	0	32822	32632	
4206	0	32818	32800	
4207	0	32780	32794	
4208	0	32824	32798	
4209	0	32816	32807	
4210	0	32752	32856	
4211	0	32842	32860	
4212	0	32848	32844	
4213	0	32812	32862	
4214	0	32790	32854	
4215	0	32812	32791	
4216	0	32800	32750	
4217	0	32824	32688	
4218	0	32808	32702	
4219	0	32832	32864	
4220	0	32806	32742	
4221	0	32740	32688	
4222	0	32816	32774	
4223	0	32760	32826	
4224	0	32748	32794	
4225	0	32800	32759	
4226	0	32832	32812	
4227	0	32816	32804	
4228	0	32796	32748	
4229	0	32820	32804	
4230	0	32756	32704	
4231	0	32734	32770	
4232	0	32834	32918	
4233	0	32772	32820	
4234	0	32798	32791	
4235	0	32784	32670	
4236	0	32774	32652	
4237	0	32772	32604	
4238	0	32782	32720	
4239	0	32688	32840	
4240	0	32692	32766	
4241	0	32764	32751	
4242	0	32881	32668	
4243	0	32768	32726	
4244	0	32804	32870	
4245	0	32752	32775	
4246	0	32760	32774	
4247	0	32724	32682	
4248	0	32636	32766	
4249	0	32690	32790	
4250	0	32640	32710	
4251	0	32682	32652	
4252	0	32684	32677	
4253	0	32668	32764	
4254	0	32698	32766	
4255	0	32722	32742	
4256	0	32704	32943	
4257	0	32724	32858	
4258	0	32710	32884	
4259	0	32752	32804	
4260	0	32806	32774	
4261	0	32864	32880	
4262	0	32864	32734	
4263	0	32948	32804	
4264	0	32892	32866	
4265	0	32864	32680	
4266	0	32900	32759	
4267	0	32868	32751	
4268	0	32816	32650	
4269	0	32872	32660	
4270	0	32824	32676	
4271	0	32802	32774	
4272	0	32810	32876	
4273	0	32812	32880	
4274	0	32924	32887	
4275	0	32854	32950	
4276	0	32840	33031	
4277	0	32860	32936	
4278	0	32882	32822	
4279	0	32892	32772	
4280	0	32908	32654	
4281	0	32900	32636	
4282	0	32876	32588	
4283	0	32864	32690	
4284	0	32858	32742	
4285	0	32856	32868	
4286	0	32920	32768	
4287	0	32876	32614	
4288	0	32792	32719	
4289	0	32837	32711	
4290	0	32724	32833	
4291	0	32804	32775	
4292	0	32672	32740	
4293	0	32680	32714	
4294	0	32676	32586	
4295	0	32642	32736	
4296	0	32768	32599	
4297	0	32730	32718	
4298	0	32796	32816	
4299	0	32772	32720	
4300	0	32856	32748	
4301	0	32928	32766	
4302	0	32940	32719	
4303	0	32892	32770	
4304	0	32948	32740	
4305	0	32964	32785	
4306	0	32968	32808	
4307	0	32944	32793	
4308	0	32956	32775	
4309	0	32866	32775	
4310	0	32860	32775	
4311	0	32850	32632	
4312	0	32868	32855	
4313	0	32828	32768	
4314	0	32916	32866	
4315	0	32828	32852	
4316	0	32844	32696	
4317	0	32860	32718	
4318	0	32848	32688	
4319	0	32880	32775	
4320	0	32796	32798	
4321	0	32748	32712	
4322	0	32814	32824	
4323	0	32800	32834	
4324	0	32808	32724	
4325	0	32840	32688	
4326	0	32836	32756	
4327	0	32820	32724	
4328	0	32828	32826	
4329	0	32768	32820	
4330	0	32808	32774	
4331	0	32804	32728	
4332	0	32788	32726	
4333	0	32800	32830	
4334	0	32796	32861	
4335	0	32840	32703	
4336	0	32866	32783	
4337	0	32778	32740	
4338	0	32828	32796	
4339	0	32864	32888	
4340	0	32804	32772	
4341	0	32792	32822	
4342	0	32828	32674	
4343	0	32836	32839	
4344	0	32770	32612	
4345	0	32852	32716	
4346	0	32872	32790	
4347	0	32800	32772	
4348	0	32880	32775	
4349	0	32840	32742	
4350	0	32900	32774	
4351	0	32828	32688	
4352	0	32888	32702	
4353	0	32832	32798	
4354	0	32868	32812	
4355	0	32828	32780	
4356	0	32792	32720	
4357	0	32748	32750	
4358	0	32800	32702	
4359	0	32788	32760	
4360	0	32816	32726	
4361	0	32896	32732	
4362	0	32876	32812	
4363	0	32826	32800	
4364	0	32812	32736	
4365	0	32860	32724	
4366	0	32848	32690	
4367	0	32830	32775	
4368	0	32900	32812	
4369	0	32822	32646	
4370	0	32844	32740	
4371	0	32874	32698	
4372	0	32810	32734	
4373	0	32856	32718	
4374	0	32816	32768	
4375	0	32868	32675	
4376	0	32840	32764	
4377	0	32792	32800	
4378	0	32772	32764	
4379	0	32872	32762	
4380	0	32844	32654	
4381	0	32728	32788	
4382	0	32824	32852	
4383	0	32848	32782	
4384	0	32808	32860	
4385	0	32820	32882	
4386	0	32800	32841	
4387	0	32848	32871	
4388	0	32764	32768	
4389	0	32904	32784	
4390	0	32836	32788	
4391	0	32848	32647	
4392	0	32840	32758	
4393	0	32808	32700	
4394	0	32856	32775	
4395	0	32852	32804	
4396	0	32860	32824	
4397	0	32832	32804	
4398	0	32832	32736	
4399	0	32808	32746	
4400	0	32738	32764	
4401	0	32852	32807	
4402	0	32820	32769	
4403	0	32788	32794	
4404	0	32772	32743	
4405	0	32784	32814	
4406	0	32760	32828	
4407	0	32834	32814	
4408	0	32800	32754	
4409	0	32874	32848	
4410	0	32794	32775	
4411	0	32744	32774	
4412	0	32824	32735	
4413	0	32768	32724	
4414	0	32784	32650	
4415	0	32786	32648	
4416	0	32756	32757	
4417	0	32768	32584	
4418	0	32800	32816	
4419	0	32760	32775	
4420	0	32738	32890	
4421	0	32784	32930	
4422	0	32820	32882	
4423	0	32728	32786	
4424	0	32868	32775	
4425	0	32820	32682	
4426	0	32780	32639	
4427	0	32768	32500	
4428	0	32794	32644	
4429	0	32780	32618	
4430	0	32696	32612	
4431	0	32652	32743	
4432	0	32792	32814	
4433	0	32792	32838	
4434	0	32730	32902	
4435	0	32716	32775	
4436	0	32744	32693	
4437	0	32804	32844	
4438	0	32782	32807	
4439	0	32756	32839	
4440	0	32740	32834	
4441	0	32708	32519	
4442	0	32766	32673	
4443	0	32768	32756	
4444	0	32785	32638	
4445	0	32804	32839	
4446	0	32772	33014	
4447	0	32762	32967	
4448	0	32768	32967	
4449	0	32800	32626	
4450	0	32768	32572	
4451	0	32712	32600	
4452	0	32798	32592	
4453	0	32772	32736	
4454	0	32766	32770	
4455	0	32772	32892	
4456	0	32742	32786	
4457	0	32724	32650	
4458	0	32762	32762	
4459	0	32828	32764	
4460	0	32858	32764	
4461	0	32846	32798	
4462	0	32862	32679	
4463	0	32838	32876	
4464	0	32897	32802	
4465	0	32992	32688	
4466	0	32924	32854	
4467	0	32868	32700	
4468	0	32864	32752	
4469	0	32934	32816	
4470	0	32858	32706	
4471	0	32864	32742	
4472	0	32900	32692	
4473	0	32908	32580	
4474	0	32912	32694	
4475	0	32845	32686	
4476	0	32784	32844	
4477	0	32788	32794	
4478	0	32804	32846	
4479	0	32824	32883	
4480	0	32808	32874	
4481	0	32872	33006	
4482	0	32824	32926	
4483	0	32772	32628	
4484	0	32844	32593	
4485	0	32848	32508	
4486	0	32868	32316	
4487	0	32832	32607	
4488	0	32764	32740	
4489	0	32770	32663	
4490	0	32812	32912	
4491	0	32768	32960	
4492	0	32864	32852	
4493	0	32862	32908	
4494	0	32860	32796	
4495	0	32780	32858	
4496	0	32836	32718	
4497	0	32788	32582	
4498	0	32764	32660	
4499	0	32740	32752	
4500	0	32686	32706	
4501	0	32628	32806	
4502	0	32702	32832	
4503	0	32648	32775	
4504	0	32702	32756	
4505	0	32712	32743	
4506	0	32716	32790	
4507	0	32736	32736	
4508	0	32792	32694	
4509	0	32760	32693	
4510	0	32804	32772	
4511	0	32832	32711	
4512	0	32874	32790	
4513	0	32840	32796	
4514	0	32904	32698	
4515	0	32890	32716	
4516	0	32852	32903	
4517	0	32896	32698	
4518	0	32832	32842	
4519	0	32812	32956	
4520	0	32824	32774	
4521	0	32780	32775	
4522	0	32792	32822	
4523	0	32758	32887	
4524	0	32836	32834	
4525	0	32856	32676	
4526	0	32748	32766	
4527	0	32866	32866	
4528	0	32832	32743	
4529	0	32776	32712	
4530	0	32776	32674	
4531	0	32744	32844	
4532	0	32774	32752	
4533	0	32792	32732	
4534	0	32858	32836	
4535	0	32860	32847	
4536	0	32884	32860	
4537	0	32858	32788	
4538	0	32913	32750	
4539	0	32884	32788	
4540	0	32956	32756	
4541	0	32892	32759	
4542	0	32904	32860	
4543	0	32868	32740	
4544	0	32866	32796	
4545	0	32852	32638	
4546	0	32928	32750	
4547	0	32904	32836	
4548	0	32746	32736	
4549	0	32808	32775	
4550	0	32896	32688	
4551	0	32820	32826	
4552	0	32776	32734	
4553	0	32756	32784	
4554	0	32728	32928	
4555	0	32756	32790	
4556	0	32698	32767	
4557	0	32630	32730	
4558	0	32608	32806	
4559	0	32644	32854	
4560	0	32628	32692	
4561	0	32684	32696	
4562	0	32708	32658	
4563	0	32664	32692	
4564	0	32768	32775	
4565	0	32822	32734	
4566	0	32858	32688	
4567	0	32888	32726	
4568	0	32868	32807	
4569	0	32890	32706	
4570	0	32928	32711	
4571	0	32944	32748	
4572	0	32964	32760	
4573	0	32948	32834	
4574	0	33048	32766	
4575	0	33046	32862	
4576	0	33048	32854	
4577	0	32946	32673	
4578	0	32940	32720	
4579	0	33013	32714	
4580	0	32860	32774	
4581	0	32820	32752	
4582	0	32821	32735	
4583	0	32788	32760	
4584	0	32748	32766	
4585	0	32648	32792	
4586	0	32632	32876	
4587	0	32612	32728	
4588	0	32700	32834	
4589	0	32622	32720	
4590	0	32628	32678	
4591	0	32678	32810	
4592	0	32686	32798	
4593	0	32756	32712	
4594	0	32668	32775	
4595	0	32696	32708	
4596	0	32756	32802	
4597	0	32716	32612	
4598	0	32776	32808	
4599	0	32724	32825	
4600	0	32748	32735	
4601	0	32684	32748	
4602	0	32812	32654	
4603	0	32788	32740	
4604	0	32782	32882	
4605	0	32808	32768	
4606	0	32844	32760	
4607	0	32798	32594	
4608	0	32920	32764	
4609	0	32956	32640	
4610	0	32956	32722	
4611	0	32898	32711	
4612	0	32892	32760	
4613	0	32932	32706	
4614	0	32884	32644	
4615	0	32864	32642	
4616	0	32848	32702	
4617	0	32816	32831	
4618	0	32812	32718	
4619	0	32940	32750	
4620	0	32874	32656	
4621	0	32828	32703	
4622	0	32876	32860	
4623	0	32824	32660	
4624	0	32934	32838	
4625	0	32900	32646	
4626	0	32900	32810	
4627	0	32888	32754	
4628	0	33024	32660	
4629	0	32916	32723	
4630	0	32836	32788	
4631	0	32862	32770	
4632	0	32880	32798	
4633	0	32884	32878	
4634	0	32884	32968	
4635	0	32728	33079	
4636	0	32759	33073	
4637	0	32764	32972	
4638	0	32832	32960	
4639	0	32784	32940	
4640	0	32759	33024	
4641	0	32764	32887	
4642	0	32720	33022	
4643	0	32750	32967	
4644	0	32756	32716	
4645	0	32748	32820	
4646	0	32768	32943	
4647	0	32662	32790	
4648	0	32656	32894	
4649	0	32713	32950	
4650	0	32656	33010	
4651	0	32720	32986	
4652	0	32780	32844	
4653	0	32904	32855	
4654	0	32968	32738	
4655	0	33052	32588	
4656	0	32952	32487	
4657	0	32924	32384	
4658	0	32928	32428	
4659	0	32900	32430	
4660	0	32830	32482	
4661	0	32828	32618	
4662	0	32810	32678	
4663	0	32836	32758	
4664	0	32804	32528	
4665	0	32800	32529	
4666	0	32836	32458	
4667	0	32884	32516	
4668	0	32905	32968	
4669	0	32914	33012	
4670	0	32824	33008	
4671	0	32796	33089	
4672	0	32844	32903	
4673	0	32816	32714	
4674	0	32734	32588	
4675	0	32736	32454	
4676	0	32586	32492	
4677	0	32600	32762	
4678	0	32596	32796	
4679	0	32596	32926	
4680	0	32662	32887	
4681	0	32730	32626	
4682	0	32800	32047	
4683	0	32780	32291	
4684	0	32826	32518	
4685	0	32784	32852	
4686	0	32914	33020	
4687	0	32896	32832	
4688	0	32890	33134	
4689	0	32890	33343	
4690	0	32776	33042	
4691	0	32768	33008	
4692	0	32742	32868	
4693	0	32746	32874	
4694	0	32718	32884	
4695	0	32794	32868	
4696	0	32836	32666	
4697	0	32688	32528	
4698	0	32672	32575	
4699	0	32762	32564	
4700	0	32880	32600	
4701	0	32826	32900	
4702	0	32904	32972	
4703	0	32848	33076	
4704	0	32984	33031	
4705	0	32960	32786	
4706	0	32896	32580	
4707	0	32836	32400	
4708	0	32856	32630	
4709	0	32752	32647	
4710	0	32684	32696	
4711	0	32678	32808	
4712	0	32775	32732	
4713	0	32832	32727	
4714	0	32908	32880	
4715	0	32906	32750	
4716	0	32752	32743	
4717	0	32804	32810	
4718	0	32838	32536	
4719	0	32820	32866	
4720	0	32800	32860	
4721	0	32808	32702	
4722	0	32836	32800	
4723	0	32884	32360	
4724	0	32936	32259	
4725	0	32978	32372	
4726	0	32812	32732	
4727	0	32852	32998	
4728	0	32736	33078	
4729	0	32768	33049	
4730	0	32756	32796	
4731	0	32856	32736	
4732	0	32712	32580	
4733	0	32780	32442	
4734	0	32720	32396	
4735	0	32772	32408	
4736	0	32770	32624	
4737	0	32808	32823	
4738	0	32804	32698	
4739	0	32714	32687	
4740	0	32748	32602	
4741	0	32784	32570	
4742	0	32776	32991	
4743	0	32814	33126	
4744	0	32920	33142	
4745	0	32890	33082	
4746	0	32878	33284	
4747	0	32864	33024	
4748	0	32808	32828	
4749	0	32860	32741	
4750	0	32836	32647	
4751	0	32784	32236	
4752	0	32800	32302	
4753	0	32772	32476	
4754	0	32798	32452	
4755	0	32838	32670	
4756	0	32848	32664	
4757	0	32900	32870	
4758	0	32912	33062	
4759	0	32818	32924	
4760	0	32804	33223	
4761	0	32774	33229	
4762	0	32848	33060	
4763	0	32848	32692	
4764	0	32852	32316	
4765	0	32814	32437	
4766	0	32872	32426	
4767	0	32786	32748	
4768	0	32788	32759	
4769	0	32824	32672	
4770	0	32760	32663	
4771	0	32729	32702	
4772	0	32700	32924	
4773	0	32768	33112	
4774	0	32664	33148	
4775	0	32778	33090	
4776	0	32882	32832	
4777	0	32848	33183	
4778	0	32844	33074	
4779	0	32872	32672	
4780	0	32988	32442	
4781	0	33080	31935	
4782	0	33032	32546	
4783	0	32948	32694	
4784	0	32862	32884	
4785	0	32784	33012	
4786	0	32796	32898	
4787	0	32744	32628	
4788	0	32696	32132	
4789	0	32754	32190	
4790	0	32664	32188	
4791	0	32564	32752	
4792	0	32624	33046	
4793	0	32652	33130	
4794	0	32732	33434	
4795	0	32796	33562	
4796	0	32840	33300	
4797	0	33024	33568	
4798	0	33128	33408	
4799	0	33284	33438	
4800	0	33170	33070	
4801	0	33220	32688	
4802	0	32992	32071	
4803	0	32806	31196	
4804	0	32772	30894	
4805	0	32668	32044	
4806	0	32680	32308	
4807	0	32512	32615	
4808	0	32532	33204	
4809	0	32372	33415	
4810	0	32532	33514	
4811	0	32408	33462	
4812	0	32490	33142	
4813	0	32608	32852	
4814	0	32672	32652	
4815	0	32690	32654	
4816	0	32844	32737	
4817	0	33000	32859	
4818	0	32897	32876	
4819	0	33008	32964	
4820	0	33016	32640	
4821	0	32996	32556	
4822	0	33058	32664	
4823	0	33008	32656	
4824	0	33024	32775	
4825	0	32956	32596	
4826	0	32832	32646	
4827	0	32624	32916	
4828	0	32720	33031	
4829	0	32996	33006	
4830	0	32962	33054	
4831	0	32960	32862	
4832	0	32885	32814	
4833	0	32752	32560	
4834	0	32648	32508	
4835	0	32632	32722	
4836	0	32673	32884	
4837	0	32992	32803	
4838	0	33444	32500	
4839	0	33552	32012	
4840	0	33322	31742	
4841	0	33168	32172	
4842	0	32964	32566	
4843	0	32444	33068	
4844	0	31910	33614	
4845	0	32008	33748	
4846	0	32008	33698	
4847	0	32020	33926	
4848	0	32456	33312	
4849	0	32404	32750	
4850	0	32298	32135	
4851	0	32716	31556	
4852	0	32988	31812	
4853	0	33102	32148	
4854	0	32866	32532	
4855	0	32808	32583	
4856	0	32652	32718	
4857	0	32590	32668	
4858	0	32664	32807	
4859	0	32724	32605	
4860	0	32752	32764	
4861	0	32928	33231	
4862	0	33148	33374	
4863	0	33232	33348	
4864	0	33128	33120	
4865	0	33044	32890	
4866	0	33060	32772	
4867	0	32992	32774	
4868	0	32872	32580	
4869	0	32812	32728	
4870	0	32924	32758	
4871	0	32922	32592	
4872	0	32904	32558	
4873	0	32880	32794	
4874	0	32840	32647	
4875	0	32938	32532	
4876	0	32972	32494	
4877	0	32924	32727	
4878	0	32940	32910	
4879	0	32904	32828	
4880	0	32804	33130	
4881	0	32846	33134	
4882	0	32756	32870	
4883	0	32744	32610	
4884	0	32700	32294	
4885	0	32672	32388	
4886	0	32742	32868	
4887	0	32676	33135	
4888	0	32764	33068	
4889	0	32712	33092	
4890	0	32760	33076	
4891	0	32884	33216	
4892	0	32904	33404	
4893	0	32892	33218	
4894	0	32884	33415	
4895	0	32822	33318	
4896	0	32734	32908	
4897	0	32800	32220	
4898	0	32820	31911	
4899	0	32850	31260	
4900	0	32834	31448	
4901	0	32776	32140	
4902	0	32756	32583	
4903	0	32876	33138	
4904	0	32960	33218	
4905	0	33076	33468	
4906	0	32840	34078	
4907	0	32702	34191	
4908	0	32750	33588	
4909	0	32796	32674	
4910	0	32816	31798	
4911	0	32630	31404	
4912	0	32698	31804	
4913	0	32950	31862	
4914	0	33122	31726	
4915	0	33146	32474	
4916	0	33028	32860	
4917	0	33040	32974	
4918	0	32712	32914	
4919	0	32476	32660	
4920	0	32636	32887	
4921	0	32800	33070	
4922	0	32760	33062	
4923	0	32844	33140	
4924	0	32836	33108	
4925	0	33160	32786	
4926	0	33477	32672	
4927	0	33216	32546	
4928	0	33144	32578	
4929	0	33198	32679	
4930	0	33014	32854	
4931	0	32836	32816	
4932	0	33076	32839	
4933	0	32888	33126	
4934	0	32128	33454	
4935	0	31816	33690	
4936	0	31936	33596	
4937	0	31700	33229	
4938	0	31678	32668	
4939	0	32024	32654	
4940	0	32096	32654	
4941	0	32004	32852	
4942	0	32204	32728	
4943	0	32688	32327	
4944	0	33102	32449	
4945	0	33300	32714	
4946	0	33532	32817	
4947	0	33584	32700	
4948	0	33512	32410	
4949	0	33432	32472	
4950	0	33350	32689	
4951	0	33292	32848	
4952	0	33200	32670	
4953	0	33162	32636	
4954	0	33148	32524	
4955	0	32896	32672	
4956	0	32776	32586	
4957	0	32656	32598	
4958	0	32474	32760	
4959	0	32500	32775	
4960	0	32394	32895	
4961	0	32488	32556	
4962	0	32361	32519	
4963	0	32564	32717	
4964	0	32856	32919	
4965	0	33020	33162	
4966	0	33100	33414	
4967	0	33104	33206	
4968	0	32972	33124	
4969	0	32932	32560	
4970	0	32982	32926	
4971	0	32838	32911	
4972	0	32672	33088	
4973	0	32600	32414	
4974	0	32648	31870	
4975	0	32778	32224	
4976	0	32904	32552	
4977	0	32808	32788	
4978	0	32750	33010	
4979	0	32724	33194	
4980	0	32912	33246	
4981	0	32936	32994	
4982	0	32764	32908	
4983	0	32720	32768	
4984	0	32842	32422	
4985	0	32852	32306	
4986	0	32920	32263	
4987	0	32924	32218	
4988	0	32912	32719	
4989	0	32844	33458	
4990	0	32798	33708	
4991	0	32802	33592	
4992	0	32848	33260	
4993	0	32928	32903	
4994	0	32880	32280	
4995	0	32872	31998	
4996	0	32836	31943	
4997	0	32792	32313	
4998	0	32692	32600	
4999	0	32708	32854	
5000	0	32932	33082	
5001	0	32868	33294	
5002	0	32920	33287	
5003	0	32775	33216	
5004	0	32768	32982	
5005	0	32580	33010	
5006	0	32640	33314	
5007	0	32650	33135	
5008	0	32652	32288	
5009	0	32708	31892	
5010	0	32896	32148	
5011	0	33160	32420	
5012	0	33348	32487	
5013	0	33240	32652	
5014	0	33048	33002	
5015	0	32918	33056	
5016	0	32776	32922	
5017	0	32572	32884	
5018	0	32814	33218	
5019	0	32908	33356	
5020	0	32948	33446	
5021	0	32834	32874	
5022	0	32938	32455	
5023	0	32556	31832	
5024	0	32456	32208	
5025	0	32428	32450	
5026	0	32164	32620	
5027	0	32002	32604	
5028	0	31666	32728	
5029	0	31812	33080	
5030	0	32356	33326	
5031	0	32956	32988	
5032	0	33236	32618	
5033	0	33368	32695	
5034	0	33108	32398	
5035	0	32972	31804	
5036	0	32996	32218	
5037	0	33008	32896	
5038	0	33112	33100	
5039	0	33152	33287	
5040	0	33272	33280	
5041	0	33220	33440	
5042	0	33140	33322	
5043	0	33092	32996	
5044	0	32976	32836	
5045	0	32856	32720	
5046	0	32762	32734	
5047	0	32676	32700	
5048	0	32668	32824	
5049	0	32590	32728	
5050	0	32748	32146	
5051	0	32628	32353	
5052	0	32770	32598	
5053	0	32840	32652	
5054	0	32744	32519	
5055	0	32802	32550	
5056	0	32770	32592	
5057	0	32872	32903	
5058	0	32896	32758	
5059	0	32876	32636	
5060	0	32864	32582	
5061	0	32782	32666	
5062	0	32774	32650	
5063	0	32888	32760	
5064	0	32886	32980	
5065	0	32892	33430	
5066	0	32932	33346	
5067	0	32936	32962	
5068	0	32912	32500	
5069	0	32820	31518	
5070	0	32576	32028	
5071	0	32592	32688	
5072	0	32488	32719	
5073	0	32560	32996	
5074	0	32564	32766	
5075	0	32746	32670	
5076	0	32984	32860	
5077	0	33002	33128	
5078	0	32896	33328	
5079	0	32916	33350	
5080	0	32824	32914	
5081	0	32804	32390	
5082	0	32808	32494	
5083	0	32684	33075	
5084	0	32788	33214	
5085	0	32836	32959	
5086	0	33018	33062	
5087	0	32984	32617	
5088	0	32988	32024	
5089	0	32764	32492	
5090	0	32690	33122	
5091	0	32680	33451	
5092	0	32714	33131	
5093	0	32832	32636	
5094	0	32879	32291	
5095	0	33008	31910	
5096	0	32920	31808	
5097	0	32810	31998	
5098	0	32680	32647	
5099	0	32764	32998	
5100	0	32830	33104	
5101	0	32640	32624	
5102	0	32628	32604	
5103	0	32708	32610	
5104	0	33048	32846	
5105	0	33180	33186	
5106	0	33104	33212	
5107	0	32852	32808	
5108	0	32836	32714	
5109	0	33360	33206	
5110	0	33058	32944	
5111	0	32720	33272	
5112	0	32470	32980	
5113	0	32148	32940	
5114	0	32038	33380	
5115	0	31816	33664	
5116	0	32182	32454	
5117	0	32408	31356	
5118	0	32612	31844	
5119	0	32452	32646	
5120	0	32992	32881	
5121	0	33582	32918	
5122	0	33558	33134	
5123	0	33778	32954	
5124	0	33644	32784	
5125	0	33274	32762	
5126	0	32757	32890	
5127	0	32456	32916	
5128	0	32020	32900	
5129	0	32000	32810	
5130	0	32216	32644	
5131	0	32462	32666	
5132	0	32884	32930	
5133	0	32892	33064	
5134	0	32792	32962	
5135	0	32900	32658	
5136	0	32840	32276	
5137	0	32712	32568	
5138	0	32556	32440	
5139	0	32696	32559	
5140	0	32924	32950	
5141	0	33052	33100	
5142	0	33130	32906	
5143	0	33160	32664	
5144	0	33226	32650	
5145	0	33304	32223	
5146	0	33296	32372	
5147	0	33120	32986	
5148	0	32868	33014	
5149	0	32882	33076	
5150	0	32778	33386	
5151	0	32764	33224	
5152	0	32680	33099	
5153	0	32810	32926	
5154	0	32904	32152	
5155	0	32884	31844	
5156	0	32960	31719	
5157	0	32820	32064	
5158	0	32612	32487	
5159	0	32446	32788	
5160	0	32564	32858	
5161	0	32470	32760	
5162	0	32568	32814	
5163	0	32740	33111	
5164	0	32742	32908	
5165	0	32752	33236	
5166	0	32666	33198	
5167	0	32666	32854	
5168	0	32878	32280	
5169	0	33175	32004	
5170	0	33332	32298	
5171	0	33264	33144	
5172	0	33072	33228	
5173	0	33048	32552	
5174	0	33296	32764	
5175	0	32970	32378	
5176	0	32464	32743	
5177	0	32316	33240	
5178	0	32100	33052	
5179	0	32241	32609	
5180	0	32382	32124	
5181	0	32552	32148	
5182	0	32752	32908	
5183	0	32952	32542	
5184	0	33020	32519	
5185	0	33170	32565	
5186	0	33280	32720	
5187	0	33096	32696	
5188	0	32889	32600	
5189	0	32660	32662	
5190	0	32492	32508	
5191	0	32548	32380	
5192	0	32564	32423	
5193	0	32804	33204	
5194	0	33152	33494	
5195	0	33252	33058	
5196	0	33164	33328	
5197	0	33136	32792	
5198	0	32985	32756	
5199	0	32756	32710	
5200	0	32548	32346	
5201	0	32608	32750	
5202	0	32644	33165	
5203	0	32714	33589	
5204	0	32762	32856	
5205	0	32792	31882	
5206	0	32662	32100	
5207	0	32706	32551	
5208	0	32724	32763	
5209	0	32660	32638	
5210	0	32672	32496	
5211	0	32884	32560	
5212	0	32892	32844	
5213	0	32996	32726	
5214	0	32956	32795	
5215	0	33044	32903	
5216	0	33116	33138	
5217	0	33036	33312	
5218	0	32946	33226	
5219	0	32804	33076	
5220	0	32720	33063	
5221	0	32526	32396	
5222	0	32540	32506	
5223	0	32462	32464	
5224	0	32444	32082	
5225	0	32436	32388	
5226	0	32604	32880	
5227	0	32776	33436	
5228	0	32960	33620	
5229	0	33200	32998	
5230	0	33248	32590	
5231	0	33274	32028	
5232	0	33276	31996	
5233	0	33220	32610	
5234	0	33178	32775	
5235	0	32762	33382	
5236	0	32546	33508	
5237	0	32356	32964	
5238	0	32436	32165	
5239	0	32464	32660	
5240	0	32592	33078	
5241	0	32678	32938	
5242	0	32904	33455	
5243	0	33124	33116	
5244	0	32972	32522	
5245	0	32932	32555	
5246	0	32996	32383	
5247	0	32696	32556	
5248	0	32684	32535	
5249	0	32760	32372	
5250	0	32932	32636	
5251	0	33308	33204	
5252	0	33368	33082	
5253	0	32858	32530	
5254	0	32452	31991	
5255	0	32102	32358	
5256	0	31809	32775	
5257	0	31794	32700	
5258	0	31984	32759	
5259	0	32300	32912	
5260	0	32656	32772	
5261	0	32998	33198	
5262	0	33248	33240	
5263	0	33368	32903	
5264	0	33434	33092	
5265	0	33500	33136	
5266	0	33450	32984	
5267	0	33458	32162	
5268	0	33312	31638	
5269	0	32918	32135	
5270	0	32586	32548	
5271	0	32572	33046	
5272	0	32296	33416	
5273	0	32087	33732	
5274	0	32216	33212	
5275	0	32560	32750	
5276	0	32800	32604	
5277	0	32938	32678	
5278	0	33024	32592	
5279	0	33160	32714	
5280	0	33278	32956	
5281	0	33120	32752	
5282	0	32984	32916	
5283	0	32952	32711	
5284	0	32940	32260	
5285	0	32746	32208	
5286	0	32754	32836	
5287	0	32688	33012	
5288	0	32748	32900	
5289	0	32948	33063	
5290	0	32948	32968	
5291	0	32940	32943	
5292	0	32754	32600	
5293	0	32542	32484	
5294	0	32582	32088	
5295	0	32786	31676	
5296	0	32936	32564	
5297	0	33116	32772	
5298	0	32986	32791	
5299	0	32722	32640	
5300	0	32584	32725	
5301	0	32460	33116	
5302	0	32456	32976	
5303	0	32500	33086	
5304	0	32632	32823	
5305	0	32824	32526	
5306	0	32910	33082	
5307	0	33032	33308	
5308	0	33010	33139	
5309	0	33092	32816	
5310	0	32929	32504	
5311	0	32824	32712	
5312	0	32780	32582	
5313	0	32752	33111	
5314	0	32414	33162	
5315	0	32424	33030	
5316	0	32524	32954	
5317	0	32678	32954	
5318	0	32676	32816	
5319	0	32744	32752	
5320	0	32834	32807	
5321	0	32888	32622	
5322	0	32940	32662	
5323	0	32902	32775	
5324	0	32872	32106	
5325	0	32916	32726	
5326	0	32930	32310	
5327	0	32908	32242	
5328	0	32946	32702	
5329	0	33022	33124	
5330	0	33104	33274	
5331	0	33076	33447	
5332	0	32960	32738	
5333	0	32932	32824	
5334	0	32788	32502	
5335	0	32616	32536	
5336	0	32540	32542	
5337	0	32456	31494	
5338	0	32512	31704	
5339	0	32548	32118	
5340	0	32584	32967	
5341	0	32642	33060	
5342	0	32680	33127	
5343	0	32938	33358	
5344	0	32892	33038	
5345	0	32892	32496	
5346	0	32932	32423	
5347	0	32850	32798	
5348	0	32844	33008	
5349	0	32800	33076	
5350	0	32872	33095	
5351	0	33154	32636	
5352	0	33144	32278	
5353	0	32980	31866	
5354	0	32612	32130	
5355	0	32588	33008	
5356	0	32688	32680	
5357	0	32676	33098	
5358	0	32698	33088	
5359	0	32656	33310	
5360	0	32788	33287	
5361	0	32848	33490	
5362	0	32940	33528	
5363	0	32960	33450	
5364	0	32932	33384	
5365	0	32944	32596	
5366	0	32904	32176	
5367	0	32906	32204	
5368	0	32828	32452	
5369	0	32750	32711	
5370	0	32600	32602	
5371	0	32612	32519	
5372	0	32656	32304	
5373	0	32742	32636	
5374	0	32924	32759	
5375	0	33008	32928	
5376	0	32868	32604	
5377	0	32978	32716	
5378	0	32786	32903	
5379	0	32874	32810	
5380	0	32824	32518	
5381	0	32724	32402	
5382	0	32584	32914	
5383	0	32572	32864	
5384	0	32648	32756	
5385	0	32776	33066	
5386	0	32832	32938	
5387	0	33060	32740	
5388	0	33124	32726	
5389	0	32882	32564	
5390	0	32736	32700	
5391	0	32736	33126	
5392	0	32697	33287	
5393	0	32834	32992	
5394	0	32925	32454	
5395	0	32872	32394	
5396	0	32880	32330	
5397	0	32816	32195	
5398	0	32872	32494	
5399	0	32864	32868	
5400	0	32836	33018	
5401	0	32924	32882	
5402	0	32872	32666	
5403	0	32617	32644	
5404	0	32506	32775	
5405	0	32472	32606	
5406	0	32480	32666	
5407	0	32628	33022	
5408	0	32804	33159	
5409	0	33018	33168	
5410	0	33048	32634	
5411	0	32968	32480	
5412	0	33076	32710	
5413	0	33020	32486	
5414	0	32934	32760	
5415	0	32920	32748	
5416	0	32756	32756	
5417	0	32680	32340	
5418	0	32760	32834	
5419	0	32936	32963	
5420	0	33042	32958	
5421	0	32960	32668	
5422	0	32896	32632	
5423	0	32860	32796	
5424	0	32664	32638	
5425	0	32746	32470	
5426	0	32665	32518	
5427	0	32642	32559	
5428	0	32620	32802	
5429	0	32468	32967	
5430	0	32516	32976	
5431	0	32618	33010	
5432	0	32714	33271	
5433	0	32664	32902	
5434	0	32744	32486	
5435	0	32814	32186	
5436	0	32896	32368	
5437	0	32824	32512	
5438	0	32752	32578	
5439	0	32708	32710	
5440	0	32700	33696	
5441	0	32806	33530	
5442	0	32708	32906	
5443	0	32780	32663	
5444	0	32864	32400	
5445	0	32932	32399	
5446	0	32878	32474	
5447	0	32866	32462	
5448	0	32936	32532	
5449	0	33000	32661	
5450	0	32960	32534	
5451	0	32994	32614	
5452	0	32944	32558	
5453	0	32889	32326	
5454	0	32792	32322	
5455	0	32904	32564	
5456	0	32854	32631	
5457	0	32864	32806	
5458	0	32772	32955	
5459	0	32657	32766	
5460	0	32656	32678	
5461	0	32666	32956	
5462	0	32714	32980	
5463	0	32740	33098	
5464	0	32810	32630	
5465	0	32920	32166	
5466	0	32856	31950	
5467	0	32802	32015	
5468	0	32868	32804	
5469	0	32984	32775	
5470	0	32860	32902	
5471	0	32894	32964	
5472	0	32924	32924	
5473	0	32952	32984	
5474	0	32816	32828	
5475	0	32878	33008	
5476	0	32916	32726	
5477	0	32960	32708	
5478	0	32828	32468	
5479	0	32884	32436	
5480	0	32868	32263	
5481	0	32804	32686	
5482	0	32882	32992	
5483	0	32952	32744	
5484	0	32884	32252	
5485	0	32782	32624	
5486	0	32660	33172	
5487	0	32636	33364	
5488	0	32656	32988	
5489	0	32516	32956	
5490	0	32580	33008	
5491	0	32636	32804	
5492	0	32688	33130	
5493	0	32636	33318	
5494	0	32744	33454	
5495	0	32768	33150	
5496	0	32724	32840	
5497	0	32796	32871	
5498	0	32922	33230	
5499	0	32830	33934	
5500	0	32752	33358	
5501	0	32692	33497	
5502	0	32682	33376	
5503	0	32676	33766	
5504	0	32746	33176	
5505	0	32772	32885	
5506	0	32684	33064	
5507	0	32816	33159	
5508	0	32724	32972	
5509	0	32820	32902	
5510	0	32866	33438	
5511	0	32858	33087	
5512	0	33132	32568	
5513	0	33064	32262	
5514	0	33120	31430	
5515	0	33204	31678	
5516	0	33142	32432	
5517	0	32994	32703	
5518	0	32712	32674	
5519	0	32404	32775	
5520	0	32440	32500	
5521	0	32516	32878	
5522	0	32752	32985	
5523	0	32712	32605	
5524	0	32612	32932	
5525	0	32697	33086	
5526	0	32856	32950	
5527	0	32978	33002	
5528	0	33026	33168	
5529	0	33040	32564	
5530	0	33008	32484	
5531	0	32864	32612	
5532	0	32798	32537	
5533	0	32900	32764	
5534	0	32905	33054	
5535	0	32870	33046	
5536	0	32768	33156	
5537	0	32762	32796	
5538	0	32828	32958	
5539	0	32890	33322	
5540	0	32840	33087	
5541	0	32874	33231	
5542	0	32838	33180	
5543	0	32830	32614	
5544	0	32788	32596	
5545	0	32754	32478	
5546	0	32716	32628	
5547	0	32720	32298	
5548	0	32736	32272	
5549	0	32780	32340	
5550	0	32864	33130	
5551	0	32908	33415	
5552	0	32962	33186	
5553	0	32872	33004	
5554	0	32736	32320	
5555	0	32784	31544	
5556	0	32880	31664	
5557	0	32856	32824	
5558	0	32860	33716	
5559	0	32904	33356	
5560	0	32900	32848	
5561	0	32864	32527	
5562	0	32860	32750	
5563	0	32872	32727	
5564	0	32916	32308	
5565	0	32834	32518	
5566	0	32860	32692	
5567	0	32780	32640	
5568	0	32816	32470	
5569	0	32864	32678	
5570	0	32921	32775	
5571	0	32954	33076	
5572	0	32832	32901	
5573	0	32814	33012	
5574	0	32774	32634	
5575	0	32758	32750	
5576	0	32770	32449	
5577	0	32736	32263	
5578	0	32784	32672	
5579	0	32794	32262	
5580	0	32756	32814	
5581	0	32852	33168	
5582	0	32832	33230	
5583	0	32778	33316	
5584	0	32904	33280	
5585	0	32876	33066	
5586	0	33058	32582	
5587	0	32938	32538	
5588	0	32810	32626	
5589	0	32794	32664	
5590	0	32862	32695	
5591	0	32836	32602	
5592	0	32832	32446	
5593	0	32772	32247	
5594	0	32775	32388	
5595	0	32740	32383	
5596	0	32764	32684	
5597	0	32844	32918	
5598	0	32740	33127	
5599	0	32766	32734	
5600	0	32776	32554	
5601	0	32816	32594	
5602	0	32648	32614	
5603	0	32782	33196	
5604	0	32854	33572	
5605	0	32868	33538	
5606	0	32852	32852	
5607	0	32896	32820	
5608	0	32821	32352	
5609	0	32768	32438	
5610	0	32836	32376	
5611	0	32844	32596	
5612	0	32870	32532	
5613	0	32788	33072	
5614	0	32892	33202	
5615	0	32825	32852	
5616	0	32852	33060	
5617	0	32822	33344	
5618	0	32832	32795	
5619	0	32832	32344	
5620	0	32852	32236	
5621	0	32824	32474	
5622	0	32870	33308	
5623	0	32886	32892	
5624	0	32856	32756	
5625	0	32904	32927	
5626	0	32836	32774	
5627	0	32831	32908	
5628	0	32786	32760	
5629	0	32796	32568	
5630	0	32748	32519	
5631	0	32748	32500	
5632	0	32836	32744	
5633	0	32866	32832	
5634	0	32882	33140	
5635	0	32716	33270	
5636	0	32724	32608	
5637	0	32664	32164	
5638	0	32748	32094	
5639	0	32792	32378	
5640	0	32775	32746	
5641	0	32810	32828	
5642	0	32798	32954	
5643	0	32686	32650	
5644	0	32868	32820	
5645	0	32944	33020	
5646	0	32872	33362	
5647	0	32832	33474	
5648	0	32812	32762	
5649	0	32700	32860	
5650	0	32756	32487	
5651	0	32704	32252	
5652	0	32788	32312	
5653	0	32820	32294	
5654	0	32776	32831	
5655	0	32664	32714	
5656	0	32748	32636	
5657	0	32720	31974	
5658	0	32720	32616	
5659	0	32644	32884	
5660	0	32804	33280	
5661	0	32752	33223	
5662	0	32832	33127	
5663	0	32916	32844	
5664	0	32828	32516	
5665	0	32824	32236	
5666	0	32668	32730	
5667	0	32804	32822	
5668	0	32784	32668	
5669	0	32820	32920	
5670	0	32748	32886	
5671	0	32722	32775	
5672	0	32924	33079	
5673	0	32700	32640	
5674	0	32700	33062	
5675	0	32604	32428	
5676	0	32664	32939	
5677	0	32856	33010	
5678	0	32908	32952	
5679	0	32848	32360	
5680	0	32840	32490	
5681	0	32716	32988	
5682	0	32788	32384	
5683	0	32746	31914	
5684	0	32756	32455	
5685	0	32872	32830	
5686	0	32937	31644	
5687	0	32872	32528	
5688	0	32992	33846	
5689	0	32980	33538	
5690	0	32770	32677	
5691	0	32790	32686	
5692	0	32796	32432	
5693	0	32716	32071	
5694	0	32664	32178	
5695	0	32768	33226	
5696	0	32878	33440	
5697	0	32864	33260	
5698	0	32834	32074	
5699	0	32948	32784	
5700	0	32900	33333	
5701	0	32772	32683	
5702	0	32692	32566	
5703	0	32810	32348	
5704	0	32772	32620	
5705	0	32810	32898	
5706	0	32874	33048	
5707	0	32804	33102	
5708	0	32744	32864	
5709	0	32692	32428	
5710	0	32844	32356	
5711	0	32820	32194	
5712	0	32736	32838	
5713	0	32760	34040	
5714	0	32802	33470	
5715	0	32780	32558	
5716	0	32788	32272	
5717	0	32788	32614	
5718	0	32768	32312	
5719	0	32714	32263	
5720	0	32722	32552	
5721	0	32828	32747	
5722	0	32820	32658	
5723	0	32820	32544	
5724	0	32732	32391	
5725	0	32804	32636	
5726	0	32816	32898	
5727	0	32864	32738	
5728	0	32920	32958	
5729	0	32896	33064	
5730	0	32856	32865	
5731	0	32888	32896	
5732	0	32856	33854	
5733	0	32812	33328	
5734	0	32700	33056	
5735	0	32856	32912	
5736	0	32800	32924	
5737	0	32898	33010	
5738	0	32852	32885	
5739	0	32780	32444	
5740	0	32757	32624	
5741	0	32840	32660	
5742	0	32860	32558	
5743	0	32852	32903	
5744	0	32788	32958	
5745	0	32748	32612	
5746	0	32764	32700	
5747	0	32804	32706	
5748	0	32746	32620	
5749	0	32774	32532	
5750	0	32844	32647	
5751	0	32920	32568	
5752	0	32964	32704	
5753	0	32856	32882	
5754	0	32854	32980	
5755	0	32848	32968	
5756	0	32816	32972	
5757	0	32806	33214	
5758	0	32796	33332	
5759	0	32828	32804	
5760	0	32884	32759	
5761	0	32864	32556	
5762	0	32806	31658	
5763	0	32828	31600	
5764	0	32820	32274	
5765	0	32790	32900	
5766	0	32840	32968	
5767	0	32816	33042	
5768	0	32740	33174	
5769	0	32696	33217	
5770	0	32690	32920	
5771	0	32768	32432	
5772	0	32784	33154	
5773	0	32804	33151	
5774	0	32836	33210	
5775	0	32872	32902	
5776	0	32852	32638	
5777	0	32940	32545	
5778	0	32908	32628	
5779	0	32820	32977	
5780	0	32820	32606	
5781	0	32816	32390	
5782	0	32730	32434	
5783	0	32836	32664	
5784	0	32884	33124	
5785	0	32832	33178	
5786	0	32750	32958	
5787	0	32732	32664	
5788	0	32756	32716	
5789	0	32762	32863	
5790	0	32900	32676	
5791	0	32810	32588	
5792	0	32778	32679	
5793	0	32744	32454	
5794	0	32832	32519	
5795	0	32804	32682	
5796	0	32872	32710	
5797	0	32764	32870	
5798	0	32744	32872	
5799	0	32732	32728	
5800	0	32798	32894	
5801	0	32764	32936	
5802	0	32780	33248	
5803	0	32740	32952	
5804	0	32842	32814	
5805	0	32800	32736	
5806	0	32740	32647	
5807	0	32692	32432	
5808	0	32712	32438	
5809	0	32640	32292	
5810	0	32684	32767	
5811	0	32820	32895	
5812	0	32796	32884	
5813	0	32776	32710	
5814	0	32844	32836	
5815	0	32796	33194	
5816	0	32712	32575	
5817	0	32761	32636	
5818	0	32802	33066	
5819	0	32714	33031	
5820	0	32764	32736	
5821	0	32730	32608	
5822	0	32740	32796	
5823	0	32836	32490	
5824	0	32752	33088	
5825	0	32800	32956	
5826	0	32804	32814	
5827	0	32864	32976	
5828	0	32836	32596	
5829	0	32820	32530	
5830	0	32840	32740	
5831	0	32846	32950	
5832	0	32784	32439	
5833	0	32772	32826	
5834	0	32704	32764	
5835	0	32816	32564	
5836	0	32830	32548	
5837	0	32750	32582	
5838	0	32780	32684	
5839	0	32894	32519	
5840	0	32744	32594	
5841	0	32716	32836	
5842	0	32730	32940	
5843	0	32818	32908	
5844	0	32720	33383	
5845	0	32828	33236	
5846	0	32750	32956	
5847	0	32836	32554	
5848	0	32780	32588	
5849	0	32792	32532	
5850	0	32794	32745	
5851	0	32864	32666	
5852	0	32784	32666	
5853	0	32760	32600	
5854	0	32724	32618	
5855	0	32672	32558	
5856	0	32758	32550	
5857	0	32840	32732	
5858	0	32862	32710	
5859	0	32890	32753	
5860	0	32770	32675	
5861	0	32766	32788	
5862	0	32740	32868	
5863	0	32756	32773	
5864	0	32740	32746	
5865	0	32792	32620	
5866	0	32820	32640	
5867	0	32816	32624	
5868	0	32848	32502	
5869	0	32794	32412	
5870	0	32870	32631	
5871	0	32850	32628	
5872	0	32834	32726	
5873	0	32852	32734	
5874	0	32904	32834	
5875	0	32878	32696	
5876	0	32744	32654	
5877	0	32748	32775	
5878	0	32742	32766	
5879	0	32804	32790	
5880	0	32726	32664	
5881	0	32696	32775	
5882	0	32792	32704	
5883	0	32796	32644	
5884	0	32706	32628	
5885	0	32768	32688	
5886	0	32682	32738	
5887	0	32812	32703	
5888	0	32766	32780	
5889	0	32788	32740	
5890	0	32860	32684	
5891	0	32824	32726	
5892	0	32852	32708	
5893	0	32868	32808	
5894	0	32852	32840	
5895	0	32760	32723	
5896	0	32746	32812	
5897	0	32828	32839	
5898	0	32804	32646	
5899	0	32824	32656	
5900	0	32768	32694	
5901	0	32796	32892	
5902	0	32832	32822	
5903	0	32772	32768	
5904	0	32760	32774	
5905	0	32780	32679	
5906	0	32821	32748	
5907	0	32796	32668	
5908	0	32788	32760	
5909	0	32764	32772	
5910	0	32804	32556	
5911	0	32760	32842	
5912	0	32720	32878	
5913	0	32744	32876	
5914	0	32800	32684	
5915	0	32831	32680	
5916	0	32848	32682	
5917	0	32748	32680	
5918	0	32856	32519	
5919	0	32830	32732	
5920	0	32826	32762	
5921	0	32804	32838	
5922	0	32775	32819	
5923	0	32860	32814	
5924	0	32828	33063	
5925	0	32816	33104	
5926	0	32860	33104	
5927	0	32740	32670	
5928	0	32740	32718	
5929	0	32776	32712	
5930	0	32730	32548	
5931	0	32724	32572	
5932	0	32664	32729	
5933	0	32644	32916	
5934	0	32728	32815	
5935	0	32725	32852	
5936	0	32736	32825	
5937	0	32712	32756	
5938	0	32724	32871	
5939	0	32802	32775	
5940	0	32816	32646	
5941	0	32884	32774	
5942	0	32880	32815	
5943	0	32877	32704	
5944	0	32868	32715	
5945	0	32878	32784	
5946	0	32836	32647	
5947	0	32856	32774	
5948	0	32808	32722	
5949	0	32812	32686	
5950	0	32844	32751	
5951	0	32808	32824	
5952	0	32736	32620	
5953	0	32816	32758	
5954	0	32892	32740	
5955	0	32898	32654	
5956	0	32848	32596	
5957	0	32868	32430	
5958	0	32724	32708	
5959	0	32618	32878	
5960	0	32722	33087	
5961	0	32748	33181	
5962	0	32820	32938	
5963	0	32904	32796	
5964	0	32770	32666	
5965	0	32774	32758	
5966	0	32632	32707	
5967	0	32784	32586	
5968	0	32614	32842	
5969	0	32632	32770	
5970	0	32572	32815	
5971	0	32640	32814	
5972	0	32682	32746	
5973	0	32634	32672	
5974	0	32622	32815	
5975	0	32648	32842	
5976	0	32736	32676	
5977	0	32754	32762	
5978	0	32820	32876	
5979	0	32825	32702	
5980	0	32848	32770	
5981	0	32920	32753	
5982	0	32924	32790	
5983	0	32884	32798	
5984	0	32888	32654	
5985	0	32868	32610	
5986	0	32816	32686	
5987	0	32928	32723	
5988	0	32904	32864	
5989	0	32932	32740	
5990	0	32912	32641	
5991	0	32880	32824	
5992	0	32964	32913	
5993	0	32913	32932	
5994	0	32837	32872	
5995	0	32788	32726	
5996	0	32728	32876	
5997	0	32804	32828	
5998	0	32850	33140	
5999	0	32848	32836	
6000	0	32760	32775	
6001	0	32768	32679	
6002	0	32750	32586	
6003	0	32702	32625	
6004	0	32734	32775	
6005	0	32786	32879	
6006	0	32842	32799	
6007	0	32812	32802	
6008	0	32808	32794	
6009	0	32854	32646	
6010	0	32876	32538	
6011	0	32816	32682	
6012	0	32840	32788	
