# OpenSignals Text File Format. Version 1
# {"00:07:80:8C:0A:39": {"position": 0, "device": "biosignalsplux", "device name": "00:07:80:8C:0A:39", "device connection": "BTH00:07:80:8C:0A:39", "sampling rate": 1000, "resolution": [16, 16], "firmware version": 776, "comments": "", "keywords": "", "mode": 0, "sync interval": 2, "date": "2023-3-16", "time": "10:42:45.261", "channels": [1, 2], "sensor": ["EMG", "EMG"], "label": ["CH1", "CH2"], "column": ["nSeq", "DI", "CH1", "CH2"], "special": [{"SpO2": [80, 40, 5, 4, 3, 3]}, {"SpO2": [80, 40, 5, 4, 3, 3]}, {"SpO2": [80, 40, 5, 4, 3, 3]}, {"SpO2": [80, 40, 5, 4, 3, 3]}, {"SpO2": [80, 40, 5, 4, 3, 3]}, {"SpO2": [80, 40, 5, 4, 3, 3]}, {"SpO2": [80, 40, 5, 4, 3, 3]}, {"SpO2": [80, 40, 5, 4, 3, 3]}], "digital IO": [0, 1], "sleeve color": ["gray", "yellow"], "convertedValues": 0}}
# EndOfHeader
0	0	32816	32758	
1	0	32838	32838	
2	0	32784	32728	
3	0	32788	32742	
4	0	32836	32796	
5	0	32788	32708	
6	0	32832	32788	
7	0	32858	32791	
8	0	32864	32748	
9	0	32838	32812	
10	0	32816	32816	
11	0	32836	32724	
12	0	32838	32662	
13	0	32708	32760	
14	0	32768	32810	
15	0	32718	32690	
16	0	32780	32606	
17	0	32692	32692	
18	0	32768	32766	
19	0	32760	32590	
20	0	32766	32596	
21	0	32788	32711	
22	0	32814	32712	
23	0	32672	32623	
24	0	32712	32789	
25	0	32628	32756	
26	0	32692	32679	
27	0	32752	32670	
28	0	32712	32774	
29	0	32754	32774	
30	0	32750	32709	
31	0	32670	32724	
32	0	32738	32670	
33	0	32752	32724	
34	0	32740	32703	
35	0	32760	32704	
36	0	32800	32812	
37	0	32880	32792	
38	0	32896	32862	
39	0	32960	33076	
40	0	33060	33060	
41	0	33170	33002	
42	0	33168	33068	
43	0	33156	33030	
44	0	33110	32916	
45	0	33014	32896	
46	0	33052	32804	
47	0	33048	32874	
48	0	32994	32937	
49	0	33008	32764	
50	0	32938	32848	
51	0	32944	32775	
52	0	32864	32746	
53	0	32868	32736	
54	0	32760	32775	
55	0	32640	32680	
56	0	32700	32804	
57	0	32720	32750	
58	0	32804	32628	
59	0	32740	32696	
60	0	32694	32566	
61	0	32660	32634	
62	0	32708	32766	
63	0	32642	32705	
64	0	32710	32684	
65	0	32700	32701	
66	0	32750	32624	
67	0	32712	32698	
68	0	32712	32673	
69	0	32754	32846	
70	0	32804	32756	
71	0	32834	32711	
72	0	32812	32918	
73	0	32768	32814	
74	0	32888	32700	
75	0	32884	32842	
76	0	32782	32958	
77	0	32842	32644	
78	0	32864	32834	
79	0	32864	32756	
80	0	32792	32760	
81	0	32826	32740	
82	0	32776	32734	
83	0	32764	32810	
84	0	32772	32830	
85	0	32832	32680	
86	0	32734	32834	
87	0	32738	32828	
88	0	32826	32870	
89	0	32760	32840	
90	0	32856	32672	
91	0	32820	32759	
92	0	32828	32766	
93	0	32848	32742	
94	0	32760	32732	
95	0	32768	32775	
96	0	32816	32796	
97	0	32790	32838	
98	0	32768	32775	
99	0	32788	32772	
100	0	32744	32727	
101	0	32796	32774	
102	0	32850	32816	
103	0	32828	32646	
104	0	32798	32814	
105	0	32804	32727	
106	0	32860	32824	
107	0	32844	32788	
108	0	32812	32668	
109	0	32840	32812	
110	0	32834	32872	
111	0	32872	32711	
112	0	32811	32804	
113	0	32880	32832	
114	0	32788	32708	
115	0	32768	32804	
116	0	32758	32740	
117	0	32802	32814	
118	0	32788	32775	
119	0	32802	32676	
120	0	32784	32790	
121	0	32816	32750	
122	0	32736	32846	
123	0	32820	32742	
124	0	32845	32790	
125	0	32862	32810	
126	0	32848	32698	
127	0	32780	32822	
128	0	32856	32684	
129	0	32824	32732	
130	0	32812	32772	
131	0	32864	32694	
132	0	32908	32846	
133	0	32952	32775	
134	0	32860	32760	
135	0	32844	32810	
136	0	32706	32732	
137	0	32696	32708	
138	0	32730	32810	
139	0	32748	32840	
140	0	32704	32722	
141	0	32714	32816	
142	0	32712	32812	
143	0	32734	32730	
144	0	32792	32767	
145	0	32836	32759	
146	0	32816	32704	
147	0	32881	32764	
148	0	32872	32764	
149	0	32878	32775	
150	0	32828	32820	
151	0	32820	32716	
152	0	32904	32798	
153	0	32904	32775	
154	0	32870	32700	
155	0	32878	32708	
156	0	32814	32732	
157	0	32876	32854	
158	0	32824	32774	
159	0	32808	32764	
160	0	32740	32800	
161	0	32794	32872	
162	0	32788	32726	
163	0	32792	32762	
164	0	32760	32785	
165	0	32772	32724	
166	0	32852	32858	
167	0	32784	32806	
168	0	32821	32705	
169	0	32798	32740	
170	0	32744	32717	
171	0	32772	32724	
172	0	32794	32751	
173	0	32812	32694	
174	0	32784	32807	
175	0	32780	32775	
176	0	32794	32720	
177	0	32826	32863	
178	0	32708	32775	
179	0	32780	32804	
180	0	32858	32674	
181	0	32760	32807	
182	0	32766	32871	
183	0	32824	32660	
184	0	32842	32814	
185	0	32756	32654	
186	0	32832	32732	
187	0	32816	32708	
188	0	32817	32788	
189	0	32828	32748	
190	0	32828	32788	
191	0	32848	32750	
192	0	32812	32796	
193	0	32812	32740	
194	0	32796	32646	
195	0	32842	32725	
196	0	32838	32799	
197	0	32888	32738	
198	0	32836	32772	
199	0	32808	32756	
200	0	32840	32664	
201	0	32804	32794	
202	0	32784	32842	
203	0	32824	32688	
204	0	32836	32704	
205	0	32922	32775	
206	0	32872	32790	
207	0	32844	32713	
208	0	32824	32793	
209	0	32796	32702	
210	0	32808	32748	
211	0	32844	32830	
212	0	32784	32790	
213	0	32760	32794	
214	0	32764	32647	
215	0	32792	32858	
216	0	32770	32759	
217	0	32788	32698	
218	0	32744	32824	
219	0	32776	32735	
220	0	32844	32767	
221	0	32776	32874	
222	0	32900	32767	
223	0	32900	32762	
224	0	32780	32684	
225	0	32864	32854	
226	0	32818	32814	
227	0	32798	32700	
228	0	32840	32819	
229	0	32820	32798	
230	0	32766	32692	
231	0	32856	32736	
232	0	32812	32807	
233	0	32790	32610	
234	0	32798	32866	
235	0	32844	32844	
236	0	32748	32835	
237	0	32764	32636	
238	0	32812	32680	
239	0	32762	32768	
240	0	32832	32814	
241	0	32734	32679	
242	0	32784	32824	
243	0	32832	32803	
244	0	32792	32752	
245	0	32790	32724	
246	0	32794	32804	
247	0	32872	32854	
248	0	32834	32644	
249	0	32826	32852	
250	0	32858	32770	
251	0	32810	32784	
252	0	32802	32746	
253	0	32788	32708	
254	0	32788	32800	
255	0	32819	32798	
256	0	32910	32756	
257	0	32864	32782	
258	0	32824	32775	
259	0	32772	32724	
260	0	32812	32676	
261	0	32804	32836	
262	0	32768	32752	
263	0	32840	32808	
264	0	32828	32680	
265	0	32812	32758	
266	0	32852	32756	
267	0	32796	32718	
268	0	32860	32800	
269	0	32832	32738	
270	0	32836	32806	
271	0	32852	32708	
272	0	32738	32801	
273	0	32824	32794	
274	0	32846	32752	
275	0	32816	32828	
276	0	32764	32742	
277	0	32796	32710	
278	0	32720	32692	
279	0	32798	32858	
280	0	32804	32810	
281	0	32857	32706	
282	0	32812	32810	
283	0	32880	32750	
284	0	32848	32800	
285	0	32846	32775	
286	0	32826	32766	
287	0	32810	32820	
288	0	32798	32844	
289	0	32780	32714	
290	0	32812	32758	
291	0	32816	32796	
292	0	32852	32816	
293	0	32802	32670	
294	0	32760	32786	
295	0	32746	32812	
296	0	32756	32756	
297	0	32732	32743	
298	0	32816	32775	
299	0	32844	32804	
300	0	32720	32634	
301	0	32856	32790	
302	0	32842	32808	
303	0	32864	32696	
304	0	32898	32856	
305	0	32784	32750	
306	0	32788	32808	
307	0	32752	32700	
308	0	32794	32784	
309	0	32792	32730	
310	0	32864	32802	
311	0	32830	32664	
312	0	32812	32791	
313	0	32842	32744	
314	0	32758	32775	
315	0	32808	32736	
316	0	32774	32775	
317	0	32806	32828	
318	0	32738	32732	
319	0	32818	32768	
320	0	32848	32794	
321	0	32762	32718	
322	0	32816	32849	
323	0	32796	32726	
324	0	32808	32684	
325	0	32810	32802	
326	0	32824	32822	
327	0	32848	32774	
328	0	32848	32682	
329	0	32816	32732	
330	0	32820	32826	
331	0	32816	32724	
332	0	32812	32752	
333	0	32830	32736	
334	0	32780	32820	
335	0	32748	32692	
336	0	32792	32836	
337	0	32788	32746	
338	0	32788	32852	
339	0	32780	32711	
340	0	32750	32828	
341	0	32798	32772	
342	0	32772	32606	
343	0	32836	32847	
344	0	32780	32851	
345	0	32768	32710	
346	0	32865	32734	
347	0	32792	32740	
348	0	32804	32812	
349	0	32864	32668	
350	0	32772	32830	
351	0	32808	32728	
352	0	32844	32896	
353	0	32820	32710	
354	0	32838	32724	
355	0	32852	32718	
356	0	33006	32612	
357	0	32936	32828	
358	0	32848	32772	
359	0	32802	32692	
360	0	32744	32821	
361	0	32744	32775	
362	0	32696	32743	
363	0	32632	32853	
364	0	32672	32770	
365	0	32728	32658	
366	0	32792	32814	
367	0	32768	32775	
368	0	32824	32758	
369	0	32840	32694	
370	0	32828	32767	
371	0	32888	32814	
372	0	32816	32770	
373	0	32818	32775	
374	0	32868	32820	
375	0	32840	32714	
376	0	32828	32756	
377	0	32817	32760	
378	0	32825	32686	
379	0	32792	32760	
380	0	32844	32764	
381	0	32780	32903	
382	0	32832	32774	
383	0	32824	32734	
384	0	32906	32830	
385	0	32832	32764	
386	0	32776	32718	
387	0	32812	32802	
388	0	32847	32744	
389	0	32854	32654	
390	0	32836	32816	
391	0	32800	32775	
392	0	32748	32738	
393	0	32788	32712	
394	0	32806	32732	
395	0	32824	32774	
396	0	32824	32750	
397	0	32796	32764	
398	0	32780	32698	
399	0	32716	32870	
400	0	32706	32775	
401	0	32752	32748	
402	0	32782	32704	
403	0	32734	32722	
404	0	32814	32817	
405	0	32840	32711	
406	0	32792	32832	
407	0	32792	32799	
408	0	32872	32735	
409	0	32844	32820	
410	0	32792	32663	
411	0	32852	32748	
412	0	32830	32698	
413	0	32814	32742	
414	0	32846	32807	
415	0	32826	32842	
416	0	32788	32718	
417	0	32804	32772	
418	0	32840	32812	
419	0	32820	32726	
420	0	32824	32828	
421	0	32776	32784	
422	0	32758	32740	
423	0	32876	32760	
424	0	32904	32788	
425	0	32852	32860	
426	0	32788	32754	
427	0	32778	32688	
428	0	32784	32767	
429	0	32796	32738	
430	0	32830	32751	
431	0	32820	32788	
432	0	32836	32854	
433	0	32824	32794	
434	0	32842	32800	
435	0	32848	32775	
436	0	32806	32830	
437	0	32816	32766	
438	0	32888	32630	
439	0	32834	32772	
440	0	32778	32704	
441	0	32796	32618	
442	0	32756	32814	
443	0	32768	32772	
444	0	32808	32756	
445	0	32776	32734	
446	0	32776	32775	
447	0	32704	32760	
448	0	32820	32775	
449	0	32798	32836	
450	0	32832	32750	
451	0	32848	32748	
452	0	32788	32746	
453	0	32832	32762	
454	0	32772	32738	
455	0	32916	32808	
456	0	32908	32720	
457	0	32808	32756	
458	0	32844	32796	
459	0	32796	32766	
460	0	32796	32740	
461	0	32820	32775	
462	0	32812	32716	
463	0	32874	32876	
464	0	32852	32768	
465	0	32793	32668	
466	0	32804	32775	
467	0	32796	32767	
468	0	32790	32655	
469	0	32840	32852	
470	0	32792	32870	
471	0	32784	32750	
472	0	32770	32660	
473	0	32808	32799	
474	0	32760	32686	
475	0	32810	32888	
476	0	32812	32790	
477	0	32740	32742	
478	0	32841	32870	
479	0	32840	32832	
480	0	32788	32616	
481	0	32896	32750	
482	0	32872	32772	
483	0	32808	32640	
484	0	32778	32756	
485	0	32790	32900	
486	0	32764	32744	
487	0	32800	32812	
488	0	32842	32904	
489	0	32800	32754	
490	0	32820	32775	
491	0	32832	32805	
492	0	32788	32740	
493	0	32754	32754	
494	0	32864	32844	
495	0	32818	32706	
496	0	32818	32764	
497	0	32892	32663	
498	0	32820	32671	
499	0	32772	32758	
500	0	32826	32814	
501	0	32796	32732	
502	0	32760	32810	
503	0	32748	32807	
504	0	32756	32714	
505	0	32800	32848	
506	0	32752	32804	
507	0	32782	32738	
508	0	32856	32768	
509	0	32780	32844	
510	0	32796	32680	
511	0	32760	32744	
512	0	32844	32820	
513	0	32880	32722	
514	0	32837	32848	
515	0	32920	32836	
516	0	32888	32756	
517	0	32916	32807	
518	0	32810	32814	
519	0	32772	32660	
520	0	32804	32754	
521	0	32792	32792	
522	0	32772	32870	
523	0	32800	32670	
524	0	32734	32858	
525	0	32744	32764	
526	0	32758	32768	
527	0	32768	32850	
528	0	32768	32748	
529	0	32808	32770	
530	0	32784	32718	
531	0	32824	32879	
532	0	32808	32826	
533	0	32820	32744	
534	0	32804	32703	
535	0	32860	32775	
536	0	32868	32808	
537	0	32922	32668	
538	0	32824	32775	
539	0	32828	32772	
540	0	32872	32743	
541	0	32888	32806	
542	0	32864	32806	
543	0	32845	32684	
544	0	32780	32828	
545	0	32752	32844	
546	0	32816	32748	
547	0	32724	32672	
548	0	32846	32796	
549	0	32734	32760	
550	0	32764	32698	
551	0	32900	32858	
552	0	32856	32807	
553	0	32864	32766	
554	0	32832	32720	
555	0	32834	32748	
556	0	32876	32814	
557	0	32836	32648	
558	0	32840	32800	
559	0	32924	32820	
560	0	32888	32710	
561	0	32868	32878	
562	0	32788	32752	
563	0	32768	32584	
564	0	32689	32775	
565	0	32796	32870	
566	0	32732	32644	
567	0	32792	32705	
568	0	32874	32816	
569	0	32708	32756	
570	0	32748	32844	
571	0	32820	32788	
572	0	32824	32790	
573	0	32812	32686	
574	0	32864	32746	
575	0	32848	32854	
576	0	32844	32687	
577	0	32846	32737	
578	0	32828	32775	
579	0	32828	32788	
580	0	32753	32728	
581	0	32760	32866	
582	0	32820	32677	
583	0	32800	32804	
584	0	32804	32834	
585	0	32788	32708	
586	0	32822	32774	
587	0	32838	32826	
588	0	32858	32692	
589	0	32884	32736	
590	0	32840	32790	
591	0	32764	32696	
592	0	32792	32746	
593	0	32736	32716	
594	0	32788	32863	
595	0	32840	32768	
596	0	32704	32676	
597	0	32768	32831	
598	0	32769	32798	
599	0	32808	32618	
600	0	32844	32826	
601	0	32804	32846	
602	0	32864	32756	
603	0	32828	32714	
604	0	32824	32694	
605	0	32780	32826	
606	0	32880	32815	
607	0	32886	32746	
608	0	32840	32716	
609	0	32766	32714	
610	0	32820	32604	
611	0	32800	32810	
612	0	32804	32818	
613	0	32808	32748	
614	0	32824	32819	
615	0	32740	32725	
616	0	32775	32681	
617	0	32816	32756	
618	0	32810	32732	
619	0	32872	32768	
620	0	32868	32740	
621	0	32864	32684	
622	0	32868	32844	
623	0	32836	32810	
624	0	32820	32723	
625	0	32862	32860	
626	0	32798	32882	
627	0	32752	32662	
628	0	32772	32743	
629	0	32792	32818	
630	0	32806	32694	
631	0	32800	32832	
632	0	32760	32843	
633	0	32806	32644	
634	0	32812	32812	
635	0	32862	32898	
636	0	32820	32630	
637	0	32808	32828	
638	0	32880	32856	
639	0	32836	32668	
640	0	32818	32798	
641	0	32780	32790	
642	0	32688	32738	
643	0	32744	32805	
644	0	32800	32740	
645	0	32800	32684	
646	0	32862	32775	
647	0	32804	32814	
648	0	32722	32742	
649	0	32814	32767	
650	0	32898	32844	
651	0	32780	32674	
652	0	32810	32756	
653	0	32778	32744	
654	0	32816	32775	
655	0	32812	32636	
656	0	32836	32842	
657	0	32834	32744	
658	0	32864	32775	
659	0	32758	32690	
660	0	32820	32718	
661	0	32836	32826	
662	0	32808	32740	
663	0	32816	32840	
664	0	32864	32868	
665	0	32844	32656	
666	0	32794	32814	
667	0	32780	32825	
668	0	32778	32746	
669	0	32782	32849	
670	0	32788	32832	
671	0	32738	32676	
672	0	32768	32830	
673	0	32840	32732	
674	0	32820	32682	
675	0	32864	32746	
676	0	32832	32802	
677	0	32748	32792	
678	0	32780	32754	
679	0	32818	32754	
680	0	32858	32791	
681	0	32872	32750	
682	0	32862	32728	
683	0	32792	32849	
684	0	32880	32706	
685	0	32780	32836	
686	0	32823	32810	
687	0	32844	32750	
688	0	32834	32818	
689	0	32748	32810	
690	0	32768	32806	
691	0	32782	32738	
692	0	32796	32790	
693	0	32788	32760	
694	0	32776	32711	
695	0	32764	32707	
696	0	32776	32799	
697	0	32842	32808	
698	0	32804	32692	
699	0	32800	32731	
700	0	32824	32743	
701	0	32816	32774	
702	0	32774	32750	
703	0	32858	32743	
704	0	32828	32807	
705	0	32778	32699	
706	0	32790	32800	
707	0	32820	32740	
708	0	32820	32806	
709	0	32772	32670	
710	0	32838	32775	
711	0	32772	32823	
712	0	32884	32663	
713	0	32816	32821	
714	0	32864	32879	
715	0	32868	32708	
716	0	32892	32740	
717	0	32896	32774	
718	0	32858	32786	
719	0	32898	32752	
720	0	32778	32838	
721	0	32816	32734	
722	0	32736	32814	
723	0	32840	32734	
724	0	32698	32724	
725	0	32764	32832	
726	0	32774	32871	
727	0	32836	32746	
728	0	32788	32762	
729	0	32776	32662	
730	0	32746	32760	
731	0	32796	32756	
732	0	32808	32647	
733	0	32792	32770	
734	0	32820	32691	
735	0	32868	32775	
736	0	32800	32722	
737	0	32838	32798	
738	0	32826	32775	
739	0	32913	32698	
740	0	32816	32775	
741	0	32812	32772	
742	0	32788	32719	
743	0	32848	32828	
744	0	32816	32784	
745	0	32812	32822	
746	0	32796	32840	
747	0	32768	32730	
748	0	32772	32715	
749	0	32788	32772	
750	0	32784	32789	
751	0	32828	32808	
752	0	32904	32764	
753	0	32884	32764	
754	0	32832	32700	
755	0	32804	32743	
756	0	32896	32716	
757	0	32822	32710	
758	0	32816	32884	
759	0	32856	32828	
760	0	32866	32810	
761	0	32808	32756	
762	0	32840	32838	
763	0	32808	32704	
764	0	32776	32655	
765	0	32742	32874	
766	0	32778	32814	
767	0	32840	32794	
768	0	32702	32700	
769	0	32740	32861	
770	0	32772	32869	
771	0	32840	32688	
772	0	32816	32702	
773	0	32820	32775	
774	0	32856	32726	
775	0	32900	32695	
776	0	32788	32846	
777	0	32844	32742	
778	0	32810	32736	
779	0	32816	32858	
780	0	32760	32798	
781	0	32784	32817	
782	0	32830	32840	
783	0	32784	32655	
784	0	32784	32812	
785	0	32844	32846	
786	0	32824	32703	
787	0	32832	32804	
788	0	32788	32660	
789	0	32800	32822	
790	0	32782	32775	
791	0	32812	32680	
792	0	32816	32814	
793	0	32876	32784	
794	0	32900	32775	
795	0	32838	32775	
796	0	32880	32770	
797	0	32832	32692	
798	0	32824	32817	
799	0	32792	32670	
800	0	32800	32775	
801	0	32738	32751	
802	0	32852	32711	
803	0	32770	32758	
804	0	32756	32881	
805	0	32742	32812	
806	0	32812	32756	
807	0	32792	32647	
808	0	32804	32751	
809	0	32816	32822	
810	0	32778	32728	
811	0	32808	32742	
812	0	32816	32714	
813	0	32832	32696	
814	0	32832	32884	
815	0	32836	32815	
816	0	32760	32740	
817	0	32802	32775	
818	0	32852	32830	
819	0	32804	32688	
820	0	32786	32732	
821	0	32864	32802	
822	0	32788	32682	
823	0	32756	32736	
824	0	32869	32766	
825	0	32836	32680	
826	0	32804	32822	
827	0	32796	32808	
828	0	32828	32807	
829	0	32780	32758	
830	0	32852	32775	
831	0	32804	32774	
832	0	32880	32710	
833	0	32912	32758	
834	0	32820	32764	
835	0	32824	32714	
836	0	32816	32766	
837	0	32816	32806	
838	0	32684	32721	
839	0	32714	32758	
840	0	32748	32788	
841	0	32772	32727	
842	0	32740	32806	
843	0	32816	32753	
844	0	32808	32728	
845	0	32848	32748	
846	0	32844	32703	
847	0	32916	32800	
848	0	32848	32700	
849	0	32866	32816	
850	0	32808	32823	
851	0	32776	32693	
852	0	32924	32807	
853	0	32820	32856	
854	0	32850	32788	
855	0	32818	32650	
856	0	32844	32775	
857	0	32800	32740	
858	0	32832	32775	
859	0	32800	32684	
860	0	32800	32810	
861	0	32818	32742	
862	0	32816	32724	
863	0	32724	32647	
864	0	32676	32582	
865	0	32704	32710	
866	0	32668	32806	
867	0	32684	32636	
868	0	32732	32746	
869	0	32700	32690	
870	0	32768	32724	
871	0	32788	32638	
872	0	32740	32696	
873	0	32690	32764	
874	0	32780	32684	
875	0	32740	32656	
876	0	32740	32812	
877	0	32768	32748	
878	0	32782	32760	
879	0	32784	32666	
880	0	32804	32815	
881	0	32684	32775	
882	0	32780	32799	
883	0	32756	32740	
884	0	32756	32831	
885	0	32768	32774	
886	0	32816	32743	
887	0	32932	32936	
888	0	32952	32900	
889	0	33010	32860	
890	0	33100	33120	
891	0	33200	33063	
892	0	33206	33014	
893	0	33260	33130	
894	0	33111	33064	
895	0	33072	32814	
896	0	33140	32900	
897	0	33090	32794	
898	0	32940	32838	
899	0	32884	32762	
900	0	32976	32790	
901	0	32832	32829	
902	0	32788	32718	
903	0	32728	32743	
904	0	32724	32718	
905	0	32640	32732	
906	0	32792	32722	
907	0	32692	32678	
908	0	32629	32732	
909	0	32652	32647	
910	0	32696	32766	
911	0	32694	32612	
912	0	32732	32686	
913	0	32704	32602	
914	0	32725	32638	
915	0	32720	32648	
916	0	32700	32678	
917	0	32782	32692	
918	0	32744	32636	
919	0	32738	32724	
920	0	32768	32792	
921	0	32780	32764	
922	0	32816	32774	
923	0	32840	32775	
924	0	32806	32804	
925	0	32790	32664	
926	0	32812	32842	
927	0	32802	32836	
928	0	32796	32798	
929	0	32774	32775	
930	0	32810	32812	
931	0	32816	32858	
932	0	32840	32762	
933	0	32778	32704	
934	0	32856	32775	
935	0	32922	32791	
936	0	32902	32834	
937	0	32856	32710	
938	0	32936	32854	
939	0	32744	32804	
940	0	32692	32676	
941	0	32713	32816	
942	0	32684	32834	
943	0	32736	32672	
944	0	32718	32865	
945	0	32668	32775	
946	0	32774	32814	
947	0	32804	32724	
948	0	32864	32805	
949	0	32836	32756	
950	0	32828	32767	
951	0	32876	32804	
952	0	32824	32706	
953	0	32834	32718	
954	0	32776	32757	
955	0	32856	32828	
956	0	32812	32688	
957	0	32800	32780	
958	0	32834	32754	
959	0	32868	32774	
960	0	32824	32688	
961	0	32764	32775	
962	0	32824	32702	
963	0	32832	32724	
964	0	32792	32690	
965	0	32700	32839	
966	0	32846	32753	
967	0	32796	32742	
968	0	32832	32730	
969	0	32788	32804	
970	0	32788	32772	
971	0	32848	32762	
972	0	32840	32690	
973	0	32780	32772	
974	0	32820	32832	
975	0	32856	32720	
976	0	32808	32804	
977	0	32832	32802	
978	0	32864	32756	
979	0	32821	32772	
980	0	32752	32816	
981	0	32908	32688	
982	0	32808	32800	
983	0	32862	32826	
984	0	32848	32734	
985	0	32784	32834	
986	0	32744	32770	
987	0	32798	32711	
988	0	32810	32764	
989	0	32864	32818	
990	0	32808	32718	
991	0	32848	32798	
992	0	32842	32792	
993	0	32808	32670	
994	0	32846	32750	
995	0	32848	32734	
996	0	32860	32666	
997	0	32804	32710	
998	0	32832	32738	
999	0	32812	32860	
1000	0	32800	32748	
1001	0	32756	32786	
1002	0	32798	32831	
1003	0	32852	32743	
1004	0	32756	32839	
1005	0	32832	32760	
1006	0	32796	32766	
1007	0	32820	32860	
1008	0	32866	32720	
1009	0	32858	32712	
1010	0	32902	32700	
1011	0	32900	32852	
1012	0	32804	32775	
1013	0	32816	32720	
1014	0	32768	32732	
1015	0	32760	32838	
1016	0	32792	32810	
1017	0	32782	32815	
1018	0	32732	32719	
1019	0	32748	32686	
1020	0	32800	32819	
1021	0	32848	32766	
1022	0	32908	32724	
1023	0	32760	32750	
1024	0	32876	32791	
1025	0	32856	32759	
1026	0	32796	32752	
1027	0	32812	32712	
1028	0	32750	32772	
1029	0	32826	32772	
1030	0	32804	32794	
1031	0	32888	32646	
1032	0	32830	32764	
1033	0	32840	32775	
1034	0	32748	32730	
1035	0	32822	32690	
1036	0	32794	32824	
1037	0	32848	32908	
1038	0	32796	32704	
1039	0	32834	32686	
1040	0	32816	32844	
1041	0	32788	32772	
1042	0	32817	32857	
1043	0	32830	32742	
1044	0	32824	32828	
1045	0	32826	32752	
1046	0	32868	32735	
1047	0	32848	32726	
1048	0	32862	32652	
1049	0	32840	32804	
1050	0	32788	32823	
1051	0	32810	32826	
1052	0	32804	32810	
1053	0	32754	32796	
1054	0	32812	32756	
1055	0	32812	32720	
1056	0	32834	32626	
1057	0	32808	32732	
1058	0	32736	32716	
1059	0	32780	32825	
1060	0	32802	32660	
1061	0	32881	32796	
1062	0	32820	32679	
1063	0	32752	32816	
1064	0	32808	32672	
1065	0	32856	32772	
1066	0	32764	32827	
1067	0	32788	32862	
1068	0	32764	32696	
1069	0	32792	32752	
1070	0	32802	32775	
1071	0	32788	32774	
1072	0	32824	32807	
1073	0	32782	32754	
1074	0	32810	32810	
1075	0	32832	32710	
1076	0	32820	32775	
1077	0	32800	32772	
1078	0	32900	32666	
1079	0	32868	32720	
1080	0	32880	32751	
1081	0	32874	32768	
1082	0	32860	32736	
1083	0	32804	32712	
1084	0	32770	32836	
1085	0	32772	32846	
1086	0	32716	32750	
1087	0	32688	32756	
1088	0	32674	32764	
1089	0	32756	32775	
1090	0	32736	32746	
1091	0	32824	32790	
1092	0	32832	32841	
1093	0	32952	32682	
1094	0	32804	32838	
1095	0	32760	32757	
1096	0	32870	32770	
1097	0	32868	32706	
1098	0	32864	32815	
1099	0	32776	32850	
1100	0	32799	32772	
1101	0	32888	32724	
1102	0	32868	32726	
1103	0	32828	32790	
1104	0	32828	32687	
1105	0	32840	32754	
1106	0	32782	32798	
1107	0	32778	32730	
1108	0	32810	32752	
1109	0	32920	32804	
1110	0	32822	32774	
1111	0	32817	32792	
1112	0	32836	32696	
1113	0	32869	32870	
1114	0	32832	32730	
1115	0	32866	32743	
1116	0	32886	32668	
1117	0	32784	32822	
1118	0	32752	32834	
1119	0	32722	32810	
1120	0	32744	32676	
1121	0	32774	32798	
1122	0	32676	32748	
1123	0	32752	32992	
1124	0	32708	32622	
1125	0	32720	32764	
1126	0	32848	32743	
1127	0	32836	32752	
1128	0	32844	32846	
1129	0	32896	32828	
1130	0	32872	32686	
1131	0	32828	32864	
1132	0	32856	32874	
1133	0	32852	32744	
1134	0	32856	32775	
1135	0	32844	32858	
1136	0	32808	32702	
1137	0	32764	32822	
1138	0	32814	32714	
1139	0	32766	32716	
1140	0	32848	32814	
1141	0	32836	32765	
1142	0	32808	32706	
1143	0	32760	32807	
1144	0	32800	32766	
1145	0	32886	32791	
1146	0	32724	32647	
1147	0	32824	32768	
1148	0	32808	32799	
1149	0	32888	32794	
1150	0	32846	32791	
1151	0	32874	32791	
1152	0	32798	32790	
1153	0	32840	32684	
1154	0	32762	32802	
1155	0	32876	32774	
1156	0	32760	32858	
1157	0	32772	32643	
1158	0	32834	32786	
1159	0	32792	32748	
1160	0	32788	32746	
1161	0	32796	32644	
1162	0	32792	32732	
1163	0	32766	32804	
1164	0	32800	32775	
1165	0	32844	32683	
1166	0	32822	32743	
1167	0	32764	32771	
1168	0	32766	32834	
1169	0	32780	32703	
1170	0	32776	32812	
1171	0	32866	32708	
1172	0	32816	32790	
1173	0	32892	32728	
1174	0	32804	32810	
1175	0	32774	32878	
1176	0	32720	32758	
1177	0	32775	32714	
1178	0	32836	32838	
1179	0	32762	32822	
1180	0	32822	32724	
1181	0	32880	32724	
1182	0	32852	32732	
1183	0	32865	32788	
1184	0	32848	32688	
1185	0	32820	32906	
1186	0	32800	32772	
1187	0	32828	32768	
1188	0	32772	32714	
1189	0	32804	32820	
1190	0	32772	32730	
1191	0	32837	32652	
1192	0	32848	32736	
1193	0	32790	32775	
1194	0	32769	32627	
1195	0	32772	32668	
1196	0	32724	32748	
1197	0	32800	32790	
1198	0	32826	32751	
1199	0	32884	32758	
1200	0	32949	32728	
1201	0	32956	32826	
1202	0	32906	32734	
1203	0	32668	32775	
1204	0	32700	32684	
1205	0	32632	32798	
1206	0	32660	32762	
1207	0	32676	32679	
1208	0	32760	32807	
1209	0	32796	32860	
1210	0	32792	32794	
1211	0	32916	32846	
1212	0	32866	32852	
1213	0	32892	32742	
1214	0	32852	32836	
1215	0	32884	32775	
1216	0	32856	32708	
1217	0	32800	32850	
1218	0	32888	32751	
1219	0	32960	32720	
1220	0	32929	32836	
1221	0	32928	32800	
1222	0	32832	32762	
1223	0	32784	32684	
1224	0	32840	32818	
1225	0	32810	32708	
1226	0	32760	32772	
1227	0	32772	32831	
1228	0	32688	32764	
1229	0	32736	32775	
1230	0	32782	32824	
1231	0	32772	32700	
1232	0	32876	32772	
1233	0	32714	32754	
1234	0	32676	32746	
1235	0	32728	32812	
1236	0	32732	32660	
1237	0	32790	32748	
1238	0	32736	32711	
1239	0	32772	32738	
1240	0	32790	32736	
1241	0	32784	32704	
1242	0	32826	32636	
1243	0	32864	32646	
1244	0	32828	32775	
1245	0	32890	32826	
1246	0	32964	32711	
1247	0	32878	32812	
1248	0	32924	32823	
1249	0	32821	32926	
1250	0	32868	32903	
1251	0	32876	32728	
1252	0	32936	32852	
1253	0	32852	32858	
1254	0	32812	32664	
1255	0	32834	32756	
1256	0	32736	32746	
1257	0	32728	32742	
1258	0	32740	32698	
1259	0	32768	32622	
1260	0	32884	32868	
1261	0	32884	32764	
1262	0	32856	32718	
1263	0	32788	32750	
1264	0	32788	32775	
1265	0	32832	32751	
1266	0	32788	32750	
1267	0	32768	32852	
1268	0	32740	32658	
1269	0	32734	32790	
1270	0	32736	32750	
1271	0	32688	32684	
1272	0	32728	32750	
1273	0	32788	32738	
1274	0	32856	32738	
1275	0	32846	32818	
1276	0	32896	32902	
1277	0	32900	32740	
1278	0	32816	32750	
1279	0	32772	32786	
1280	0	32762	32671	
1281	0	32734	32722	
1282	0	32774	32774	
1283	0	32708	32850	
1284	0	32780	32676	
1285	0	32824	32791	
1286	0	32868	32750	
1287	0	32900	32800	
1288	0	32810	32734	
1289	0	32860	32882	
1290	0	32820	32798	
1291	0	32848	32798	
1292	0	32938	32671	
1293	0	32970	32770	
1294	0	32956	32724	
1295	0	32682	32592	
1296	0	32444	32824	
1297	0	32456	32688	
1298	0	32732	32698	
1299	0	32796	32673	
1300	0	32860	32764	
1301	0	32822	32842	
1302	0	32888	32806	
1303	0	32852	32852	
1304	0	32824	32767	
1305	0	32828	32830	
1306	0	32896	32770	
1307	0	32780	32858	
1308	0	32828	32798	
1309	0	32788	32868	
1310	0	32836	32831	
1311	0	32804	32856	
1312	0	32776	32820	
1313	0	32766	32744	
1314	0	32832	32830	
1315	0	32968	32790	
1316	0	32917	32640	
1317	0	32808	32831	
1318	0	32724	32572	
1319	0	32851	32592	
1320	0	32830	32430	
1321	0	32852	32518	
1322	0	32902	32652	
1323	0	32936	32738	
1324	0	32952	32774	
1325	0	32832	33036	
1326	0	32756	32926	
1327	0	32760	32900	
1328	0	32748	32792	
1329	0	32700	32854	
1330	0	32676	32984	
1331	0	32644	32760	
1332	0	32758	32846	
1333	0	32796	32862	
1334	0	32824	32756	
1335	0	32914	32688	
1336	0	32892	32737	
1337	0	32840	32768	
1338	0	32800	32826	
1339	0	32784	32798	
1340	0	32780	32724	
1341	0	32785	32634	
1342	0	32788	32702	
1343	0	32674	32708	
1344	0	32746	32688	
1345	0	32886	32602	
1346	0	32948	32724	
1347	0	33024	32726	
1348	0	32816	32610	
1349	0	32885	32720	
1350	0	32928	32750	
1351	0	32948	32762	
1352	0	32808	32702	
1353	0	32792	32752	
1354	0	32672	32917	
1355	0	32778	32964	
1356	0	32860	32970	
1357	0	32770	32959	
1358	0	32804	32958	
1359	0	32764	33022	
1360	0	32818	32752	
1361	0	32862	32788	
1362	0	32780	32638	
1363	0	32836	32775	
1364	0	32718	32746	
1365	0	32768	32534	
1366	0	32840	32610	
1367	0	32834	32658	
1368	0	32864	32682	
1369	0	32788	32718	
1370	0	32740	32644	
1371	0	32740	32775	
1372	0	32828	32824	
1373	0	32888	32743	
1374	0	32996	32828	
1375	0	32868	32884	
1376	0	32856	32868	
1377	0	32796	32903	
1378	0	32708	32864	
1379	0	32688	32871	
1380	0	32798	32802	
1381	0	32816	32802	
1382	0	32872	32738	
1383	0	32820	32636	
1384	0	32882	32800	
1385	0	32814	32820	
1386	0	32784	32742	
1387	0	32868	32750	
1388	0	32794	32802	
1389	0	32858	32775	
1390	0	32864	32798	
1391	0	32796	32636	
1392	0	32748	32638	
1393	0	32788	32662	
1394	0	32802	32758	
1395	0	32916	32826	
1396	0	32960	32732	
1397	0	32800	32775	
1398	0	32768	32763	
1399	0	32726	32614	
1400	0	32728	32774	
1401	0	32700	32690	
1402	0	32836	32735	
1403	0	32884	32822	
1404	0	32856	32678	
1405	0	32792	32840	
1406	0	32746	32868	
1407	0	32724	33031	
1408	0	32670	32980	
1409	0	32744	32903	
1410	0	32864	32967	
1411	0	32952	32950	
1412	0	32976	32903	
1413	0	32940	32870	
1414	0	32896	32754	
1415	0	32864	32880	
1416	0	32828	32724	
1417	0	32926	32646	
1418	0	32736	32682	
1419	0	32732	32668	
1420	0	32656	32544	
1421	0	32764	32670	
1422	0	32676	32666	
1423	0	32692	32598	
1424	0	32794	32664	
1425	0	32892	32740	
1426	0	32980	32580	
1427	0	33016	32721	
1428	0	32834	32686	
1429	0	32784	32758	
1430	0	32716	32690	
1431	0	32716	32690	
1432	0	32748	32647	
1433	0	32754	32584	
1434	0	32810	32807	
1435	0	32700	32798	
1436	0	32760	32807	
1437	0	32670	32996	
1438	0	32704	32935	
1439	0	32720	32884	
1440	0	32786	32894	
1441	0	32908	32864	
1442	0	32916	32770	
1443	0	32916	32798	
1444	0	32880	32730	
1445	0	32876	32804	
1446	0	32998	32728	
1447	0	32914	32744	
1448	0	32986	32678	
1449	0	32780	32624	
1450	0	32672	32642	
1451	0	32664	32528	
1452	0	32634	32678	
1453	0	32900	32756	
1454	0	32930	32652	
1455	0	33036	32758	
1456	0	32932	32764	
1457	0	32866	32582	
1458	0	32796	32692	
1459	0	32802	32862	
1460	0	32904	32908	
1461	0	32876	32990	
1462	0	32736	32988	
1463	0	32728	32890	
1464	0	32592	32898	
1465	0	32712	32822	
1466	0	32854	32896	
1467	0	32748	32556	
1468	0	32592	32378	
1469	0	32668	32270	
1470	0	32740	32291	
1471	0	32720	32438	
1472	0	32852	32554	
1473	0	32944	32788	
1474	0	32786	32860	
1475	0	32698	33078	
1476	0	32713	33144	
1477	0	32802	33094	
1478	0	32838	33156	
1479	0	32880	33180	
1480	0	32836	33268	
1481	0	32724	33386	
1482	0	32756	33132	
1483	0	32868	33159	
1484	0	32968	33004	
1485	0	32944	32903	
1486	0	32798	32836	
1487	0	32898	32646	
1488	0	33036	32580	
1489	0	33036	32672	
1490	0	32974	32564	
1491	0	32748	32602	
1492	0	32712	32500	
1493	0	32734	32546	
1494	0	32592	32604	
1495	0	32676	32478	
1496	0	32748	32474	
1497	0	32740	32551	
1498	0	32872	32419	
1499	0	32882	32505	
1500	0	32775	32440	
1501	0	32872	32556	
1502	0	33212	32654	
1503	0	33040	32564	
1504	0	32980	32796	
1505	0	32936	32882	
1506	0	32792	32807	
1507	0	32720	32939	
1508	0	32776	33074	
1509	0	32708	32934	
1510	0	32668	32908	
1511	0	32654	32964	
1512	0	32636	33002	
1513	0	32564	32911	
1514	0	32612	32750	
1515	0	32586	32820	
1516	0	32668	32866	
1517	0	32740	32647	
1518	0	32770	32696	
1519	0	32826	32766	
1520	0	33158	32652	
1521	0	33412	32705	
1522	0	33130	32578	
1523	0	32940	32604	
1524	0	32804	32588	
1525	0	32868	32671	
1526	0	32698	32852	
1527	0	32636	32688	
1528	0	32556	32775	
1529	0	32690	32816	
1530	0	32796	32816	
1531	0	32820	32862	
1532	0	32972	32718	
1533	0	33122	32647	
1534	0	33136	32807	
1535	0	33072	32922	
1536	0	32820	32872	
1537	0	32836	32968	
1538	0	32720	32944	
1539	0	32660	32760	
1540	0	32644	32872	
1541	0	32660	32834	
1542	0	32618	32756	
1543	0	32610	32716	
1544	0	32580	32712	
1545	0	32688	32794	
1546	0	32804	32644	
1547	0	32618	32452	
1548	0	32720	32460	
1549	0	32920	32391	
1550	0	32988	32404	
1551	0	32932	32396	
1552	0	32900	32330	
1553	0	32924	32538	
1554	0	32686	32740	
1555	0	32796	32884	
1556	0	32950	33046	
1557	0	33036	32903	
1558	0	33024	33156	
1559	0	33022	33206	
1560	0	33080	33242	
1561	0	32998	33342	
1562	0	32968	33262	
1563	0	32732	33136	
1564	0	32606	33040	
1565	0	32688	33148	
1566	0	32680	32838	
1567	0	32670	32873	
1568	0	32492	32903	
1569	0	32572	32614	
1570	0	32712	32596	
1571	0	32652	32370	
1572	0	32816	32278	
1573	0	33040	32578	
1574	0	32956	32508	
1575	0	33192	32248	
1576	0	33056	32482	
1577	0	32794	32620	
1578	0	32664	32622	
1579	0	32892	32658	
1580	0	32832	32654	
1581	0	32910	32588	
1582	0	32940	32612	
1583	0	32842	32772	
1584	0	32760	32978	
1585	0	32818	33029	
1586	0	32860	33276	
1587	0	33144	33282	
1588	0	33056	33271	
1589	0	32952	33135	
1590	0	32676	33110	
1591	0	32548	33088	
1592	0	32316	32901	
1593	0	32276	32999	
1594	0	32348	32848	
1595	0	32772	32679	
1596	0	32844	32775	
1597	0	32830	32791	
1598	0	32792	32519	
1599	0	32800	32644	
1600	0	32856	32548	
1601	0	32756	32416	
1602	0	32692	32476	
1603	0	32900	32519	
1604	0	32972	32422	
1605	0	32940	32630	
1606	0	32804	32680	
1607	0	32892	32636	
1608	0	32984	32788	
1609	0	33000	32826	
1610	0	32992	32730	
1611	0	32936	32894	
1612	0	32896	32898	
1613	0	33144	32847	
1614	0	33164	32842	
1615	0	33048	32716	
1616	0	32853	32652	
1617	0	32714	32700	
1618	0	32702	32593	
1619	0	32656	32471	
1620	0	32618	32387	
1621	0	32740	32490	
1622	0	32852	32422	
1623	0	32873	32443	
1624	0	32504	32612	
1625	0	32620	32660	
1626	0	32524	32804	
1627	0	32588	32854	
1628	0	32716	32836	
1629	0	32738	33118	
1630	0	32656	33126	
1631	0	32636	33376	
1632	0	32816	33428	
1633	0	32896	33447	
1634	0	32964	33486	
1635	0	32996	33330	
1636	0	33068	33200	
1637	0	33016	33026	
1638	0	32992	32903	
1639	0	32848	32775	
1640	0	33044	32584	
1641	0	33140	32542	
1642	0	33152	32519	
1643	0	33092	32340	
1644	0	32680	32404	
1645	0	32816	32276	
1646	0	32876	32132	
1647	0	32888	32158	
1648	0	32668	32094	
1649	0	32458	32100	
1650	0	32388	32430	
1651	0	32464	32720	
1652	0	32402	32860	
1653	0	32572	33128	
1654	0	32608	33246	
1655	0	32738	33348	
1656	0	32740	33415	
1657	0	32724	33287	
1658	0	32888	33090	
1659	0	32870	32878	
1660	0	33046	32824	
1661	0	33052	32948	
1662	0	33210	32972	
1663	0	33260	32820	
1664	0	33150	32712	
1665	0	32892	32775	
1666	0	32584	32420	
1667	0	32420	32326	
1668	0	32468	32383	
1669	0	32558	32310	
1670	0	32536	32132	
1671	0	32570	32366	
1672	0	32720	32168	
1673	0	32568	32127	
1674	0	32640	32162	
1675	0	32840	32383	
1676	0	32808	32496	
1677	0	32804	32858	
1678	0	32960	33108	
1679	0	32928	33287	
1680	0	33254	33391	
1681	0	33380	33479	
1682	0	33218	33504	
1683	0	32896	33540	
1684	0	32582	33401	
1685	0	32576	33360	
1686	0	32480	33416	
1687	0	32444	33423	
1688	0	32494	33176	
1689	0	32758	32665	
1690	0	32704	32572	
1691	0	32720	32007	
1692	0	32878	31980	
1693	0	33062	32446	
1694	0	33142	32760	
1695	0	33264	32828	
1696	0	33546	32967	
1697	0	33175	33028	
1698	0	33096	32660	
1699	0	33184	32374	
1700	0	33182	32448	
1701	0	33126	32524	
1702	0	32932	32726	
1703	0	32807	32922	
1704	0	32934	32938	
1705	0	32708	32798	
1706	0	32650	33020	
1707	0	32752	33031	
1708	0	33002	33043	
1709	0	33044	33180	
1710	0	33140	33092	
1711	0	33326	33162	
1712	0	33336	33144	
1713	0	33120	33020	
1714	0	32410	32794	
1715	0	32193	32406	
1716	0	32424	32241	
1717	0	32410	32292	
1718	0	32184	32535	
1719	0	31976	32416	
1720	0	32168	32396	
1721	0	32352	32476	
1722	0	32532	32542	
1723	0	32780	32588	
1724	0	32714	32718	
1725	0	32702	32672	
1726	0	32904	32815	
1727	0	32846	32990	
1728	0	32944	32999	
1729	0	32900	32994	
1730	0	33056	32775	
1731	0	33062	32820	
1732	0	33116	32732	
1733	0	32748	32576	
1734	0	32860	32838	
1735	0	33036	32868	
1736	0	32848	32840	
1737	0	32620	32762	
1738	0	32802	32750	
1739	0	33216	32709	
1740	0	33026	32602	
1741	0	32900	32656	
1742	0	33216	32706	
1743	0	32918	32698	
1744	0	32548	32827	
1745	0	32754	32930	
1746	0	32584	32884	
1747	0	32564	32766	
1748	0	32648	32628	
1749	0	32596	32775	
1750	0	32672	32738	
1751	0	32684	32500	
1752	0	32952	32346	
1753	0	32804	32172	
1754	0	32792	32134	
1755	0	32760	32062	
1756	0	32836	32644	
1757	0	32954	32654	
1758	0	32908	32774	
1759	0	32960	32964	
1760	0	32824	33190	
1761	0	32900	33415	
1762	0	32912	33488	
1763	0	32868	33551	
1764	0	32752	33558	
1765	0	32768	33570	
1766	0	32720	33543	
1767	0	32708	33130	
1768	0	32804	33062	
1769	0	32852	32802	
1770	0	32872	32816	
1771	0	32906	32788	
1772	0	32886	32846	
1773	0	32958	32502	
1774	0	32978	32350	
1775	0	32822	32461	
1776	0	32740	32428	
1777	0	32936	32330	
1778	0	33056	32567	
1779	0	32984	32519	
1780	0	32848	32492	
1781	0	32900	32383	
1782	0	32772	32428	
1783	0	32694	32376	
1784	0	32626	32596	
1785	0	32560	32788	
1786	0	32592	32468	
1787	0	32664	32468	
1788	0	32672	32576	
1789	0	32612	32416	
1790	0	32800	32492	
1791	0	33024	32596	
1792	0	33028	32604	
1793	0	32794	32908	
1794	0	32688	32979	
1795	0	32676	32930	
1796	0	32984	32996	
1797	0	32904	33056	
1798	0	32988	32968	
1799	0	33216	33138	
1800	0	32994	32996	
1801	0	32904	33092	
1802	0	32580	33280	
1803	0	32432	33322	
1804	0	32636	33214	
1805	0	32624	33130	
1806	0	32668	33132	
1807	0	32796	33084	
1808	0	32658	32903	
1809	0	32754	32928	
1810	0	32900	32807	
1811	0	32840	32572	
1812	0	33024	32478	
1813	0	32904	32455	
1814	0	32858	32616	
1815	0	32924	32541	
1816	0	32954	32468	
1817	0	33012	32418	
1818	0	33098	32298	
1819	0	33084	32324	
1820	0	32840	32682	
1821	0	32800	32644	
1822	0	32548	32570	
1823	0	32786	32687	
1824	0	32908	32582	
1825	0	32758	32762	
1826	0	32692	32744	
1827	0	32814	32730	
1828	0	32824	32934	
1829	0	32540	33148	
1830	0	32320	32924	
1831	0	32704	33046	
1832	0	32994	32932	
1833	0	32984	32796	
1834	0	33042	32598	
1835	0	33004	32775	
1836	0	32952	32738	
1837	0	32802	32940	
1838	0	32656	32700	
1839	0	32456	32932	
1840	0	32800	32654	
1841	0	32764	32642	
1842	0	32724	32784	
1843	0	32984	32727	
1844	0	33112	32630	
1845	0	33068	32684	
1846	0	32928	32770	
1847	0	33164	32806	
1848	0	32712	32644	
1849	0	32618	32746	
1850	0	32424	32455	
1851	0	32624	32716	
1852	0	32564	32740	
1853	0	32748	33044	
1854	0	32996	33114	
1855	0	32796	33137	
1856	0	32640	33214	
1857	0	32438	33194	
1858	0	32620	33068	
1859	0	32960	33119	
1860	0	32992	32972	
1861	0	33009	33014	
1862	0	32884	33006	
1863	0	32654	32818	
1864	0	32844	32722	
1865	0	33058	32558	
1866	0	33132	32168	
1867	0	33212	31788	
1868	0	33472	31974	
1869	0	32822	32098	
1870	0	32276	32142	
1871	0	32576	32178	
1872	0	32790	32372	
1873	0	32836	32503	
1874	0	32642	32822	
1875	0	32616	33487	
1876	0	32692	33814	
1877	0	32788	33864	
1878	0	32912	33964	
1879	0	32916	33554	
1880	0	32558	33260	
1881	0	32632	33055	
1882	0	32658	32894	
1883	0	32708	32697	
1884	0	32828	32534	
1885	0	33108	32463	
1886	0	32988	32204	
1887	0	32700	32292	
1888	0	32864	32330	
1889	0	33192	32250	
1890	0	32976	32404	
1891	0	32798	32380	
1892	0	32668	32030	
1893	0	32788	32110	
1894	0	33090	32136	
1895	0	32586	32464	
1896	0	32712	32526	
1897	0	32764	32181	
1898	0	32700	32296	
1899	0	32814	32713	
1900	0	32806	33178	
1901	0	32888	33648	
1902	0	32896	33732	
1903	0	32922	33840	
1904	0	32640	33826	
1905	0	32540	33458	
1906	0	32384	33248	
1907	0	32568	33030	
1908	0	32776	32996	
1909	0	32910	32628	
1910	0	32910	32262	
1911	0	33172	32100	
1912	0	33044	32180	
1913	0	33004	32206	
1914	0	32948	32244	
1915	0	32588	32534	
1916	0	32712	32644	
1917	0	32736	32599	
1918	0	32788	32798	
1919	0	32578	32936	
1920	0	32828	32968	
1921	0	33230	32896	
1922	0	33264	33144	
1923	0	32998	33364	
1924	0	32628	33458	
1925	0	32316	33180	
1926	0	32620	33124	
1927	0	32874	33055	
1928	0	32916	32948	
1929	0	33216	32624	
1930	0	33238	32506	
1931	0	32712	32519	
1932	0	32472	32370	
1933	0	32612	32483	
1934	0	32782	32446	
1935	0	32718	32493	
1936	0	32706	32647	
1937	0	32778	32768	
1938	0	33004	32652	
1939	0	33004	32494	
1940	0	32838	32134	
1941	0	32840	32176	
1942	0	32888	32334	
1943	0	32660	32690	
1944	0	33052	32896	
1945	0	33002	32812	
1946	0	32816	32726	
1947	0	32618	32796	
1948	0	32986	32992	
1949	0	33064	33049	
1950	0	32980	33264	
1951	0	32540	33088	
1952	0	32680	33237	
1953	0	32948	33156	
1954	0	32880	33166	
1955	0	32480	32742	
1956	0	32600	32298	
1957	0	32612	32762	
1958	0	32938	33064	
1959	0	33140	33210	
1960	0	33024	33324	
1961	0	32686	33287	
1962	0	32492	33268	
1963	0	32392	33031	
1964	0	32504	32478	
1965	0	32552	32436	
1966	0	32693	32536	
1967	0	32828	32528	
1968	0	32988	32652	
1969	0	33112	32568	
1970	0	32804	32519	
1971	0	32828	32762	
1972	0	32722	32956	
1973	0	32798	33051	
1974	0	32912	32742	
1975	0	32988	32696	
1976	0	33216	32676	
1977	0	33076	32696	
1978	0	32696	32610	
1979	0	32695	32564	
1980	0	32634	32743	
1981	0	33246	32658	
1982	0	33254	32868	
1983	0	32904	32806	
1984	0	32254	32487	
1985	0	32600	32418	
1986	0	32808	32258	
1987	0	32526	32140	
1988	0	32228	32295	
1989	0	32680	32278	
1990	0	32886	32082	
1991	0	33062	32087	
1992	0	32888	32356	
1993	0	32730	32564	
1994	0	32476	32519	
1995	0	32940	32702	
1996	0	33412	33014	
1997	0	33296	33543	
1998	0	32708	33648	
1999	0	32452	33686	
2000	0	32228	34088	
2001	0	32532	34040	
2002	0	33376	33432	
2003	0	33204	33186	
2004	0	33072	33017	
2005	0	33060	32792	
2006	0	32774	32738	
2007	0	33064	32598	
2008	0	33208	32926	
2009	0	32472	33031	
2010	0	32420	33038	
2011	0	32042	32591	
2012	0	32112	32354	
2013	0	32552	32418	
2014	0	32760	32486	
2015	0	32540	32170	
2016	0	33154	31920	
2017	0	32880	31638	
2018	0	33090	31702	
2019	0	33024	32108	
2020	0	32896	32534	
2021	0	32712	32764	
2022	0	32704	32982	
2023	0	32352	33224	
2024	0	32248	33239	
2025	0	32776	33494	
2026	0	32968	33431	
2027	0	32840	33498	
2028	0	32822	33308	
2029	0	33018	33264	
2030	0	33000	33279	
2031	0	33084	33172	
2032	0	33114	32943	
2033	0	33008	32554	
2034	0	33072	32454	
2035	0	33280	32522	
2036	0	33144	32574	
2037	0	33344	32594	
2038	0	32644	32668	
2039	0	32482	32602	
2040	0	32436	32439	
2041	0	32746	32380	
2042	0	32878	32232	
2043	0	33008	31672	
2044	0	32444	31586	
2045	0	32358	31863	
2046	0	32396	32342	
2047	0	32892	32712	
2048	0	32848	32565	
2049	0	32780	32556	
2050	0	33082	32665	
2051	0	32176	33110	
2052	0	32404	33084	
2053	0	32760	33146	
2054	0	32972	33596	
2055	0	32792	33626	
2056	0	32828	33438	
2057	0	32828	33440	
2058	0	32600	33620	
2059	0	32808	33636	
2060	0	33076	33614	
2061	0	32880	33502	
2062	0	32596	33398	
2063	0	32794	33285	
2064	0	33125	33287	
2065	0	33114	32988	
2066	0	32632	32902	
2067	0	32528	32612	
2068	0	32700	32024	
2069	0	32784	31941	
2070	0	32996	31810	
2071	0	32818	31994	
2072	0	32900	31884	
2073	0	33294	31970	
2074	0	33112	32174	
2075	0	33146	32346	
2076	0	32976	32636	
2077	0	33148	32388	
2078	0	32492	32040	
2079	0	31748	31736	
2080	0	32444	31566	
2081	0	32938	31964	
2082	0	32728	32406	
2083	0	32692	33012	
2084	0	32928	33188	
2085	0	32972	33527	
2086	0	33104	33900	
2087	0	33116	34196	
2088	0	32288	34200	
2089	0	32316	34257	
2090	0	32888	33758	
2091	0	33130	33298	
2092	0	33404	32519	
2093	0	33578	31906	
2094	0	33698	31696	
2095	0	33324	31632	
2096	0	31892	31814	
2097	0	31998	32167	
2098	0	32924	32232	
2099	0	32074	32572	
2100	0	32056	32890	
2101	0	32742	32416	
2102	0	33136	32486	
2103	0	32832	32660	
2104	0	32076	33144	
2105	0	31598	33457	
2106	0	32308	33758	
2107	0	32716	33834	
2108	0	32824	33596	
2109	0	32876	33688	
2110	0	32972	33655	
2111	0	33096	33258	
2112	0	33272	33089	
2113	0	32960	32970	
2114	0	33090	32770	
2115	0	32966	32644	
2116	0	33306	32407	
2117	0	33076	32308	
2118	0	33312	31332	
2119	0	33608	30824	
2120	0	33512	30946	
2121	0	32974	31342	
2122	0	32788	31751	
2123	0	32470	31826	
2124	0	32540	32372	
2125	0	32440	32766	
2126	0	32216	33130	
2127	0	32276	33732	
2128	0	32794	33774	
2129	0	32520	33734	
2130	0	32298	33592	
2131	0	33024	33606	
2132	0	33396	33750	
2133	0	32256	33466	
2134	0	32536	33012	
2135	0	33474	32726	
2136	0	33154	32364	
2137	0	33056	32624	
2138	0	32960	32751	
2139	0	32816	32692	
2140	0	32512	32878	
2141	0	32320	32740	
2142	0	32606	32880	
2143	0	33032	32772	
2144	0	32996	32704	
2145	0	32552	32678	
2146	0	32424	32775	
2147	0	33078	32785	
2148	0	33200	32672	
2149	0	32620	32506	
2150	0	32416	32276	
2151	0	33084	32198	
2152	0	32868	32360	
2153	0	32764	32588	
2154	0	32942	32568	
2155	0	32724	32567	
2156	0	32836	32492	
2157	0	33041	32350	
2158	0	32912	32260	
2159	0	33217	32540	
2160	0	33698	32672	
2161	0	32656	32984	
2162	0	32308	32862	
2163	0	32508	32942	
2164	0	32513	33268	
2165	0	32428	33820	
2166	0	32544	34206	
2167	0	32601	33688	
2168	0	32696	33142	
2169	0	33090	32618	
2170	0	33072	32628	
2171	0	33104	32688	
2172	0	33176	32402	
2173	0	33152	32014	
2174	0	32960	32238	
2175	0	32596	32138	
2176	0	32168	32218	
2177	0	32796	32622	
2178	0	32404	32928	
2179	0	31424	32896	
2180	0	32054	33102	
2181	0	33624	33130	
2182	0	33554	33218	
2183	0	32718	32775	
2184	0	32448	32815	
2185	0	32456	32568	
2186	0	33304	32624	
2187	0	33000	32696	
2188	0	33348	32866	
2189	0	33680	32967	
2190	0	32988	32708	
2191	0	32304	32494	
2192	0	32158	32502	
2193	0	32748	32640	
2194	0	32630	32470	
2195	0	32604	32824	
2196	0	32510	32688	
2197	0	32968	32390	
2198	0	33216	32327	
2199	0	32422	32263	
2200	0	32626	32148	
2201	0	33452	32054	
2202	0	33112	32244	
2203	0	32900	32236	
2204	0	32844	32526	
2205	0	32680	32391	
2206	0	32976	32078	
2207	0	32282	32234	
2208	0	32468	32636	
2209	0	32612	32752	
2210	0	32710	33026	
2211	0	32670	33354	
2212	0	33158	33554	
2213	0	32778	33904	
2214	0	32896	34480	
2215	0	32842	34934	
2216	0	32732	34946	
2217	0	32852	34992	
2218	0	32994	34663	
2219	0	32934	34212	
2220	0	32508	33760	
2221	0	32856	33192	
2222	0	32816	32482	
2223	0	32978	32112	
2224	0	33652	31959	
2225	0	33290	31084	
2226	0	33260	30600	
2227	0	33520	29516	
2228	0	32428	29320	
2229	0	32108	30288	
2230	0	31896	31592	
2231	0	31518	32614	
2232	0	32008	32948	
2233	0	32688	33746	
2234	0	32730	34340	
2235	0	32696	34598	
2236	0	32663	34744	
2237	0	32792	34682	
2238	0	33304	34310	
2239	0	33368	34075	
2240	0	33052	33470	
2241	0	33012	33012	
2242	0	32892	32465	
2243	0	32780	32124	
2244	0	32608	31930	
2245	0	32492	31636	
2246	0	33032	31383	
2247	0	33064	31460	
2248	0	33344	31634	
2249	0	32794	31698	
2250	0	32996	32034	
2251	0	32800	32284	
2252	0	32874	32183	
2253	0	32444	32354	
2254	0	32536	32208	
2255	0	32862	32160	
2256	0	32240	32080	
2257	0	32620	31716	
2258	0	32620	31804	
2259	0	32702	32208	
2260	0	33112	32680	
2261	0	32736	33278	
2262	0	32446	33986	
2263	0	32796	34354	
2264	0	33124	34166	
2265	0	33556	34124	
2266	0	32848	33768	
2267	0	33056	33383	
2268	0	32546	32980	
2269	0	32978	32708	
2270	0	33242	32534	
2271	0	32704	32354	
2272	0	32360	32007	
2273	0	32856	32124	
2274	0	32384	32002	
2275	0	31844	31936	
2276	0	32808	32345	
2277	0	33508	32260	
2278	0	33312	31998	
2279	0	32540	31944	
2280	0	32452	32178	
2281	0	33044	32400	
2282	0	32908	32714	
2283	0	32648	33044	
2284	0	32510	32604	
2285	0	32656	32390	
2286	0	32542	32364	
2287	0	32592	32746	
2288	0	32720	33254	
2289	0	33001	33744	
2290	0	32924	34142	
2291	0	32764	34257	
2292	0	33380	34240	
2293	0	32886	33914	
2294	0	32597	33712	
2295	0	33148	33370	
2296	0	33538	32750	
2297	0	32424	32465	
2298	0	33148	32278	
2299	0	33262	31852	
2300	0	33128	32030	
2301	0	31148	31948	
2302	0	32752	31878	
2303	0	33630	31942	
2304	0	33542	32488	
2305	0	32519	32937	
2306	0	31512	32824	
2307	0	32000	33246	
2308	0	32740	33340	
2309	0	32484	33728	
2310	0	32552	33900	
2311	0	32906	34004	
2312	0	32928	33813	
2313	0	32222	33822	
2314	0	32740	33788	
2315	0	32874	33519	
2316	0	33024	33270	
2317	0	33132	32734	
2318	0	33136	32568	
2319	0	33098	32263	
2320	0	33042	32212	
2321	0	32932	32142	
2322	0	32836	32152	
2323	0	32786	32058	
2324	0	32874	31894	
2325	0	33072	31590	
2326	0	32708	31642	
2327	0	32976	31792	
2328	0	33152	31733	
2329	0	32424	32000	
2330	0	33046	32368	
2331	0	33668	32364	
2332	0	32756	32278	
2333	0	31972	32340	
2334	0	32272	32180	
2335	0	32624	32050	
2336	0	32380	32078	
2337	0	32676	32256	
2338	0	32560	32704	
2339	0	32624	33236	
2340	0	32900	33950	
2341	0	33844	34298	
2342	0	33502	34404	
2343	0	31910	34104	
2344	0	32320	33376	
2345	0	32810	33287	
2346	0	33052	33194	
2347	0	32990	33412	
2348	0	32344	33478	
2349	0	32266	33354	
2350	0	32452	33368	
2351	0	32576	33134	
2352	0	32828	33130	
2353	0	32812	33013	
2354	0	32936	32958	
2355	0	32952	32876	
2356	0	32960	32730	
2357	0	32902	32718	
2358	0	32970	32532	
2359	0	33040	32076	
2360	0	32960	31488	
2361	0	33152	31078	
2362	0	33334	30788	
2363	0	33120	30756	
2364	0	32936	31540	
2365	0	33136	32020	
2366	0	31912	32294	
2367	0	31966	33100	
2368	0	32530	33754	
2369	0	32680	34212	
2370	0	32672	34470	
2371	0	32372	34599	
2372	0	32632	34439	
2373	0	32968	34515	
2374	0	33038	34214	
2375	0	32610	33530	
2376	0	33168	32994	
2377	0	33524	32716	
2378	0	32806	32218	
2379	0	32844	31740	
2380	0	33034	31400	
2381	0	33466	31495	
2382	0	32898	31372	
2383	0	32584	31316	
2384	0	32828	31336	
2385	0	33122	31160	
2386	0	32324	31508	
2387	0	32282	31796	
2388	0	32874	31970	
2389	0	32620	32516	
2390	0	32228	32414	
2391	0	32536	32638	
2392	0	33484	32746	
2393	0	31816	32678	
2394	0	32332	32902	
2395	0	32572	33361	
2396	0	32608	33553	
2397	0	32834	33766	
2398	0	33280	33650	
2399	0	33264	33682	
2400	0	32858	33406	
2401	0	32676	33039	
2402	0	32872	32582	
2403	0	32856	32572	
2404	0	33590	32496	
2405	0	33542	32774	
2406	0	32366	32902	
2407	0	32204	32976	
2408	0	32344	32764	
2409	0	32898	32560	
2410	0	32622	32442	
2411	0	32978	32750	
2412	0	33040	32716	
2413	0	32884	32618	
2414	0	32736	32658	
2415	0	32708	32774	
2416	0	32734	32607	
2417	0	33328	33048	
2418	0	33012	33398	
2419	0	32476	33604	
2420	0	32364	33679	
2421	0	32700	33775	
2422	0	32988	33416	
2423	0	33190	33338	
2424	0	32792	33244	
2425	0	33342	32657	
2426	0	33100	32436	
2427	0	32908	32580	
2428	0	32728	32444	
2429	0	32656	32496	
2430	0	32384	32492	
2431	0	32284	32370	
2432	0	32726	32216	
2433	0	33252	32372	
2434	0	33024	32538	
2435	0	33056	32510	
2436	0	32544	32382	
2437	0	32304	32446	
2438	0	32504	32352	
2439	0	32254	32224	
2440	0	32668	32414	
2441	0	33189	32772	
2442	0	32660	32888	
2443	0	32924	32900	
2444	0	33613	33140	
2445	0	33008	32956	
2446	0	33060	32500	
2447	0	33236	32320	
2448	0	32346	32056	
2449	0	31704	31908	
2450	0	31300	32022	
2451	0	33096	32498	
2452	0	32828	33252	
2453	0	33004	33887	
2454	0	32716	34154	
2455	0	32528	34336	
2456	0	32676	34248	
2457	0	32768	33914	
2458	0	32524	33508	
2459	0	32862	33178	
2460	0	32634	32922	
2461	0	32548	32502	
2462	0	33124	32052	
2463	0	32672	31576	
2464	0	32808	31238	
2465	0	33012	31392	
2466	0	32928	31099	
2467	0	33636	30828	
2468	0	33752	30692	
2469	0	32716	31044	
2470	0	33116	32396	
2471	0	33234	33364	
2472	0	33124	34458	
2473	0	32696	35250	
2474	0	32498	35620	
2475	0	32952	35861	
2476	0	33272	35618	
2477	0	32944	35223	
2478	0	33050	34228	
2479	0	32792	33776	
2480	0	33280	33180	
2481	0	32656	32338	
2482	0	32876	31972	
2483	0	33092	31622	
2484	0	32808	31312	
2485	0	32516	31404	
2486	0	32556	31456	
2487	0	32624	31566	
2488	0	32940	31768	
2489	0	32504	31882	
2490	0	32552	31932	
2491	0	32578	32030	
2492	0	32736	32007	
2493	0	32742	31766	
2494	0	33002	32036	
2495	0	32252	32236	
2496	0	33592	32135	
2497	0	32580	32588	
2498	0	32408	32815	
2499	0	33108	32432	
2500	0	33040	32090	
2501	0	32904	31936	
2502	0	32592	32006	
2503	0	32916	32584	
2504	0	32048	33382	
2505	0	31792	34176	
2506	0	32154	34338	
2507	0	32908	34358	
2508	0	33200	34414	
2509	0	33108	34190	
2510	0	32829	34004	
2511	0	33012	33620	
2512	0	32794	33176	
2513	0	32944	32974	
2514	0	33124	32807	
2515	0	33008	32644	
2516	0	32756	32246	
2517	0	32770	32230	
2518	0	32796	32231	
2519	0	32900	32096	
2520	0	32854	32261	
2521	0	32710	32306	
2522	0	32750	32228	
2523	0	32762	32222	
2524	0	32688	32192	
2525	0	32760	32150	
2526	0	32816	32436	
2527	0	32848	32216	
2528	0	32900	32286	
2529	0	32296	32412	
2530	0	32576	32590	
2531	0	32572	32878	
2532	0	32852	32988	
2533	0	32932	32646	
2534	0	33444	32440	
2535	0	33396	32282	
2536	0	32379	32486	
2537	0	33056	32496	
2538	0	32736	32600	
2539	0	32356	32982	
2540	0	32618	33530	
2541	0	32860	33890	
2542	0	32896	34022	
2543	0	32568	34110	
2544	0	33123	33924	
2545	0	33082	33718	
2546	0	32798	33264	
2547	0	33017	32438	
2548	0	32888	32005	
2549	0	32713	31882	
2550	0	32476	32134	
2551	0	32930	32620	
2552	0	32528	33048	
2553	0	32452	33108	
2554	0	32192	33313	
2555	0	32686	33302	
2556	0	32704	33227	
2557	0	32628	33119	
2558	0	32680	32940	
2559	0	32878	32800	
2560	0	32932	32710	
2561	0	32904	32592	
2562	0	32870	32588	
2563	0	33484	32512	
2564	0	33200	32518	
2565	0	32916	32286	
2566	0	33176	32004	
2567	0	32997	31880	
2568	0	33064	32048	
2569	0	32646	31854	
2570	0	32428	31751	
2571	0	32692	32052	
2572	0	32912	31740	
2573	0	32704	31686	
2574	0	32650	32294	
2575	0	32468	32308	
2576	0	32340	32680	
2577	0	32800	33242	
2578	0	32436	33831	
2579	0	32414	34908	
2580	0	32802	35140	
2581	0	32860	35252	
2582	0	33092	35092	
2583	0	33216	34608	
2584	0	33020	33962	
2585	0	33252	33348	
2586	0	33036	32884	
2587	0	33056	32404	
2588	0	32970	32032	
2589	0	33270	31844	
2590	0	32864	31840	
2591	0	32628	31840	
2592	0	32490	31986	
2593	0	32782	31908	
2594	0	32392	31921	
2595	0	32324	31996	
2596	0	32508	32048	
2597	0	32930	31828	
2598	0	32748	31644	
2599	0	32426	31908	
2600	0	33036	32070	
2601	0	32644	31984	
2602	0	32792	32467	
2603	0	32684	32567	
2604	0	33024	32996	
2605	0	33090	33200	
2606	0	32668	33696	
2607	0	32732	34044	
2608	0	32902	34152	
2609	0	32908	34006	
2610	0	32980	33585	
2611	0	33240	33460	
2612	0	32904	33107	
2613	0	32788	32600	
2614	0	32958	32583	
2615	0	32896	32412	
2616	0	32607	32308	
2617	0	32600	32327	
2618	0	33016	32346	
2619	0	32796	32380	
2620	0	32298	32460	
2621	0	32540	32206	
2622	0	32800	32373	
2623	0	33680	32326	
2624	0	33168	32372	
2625	0	32492	32636	
2626	0	32356	32614	
2627	0	32276	32599	
2628	0	32548	32888	
2629	0	32926	32796	
2630	0	32849	32999	
2631	0	32672	33124	
2632	0	33024	33078	
2633	0	33036	33044	
2634	0	32954	32978	
2635	0	32546	33030	
2636	0	32584	32856	
2637	0	33132	32398	
2638	0	32778	32454	
2639	0	32458	32470	
2640	0	32676	32708	
2641	0	32824	32960	
2642	0	32886	33076	
2643	0	33080	33236	
2644	0	32965	33378	
2645	0	33116	33230	
2646	0	33258	33116	
2647	0	33056	32964	
2648	0	32828	32775	
2649	0	32658	32394	
2650	0	33280	32088	
2651	0	32900	32172	
2652	0	32516	32154	
2653	0	32768	31998	
2654	0	32816	31782	
2655	0	32426	31672	
2656	0	31910	31367	
2657	0	32560	31420	
2658	0	32644	32191	
2659	0	32940	32904	
2660	0	32798	33346	
2661	0	32532	33816	
2662	0	32600	34368	
2663	0	32500	34734	
2664	0	33296	34736	
2665	0	32796	34639	
2666	0	32752	33929	
2667	0	32776	33724	
2668	0	33036	33598	
2669	0	33054	33221	
2670	0	33100	32942	
2671	0	33094	32984	
2672	0	33242	32718	
2673	0	33200	32564	
2674	0	33304	32312	
2675	0	32948	32327	
2676	0	32484	32176	
2677	0	32596	32046	
2678	0	32570	32234	
2679	0	32660	32096	
2680	0	32540	32014	
2681	0	32392	32038	
2682	0	32904	31891	
2683	0	32860	31654	
2684	0	32648	31962	
2685	0	32660	32148	
2686	0	32800	32516	
2687	0	32728	32820	
2688	0	32510	32756	
2689	0	32728	32896	
2690	0	32714	33196	
2691	0	33006	33268	
2692	0	33150	33370	
2693	0	32808	33377	
2694	0	32916	33090	
2695	0	32920	33063	
2696	0	32976	32903	
2697	0	32840	32692	
2698	0	32838	32712	
2699	0	32990	32772	
2700	0	33044	32654	
2701	0	32768	32744	
2702	0	32674	32834	
2703	0	32602	32804	
2704	0	32700	32742	
2705	0	33064	32774	
2706	0	32960	32631	
2707	0	32792	32540	
2708	0	32857	32618	
2709	0	32950	32548	
2710	0	32896	32700	
2711	0	32820	32628	
2712	0	32804	32766	
2713	0	33092	32775	
2714	0	32584	32652	
2715	0	32790	32622	
2716	0	32618	32256	
2717	0	32920	32420	
2718	0	32772	32554	
2719	0	32758	32793	
2720	0	32698	33190	
2721	0	32696	33482	
2722	0	32880	33608	
2723	0	32688	33653	
2724	0	32728	33628	
2725	0	32780	33188	
2726	0	32900	33016	
2727	0	32708	32859	
2728	0	32788	32679	
2729	0	33030	32510	
2730	0	32826	32500	
2731	0	33044	32574	
2732	0	33064	32598	
2733	0	32980	32500	
2734	0	33224	32490	
2735	0	32788	32389	
2736	0	32460	32391	
2737	0	32580	32372	
2738	0	32550	32280	
2739	0	32708	32004	
2740	0	32788	31620	
2741	0	32564	31598	
2742	0	32804	31924	
2743	0	32992	32552	
2744	0	32512	32864	
2745	0	33184	33272	
2746	0	32804	33604	
2747	0	32516	33784	
2748	0	32632	34120	
2749	0	32608	34030	
2750	0	32704	34078	
2751	0	32888	33836	
2752	0	32908	33594	
2753	0	33040	33455	
2754	0	33024	33028	
2755	0	32984	32564	
2756	0	33036	32540	
2757	0	33130	32272	
2758	0	33038	32337	
2759	0	32848	32346	
2760	0	32784	32286	
2761	0	32790	32249	
2762	0	32574	32304	
2763	0	32608	32255	
2764	0	32580	32396	
2765	0	32528	32420	
2766	0	32794	32476	
2767	0	32460	32432	
2768	0	32854	32356	
2769	0	32746	32116	
2770	0	32888	32023	
2771	0	32874	32190	
2772	0	32632	32396	
2773	0	33054	32714	
2774	0	32660	33018	
2775	0	32714	33230	
2776	0	32864	33224	
2777	0	32998	33458	
2778	0	32716	33426	
2779	0	32692	33536	
2780	0	33090	33445	
2781	0	32994	33192	
2782	0	32760	33092	
2783	0	32788	32794	
2784	0	32810	32770	
2785	0	33088	32618	
2786	0	32940	32486	
2787	0	32884	32686	
2788	0	32820	32622	
2789	0	32984	32423	
2790	0	32568	32558	
2791	0	32866	32566	
2792	0	32714	32497	
2793	0	32508	32600	
2794	0	32540	32432	
2795	0	32724	32433	
2796	0	32892	32519	
2797	0	33352	32532	
2798	0	32536	32412	
2799	0	32658	32090	
2800	0	32814	32076	
2801	0	32968	32246	
2802	0	32830	32679	
2803	0	32996	33026	
2804	0	32764	33376	
2805	0	32712	33758	
2806	0	32900	33512	
2807	0	32710	33340	
2808	0	32680	33216	
2809	0	32960	32974	
2810	0	32940	33046	
2811	0	32672	32826	
2812	0	32972	32650	
2813	0	32990	32655	
2814	0	32902	32900	
2815	0	32764	32764	
2816	0	32592	33004	
2817	0	32962	32913	
2818	0	32672	32998	
2819	0	32700	32930	
2820	0	32830	32558	
2821	0	32864	32674	
2822	0	32846	32500	
2823	0	32662	32328	
2824	0	32756	32391	
2825	0	32838	32479	
2826	0	32760	32300	
2827	0	32784	32519	
2828	0	32842	32590	
2829	0	32832	32638	
2830	0	32764	32826	
2831	0	32810	32998	
2832	0	32718	32834	
2833	0	32784	32844	
2834	0	32932	32740	
2835	0	32832	32796	
2836	0	32736	32575	
2837	0	32716	32528	
2838	0	32852	32646	
2839	0	32944	32834	
2840	0	32710	32803	
2841	0	32876	32824	
2842	0	32848	32922	
2843	0	32994	32911	
2844	0	32992	32955	
2845	0	32630	32766	
2846	0	32740	32828	
2847	0	32916	32775	
2848	0	32804	32860	
2849	0	32646	32928	
2850	0	32824	32926	
2851	0	32960	32886	
2852	0	32960	32972	
2853	0	32860	32774	
2854	0	32748	32742	
2855	0	32858	32560	
2856	0	32700	32602	
2857	0	32721	32567	
2858	0	32738	32610	
2859	0	32740	32610	
2860	0	32800	32548	
2861	0	32794	32743	
2862	0	32792	32834	
2863	0	32894	32936	
2864	0	32728	32855	
2865	0	32602	32634	
2866	0	32804	32602	
2867	0	32940	32470	
2868	0	32648	32575	
2869	0	32928	32542	
2870	0	32748	32433	
2871	0	32864	32300	
2872	0	32860	32646	
2873	0	32804	32880	
2874	0	32948	33120	
2875	0	32948	33332	
2876	0	32920	33342	
2877	0	32898	33404	
2878	0	32884	33575	
2879	0	33010	33204	
2880	0	32988	32988	
2881	0	32868	33064	
2882	0	32880	32598	
2883	0	32828	32385	
2884	0	32738	32227	
2885	0	32528	32282	
2886	0	32500	32354	
2887	0	32560	32348	
2888	0	32628	32567	
2889	0	32732	32676	
2890	0	32748	32865	
2891	0	32700	33012	
2892	0	32808	32894	
2893	0	32850	32756	
2894	0	32782	32879	
2895	0	32760	32828	
2896	0	32690	32792	
2897	0	32824	32734	
2898	0	32920	32512	
2899	0	32804	32484	
2900	0	32838	32644	
2901	0	32848	32834	
2902	0	32914	32852	
2903	0	32840	32980	
2904	0	33024	33070	
2905	0	33000	32888	
2906	0	32958	32934	
2907	0	32940	32903	
2908	0	33020	32810	
2909	0	32944	32672	
2910	0	32948	32710	
2911	0	32956	32727	
2912	0	32756	32528	
2913	0	32904	32519	
2914	0	32508	32647	
2915	0	32602	32466	
2916	0	32816	32546	
2917	0	32720	32604	
2918	0	32588	32518	
2919	0	32732	32646	
2920	0	32596	32551	
2921	0	32720	32614	
2922	0	32645	32732	
2923	0	32872	32836	
2924	0	33140	32928	
2925	0	32832	33077	
2926	0	32836	33052	
2927	0	32900	33110	
2928	0	32934	32958	
2929	0	32842	32890	
2930	0	32876	32888	
2931	0	32864	32724	
2932	0	32810	32668	
2933	0	32786	32844	
2934	0	32824	32682	
2935	0	32748	32830	
2936	0	32750	32730	
2937	0	32838	32692	
2938	0	32844	32820	
2939	0	32782	32620	
2940	0	32796	32608	
2941	0	32822	32700	
2942	0	32780	32672	
2943	0	32816	32598	
2944	0	32848	32796	
2945	0	32900	32847	
2946	0	32816	32704	
2947	0	32788	32775	
2948	0	32813	32834	
2949	0	32672	32757	
2950	0	32954	32686	
2951	0	32688	32609	
2952	0	32674	32823	
2953	0	32752	32658	
2954	0	32822	32718	
2955	0	32768	32764	
2956	0	32848	32752	
2957	0	32852	32720	
2958	0	32890	32738	
2959	0	32868	32578	
2960	0	32828	32848	
2961	0	32784	32932	
2962	0	32730	32952	
2963	0	32866	33096	
2964	0	32882	33098	
2965	0	32768	33092	
2966	0	32880	32834	
2967	0	32926	32812	
2968	0	32874	32903	
2969	0	32896	32831	
2970	0	32884	32734	
2971	0	32836	32700	
2972	0	32720	32708	
2973	0	32704	32703	
2974	0	32672	32552	
2975	0	32687	32679	
2976	0	32694	32672	
2977	0	32684	32550	
2978	0	32700	32431	
2979	0	32908	32458	
2980	0	32746	32496	
2981	0	32780	32482	
2982	0	32796	32750	
2983	0	32804	32903	
2984	0	32908	32849	
2985	0	32924	32884	
2986	0	32828	32885	
2987	0	32946	32714	
2988	0	32882	32870	
2989	0	32828	32720	
2990	0	32768	32633	
2991	0	32780	32932	
2992	0	32778	32954	
2993	0	32798	32978	
2994	0	32926	33304	
2995	0	32988	33180	
2996	0	32804	33028	
2997	0	32748	32918	
2998	0	32824	32615	
2999	0	32856	32636	
3000	0	32748	32500	
3001	0	32886	32526	
3002	0	32858	32654	
3003	0	32872	32574	
3004	0	32858	32676	
3005	0	32876	32654	
3006	0	32878	32672	
3007	0	32816	32687	
3008	0	32712	32764	
3009	0	32750	32597	
3010	0	32736	32816	
3011	0	32754	32848	
3012	0	32728	32705	
3013	0	32752	32880	
3014	0	32774	32806	
3015	0	32856	32644	
3016	0	32786	32774	
3017	0	32704	32801	
3018	0	32706	32733	
3019	0	32780	32788	
3020	0	32884	32768	
3021	0	32812	32696	
3022	0	32848	32759	
3023	0	32892	32812	
3024	0	32824	32706	
3025	0	32840	32682	
3026	0	32784	32676	
3027	0	32836	32684	
3028	0	32830	32522	
3029	0	32756	32660	
3030	0	32752	32775	
3031	0	32776	32764	
3032	0	32812	32754	
3033	0	32892	32740	
3034	0	32908	32870	
3035	0	32838	32878	
3036	0	32806	33031	
3037	0	32852	33071	
3038	0	32816	32868	
3039	0	32740	33052	
3040	0	32790	33073	
3041	0	32754	33098	
3042	0	32728	33146	
3043	0	32816	32958	
3044	0	32922	32798	
3045	0	32840	32944	
3046	0	32848	32741	
3047	0	32866	32578	
3048	0	32772	32540	
3049	0	32812	32574	
3050	0	32872	32542	
3051	0	32774	32418	
3052	0	32804	32412	
3053	0	32719	32396	
3054	0	32784	32334	
3055	0	32816	32529	
3056	0	32774	32470	
3057	0	32580	32567	
3058	0	32780	32636	
3059	0	32690	32742	
3060	0	32884	32840	
3061	0	32764	32864	
3062	0	32784	33174	
3063	0	32764	33159	
3064	0	32748	33070	
3065	0	32828	33194	
3066	0	32848	33198	
3067	0	32852	32879	
3068	0	32824	33060	
3069	0	32884	32903	
3070	0	32894	32704	
3071	0	32974	32706	
3072	0	32956	32638	
3073	0	32960	32576	
3074	0	32864	32634	
3075	0	32784	32604	
3076	0	32868	32680	
3077	0	32736	32588	
3078	0	32596	32550	
3079	0	32612	32668	
3080	0	32672	32775	
3081	0	32624	32730	
3082	0	32754	32860	
3083	0	32776	32820	
3084	0	32796	32596	
3085	0	32832	32616	
3086	0	32840	32506	
3087	0	32802	32550	
3088	0	32834	32532	
3089	0	32828	32775	
3090	0	32904	32788	
3091	0	32824	32743	
3092	0	32872	32859	
3093	0	32880	32790	
3094	0	32872	32878	
3095	0	32870	32922	
3096	0	32904	32946	
3097	0	32815	33140	
3098	0	32950	33188	
3099	0	32968	33194	
3100	0	32972	33166	
3101	0	32932	32880	
3102	0	32876	32818	
3103	0	32800	32862	
3104	0	32756	32822	
3105	0	32692	32608	
3106	0	32692	32568	
3107	0	32708	32604	
3108	0	32744	32494	
3109	0	32750	32668	
3110	0	32744	32582	
3111	0	32728	32748	
3112	0	32716	32710	
3113	0	32652	32652	
3114	0	32756	32686	
3115	0	32778	32578	
3116	0	32760	32674	
3117	0	32766	32716	
3118	0	32798	32528	
3119	0	32752	32510	
3120	0	32822	32743	
3121	0	32804	32775	
3122	0	32868	32762	
3123	0	32760	32834	
3124	0	32874	32944	
3125	0	32896	32974	
3126	0	32868	32806	
3127	0	32922	32922	
3128	0	32904	32871	
3129	0	32904	32799	
3130	0	32980	32892	
3131	0	33012	32824	
3132	0	32980	32956	
3133	0	32880	32887	
3134	0	32912	32746	
3135	0	32766	32700	
3136	0	32660	32690	
3137	0	32608	32836	
3138	0	32576	32647	
3139	0	32702	32616	
3140	0	32576	32697	
3141	0	32632	32668	
3142	0	32672	32578	
3143	0	32812	32839	
3144	0	32796	32660	
3145	0	32816	32444	
3146	0	33000	32470	
3147	0	32804	32588	
3148	0	32870	32586	
3149	0	32898	32762	
3150	0	32896	32775	
3151	0	32860	32674	
3152	0	32824	32738	
3153	0	32852	33056	
3154	0	32936	33130	
3155	0	32864	33110	
3156	0	32880	33322	
3157	0	32740	33342	
3158	0	32776	33252	
3159	0	32804	32974	
3160	0	32874	32967	
3161	0	32820	32753	
3162	0	32780	32666	
3163	0	32794	32576	
3164	0	32736	32388	
3165	0	32732	32444	
3166	0	32672	32638	
3167	0	32656	32551	
3168	0	32734	32619	
3169	0	32720	32590	
3170	0	32708	32623	
3171	0	32622	32551	
3172	0	32600	32556	
3173	0	32652	32631	
3174	0	32676	32588	
3175	0	32670	32468	
3176	0	32686	32615	
3177	0	32764	32568	
3178	0	32812	32496	
3179	0	32672	32583	
3180	0	32660	32519	
3181	0	32592	32542	
3182	0	32746	32622	
3183	0	32732	32724	
3184	0	32780	32999	
3185	0	32834	33188	
3186	0	32785	33188	
3187	0	32888	33310	
3188	0	32874	33284	
3189	0	32892	33220	
3190	0	33148	33254	
3191	0	33306	33207	
3192	0	33260	33004	
3193	0	33400	33089	
3194	0	33392	32842	
3195	0	33384	32892	
3196	0	33128	32871	
3197	0	33196	32836	
3198	0	33224	32690	
3199	0	33144	32647	
3200	0	32986	32732	
3201	0	32932	32630	
3202	0	32890	32679	
3203	0	32856	32564	
3204	0	32745	32586	
3205	0	32684	32559	
3206	0	32592	32678	
3207	0	32488	32567	
3208	0	32480	32564	
3209	0	32592	32706	
3210	0	32584	32606	
3211	0	32604	32519	
3212	0	32664	32540	
3213	0	32820	32536	
3214	0	32664	32422	
3215	0	32690	32672	
3216	0	32676	32775	
3217	0	32724	32772	
3218	0	32646	32866	
3219	0	32641	32919	
3220	0	32776	33146	
3221	0	32748	33079	
3222	0	32756	33130	
3223	0	32798	32999	
3224	0	32856	32922	
3225	0	32760	32852	
3226	0	32876	32804	
3227	0	32820	32919	
3228	0	32806	32808	
3229	0	32824	32804	
3230	0	32886	32544	
3231	0	32876	32745	
3232	0	32876	32665	
3233	0	32860	32663	
3234	0	32774	32628	
3235	0	32748	32703	
3236	0	32852	32688	
3237	0	32764	32480	
3238	0	32736	32511	
3239	0	32772	32444	
3240	0	32812	32468	
3241	0	32834	32775	
3242	0	32804	32806	
3243	0	32748	32819	
3244	0	32865	32570	
3245	0	32778	32864	
3246	0	32864	32932	
3247	0	32884	33015	
3248	0	32808	32916	
3249	0	32804	32940	
3250	0	32832	32866	
3251	0	32888	32940	
3252	0	32772	32700	
3253	0	32792	32736	
3254	0	32784	32692	
3255	0	32804	32596	
3256	0	32820	32961	
3257	0	32776	32881	
3258	0	32816	32790	
3259	0	32808	32648	
3260	0	32836	32806	
3261	0	32848	32823	
3262	0	32816	32839	
3263	0	32752	32855	
3264	0	32760	32910	
3265	0	32876	32967	
3266	0	32808	33014	
3267	0	32864	32724	
3268	0	32804	32750	
3269	0	32800	32710	
3270	0	32762	32716	
3271	0	32794	32662	
3272	0	32782	32677	
3273	0	32778	32567	
3274	0	32818	32588	
3275	0	32808	32458	
3276	0	32692	32487	
3277	0	32808	32462	
3278	0	32912	32502	
3279	0	32888	32504	
3280	0	32842	32638	
3281	0	32826	32806	
3282	0	32774	32802	
3283	0	32738	32884	
3284	0	32764	33000	
3285	0	32836	33184	
3286	0	32848	33046	
3287	0	32804	33110	
3288	0	32712	33076	
3289	0	32748	33020	
3290	0	32810	32924	
3291	0	32852	32934	
3292	0	32828	32806	
3293	0	32824	32880	
3294	0	32864	32644	
3295	0	32838	32708	
3296	0	32864	32680	
3297	0	32724	32698	
3298	0	32740	32646	
3299	0	32840	32788	
3300	0	32786	32643	
3301	0	32858	32732	
3302	0	32752	32550	
3303	0	32790	32608	
3304	0	32794	32640	
3305	0	32784	32630	
3306	0	32840	32740	
3307	0	32860	32666	
3308	0	32858	32628	
3309	0	32868	32606	
3310	0	32800	32716	
3311	0	32748	32724	
3312	0	32754	32816	
3313	0	32748	32718	
3314	0	32710	32812	
3315	0	32768	32875	
3316	0	32790	32891	
3317	0	32760	32852	
3318	0	32872	32828	
3319	0	32913	32784	
3320	0	32917	32850	
3321	0	32910	32772	
3322	0	32846	32928	
3323	0	32740	32900	
3324	0	32836	32834	
3325	0	32812	32764	
3326	0	32800	32818	
3327	0	32852	32884	
3328	0	32886	32700	
3329	0	32832	32612	
3330	0	32748	32756	
3331	0	32704	32646	
3332	0	32824	32534	
3333	0	32824	32614	
3334	0	32778	32574	
3335	0	32862	32588	
3336	0	32704	32734	
3337	0	32772	32632	
3338	0	32896	32500	
3339	0	32792	32810	
3340	0	33056	32588	
3341	0	32852	32622	
3342	0	32756	32609	
3343	0	32876	32658	
3344	0	32872	32758	
3345	0	32902	32796	
3346	0	32616	32864	
3347	0	32776	32900	
3348	0	32724	32958	
3349	0	32830	33020	
3350	0	32894	32924	
3351	0	32784	33122	
3352	0	32852	33031	
3353	0	32874	33260	
3354	0	32796	33172	
3355	0	32758	33104	
3356	0	32854	33090	
3357	0	32792	32990	
3358	0	32802	32942	
3359	0	32852	32825	
3360	0	32860	32656	
3361	0	32846	32650	
3362	0	32880	32586	
3363	0	32872	32454	
3364	0	32788	32446	
3365	0	32864	32576	
3366	0	32756	32614	
3367	0	32720	32551	
3368	0	32760	32591	
3369	0	32724	32656	
3370	0	32830	32567	
3371	0	32764	32680	
3372	0	32780	32596	
3373	0	32856	32664	
3374	0	32904	32726	
3375	0	32772	32732	
3376	0	32858	32712	
3377	0	32820	32510	
3378	0	32824	32632	
3379	0	32820	32722	
3380	0	32794	32872	
3381	0	32864	32711	
3382	0	32752	32798	
3383	0	32804	32868	
3384	0	32914	32818	
3385	0	32864	32802	
3386	0	32948	32992	
3387	0	32892	33008	
3388	0	32832	32940	
3389	0	32808	32932	
3390	0	32844	32844	
3391	0	32822	32782	
3392	0	32720	32724	
3393	0	32880	32751	
3394	0	32834	32716	
3395	0	32848	32583	
3396	0	32784	32666	
3397	0	32790	32532	
3398	0	32816	32636	
3399	0	32800	32617	
3400	0	32804	32740	
3401	0	32798	32804	
3402	0	32780	32568	
3403	0	32836	32724	
3404	0	32756	32750	
3405	0	32764	32949	
3406	0	32880	33058	
3407	0	32784	33176	
3408	0	32828	33016	
3409	0	32776	32936	
3410	0	32808	32951	
3411	0	32832	32912	
3412	0	32852	32830	
3413	0	32844	32902	
3414	0	32848	32868	
3415	0	32832	32775	
3416	0	32874	32711	
3417	0	32872	32774	
3418	0	32792	32768	
3419	0	32852	32620	
3420	0	32870	32724	
3421	0	32976	32746	
3422	0	32932	32542	
3423	0	32912	32719	
3424	0	32866	32775	
3425	0	32686	32654	
3426	0	32646	32775	
3427	0	32620	32810	
3428	0	32684	32632	
3429	0	32650	32799	
3430	0	32668	32652	
3431	0	32640	32656	
3432	0	32796	32644	
3433	0	32804	32652	
3434	0	32888	32602	
3435	0	32996	32428	
3436	0	32896	32519	
3437	0	32772	32574	
3438	0	32904	32828	
3439	0	32754	32998	
3440	0	32836	32989	
3441	0	32820	32960	
3442	0	32900	33095	
3443	0	32836	32880	
3444	0	32820	32885	
3445	0	32788	33127	
3446	0	32898	33064	
3447	0	32896	33004	
3448	0	32868	32808	
3449	0	32796	32822	
3450	0	32864	32762	
3451	0	32780	32820	
3452	0	32816	32906	
3453	0	32744	32825	
3454	0	32772	32804	
3455	0	32828	32640	
3456	0	32836	32678	
3457	0	32862	32692	
3458	0	32830	32678	
3459	0	32774	32558	
3460	0	32864	32766	
3461	0	32734	32708	
3462	0	32772	32687	
3463	0	32856	32674	
3464	0	32852	32730	
3465	0	32808	32447	
3466	0	32844	32145	
3467	0	32902	32388	
3468	0	32708	32344	
3469	0	32784	32386	
3470	0	32788	32660	
3471	0	32820	33094	
3472	0	32716	33148	
3473	0	32832	33156	
3474	0	32820	33186	
3475	0	32776	33148	
3476	0	32846	33098	
3477	0	32842	33110	
3478	0	32852	33082	
3479	0	32808	33174	
3480	0	32808	32826	
3481	0	32804	32728	
3482	0	32794	32645	
3483	0	32780	32622	
3484	0	32841	32614	
3485	0	32808	32736	
3486	0	32810	32818	
3487	0	32812	32647	
3488	0	32828	32758	
3489	0	32820	32764	
3490	0	32822	32854	
3491	0	32832	32640	
3492	0	32824	32790	
3493	0	32782	32688	
3494	0	32858	32638	
3495	0	32880	32462	
3496	0	32840	32652	
3497	0	32802	32775	
3498	0	32808	32744	
3499	0	32814	32606	
3500	0	32896	32700	
3501	0	32776	32742	
3502	0	32776	32570	
3503	0	32684	32375	
3504	0	32896	32322	
3505	0	33002	32519	
3506	0	32780	32540	
3507	0	32936	32856	
3508	0	32752	32884	
3509	0	32724	33156	
3510	0	32820	33100	
3511	0	32900	33228	
3512	0	32788	33150	
3513	0	32800	33031	
3514	0	32788	33030	
3515	0	32802	32954	
3516	0	32776	32934	
3517	0	32728	32794	
3518	0	32784	32708	
3519	0	32824	32704	
3520	0	32848	32647	
3521	0	32766	32712	
3522	0	32784	32712	
3523	0	32848	32654	
3524	0	32828	32583	
3525	0	32782	32743	
3526	0	32796	32702	
3527	0	32838	32698	
3528	0	32872	32610	
3529	0	32760	32580	
3530	0	32780	32672	
3531	0	32792	32556	
3532	0	32772	32598	
3533	0	32788	32636	
3534	0	32682	32519	
3535	0	32912	32628	
3536	0	32868	32700	
3537	0	32850	32740	
3538	0	32876	32682	
3539	0	32766	32796	
3540	0	32834	32734	
3541	0	32800	32912	
3542	0	32744	32839	
3543	0	32800	33023	
3544	0	32664	32984	
3545	0	32588	32996	
3546	0	32796	33110	
3547	0	32805	32988	
3548	0	32776	32988	
3549	0	32800	32832	
3550	0	32762	32684	
3551	0	32752	32686	
3552	0	32778	32686	
3553	0	32821	32740	
3554	0	32838	32702	
3555	0	32798	32652	
3556	0	32812	32692	
3557	0	32876	32712	
3558	0	32792	32704	
3559	0	32836	32724	
3560	0	32856	32742	
3561	0	32844	32665	
3562	0	32828	32774	
3563	0	32846	32729	
3564	0	32741	32744	
3565	0	32892	32820	
3566	0	32916	32712	
3567	0	32900	32599	
3568	0	32726	32826	
3569	0	32800	32712	
3570	0	32775	32689	
3571	0	32806	32647	
3572	0	32984	32570	
3573	0	32938	32538	
3574	0	32832	32452	
3575	0	32864	32436	
3576	0	32804	32676	
3577	0	32724	32820	
3578	0	32780	33078	
3579	0	32776	32964	
3580	0	32772	33031	
3581	0	32878	33140	
3582	0	32818	33074	
3583	0	32728	33164	
3584	0	32780	33149	
3585	0	32732	32950	
3586	0	32808	32934	
3587	0	32826	32806	
3588	0	32798	32758	
3589	0	32840	32748	
3590	0	32808	32656	
3591	0	32830	32664	
3592	0	32860	32764	
3593	0	32788	32688	
3594	0	32796	32724	
3595	0	32776	32654	
3596	0	32798	32586	
3597	0	32732	32664	
3598	0	32776	32728	
3599	0	32774	32548	
3600	0	32818	32640	
3601	0	32960	32682	
3602	0	32820	32714	
3603	0	32920	32590	
3604	0	32668	32638	
3605	0	32772	32558	
3606	0	32752	32519	
3607	0	32700	32711	
3608	0	32722	32822	
3609	0	32764	32999	
3610	0	32802	33127	
3611	0	32832	32990	
3612	0	32820	32995	
3613	0	32932	32951	
3614	0	32844	32967	
3615	0	32864	32874	
3616	0	32836	32775	
3617	0	32876	32834	
3618	0	32822	32820	
3619	0	32938	32620	
3620	0	32840	32694	
3621	0	32888	32710	
3622	0	32790	32772	
3623	0	32872	32710	
3624	0	32812	32620	
3625	0	32720	32818	
3626	0	32696	32736	
3627	0	32760	32660	
3628	0	32786	32772	
3629	0	32872	32762	
3630	0	32756	32655	
3631	0	32708	32704	
3632	0	32788	32551	
3633	0	32800	32400	
3634	0	32832	32503	
3635	0	32792	32684	
3636	0	32840	32732	
3637	0	32810	32921	
3638	0	33022	32804	
3639	0	32780	32464	
3640	0	32872	32610	
3641	0	32802	32740	
3642	0	32752	32750	
3643	0	32788	33036	
3644	0	32816	33286	
3645	0	32858	33102	
3646	0	32826	33028	
3647	0	32810	33184	
3648	0	32820	33176	
3649	0	32868	33223	
3650	0	32808	33116	
3651	0	32802	32999	
3652	0	32844	32775	
3653	0	32844	32820	
3654	0	32776	32702	
3655	0	32854	32624	
3656	0	32832	32476	
3657	0	32836	32484	
3658	0	32760	32416	
3659	0	32900	32580	
3660	0	32788	32540	
3661	0	32760	32618	
3662	0	32800	32686	
3663	0	32856	32608	
3664	0	32806	32708	
3665	0	32820	32754	
3666	0	32792	32756	
3667	0	32812	32647	
3668	0	32814	32775	
3669	0	32860	32775	
3670	0	32828	32602	
3671	0	32852	32720	
3672	0	32912	32674	
3673	0	32764	32683	
3674	0	32816	32721	
3675	0	32792	32742	
3676	0	32744	32760	
3677	0	32814	32812	
3678	0	32832	32775	
3679	0	32806	32910	
3680	0	32816	32775	
3681	0	32840	32775	
3682	0	32824	32798	
3683	0	32855	32825	
3684	0	32744	32812	
3685	0	32842	32766	
3686	0	32782	32830	
3687	0	32860	32794	
3688	0	32800	32814	
3689	0	32846	32770	
3690	0	32776	32820	
3691	0	32840	32760	
3692	0	32888	32736	
3693	0	32822	32872	
3694	0	32750	32804	
3695	0	32836	32738	
3696	0	32816	32830	
3697	0	32764	32734	
3698	0	32824	32618	
3699	0	32804	32674	
3700	0	32832	32764	
3701	0	32864	32836	
3702	0	32788	32748	
3703	0	32772	32752	
3704	0	32768	32798	
3705	0	32794	32822	
3706	0	32820	32738	
3707	0	32834	32644	
3708	0	32778	32697	
3709	0	32740	32754	
3710	0	32824	32686	
3711	0	32862	32740	
3712	0	32828	32842	
3713	0	32852	32775	
3714	0	32784	32868	
3715	0	32820	32900	
3716	0	32804	32761	
3717	0	32926	32852	
3718	0	32888	32826	
3719	0	32828	32808	
3720	0	32868	32771	
3721	0	32810	32814	
3722	0	32820	32775	
3723	0	32832	32794	
3724	0	32818	32671	
3725	0	32789	32802	
3726	0	32736	32729	
3727	0	32753	32766	
3728	0	32852	32646	
3729	0	32864	32766	
3730	0	32820	32644	
3731	0	32834	32720	
3732	0	32752	32703	
3733	0	32852	32679	
3734	0	32822	32792	
3735	0	32780	32775	
3736	0	32774	32678	
3737	0	32872	32786	
3738	0	32834	32716	
3739	0	32848	32725	
3740	0	32828	32714	
3741	0	32820	32628	
3742	0	32798	32832	
3743	0	32880	32812	
3744	0	32876	32774	
3745	0	32869	32856	
3746	0	32934	32726	
3747	0	32820	32850	
3748	0	32808	32696	
3749	0	32770	32770	
3750	0	32736	32855	
3751	0	32752	32711	
3752	0	32720	32832	
3753	0	32656	32796	
3754	0	32736	32698	
3755	0	32682	32826	
3756	0	32676	32766	
3757	0	32728	32696	
3758	0	32740	32817	
3759	0	32792	32828	
3760	0	32812	32678	
3761	0	32872	32916	
3762	0	32872	32880	
3763	0	32816	32710	
3764	0	32864	32832	
3765	0	32872	32774	
3766	0	32852	32770	
3767	0	32896	32757	
3768	0	32804	32754	
3769	0	32810	32839	
3770	0	32876	32715	
3771	0	32872	32866	
3772	0	32884	32775	
3773	0	32844	32662	
3774	0	32824	32807	
3775	0	32814	32810	
3776	0	32825	32756	
3777	0	32780	32775	
3778	0	32726	32837	
3779	0	32788	32680	
3780	0	32844	32814	
3781	0	32852	32740	
3782	0	32800	32838	
3783	0	32756	32716	
3784	0	32780	32804	
3785	0	32816	32752	
3786	0	32800	32732	
3787	0	32788	32714	
3788	0	32854	32840	
3789	0	32826	32775	
3790	0	32766	32754	
3791	0	32792	32814	
3792	0	32782	32766	
3793	0	32794	32858	
3794	0	32832	32724	
3795	0	32796	32744	
3796	0	32756	32716	
3797	0	32788	32816	
3798	0	32812	32775	
3799	0	32776	32792	
3800	0	32824	32823	
3801	0	32842	32693	
3802	0	32846	32722	
3803	0	32734	32812	
3804	0	32824	32812	
3805	0	32856	32793	
3806	0	32854	32710	
3807	0	32836	32734	
3808	0	32816	32788	
3809	0	32776	32704	
3810	0	32838	32804	
3811	0	32800	32848	
3812	0	32828	32775	
3813	0	32844	32716	
3814	0	32768	32820	
3815	0	32824	32788	
3816	0	32770	32804	
3817	0	32760	32742	
3818	0	32910	32792	
3819	0	32876	32788	
3820	0	32820	32710	
3821	0	32824	32700	
3822	0	32832	32774	
3823	0	32752	32784	
3824	0	32768	32668	
3825	0	32806	32820	
3826	0	32784	32836	
3827	0	32834	32774	
3828	0	32822	32810	
3829	0	32814	32736	
3830	0	32784	32732	
3831	0	32778	32820	
3832	0	32812	32695	
3833	0	32800	32642	
3834	0	32844	32760	
3835	0	32788	32738	
3836	0	32844	32768	
3837	0	32852	32767	
3838	0	32760	32836	
3839	0	32774	32822	
3840	0	32748	32708	
3841	0	32764	32734	
3842	0	32783	32790	
3843	0	32886	32632	
3844	0	32768	32816	
3845	0	32776	32775	
3846	0	32764	32655	
3847	0	32884	32842	
3848	0	32812	32725	
3849	0	32785	32775	
3850	0	32775	32750	
3851	0	32952	32746	
3852	0	32872	32789	
3853	0	32844	32840	
3854	0	32816	32786	
3855	0	32808	32828	
3856	0	32788	32712	
3857	0	32852	32824	
3858	0	32836	32750	
3859	0	32780	32748	
3860	0	32864	32796	
3861	0	32814	32836	
3862	0	32820	32740	
3863	0	32804	32838	
3864	0	32806	32865	
3865	0	32711	32784	
3866	0	32756	32775	
3867	0	32826	32788	
3868	0	32796	32714	
3869	0	32740	32846	
3870	0	32760	32724	
3871	0	32768	32702	
3872	0	32804	32742	
3873	0	32720	32730	
3874	0	32754	32592	
3875	0	32732	32728	
3876	0	32724	32706	
3877	0	32744	32659	
3878	0	32712	32775	
3879	0	32716	32710	
3880	0	32680	32590	
3881	0	32736	32656	
3882	0	32688	32736	
3883	0	32668	32724	
3884	0	32696	32714	
3885	0	32572	32760	
3886	0	32492	32870	
3887	0	32660	32647	
3888	0	32644	32714	
3889	0	32692	32827	
3890	0	32694	32790	
3891	0	32676	32834	
3892	0	32660	32694	
3893	0	32628	32714	
3894	0	32724	32836	
3895	0	32736	32692	
3896	0	32692	32775	
3897	0	32860	32785	
3898	0	32948	32798	
3899	0	33044	32966	
3900	0	33198	32888	
3901	0	33372	33080	
3902	0	33336	32986	
3903	0	33362	33014	
3904	0	33476	32836	
3905	0	33378	32910	
3906	0	33286	32854	
3907	0	33185	32790	
3908	0	33248	32808	
3909	0	33144	32775	
3910	0	33066	32606	
3911	0	32982	32678	
3912	0	32928	32647	
3913	0	32822	32806	
3914	0	32656	32724	
3915	0	32652	32686	
3916	0	32522	32774	
3917	0	32528	32702	
3918	0	32602	32720	
3919	0	32584	32756	
3920	0	32586	32682	
3921	0	32673	32636	
3922	0	32652	32542	
3923	0	32586	32636	
3924	0	32662	32548	
3925	0	32692	32602	
3926	0	32678	32635	
3927	0	32722	32580	
3928	0	32764	32739	
3929	0	32744	32895	
3930	0	32744	32859	
3931	0	32768	32992	
3932	0	32756	32822	
3933	0	32792	32798	
3934	0	32804	32752	
3935	0	32832	32734	
3936	0	32842	32752	
3937	0	32880	32806	
3938	0	32816	32814	
3939	0	32856	32738	
3940	0	32832	32774	
3941	0	32740	32702	
3942	0	32780	32818	
3943	0	32716	32764	
3944	0	32776	32775	
3945	0	32768	32800	
3946	0	32834	32676	
3947	0	32696	32790	
3948	0	32836	32738	
3949	0	32836	32718	
3950	0	32808	32772	
3951	0	32872	32810	
3952	0	32800	32680	
3953	0	32818	32750	
3954	0	32814	32760	
3955	0	32788	32674	
3956	0	32804	32752	
3957	0	32808	32646	
3958	0	32832	32776	
3959	0	32764	32704	
3960	0	32796	32788	
3961	0	32844	32699	
3962	0	32794	32766	
3963	0	32802	32700	
3964	0	32828	32842	
3965	0	32828	32774	
3966	0	32864	32860	
3967	0	32772	32736	
3968	0	32804	32836	
3969	0	32784	32817	
3970	0	32828	32714	
3971	0	32844	32718	
3972	0	32776	32738	
3973	0	32820	32826	
3974	0	32820	32764	
3975	0	32718	32684	
3976	0	32812	32832	
3977	0	32832	32769	
3978	0	32810	32775	
3979	0	32842	32775	
3980	0	32768	32774	
3981	0	32754	32792	
3982	0	32792	32831	
3983	0	32764	32712	
3984	0	32818	32852	
3985	0	32820	32775	
3986	0	32868	32677	
3987	0	32780	32852	
3988	0	32782	32775	
3989	0	32786	32764	
3990	0	32772	32775	
3991	0	32780	32682	
3992	0	32830	32822	
3993	0	32856	32788	
3994	0	32836	32666	
3995	0	32830	32772	
3996	0	32858	32838	
3997	0	32802	32722	
3998	0	32792	32807	
3999	0	32798	32692	
4000	0	32746	32828	
4001	0	32860	32828	
4002	0	32886	32696	
4003	0	32828	32758	
4004	0	32800	32682	
4005	0	32818	32742	
4006	0	32808	32790	
4007	0	32816	32775	
4008	0	32772	32828	
4009	0	32836	32647	
4010	0	32816	32790	
4011	0	32820	32793	
4012	0	32742	32647	
4013	0	32876	32770	
4014	0	32814	32768	
4015	0	32840	32878	
4016	0	32760	32757	
4017	0	32816	32702	
4018	0	32808	32822	
4019	0	32786	32762	
4020	0	32778	32674	
4021	0	32776	32900	
4022	0	32839	32868	
4023	0	32824	32732	
4024	0	32764	32714	
4025	0	32844	32658	
4026	0	32858	32706	
4027	0	32824	32826	
4028	0	32768	32761	
4029	0	32776	32730	
4030	0	32844	32842	
4031	0	32818	32915	
4032	0	32782	32761	
4033	0	32822	32794	
4034	0	32848	32808	
4035	0	32804	32858	
4036	0	32792	32784	
4037	0	32844	32760	
4038	0	32800	32775	
4039	0	32768	32695	
4040	0	32846	32838	
4041	0	32794	32775	
4042	0	32874	32704	
4043	0	32768	32716	
4044	0	32814	32692	
4045	0	32826	32839	
4046	0	32792	32758	
4047	0	32764	32774	
4048	0	32848	32772	
4049	0	32802	32734	
4050	0	32762	32763	
4051	0	32766	32762	
4052	0	32800	32696	
4053	0	32806	32746	
4054	0	32820	32794	
4055	0	32852	32640	
4056	0	32816	32724	
4057	0	32812	32740	
4058	0	32784	32686	
4059	0	32816	32774	
4060	0	32802	32772	
4061	0	32832	32807	
4062	0	32770	32756	
4063	0	32772	32896	
4064	0	32864	32775	
4065	0	32832	32775	
4066	0	32808	32840	
4067	0	32864	32834	
4068	0	32830	32678	
4069	0	32812	32775	
4070	0	32768	32798	
4071	0	32860	32694	
4072	0	32736	32815	
4073	0	32828	32800	
4074	0	32844	32750	
4075	0	32776	32839	
4076	0	32778	32718	
4077	0	32796	32775	
4078	0	32856	32750	
4079	0	32816	32854	
4080	0	32836	32839	
4081	0	32796	32664	
4082	0	32848	32868	
4083	0	32856	32775	
4084	0	32838	32772	
4085	0	32778	32710	
4086	0	32868	32716	
4087	0	32842	32846	
4088	0	32812	32680	
4089	0	32746	32724	
4090	0	32780	32764	
4091	0	32764	32679	
4092	0	32800	32756	
4093	0	32808	32774	
4094	0	32836	32710	
4095	0	32752	32820	
4096	0	32904	32775	
4097	0	32852	32872	
4098	0	32836	32861	
4099	0	32764	32892	
4100	0	32732	32836	
4101	0	32804	32762	
4102	0	32836	32794	
4103	0	32810	32794	
4104	0	32808	32647	
4105	0	32774	32756	
4106	0	32784	32787	
4107	0	32800	32656	
4108	0	32772	32771	
4109	0	32818	32804	
4110	0	32824	32724	
4111	0	32808	32743	
4112	0	32775	32860	
4113	0	32822	32718	
4114	0	32772	32752	
4115	0	32886	32728	
4116	0	32792	32651	
4117	0	32816	32794	
4118	0	32808	32769	
4119	0	32788	32870	
4120	0	32846	32823	
4121	0	32776	32794	
4122	0	32820	32630	
4123	0	32844	32754	
4124	0	32800	32740	
4125	0	32898	32719	
4126	0	32876	32820	
4127	0	32772	32762	
4128	0	32826	32680	
4129	0	32848	32795	
4130	0	32804	32767	
4131	0	32854	32802	
4132	0	32800	32814	
4133	0	32758	32774	
4134	0	32839	32806	
4135	0	32852	32714	
4136	0	32864	32743	
4137	0	32820	32766	
4138	0	32856	32732	
4139	0	32876	32834	
4140	0	32836	32775	
4141	0	32852	32714	
4142	0	32812	32724	
4143	0	32748	32802	
4144	0	32808	32775	
4145	0	32720	32754	
4146	0	32776	32855	
4147	0	32744	32791	
4148	0	32836	32718	
4149	0	32852	32774	
4150	0	32766	32784	
4151	0	32848	32784	
4152	0	32844	32775	
4153	0	32748	32734	
4154	0	32842	32914	
4155	0	32828	32686	
4156	0	32854	32832	
4157	0	32818	32768	
4158	0	32820	32708	
4159	0	32840	32750	
4160	0	32820	32662	
4161	0	32810	32775	
4162	0	32898	32732	
4163	0	32840	32668	
4164	0	32832	32679	
4165	0	32824	32636	
4166	0	32778	32775	
4167	0	32728	32766	
4168	0	32764	32732	
4169	0	32820	32740	
4170	0	32732	32738	
4171	0	32862	32855	
4172	0	32820	32826	
4173	0	32904	32598	
4174	0	32848	32830	
4175	0	32740	32838	
4176	0	32816	32652	
4177	0	32804	32792	
4178	0	32752	32748	
4179	0	32816	32694	
4180	0	32834	32724	
4181	0	32778	32720	
4182	0	32816	32692	
4183	0	32770	32716	
4184	0	32796	32762	
4185	0	32786	32807	
4186	0	32808	32820	
4187	0	32816	32650	
4188	0	32832	32774	
4189	0	32844	32816	
4190	0	32762	32774	
4191	0	32764	32676	
4192	0	32768	32814	
4193	0	32860	32700	
4194	0	32788	32850	
4195	0	32880	32836	
4196	0	32844	32706	
4197	0	32792	32758	
4198	0	32862	32774	
4199	0	32888	32734	
4200	0	32812	32758	
4201	0	32880	32748	
4202	0	32832	32666	
4203	0	32752	32705	
4204	0	32780	32756	
4205	0	32824	32770	
4206	0	32812	32775	
4207	0	32834	32838	
4208	0	32836	32664	
4209	0	32872	32816	
4210	0	32749	32767	
4211	0	32836	32746	
4212	0	32780	32812	
4213	0	32898	32820	
4214	0	32808	32694	
4215	0	32780	32838	
4216	0	32828	32752	
4217	0	32816	32686	
4218	0	32796	32688	
4219	0	32804	32799	
4220	0	32784	32871	
4221	0	32824	32682	
4222	0	32916	32756	
4223	0	32784	32724	
4224	0	32776	32871	
4225	0	32824	32830	
4226	0	32798	32708	
4227	0	32792	32721	
4228	0	32804	32871	
4229	0	32693	32734	
4230	0	32762	32884	
4231	0	32756	32844	
4232	0	32832	32711	
4233	0	32812	32775	
4234	0	32824	32769	
4235	0	32872	32724	
4236	0	32878	32696	
4237	0	32816	32748	
4238	0	32804	32831	
4239	0	32780	32775	
4240	0	32800	32750	
4241	0	32846	32807	
4242	0	32924	32786	
4243	0	32772	32588	
4244	0	32768	32790	
4245	0	32892	32808	
4246	0	32800	32862	
4247	0	32740	32688	
4248	0	32826	32758	
4249	0	32784	32849	
4250	0	32817	32752	
4251	0	32800	32694	
4252	0	32772	32840	
4253	0	32784	32695	
4254	0	32820	32814	
4255	0	32858	32729	
4256	0	32792	32704	
4257	0	32872	32798	
4258	0	32842	32796	
4259	0	32788	32775	
4260	0	32774	32734	
4261	0	32760	32738	
4262	0	32784	32774	
4263	0	32754	32826	
4264	0	32888	32784	
4265	0	32832	32711	
4266	0	32756	32708	
4267	0	32832	32796	
4268	0	32808	32670	
4269	0	32826	32854	
4270	0	32792	32860	
4271	0	32772	32802	
4272	0	32884	32638	
4273	0	32824	32774	
4274	0	32804	32775	
4275	0	32820	32726	
4276	0	32848	32734	
4277	0	32830	32698	
4278	0	32828	32772	
4279	0	32836	32768	
4280	0	32760	32871	
4281	0	32808	32760	
4282	0	32756	32724	
4283	0	32780	32742	
4284	0	32856	32854	
4285	0	32820	32686	
4286	0	32804	32816	
4287	0	32792	32812	
4288	0	32804	32716	
4289	0	32798	32736	
4290	0	32752	32672	
4291	0	32824	32796	
4292	0	32800	32756	
4293	0	32804	32810	
4294	0	32832	32734	
4295	0	32828	32812	
4296	0	32768	32738	
4297	0	32852	32721	
4298	0	32752	32738	
4299	0	32790	32740	
4300	0	32824	32750	
4301	0	32832	32736	
4302	0	32778	32838	
4303	0	32848	32742	
4304	0	32840	32721	
4305	0	32796	32764	
4306	0	32846	32846	
4307	0	32872	32704	
4308	0	32764	32856	
4309	0	32784	32828	
4310	0	32884	32662	
4311	0	32850	32758	
4312	0	32884	32806	
4313	0	32784	32688	
4314	0	32868	32775	
4315	0	32778	32800	
4316	0	32840	32727	
4317	0	32776	32786	
4318	0	32792	32804	
4319	0	32796	32724	
4320	0	32858	32746	
4321	0	32828	32708	
4322	0	32848	32718	
4323	0	32820	32790	
4324	0	32800	32630	
4325	0	32836	32726	
4326	0	32760	32772	
4327	0	32770	32696	
4328	0	32840	32818	
4329	0	32836	32708	
4330	0	32894	32860	
4331	0	32794	32762	
4332	0	32786	32676	
4333	0	32760	32804	
4334	0	32812	32875	
4335	0	32818	32662	
4336	0	32816	32694	
4337	0	32786	32732	
4338	0	32772	32711	
4339	0	32788	32816	
4340	0	32804	32772	
4341	0	32756	32807	
4342	0	32812	32834	
4343	0	32794	32850	
4344	0	32840	32956	
4345	0	32770	32764	
4346	0	32764	32764	
4347	0	32846	32775	
4348	0	32772	32738	
4349	0	32840	32660	
4350	0	32804	32730	
4351	0	32814	32754	
4352	0	32855	32720	
4353	0	32844	32729	
4354	0	32816	32774	
4355	0	32826	32750	
4356	0	32814	32775	
4357	0	32808	32792	
4358	0	32780	32822	
4359	0	32741	32734	
4360	0	32740	32670	
4361	0	32850	32760	
4362	0	32824	32694	
4363	0	32824	32742	
4364	0	32769	32818	
4365	0	32814	32770	
4366	0	32786	32796	
4367	0	32808	32816	
4368	0	32808	32804	
4369	0	32846	32841	
4370	0	32845	32830	
4371	0	32796	32832	
4372	0	32794	32672	
4373	0	32810	32798	
4374	0	32860	32678	
4375	0	32876	32838	
4376	0	32776	32760	
4377	0	32852	32832	
4378	0	32764	32792	
4379	0	32804	32684	
4380	0	32798	32788	
4381	0	32792	32775	
4382	0	32880	32784	
4383	0	32768	32786	
4384	0	32758	32676	
4385	0	32752	32772	
4386	0	32864	32716	
4387	0	32842	32852	
4388	0	32806	32869	
4389	0	32814	32742	
4390	0	32876	32774	
4391	0	32856	32684	
4392	0	32842	32750	
4393	0	32784	32756	
4394	0	32832	32860	
4395	0	32766	32798	
4396	0	32744	32711	
4397	0	32868	32762	
4398	0	32822	32687	
4399	0	32824	32806	
4400	0	32760	32798	
4401	0	32752	32759	
4402	0	32858	32812	
4403	0	32856	32888	
4404	0	32820	32710	
4405	0	32836	32716	
4406	0	32772	32686	
4407	0	32800	32692	
4408	0	32816	32708	
4409	0	32854	32828	
4410	0	32752	32816	
4411	0	32836	32834	
4412	0	32828	32810	
4413	0	32780	32750	
4414	0	32880	32840	
4415	0	32864	32764	
4416	0	32848	32671	
4417	0	32772	32788	
4418	0	32804	32775	
4419	0	32828	32640	
4420	0	32794	32801	
4421	0	32788	32734	
4422	0	32810	32746	
4423	0	32832	32775	
4424	0	32862	32772	
4425	0	32844	32703	
4426	0	32844	32768	
4427	0	32820	32814	
4428	0	32866	32792	
4429	0	32876	32716	
4430	0	32898	32768	
4431	0	32872	32826	
4432	0	32788	32679	
4433	0	32754	32727	
4434	0	32808	32775	
4435	0	32810	32782	
4436	0	32792	32818	
4437	0	32816	32830	
4438	0	32808	32696	
4439	0	32836	32852	
4440	0	32806	32736	
4441	0	32852	32821	
4442	0	32776	32746	
4443	0	32808	32816	
4444	0	32724	32732	
4445	0	32784	32764	
4446	0	32774	32815	
4447	0	32876	32769	
4448	0	32858	32764	
4449	0	32876	32847	
4450	0	32840	32758	
4451	0	32772	32694	
4452	0	32824	32818	
4453	0	32740	32748	
4454	0	32824	32847	
4455	0	32856	32654	
4456	0	32766	32759	
4457	0	32828	32743	
4458	0	32846	32740	
4459	0	32784	32820	
4460	0	32816	32748	
4461	0	32828	32740	
4462	0	32836	32822	
4463	0	32752	32819	
4464	0	32828	32724	
4465	0	32772	32798	
4466	0	32762	32775	
4467	0	32744	32718	
4468	0	32848	32737	
4469	0	32836	32775	
4470	0	32804	32760	
4471	0	32896	32798	
4472	0	32870	32852	
4473	0	32820	32759	
4474	0	32872	32743	
4475	0	32798	32852	
4476	0	32796	32775	
4477	0	32772	32678	
4478	0	32820	32806	
4479	0	32772	32866	
4480	0	32808	32666	
4481	0	32826	32766	
4482	0	32880	32854	
4483	0	32816	32712	
4484	0	32780	32770	
4485	0	32810	32815	
4486	0	32758	32720	
4487	0	32867	32736	
4488	0	32896	32756	
4489	0	32844	32704	
4490	0	32772	32766	
4491	0	32808	32744	
4492	0	32768	32696	
4493	0	32842	32820	
4494	0	32752	32758	
4495	0	32844	32926	
4496	0	32884	32830	
4497	0	32836	32828	
4498	0	32800	32804	
4499	0	32744	32768	
4500	0	32842	32682	
4501	0	32742	32835	
4502	0	32836	32804	
4503	0	32744	32800	
4504	0	32820	32766	
4505	0	32806	32758	
4506	0	32808	32824	
4507	0	32817	32748	
4508	0	32824	32874	
4509	0	32832	32748	
4510	0	32778	32750	
4511	0	32796	32716	
4512	0	32784	32786	
4513	0	32846	32738	
4514	0	32820	32718	
4515	0	32852	32882	
4516	0	32876	32744	
4517	0	32842	32718	
4518	0	32748	32810	
4519	0	32856	32790	
4520	0	32812	32758	
4521	0	32792	32690	
4522	0	32792	32772	
4523	0	32792	32772	
4524	0	32772	32761	
4525	0	32808	32734	
4526	0	32876	32751	
4527	0	32788	32792	
4528	0	32828	32752	
4529	0	32788	32770	
4530	0	32788	32764	
4531	0	32810	32743	
4532	0	32814	32852	
4533	0	32844	32762	
4534	0	32722	32658	
4535	0	32900	32775	
4536	0	32840	32738	
4537	0	32788	32710	
4538	0	32826	32700	
4539	0	32784	32860	
4540	0	32798	32678	
4541	0	32838	32752	
4542	0	32828	32710	
4543	0	32740	32758	
4544	0	32808	32852	
4545	0	32860	32775	
4546	0	32800	32810	
4547	0	32858	32768	
4548	0	32824	32752	
4549	0	32860	32736	
4550	0	32822	32820	
4551	0	32772	32700	
4552	0	32816	32788	
4553	0	32768	32708	
4554	0	32816	32804	
4555	0	32764	32762	
4556	0	32832	32756	
4557	0	32728	32800	
4558	0	32770	32720	
4559	0	32834	32784	
4560	0	32860	32796	
4561	0	32748	32743	
4562	0	32788	32804	
4563	0	32740	32800	
4564	0	32838	32744	
4565	0	32808	32824	
4566	0	32808	32700	
4567	0	32888	32774	
4568	0	32806	32780	
4569	0	32740	32652	
4570	0	32760	32775	
4571	0	32784	32758	
4572	0	32876	32718	
4573	0	32864	32706	
4574	0	32812	32870	
4575	0	32824	32732	
4576	0	32881	32775	
4577	0	32830	32810	
4578	0	32812	32824	
4579	0	32808	32761	
4580	0	32832	32714	
4581	0	32826	32866	
4582	0	32828	32842	
4583	0	32804	32832	
4584	0	32740	32740	
4585	0	32736	32712	
4586	0	32776	32730	
4587	0	32732	32724	
4588	0	32720	32699	
4589	0	32718	32689	
4590	0	32712	32619	
4591	0	32782	32682	
4592	0	32736	32767	
4593	0	32716	32672	
4594	0	32740	32748	
4595	0	32750	32738	
4596	0	32778	32612	
4597	0	32760	32762	
4598	0	32756	32772	
4599	0	32752	32628	
4600	0	32719	32806	
4601	0	32652	32894	
4602	0	32624	32798	
4603	0	32598	32864	
4604	0	32581	32809	
4605	0	32606	32798	
4606	0	32702	32642	
4607	0	32668	32758	
4608	0	32674	32764	
4609	0	32672	32674	
4610	0	32678	32684	
4611	0	32686	32730	
4612	0	32724	32684	
4613	0	32746	32764	
4614	0	32768	32866	
4615	0	32996	32795	
4616	0	33184	32924	
4617	0	33228	33072	
4618	0	33268	33030	
4619	0	33376	33156	
4620	0	33344	32976	
4621	0	33360	32871	
4622	0	33272	32860	
4623	0	33154	32844	
4624	0	33240	32833	
4625	0	33210	32708	
4626	0	33182	32806	
4627	0	33110	32796	
4628	0	33052	32722	
4629	0	32970	32870	
4630	0	32880	32792	
4631	0	32748	32582	
4632	0	32628	32678	
4633	0	32652	32692	
4634	0	32552	32736	
4635	0	32570	32636	
4636	0	32580	32674	
4637	0	32588	32608	
4638	0	32570	32588	
4639	0	32604	32618	
4640	0	32582	32662	
4641	0	32612	32694	
4642	0	32614	32712	
4643	0	32684	32744	
4644	0	32724	32626	
4645	0	32718	32708	
4646	0	32766	32794	
4647	0	32820	32638	
4648	0	32736	32735	
4649	0	32804	32814	
4650	0	32738	32740	
4651	0	32752	32713	
4652	0	32808	32812	
4653	0	32844	32775	
4654	0	32852	32792	
4655	0	32874	32746	
4656	0	32808	32870	
4657	0	32812	32880	
4658	0	32866	32734	
4659	0	32804	32884	
4660	0	32842	32836	
4661	0	32820	32744	
4662	0	32788	32809	
4663	0	32788	32836	
4664	0	32768	32732	
4665	0	32852	32754	
4666	0	32884	32734	
4667	0	32822	32775	
4668	0	32804	32769	
4669	0	32776	32775	
4670	0	32734	32812	
4671	0	32864	32639	
4672	0	32788	32742	
4673	0	32804	32742	
4674	0	32816	32743	
4675	0	32798	32878	
4676	0	32794	32775	
4677	0	32780	32814	
4678	0	32768	32775	
4679	0	32820	32748	
4680	0	32864	32764	
4681	0	32852	32766	
4682	0	32788	32708	
4683	0	32790	32848	
4684	0	32760	32772	
4685	0	32856	32756	
4686	0	32852	32823	
4687	0	32736	32772	
4688	0	32808	32678	
4689	0	32802	32775	
4690	0	32824	32831	
4691	0	32800	32748	
4692	0	32820	32732	
4693	0	32840	32755	
4694	0	32784	32788	
4695	0	32862	32790	
4696	0	32862	32623	
4697	0	32820	32800	
4698	0	32778	32764	
4699	0	32788	32800	
4700	0	32808	32880	
4701	0	32820	32812	
4702	0	32764	32706	
4703	0	32764	32794	
4704	0	32824	32850	
4705	0	32756	32740	
4706	0	32814	32716	
4707	0	32820	32686	
4708	0	32866	32742	
4709	0	32848	32775	
4710	0	32748	32668	
4711	0	32812	32784	
4712	0	32876	32816	
4713	0	32830	32698	
4714	0	32820	32866	
4715	0	32782	32752	
4716	0	32754	32839	
4717	0	32822	32704	
4718	0	32816	32762	
4719	0	32820	32868	
4720	0	32816	32737	
4721	0	32800	32764	
4722	0	32838	32756	
4723	0	32770	32604	
4724	0	32808	32704	
4725	0	32820	32820	
4726	0	32844	32718	
4727	0	32798	32800	
4728	0	32757	32772	
4729	0	32810	32824	
4730	0	32808	32732	
4731	0	32874	32670	
4732	0	32818	32775	
4733	0	32874	32766	
4734	0	32792	32634	
4735	0	32832	32738	
4736	0	32808	32720	
4737	0	32784	32743	
4738	0	32816	32892	
4739	0	32826	32828	
4740	0	32798	32688	
4741	0	32800	32716	
4742	0	32788	32782	
4743	0	32836	32727	
4744	0	32808	32850	
4745	0	32778	32742	
4746	0	32780	32748	
4747	0	32842	32810	
4748	0	32846	32690	
4749	0	32816	32746	
4750	0	32736	32686	
4751	0	32808	32788	
4752	0	32800	32746	
4753	0	32876	32728	
4754	0	32802	32878	
4755	0	32744	32790	
4756	0	32888	32672	
4757	0	32788	32800	
4758	0	32712	32828	
4759	0	32869	32748	
4760	0	32832	32730	
4761	0	32760	32726	
4762	0	32772	32718	
4763	0	32764	32823	
4764	0	32864	32892	
4765	0	32788	32658	
4766	0	32792	32808	
4767	0	32892	32772	
4768	0	32796	32833	
4769	0	32808	32686	
4770	0	32832	32888	
4771	0	32826	32746	
4772	0	32760	32880	
4773	0	32833	32692	
4774	0	32782	32736	
4775	0	32872	32702	
4776	0	32810	32676	
4777	0	32804	32800	
4778	0	32894	32775	
4779	0	32772	32700	
4780	0	32780	32647	
4781	0	32792	32774	
4782	0	32792	32756	
4783	0	32788	32741	
4784	0	32772	32691	
4785	0	32836	32788	
4786	0	32864	32807	
4787	0	32856	32728	
4788	0	32816	32822	
4789	0	32794	32846	
4790	0	32776	32775	
4791	0	32832	32917	
4792	0	32812	32774	
4793	0	32760	32750	
4794	0	32800	32746	
4795	0	32842	32762	
4796	0	32826	32798	
4797	0	32858	32657	
4798	0	32808	32690	
4799	0	32812	32791	
4800	0	32774	32816	
4801	0	32800	32700	
4802	0	32844	32775	
4803	0	32773	32743	
4804	0	32816	32740	
4805	0	32784	32772	
4806	0	32772	32784	
4807	0	32812	32786	
4808	0	32852	32729	
4809	0	32836	32796	
4810	0	32812	32818	
4811	0	32808	32722	
4812	0	32752	32766	
4813	0	32800	32775	
4814	0	32847	32667	
4815	0	32808	32852	
4816	0	32840	32824	
4817	0	32770	32644	
4818	0	32806	32750	
4819	0	32846	32804	
4820	0	32826	32866	
4821	0	32836	32824	
4822	0	32794	32704	
4823	0	32920	32760	
4824	0	32838	32760	
4825	0	32844	32662	
4826	0	32832	32720	
4827	0	32856	32743	
4828	0	32798	32798	
4829	0	32764	32852	
4830	0	32852	32716	
4831	0	32848	32827	
4832	0	32762	32913	
4833	0	32824	32756	
4834	0	32864	32710	
4835	0	32792	32793	
4836	0	32832	32832	
4837	0	32740	32754	
4838	0	32812	32742	
4839	0	32832	32894	
4840	0	32810	32800	
4841	0	32832	32702	
4842	0	32868	32820	
4843	0	32824	32772	
4844	0	32820	32660	
4845	0	32834	32806	
4846	0	32850	32834	
4847	0	32882	32682	
4848	0	32768	32735	
4849	0	32796	32798	
4850	0	32936	32791	
4851	0	32884	32804	
4852	0	32832	32866	
4853	0	32854	32764	
4854	0	32832	32812	
4855	0	32792	32802	
4856	0	32836	32678	
4857	0	32860	32775	
4858	0	32774	32790	
4859	0	32768	32692	
4860	0	32808	32799	
4861	0	32784	32732	
4862	0	32852	32694	
4863	0	32884	32868	
4864	0	32842	32775	
4865	0	32846	32802	
4866	0	32828	32768	
4867	0	32828	32790	
4868	0	32796	32730	
4869	0	32820	32700	
4870	0	32856	32666	
4871	0	32788	32832	
4872	0	32782	32858	
4873	0	32812	32670	
4874	0	32760	32808	
4875	0	32766	32818	
4876	0	32828	32686	
4877	0	32788	32724	
4878	0	32848	32842	
4879	0	32802	32768	
4880	0	32778	32748	
4881	0	32732	32702	
4882	0	32780	32664	
4883	0	32788	32748	
4884	0	32832	32792	
4885	0	32824	32724	
4886	0	32728	32830	
4887	0	32800	32888	
4888	0	32820	32734	
4889	0	32826	32722	
4890	0	32846	32756	
4891	0	32828	32863	
4892	0	32818	32719	
4893	0	32828	32789	
4894	0	32832	32719	
4895	0	32852	32885	
4896	0	32868	32788	
4897	0	32764	32818	
4898	0	32796	32864	
4899	0	32804	32704	
4900	0	32768	32740	
4901	0	32796	32792	
4902	0	32768	32700	
4903	0	32734	32784	
4904	0	32784	32708	
4905	0	32796	32618	
4906	0	32788	32802	
4907	0	32832	32738	
4908	0	32820	32752	
4909	0	32802	32727	
4910	0	32858	32726	
4911	0	32878	32722	
4912	0	32852	32700	
4913	0	32844	32809	
4914	0	32820	32702	
4915	0	32782	32762	
4916	0	32778	32704	
4917	0	32788	32798	
4918	0	32844	32806	
4919	0	32785	32768	
4920	0	32734	32730	
4921	0	32738	32806	
4922	0	32748	32698	
4923	0	32796	32703	
4924	0	32808	32764	
4925	0	32844	32792	
4926	0	32856	32775	
4927	0	32760	32820	
4928	0	32840	32863	
4929	0	32820	32708	
4930	0	32810	32888	
4931	0	32822	32716	
4932	0	32756	32743	
4933	0	32760	32698	
4934	0	32776	32762	
4935	0	32874	32774	
4936	0	32816	32676	
4937	0	32808	32710	
4938	0	32872	32647	
4939	0	32780	32860	
4940	0	32830	32796	
4941	0	32824	32644	
4942	0	32810	32804	
4943	0	32804	32640	
4944	0	32868	32720	
4945	0	32778	32647	
4946	0	32724	32698	
4947	0	32860	32838	
4948	0	32780	32903	
4949	0	32846	32788	
4950	0	32794	32782	
4951	0	32824	32788	
4952	0	32782	32806	
4953	0	32868	32704	
4954	0	32868	32806	
4955	0	32836	32790	
4956	0	32820	32839	
4957	0	32862	32674	
4958	0	32814	32862	
4959	0	32804	32790	
4960	0	32894	32704	
4961	0	32863	32842	
4962	0	32764	32810	
4963	0	32836	32711	
4964	0	32812	32800	
4965	0	32844	32751	
4966	0	32786	32814	
4967	0	32796	32652	
4968	0	32792	32744	
4969	0	32788	32860	
4970	0	32856	32684	
4971	0	32774	32750	
4972	0	32846	32738	
4973	0	32800	32698	
4974	0	32846	32758	
4975	0	32842	32756	
4976	0	32866	32684	
4977	0	32724	32852	
4978	0	32820	32743	
4979	0	32762	32775	
4980	0	32884	32764	
4981	0	32824	32844	
4982	0	32740	32817	
4983	0	32844	32747	
4984	0	32820	32842	
4985	0	32876	32808	
4986	0	32908	32711	
4987	0	32816	32720	
4988	0	32800	32772	
4989	0	32852	32732	
4990	0	32826	32805	
4991	0	32768	32668	
4992	0	32788	32751	
4993	0	32856	32678	
4994	0	32792	32796	
4995	0	32780	32720	
4996	0	32804	32657	
4997	0	32756	32862	
4998	0	32822	32732	
4999	0	32754	32790	
5000	0	32836	32808	
5001	0	32800	32727	
5002	0	32834	32800	
5003	0	32804	32721	
5004	0	32828	32676	
5005	0	32824	32718	
5006	0	32812	32748	
5007	0	32876	32784	
5008	0	32780	32750	
5009	0	32830	32802	
5010	0	32884	32764	
5011	0	32776	32730	
5012	0	32852	32700	
5013	0	32836	32782	
5014	0	32884	32760	
5015	0	32776	32764	
5016	0	32808	32788	
5017	0	32856	32866	
5018	0	32812	32858	
5019	0	32780	32775	
5020	0	32842	32736	
5021	0	32800	32804	
5022	0	32788	32678	
5023	0	32760	32726	
5024	0	32828	32726	
5025	0	32818	32844	
5026	0	32764	32722	
5027	0	32732	32804	
5028	0	32808	32708	
5029	0	32788	32742	
5030	0	32834	32839	
5031	0	32792	32679	
5032	0	32836	32764	
5033	0	32816	32748	
5034	0	32824	32694	
5035	0	32822	32752	
5036	0	32814	32768	
5037	0	32844	32696	
5038	0	32780	32790	
5039	0	32760	32882	
5040	0	32760	32850	
5041	0	32812	32736	
5042	0	32816	32752	
5043	0	32816	32790	
5044	0	32916	32775	
5045	0	32860	32662	
5046	0	32924	32773	
5047	0	32836	32772	
5048	0	32750	32680	
5049	0	32772	32802	
5050	0	32856	32638	
5051	0	32840	32820	
5052	0	32788	32832	
5053	0	32820	32632	
5054	0	32856	32708	
5055	0	32784	32646	
5056	0	32836	32864	
5057	0	32784	32894	
5058	0	32764	32798	
5059	0	32738	32834	
5060	0	32828	32764	
5061	0	32784	32799	
5062	0	32812	32786	
5063	0	32832	32698	
5064	0	32768	32839	
5065	0	32808	32752	
5066	0	32816	32718	
5067	0	32836	32806	
5068	0	32828	32716	
5069	0	32772	32583	
5070	0	32824	32768	
5071	0	32868	32863	
5072	0	32822	32674	
5073	0	32812	32794	
5074	0	32839	32876	
5075	0	32810	32756	
5076	0	32832	32807	
5077	0	32892	32826	
5078	0	32824	32662	
5079	0	32788	32901	
5080	0	32800	32734	
5081	0	32792	32636	
5082	0	32788	32724	
5083	0	32760	32775	
5084	0	32800	32718	
5085	0	32820	32804	
5086	0	32794	32782	
5087	0	32780	32684	
5088	0	32754	32836	
5089	0	32816	32746	
5090	0	32796	32708	
5091	0	32732	32802	
5092	0	32812	32714	
5093	0	32836	32615	
5094	0	32792	32732	
5095	0	32824	32830	
5096	0	32840	32804	
5097	0	32784	32830	
5098	0	32758	32758	
5099	0	32804	32856	
5100	0	32868	32802	
5101	0	32880	32799	
5102	0	32820	32775	
5103	0	32736	32733	
5104	0	32796	32822	
5105	0	32840	32735	
5106	0	32784	32866	
5107	0	32798	32834	
5108	0	32720	32682	
5109	0	32824	32791	
5110	0	32856	32804	
5111	0	32764	32746	
5112	0	32820	32775	
5113	0	32846	32738	
5114	0	32844	32836	
5115	0	32860	32718	
5116	0	32852	32804	
5117	0	32844	32711	
5118	0	32832	32682	
5119	0	32778	32800	
5120	0	32832	32722	
5121	0	32842	32760	
5122	0	32758	32714	
5123	0	32764	32810	
5124	0	32818	32775	
5125	0	32788	32876	
5126	0	32793	32754	
5127	0	32880	32668	
5128	0	32890	32710	
5129	0	32800	32806	
5130	0	32788	32726	
5131	0	32836	32800	
5132	0	32776	32770	
5133	0	32832	32682	
5134	0	32796	32756	
5135	0	32784	32743	
5136	0	32736	32887	
5137	0	32768	32842	
5138	0	32780	32645	
5139	0	32840	32956	
5140	0	32808	32842	
5141	0	32822	32766	
5142	0	32838	32676	
5143	0	32836	32638	
5144	0	32772	32775	
5145	0	32816	32806	
5146	0	32805	32744	
5147	0	32808	32810	
5148	0	32880	32756	
5149	0	32846	32788	
5150	0	32900	32846	
5151	0	32876	32722	
5152	0	32800	32690	
5153	0	32820	32834	
5154	0	32828	32828	
5155	0	32762	32663	
5156	0	32836	32836	
5157	0	32782	32739	
5158	0	32782	32775	
5159	0	32728	32692	
5160	0	32884	32716	
5161	0	32778	32770	
5162	0	32836	32720	
5163	0	32776	32726	
5164	0	32812	32820	
5165	0	32834	32734	
5166	0	32748	32900	
5167	0	32770	32712	
5168	0	32820	32708	
5169	0	32780	32728	
5170	0	32864	32716	
5171	0	32840	32770	
5172	0	32782	32772	
5173	0	32804	32732	
5174	0	32836	32805	
5175	0	32866	32686	
5176	0	32834	32774	
5177	0	32788	32770	
5178	0	32858	32726	
5179	0	32816	32762	
5180	0	32865	32752	
5181	0	32832	32860	
5182	0	32864	32814	
5183	0	32740	32732	
5184	0	32732	32790	
5185	0	32741	32718	
5186	0	32804	32839	
5187	0	32816	32774	
5188	0	32852	32812	
5189	0	32816	32721	
5190	0	32864	32689	
5191	0	32780	32743	
5192	0	32816	32714	
5193	0	32844	32871	
5194	0	32810	32775	
5195	0	32808	32812	
5196	0	32814	32804	
5197	0	32858	32746	
5198	0	32742	32770	
5199	0	32792	32772	
5200	0	32776	32756	
5201	0	32776	32800	
5202	0	32856	32710	
5203	0	32822	32732	
5204	0	32848	32828	
5205	0	32762	32720	
5206	0	32850	32710	
5207	0	32808	32799	
5208	0	32840	32768	
5209	0	32820	32740	
5210	0	32808	32804	
5211	0	32780	32744	
5212	0	32828	32796	
5213	0	32796	32742	
5214	0	32868	32832	
5215	0	32800	32871	
5216	0	32744	32892	
5217	0	32816	32836	
5218	0	32824	32684	
5219	0	32820	32878	
5220	0	32832	32802	
5221	0	32846	32714	
5222	0	32784	32730	
5223	0	32852	32804	
5224	0	32930	32848	
5225	0	32708	32737	
5226	0	32771	32774	
5227	0	32808	32794	
5228	0	32830	32710	
5229	0	32784	32760	
5230	0	32872	32762	
5231	0	32776	32798	
5232	0	32836	32663	
5233	0	32824	32775	
5234	0	32768	32743	
5235	0	32714	32794	
5236	0	32812	32784	
5237	0	32828	32702	
5238	0	32848	32830	
5239	0	32868	32768	
5240	0	32868	32644	
5241	0	32848	32836	
5242	0	32782	32789	
5243	0	32794	32743	
5244	0	32832	32660	
5245	0	32794	32808	
5246	0	32764	32816	
5247	0	32780	32693	
5248	0	32884	32766	
5249	0	32804	32816	
5250	0	32774	32856	
5251	0	32916	32814	
5252	0	32825	32688	
5253	0	32798	32808	
5254	0	32824	32830	
5255	0	32794	32663	
5256	0	32788	32916	
5257	0	32844	32717	
5258	0	32816	32806	
5259	0	32742	32686	
5260	0	32788	32788	
5261	0	32758	32756	
5262	0	32880	32724	
5263	0	32840	32702	
5264	0	32774	32820	
5265	0	32744	32624	
5266	0	32783	32770	
5267	0	32812	32756	
5268	0	32798	32758	
5269	0	32804	32736	
5270	0	32820	32686	
5271	0	32812	32782	
5272	0	32796	32739	
5273	0	32776	32711	
5274	0	32800	32840	
5275	0	32784	32876	
5276	0	32868	32731	
5277	0	32804	32839	
5278	0	32752	32804	
5279	0	32802	32764	
5280	0	32752	32739	
5281	0	32846	32769	
5282	0	32816	32798	
5283	0	32880	32804	
5284	0	32808	32718	
5285	0	32832	32719	
5286	0	32864	32816	
5287	0	32834	32674	
5288	0	32848	32737	
5289	0	32892	32841	
5290	0	32844	32614	
5291	0	32804	32634	
5292	0	32796	32798	
5293	0	32788	32796	
5294	0	32832	32775	
5295	0	32788	32696	
5296	0	32830	32750	
5297	0	32780	32714	
5298	0	32822	32793	
5299	0	32870	32828	
5300	0	32790	32758	
5301	0	32794	32816	
5302	0	32832	32744	
5303	0	32834	32806	
5304	0	32792	32775	
5305	0	32825	32714	
5306	0	32852	32823	
5307	0	32796	32784	
5308	0	32788	32831	
5309	0	32800	32740	
5310	0	32816	32830	
5311	0	32780	32774	
5312	0	32782	32694	
5313	0	32772	32746	
5314	0	32818	32860	
5315	0	32832	32706	
5316	0	32794	32770	
5317	0	32804	32805	
5318	0	32832	32794	
5319	0	32806	32662	
5320	0	32816	32832	
5321	0	32760	32824	
5322	0	32868	32878	
5323	0	32884	32868	
5324	0	32876	32734	
5325	0	32887	32774	
5326	0	32840	32846	
5327	0	32746	32702	
5328	0	32836	32738	
5329	0	32788	32720	
5330	0	32744	32612	
5331	0	32796	32714	
5332	0	32684	32702	
5333	0	32748	32796	
5334	0	32698	32679	
5335	0	32708	32660	
5336	0	32728	32746	
5337	0	32676	32596	
5338	0	32748	32748	
5339	0	32756	32693	
5340	0	32740	32686	
5341	0	32716	32806	
5342	0	32710	32838	
5343	0	32772	32750	
5344	0	32710	32822	
5345	0	32626	32804	
5346	0	32608	32702	
5347	0	32628	32775	
5348	0	32666	32808	
5349	0	32680	32664	
5350	0	32648	32788	
5351	0	32660	32804	
5352	0	32700	32662	
5353	0	32696	32792	
5354	0	32710	32820	
5355	0	32694	32742	
5356	0	32872	32792	
5357	0	32970	32887	
5358	0	33024	32843	
5359	0	33170	33046	
5360	0	33294	33114	
5361	0	33314	32986	
5362	0	33304	33072	
5363	0	33294	33054	
5364	0	33326	32822	
5365	0	33210	32775	
5366	0	33168	32764	
5367	0	33246	32684	
5368	0	33200	32742	
5369	0	33144	32860	
5370	0	33004	32718	
5371	0	32902	32802	
5372	0	32888	32738	
5373	0	32688	32638	
5374	0	32696	32790	
5375	0	32618	32732	
5376	0	32648	32611	
5377	0	32616	32813	
5378	0	32544	32678	
5379	0	32642	32668	
5380	0	32554	32588	
5381	0	32540	32634	
5382	0	32612	32727	
5383	0	32578	32655	
5384	0	32693	32788	
5385	0	32548	32738	
5386	0	32670	32634	
5387	0	32700	32820	
5388	0	32752	32755	
5389	0	32730	32764	
5390	0	32812	32750	
5391	0	32807	32796	
5392	0	32858	32807	
5393	0	32782	32672	
5394	0	32814	32870	
5395	0	32822	32806	
5396	0	32860	32810	
5397	0	32766	32735	
5398	0	32824	32732	
5399	0	32800	32847	
5400	0	32830	32726	
5401	0	32833	32806	
5402	0	32816	32775	
5403	0	32828	32766	
5404	0	32876	32830	
5405	0	32756	32730	
5406	0	32808	32834	
5407	0	32888	32812	
5408	0	32800	32676	
5409	0	32776	32830	
5410	0	32846	32744	
5411	0	32728	32698	
5412	0	32806	32759	
5413	0	32844	32838	
5414	0	32856	32832	
5415	0	32800	32620	
5416	0	32804	32878	
5417	0	32780	32774	
5418	0	32816	32871	
5419	0	32804	32710	
5420	0	32806	32692	
5421	0	32776	32828	
5422	0	32796	32760	
5423	0	32832	32686	
5424	0	32816	32849	
5425	0	32814	32708	
5426	0	32828	32804	
5427	0	32816	32670	
5428	0	32816	32816	
5429	0	32828	32796	
5430	0	32796	32656	
5431	0	32884	32822	
5432	0	32900	32734	
5433	0	32774	32788	
5434	0	32840	32742	
5435	0	32778	32800	
5436	0	32796	32674	
5437	0	32780	32832	
5438	0	32832	32802	
5439	0	32860	32720	
5440	0	32726	32748	
5441	0	32800	32857	
5442	0	32756	32863	
5443	0	32775	32758	
5444	0	32798	32804	
5445	0	32788	32764	
5446	0	32828	32682	
5447	0	32812	32792	
5448	0	32804	32758	
5449	0	32874	32744	
5450	0	32860	32828	
5451	0	32812	32807	
5452	0	32804	32719	
5453	0	32864	32775	
5454	0	32800	32682	
5455	0	32824	32725	
5456	0	32780	32700	
5457	0	32800	32796	
5458	0	32776	32794	
5459	0	32848	32698	
5460	0	32848	32764	
5461	0	32784	32870	
5462	0	32756	32724	
5463	0	32744	32868	
5464	0	32764	32736	
5465	0	32792	32810	
5466	0	32756	32676	
5467	0	32768	32775	
5468	0	32804	32742	
5469	0	32772	32694	
5470	0	32784	32804	
5471	0	32882	32740	
5472	0	32860	32774	
5473	0	32834	32794	
5474	0	32816	32711	
5475	0	32844	32818	
5476	0	32834	32700	
5477	0	32760	32680	
5478	0	32832	32756	
5479	0	32820	32794	
5480	0	32866	32702	
5481	0	32836	32740	
5482	0	32800	32734	
5483	0	32832	32726	
5484	0	32750	32772	
5485	0	32818	32772	
5486	0	32860	32711	
5487	0	32804	32728	
5488	0	32832	32792	
5489	0	32764	32746	
5490	0	32742	32788	
5491	0	32746	32686	
5492	0	32868	32718	
5493	0	32831	32754	
5494	0	32792	32890	
5495	0	32840	32837	
5496	0	32752	32710	
5497	0	32836	32837	
5498	0	32788	32775	
5499	0	32836	32798	
5500	0	32860	32775	
5501	0	32868	32856	
5502	0	32756	32810	
5503	0	32804	32716	
5504	0	32754	32809	
5505	0	32812	32718	
5506	0	32856	32828	
5507	0	32820	32816	
5508	0	32792	32673	
5509	0	32836	32792	
5510	0	32740	32828	
5511	0	32736	32716	
5512	0	32828	32710	
5513	0	32764	32807	
5514	0	32766	32743	
5515	0	32850	32794	
5516	0	32836	32830	
5517	0	32762	32658	
5518	0	32780	32874	
5519	0	32774	32860	
5520	0	32848	32674	
5521	0	32866	32775	
5522	0	32794	32746	
5523	0	32838	32741	
5524	0	32764	32855	
5525	0	32864	32768	
5526	0	32808	32688	
5527	0	32896	32796	
5528	0	32796	32721	
5529	0	32808	32724	
5530	0	32868	32748	
5531	0	32760	32844	
5532	0	32764	32758	
5533	0	32892	32792	
5534	0	32788	32808	
5535	0	32786	32886	
5536	0	32782	32704	
5537	0	32832	32802	
5538	0	32858	32788	
5539	0	32796	32775	
5540	0	32788	32666	
5541	0	32800	32775	
5542	0	32853	32900	
5543	0	32812	32728	
5544	0	32832	32775	
5545	0	32848	32838	
5546	0	32766	32734	
5547	0	32796	32834	
5548	0	32804	32678	
5549	0	32800	32772	
5550	0	32820	32728	
5551	0	32736	32802	
5552	0	32818	32688	
5553	0	32840	32699	
5554	0	32836	32800	
5555	0	32798	32652	
5556	0	32842	32862	
5557	0	32762	32770	
5558	0	32800	32716	
5559	0	32776	32775	
5560	0	32856	32786	
5561	0	32852	32735	
5562	0	32768	32697	
5563	0	32796	32836	
5564	0	32744	32773	
5565	0	32874	32679	
5566	0	32816	32842	
5567	0	32780	32788	
5568	0	32781	32698	
5569	0	32908	32748	
5570	0	32848	32832	
5571	0	32764	32769	
5572	0	32792	32674	
5573	0	32823	32768	
5574	0	32804	32756	
5575	0	32832	32807	
5576	0	32816	32698	
5577	0	32866	32733	
5578	0	32808	32839	
5579	0	32820	32764	
5580	0	32752	32856	
5581	0	32842	32775	
5582	0	32840	32764	
5583	0	32884	32834	
5584	0	32820	32835	
5585	0	32856	32772	
5586	0	32836	32872	
5587	0	32816	32759	
5588	0	32808	32750	
5589	0	32856	32738	
5590	0	32836	32814	
5591	0	32842	32768	
5592	0	32830	32711	
5593	0	32830	32694	
5594	0	32837	32764	
5595	0	32768	32768	
5596	0	32764	32708	
5597	0	32824	32768	
5598	0	32826	32775	
5599	0	32800	32716	
5600	0	32748	32672	
5601	0	32847	32775	
5602	0	32862	32768	
5603	0	32884	32708	
5604	0	32730	32772	
5605	0	32830	32824	
5606	0	32772	32892	
5607	0	32810	32698	
5608	0	32798	32812	
5609	0	32854	32720	
5610	0	32762	32806	
5611	0	32744	32754	
5612	0	32820	32684	
5613	0	32866	32820	
5614	0	32789	32662	
5615	0	32748	32775	
5616	0	32742	32772	
5617	0	32824	32823	
5618	0	32828	32740	
5619	0	32849	32861	
5620	0	32812	32771	
5621	0	32792	32862	
5622	0	32798	32775	
5623	0	32734	32820	
5624	0	32760	32826	
5625	0	32766	32646	
5626	0	32865	32856	
5627	0	32806	32790	
5628	0	32804	32663	
5629	0	32836	32638	
5630	0	32824	32712	
5631	0	32800	32854	
5632	0	32784	32742	
5633	0	32800	32800	
5634	0	32808	32693	
5635	0	32804	32662	
5636	0	32844	32770	
5637	0	32752	32756	
5638	0	32810	32724	
5639	0	32810	32832	
5640	0	32820	32804	
5641	0	32734	32720	
5642	0	32748	32775	
5643	0	32734	32822	
5644	0	32810	32668	
5645	0	32866	32775	
5646	0	32814	32708	
5647	0	32788	32758	
5648	0	32784	32839	
5649	0	32820	32687	
5650	0	32744	32732	
5651	0	32784	32806	
5652	0	32832	32679	
5653	0	32784	32700	
5654	0	32768	32679	
5655	0	32784	32880	
5656	0	32810	32720	
5657	0	32826	32692	
5658	0	32786	32814	
5659	0	32828	32756	
5660	0	32826	32634	
5661	0	32860	32740	
5662	0	32810	32855	
5663	0	32796	32708	
5664	0	32780	32825	
5665	0	32824	32918	
5666	0	32820	32674	
5667	0	32824	32767	
5668	0	32792	32818	
5669	0	32804	32806	
5670	0	32762	32748	
5671	0	32832	32794	
5672	0	32840	32642	
5673	0	32806	32774	
5674	0	32776	32770	
5675	0	32830	32700	
5676	0	32810	32842	
5677	0	32744	32690	
5678	0	32836	32756	
5679	0	32824	32740	
5680	0	32758	32772	
5681	0	32764	32688	
5682	0	32778	32804	
5683	0	32798	32736	
5684	0	32792	32738	
5685	0	32842	32738	
5686	0	32832	32790	
5687	0	32824	32748	
5688	0	32780	32920	
5689	0	32852	32846	
5690	0	32876	32726	
5691	0	32824	32775	
5692	0	32858	32775	
5693	0	32826	32804	
5694	0	32798	32708	
5695	0	32808	32724	
5696	0	32792	32751	
5697	0	32782	32702	
5698	0	32800	32725	
5699	0	32886	32662	
5700	0	32762	32714	
5701	0	32840	32804	
5702	0	32848	32764	
5703	0	32828	32695	
5704	0	32804	32639	
5705	0	32800	32825	
5706	0	32808	32775	
5707	0	32738	32792	
5708	0	32846	32668	
5709	0	32766	32796	
5710	0	32760	32762	
5711	0	32904	32790	
5712	0	32852	32702	
5713	0	32832	32704	
5714	0	32810	32792	
5715	0	32802	32837	
5716	0	32808	32800	
5717	0	32800	32730	
5718	0	32780	32679	
5719	0	32768	32790	
5720	0	32804	32736	
5721	0	32832	32750	
5722	0	32784	32714	
5723	0	32844	32657	
5724	0	32834	32804	
5725	0	32820	32714	
5726	0	32792	32834	
5727	0	32780	32756	
5728	0	32752	32638	
5729	0	32812	32678	
5730	0	32834	32820	
5731	0	32796	32788	
5732	0	32816	32775	
5733	0	32808	32736	
5734	0	32860	32736	
5735	0	32796	32874	
5736	0	32760	32790	
5737	0	32800	32801	
5738	0	32808	32774	
5739	0	32820	32792	
5740	0	32808	32844	
5741	0	32816	32739	
5742	0	32772	32630	
5743	0	32796	32796	
5744	0	32828	32775	
5745	0	32816	32773	
5746	0	32848	32653	
5747	0	32814	32878	
5748	0	32696	32818	
5749	0	32794	32788	
5750	0	32804	32774	
5751	0	32820	32738	
5752	0	32800	32657	
5753	0	32840	32768	
5754	0	32814	32714	
5755	0	32880	32703	
5756	0	32820	32720	
5757	0	32813	32810	
5758	0	32860	32807	
5759	0	32820	32771	
5760	0	32868	32750	
5761	0	32842	32710	
5762	0	32856	32828	
5763	0	32820	32860	
5764	0	32800	32742	
5765	0	32804	32871	
5766	0	32854	32796	
5767	0	32816	32773	
5768	0	32784	32614	
5769	0	32892	32825	
5770	0	32828	32775	
5771	0	32782	32839	
5772	0	32804	32855	
5773	0	32780	32684	
5774	0	32868	32788	
5775	0	32826	32742	
5776	0	32760	32775	
5777	0	32760	32684	
5778	0	32860	32804	
5779	0	32868	32750	
5780	0	32808	32814	
5781	0	32768	32880	
5782	0	32812	32756	
5783	0	32804	32824	
5784	0	32804	32703	
5785	0	32764	32851	
5786	0	32760	32826	
5787	0	32784	32866	
5788	0	32844	32679	
5789	0	32865	32706	
5790	0	32770	32796	
5791	0	32796	32736	
5792	0	32820	32790	
5793	0	32802	32679	
5794	0	32830	32714	
5795	0	32792	32846	
5796	0	32846	32818	
5797	0	32790	32790	
5798	0	32792	32686	
5799	0	32816	32775	
5800	0	32796	32870	
5801	0	32780	32724	
5802	0	32832	32734	
5803	0	32860	32775	
5804	0	32796	32775	
5805	0	32836	32735	
5806	0	32774	32711	
5807	0	32801	32696	
5808	0	32844	32770	
5809	0	32793	32720	
5810	0	32804	32830	
5811	0	32884	32764	
5812	0	32772	32804	
5813	0	32775	32842	
5814	0	32826	32718	
5815	0	32785	32824	
5816	0	32825	32824	
5817	0	32868	32698	
5818	0	32826	32744	
5819	0	32876	32754	
5820	0	32812	32718	
5821	0	32816	32654	
5822	0	32794	32775	
5823	0	32832	32775	
5824	0	32740	32738	
5825	0	32772	32868	
5826	0	32772	32764	
5827	0	32800	32804	
5828	0	32824	32710	
5829	0	32812	32796	
5830	0	32766	32823	
5831	0	32842	32658	
5832	0	32868	32771	
5833	0	32868	32796	
5834	0	32782	32655	
5835	0	32780	32806	
5836	0	32772	32764	
5837	0	32824	32757	
5838	0	32848	32708	
5839	0	32812	32775	
5840	0	32836	32772	
5841	0	32762	32680	
5842	0	32798	32839	
5843	0	32812	32775	
5844	0	32806	32728	
5845	0	32808	32712	
5846	0	32856	32798	
5847	0	32774	32838	
5848	0	32782	32666	
5849	0	32876	32760	
5850	0	32920	32832	
5851	0	32786	32758	
5852	0	32814	32760	
5853	0	32854	32736	
5854	0	32832	32768	
5855	0	32794	32656	
5856	0	32832	32821	
5857	0	32820	32798	
5858	0	32820	32655	
5859	0	32848	32812	
5860	0	32724	32746	
5861	0	32810	32759	
5862	0	32808	32775	
5863	0	32820	32734	
5864	0	32800	32842	
5865	0	32788	32699	
5866	0	32776	32726	
5867	0	32836	32762	
5868	0	32854	32828	
5869	0	32772	32679	
5870	0	32828	32718	
5871	0	32804	32775	
5872	0	32768	32802	
5873	0	32824	32664	
5874	0	32848	32842	
5875	0	32776	32766	
5876	0	32746	32706	
5877	0	32864	32698	
5878	0	32780	32718	
5879	0	32804	32858	
5880	0	32770	32868	
5881	0	32832	32766	
5882	0	32778	32704	
5883	0	32820	32764	
5884	0	32844	32860	
5885	0	32842	32680	
5886	0	32864	32838	
5887	0	32806	32774	
5888	0	32872	32795	
5889	0	32784	32737	
5890	0	32800	32764	
5891	0	32794	32716	
5892	0	32804	32724	
5893	0	32888	32800	
5894	0	32878	32708	
5895	0	32840	32798	
5896	0	32808	32816	
5897	0	32788	32775	
5898	0	32792	32774	
5899	0	32772	32692	
5900	0	32848	32772	
5901	0	32874	32840	
5902	0	32784	32714	
5903	0	32808	32900	
5904	0	32856	32812	
5905	0	32818	32670	
5906	0	32804	32798	
5907	0	32748	32706	
5908	0	32868	32799	
5909	0	32772	32766	
5910	0	32870	32804	
5911	0	32860	32688	
5912	0	32876	32738	
5913	0	32844	32844	
5914	0	32864	32748	
5915	0	32840	32774	
5916	0	32740	32727	
5917	0	32798	32845	
5918	0	32808	32760	
5919	0	32742	32798	
5920	0	32824	32775	
5921	0	32890	32700	
5922	0	32762	32807	
5923	0	32788	32795	
5924	0	32806	32676	
5925	0	32808	32754	
5926	0	32744	32706	
5927	0	32850	32786	
5928	0	32842	32775	
5929	0	32820	32754	
5930	0	32820	32716	
5931	0	32848	32850	
5932	0	32808	32687	
5933	0	32846	32726	
5934	0	32796	32694	
5935	0	32796	32708	
5936	0	32810	32710	
5937	0	32864	32732	
5938	0	32878	32793	
5939	0	32814	32775	
5940	0	32808	32871	
5941	0	32824	32753	
5942	0	32802	32876	
5943	0	32772	32874	
5944	0	32794	32726	
5945	0	32820	32790	
5946	0	32806	32725	
5947	0	32804	32748	
5948	0	32836	32802	
5949	0	32848	32678	
5950	0	32820	32712	
5951	0	32832	32775	
5952	0	32840	32744	
5953	0	32792	32698	
5954	0	32744	32692	
5955	0	32846	32724	
5956	0	32874	32740	
5957	0	32810	32800	
5958	0	32800	32704	
5959	0	32740	32820	
5960	0	32772	32742	
5961	0	32844	32736	
5962	0	32816	32743	
5963	0	32848	32647	
5964	0	32808	32812	
5965	0	32808	32774	
5966	0	32816	32734	
5967	0	32718	32810	
5968	0	32810	32742	
5969	0	32826	32774	
5970	0	32804	32827	
5971	0	32808	32718	
5972	0	32804	32756	
5973	0	32816	32714	
5974	0	32810	32664	
5975	0	32904	32790	
5976	0	32854	32744	
5977	0	32816	32818	
5978	0	32836	32785	
5979	0	32780	32692	
5980	0	32810	32804	
5981	0	32886	32758	
5982	0	32864	32740	
5983	0	32822	32806	
5984	0	32784	32708	
5985	0	32778	32736	
5986	0	32789	32807	
5987	0	32768	32740	
5988	0	32856	32807	
5989	0	32788	32764	
5990	0	32764	32756	
5991	0	32828	32759	
5992	0	32768	32748	
5993	0	32808	32702	
5994	0	32796	32758	
5995	0	32792	32895	
5996	0	32860	32657	
5997	0	32800	32800	
5998	0	32804	32775	
5999	0	32852	32754	
6000	0	32828	32804	
6001	0	32800	32708	
6002	0	32756	32792	
6003	0	32850	32775	
6004	0	32832	32668	
6005	0	32844	32875	
6006	0	32816	32808	
6007	0	32836	32708	
6008	0	32778	32798	
6009	0	32792	32868	
6010	0	32818	32720	
6011	0	32814	32712	
6012	0	32852	32775	
