# OpenSignals Text File Format. Version 1
# {"00:07:80:8C:0A:39": {"position": 0, "device": "biosignalsplux", "device name": "00:07:80:8C:0A:39", "device connection": "BTH00:07:80:8C:0A:39", "sampling rate": 1000, "resolution": [16, 16], "firmware version": 776, "comments": "", "keywords": "", "mode": 0, "sync interval": 2, "date": "2023-3-10", "time": "15:47:13.525", "channels": [1, 2], "sensor": ["EMG", "EMG"], "label": ["CH1", "CH2"], "column": ["nSeq", "DI", "CH1", "CH2"], "special": [{"SpO2": [80, 40, 5, 4, 3, 3]}, {"SpO2": [80, 40, 5, 4, 3, 3]}, {"SpO2": [80, 40, 5, 4, 3, 3]}, {"SpO2": [80, 40, 5, 4, 3, 3]}, {"SpO2": [80, 40, 5, 4, 3, 3]}, {"SpO2": [80, 40, 5, 4, 3, 3]}, {"SpO2": [80, 40, 5, 4, 3, 3]}, {"SpO2": [80, 40, 5, 4, 3, 3]}], "digital IO": [0, 1], "sleeve color": ["gray", "yellow"], "convertedValues": 0}}
# EndOfHeader
0	0	32834	32838	
1	0	32820	32792	
2	0	32844	32810	
3	0	32800	32711	
4	0	32820	32880	
5	0	32832	32768	
6	0	32788	32788	
7	0	32828	32718	
8	0	32802	32806	
9	0	32780	32788	
10	0	32808	32742	
11	0	32764	32764	
12	0	32828	32804	
13	0	32784	32836	
14	0	32782	32710	
15	0	32830	32756	
16	0	32828	32766	
17	0	32808	32836	
18	0	32812	32792	
19	0	32828	32716	
20	0	32808	32836	
21	0	32816	32788	
22	0	32812	32735	
23	0	32792	32664	
24	0	32804	32838	
25	0	32790	32718	
26	0	32816	32726	
27	0	32808	32718	
28	0	32812	32856	
29	0	32820	32748	
30	0	32768	32746	
31	0	32820	32647	
32	0	32832	32756	
33	0	32850	32816	
34	0	32816	32668	
35	0	32792	32874	
36	0	32836	32802	
37	0	32770	32714	
38	0	32842	32766	
39	0	32852	32798	
40	0	32844	32801	
41	0	32820	32766	
42	0	32888	32846	
43	0	32816	32818	
44	0	32796	32700	
45	0	32804	32840	
46	0	32804	32698	
47	0	32828	32768	
48	0	32800	32697	
49	0	32760	32764	
50	0	32828	32808	
51	0	32764	32726	
52	0	32816	32804	
53	0	32828	32804	
54	0	32860	32819	
55	0	32796	32722	
56	0	32836	32764	
57	0	32870	32800	
58	0	32820	32714	
59	0	32876	32656	
60	0	32868	32792	
61	0	32796	32772	
62	0	32768	32802	
63	0	32780	32726	
64	0	32784	32784	
65	0	32748	32826	
66	0	32826	32679	
67	0	32816	32764	
68	0	32808	32800	
69	0	32788	32740	
70	0	32868	32692	
71	0	32878	32704	
72	0	32856	32660	
73	0	32802	32830	
74	0	32778	32742	
75	0	32812	32754	
76	0	32804	32828	
77	0	32832	32788	
78	0	32876	32748	
79	0	32780	32775	
80	0	32828	32806	
81	0	32790	32768	
82	0	32792	32824	
83	0	32808	32775	
84	0	32814	32660	
85	0	32800	32690	
86	0	32840	32770	
87	0	32836	32804	
88	0	32718	32768	
89	0	32844	32840	
90	0	32794	32710	
91	0	32782	32718	
92	0	32756	32820	
93	0	32832	32756	
94	0	32788	32782	
95	0	32814	32652	
96	0	32900	32804	
97	0	32840	32764	
98	0	32808	32768	
99	0	32800	32799	
100	0	32804	32804	
101	0	32828	32662	
102	0	32804	32826	
103	0	32800	32825	
104	0	32778	32820	
105	0	32842	32732	
106	0	32774	32775	
107	0	32860	32706	
108	0	32824	32818	
109	0	32736	32844	
110	0	32834	32842	
111	0	32896	32860	
112	0	32796	32736	
113	0	32856	32732	
114	0	32844	32794	
115	0	32824	32774	
116	0	32856	32775	
117	0	32808	32775	
118	0	32804	32660	
119	0	32790	32740	
120	0	32752	32802	
121	0	32768	32768	
122	0	32824	32856	
123	0	32824	32688	
124	0	32802	32860	
125	0	32754	32746	
126	0	32796	32744	
127	0	32780	32807	
128	0	32846	32710	
129	0	32758	32684	
130	0	32820	32792	
131	0	32716	32775	
132	0	32834	32738	
133	0	32848	32726	
134	0	32792	32874	
135	0	32864	32788	
136	0	32848	32746	
137	0	32798	32656	
138	0	32808	32660	
139	0	32776	32814	
140	0	32768	32766	
141	0	32796	32804	
142	0	32836	32756	
143	0	32844	32684	
144	0	32792	32704	
145	0	32852	32802	
146	0	32834	32868	
147	0	32824	32882	
148	0	32834	32758	
149	0	32840	32748	
150	0	32750	32820	
151	0	32768	32736	
152	0	32870	32696	
153	0	32832	32772	
154	0	32840	32716	
155	0	32784	32706	
156	0	32754	32824	
157	0	32756	32775	
158	0	32866	32820	
159	0	32796	32732	
160	0	32862	32684	
161	0	32842	32720	
162	0	32775	32796	
163	0	32724	32772	
164	0	32776	32768	
165	0	32764	32775	
166	0	32738	32804	
167	0	32830	32868	
168	0	32712	32764	
169	0	32712	32865	
170	0	32694	32802	
171	0	32784	32744	
172	0	32724	32802	
173	0	32752	32872	
174	0	32732	32836	
175	0	32680	32852	
176	0	32648	32852	
177	0	32660	32744	
178	0	32796	32842	
179	0	32708	32775	
180	0	32720	32878	
181	0	32708	32775	
182	0	32764	32690	
183	0	32776	32842	
184	0	32736	32762	
185	0	32864	32775	
186	0	32848	32786	
187	0	32870	32682	
188	0	32888	32654	
189	0	32928	32760	
190	0	32980	32697	
191	0	33060	32678	
192	0	33100	32606	
193	0	33184	32510	
194	0	33242	32527	
195	0	33220	32588	
196	0	33312	32568	
197	0	33310	32559	
198	0	33322	32488	
199	0	33332	32564	
200	0	33248	32712	
201	0	33128	32740	
202	0	32980	32790	
203	0	32884	32824	
204	0	32828	32748	
205	0	32666	32830	
206	0	32508	32924	
207	0	32452	32934	
208	0	32460	32884	
209	0	32534	32814	
210	0	32484	32960	
211	0	32520	32890	
212	0	32572	32864	
213	0	32592	32822	
214	0	32568	32820	
215	0	32624	32839	
216	0	32688	32828	
217	0	32708	32790	
218	0	32684	32756	
219	0	32748	32792	
220	0	32808	32878	
221	0	32772	32775	
222	0	32788	32818	
223	0	32740	32740	
224	0	32780	32828	
225	0	32788	32720	
226	0	32740	32816	
227	0	32834	32770	
228	0	32810	32688	
229	0	32872	32746	
230	0	32792	32856	
231	0	32744	32870	
232	0	32772	32798	
233	0	32844	32710	
234	0	32812	32866	
235	0	32816	32760	
236	0	32762	32832	
237	0	32772	32686	
238	0	32804	32870	
239	0	32782	32768	
240	0	32824	32772	
241	0	32820	32692	
242	0	32880	32794	
243	0	32872	32684	
244	0	32760	32696	
245	0	32848	32748	
246	0	32812	32663	
247	0	32852	32750	
248	0	32776	32740	
249	0	32800	32798	
250	0	32836	32710	
251	0	32794	32780	
252	0	32838	32742	
253	0	32864	32730	
254	0	32888	32710	
255	0	32868	32832	
256	0	32868	32796	
257	0	32816	32852	
258	0	32856	32766	
259	0	32800	32768	
260	0	32788	32716	
261	0	32768	32840	
262	0	32818	32802	
263	0	32820	32710	
264	0	32806	32746	
265	0	32796	32814	
266	0	32762	32760	
267	0	32800	32746	
268	0	32764	32764	
269	0	32764	32788	
270	0	32834	32812	
271	0	32772	32710	
272	0	32812	32768	
273	0	32814	32762	
274	0	32866	32782	
275	0	32784	32816	
276	0	32816	32766	
277	0	32806	32758	
278	0	32778	32728	
279	0	32726	32708	
280	0	32812	32816	
281	0	32792	32824	
282	0	32860	32760	
283	0	32760	32775	
284	0	32825	32762	
285	0	32860	32678	
286	0	32872	32688	
287	0	32840	32816	
288	0	32832	32756	
289	0	32824	32780	
290	0	32752	32748	
291	0	32892	32768	
292	0	32832	32750	
293	0	32812	32820	
294	0	32788	32836	
295	0	32858	32808	
296	0	32808	32852	
297	0	32802	32842	
298	0	32856	32730	
299	0	32824	32706	
300	0	32872	32758	
301	0	32784	32772	
302	0	32848	32750	
303	0	32804	32726	
304	0	32824	32820	
305	0	32792	32756	
306	0	32782	32788	
307	0	32808	32718	
308	0	32808	32690	
309	0	32818	32696	
310	0	32750	32836	
311	0	32824	32840	
312	0	32798	32775	
313	0	32824	32764	
314	0	32794	32832	
315	0	32794	32790	
316	0	32770	32744	
317	0	32808	32710	
318	0	32796	32768	
319	0	32774	32852	
320	0	32800	32774	
321	0	32780	32708	
322	0	32804	32838	
323	0	32848	32834	
324	0	32776	32736	
325	0	32824	32846	
326	0	32810	32676	
327	0	32768	32661	
328	0	32824	32822	
329	0	32764	32792	
330	0	32848	32772	
331	0	32794	32775	
332	0	32778	32774	
333	0	32804	32800	
334	0	32884	32792	
335	0	32804	32720	
336	0	32788	32710	
337	0	32764	32696	
338	0	32810	32807	
339	0	32852	32778	
340	0	32836	32739	
341	0	32892	32798	
342	0	32816	32784	
343	0	32776	32710	
344	0	32876	32734	
345	0	32802	32816	
346	0	32782	32796	
347	0	32864	32812	
348	0	32840	32775	
349	0	32804	32746	
350	0	32792	32696	
351	0	32844	32766	
352	0	32820	32834	
353	0	32832	32844	
354	0	32816	32816	
355	0	32800	32708	
356	0	32800	32680	
357	0	32802	32822	
358	0	32808	32732	
359	0	32800	32826	
360	0	32814	32732	
361	0	32844	32708	
362	0	32824	32774	
363	0	32768	32690	
364	0	32812	32898	
365	0	32812	32792	
366	0	32786	32812	
367	0	32732	32724	
368	0	32746	32672	
369	0	32796	32732	
370	0	32860	32732	
371	0	32804	32798	
372	0	32880	32750	
373	0	32812	32719	
374	0	32796	32840	
375	0	32780	32828	
376	0	32814	32840	
377	0	32825	32870	
378	0	32780	32800	
379	0	32792	32660	
380	0	32868	32736	
381	0	32752	32774	
382	0	32852	32834	
383	0	32842	32762	
384	0	32820	32736	
385	0	32772	32832	
386	0	32860	32768	
387	0	32876	32800	
388	0	32844	32760	
389	0	32808	32752	
390	0	32760	32670	
391	0	32816	32866	
392	0	32816	32716	
393	0	32760	32864	
394	0	32788	32678	
395	0	32840	32656	
396	0	32768	32804	
397	0	32788	32770	
398	0	32796	32812	
399	0	32826	32766	
400	0	32884	32718	
401	0	32848	32860	
402	0	32830	32728	
403	0	32794	32848	
404	0	32756	32754	
405	0	32888	32718	
406	0	32896	32790	
407	0	32760	32740	
408	0	32844	32840	
409	0	32784	32756	
410	0	32764	32714	
411	0	32852	32775	
412	0	32772	32816	
413	0	32780	32736	
414	0	32890	32770	
415	0	32852	32678	
416	0	32840	32724	
417	0	32784	32768	
418	0	32760	32724	
419	0	32820	32708	
420	0	32816	32772	
421	0	32840	32657	
422	0	32870	32724	
423	0	32828	32850	
424	0	32748	32775	
425	0	32848	32716	
426	0	32846	32772	
427	0	32818	32724	
428	0	32872	32716	
429	0	32832	32666	
430	0	32808	32740	
431	0	32802	32752	
432	0	32820	32846	
433	0	32888	32850	
434	0	32880	32736	
435	0	32834	32798	
436	0	32854	32766	
437	0	32860	32806	
438	0	32854	32710	
439	0	32872	32806	
440	0	32798	32854	
441	0	32858	32784	
442	0	32808	32758	
443	0	32828	32676	
444	0	32844	32678	
445	0	32796	32766	
446	0	32780	32868	
447	0	32820	32688	
448	0	32740	32740	
449	0	32800	32712	
450	0	32800	32848	
451	0	32780	32752	
452	0	32792	32744	
453	0	32778	32674	
454	0	32948	32708	
455	0	32872	32870	
456	0	32832	32775	
457	0	32804	32742	
458	0	32822	32846	
459	0	32780	32804	
460	0	32784	32682	
461	0	32772	32720	
462	0	32824	32814	
463	0	32748	32740	
464	0	32778	32810	
465	0	32780	32866	
466	0	32800	32728	
467	0	32848	32686	
468	0	32838	32866	
469	0	32801	32736	
470	0	32748	32732	
471	0	32758	32746	
472	0	32816	32717	
473	0	32800	32854	
474	0	32788	32802	
475	0	32822	32836	
476	0	32806	32736	
477	0	32840	32740	
478	0	32872	32830	
479	0	32810	32804	
480	0	32828	32836	
481	0	32846	32756	
482	0	32770	32742	
483	0	32758	32756	
484	0	32820	32772	
485	0	32782	32840	
486	0	32774	32806	
487	0	32880	32620	
488	0	32758	32682	
489	0	32780	32816	
490	0	32776	32792	
491	0	32832	32804	
492	0	32810	32702	
493	0	32882	32662	
494	0	32820	32820	
495	0	32768	32756	
496	0	32820	32805	
497	0	32772	32750	
498	0	32814	32848	
499	0	32820	32764	
500	0	32804	32762	
501	0	32744	32775	
502	0	32896	32678	
503	0	32836	32760	
504	0	32824	32786	
505	0	32768	32692	
506	0	32788	32734	
507	0	32800	32775	
508	0	32838	32767	
509	0	32852	32716	
510	0	32830	32722	
511	0	32790	32804	
512	0	32856	32770	
513	0	32724	32823	
514	0	32880	32676	
515	0	32784	32689	
516	0	32766	32775	
517	0	32796	32756	
518	0	32868	32788	
519	0	32817	32708	
520	0	32798	32858	
521	0	32808	32772	
522	0	32792	32630	
523	0	32836	32702	
524	0	32884	32850	
525	0	32784	32832	
526	0	32740	32740	
527	0	32810	32775	
528	0	32856	32700	
529	0	32866	32830	
530	0	32806	32742	
531	0	32852	32828	
532	0	32830	32784	
533	0	32794	32886	
534	0	32848	32726	
535	0	32812	32800	
536	0	32900	32664	
537	0	32849	32812	
538	0	32738	32720	
539	0	32810	32774	
540	0	32812	32720	
541	0	32798	32752	
542	0	32786	32770	
543	0	32770	32764	
544	0	32794	32774	
545	0	32804	32800	
546	0	32806	32684	
547	0	32846	32825	
548	0	32850	32846	
549	0	32814	32680	
550	0	32796	32770	
551	0	32776	32775	
552	0	32772	32788	
553	0	32862	32862	
554	0	32866	32686	
555	0	32788	32708	
556	0	32844	32812	
557	0	32848	32720	
558	0	32808	32834	
559	0	32844	32728	
560	0	32810	32662	
561	0	32800	32674	
562	0	32796	32750	
563	0	32816	32760	
564	0	32788	32854	
565	0	32804	32756	
566	0	32832	32724	
567	0	32796	32788	
568	0	32870	32903	
569	0	32806	32792	
570	0	32776	32798	
571	0	32820	32702	
572	0	32832	32712	
573	0	32796	32806	
574	0	32876	32750	
575	0	32830	32772	
576	0	32836	32680	
577	0	32792	32756	
578	0	32790	32724	
579	0	32724	32775	
580	0	32768	32728	
581	0	32760	32806	
582	0	32804	32884	
583	0	32796	32726	
584	0	32740	32740	
585	0	32778	32642	
586	0	32840	32756	
587	0	32808	32798	
588	0	32824	32826	
589	0	32832	32763	
590	0	32850	32732	
591	0	32832	32766	
592	0	32816	32840	
593	0	32816	32748	
594	0	32848	32760	
595	0	32832	32803	
596	0	32788	32874	
597	0	32798	32770	
598	0	32816	32742	
599	0	32780	32782	
600	0	32800	32688	
601	0	32834	32670	
602	0	32824	32750	
603	0	32806	32724	
604	0	32758	32708	
605	0	32772	32800	
606	0	32796	32804	
607	0	32804	32687	
608	0	32792	32736	
609	0	32796	32788	
610	0	32844	32782	
611	0	32758	32842	
612	0	32880	32750	
613	0	32792	32692	
614	0	32780	32790	
615	0	32880	32756	
616	0	32772	32868	
617	0	32828	32760	
618	0	32816	32727	
619	0	32782	32764	
620	0	32780	32775	
621	0	32760	32750	
622	0	32756	32708	
623	0	32824	32775	
624	0	32766	32814	
625	0	32824	32800	
626	0	32756	32754	
627	0	32806	32840	
628	0	32788	32814	
629	0	32864	32807	
630	0	32804	32764	
631	0	32788	32688	
632	0	32830	32743	
633	0	32860	32814	
634	0	32746	32728	
635	0	32868	32766	
636	0	32840	32808	
637	0	32844	32746	
638	0	32860	32748	
639	0	32834	32744	
640	0	32840	32712	
641	0	32800	32750	
642	0	32852	32772	
643	0	32814	32678	
644	0	32788	32710	
645	0	32808	32818	
646	0	32760	32838	
647	0	32840	32804	
648	0	32804	32832	
649	0	32824	32706	
650	0	32808	32724	
651	0	32812	32734	
652	0	32804	32788	
653	0	32816	32812	
654	0	32828	32775	
655	0	32800	32740	
656	0	32784	32752	
657	0	32846	32786	
658	0	32898	32807	
659	0	32856	32756	
660	0	32784	32714	
661	0	32788	32670	
662	0	32788	32775	
663	0	32790	32794	
664	0	32798	32678	
665	0	32816	32756	
666	0	32768	32752	
667	0	32764	32660	
668	0	32808	32796	
669	0	32784	32792	
670	0	32800	32760	
671	0	32832	32900	
672	0	32792	32796	
673	0	32824	32702	
674	0	32780	32723	
675	0	32804	32724	
676	0	32852	32820	
677	0	32904	32768	
678	0	32792	32800	
679	0	32816	32826	
680	0	32844	32802	
681	0	32788	32708	
682	0	32788	32724	
683	0	32772	32788	
684	0	32826	32812	
685	0	32876	32748	
686	0	32820	32688	
687	0	32828	32752	
688	0	32856	32828	
689	0	32852	32768	
690	0	32804	32852	
691	0	32814	32750	
692	0	32820	32860	
693	0	32800	32775	
694	0	32802	32796	
695	0	32740	32646	
696	0	32816	32760	
697	0	32868	32836	
698	0	32864	32844	
699	0	32812	32774	
700	0	32736	32846	
701	0	32808	32818	
702	0	32842	32708	
703	0	32772	32828	
704	0	32888	32806	
705	0	32848	32826	
706	0	32812	32676	
707	0	32800	32654	
708	0	32812	32836	
709	0	32834	32784	
710	0	32844	32791	
711	0	32816	32644	
712	0	32828	32743	
713	0	32824	32770	
714	0	32852	32775	
715	0	32828	32802	
716	0	32896	32708	
717	0	32824	32846	
718	0	32754	32800	
719	0	32740	32711	
720	0	32776	32775	
721	0	32806	32742	
722	0	32862	32674	
723	0	32824	32716	
724	0	32824	32775	
725	0	32804	32756	
726	0	32808	32732	
727	0	32828	32792	
728	0	32820	32807	
729	0	32784	32722	
730	0	32828	32664	
731	0	32832	32762	
732	0	32748	32764	
733	0	32824	32810	
734	0	32882	32740	
735	0	32780	32742	
736	0	32808	32804	
737	0	32816	32826	
738	0	32780	32818	
739	0	32796	32788	
740	0	32784	32666	
741	0	32856	32816	
742	0	32880	32742	
743	0	32785	32652	
744	0	32760	32684	
745	0	32800	32788	
746	0	32784	32862	
747	0	32820	32716	
748	0	32804	32722	
749	0	32768	32774	
750	0	32782	32740	
751	0	32808	32802	
752	0	32794	32832	
753	0	32814	32803	
754	0	32788	32863	
755	0	32760	32790	
756	0	32784	32678	
757	0	32848	32729	
758	0	32788	32830	
759	0	32840	32726	
760	0	32806	32760	
761	0	32848	32766	
762	0	32804	32732	
763	0	32846	32750	
764	0	32856	32775	
765	0	32848	32800	
766	0	32752	32608	
767	0	32768	32802	
768	0	32860	32868	
769	0	32808	32734	
770	0	32864	32894	
771	0	32752	32736	
772	0	32824	32660	
773	0	32808	32671	
774	0	32848	32792	
775	0	32800	32824	
776	0	32800	32718	
777	0	32768	32792	
778	0	32836	32718	
779	0	32778	32822	
780	0	32852	32746	
781	0	32804	32791	
782	0	32826	32746	
783	0	32812	32732	
784	0	32808	32804	
785	0	32768	32740	
786	0	32740	32760	
787	0	32884	32774	
788	0	32802	32720	
789	0	32808	32802	
790	0	32752	32762	
791	0	32832	32775	
792	0	32840	32826	
793	0	32832	32694	
794	0	32882	32720	
795	0	32872	32828	
796	0	32848	32734	
797	0	32796	32775	
798	0	32808	32678	
799	0	32828	32732	
800	0	32870	32788	
801	0	32812	32742	
802	0	32798	32732	
803	0	32804	32720	
804	0	32798	32840	
805	0	32798	32748	
806	0	32724	32752	
807	0	32860	32928	
808	0	32860	32712	
809	0	32770	32796	
810	0	32810	32908	
811	0	32858	32714	
812	0	32880	32806	
813	0	32852	32728	
814	0	32824	32812	
815	0	32806	32812	
816	0	32788	32762	
817	0	32796	32841	
818	0	32826	32584	
819	0	32824	32784	
820	0	32778	32788	
821	0	32840	32770	
822	0	32750	32614	
823	0	32816	32692	
824	0	32790	32804	
825	0	32822	32702	
826	0	32764	32836	
827	0	32748	32767	
828	0	32798	32774	
829	0	32852	32786	
830	0	32758	32724	
831	0	32776	32796	
832	0	32804	32740	
833	0	32804	32732	
834	0	32752	32804	
835	0	32852	32708	
836	0	32932	32844	
837	0	32850	32711	
838	0	32838	32772	
839	0	32790	32788	
840	0	32760	32770	
841	0	32814	32832	
842	0	32768	32775	
843	0	32848	32679	
844	0	32816	32775	
845	0	32812	32612	
846	0	32792	32728	
847	0	32780	32750	
848	0	32802	32775	
849	0	32750	32713	
850	0	32748	32846	
851	0	32788	32856	
852	0	32778	32826	
853	0	32808	32850	
854	0	32844	32712	
855	0	32862	32724	
856	0	32828	32802	
857	0	32802	32808	
858	0	32754	32834	
859	0	32916	32796	
860	0	32776	32727	
861	0	32850	32830	
862	0	32776	32796	
863	0	32732	32720	
864	0	32864	32742	
865	0	32870	32660	
866	0	32792	32688	
867	0	32832	32744	
868	0	32828	32728	
869	0	32762	32774	
870	0	32764	32678	
871	0	32792	32775	
872	0	32848	32884	
873	0	32836	32912	
874	0	32844	32802	
875	0	32800	32690	
876	0	32742	32822	
877	0	32798	32775	
878	0	32868	32834	
879	0	32824	32834	
880	0	32804	32750	
881	0	32860	32688	
882	0	32824	32704	
883	0	32820	32846	
884	0	32868	32816	
885	0	32800	32728	
886	0	32800	32820	
887	0	32836	32743	
888	0	32884	32686	
889	0	32830	32788	
890	0	32860	32863	
891	0	32792	32846	
892	0	32870	32728	
893	0	32830	32775	
894	0	32784	32868	
895	0	32782	32896	
896	0	32818	32714	
897	0	32844	32682	
898	0	32794	32828	
899	0	32812	32711	
900	0	32834	32842	
901	0	32766	32764	
902	0	32812	32725	
903	0	32792	32670	
904	0	32768	32750	
905	0	32798	32704	
906	0	32788	32756	
907	0	32804	32810	
908	0	32774	32728	
909	0	32788	32802	
910	0	32836	32754	
911	0	32848	32726	
912	0	32768	32842	
913	0	32864	32766	
914	0	32816	32775	
915	0	32816	32748	
916	0	32848	32678	
917	0	32806	32732	
918	0	32840	32764	
919	0	32840	32872	
920	0	32828	32724	
921	0	32824	32724	
922	0	32744	32775	
923	0	32770	32756	
924	0	32814	32820	
925	0	32792	32736	
926	0	32852	32775	
927	0	32816	32775	
928	0	32756	32786	
929	0	32768	32658	
930	0	32804	32804	
931	0	32804	32802	
932	0	32812	32775	
933	0	32824	32734	
934	0	32804	32828	
935	0	32816	32823	
936	0	32936	32838	
937	0	32825	32722	
938	0	32750	32646	
939	0	32836	32824	
940	0	32828	32858	
941	0	32810	32807	
942	0	32848	32668	
943	0	32830	32870	
944	0	32772	32742	
945	0	32804	32804	
946	0	32810	32654	
947	0	32780	32854	
948	0	32832	32724	
949	0	32840	32852	
950	0	32820	32704	
951	0	32798	32828	
952	0	32856	32762	
953	0	32832	32790	
954	0	32856	32714	
955	0	32840	32806	
956	0	32804	32790	
957	0	32876	32843	
958	0	32800	32708	
959	0	32764	32848	
960	0	32764	32808	
961	0	32796	32718	
962	0	32828	32816	
963	0	32866	32724	
964	0	32852	32790	
965	0	32834	32748	
966	0	32864	32736	
967	0	32868	32852	
968	0	32806	32752	
969	0	32784	32800	
970	0	32768	32712	
971	0	32848	32718	
972	0	32844	32744	
973	0	32812	32807	
974	0	32768	32679	
975	0	32842	32807	
976	0	32816	32760	
977	0	32784	32828	
978	0	32824	32682	
979	0	32900	32740	
980	0	32820	32810	
981	0	32780	32820	
982	0	32796	32724	
983	0	32832	32666	
984	0	32892	32868	
985	0	32836	32772	
986	0	32816	32844	
987	0	32828	32678	
988	0	32788	32704	
989	0	32800	32868	
990	0	32828	32730	
991	0	32812	32830	
992	0	32752	32698	
993	0	32802	32740	
994	0	32852	32812	
995	0	32820	32734	
996	0	32778	32815	
997	0	32788	32828	
998	0	32834	32628	
999	0	32848	32855	
1000	0	32880	32704	
1001	0	32772	32788	
1002	0	32860	32734	
1003	0	32784	32673	
1004	0	32796	32910	
1005	0	32806	32736	
1006	0	32846	32858	
1007	0	32792	32664	
1008	0	32832	32782	
1009	0	32752	32828	
1010	0	32820	32750	
1011	0	32798	32840	
1012	0	32848	32738	
1013	0	32804	32716	
1014	0	32820	32794	
1015	0	32768	32814	
1016	0	32868	32774	
1017	0	32760	32678	
1018	0	32808	32774	
1019	0	32756	32775	
1020	0	32800	32742	
1021	0	32816	32792	
1022	0	32850	32736	
1023	0	32744	32712	
1024	0	32830	32775	
1025	0	32772	32812	
1026	0	32756	32796	
1027	0	32774	32812	
1028	0	32760	32732	
1029	0	32818	32720	
1030	0	32800	32836	
1031	0	32858	32774	
1032	0	32868	32820	
1033	0	32860	32732	
1034	0	32744	32734	
1035	0	32866	32798	
1036	0	32752	32746	
1037	0	32804	32792	
1038	0	32800	32798	
1039	0	32890	32802	
1040	0	32756	32719	
1041	0	32898	32756	
1042	0	32768	32751	
1043	0	32772	32704	
1044	0	32784	32708	
1045	0	32876	32775	
1046	0	32740	32738	
1047	0	32748	32782	
1048	0	32788	32775	
1049	0	32836	32740	
1050	0	32820	32838	
1051	0	32820	32716	
1052	0	32832	32840	
1053	0	32804	32710	
1054	0	32870	32710	
1055	0	32840	32832	
1056	0	32784	32692	
1057	0	32810	32812	
1058	0	32790	32664	
1059	0	32728	32752	
1060	0	32808	32804	
1061	0	32890	32764	
1062	0	32768	32810	
1063	0	32788	32790	
1064	0	32800	32682	
1065	0	32808	32718	
1066	0	32808	32814	
1067	0	32848	32798	
1068	0	32892	32740	
1069	0	32760	32788	
1070	0	32836	32652	
1071	0	32784	32687	
1072	0	32900	32828	
1073	0	32888	32788	
1074	0	32832	32732	
1075	0	32808	32818	
1076	0	32802	32704	
1077	0	32812	32718	
1078	0	32760	32802	
1079	0	32852	32770	
1080	0	32792	32762	
1081	0	32772	32678	
1082	0	32830	32808	
1083	0	32760	32744	
1084	0	32798	32760	
1085	0	32794	32700	
1086	0	32772	32780	
1087	0	32796	32758	
1088	0	32802	32852	
1089	0	32868	32772	
1090	0	32824	32679	
1091	0	32828	32726	
1092	0	32768	32820	
1093	0	32868	32734	
1094	0	32728	32820	
1095	0	32840	32666	
1096	0	32812	32790	
1097	0	32860	32775	
1098	0	32784	32788	
1099	0	32868	32756	
1100	0	32824	32710	
1101	0	32796	32790	
1102	0	32792	32700	
1103	0	32784	32854	
1104	0	32768	32718	
1105	0	32752	32748	
1106	0	32762	32852	
1107	0	32772	32752	
1108	0	32834	32740	
1109	0	32872	32760	
1110	0	32860	32800	
1111	0	32744	32789	
1112	0	32784	32790	
1113	0	32772	32744	
1114	0	32744	32870	
1115	0	32690	32796	
1116	0	32684	32816	
1117	0	32768	32800	
1118	0	32712	32918	
1119	0	32704	32759	
1120	0	32728	32724	
1121	0	32766	32892	
1122	0	32696	32798	
1123	0	32668	32879	
1124	0	32676	32736	
1125	0	32692	32727	
1126	0	32706	32884	
1127	0	32704	32832	
1128	0	32688	32804	
1129	0	32778	32704	
1130	0	32816	32838	
1131	0	32864	32772	
1132	0	32804	32784	
1133	0	32912	32669	
1134	0	32878	32728	
1135	0	32944	32732	
1136	0	32928	32694	
1137	0	33060	32561	
1138	0	33084	32558	
1139	0	33124	32628	
1140	0	33188	32534	
1141	0	33248	32596	
1142	0	33242	32488	
1143	0	33284	32500	
1144	0	33320	32598	
1145	0	33364	32536	
1146	0	33340	32556	
1147	0	33292	32640	
1148	0	33098	32708	
1149	0	33040	32792	
1150	0	32956	32804	
1151	0	32752	32836	
1152	0	32612	32978	
1153	0	32448	32990	
1154	0	32486	33014	
1155	0	32344	32874	
1156	0	32424	32922	
1157	0	32420	32956	
1158	0	32476	32838	
1159	0	32486	32823	
1160	0	32624	32850	
1161	0	32608	32810	
1162	0	32690	32792	
1163	0	32712	32770	
1164	0	32754	32826	
1165	0	32696	32840	
1166	0	32712	32782	
1167	0	32772	32748	
1168	0	32736	32798	
1169	0	32716	32724	
1170	0	32756	32752	
1171	0	32800	32786	
1172	0	32782	32810	
1173	0	32852	32824	
1174	0	32792	32775	
1175	0	32804	32700	
1176	0	32788	32836	
1177	0	32756	32708	
1178	0	32804	32818	
1179	0	32816	32734	
1180	0	32804	32748	
1181	0	32832	32756	
1182	0	32774	32818	
1183	0	32772	32716	
1184	0	32740	32768	
1185	0	32796	32743	
1186	0	32892	32798	
1187	0	32848	32752	
1188	0	32790	32676	
1189	0	32808	32847	
1190	0	32828	32800	
1191	0	32800	32762	
1192	0	32864	32730	
1193	0	32818	32775	
1194	0	32792	32791	
1195	0	32752	32849	
1196	0	32870	32714	
1197	0	32906	32764	
1198	0	32760	32775	
1199	0	32848	32764	
1200	0	32834	32660	
1201	0	32836	32724	
1202	0	32800	32711	
1203	0	32838	32792	
1204	0	32768	32876	
1205	0	32836	32710	
1206	0	32844	32844	
1207	0	32776	32734	
1208	0	32817	32775	
1209	0	32786	32808	
1210	0	32826	32764	
1211	0	32872	32768	
1212	0	32818	32836	
1213	0	32768	32764	
1214	0	32808	32832	
1215	0	32804	32718	
1216	0	32784	32744	
1217	0	32868	32820	
1218	0	32790	32680	
1219	0	32878	32796	
1220	0	32864	32711	
1221	0	32816	32770	
1222	0	32796	32696	
1223	0	32808	32800	
1224	0	32860	32674	
1225	0	32824	32844	
1226	0	32862	32794	
1227	0	32814	32774	
1228	0	32820	32794	
1229	0	32820	32744	
1230	0	32784	32830	
1231	0	32780	32834	
1232	0	32780	32844	
1233	0	32820	32664	
1234	0	32826	32834	
1235	0	32828	32828	
1236	0	32824	32738	
1237	0	32822	32640	
1238	0	32844	32775	
1239	0	32842	32790	
1240	0	32806	32786	
1241	0	32752	32636	
1242	0	32816	32646	
1243	0	32838	32850	
1244	0	32836	32730	
1245	0	32856	32714	
1246	0	32796	32684	
1247	0	32768	32862	
1248	0	32746	32746	
1249	0	32800	32822	
1250	0	32784	32704	
1251	0	32828	32846	
1252	0	32778	32730	
1253	0	32832	32807	
1254	0	32740	32668	
1255	0	32872	32750	
1256	0	32820	32816	
1257	0	32760	32786	
1258	0	32844	32828	
1259	0	32814	32740	
1260	0	32778	32704	
1261	0	32772	32774	
1262	0	32736	32734	
1263	0	32824	32868	
1264	0	32800	32752	
1265	0	32828	32700	
1266	0	32764	32833	
1267	0	32814	32736	
1268	0	32868	32778	
1269	0	32760	32732	
1270	0	32816	32692	
1271	0	32784	32746	
1272	0	32830	32784	
1273	0	32800	32828	
1274	0	32852	32738	
1275	0	32832	32758	
1276	0	32864	32720	
1277	0	32784	32769	
1278	0	32808	32838	
1279	0	32836	32756	
1280	0	32780	32700	
1281	0	32768	32724	
1282	0	32736	32744	
1283	0	32720	32814	
1284	0	32816	32714	
1285	0	32780	32710	
1286	0	32800	32718	
1287	0	32812	32775	
1288	0	32804	32686	
1289	0	32842	32688	
1290	0	32860	32814	
1291	0	32832	32860	
1292	0	32760	32762	
1293	0	32834	32736	
1294	0	32800	32824	
1295	0	32780	32760	
1296	0	32816	32852	
1297	0	32856	32732	
1298	0	32774	32746	
1299	0	32848	32775	
1300	0	32804	32794	
1301	0	32794	32764	
1302	0	32768	32732	
1303	0	32836	32775	
1304	0	32832	32740	
1305	0	32804	32616	
1306	0	32798	32775	
1307	0	32802	32775	
1308	0	32804	32775	
1309	0	32756	32842	
1310	0	32768	32695	
1311	0	32860	32838	
1312	0	32776	32752	
1313	0	32788	32810	
1314	0	32868	32756	
1315	0	32864	32880	
1316	0	32816	32812	
1317	0	32812	32775	
1318	0	32834	32722	
1319	0	32870	32702	
1320	0	32815	32903	
1321	0	32802	32764	
1322	0	32824	32734	
1323	0	32748	32766	
1324	0	32756	32818	
1325	0	32820	32718	
1326	0	32824	32743	
1327	0	32824	32814	
1328	0	32828	32724	
1329	0	32818	32786	
1330	0	32800	32690	
1331	0	32800	32732	
1332	0	32812	32836	
1333	0	32844	32782	
1334	0	32774	32856	
1335	0	32826	32826	
1336	0	32847	32720	
1337	0	32844	32673	
1338	0	32828	32672	
1339	0	32800	32801	
1340	0	32822	32774	
1341	0	32792	32762	
1342	0	32784	32788	
1343	0	32784	32752	
1344	0	32808	32722	
1345	0	32812	32810	
1346	0	32848	32806	
1347	0	32836	32788	
1348	0	32812	32775	
1349	0	32792	32680	
1350	0	32756	32706	
1351	0	32796	32855	
1352	0	32824	32799	
1353	0	32868	32750	
1354	0	32868	32714	
1355	0	32798	32775	
1356	0	32856	32722	
1357	0	32782	32708	
1358	0	32828	32774	
1359	0	32824	32864	
1360	0	32832	32736	
1361	0	32886	32748	
1362	0	32868	32719	
1363	0	32860	32658	
1364	0	32788	32688	
1365	0	32816	32872	
1366	0	32816	32868	
1367	0	32840	32738	
1368	0	32804	32716	
1369	0	32846	32801	
1370	0	32784	32839	
1371	0	32886	32724	
1372	0	32888	32774	
1373	0	32884	32792	
1374	0	32812	32790	
1375	0	32800	32690	
1376	0	32840	32832	
1377	0	32780	32775	
1378	0	32820	32710	
1379	0	32825	32752	
1380	0	32816	32775	
1381	0	32820	32748	
1382	0	32786	32796	
1383	0	32822	32788	
1384	0	32842	32732	
1385	0	32824	32700	
1386	0	32824	32812	
1387	0	32820	32798	
1388	0	32828	32775	
1389	0	32830	32708	
1390	0	32798	32774	
1391	0	32786	32806	
1392	0	32808	32759	
1393	0	32792	32658	
1394	0	32810	32828	
1395	0	32796	32728	
1396	0	32788	32816	
1397	0	32780	32772	
1398	0	32776	32692	
1399	0	32752	32722	
1400	0	32780	32852	
1401	0	32888	32722	
1402	0	32760	32798	
1403	0	32852	32826	
1404	0	32844	32824	
1405	0	32848	32687	
1406	0	32852	32775	
1407	0	32788	32816	
1408	0	32782	32807	
1409	0	32840	32700	
1410	0	32834	32810	
1411	0	32794	32814	
1412	0	32880	32799	
1413	0	32756	32732	
1414	0	32828	32836	
1415	0	32848	32840	
1416	0	32846	32716	
1417	0	32808	32834	
1418	0	32830	32736	
1419	0	32772	32860	
1420	0	32798	32724	
1421	0	32808	32752	
1422	0	32824	32856	
1423	0	32868	32666	
1424	0	32812	32836	
1425	0	32736	32810	
1426	0	32836	32704	
1427	0	32837	32822	
1428	0	32806	32728	
1429	0	32738	32716	
1430	0	32850	32740	
1431	0	32740	32834	
1432	0	32810	32754	
1433	0	32812	32834	
1434	0	32784	32742	
1435	0	32846	32692	
1436	0	32828	32798	
1437	0	32872	32770	
1438	0	32790	32832	
1439	0	32830	32680	
1440	0	32808	32828	
1441	0	32772	32800	
1442	0	32836	32814	
1443	0	32848	32692	
1444	0	32804	32760	
1445	0	32792	32830	
1446	0	32786	32792	
1447	0	32772	32692	
1448	0	32780	32762	
1449	0	32840	32786	
1450	0	32808	32598	
1451	0	32824	32660	
1452	0	32828	32800	
1453	0	32832	32757	
1454	0	32788	32796	
1455	0	32804	32684	
1456	0	32832	32680	
1457	0	32878	32760	
1458	0	32860	32922	
1459	0	32856	32788	
1460	0	32842	32702	
1461	0	32768	32692	
1462	0	32756	32724	
1463	0	32810	32801	
1464	0	32810	32804	
1465	0	32830	32834	
1466	0	32810	32750	
1467	0	32800	32678	
1468	0	32790	32734	
1469	0	32772	32812	
1470	0	32826	32796	
1471	0	32764	32792	
1472	0	32792	32746	
1473	0	32810	32732	
1474	0	32824	32748	
1475	0	32822	32792	
1476	0	32890	32706	
1477	0	32880	32868	
1478	0	32784	32730	
1479	0	32808	32668	
1480	0	32834	32775	
1481	0	32768	32798	
1482	0	32832	32796	
1483	0	32736	32727	
1484	0	32812	32772	
1485	0	32778	32780	
1486	0	32772	32798	
1487	0	32788	32772	
1488	0	32792	32676	
1489	0	32768	32655	
1490	0	32760	32775	
1491	0	32882	32770	
1492	0	32844	32796	
1493	0	32832	32798	
1494	0	32852	32718	
1495	0	32892	32720	
1496	0	32806	32834	
1497	0	32748	32792	
1498	0	32820	32704	
1499	0	32904	32852	
1500	0	32836	32710	
1501	0	32800	32668	
1502	0	32840	32836	
1503	0	32876	32760	
1504	0	32804	32871	
1505	0	32756	32804	
1506	0	32766	32700	
1507	0	32800	32732	
1508	0	32752	32838	
1509	0	32820	32716	
1510	0	32796	32820	
1511	0	32764	32775	
1512	0	32794	32858	
1513	0	32838	32768	
1514	0	32784	32769	
1515	0	32844	32688	
1516	0	32780	32843	
1517	0	32768	32748	
1518	0	32778	32817	
1519	0	32830	32830	
1520	0	32812	32792	
1521	0	32748	32712	
1522	0	32820	32663	
1523	0	32810	32695	
1524	0	32856	32760	
1525	0	32832	32758	
1526	0	32812	32834	
1527	0	32836	32836	
1528	0	32856	32766	
1529	0	32790	32704	
1530	0	32800	32670	
1531	0	32840	32736	
1532	0	32780	32792	
1533	0	32780	32742	
1534	0	32820	32774	
1535	0	32808	32815	
1536	0	32804	32834	
1537	0	32792	32724	
1538	0	32848	32686	
1539	0	32836	32775	
1540	0	32768	32762	
1541	0	32894	32788	
1542	0	32832	32804	
1543	0	32780	32700	
1544	0	32780	32834	
1545	0	32788	32796	
1546	0	32846	32807	
1547	0	32768	32706	
1548	0	32836	32692	
1549	0	32748	32826	
1550	0	32780	32736	
1551	0	32848	32788	
1552	0	32828	32816	
1553	0	32834	32716	
1554	0	32788	32660	
1555	0	32862	32832	
1556	0	32804	32806	
1557	0	32788	32770	
1558	0	32812	32740	
1559	0	32846	32748	
1560	0	32872	32796	
1561	0	32788	32772	
1562	0	32820	32732	
1563	0	32780	32804	
1564	0	32852	32784	
1565	0	32756	32706	
1566	0	32820	32842	
1567	0	32808	32720	
1568	0	32832	32784	
1569	0	32824	32724	
1570	0	32830	32672	
1571	0	32844	32892	
1572	0	32826	32794	
1573	0	32808	32844	
1574	0	32784	32816	
1575	0	32836	32704	
1576	0	32902	32804	
1577	0	32792	32798	
1578	0	32834	32790	
1579	0	32848	32784	
1580	0	32796	32771	
1581	0	32840	32652	
1582	0	32796	32676	
1583	0	32820	32734	
1584	0	32788	32752	
1585	0	32816	32814	
1586	0	32808	32842	
1587	0	32820	32775	
1588	0	32868	32711	
1589	0	32822	32724	
1590	0	32824	32864	
1591	0	32796	32768	
1592	0	32798	32732	
1593	0	32848	32764	
1594	0	32732	32775	
1595	0	32778	32742	
1596	0	32832	32746	
1597	0	32868	32804	
1598	0	32830	32840	
1599	0	32782	32708	
1600	0	32852	32754	
1601	0	32828	32830	
1602	0	32784	32806	
1603	0	32760	32724	
1604	0	32744	32759	
1605	0	32840	32826	
1606	0	32834	32775	
1607	0	32736	32682	
1608	0	32846	32788	
1609	0	32840	32740	
1610	0	32824	32838	
1611	0	32830	32791	
1612	0	32804	32816	
1613	0	32846	32720	
1614	0	32780	32736	
1615	0	32792	32826	
1616	0	32770	32812	
1617	0	32816	32679	
1618	0	32752	32710	
1619	0	32816	32646	
1620	0	32816	32856	
1621	0	32836	32716	
1622	0	32762	32770	
1623	0	32800	32804	
1624	0	32872	32696	
1625	0	32840	32860	
1626	0	32796	32828	
1627	0	32860	32702	
1628	0	32846	32762	
1629	0	32796	32716	
1630	0	32830	32802	
1631	0	32820	32770	
1632	0	32778	32807	
1633	0	32754	32792	
1634	0	32784	32702	
1635	0	32812	32844	
1636	0	32792	32840	
1637	0	32864	32812	
1638	0	32824	32814	
1639	0	32836	32764	
1640	0	32832	32822	
1641	0	32750	32732	
1642	0	32774	32824	
1643	0	32740	32676	
1644	0	32794	32848	
1645	0	32796	32716	
1646	0	32808	32802	
1647	0	32772	32686	
1648	0	32908	32846	
1649	0	32752	32804	
1650	0	32816	32855	
1651	0	32844	32854	
1652	0	32808	32711	
1653	0	32836	32710	
1654	0	32808	32700	
1655	0	32864	32708	
1656	0	32810	32834	
1657	0	32880	32766	
1658	0	32816	32670	
1659	0	32800	32688	
1660	0	32780	32834	
1661	0	32820	32722	
1662	0	32800	32852	
1663	0	32824	32732	
1664	0	32802	32604	
1665	0	32784	32760	
1666	0	32796	32860	
1667	0	32768	32848	
1668	0	32782	32728	
1669	0	32772	32844	
1670	0	32844	32770	
1671	0	32830	32816	
1672	0	32850	32768	
1673	0	32848	32690	
1674	0	32884	32784	
1675	0	32816	32784	
1676	0	32826	32806	
1677	0	32836	32768	
1678	0	32810	32708	
1679	0	32804	32860	
1680	0	32774	32744	
1681	0	32880	32871	
1682	0	32846	32708	
1683	0	32828	32703	
1684	0	32800	32822	
1685	0	32808	32730	
1686	0	32868	32775	
1687	0	32744	32676	
1688	0	32844	32800	
1689	0	32772	32786	
1690	0	32784	32841	
1691	0	32808	32736	
1692	0	32796	32838	
1693	0	32814	32700	
1694	0	32856	32816	
1695	0	32806	32738	
1696	0	32848	32672	
1697	0	32800	32848	
1698	0	32790	32800	
1699	0	32832	32774	
1700	0	32764	32692	
1701	0	32866	32739	
1702	0	32788	32748	
1703	0	32752	32828	
1704	0	32704	32758	
1705	0	32742	32772	
1706	0	32812	32748	
1707	0	32828	32638	
1708	0	32804	32852	
1709	0	32836	32738	
1710	0	32838	32775	
1711	0	32828	32834	
1712	0	32792	32864	
1713	0	32810	32692	
1714	0	32796	32696	
1715	0	32812	32800	
1716	0	32814	32822	
1717	0	32802	32760	
1718	0	32800	32754	
1719	0	32750	32732	
1720	0	32816	32818	
1721	0	32848	32874	
1722	0	32852	32682	
1723	0	32818	32858	
1724	0	32810	32722	
1725	0	32846	32776	
1726	0	32796	32824	
1727	0	32782	32880	
1728	0	32804	32636	
1729	0	32860	32766	
1730	0	32812	32846	
1731	0	32744	32750	
1732	0	32848	32806	
1733	0	32848	32774	
1734	0	32868	32788	
1735	0	32756	32658	
1736	0	32812	32676	
1737	0	32814	32858	
1738	0	32800	32874	
1739	0	32848	32671	
1740	0	32924	32900	
1741	0	32844	32774	
1742	0	32808	32724	
1743	0	32788	32736	
1744	0	32800	32796	
1745	0	32816	32808	
1746	0	32836	32702	
1747	0	32810	32824	
1748	0	32800	32796	
1749	0	32816	32710	
1750	0	32846	32792	
1751	0	32842	32712	
1752	0	32816	32668	
1753	0	32842	32769	
1754	0	32788	32774	
1755	0	32812	32834	
1756	0	32812	32786	
1757	0	32776	32724	
1758	0	32784	32790	
1759	0	32806	32840	
1760	0	32900	32826	
1761	0	32780	32647	
1762	0	32836	32804	
1763	0	32812	32726	
1764	0	32848	32718	
1765	0	32768	32732	
1766	0	32812	32766	
1767	0	32808	32838	
1768	0	32808	32742	
1769	0	32864	32692	
1770	0	32806	32872	
1771	0	32852	32746	
1772	0	32880	32762	
1773	0	32844	32734	
1774	0	32844	32878	
1775	0	32808	32762	
1776	0	32834	32836	
1777	0	32816	32828	
1778	0	32808	32708	
1779	0	32745	32860	
1780	0	32780	32758	
1781	0	32794	32672	
1782	0	32808	32768	
1783	0	32744	32743	
1784	0	32800	32784	
1785	0	32776	32736	
1786	0	32762	32886	
1787	0	32760	32764	
1788	0	32824	32838	
1789	0	32814	32748	
1790	0	32788	32784	
1791	0	32762	32764	
1792	0	32790	32782	
1793	0	32884	32676	
1794	0	32828	32764	
1795	0	32838	32740	
1796	0	32872	32880	
1797	0	32846	32756	
1798	0	32858	32848	
1799	0	32762	32775	
1800	0	32812	32792	
1801	0	32858	32784	
1802	0	32834	32732	
1803	0	32794	32794	
1804	0	32762	32736	
1805	0	32788	32854	
1806	0	32808	32722	
1807	0	32860	32680	
1808	0	32792	32758	
1809	0	32742	32780	
1810	0	32762	32748	
1811	0	32790	32832	
1812	0	32848	32710	
1813	0	32756	32798	
1814	0	32832	32828	
1815	0	32870	32806	
1816	0	32848	32642	
1817	0	32884	32768	
1818	0	32788	32800	
1819	0	32810	32788	
1820	0	32760	32836	
1821	0	32746	32674	
1822	0	32764	32700	
1823	0	32838	32708	
1824	0	32800	32764	
1825	0	32894	32748	
1826	0	32856	32838	
1827	0	32808	32828	
1828	0	32860	32730	
1829	0	32840	32768	
1830	0	32828	32834	
1831	0	32816	32760	
1832	0	32794	32728	
1833	0	32842	32762	
1834	0	32796	32688	
1835	0	32788	32855	
1836	0	32780	32766	
1837	0	32800	32800	
1838	0	32780	32808	
1839	0	32776	32624	
1840	0	32806	32716	
1841	0	32832	32828	
1842	0	32860	32740	
1843	0	32784	32786	
1844	0	32816	32772	
1845	0	32854	32814	
1846	0	32842	32806	
1847	0	32808	32686	
1848	0	32800	32696	
1849	0	32920	32724	
1850	0	32828	32704	
1851	0	32846	32764	
1852	0	32810	32860	
1853	0	32788	32812	
1854	0	32800	32784	
1855	0	32816	32694	
1856	0	32794	32783	
1857	0	32802	32866	
1858	0	32852	32738	
1859	0	32800	32676	
1860	0	32778	32684	
1861	0	32892	32663	
1862	0	32836	32690	
1863	0	32772	32844	
1864	0	32780	32738	
1865	0	32818	32846	
1866	0	32838	32756	
1867	0	32816	32775	
1868	0	32808	32754	
1869	0	32824	32854	
1870	0	32804	32807	
1871	0	32824	32760	
1872	0	32800	32807	
1873	0	32802	32775	
1874	0	32828	32756	
1875	0	32798	32839	
1876	0	32836	32684	
1877	0	32808	32714	
1878	0	32830	32788	
1879	0	32816	32748	
1880	0	32820	32798	
1881	0	32772	32679	
1882	0	32810	32752	
1883	0	32780	32832	
1884	0	32848	32775	
1885	0	32848	32762	
1886	0	32800	32810	
1887	0	32844	32700	
1888	0	32844	32698	
1889	0	32814	32775	
1890	0	32768	32788	
1891	0	32818	32764	
1892	0	32810	32732	
1893	0	32804	32718	
1894	0	32820	32752	
1895	0	32800	32820	
1896	0	32768	32854	
1897	0	32804	32634	
1898	0	32788	32718	
1899	0	32788	32856	
1900	0	32796	32775	
1901	0	32822	32784	
1902	0	32858	32830	
1903	0	32866	32832	
1904	0	32838	32684	
1905	0	32802	32696	
1906	0	32866	32788	
1907	0	32798	32746	
1908	0	32836	32826	
1909	0	32780	32750	
1910	0	32772	32752	
1911	0	32796	32864	
1912	0	32826	32706	
1913	0	32860	32880	
1914	0	32828	32690	
1915	0	32808	32775	
1916	0	32852	32920	
1917	0	32766	32772	
1918	0	32846	32774	
1919	0	32900	32796	
1920	0	32800	32711	
1921	0	32774	32686	
1922	0	32744	32738	
1923	0	32784	32812	
1924	0	32808	32775	
1925	0	32844	32852	
1926	0	32812	32808	
1927	0	32820	32782	
1928	0	32758	32648	
1929	0	32800	32844	
1930	0	32760	32772	
1931	0	32804	32796	
1932	0	32812	32644	
1933	0	32768	32790	
1934	0	32808	32798	
1935	0	32854	32832	
1936	0	32848	32656	
1937	0	32791	32742	
1938	0	32784	32678	
1939	0	32788	32752	
1940	0	32774	32772	
1941	0	32804	32692	
1942	0	32830	32656	
1943	0	32788	32808	
1944	0	32828	32738	
1945	0	32808	32775	
1946	0	32794	32810	
1947	0	32808	32834	
1948	0	32802	32730	
1949	0	32780	32595	
1950	0	32812	32750	
1951	0	32822	32767	
1952	0	32824	32744	
1953	0	32888	32852	
1954	0	32768	32838	
1955	0	32808	32852	
1956	0	32822	32836	
1957	0	32818	32807	
1958	0	32840	32796	
1959	0	32804	32768	
1960	0	32836	32694	
1961	0	32852	32754	
1962	0	32820	32872	
1963	0	32772	32836	
1964	0	32840	32687	
1965	0	32822	32682	
1966	0	32818	32768	
1967	0	32844	32736	
1968	0	32804	32716	
1969	0	32836	32728	
1970	0	32844	32694	
1971	0	32830	32679	
1972	0	32792	32728	
1973	0	32840	32726	
1974	0	32780	32746	
1975	0	32814	32664	
1976	0	32820	32686	
1977	0	32808	32766	
1978	0	32832	32764	
1979	0	32756	32812	
1980	0	32782	32786	
1981	0	32784	32647	
1982	0	32828	32828	
1983	0	32826	32730	
1984	0	32828	32790	
1985	0	32812	32876	
1986	0	32807	32775	
1987	0	32774	32689	
1988	0	32778	32880	
1989	0	32814	32752	
1990	0	32812	32774	
1991	0	32828	32808	
1992	0	32736	32770	
1993	0	32776	32736	
1994	0	32832	32664	
1995	0	32874	32738	
1996	0	32864	32756	
1997	0	32832	32798	
1998	0	32802	32744	
1999	0	32800	32775	
2000	0	32812	32698	
2001	0	32824	32710	
2002	0	32796	32840	
2003	0	32792	32790	
2004	0	32820	32834	
2005	0	32824	32798	
2006	0	32804	32828	
2007	0	32796	32668	
2008	0	32772	32696	
2009	0	32768	32722	
2010	0	32820	32838	
2011	0	32836	32848	
2012	0	32818	32754	
2013	0	32798	32790	
2014	0	32852	32768	
2015	0	32780	32814	
2016	0	32824	32756	
2017	0	32760	32688	
2018	0	32778	32812	
2019	0	32752	32768	
2020	0	32854	32788	
2021	0	32782	32670	
2022	0	32820	32654	
2023	0	32798	32774	
2024	0	32796	32740	
2025	0	32808	32846	
2026	0	32872	32838	
2027	0	32804	32706	
2028	0	32762	32852	
2029	0	32764	32724	
2030	0	32814	32832	
2031	0	32824	32698	
2032	0	32830	32740	
2033	0	32828	32720	
2034	0	32768	32842	
2035	0	32856	32732	
2036	0	32820	32774	
2037	0	32816	32852	
2038	0	32820	32782	
2039	0	32844	32860	
2040	0	32820	32726	
2041	0	32821	32678	
2042	0	32804	32792	
2043	0	32800	32826	
2044	0	32792	32775	
2045	0	32785	32694	
2046	0	32780	32826	
2047	0	32756	32854	
2048	0	32764	32708	
2049	0	32800	32760	
2050	0	32828	32770	
2051	0	32824	32796	
2052	0	32784	32710	
2053	0	32836	32698	
2054	0	32770	32768	
2055	0	32786	32810	
2056	0	32842	32802	
2057	0	32792	32692	
2058	0	32764	32798	
2059	0	32756	32802	
2060	0	32789	32744	
2061	0	32796	32822	
2062	0	32700	32738	
2063	0	32756	32688	
2064	0	32696	32726	
2065	0	32766	32804	
2066	0	32784	32836	
2067	0	32688	32852	
2068	0	32757	32884	
2069	0	32732	32775	
2070	0	32762	32756	
2071	0	32768	32848	
2072	0	32786	32822	
2073	0	32700	32830	
2074	0	32718	32704	
2075	0	32674	32748	
2076	0	32742	32846	
2077	0	32696	32798	
2078	0	32664	32868	
2079	0	32728	32792	
2080	0	32704	32761	
2081	0	32788	32850	
2082	0	32772	32800	
2083	0	32848	32846	
2084	0	32832	32647	
2085	0	32854	32710	
2086	0	32928	32666	
2087	0	32912	32748	
2088	0	33000	32622	
2089	0	33072	32656	
2090	0	33144	32586	
2091	0	33176	32622	
2092	0	33213	32532	
2093	0	33260	32458	
2094	0	33302	32568	
2095	0	33312	32564	
2096	0	33308	32544	
2097	0	33280	32551	
2098	0	33244	32737	
2099	0	33120	32735	
2100	0	32956	32900	
2101	0	32954	32738	
2102	0	32790	32764	
2103	0	32624	32958	
2104	0	32500	32928	
2105	0	32524	32888	
2106	0	32512	32868	
2107	0	32494	32942	
2108	0	32500	32842	
2109	0	32561	32902	
2110	0	32534	32792	
2111	0	32516	32710	
2112	0	32608	32775	
2113	0	32656	32844	
2114	0	32596	32764	
2115	0	32686	32836	
2116	0	32728	32808	
2117	0	32752	32750	
2118	0	32738	32734	
2119	0	32736	32732	
2120	0	32736	32816	
2121	0	32760	32788	
2122	0	32770	32676	
2123	0	32744	32752	
2124	0	32792	32740	
2125	0	32816	32732	
2126	0	32804	32874	
2127	0	32848	32800	
2128	0	32860	32768	
2129	0	32770	32792	
2130	0	32792	32732	
2131	0	32800	32796	
2132	0	32852	32792	
2133	0	32832	32734	
2134	0	32802	32746	
2135	0	32808	32775	
2136	0	32808	32730	
2137	0	32840	32834	
2138	0	32868	32728	
2139	0	32816	32668	
2140	0	32746	32740	
2141	0	32834	32728	
2142	0	32832	32824	
2143	0	32864	32821	
2144	0	32848	32720	
2145	0	32848	32700	
2146	0	32848	32812	
2147	0	32816	32800	
2148	0	32832	32828	
2149	0	32816	32816	
2150	0	32828	32684	
2151	0	32812	32692	
2152	0	32704	32783	
2153	0	32760	32775	
2154	0	32754	32756	
2155	0	32812	32724	
2156	0	32764	32736	
2157	0	32808	32812	
2158	0	32824	32762	
2159	0	32840	32742	
2160	0	32846	32866	
2161	0	32808	32719	
2162	0	32836	32664	
2163	0	32800	32760	
2164	0	32856	32750	
2165	0	32804	32775	
2166	0	32824	32794	
2167	0	32870	32694	
2168	0	32816	32738	
2169	0	32756	32766	
2170	0	32798	32798	
2171	0	32856	32772	
2172	0	32850	32768	
2173	0	32840	32775	
2174	0	32842	32766	
2175	0	32820	32770	
2176	0	32824	32732	
2177	0	32800	32775	
2178	0	32812	32800	
2179	0	32814	32772	
2180	0	32912	32824	
2181	0	32792	32812	
2182	0	32816	32792	
2183	0	32790	32772	
2184	0	32856	32750	
2185	0	32780	32662	
2186	0	32756	32710	
2187	0	32848	32692	
2188	0	32804	32722	
2189	0	32824	32826	
2190	0	32794	32768	
2191	0	32808	32858	
2192	0	32820	32744	
2193	0	32848	32742	
2194	0	32848	32710	
2195	0	32816	32852	
2196	0	32834	32832	
2197	0	32808	32842	
2198	0	32796	32758	
2199	0	32860	32682	
2200	0	32832	32908	
2201	0	32816	32804	
2202	0	32804	32792	
2203	0	32792	32722	
2204	0	32792	32706	
2205	0	32796	32848	
2206	0	32784	32736	
2207	0	32784	32818	
2208	0	32794	32702	
2209	0	32832	32732	
2210	0	32774	32775	
2211	0	32814	32734	
2212	0	32728	32788	
2213	0	32830	32799	
2214	0	32764	32656	
2215	0	32784	32754	
2216	0	32820	32722	
2217	0	32752	32802	
2218	0	32832	32752	
2219	0	32820	32860	
2220	0	32828	32766	
2221	0	32748	32676	
2222	0	32784	32746	
2223	0	32832	32886	
2224	0	32766	32712	
2225	0	32824	32764	
2226	0	32820	32842	
2227	0	32788	32750	
2228	0	32814	32656	
2229	0	32760	32679	
2230	0	32812	32764	
2231	0	32836	32814	
2232	0	32888	32775	
2233	0	32882	32848	
2234	0	32792	32775	
2235	0	32794	32676	
2236	0	32830	32682	
2237	0	32756	32828	
2238	0	32842	32842	
2239	0	32885	32834	
2240	0	32744	32724	
2241	0	32826	32724	
2242	0	32860	32756	
2243	0	32836	32746	
2244	0	32804	32734	
2245	0	32788	32796	
2246	0	32860	32821	
2247	0	32836	32756	
2248	0	32810	32810	
2249	0	32860	32734	
2250	0	32784	32744	
2251	0	32836	32796	
2252	0	32828	32708	
2253	0	32768	32792	
2254	0	32816	32658	
2255	0	32800	32722	
2256	0	32860	32828	
2257	0	32780	32775	
2258	0	32826	32775	
2259	0	32798	32808	
2260	0	32852	32708	
2261	0	32852	32654	
2262	0	32792	32708	
2263	0	32852	32842	
2264	0	32808	32796	
2265	0	32780	32850	
2266	0	32798	32836	
2267	0	32800	32742	
2268	0	32794	32856	
2269	0	32772	32766	
2270	0	32770	32834	
2271	0	32848	32792	
2272	0	32856	32810	
2273	0	32840	32822	
2274	0	32804	32712	
2275	0	32796	32880	
2276	0	32768	32748	
2277	0	32840	32724	
2278	0	32756	32716	
2279	0	32862	32790	
2280	0	32804	32806	
2281	0	32740	32794	
2282	0	32780	32804	
2283	0	32756	32788	
2284	0	32886	32672	
2285	0	32784	32756	
2286	0	32860	32896	
2287	0	32808	32818	
2288	0	32808	32822	
2289	0	32792	32800	
2290	0	32824	32762	
2291	0	32840	32775	
2292	0	32784	32756	
2293	0	32768	32710	
2294	0	32808	32844	
2295	0	32760	32772	
2296	0	32870	32696	
2297	0	32894	32814	
2298	0	32834	32868	
2299	0	32792	32740	
2300	0	32852	32688	
2301	0	32844	32768	
2302	0	32804	32708	
2303	0	32806	32746	
2304	0	32768	32704	
2305	0	32825	32818	
2306	0	32846	32820	
2307	0	32850	32854	
2308	0	32806	32790	
2309	0	32788	32722	
2310	0	32820	32796	
2311	0	32776	32774	
2312	0	32828	32750	
2313	0	32836	32844	
2314	0	32752	32764	
2315	0	32896	32744	
2316	0	32756	32736	
2317	0	32836	32684	
2318	0	32856	32775	
2319	0	32878	32775	
2320	0	32816	32720	
2321	0	32808	32761	
2322	0	32842	32746	
2323	0	32808	32740	
2324	0	32792	32710	
2325	0	32814	32740	
2326	0	32850	32736	
2327	0	32868	32686	
2328	0	32812	32704	
2329	0	32836	32718	
2330	0	32864	32784	
2331	0	32788	32738	
2332	0	32844	32748	
2333	0	32860	32714	
2334	0	32776	32798	
2335	0	32856	32756	
2336	0	32882	32624	
2337	0	32828	32662	
2338	0	32802	32714	
2339	0	32816	32804	
2340	0	32802	32762	
2341	0	32824	32700	
2342	0	32764	32748	
2343	0	32808	32834	
2344	0	32828	32792	
2345	0	32764	32716	
2346	0	32816	32700	
2347	0	32780	32743	
2348	0	32816	32784	
2349	0	32754	32724	
2350	0	32864	32818	
2351	0	32836	32759	
2352	0	32900	32775	
2353	0	32853	32812	
2354	0	32868	32848	
2355	0	32764	32798	
2356	0	32852	32743	
2357	0	32804	32724	
2358	0	32862	32838	
2359	0	32788	32775	
2360	0	32776	32746	
2361	0	32732	32774	
2362	0	32766	32814	
2363	0	32808	32672	
2364	0	32856	32696	
2365	0	32846	32798	
2366	0	32816	32760	
2367	0	32796	32711	
2368	0	32816	32856	
2369	0	32800	32775	
2370	0	32821	32772	
2371	0	32808	32684	
2372	0	32804	32697	
2373	0	32856	32884	
2374	0	32808	32800	
2375	0	32800	32752	
2376	0	32856	32864	
2377	0	32808	32826	
2378	0	32828	32846	
2379	0	32828	32687	
2380	0	32796	32768	
2381	0	32784	32712	
2382	0	32810	32828	
2383	0	32772	32807	
2384	0	32840	32852	
2385	0	32788	32728	
2386	0	32806	32628	
2387	0	32766	32734	
2388	0	32796	32866	
2389	0	32834	32848	
2390	0	32808	32824	
2391	0	32772	32790	
2392	0	32832	32770	
2393	0	32828	32742	
2394	0	32808	32674	
2395	0	32812	32730	
2396	0	32846	32792	
2397	0	32820	32796	
2398	0	32840	32764	
2399	0	32798	32840	
2400	0	32768	32751	
2401	0	32794	32688	
2402	0	32828	32672	
2403	0	32820	32720	
2404	0	32768	32892	
2405	0	32792	32760	
2406	0	32852	32798	
2407	0	32788	32716	
2408	0	32800	32688	
2409	0	32842	32852	
2410	0	32840	32775	
2411	0	32758	32804	
2412	0	32880	32804	
2413	0	32824	32858	
2414	0	32788	32756	
2415	0	32896	32660	
2416	0	32784	32620	
2417	0	32840	32720	
2418	0	32836	32774	
2419	0	32778	32842	
2420	0	32824	32745	
2421	0	32744	32666	
2422	0	32782	32724	
2423	0	32780	32770	
2424	0	32812	32754	
2425	0	32740	32808	
2426	0	32864	32810	
2427	0	32788	32686	
2428	0	32772	32810	
2429	0	32754	32775	
2430	0	32764	32756	
2431	0	32824	32804	
2432	0	32852	32871	
2433	0	32820	32764	
2434	0	32860	32712	
2435	0	32742	32708	
2436	0	32818	32664	
2437	0	32840	32794	
2438	0	32828	32772	
2439	0	32802	32748	
2440	0	32868	32859	
2441	0	32768	32758	
2442	0	32812	32742	
2443	0	32776	32700	
2444	0	32740	32816	
2445	0	32792	32804	
2446	0	32724	32844	
2447	0	32840	32722	
2448	0	32880	32656	
2449	0	32776	32708	
2450	0	32768	32884	
2451	0	32792	32906	
2452	0	32768	32730	
2453	0	32820	32806	
2454	0	32808	32774	
2455	0	32788	32716	
2456	0	32812	32800	
2457	0	32788	32810	
2458	0	32780	32836	
2459	0	32840	32796	
2460	0	32848	32706	
2461	0	32864	32696	
2462	0	32820	32774	
2463	0	32846	32798	
2464	0	32872	32748	
2465	0	32876	32801	
2466	0	32820	32772	
2467	0	32816	32702	
2468	0	32744	32760	
2469	0	32814	32742	
2470	0	32792	32816	
2471	0	32804	32788	
2472	0	32810	32732	
2473	0	32816	32694	
2474	0	32796	32832	
2475	0	32860	32790	
2476	0	32800	32828	
2477	0	32774	32708	
2478	0	32804	32692	
2479	0	32808	32732	
2480	0	32728	32818	
2481	0	32826	32775	
2482	0	32784	32796	
2483	0	32862	32650	
2484	0	32860	32690	
2485	0	32788	32812	
2486	0	32816	32706	
2487	0	32808	32808	
2488	0	32804	32839	
2489	0	32732	32796	
2490	0	32768	32868	
2491	0	32842	32734	
2492	0	32824	32612	
2493	0	32846	32796	
2494	0	32834	32740	
2495	0	32846	32738	
2496	0	32872	32826	
2497	0	32826	32756	
2498	0	32892	32666	
2499	0	32808	32716	
2500	0	32831	32834	
2501	0	32788	32802	
2502	0	32786	32730	
2503	0	32780	32798	
2504	0	32836	32856	
2505	0	32768	32760	
2506	0	32792	32752	
2507	0	32808	32750	
2508	0	32794	32900	
2509	0	32784	32692	
2510	0	32770	32724	
2511	0	32820	32842	
2512	0	32852	32852	
2513	0	32876	32714	
2514	0	32756	32910	
2515	0	32786	32775	
2516	0	32806	32736	
2517	0	32862	32740	
2518	0	32836	32804	
2519	0	32814	32774	
2520	0	32812	32756	
2521	0	32798	32756	
2522	0	32772	32766	
2523	0	32820	32714	
2524	0	32832	32912	
2525	0	32804	32798	
2526	0	32852	32756	
2527	0	32828	32810	
2528	0	32816	32830	
2529	0	32830	32712	
2530	0	32748	32807	
2531	0	32806	32744	
2532	0	32864	32784	
2533	0	32844	32836	
2534	0	32724	32774	
2535	0	32776	32668	
2536	0	32776	32660	
2537	0	32856	32736	
2538	0	32852	32824	
2539	0	32774	32754	
2540	0	32800	32690	
2541	0	32834	32692	
2542	0	32740	32754	
2543	0	32876	32814	
2544	0	32804	32800	
2545	0	32780	32844	
2546	0	32776	32775	
2547	0	32836	32740	
2548	0	32754	32775	
2549	0	32840	32677	
2550	0	32756	32702	
2551	0	32864	32758	
2552	0	32796	32764	
2553	0	32800	32842	
2554	0	32792	32874	
2555	0	32848	32688	
2556	0	32756	32848	
2557	0	32826	32820	
2558	0	32830	32775	
2559	0	32801	32882	
2560	0	32748	32802	
2561	0	32816	32742	
2562	0	32828	32788	
2563	0	32764	32792	
2564	0	32792	32758	
2565	0	32772	32688	
2566	0	32820	32852	
2567	0	32820	32743	
2568	0	32840	32748	
2569	0	32782	32796	
2570	0	32800	32716	
2571	0	32858	32636	
2572	0	32870	32724	
2573	0	32856	32784	
2574	0	32804	32832	
2575	0	32858	32720	
2576	0	32856	32822	
2577	0	32870	32824	
2578	0	32800	32766	
2579	0	32844	32686	
2580	0	32760	32828	
2581	0	32790	32758	
2582	0	32798	32812	
2583	0	32748	32702	
2584	0	32764	32702	
2585	0	32796	32848	
2586	0	32812	32792	
2587	0	32784	32796	
2588	0	32836	32932	
2589	0	32844	32652	
2590	0	32836	32708	
2591	0	32784	32804	
2592	0	32832	32808	
2593	0	32896	32823	
2594	0	32812	32762	
2595	0	32752	32866	
2596	0	32794	32872	
2597	0	32824	32774	
2598	0	32762	32866	
2599	0	32780	32674	
2600	0	32804	32695	
2601	0	32874	32742	
2602	0	32800	32802	
2603	0	32774	32724	
2604	0	32864	32775	
2605	0	32826	32766	
2606	0	32818	32664	
2607	0	32884	32734	
2608	0	32836	32814	
2609	0	32808	32772	
2610	0	32800	32678	
2611	0	32804	32839	
2612	0	32788	32858	
2613	0	32880	32696	
2614	0	32856	32732	
2615	0	32836	32724	
2616	0	32800	32790	
2617	0	32840	32804	
2618	0	32800	32852	
2619	0	32840	32812	
2620	0	32810	32804	
2621	0	32812	32676	
2622	0	32816	32702	
2623	0	32840	32728	
2624	0	32802	32748	
2625	0	32800	32768	
2626	0	32804	32768	
2627	0	32804	32796	
2628	0	32838	32772	
2629	0	32850	32799	
2630	0	32784	32810	
2631	0	32770	32647	
2632	0	32832	32678	
2633	0	32824	32852	
2634	0	32836	32788	
2635	0	32884	32775	
2636	0	32836	32730	
2637	0	32792	32716	
2638	0	32764	32788	
2639	0	32822	32752	
2640	0	32740	32744	
2641	0	32756	32656	
2642	0	32810	32728	
2643	0	32856	32744	
2644	0	32828	32768	
2645	0	32824	32852	
2646	0	32864	32798	
2647	0	32728	32860	
2648	0	32822	32808	
2649	0	32824	32684	
2650	0	32780	32916	
2651	0	32800	32790	
2652	0	32776	32772	
2653	0	32792	32748	
2654	0	32800	32718	
2655	0	32832	32716	
2656	0	32744	32804	
2657	0	32774	32754	
2658	0	32820	32839	
2659	0	32788	32834	
2660	0	32834	32775	
2661	0	32852	32774	
2662	0	32748	32644	
2663	0	32802	32680	
2664	0	32838	32848	
2665	0	32820	32762	
2666	0	32816	32724	
2667	0	32824	32814	
2668	0	32800	32742	
2669	0	32852	32806	
2670	0	32850	32742	
2671	0	32872	32714	
2672	0	32768	32724	
2673	0	32808	32854	
2674	0	32790	32802	
2675	0	32860	32748	
2676	0	32786	32774	
2677	0	32872	32706	
2678	0	32808	32772	
2679	0	32828	32766	
2680	0	32814	32718	
2681	0	32800	32789	
2682	0	32792	32798	
2683	0	32804	32790	
2684	0	32788	32826	
2685	0	32792	32775	
2686	0	32852	32668	
2687	0	32834	32728	
2688	0	32800	32842	
2689	0	32794	32862	
2690	0	32832	32798	
2691	0	32792	32725	
2692	0	32802	32796	
2693	0	32804	32788	
2694	0	32846	32740	
2695	0	32820	32812	
2696	0	32838	32764	
2697	0	32840	32780	
2698	0	32802	32682	
2699	0	32860	32694	
2700	0	32784	32712	
2701	0	32836	32704	
2702	0	32876	32748	
2703	0	32820	32822	
2704	0	32828	32756	
2705	0	32780	32804	
2706	0	32714	32844	
2707	0	32860	32784	
2708	0	32832	32716	
2709	0	32836	32670	
2710	0	32756	32738	
2711	0	32792	32856	
2712	0	32814	32758	
2713	0	32776	32800	
2714	0	32818	32812	
2715	0	32878	32775	
2716	0	32792	32928	
2717	0	32830	32678	
2718	0	32842	32676	
2719	0	32816	32838	
2720	0	32836	32836	
2721	0	32816	32807	
2722	0	32878	32708	
2723	0	32836	32725	
2724	0	32752	32775	
2725	0	32836	32812	
2726	0	32816	32831	
2727	0	32808	32701	
2728	0	32784	32707	
2729	0	32800	32796	
2730	0	32800	32768	
2731	0	32824	32772	
2732	0	32780	32784	
2733	0	32804	32772	
2734	0	32818	32658	
2735	0	32864	32860	
2736	0	32856	32766	
2737	0	32856	32730	
2738	0	32842	32834	
2739	0	32780	32758	
2740	0	32804	32664	
2741	0	32824	32768	
2742	0	32760	32808	
2743	0	32834	32848	
2744	0	32798	32736	
2745	0	32800	32698	
2746	0	32842	32716	
2747	0	32748	32831	
2748	0	32842	32756	
2749	0	32820	32828	
2750	0	32894	32742	
2751	0	32788	32720	
2752	0	32776	32740	
2753	0	32862	32911	
2754	0	32860	32762	
2755	0	32808	32775	
2756	0	32794	32775	
2757	0	32776	32798	
2758	0	32778	32774	
2759	0	32760	32746	
2760	0	32808	32746	
2761	0	32852	32680	
2762	0	32836	32756	
2763	0	32752	32760	
2764	0	32750	32860	
2765	0	32844	32822	
2766	0	32828	32884	
2767	0	32820	32844	
2768	0	32898	32882	
2769	0	32792	32740	
2770	0	32826	32734	
2771	0	32800	32696	
2772	0	32794	32820	
2773	0	32854	32775	
2774	0	32862	32720	
2775	0	32824	32786	
2776	0	32804	32798	
2777	0	32808	32746	
2778	0	32732	32744	
2779	0	32789	32734	
2780	0	32812	32654	
2781	0	32772	32692	
2782	0	32800	32680	
2783	0	32760	32822	
2784	0	32824	32744	
2785	0	32830	32756	
2786	0	32884	32792	
2787	0	32776	32782	
2788	0	32760	32807	
2789	0	32848	32708	
2790	0	32784	32678	
2791	0	32832	32744	
2792	0	32792	32808	
2793	0	32860	32850	
2794	0	32830	32768	
2795	0	32790	32668	
2796	0	32814	32756	
2797	0	32810	32752	
2798	0	32820	32810	
2799	0	32796	32838	
2800	0	32808	32852	
2801	0	32872	32774	
2802	0	32840	32756	
2803	0	32775	32704	
2804	0	32870	32730	
2805	0	32772	32720	
2806	0	32796	32910	
2807	0	32804	32775	
2808	0	32814	32784	
2809	0	32804	32774	
2810	0	32844	32696	
2811	0	32800	32736	
2812	0	32820	32784	
2813	0	32804	32760	
2814	0	32804	32770	
2815	0	32796	32730	
2816	0	32820	32870	
2817	0	32864	32688	
2818	0	32834	32708	
2819	0	32780	32692	
2820	0	32800	32738	
2821	0	32852	32812	
2822	0	32822	32716	
2823	0	32908	32678	
2824	0	32808	32719	
2825	0	32792	32758	
2826	0	32844	32806	
2827	0	32800	32740	
2828	0	32900	32694	
2829	0	32756	32714	
2830	0	32820	32808	
2831	0	32784	32866	
2832	0	32808	32824	
2833	0	32862	32806	
2834	0	32748	32810	
2835	0	32792	32758	
2836	0	32832	32710	
2837	0	32844	32740	
2838	0	32836	32704	
2839	0	32896	32710	
2840	0	32844	32760	
2841	0	32768	32750	
2842	0	32824	32732	
2843	0	32762	32760	
2844	0	32756	32814	
2845	0	32804	32750	
2846	0	32880	32728	
2847	0	32824	32732	
2848	0	32800	32882	
2849	0	32782	32742	
2850	0	32794	32756	
2851	0	32856	32806	
2852	0	32842	32868	
2853	0	32828	32756	
2854	0	32866	32696	
2855	0	32816	32662	
2856	0	32746	32647	
2857	0	32820	32736	
2858	0	32828	32832	
2859	0	32816	32820	
2860	0	32904	32772	
2861	0	32832	32730	
2862	0	32790	32742	
2863	0	32852	32792	
2864	0	32828	32724	
2865	0	32808	32714	
2866	0	32796	32700	
2867	0	32868	32820	
2868	0	32794	32812	
2869	0	32800	32788	
2870	0	32768	32768	
2871	0	32816	32814	
2872	0	32788	32740	
2873	0	32788	32686	
2874	0	32764	32660	
2875	0	32808	32775	
2876	0	32780	32807	
2877	0	32874	32820	
2878	0	32796	32752	
2879	0	32848	32804	
2880	0	32818	32840	
2881	0	32812	32686	
2882	0	32824	32648	
2883	0	32766	32804	
2884	0	32760	32806	
2885	0	32772	32868	
2886	0	32832	32798	
2887	0	32816	32816	
2888	0	32846	32760	
2889	0	32860	32775	
2890	0	32820	32748	
2891	0	32782	32834	
2892	0	32808	32720	
2893	0	32836	32898	
2894	0	32824	32672	
2895	0	32864	32740	
2896	0	32768	32682	
2897	0	32840	32684	
2898	0	32758	32832	
2899	0	32808	32775	
2900	0	32788	32748	
2901	0	32814	32820	
2902	0	32786	32738	
2903	0	32828	32708	
2904	0	32832	32694	
2905	0	32808	32802	
2906	0	32808	32820	
2907	0	32764	32756	
2908	0	32792	32774	
2909	0	32820	32740	
2910	0	32852	32788	
2911	0	32852	32743	
2912	0	32844	32788	
2913	0	32868	32814	
2914	0	32852	32806	
2915	0	32732	32728	
2916	0	32756	32814	
2917	0	32804	32807	
2918	0	32822	32700	
2919	0	32800	32592	
2920	0	32826	32744	
2921	0	32810	32820	
2922	0	32760	32748	
2923	0	32816	32792	
2924	0	32816	32748	
2925	0	32716	32738	
2926	0	32828	32692	
2927	0	32820	32655	
2928	0	32840	32718	
2929	0	32836	32918	
2930	0	32810	32800	
2931	0	32832	32804	
2932	0	32852	32764	
2933	0	32788	32816	
2934	0	32832	32870	
2935	0	32808	32734	
2936	0	32828	32708	
2937	0	32820	32676	
2938	0	32812	32743	
2939	0	32744	32840	
2940	0	32864	32762	
2941	0	32768	32740	
2942	0	32860	32806	
2943	0	32736	32698	
2944	0	32812	32800	
2945	0	32828	32696	
2946	0	32806	32816	
2947	0	32768	32808	
2948	0	32818	32846	
2949	0	32828	32866	
2950	0	32858	32774	
2951	0	32844	32748	
2952	0	32836	32824	
2953	0	32816	32824	
2954	0	32820	32816	
2955	0	32804	32774	
2956	0	32864	32749	
2957	0	32837	32842	
2958	0	32768	32788	
2959	0	32816	32784	
2960	0	32830	32800	
2961	0	32828	32794	
2962	0	32810	32710	
2963	0	32816	32722	
2964	0	32862	32668	
2965	0	32810	32740	
2966	0	32848	32725	
2967	0	32790	32696	
2968	0	32812	32748	
2969	0	32804	32874	
2970	0	32752	32852	
2971	0	32748	32744	
2972	0	32778	32814	
2973	0	32848	32834	
2974	0	32810	32708	
2975	0	32804	32880	
2976	0	32816	32775	
2977	0	32832	32712	
2978	0	32824	32842	
2979	0	32810	32684	
2980	0	32796	32670	
2981	0	32818	32635	
2982	0	32856	32758	
2983	0	32828	32702	
2984	0	32840	32802	
2985	0	32760	32698	
2986	0	32832	32744	
2987	0	32812	32678	
2988	0	32746	32710	
2989	0	32840	32758	
2990	0	32876	32822	
2991	0	32840	32768	
2992	0	32769	32752	
2993	0	32888	32674	
2994	0	32812	32704	
2995	0	32852	32802	
2996	0	32834	32788	
2997	0	32852	32840	
2998	0	32794	32686	
2999	0	32842	32740	
3000	0	32778	32782	
3001	0	32846	32784	
3002	0	32804	32806	
3003	0	32814	32768	
3004	0	32824	32760	
3005	0	32784	32775	
3006	0	32790	32775	
3007	0	32812	32862	
3008	0	32746	32764	
3009	0	32784	32676	
3010	0	32832	32810	
3011	0	32852	32734	
3012	0	32828	32810	
3013	0	32806	32746	
3014	0	32776	32700	
3015	0	32760	32736	
3016	0	32796	32838	
3017	0	32808	32775	
3018	0	32776	32836	
3019	0	32828	32718	
3020	0	32848	32775	
3021	0	32812	32743	
3022	0	32756	32796	
3023	0	32804	32719	
3024	0	32756	32696	
3025	0	32760	32668	
3026	0	32782	32775	
3027	0	32774	32823	
3028	0	32778	32775	
3029	0	32774	32724	
3030	0	32788	32782	
3031	0	32716	32822	
3032	0	32700	32807	
3033	0	32740	32814	
3034	0	32740	32620	
3035	0	32776	32728	
3036	0	32752	32820	
3037	0	32680	32784	
3038	0	32670	32852	
3039	0	32640	32748	
3040	0	32688	32775	
3041	0	32712	32871	
3042	0	32700	32812	
3043	0	32676	32844	
3044	0	32680	32888	
3045	0	32790	32822	
3046	0	32736	32660	
3047	0	32780	32674	
3048	0	32828	32756	
3049	0	32834	32703	
3050	0	32892	32727	
3051	0	32968	32732	
3052	0	33000	32628	
3053	0	33112	32562	
3054	0	33100	32568	
3055	0	33160	32688	
3056	0	33220	32468	
3057	0	33266	32450	
3058	0	33332	32590	
3059	0	33292	32550	
3060	0	33244	32602	
3061	0	33256	32486	
3062	0	33188	32626	
3063	0	33108	32774	
3064	0	33032	32856	
3065	0	32844	32730	
3066	0	32820	32748	
3067	0	32698	32914	
3068	0	32580	32966	
3069	0	32552	32956	
3070	0	32480	32798	
3071	0	32656	32846	
3072	0	32506	32856	
3073	0	32512	32856	
3074	0	32586	32740	
3075	0	32597	32934	
3076	0	32610	32846	
3077	0	32622	32775	
3078	0	32626	32816	
3079	0	32764	32646	
3080	0	32666	32700	
3081	0	32688	32800	
3082	0	32720	32796	
3083	0	32744	32850	
3084	0	32804	32832	
3085	0	32792	32752	
3086	0	32772	32750	
3087	0	32830	32764	
3088	0	32790	32856	
3089	0	32836	32742	
3090	0	32778	32814	
3091	0	32802	32820	
3092	0	32852	32736	
3093	0	32710	32788	
3094	0	32804	32772	
3095	0	32842	32762	
3096	0	32848	32647	
3097	0	32832	32804	
3098	0	32770	32770	
3099	0	32800	32820	
3100	0	32796	32722	
3101	0	32804	32864	
3102	0	32818	32712	
3103	0	32834	32816	
3104	0	32856	32730	
3105	0	32824	32688	
3106	0	32794	32874	
3107	0	32848	32792	
3108	0	32820	32772	
3109	0	32838	32688	
3110	0	32828	32806	
3111	0	32852	32724	
3112	0	32844	32846	
3113	0	32830	32711	
3114	0	32834	32782	
3115	0	32834	32712	
3116	0	32792	32852	
3117	0	32817	32792	
3118	0	32868	32716	
3119	0	32836	32768	
3120	0	32840	32830	
3121	0	32844	32730	
3122	0	32772	32622	
3123	0	32712	32684	
3124	0	32822	32824	
3125	0	32824	32849	
3126	0	32816	32730	
3127	0	32806	32820	
3128	0	32830	32730	
3129	0	32848	32796	
3130	0	32828	32788	
3131	0	32776	32822	
3132	0	32816	32676	
3133	0	32822	32816	
3134	0	32832	32736	
3135	0	32890	32768	
3136	0	32792	32788	
3137	0	32788	32808	
3138	0	32770	32836	
3139	0	32804	32758	
3140	0	32788	32734	
3141	0	32796	32896	
3142	0	32772	32724	
3143	0	32784	32708	
3144	0	32840	32768	
3145	0	32848	32736	
3146	0	32844	32732	
3147	0	32864	32823	
3148	0	32820	32754	
3149	0	32824	32710	
3150	0	32838	32768	
3151	0	32844	32870	
3152	0	32864	32802	
3153	0	32810	32742	
3154	0	32724	32828	
3155	0	32788	32668	
3156	0	32792	32750	
3157	0	32802	32820	
3158	0	32804	32830	
3159	0	32852	32676	
3160	0	32818	32804	
3161	0	32838	32647	
3162	0	32832	32714	
3163	0	32804	32828	
3164	0	32756	32806	
3165	0	32778	32828	
3166	0	32800	32822	
3167	0	32790	32690	
3168	0	32802	32744	
3169	0	32778	32836	
3170	0	32788	32796	
3171	0	32776	32686	
3172	0	32784	32828	
3173	0	32810	32831	
3174	0	32816	32840	
3175	0	32790	32766	
3176	0	32916	32656	
3177	0	32790	32852	
3178	0	32768	32876	
3179	0	32884	32791	
3180	0	32840	32758	
3181	0	32862	32768	
3182	0	32848	32768	
3183	0	32826	32788	
3184	0	32776	32748	
3185	0	32820	32704	
3186	0	32808	32708	
3187	0	32897	32842	
3188	0	32762	32840	
3189	0	32780	32820	
3190	0	32808	32754	
3191	0	32852	32836	
3192	0	32836	32744	
3193	0	32836	32834	
3194	0	32856	32926	
3195	0	32742	32676	
3196	0	32762	32743	
3197	0	32772	32697	
3198	0	32862	32868	
3199	0	32778	32810	
3200	0	32800	32816	
3201	0	32752	32752	
3202	0	32818	32760	
3203	0	32758	32786	
3204	0	32828	32756	
3205	0	32844	32652	
3206	0	32796	32796	
3207	0	32774	32692	
3208	0	32804	32788	
3209	0	32808	32794	
3210	0	32800	32710	
3211	0	32842	32782	
3212	0	32776	32796	
3213	0	32816	32714	
3214	0	32824	32728	
3215	0	32852	32812	
3216	0	32818	32792	
3217	0	32812	32838	
3218	0	32792	32756	
3219	0	32824	32742	
3220	0	32784	32660	
3221	0	32840	32732	
3222	0	32812	32804	
3223	0	32828	32804	
3224	0	32812	32766	
3225	0	32762	32790	
3226	0	32822	32732	
3227	0	32756	32686	
3228	0	32840	32868	
3229	0	32764	32784	
3230	0	32800	32804	
3231	0	32818	32712	
3232	0	32824	32742	
3233	0	32808	32772	
3234	0	32854	32834	
3235	0	32760	32792	
3236	0	32796	32640	
3237	0	32881	32724	
3238	0	32848	32751	
3239	0	32792	32798	
3240	0	32840	32792	
3241	0	32870	32708	
3242	0	32792	32714	
3243	0	32820	32714	
3244	0	32848	32804	
3245	0	32824	32768	
3246	0	32830	32854	
3247	0	32782	32736	
3248	0	32830	32694	
3249	0	32848	32766	
3250	0	32770	32775	
3251	0	32812	32732	
3252	0	32884	32844	
3253	0	32808	32844	
3254	0	32828	32724	
3255	0	32796	32814	
3256	0	32842	32720	
3257	0	32816	32736	
3258	0	32788	32664	
3259	0	32776	32828	
3260	0	32800	32774	
3261	0	32852	32788	
3262	0	32868	32680	
3263	0	32808	32752	
3264	0	32780	32738	
3265	0	32802	32792	
3266	0	32844	32732	
3267	0	32874	32756	
3268	0	32764	32844	
3269	0	32816	32768	
3270	0	32868	32700	
3271	0	32834	32814	
3272	0	32820	32806	
3273	0	32772	32760	
3274	0	32788	32742	
3275	0	32798	32710	
3276	0	32802	32772	
3277	0	32796	32768	
3278	0	32808	32816	
3279	0	32760	32704	
3280	0	32820	32839	
3281	0	32852	32676	
3282	0	32772	32752	
3283	0	32802	32742	
3284	0	32760	32726	
3285	0	32836	32800	
3286	0	32834	32728	
3287	0	32820	32838	
3288	0	32828	32705	
3289	0	32838	32684	
3290	0	32782	32722	
3291	0	32814	32796	
3292	0	32810	32876	
3293	0	32842	32640	
3294	0	32868	32796	
3295	0	32824	32852	
3296	0	32792	32760	
3297	0	32824	32814	
3298	0	32844	32696	
3299	0	32816	32678	
3300	0	32776	32784	
3301	0	32802	32728	
3302	0	32868	32775	
3303	0	32840	32726	
3304	0	32816	32639	
3305	0	32758	32820	
3306	0	32744	32710	
3307	0	32848	32816	
3308	0	32800	32714	
3309	0	32792	32880	
3310	0	32772	32838	
3311	0	32820	32844	
3312	0	32764	32742	
3313	0	32804	32768	
3314	0	32824	32782	
3315	0	32844	32815	
3316	0	32792	32720	
3317	0	32896	32742	
3318	0	32766	32908	
3319	0	32800	32746	
3320	0	32882	32692	
3321	0	32840	32820	
3322	0	32812	32712	
3323	0	32756	32772	
3324	0	32806	32738	
3325	0	32786	32851	
3326	0	32780	32692	
3327	0	32780	32850	
3328	0	32780	32774	
3329	0	32786	32718	
3330	0	32760	32652	
3331	0	32756	32804	
3332	0	32808	32840	
3333	0	32824	32750	
3334	0	32826	32688	
3335	0	32798	32654	
3336	0	32736	32775	
3337	0	32808	32798	
3338	0	32830	32838	
3339	0	32844	32682	
3340	0	32834	32660	
3341	0	32836	32802	
3342	0	32796	32804	
3343	0	32804	32764	
3344	0	32760	32748	
3345	0	32808	32806	
3346	0	32772	32748	
3347	0	32810	32766	
3348	0	32828	32728	
3349	0	32804	32672	
3350	0	32770	32884	
3351	0	32776	32794	
3352	0	32832	32802	
3353	0	32784	32762	
3354	0	32842	32657	
3355	0	32780	32766	
3356	0	32812	32775	
3357	0	32808	32784	
3358	0	32868	32816	
3359	0	32754	32775	
3360	0	32764	32686	
3361	0	32866	32816	
3362	0	32820	32775	
3363	0	32772	32750	
3364	0	32768	32761	
3365	0	32842	32702	
3366	0	32836	32820	
3367	0	32760	32802	
3368	0	32812	32840	
3369	0	32832	32716	
3370	0	32760	32692	
3371	0	32810	32764	
3372	0	32812	32808	
3373	0	32848	32792	
3374	0	32820	32754	
3375	0	32792	32740	
3376	0	32766	32764	
3377	0	32832	32830	
3378	0	32804	32850	
3379	0	32836	32668	
3380	0	32810	32752	
3381	0	32808	32868	
3382	0	32784	32804	
3383	0	32824	32768	
3384	0	32800	32788	
3385	0	32832	32664	
3386	0	32752	32720	
3387	0	32760	32714	
3388	0	32864	32874	
3389	0	32788	32872	
3390	0	32862	32647	
3391	0	32852	32814	
3392	0	32832	32798	
3393	0	32816	32832	
3394	0	32740	32716	
3395	0	32794	32868	
3396	0	32836	32756	
3397	0	32816	32772	
3398	0	32744	32774	
3399	0	32784	32728	
3400	0	32824	32806	
3401	0	32800	32724	
3402	0	32804	32755	
3403	0	32840	32684	
3404	0	32768	32816	
3405	0	32772	32793	
3406	0	32830	32740	
3407	0	32808	32682	
3408	0	32820	32810	
3409	0	32876	32812	
3410	0	32746	32810	
3411	0	32792	32752	
3412	0	32724	32774	
3413	0	32768	32775	
3414	0	32792	32748	
3415	0	32808	32862	
3416	0	32804	32748	
3417	0	32832	32722	
3418	0	32856	32772	
3419	0	32800	32804	
3420	0	32816	32788	
3421	0	32788	32828	
3422	0	32788	32740	
3423	0	32816	32850	
3424	0	32768	32774	
3425	0	32824	32794	
3426	0	32776	32769	
3427	0	32780	32712	
3428	0	32865	32774	
3429	0	32866	32775	
3430	0	32832	32684	
3431	0	32832	32775	
3432	0	32896	32768	
3433	0	32890	32668	
3434	0	32812	32823	
3435	0	32770	32848	
3436	0	32756	32838	
3437	0	32806	32725	
3438	0	32840	32676	
3439	0	32802	32790	
3440	0	32858	32760	
3441	0	32834	32734	
3442	0	32770	32764	
3443	0	32764	32784	
3444	0	32850	32840	
3445	0	32822	32788	
3446	0	32824	32610	
3447	0	32856	32864	
3448	0	32768	32796	
3449	0	32796	32742	
3450	0	32826	32820	
3451	0	32820	32760	
3452	0	32792	32814	
3453	0	32862	32686	
3454	0	32826	32742	
3455	0	32840	32746	
3456	0	32808	32732	
3457	0	32804	32708	
3458	0	32810	32754	
3459	0	32858	32788	
3460	0	32814	32724	
3461	0	32792	32704	
3462	0	32762	32796	
3463	0	32784	32799	
3464	0	32800	32822	
3465	0	32804	32664	
3466	0	32788	32752	
3467	0	32804	32800	
3468	0	32832	32774	
3469	0	32866	32770	
3470	0	32784	32708	
3471	0	32886	32766	
3472	0	32780	32814	
3473	0	32798	32742	
3474	0	32774	32714	
3475	0	32816	32679	
3476	0	32818	32816	
3477	0	32828	32734	
3478	0	32772	32702	
3479	0	32826	32750	
3480	0	32844	32854	
3481	0	32844	32808	
3482	0	32836	32872	
3483	0	32750	32714	
3484	0	32772	32788	
3485	0	32796	32720	
3486	0	32760	32838	
3487	0	32824	32788	
3488	0	32748	32708	
3489	0	32754	32815	
3490	0	32786	32764	
3491	0	32792	32824	
3492	0	32852	32692	
3493	0	32864	32839	
3494	0	32812	32870	
3495	0	32840	32775	
3496	0	32800	32785	
3497	0	32868	32706	
3498	0	32804	32796	
3499	0	32820	32775	
3500	0	32772	32750	
3501	0	32760	32711	
3502	0	32820	32830	
3503	0	32872	32810	
3504	0	32820	32806	
3505	0	32804	32806	
3506	0	32808	32737	
3507	0	32758	32788	
3508	0	32774	32799	
3509	0	32874	32742	
3510	0	32808	32748	
3511	0	32812	32752	
3512	0	32824	32804	
3513	0	32846	32859	
3514	0	32868	32775	
3515	0	32842	32700	
3516	0	32846	32724	
3517	0	32824	32800	
3518	0	32832	32774	
3519	0	32752	32800	
3520	0	32820	32804	
3521	0	32748	32804	
3522	0	32816	32655	
3523	0	32768	32790	
3524	0	32768	32772	
3525	0	32880	32858	
3526	0	32775	32742	
3527	0	32820	32646	
3528	0	32864	32822	
3529	0	32770	32760	
3530	0	32834	32812	
3531	0	32824	32770	
3532	0	32752	32800	
3533	0	32824	32690	
3534	0	32844	32696	
3535	0	32840	32846	
3536	0	32804	32794	
3537	0	32830	32764	
3538	0	32820	32796	
3539	0	32870	32768	
3540	0	32808	32614	
3541	0	32848	32821	
3542	0	32792	32752	
3543	0	32798	32714	
3544	0	32740	32828	
3545	0	32832	32774	
3546	0	32762	32760	
3547	0	32874	32680	
3548	0	32792	32775	
3549	0	32844	32724	
3550	0	32756	32814	
3551	0	32772	32758	
3552	0	32828	32870	
3553	0	32762	32808	
3554	0	32868	32862	
3555	0	32756	32746	
3556	0	32802	32736	
3557	0	32832	32926	
3558	0	32832	32783	
3559	0	32810	32788	
3560	0	32775	32796	
3561	0	32804	32664	
3562	0	32792	32792	
3563	0	32836	32750	
3564	0	32796	32708	
3565	0	32836	32810	
3566	0	32792	32647	
3567	0	32788	32760	
3568	0	32764	32830	
3569	0	32834	32820	
3570	0	32804	32724	
3571	0	32792	32722	
3572	0	32812	32806	
3573	0	32846	32820	
3574	0	32772	32828	
3575	0	32868	32684	
3576	0	32864	32824	
3577	0	32740	32775	
3578	0	32868	32846	
3579	0	32858	32775	
3580	0	32760	32714	
3581	0	32776	32768	
3582	0	32790	32816	
3583	0	32800	32710	
3584	0	32856	32654	
3585	0	32776	32775	
3586	0	32824	32793	
3587	0	32868	32808	
3588	0	32868	32775	
3589	0	32860	32676	
3590	0	32794	32897	
3591	0	32824	32744	
3592	0	32780	32810	
3593	0	32788	32678	
3594	0	32752	32614	
3595	0	32844	32848	
3596	0	32728	32840	
3597	0	32853	32748	
3598	0	32828	32753	
3599	0	32848	32680	
3600	0	32856	32864	
3601	0	32796	32764	
3602	0	32768	32775	
3603	0	32840	32800	
3604	0	32744	32680	
3605	0	32782	32780	
3606	0	32802	32768	
3607	0	32812	32808	
3608	0	32798	32760	
3609	0	32782	32678	
3610	0	32804	32802	
3611	0	32820	32764	
3612	0	32796	32858	
3613	0	32836	32862	
3614	0	32840	32672	
3615	0	32852	32744	
3616	0	32782	32686	
3617	0	32780	32712	
3618	0	32828	32852	
3619	0	32776	32784	
3620	0	32868	32800	
3621	0	32816	32840	
3622	0	32706	32736	
3623	0	32772	32698	
3624	0	32828	32760	
3625	0	32744	32792	
3626	0	32822	32748	
3627	0	32788	32720	
3628	0	32844	32880	
3629	0	32772	32820	
3630	0	32764	32775	
3631	0	32812	32734	
3632	0	32862	32792	
3633	0	32768	32766	
3634	0	32790	32894	
3635	0	32808	32840	
3636	0	32804	32752	
3637	0	32804	32616	
3638	0	32820	32692	
3639	0	32836	32884	
3640	0	32874	32819	
3641	0	32816	32775	
3642	0	32786	32748	
3643	0	32756	32743	
3644	0	32836	32823	
3645	0	32812	32775	
3646	0	32866	32646	
3647	0	32792	32718	
3648	0	32792	32604	
3649	0	32856	32774	
3650	0	32828	32792	
3651	0	32832	32862	
3652	0	32844	32774	
3653	0	32852	32740	
3654	0	32832	32816	
3655	0	32816	32714	
3656	0	32776	32832	
3657	0	32740	32740	
3658	0	32832	32710	
3659	0	32848	32720	
3660	0	32752	32682	
3661	0	32784	32804	
3662	0	32872	32794	
3663	0	32812	32864	
3664	0	32788	32822	
3665	0	32808	32750	
3666	0	32736	32678	
3667	0	32804	32708	
3668	0	32812	32758	
3669	0	32768	32840	
3670	0	32792	32766	
3671	0	32792	32768	
3672	0	32864	32706	
3673	0	32844	32676	
3674	0	32700	32618	
3675	0	32804	32674	
3676	0	32792	32692	
3677	0	32830	32686	
3678	0	32804	32794	
3679	0	32844	32856	
3680	0	32794	32836	
3681	0	32776	32856	
3682	0	32844	32752	
3683	0	32844	32828	
3684	0	32872	32916	
3685	0	32810	32884	
3686	0	32858	32913	
3687	0	32798	32864	
3688	0	32792	32664	
3689	0	32828	32767	
3690	0	32756	32735	
3691	0	32824	32760	
3692	0	32868	32686	
3693	0	32820	32738	
3694	0	32748	32792	
3695	0	32816	32752	
3696	0	32770	32750	
3697	0	32836	32798	
3698	0	32820	32800	
3699	0	32794	32788	
3700	0	32784	32800	
3701	0	32770	32756	
3702	0	32812	32730	
3703	0	32736	32748	
3704	0	32776	32812	
3705	0	32784	32636	
3706	0	32860	32898	
3707	0	32826	32800	
3708	0	32828	32686	
3709	0	32856	32853	
3710	0	32832	32848	
3711	0	32764	32758	
3712	0	32826	32716	
3713	0	32824	32658	
3714	0	32860	32728	
3715	0	32836	32754	
3716	0	32782	32748	
3717	0	32720	32804	
3718	0	32758	32772	
3719	0	32804	32676	
3720	0	32750	32684	
3721	0	32820	32754	
3722	0	32764	32816	
3723	0	32766	32790	
3724	0	32780	32855	
3725	0	32752	32664	
3726	0	32820	32844	
3727	0	32836	32824	
3728	0	32812	32804	
3729	0	32732	32732	
3730	0	32844	32764	
3731	0	32808	32868	
3732	0	32840	32680	
3733	0	32802	32726	
3734	0	32848	32846	
3735	0	32886	32807	
3736	0	32804	32806	
3737	0	32776	32870	
3738	0	32776	32792	
3739	0	32824	32684	
3740	0	32804	32726	
3741	0	32856	32924	
3742	0	32858	32804	
3743	0	32792	32712	
3744	0	32816	32768	
3745	0	32900	32698	
3746	0	32820	32664	
3747	0	32852	32794	
3748	0	32854	32846	
3749	0	32784	32806	
3750	0	32840	32828	
3751	0	32796	32818	
3752	0	32832	32864	
3753	0	32776	32820	
3754	0	32848	32708	
3755	0	32796	32680	
3756	0	32804	32828	
3757	0	32792	32758	
3758	0	32892	32748	
3759	0	32900	32738	
3760	0	32840	32856	
3761	0	32864	32748	
3762	0	32872	32848	
3763	0	32848	32756	
3764	0	32842	32902	
3765	0	32800	32892	
3766	0	32812	32711	
3767	0	32780	32758	
3768	0	32772	32862	
3769	0	32792	32792	
3770	0	32830	32662	
3771	0	32804	32646	
3772	0	32788	32740	
3773	0	32798	32704	
3774	0	32818	32708	
3775	0	32812	32768	
3776	0	32862	32740	
3777	0	32800	32814	
3778	0	32792	32768	
3779	0	32806	32650	
3780	0	32822	32740	
3781	0	32794	32738	
3782	0	32796	32794	
3783	0	32804	32788	
3784	0	32868	32834	
3785	0	32820	32816	
3786	0	32800	32842	
3787	0	32844	32796	
3788	0	32772	32770	
3789	0	32864	32772	
3790	0	32824	32726	
3791	0	32860	32670	
3792	0	32776	32892	
3793	0	32804	32810	
3794	0	32836	32734	
3795	0	32828	32760	
3796	0	32866	32796	
3797	0	32744	32710	
3798	0	32800	32684	
3799	0	32796	32730	
3800	0	32768	32738	
3801	0	32708	32794	
3802	0	32772	32592	
3803	0	32782	32684	
3804	0	32808	32831	
3805	0	32800	32774	
3806	0	32792	32806	
3807	0	32752	32754	
3808	0	32792	32768	
3809	0	32768	32811	
3810	0	32792	32718	
3811	0	32824	32844	
3812	0	32848	32896	
3813	0	32764	32718	
3814	0	32776	32720	
3815	0	32786	32842	
3816	0	32792	32816	
3817	0	32828	32730	
3818	0	32816	32764	
3819	0	32808	32554	
3820	0	32800	32606	
3821	0	32804	32834	
3822	0	32764	32774	
3823	0	32760	32870	
3824	0	32820	32808	
3825	0	32836	32738	
3826	0	32716	32812	
3827	0	32784	32740	
3828	0	32820	32806	
3829	0	32832	32708	
3830	0	32810	32764	
3831	0	32840	32914	
3832	0	32906	32804	
3833	0	32789	32894	
3834	0	32824	32746	
3835	0	32770	32816	
3836	0	32810	32830	
3837	0	32820	32770	
3838	0	32840	32724	
3839	0	32780	32647	
3840	0	32784	32735	
3841	0	32778	32846	
3842	0	32838	32796	
3843	0	32784	32710	
3844	0	32876	32734	
3845	0	32828	32792	
3846	0	32794	32880	
3847	0	32808	32935	
3848	0	32762	32746	
3849	0	32784	32836	
3850	0	32828	32775	
3851	0	32808	32676	
3852	0	32812	32702	
3853	0	32778	32646	
3854	0	32820	32647	
3855	0	32828	32784	
3856	0	32812	32740	
3857	0	32872	32764	
3858	0	32864	32686	
3859	0	32832	32743	
3860	0	32856	32887	
3861	0	32864	32936	
3862	0	32824	32879	
3863	0	32786	32772	
3864	0	32900	32762	
3865	0	32746	32840	
3866	0	32760	32750	
3867	0	32752	32775	
3868	0	32770	32796	
3869	0	32758	32640	
3870	0	32800	32704	
3871	0	32838	32808	
3872	0	32852	32737	
3873	0	32816	32788	
3874	0	32826	32692	
3875	0	32792	32666	
3876	0	32842	32756	
3877	0	32834	32712	
3878	0	32840	32762	
3879	0	32784	32770	
3880	0	32796	32836	
3881	0	32800	32785	
3882	0	32884	32644	
3883	0	32804	32798	
3884	0	32804	32756	
3885	0	32824	32748	
3886	0	32808	32686	
3887	0	32828	32610	
3888	0	32822	32832	
3889	0	32868	32772	
3890	0	32828	32856	
3891	0	32828	32774	
3892	0	32870	32694	
3893	0	32836	32846	
3894	0	32754	32698	
3895	0	32774	32802	
3896	0	32776	32751	
3897	0	32824	32788	
3898	0	32804	32782	
3899	0	32800	32762	
3900	0	32896	32772	
3901	0	32884	32860	
3902	0	32820	32712	
3903	0	32760	32746	
3904	0	32808	32950	
3905	0	32760	32750	
3906	0	32664	32774	
3907	0	32784	32558	
3908	0	32816	32742	
3909	0	32796	32772	
3910	0	32740	32812	
3911	0	32856	32718	
3912	0	32762	32666	
3913	0	32700	32762	
3914	0	32762	32822	
3915	0	32848	32712	
3916	0	32932	32814	
3917	0	32896	32864	
3918	0	32904	32880	
3919	0	32926	32862	
3920	0	32840	32770	
3921	0	32740	32840	
3922	0	32664	32842	
3923	0	32772	32750	
3924	0	32896	32804	
3925	0	32778	32896	
3926	0	32876	32839	
3927	0	32840	32684	
3928	0	32810	32728	
3929	0	32848	32774	
3930	0	32840	32796	
3931	0	32746	32766	
3932	0	32684	32696	
3933	0	32704	32824	
3934	0	32840	32704	
3935	0	32788	32632	
3936	0	32712	32712	
3937	0	32812	32708	
3938	0	32832	32706	
3939	0	32752	32740	
3940	0	32828	32710	
3941	0	32798	32870	
3942	0	32840	32792	
3943	0	32816	32836	
3944	0	32848	32920	
3945	0	32816	32914	
3946	0	32724	32807	
3947	0	32848	32676	
3948	0	32764	32676	
3949	0	32804	32918	
3950	0	32828	32772	
3951	0	32800	32752	
3952	0	32744	32640	
3953	0	32776	32870	
3954	0	32784	32775	
3955	0	32840	32680	
3956	0	32792	32788	
3957	0	32788	32804	
3958	0	32879	32670	
3959	0	32800	32849	
3960	0	32872	32724	
3961	0	32877	32930	
3962	0	32894	32804	
3963	0	32868	32772	
3964	0	32824	32808	
3965	0	32830	32720	
3966	0	32800	32812	
3967	0	32752	32748	
3968	0	32696	32709	
3969	0	32858	32706	
3970	0	32838	32775	
3971	0	32896	32844	
3972	0	32796	32634	
3973	0	32864	32718	
3974	0	32944	32700	
3975	0	32960	32824	
3976	0	32878	32792	
3977	0	32816	32820	
3978	0	32844	32978	
3979	0	32812	32726	
3980	0	32872	32698	
3981	0	32892	32696	
3982	0	32944	32846	
3983	0	32912	32672	
3984	0	32890	32668	
3985	0	32838	32768	
3986	0	32840	32687	
3987	0	32876	32846	
3988	0	32840	32748	
3989	0	32830	32766	
3990	0	32714	32800	
3991	0	32684	32936	
3992	0	32608	32920	
3993	0	32616	32846	
3994	0	32620	32656	
3995	0	32596	32676	
3996	0	32550	32722	
3997	0	32634	32648	
3998	0	32614	32612	
3999	0	32608	32614	
4000	0	32648	32676	
4001	0	32764	32660	
4002	0	32704	32740	
4003	0	32884	32712	
4004	0	32808	32670	
4005	0	32916	32748	
4006	0	32910	32832	
4007	0	32874	32832	
4008	0	32806	32814	
4009	0	32824	32762	
4010	0	32844	32746	
4011	0	32918	32930	
4012	0	32868	32870	
4013	0	32792	32894	
4014	0	32736	32716	
4015	0	32652	32666	
4016	0	32676	32930	
4017	0	32684	32878	
4018	0	32614	32926	
4019	0	32632	32744	
4020	0	32648	32916	
4021	0	32674	32756	
4022	0	32612	32752	
4023	0	32638	32800	
4024	0	32660	32669	
4025	0	32616	32920	
4026	0	32698	32848	
4027	0	32718	32892	
4028	0	32720	32758	
4029	0	32784	32830	
4030	0	32824	32816	
4031	0	33024	32906	
4032	0	33030	32944	
4033	0	33044	32734	
4034	0	33170	32666	
4035	0	33160	32599	
4036	0	33048	32820	
4037	0	33026	32924	
4038	0	32976	32696	
4039	0	32996	32720	
4040	0	33016	32572	
4041	0	32978	32578	
4042	0	33042	32662	
4043	0	33102	32532	
4044	0	33156	32534	
4045	0	33098	32399	
4046	0	33176	32432	
4047	0	33172	32550	
4048	0	33136	32550	
4049	0	33032	32744	
4050	0	32976	32660	
4051	0	32928	32700	
4052	0	32912	32836	
4053	0	32828	32884	
4054	0	32730	32976	
4055	0	32586	32840	
4056	0	32566	32826	
4057	0	32480	32816	
4058	0	32462	32752	
4059	0	32500	32604	
4060	0	32596	32616	
4061	0	32576	32806	
4062	0	32674	32960	
4063	0	32712	32972	
4064	0	32708	32862	
4065	0	32720	32820	
4066	0	32764	32878	
4067	0	32820	32908	
4068	0	32778	32962	
4069	0	32860	32914	
4070	0	32766	32664	
4071	0	32712	32594	
4072	0	32714	32570	
4073	0	32752	32534	
4074	0	32704	32672	
4075	0	32778	32714	
4076	0	32816	32807	
4077	0	32864	32682	
4078	0	32868	32831	
4079	0	32912	32912	
4080	0	32952	32960	
4081	0	32812	32750	
4082	0	32892	32634	
4083	0	32866	32632	
4084	0	32844	32688	
4085	0	32800	32752	
4086	0	32808	32796	
4087	0	32852	32868	
4088	0	32828	32748	
4089	0	32778	32770	
4090	0	32812	32775	
4091	0	32712	32858	
4092	0	32660	32736	
4093	0	32544	32858	
4094	0	32608	32647	
4095	0	32658	32775	
4096	0	32740	32704	
4097	0	32792	32814	
4098	0	32834	32740	
4099	0	32864	32692	
4100	0	32888	32775	
4101	0	32884	32724	
4102	0	32922	32762	
4103	0	32936	32908	
4104	0	32972	32834	
4105	0	32852	32847	
4106	0	32724	32720	
4107	0	32788	32658	
4108	0	32752	32794	
4109	0	32752	32746	
4110	0	32814	32750	
4111	0	32708	32698	
4112	0	32800	32820	
4113	0	32796	32852	
4114	0	32696	32830	
4115	0	32724	32630	
4116	0	32764	32808	
4117	0	32740	32822	
4118	0	32760	32820	
4119	0	32768	32796	
4120	0	32740	32792	
4121	0	32684	32632	
4122	0	32672	32695	
4123	0	32704	32678	
4124	0	32772	32632	
4125	0	32948	32759	
4126	0	32920	32815	
4127	0	32848	32640	
4128	0	32928	32760	
4129	0	32948	32764	
4130	0	33016	32826	
4131	0	32928	32854	
4132	0	32967	32816	
4133	0	32828	32972	
4134	0	32868	32764	
4135	0	32896	32810	
4136	0	32960	32796	
4137	0	32846	32830	
4138	0	32732	32718	
4139	0	32750	32792	
4140	0	32724	32694	
4141	0	32752	32790	
4142	0	32740	32762	
4143	0	32804	32710	
4144	0	32652	32560	
4145	0	32708	32672	
4146	0	32844	32702	
4147	0	32912	32766	
4148	0	32804	32712	
4149	0	32830	32856	
4150	0	32936	32784	
4151	0	32892	32814	
4152	0	32896	32820	
4153	0	32914	32892	
4154	0	32884	32854	
4155	0	32840	32820	
4156	0	32894	32932	
4157	0	32826	32858	
4158	0	32848	32791	
4159	0	32752	32654	
4160	0	32648	32612	
4161	0	32748	32660	
4162	0	32748	32716	
4163	0	32828	32628	
4164	0	32792	32546	
4165	0	32880	32702	
4166	0	32984	32782	
4167	0	32892	32806	
4168	0	32784	32775	
4169	0	32824	32908	
4170	0	32784	32880	
4171	0	32816	32870	
4172	0	32838	32870	
4173	0	32792	32736	
4174	0	32668	32772	
4175	0	32712	32814	
4176	0	32668	32796	
4177	0	32728	32784	
4178	0	32708	32728	
4179	0	32728	32666	
4180	0	32794	32832	
4181	0	32730	32824	
4182	0	32772	32750	
4183	0	32718	32743	
4184	0	32668	32670	
4185	0	32764	32894	
4186	0	32796	32880	
4187	0	32892	32834	
4188	0	32848	32704	
4189	0	32846	32810	
4190	0	32926	32876	
4191	0	32842	32756	
4192	0	32864	32710	
4193	0	32872	32744	
4194	0	32928	32828	
4195	0	32888	32738	
4196	0	32874	32732	
4197	0	32848	32720	
4198	0	32868	32806	
4199	0	32932	32804	
4200	0	33020	32896	
4201	0	32940	32842	
4202	0	32908	32626	
4203	0	32878	32676	
4204	0	32774	32712	
4205	0	32716	32756	
4206	0	32744	32852	
4207	0	32814	32732	
4208	0	32668	32802	
4209	0	32708	32774	
4210	0	32708	32810	
4211	0	32772	32722	
4212	0	32660	32788	
4213	0	32676	32842	
4214	0	32610	32820	
4215	0	32688	32736	
4216	0	32672	32788	
4217	0	32664	32884	
4218	0	32692	32744	
4219	0	32688	32730	
4220	0	32724	32646	
4221	0	32732	32628	
4222	0	32794	32816	
4223	0	32884	32888	
4224	0	32900	32858	
4225	0	32828	32698	
4226	0	32848	32686	
4227	0	32956	32790	
4228	0	32982	32714	
4229	0	32962	32860	
4230	0	33004	32686	
4231	0	32940	32812	
4232	0	32990	32790	
4233	0	32976	32870	
4234	0	32896	32690	
4235	0	32880	32796	
4236	0	32876	32775	
4237	0	32876	32828	
4238	0	32844	32638	
4239	0	32776	32630	
4240	0	32760	32568	
4241	0	32700	32679	
4242	0	32680	32722	
4243	0	32776	32564	
4244	0	32728	32786	
4245	0	32784	32768	
4246	0	32716	32712	
4247	0	32796	32708	
4248	0	32764	32805	
4249	0	32798	32774	
4250	0	32748	32812	
4251	0	32760	32686	
4252	0	32864	32839	
4253	0	32882	32820	
4254	0	32830	32720	
4255	0	32926	32711	
4256	0	32808	32828	
4257	0	32838	32872	
4258	0	32834	32662	
4259	0	32868	32716	
4260	0	32896	32824	
4261	0	32792	32950	
4262	0	32792	32775	
4263	0	32876	32770	
4264	0	33028	32838	
4265	0	32985	32742	
4266	0	32920	32616	
4267	0	32750	32704	
4268	0	32704	32632	
4269	0	32804	32692	
4270	0	32694	32560	
4271	0	32968	32790	
4272	0	33136	32768	
4273	0	33044	32790	
4274	0	32812	32703	
4275	0	32832	32856	
4276	0	32596	32756	
4277	0	32536	32856	
4278	0	32554	32740	
4279	0	32712	32764	
4280	0	32780	32867	
4281	0	32668	32852	
4282	0	32642	32758	
4283	0	32786	32754	
4284	0	32848	32826	
4285	0	32704	32846	
4286	0	32746	32742	
4287	0	32728	32580	
4288	0	32778	32652	
4289	0	32806	32752	
4290	0	32716	32718	
4291	0	32804	32854	
4292	0	32802	32844	
4293	0	32832	32834	
4294	0	32928	32852	
4295	0	32956	32847	
4296	0	32852	32840	
4297	0	32932	32732	
4298	0	32912	32794	
4299	0	32880	32704	
4300	0	32878	32684	
4301	0	32860	32684	
4302	0	32812	32852	
4303	0	32846	32722	
4304	0	32808	32775	
4305	0	32771	32714	
4306	0	32809	32694	
4307	0	32730	32692	
4308	0	32794	32940	
4309	0	32696	32820	
4310	0	32686	32808	
4311	0	32856	32852	
4312	0	32776	32784	
4313	0	32868	32948	
4314	0	32900	32932	
4315	0	32796	32750	
4316	0	32876	32720	
4317	0	32914	32886	
4318	0	32938	32758	
4319	0	32924	32708	
4320	0	32820	32646	
4321	0	32760	32688	
4322	0	32828	32806	
4323	0	32874	32738	
4324	0	32756	32769	
4325	0	32784	32874	
4326	0	32826	32824	
4327	0	32740	32774	
4328	0	32774	32786	
4329	0	32668	32682	
4330	0	32688	32606	
4331	0	32694	32712	
4332	0	32764	32596	
4333	0	32872	32769	
4334	0	32976	32725	
4335	0	32992	32743	
4336	0	32962	32894	
4337	0	32972	32864	
4338	0	32952	32892	
4339	0	33050	32834	
4340	0	33048	32738	
4341	0	33026	32740	
4342	0	33124	32769	
4343	0	33046	32740	
4344	0	32956	32900	
4345	0	32736	32754	
4346	0	32696	32740	
4347	0	32606	32688	
4348	0	32536	32594	
4349	0	32530	32576	
4350	0	32436	32618	
4351	0	32530	32775	
4352	0	32448	32692	
4353	0	32436	32584	
4354	0	32544	32674	
4355	0	32756	32596	
4356	0	32788	32614	
4357	0	32826	32806	
4358	0	32912	32871	
4359	0	32940	32684	
4360	0	33016	32664	
4361	0	32926	32824	
4362	0	32824	32860	
4363	0	32888	32880	
4364	0	32936	32892	
4365	0	32932	32816	
4366	0	32968	32880	
4367	0	32988	32775	
4368	0	32872	32775	
4369	0	32868	32642	
4370	0	32776	32688	
4371	0	32816	32748	
4372	0	32856	32638	
4373	0	32764	32656	
4374	0	32770	32692	
4375	0	32704	32748	
4376	0	32688	32863	
4377	0	32740	32762	
4378	0	32736	32900	
4379	0	32732	32654	
4380	0	32690	32640	
4381	0	32820	32758	
4382	0	32984	32834	
4383	0	33118	32928	
4384	0	33194	32926	
4385	0	33242	32936	
4386	0	33116	32892	
4387	0	32992	33084	
4388	0	33108	32980	
4389	0	32918	32922	
4390	0	32708	32758	
4391	0	32588	32590	
4392	0	32490	32540	
4393	0	32324	32656	
4394	0	32208	32554	
4395	0	32424	32544	
4396	0	32400	32692	
4397	0	32440	32740	
4398	0	32612	32775	
4399	0	32644	32696	
4400	0	32704	32756	
4401	0	32722	32712	
4402	0	32756	32771	
4403	0	32740	32738	
4404	0	32778	32788	
4405	0	32788	32730	
4406	0	32800	32728	
4407	0	32864	32842	
4408	0	32900	32794	
4409	0	32894	32884	
4410	0	32964	32836	
4411	0	32992	32808	
4412	0	33040	32742	
4413	0	33000	32636	
4414	0	32992	32884	
4415	0	33052	32842	
4416	0	32886	32800	
4417	0	32914	32806	
4418	0	32808	32756	
4419	0	32800	32790	
4420	0	32736	32666	
4421	0	32800	32588	
4422	0	32876	32672	
4423	0	32796	32720	
4424	0	32716	32768	
4425	0	32684	32960	
4426	0	32728	32876	
4427	0	32758	32832	
4428	0	32744	32808	
4429	0	32776	32836	
4430	0	32818	32705	
4431	0	32812	32670	
4432	0	32792	32866	
4433	0	32740	32722	
4434	0	32812	32852	
4435	0	32810	32964	
4436	0	32802	32828	
4437	0	32844	32818	
4438	0	32934	32980	
4439	0	32960	32628	
4440	0	32942	32775	
4441	0	32976	32718	
4442	0	33062	32818	
4443	0	32928	32816	
4444	0	32962	32838	
4445	0	32902	32752	
4446	0	32872	32910	
4447	0	32772	32724	
4448	0	32848	32714	
4449	0	32828	32652	
4450	0	32816	32772	
4451	0	32702	32684	
4452	0	32842	32538	
4453	0	32828	32736	
4454	0	32868	32870	
4455	0	32816	32750	
4456	0	32940	32804	
4457	0	32972	32874	
4458	0	32896	32800	
4459	0	32772	32730	
4460	0	32748	32924	
4461	0	32776	32940	
4462	0	32780	32868	
4463	0	32702	32634	
4464	0	32716	32462	
4465	0	32648	32262	
4466	0	32572	32464	
4467	0	32616	32529	
4468	0	32660	32912	
4469	0	32770	33044	
4470	0	32692	33106	
4471	0	32900	32948	
4472	0	32942	33022	
4473	0	32914	32856	
4474	0	33052	32804	
4475	0	33068	32740	
4476	0	32948	32592	
4477	0	32862	32732	
4478	0	32836	32716	
4479	0	32696	32758	
4480	0	32690	32678	
4481	0	32680	32580	
4482	0	32604	32624	
4483	0	32612	32800	
4484	0	32533	32775	
4485	0	32536	32798	
4486	0	32596	32792	
4487	0	32772	32678	
4488	0	32918	32916	
4489	0	33002	32978	
4490	0	33092	32894	
4491	0	32980	32924	
4492	0	32756	32786	
4493	0	32688	32636	
4494	0	32772	32820	
4495	0	32760	32766	
4496	0	32736	32871	
4497	0	32752	32828	
4498	0	32866	32718	
4499	0	32820	32528	
4500	0	32796	32564	
4501	0	32860	32686	
4502	0	32800	32642	
4503	0	32792	32786	
4504	0	32936	32748	
4505	0	32836	32674	
4506	0	32804	32742	
4507	0	32724	32896	
4508	0	32776	32916	
4509	0	32836	32932	
4510	0	32780	32648	
4511	0	32746	32640	
4512	0	32772	32628	
4513	0	32641	32674	
4514	0	32588	32968	
4515	0	32658	32612	
4516	0	32694	32488	
4517	0	32644	32756	
4518	0	32680	32794	
4519	0	32792	32944	
4520	0	32896	33030	
4521	0	33022	32800	
4522	0	33032	32786	
4523	0	33092	32566	
4524	0	32992	32600	
4525	0	32920	32476	
4526	0	32922	32556	
4527	0	32994	32608	
4528	0	32926	32620	
4529	0	32894	32720	
4530	0	32976	32660	
4531	0	33088	32748	
4532	0	33026	32724	
4533	0	32904	32890	
4534	0	32764	32990	
4535	0	32828	32828	
4536	0	32740	32720	
4537	0	32700	32834	
4538	0	32676	32874	
4539	0	32656	32970	
4540	0	32540	32794	
4541	0	32632	32772	
4542	0	32654	32956	
4543	0	32640	32884	
4544	0	32644	32895	
4545	0	32648	32786	
4546	0	32642	32775	
4547	0	32702	32828	
4548	0	32808	32823	
4549	0	32864	32810	
4550	0	32848	32775	
4551	0	32794	32662	
4552	0	32860	32664	
4553	0	32868	32908	
4554	0	32904	32910	
4555	0	32896	32791	
4556	0	32912	32812	
4557	0	32838	32666	
4558	0	32852	32708	
4559	0	32752	32672	
4560	0	32784	32524	
4561	0	32892	32487	
4562	0	32960	32728	
4563	0	32948	32646	
4564	0	32908	32696	
4565	0	32792	32678	
4566	0	32893	32542	
4567	0	32828	32876	
4568	0	32900	32832	
4569	0	32822	32816	
4570	0	32712	32838	
4571	0	32756	32775	
4572	0	32768	32664	
4573	0	32888	32698	
4574	0	32884	32574	
4575	0	32816	32673	
4576	0	32848	32852	
4577	0	32832	32752	
4578	0	32828	32688	
4579	0	32860	32734	
4580	0	32884	32714	
4581	0	32778	32870	
4582	0	32812	32984	
4583	0	32862	32822	
4584	0	32820	32775	
4585	0	32834	32986	
4586	0	32852	32956	
4587	0	32908	32948	
4588	0	32788	32818	
4589	0	32896	32888	
4590	0	32772	32945	
4591	0	32636	32990	
4592	0	32780	33088	
4593	0	32836	33121	
4594	0	32860	33116	
4595	0	32881	33006	
4596	0	32872	32562	
4597	0	32858	32412	
4598	0	32775	32558	
4599	0	32584	32428	
4600	0	32648	32396	
4601	0	32740	32584	
4602	0	32696	32654	
4603	0	32708	32647	
4604	0	32768	32588	
4605	0	32816	32632	
4606	0	32776	32740	
4607	0	32808	32820	
4608	0	32830	32836	
4609	0	32804	32912	
4610	0	32772	32936	
4611	0	32680	32874	
4612	0	32730	32758	
4613	0	32740	32696	
4614	0	32724	32600	
4615	0	32672	32688	
4616	0	32700	32694	
4617	0	32772	32812	
4618	0	32768	32679	
4619	0	32872	32828	
4620	0	32856	32748	
4621	0	32940	32725	
4622	0	33012	32782	
4623	0	33024	32824	
4624	0	32900	32871	
4625	0	32724	32804	
4626	0	32664	32830	
4627	0	32724	32774	
4628	0	32704	33028	
4629	0	32700	33006	
4630	0	32796	32908	
4631	0	32800	33018	
4632	0	32684	32958	
4633	0	32648	32756	
4634	0	32828	32834	
4635	0	32680	32668	
4636	0	32868	32519	
4637	0	33100	32468	
4638	0	32928	32755	
4639	0	32814	32760	
4640	0	32872	32806	
4641	0	32774	32914	
4642	0	32844	32892	
4643	0	32916	32938	
4644	0	32676	33072	
4645	0	32752	32820	
4646	0	32772	32704	
4647	0	32742	32618	
4648	0	32732	32415	
4649	0	32936	32519	
4650	0	33008	32434	
4651	0	33024	32390	
4652	0	33060	32556	
4653	0	32984	32775	
4654	0	32932	32816	
4655	0	32872	32760	
4656	0	32824	32788	
4657	0	33040	32884	
4658	0	32992	33024	
4659	0	33090	32868	
4660	0	32894	32768	
4661	0	32900	32812	
4662	0	32824	32839	
4663	0	32940	32728	
4664	0	32916	32550	
4665	0	33060	32390	
4666	0	32816	32438	
4667	0	32548	32576	
4668	0	32422	32506	
4669	0	32550	32838	
4670	0	32632	33130	
4671	0	32730	33150	
4672	0	32864	32946	
4673	0	32556	32912	
4674	0	32560	32846	
4675	0	32740	32834	
4676	0	33076	32788	
4677	0	32997	32838	
4678	0	33052	32903	
4679	0	33072	32472	
4680	0	33020	32474	
4681	0	32952	32535	
4682	0	33060	32606	
4683	0	32932	32568	
4684	0	32824	32846	
4685	0	32828	32868	
4686	0	32912	32870	
4687	0	32980	32616	
4688	0	33048	32730	
4689	0	33025	32774	
4690	0	32956	32574	
4691	0	32828	32608	
4692	0	32634	32456	
4693	0	32572	32416	
4694	0	32604	32456	
4695	0	32668	32666	
4696	0	32656	32718	
4697	0	32740	32792	
4698	0	32728	32862	
4699	0	32656	32796	
4700	0	32676	32846	
4701	0	32580	32852	
4702	0	32628	32836	
4703	0	32588	32996	
4704	0	32742	32964	
4705	0	32764	32932	
4706	0	32772	33016	
4707	0	32796	33126	
4708	0	32572	33100	
4709	0	32534	32800	
4710	0	32642	32660	
4711	0	32772	32860	
4712	0	32862	32940	
4713	0	33104	32904	
4714	0	33236	32788	
4715	0	33154	32754	
4716	0	33172	32838	
4717	0	33088	32854	
4718	0	33128	32924	
4719	0	33112	32928	
4720	0	33160	33024	
4721	0	33304	32996	
4722	0	33246	32772	
4723	0	33140	32806	
4724	0	32938	32743	
4725	0	32656	32741	
4726	0	32506	32834	
4727	0	32254	32583	
4728	0	32106	32817	
4729	0	32212	32800	
4730	0	32232	32850	
4731	0	32196	32762	
4732	0	32290	32640	
4733	0	32208	32738	
4734	0	32420	32840	
4735	0	32668	32938	
4736	0	32620	33040	
4737	0	32518	32980	
4738	0	32604	33162	
4739	0	32872	33088	
4740	0	33024	33102	
4741	0	32986	32980	
4742	0	33008	32884	
4743	0	33092	32892	
4744	0	33148	32956	
4745	0	33222	32874	
4746	0	33268	32761	
4747	0	33152	32588	
4748	0	33016	32508	
4749	0	33080	32462	
4750	0	33012	32396	
4751	0	32932	32428	
4752	0	32854	32280	
4753	0	32800	32346	
4754	0	32668	32452	
4755	0	32530	32526	
4756	0	32532	32512	
4757	0	32470	32352	
4758	0	32548	32788	
4759	0	32622	32768	
4760	0	32668	32884	
4761	0	32684	32769	
4762	0	32720	32694	
4763	0	32792	32704	
4764	0	32748	32626	
4765	0	32732	32610	
4766	0	32752	32660	
4767	0	32768	32610	
4768	0	32796	32804	
4769	0	32818	32822	
4770	0	32974	32984	
4771	0	32954	32974	
4772	0	32992	32744	
4773	0	33072	32836	
4774	0	33092	32940	
4775	0	33060	32936	
4776	0	32916	32892	
4777	0	32868	32700	
4778	0	32849	32911	
4779	0	32920	32934	
4780	0	32908	32847	
4781	0	32960	32786	
4782	0	32960	32918	
4783	0	33072	32798	
4784	0	33000	32664	
4785	0	32910	32558	
4786	0	32802	32690	
4787	0	32736	32644	
4788	0	32796	32718	
4789	0	32720	32727	
4790	0	32756	32668	
4791	0	32770	32828	
4792	0	32720	32958	
4793	0	32632	32855	
4794	0	32730	32900	
4795	0	32630	32804	
4796	0	32572	32586	
4797	0	32736	32698	
4798	0	32706	32628	
4799	0	32728	32678	
4800	0	32784	32732	
4801	0	32798	32852	
4802	0	33004	32866	
4803	0	32974	32788	
4804	0	33086	32842	
4805	0	32990	32762	
4806	0	32858	32886	
4807	0	32806	32934	
4808	0	32776	32636	
4809	0	32612	32511	
4810	0	32632	32644	
4811	0	32740	32480	
4812	0	32812	32544	
4813	0	32920	32596	
4814	0	32874	32620	
4815	0	32856	32678	
4816	0	32780	32750	
4817	0	32812	32844	
4818	0	32842	33030	
4819	0	32834	32990	
4820	0	32836	32926	
4821	0	32828	32926	
4822	0	32684	32726	
4823	0	32752	32612	
4824	0	32792	32727	
4825	0	32748	32742	
4826	0	32868	32815	
4827	0	32812	32760	
4828	0	32822	32730	
4829	0	32775	33130	
4830	0	32816	33089	
4831	0	32780	32950	
4832	0	32804	32920	
4833	0	32804	32806	
4834	0	32736	32647	
4835	0	32716	32696	
4836	0	32768	32647	
4837	0	32756	32680	
4838	0	32768	32692	
4839	0	32736	32746	
4840	0	32652	32820	
4841	0	32682	32780	
4842	0	32840	32768	
4843	0	32858	32806	
4844	0	33002	32702	
4845	0	32992	32552	
4846	0	33064	32519	
4847	0	32936	32744	
4848	0	33016	32686	
4849	0	32940	32688	
4850	0	32868	32722	
4851	0	32764	32743	
4852	0	32696	32634	
4853	0	32624	32580	
4854	0	32540	32670	
4855	0	32456	32752	
4856	0	32436	32804	
4857	0	32540	32728	
4858	0	32488	32628	
4859	0	32536	32828	
4860	0	32534	32868	
4861	0	32644	32876	
4862	0	32766	32999	
4863	0	32716	32892	
4864	0	32734	32924	
4865	0	32790	33087	
4866	0	32936	33108	
4867	0	32968	32966	
4868	0	33056	33054	
4869	0	33068	32958	
4870	0	32994	32898	
4871	0	33108	32858	
4872	0	33112	32696	
4873	0	32968	32618	
4874	0	33012	32512	
4875	0	32956	32376	
4876	0	33028	32540	
4877	0	32950	32662	
4878	0	32886	32678	
4879	0	32864	32590	
4880	0	32928	32807	
4881	0	32994	32764	
4882	0	32920	32774	
4883	0	32978	32742	
4884	0	33020	32572	
4885	0	32934	32420	
4886	0	32700	32500	
4887	0	32676	32513	
4888	0	32716	32372	
4889	0	32704	32655	
4890	0	32700	32944	
4891	0	32722	33082	
4892	0	32640	33052	
4893	0	32544	33012	
4894	0	32486	32881	
4895	0	32628	33076	
4896	0	32892	33140	
4897	0	32860	33039	
4898	0	32828	32912	
4899	0	32764	32786	
4900	0	32848	32948	
4901	0	32922	32682	
4902	0	32856	32452	
4903	0	32788	32704	
4904	0	32916	32951	
4905	0	32812	33040	
4906	0	32828	32746	
4907	0	32752	32718	
4908	0	32798	32586	
4909	0	32780	32540	
4910	0	32828	32554	
4911	0	32980	32530	
4912	0	32948	32682	
4913	0	32950	32830	
4914	0	32932	32742	
4915	0	32876	32698	
4916	0	32824	32614	
4917	0	32706	32716	
4918	0	32628	32644	
4919	0	32612	32584	
4920	0	32588	32612	
4921	0	32574	32720	
4922	0	32558	32950	
4923	0	32568	32984	
4924	0	32640	32886	
4925	0	32548	32940	
4926	0	32582	33002	
4927	0	32700	33004	
4928	0	32672	33030	
4929	0	32688	32996	
4930	0	32680	33036	
4931	0	32720	32967	
4932	0	32682	32634	
4933	0	32758	32688	
4934	0	32876	32484	
4935	0	33052	32468	
4936	0	33024	32320	
4937	0	32900	32220	
4938	0	33020	32518	
4939	0	33090	32638	
4940	0	33032	32583	
4941	0	33096	32760	
4942	0	33092	33036	
4943	0	33240	32800	
4944	0	33230	32775	
4945	0	33216	32730	
4946	0	33260	32768	
4947	0	33324	32686	
4948	0	33324	32554	
4949	0	33352	32486	
4950	0	33304	32536	
4951	0	33218	32646	
4952	0	33060	32620	
4953	0	32892	32608	
4954	0	32720	32742	
4955	0	32560	32772	
4956	0	32572	32842	
4957	0	32576	33060	
4958	0	32640	33148	
4959	0	32466	33008	
4960	0	32532	32678	
4961	0	32592	32870	
4962	0	32532	32944	
4963	0	32680	32926	
4964	0	32846	32775	
4965	0	32732	32984	
4966	0	32768	32902	
4967	0	32778	32894	
4968	0	32842	32930	
4969	0	32852	33112	
4970	0	32808	33104	
4971	0	32836	32992	
4972	0	32732	32752	
4973	0	32596	32634	
4974	0	32516	32622	
4975	0	32524	32558	
4976	0	32624	32518	
4977	0	32676	32566	
4978	0	32646	32562	
4979	0	32530	32628	
4980	0	32410	32700	
4981	0	32380	32998	
4982	0	32338	33095	
4983	0	32408	33073	
4984	0	32504	33170	
4985	0	32560	33256	
4986	0	32750	32962	
4987	0	32828	32976	
4988	0	32916	32824	
4989	0	32896	32631	
4990	0	32860	32564	
4991	0	32812	32742	
4992	0	32804	32808	
4993	0	32882	32868	
4994	0	33020	32852	
4995	0	33064	32984	
4996	0	32968	32972	
4997	0	32976	32974	
4998	0	32876	32714	
4999	0	32890	32412	
5000	0	32960	32300	
5001	0	33024	32212	
5002	0	33032	32167	
5003	0	33004	32106	
5004	0	33026	32408	
5005	0	32992	32560	
5006	0	32968	32602	
5007	0	32880	32898	
5008	0	32802	33042	
5009	0	32686	32932	
5010	0	32596	32874	
5011	0	32552	32846	
5012	0	32628	32832	
5013	0	32580	32768	
5014	0	32716	32574	
5015	0	32792	32828	
5016	0	32800	32808	
5017	0	32892	32844	
5018	0	32920	32832	
5019	0	32872	32966	
5020	0	32910	33068	
5021	0	32956	32966	
5022	0	32936	32996	
5023	0	32864	32976	
5024	0	32852	32948	
5025	0	32776	32864	
5026	0	32878	33064	
5027	0	32908	32974	
5028	0	32996	32894	
5029	0	33008	32736	
5030	0	32902	32712	
5031	0	32832	32716	
5032	0	32828	32564	
5033	0	32740	32412	
5034	0	32738	32632	
5035	0	32788	32452	
5036	0	32680	32456	
5037	0	32728	32502	
5038	0	32652	32608	
5039	0	32600	32740	
5040	0	32668	32806	
5041	0	32676	32748	
5042	0	32776	32868	
5043	0	32912	32744	
5044	0	32808	32801	
5045	0	32884	32834	
5046	0	32968	32812	
5047	0	32772	32940	
5048	0	32822	33082	
5049	0	32824	33012	
5050	0	32854	33122	
5051	0	32890	33028	
5052	0	32904	32644	
5053	0	32776	32467	
5054	0	32788	32426	
5055	0	32936	32511	
5056	0	32832	32646	
5057	0	32952	32479	
5058	0	32860	32538	
5059	0	32928	32604	
5060	0	32964	32834	
5061	0	33054	33060	
5062	0	33040	32871	
5063	0	33034	32902	
5064	0	32932	32880	
5065	0	32920	32652	
5066	0	32878	32492	
5067	0	32832	32535	
5068	0	32874	32500	
5069	0	32876	32346	
5070	0	32912	32348	
5071	0	32788	32524	
5072	0	32790	32710	
5073	0	32608	33014	
5074	0	32322	32816	
5075	0	32482	32706	
5076	0	32514	32830	
5077	0	32868	32998	
5078	0	32864	33102	
5079	0	32818	32800	
5080	0	32816	32736	
5081	0	32810	33078	
5082	0	32666	32852	
5083	0	32512	32648	
5084	0	32524	32764	
5085	0	32624	32903	
5086	0	32704	33076	
5087	0	32816	32836	
5088	0	32712	32672	
5089	0	32782	32736	
5090	0	32728	32760	
5091	0	32658	32726	
5092	0	32784	32842	
5093	0	32952	32694	
5094	0	33134	32775	
5095	0	33166	32860	
5096	0	33044	32906	
5097	0	32814	32890	
5098	0	32752	32616	
5099	0	32746	32580	
5100	0	32640	32544	
5101	0	32528	32864	
5102	0	32572	32742	
5103	0	32672	32794	
5104	0	32634	32648	
5105	0	32612	32602	
5106	0	32606	32784	
5107	0	32528	32860	
5108	0	32452	32858	
5109	0	32620	32852	
5110	0	32812	32714	
5111	0	32620	32722	
5112	0	32674	32870	
5113	0	32720	33154	
5114	0	32736	33248	
5115	0	32716	33188	
5116	0	32788	32944	
5117	0	32650	32814	
5118	0	32848	32668	
5119	0	32904	32640	
5120	0	32740	32328	
5121	0	32768	32200	
5122	0	32938	32346	
5123	0	32980	32398	
5124	0	33108	32706	
5125	0	33102	32694	
5126	0	33080	32696	
5127	0	32964	32799	
5128	0	32936	32764	
5129	0	32964	32876	
5130	0	33056	32902	
5131	0	33064	32940	
5132	0	32946	32876	
5133	0	32896	32660	
5134	0	32834	32792	
5135	0	32818	32844	
5136	0	32724	32806	
5137	0	32726	32698	
5138	0	32634	33031	
5139	0	32744	32954	
5140	0	32848	32962	
5141	0	32816	32902	
5142	0	32760	33078	
5143	0	32752	33236	
5144	0	32792	33191	
5145	0	32818	32831	
5146	0	33036	32704	
5147	0	33040	32532	
5148	0	33020	32472	
5149	0	33006	32374	
5150	0	32948	32490	
5151	0	32880	32364	
5152	0	32846	32660	
5153	0	32862	32660	
5154	0	32796	32532	
5155	0	32800	32890	
5156	0	32728	32791	
5157	0	32672	32772	
5158	0	32782	32472	
5159	0	32836	32500	
5160	0	32830	32678	
5161	0	32774	32828	
5162	0	32792	32942	
5163	0	32896	32804	
5164	0	32826	32976	
5165	0	32820	32790	
5166	0	32782	32718	
5167	0	32738	32533	
5168	0	32770	32860	
5169	0	32800	32902	
5170	0	32852	32909	
5171	0	32662	32799	
5172	0	32684	32848	
5173	0	32660	32990	
5174	0	32772	32878	
5175	0	32772	32770	
5176	0	32696	33106	
5177	0	32764	32962	
5178	0	32938	32714	
5179	0	32870	32524	
5180	0	32668	32724	
5181	0	32692	32642	
5182	0	32776	32886	
5183	0	32740	32874	
5184	0	32752	32934	
5185	0	32848	32824	
5186	0	32914	32652	
5187	0	32916	32500	
5188	0	32860	32436	
5189	0	32904	32682	
5190	0	33016	32688	
5191	0	33108	32992	
5192	0	33064	32710	
5193	0	32932	32900	
5194	0	33036	32908	
5195	0	32860	32870	
5196	0	32852	32724	
5197	0	32793	32922	
5198	0	32864	32932	
5199	0	32934	32832	
5200	0	32946	33062	
5201	0	32896	32988	
5202	0	32836	32932	
5203	0	32624	32912	
5204	0	32592	32752	
5205	0	32738	32740	
5206	0	32748	32660	
5207	0	32788	32716	
5208	0	32740	32684	
5209	0	32704	32790	
5210	0	32676	32516	
5211	0	32676	32350	
5212	0	32588	32466	
5213	0	32632	32768	
5214	0	32742	32832	
5215	0	32860	32844	
5216	0	32984	32630	
5217	0	33092	32682	
5218	0	33144	32791	
5219	0	33052	32738	
5220	0	32968	32576	
5221	0	32800	32674	
5222	0	32756	32590	
5223	0	32682	32721	
5224	0	32536	32810	
5225	0	32368	32828	
5226	0	32424	33016	
5227	0	32604	33244	
5228	0	32664	33090	
5229	0	32820	32953	
5230	0	32776	32792	
5231	0	32624	32668	
5232	0	32866	32634	
5233	0	33016	32568	
5234	0	32838	32596	
5235	0	32724	32716	
5236	0	32864	32712	
5237	0	32884	32796	
5238	0	32756	32592	
5239	0	32730	32636	
5240	0	32820	32792	
5241	0	32904	32920	
5242	0	32848	32680	
5243	0	32854	32916	
5244	0	32968	32876	
5245	0	33076	32766	
5246	0	33096	32626	
5247	0	32988	32774	
5248	0	32952	32798	
5249	0	32881	33036	
5250	0	32844	32942	
5251	0	32900	32804	
5252	0	32822	32932	
5253	0	32828	32806	
5254	0	32810	32876	
5255	0	32716	32876	
5256	0	32708	32952	
5257	0	32668	32788	
5258	0	32760	32686	
5259	0	32762	32762	
5260	0	32816	32876	
5261	0	32920	32850	
5262	0	32890	32756	
5263	0	33000	32852	
5264	0	32838	32544	
5265	0	32732	32164	
5266	0	32864	32232	
5267	0	32828	32412	
5268	0	32880	32746	
5269	0	32876	32708	
5270	0	32768	32696	
5271	0	32568	32784	
5272	0	32628	33012	
5273	0	32668	33270	
5274	0	32614	33026	
5275	0	32712	32551	
5276	0	32836	32436	
5277	0	32870	32548	
5278	0	32868	32646	
5279	0	32864	33042	
5280	0	32848	32890	
5281	0	32828	32962	
5282	0	32912	32748	
5283	0	32820	32824	
5284	0	32738	32956	
5285	0	32820	32804	
5286	0	32920	32866	
5287	0	32878	32846	
5288	0	32786	32694	
5289	0	32728	32838	
5290	0	32708	32831	
5291	0	32646	32560	
5292	0	32612	32618	
5293	0	32778	32682	
5294	0	32828	32775	
5295	0	32796	32670	
5296	0	32764	32584	
5297	0	32744	32764	
5298	0	32772	32916	
5299	0	32840	33052	
5300	0	32824	32806	
5301	0	32800	32916	
5302	0	32832	32684	
5303	0	32792	32862	
5304	0	32792	32916	
5305	0	32786	32806	
5306	0	32944	32742	
5307	0	32908	32654	
5308	0	32864	32596	
5309	0	32798	32598	
5310	0	32772	32552	
5311	0	32884	32512	
5312	0	32934	32716	
5313	0	32852	32864	
5314	0	32904	32720	
5315	0	32924	32460	
5316	0	32836	32638	
5317	0	32868	32775	
5318	0	32800	32860	
5319	0	32744	32874	
5320	0	32796	32830	
5321	0	32784	32820	
5322	0	32848	32988	
5323	0	32840	33116	
5324	0	32900	32848	
5325	0	33052	32836	
5326	0	32900	32624	
5327	0	32842	32312	
5328	0	32780	32472	
5329	0	32676	32812	
5330	0	32746	33040	
5331	0	32796	32994	
5332	0	32780	32920	
5333	0	32884	32898	
5334	0	32886	32612	
5335	0	32872	32460	
5336	0	32978	32630	
5337	0	32964	32660	
5338	0	32952	32512	
5339	0	32852	32482	
5340	0	32914	32728	
5341	0	32842	32684	
5342	0	32792	32478	
5343	0	32684	32832	
5344	0	32728	32796	
5345	0	32772	32948	
5346	0	32804	32756	
5347	0	32640	32892	
5348	0	32726	33020	
5349	0	32750	32858	
5350	0	32680	32852	
5351	0	32702	32856	
5352	0	32820	32764	
5353	0	32924	32756	
5354	0	32886	33016	
5355	0	32748	32926	
5356	0	32728	32862	
5357	0	32792	32816	
5358	0	32816	32652	
5359	0	32756	32562	
5360	0	32826	32600	
5361	0	32892	32660	
5362	0	32984	32674	
5363	0	33104	32592	
5364	0	33162	32876	
5365	0	33030	33298	
5366	0	32840	32896	
5367	0	32940	32939	
5368	0	32896	32884	
5369	0	32812	32744	
5370	0	32672	32775	
5371	0	32826	32732	
5372	0	32788	32582	
5373	0	32808	32775	
5374	0	32628	32528	
5375	0	32488	32615	
5376	0	32576	32647	
5377	0	32778	32804	
5378	0	32788	32800	
5379	0	32768	32764	
5380	0	32800	32738	
5381	0	32824	32614	
5382	0	32778	32728	
5383	0	32792	32732	
5384	0	32776	32892	
5385	0	32700	33056	
5386	0	32728	32842	
5387	0	32720	33078	
5388	0	32636	32808	
5389	0	32744	32848	
5390	0	32742	32828	
5391	0	32728	32732	
5392	0	32832	32684	
5393	0	32876	32790	
5394	0	32904	32751	
5395	0	32894	32662	
5396	0	32944	32590	
5397	0	32888	32880	
5398	0	32880	32800	
5399	0	32820	32774	
5400	0	32758	32620	
5401	0	32856	32476	
5402	0	32818	32740	
5403	0	32886	32818	
5404	0	32760	32818	
5405	0	32704	32679	
5406	0	32724	32526	
5407	0	32780	33000	
5408	0	32740	32932	
5409	0	32760	33132	
5410	0	32808	32694	
5411	0	32600	32615	
5412	0	32728	32692	
5413	0	32648	32668	
5414	0	32634	32488	
5415	0	32612	32740	
5416	0	32656	32746	
5417	0	32728	32608	
5418	0	32752	32908	
5419	0	32676	32896	
5420	0	32772	32924	
5421	0	32820	32759	
5422	0	32904	32988	
5423	0	32896	32519	
5424	0	33009	32502	
5425	0	32948	32752	
5426	0	32900	32934	
5427	0	32980	32610	
5428	0	32896	32710	
5429	0	32832	32702	
5430	0	32856	32910	
5431	0	32728	32964	
5432	0	32640	33344	
5433	0	32556	32674	
5434	0	32680	32686	
5435	0	32824	32508	
5436	0	32782	32775	
5437	0	32938	32820	
5438	0	32872	32926	
5439	0	32856	32696	
5440	0	32884	32647	
5441	0	32864	32990	
5442	0	32750	32878	
5443	0	32720	32820	
5444	0	32916	32832	
5445	0	32896	32716	
5446	0	32884	32471	
5447	0	32852	32840	
5448	0	32780	33120	
5449	0	32692	32686	
5450	0	32764	32290	
5451	0	32844	32404	
5452	0	32725	32624	
5453	0	32692	32452	
5454	0	32700	32388	
5455	0	33034	32568	
5456	0	33180	32448	
5457	0	32920	32528	
5458	0	32736	32860	
5459	0	32824	33153	
5460	0	32872	32852	
5461	0	32900	32730	
5462	0	32920	33016	
5463	0	32916	33346	
5464	0	32932	33406	
5465	0	32916	32984	
5466	0	32768	32784	
5467	0	32834	32312	
5468	0	32900	32652	
5469	0	32888	32888	
5470	0	32880	32666	
5471	0	32754	32922	
5472	0	32744	32688	
5473	0	32700	32756	
5474	0	32684	32600	
5475	0	32596	32752	
5476	0	32654	32647	
5477	0	32738	32774	
5478	0	32864	32924	
5479	0	32776	33200	
5480	0	32832	33356	
5481	0	32840	33406	
5482	0	33010	33287	
5483	0	32852	32734	
5484	0	32740	32642	
5485	0	32748	32354	
5486	0	32804	32394	
5487	0	32832	32550	
5488	0	32744	32655	
5489	0	32864	32769	
5490	0	32836	32767	
5491	0	32788	32916	
5492	0	32778	33228	
5493	0	32828	33500	
5494	0	32820	33260	
5495	0	32820	32708	
5496	0	32824	32662	
5497	0	32880	32789	
5498	0	32794	32888	
5499	0	32740	32292	
5500	0	32916	32382	
5501	0	32864	32296	
5502	0	32808	32498	
5503	0	32902	32630	
5504	0	32920	32852	
5505	0	32832	32752	
5506	0	32808	32600	
5507	0	32820	32130	
5508	0	32756	31914	
5509	0	32862	32167	
5510	0	32936	32382	
5511	0	32812	32932	
5512	0	32800	33127	
5513	0	32886	33240	
5514	0	32874	32938	
5515	0	32874	33031	
5516	0	32846	33168	
5517	0	32804	33142	
5518	0	32752	33031	
5519	0	32664	32940	
5520	0	32624	32561	
5521	0	32676	32662	
5522	0	32668	32818	
5523	0	32770	32794	
5524	0	32784	32758	
5525	0	32800	32660	
5526	0	32570	32638	
5527	0	32654	32558	
5528	0	32740	32935	
5529	0	32792	32984	
5530	0	32816	33024	
5531	0	32836	33108	
5532	0	32892	32804	
5533	0	32800	32920	
5534	0	32912	32856	
5535	0	32788	32564	
5536	0	32778	32492	
5537	0	32764	32508	
5538	0	32736	32718	
5539	0	32824	32574	
5540	0	32892	32628	
5541	0	32844	32896	
5542	0	32716	32758	
5543	0	32940	32902	
5544	0	33326	32774	
5545	0	33716	32976	
5546	0	33956	32842	
5547	0	33806	32250	
5548	0	33242	32980	
5549	0	32724	33028	
5550	0	32292	33038	
5551	0	31900	33200	
5552	0	31636	32340	
5553	0	31912	32554	
5554	0	32160	32684	
5555	0	32314	32598	
5556	0	32590	32408	
5557	0	32724	32440	
5558	0	32828	32903	
5559	0	32752	33356	
5560	0	32600	32862	
5561	0	32560	32828	
5562	0	32552	33076	
5563	0	32529	32830	
5564	0	32596	32598	
5565	0	32710	32463	
5566	0	32825	32527	
5567	0	32926	32350	
5568	0	33056	32230	
5569	0	32980	32316	
5570	0	33080	32624	
5571	0	32964	32680	
5572	0	32948	32680	
5573	0	32968	32878	
5574	0	32944	33010	
5575	0	32952	32654	
5576	0	32860	32994	
5577	0	32892	32896	
5578	0	32858	33086	
5579	0	32982	33058	
5580	0	33016	33028	
5581	0	32976	32894	
5582	0	32956	32846	
5583	0	32868	33070	
5584	0	32904	33159	
5585	0	32736	33058	
5586	0	32604	32732	
5587	0	32554	32743	
5588	0	32634	32802	
5589	0	32642	33028	
5590	0	32716	32866	
5591	0	32710	32952	
5592	0	32682	32994	
5593	0	32800	32746	
5594	0	32826	32968	
5595	0	32752	32516	
5596	0	32772	32583	
5597	0	32856	32576	
5598	0	32956	32494	
5599	0	32940	32596	
5600	0	32964	32692	
5601	0	32884	32774	
5602	0	32858	32830	
5603	0	32796	32836	
5604	0	32832	32994	
5605	0	32796	32676	
5606	0	32844	32646	
5607	0	32892	32666	
5608	0	32996	32660	
5609	0	32940	32722	
5610	0	32782	33102	
5611	0	32878	32572	
5612	0	32896	32798	
5613	0	32952	32828	
5614	0	32952	32302	
5615	0	32908	32494	
5616	0	32924	32544	
5617	0	32872	32500	
5618	0	32736	32596	
5619	0	32740	32663	
5620	0	32752	32688	
5621	0	32740	32692	
5622	0	32798	32844	
5623	0	32938	33068	
5624	0	33004	33100	
5625	0	33040	32967	
5626	0	32980	32692	
5627	0	32944	32647	
5628	0	32820	32920	
5629	0	32648	32888	
5630	0	32642	32903	
5631	0	32684	32850	
5632	0	32676	32974	
5633	0	32826	33190	
5634	0	32858	33262	
5635	0	32792	33072	
5636	0	32826	32766	
5637	0	32938	32424	
5638	0	32972	32592	
5639	0	32844	32519	
5640	0	32757	32436	
5641	0	32818	32528	
5642	0	32756	32368	
5643	0	32792	32748	
5644	0	32908	32832	
5645	0	32910	32934	
5646	0	32898	32976	
5647	0	32864	32898	
5648	0	32788	32664	
5649	0	32744	32504	
5650	0	32768	32692	
5651	0	32766	32774	
5652	0	32788	32870	
5653	0	32888	32756	
5654	0	32808	32474	
5655	0	32830	32566	
5656	0	32704	32732	
5657	0	32718	32774	
5658	0	32820	32870	
5659	0	32820	32728	
5660	0	32720	32854	
5661	0	32560	32752	
5662	0	32572	32808	
5663	0	32604	32784	
5664	0	32678	32658	
5665	0	32720	32618	
5666	0	32764	32743	
5667	0	32836	33030	
5668	0	32956	32682	
5669	0	33054	32560	
5670	0	33064	32718	
5671	0	33050	32914	
5672	0	33072	32754	
5673	0	33032	32610	
5674	0	32900	32680	
5675	0	33008	32775	
5676	0	33024	32724	
5677	0	32996	32608	
5678	0	32834	32372	
5679	0	32888	32476	
5680	0	32940	32638	
5681	0	32938	32519	
5682	0	33028	32468	
5683	0	32908	32580	
5684	0	32972	32720	
5685	0	32950	33050	
5686	0	32834	33078	
5687	0	32876	33014	
5688	0	32842	32478	
5689	0	32696	32967	
5690	0	32628	32986	
5691	0	32632	32936	
5692	0	32684	32820	
5693	0	32602	32760	
5694	0	32624	32846	
5695	0	32728	32858	
5696	0	32766	32942	
5697	0	32856	32958	
5698	0	32892	32784	
5699	0	32888	32806	
5700	0	32856	32980	
5701	0	32992	32980	
5702	0	33144	32960	
5703	0	33078	32710	
5704	0	32962	32726	
5705	0	32912	33070	
5706	0	32808	32808	
5707	0	32680	32692	
5708	0	32714	32836	
5709	0	32732	32959	
5710	0	32768	32868	
5711	0	32772	32960	
5712	0	32732	32608	
5713	0	32746	32622	
5714	0	32708	32598	
5715	0	32742	32770	
5716	0	32752	32844	
5717	0	32764	32720	
5718	0	32704	32588	
5719	0	32804	32658	
5720	0	32774	32892	
5721	0	32660	32642	
5722	0	32656	32743	
5723	0	32612	32576	
5724	0	32532	32708	
5725	0	32480	32828	
5726	0	32550	32874	
5727	0	32472	32772	
5728	0	32482	32750	
5729	0	32400	32724	
5730	0	32544	32710	
5731	0	32508	32762	
5732	0	32644	32896	
5733	0	32668	32708	
5734	0	32736	32813	
5735	0	32700	32672	
5736	0	32720	32754	
5737	0	32748	32752	
5738	0	32736	32775	
5739	0	32728	32876	
5740	0	32668	32898	
5741	0	32596	32588	
5742	0	32676	32824	
5743	0	32792	32780	
5744	0	32944	32610	
5745	0	32876	32814	
5746	0	32926	32838	
5747	0	33120	32646	
5748	0	33126	32482	
5749	0	33154	32622	
5750	0	33088	32626	
5751	0	33072	32698	
5752	0	32942	32862	
5753	0	32984	33188	
5754	0	32848	32916	
5755	0	32936	32732	
5756	0	32860	32574	
5757	0	32872	32676	
5758	0	32814	32760	
5759	0	32756	32759	
5760	0	32834	32648	
5761	0	32872	32714	
5762	0	32980	32700	
5763	0	33008	32760	
5764	0	32868	32796	
5765	0	32636	32775	
5766	0	32680	32804	
5767	0	32608	32656	
5768	0	32612	32760	
5769	0	32588	32572	
5770	0	32436	32588	
5771	0	32444	32827	
5772	0	32522	32846	
5773	0	32840	32871	
5774	0	32888	33010	
5775	0	32952	32962	
5776	0	33044	32712	
5777	0	33096	32680	
5778	0	33028	32804	
5779	0	33036	32839	
5780	0	32940	32798	
5781	0	32968	32582	
5782	0	33016	32804	
5783	0	33026	32903	
5784	0	33060	32903	
5785	0	32954	32614	
5786	0	33004	32618	
5787	0	32864	32622	
5788	0	32726	32884	
5789	0	32656	32930	
5790	0	32588	32646	
5791	0	32506	32588	
5792	0	32528	32642	
5793	0	32606	32775	
5794	0	32534	32764	
5795	0	32474	32935	
5796	0	32384	32716	
5797	0	32434	32800	
5798	0	32538	32896	
5799	0	32574	32916	
5800	0	32484	32804	
5801	0	32682	32788	
5802	0	32640	32810	
5803	0	32596	33050	
5804	0	32536	33018	
5805	0	32588	32960	
5806	0	32640	32775	
5807	0	32674	32820	
5808	0	32712	32759	
5809	0	32764	32854	
5810	0	32736	32836	
5811	0	32620	32804	
5812	0	32694	32766	
5813	0	32896	32724	
5814	0	32854	32688	
5815	0	32912	32814	
5816	0	32962	32775	
5817	0	33112	32858	
5818	0	33184	32770	
5819	0	33392	32704	
5820	0	33394	32602	
5821	0	33504	32636	
5822	0	33514	32180	
5823	0	33444	32404	
5824	0	33460	32538	
5825	0	33404	32376	
5826	0	33364	32276	
5827	0	33312	32408	
5828	0	33220	32672	
5829	0	33154	32686	
5830	0	33108	32868	
5831	0	32994	32888	
5832	0	32912	32868	
5833	0	32638	32838	
5834	0	32580	33044	
5835	0	32576	32986	
5836	0	32470	32856	
5837	0	32420	32944	
5838	0	32456	32948	
5839	0	32536	33007	
5840	0	32488	32824	
5841	0	32504	32870	
5842	0	32524	32775	
5843	0	32554	32696	
5844	0	32450	32774	
5845	0	32574	32670	
5846	0	32582	32712	
5847	0	32642	32890	
5848	0	32648	32724	
5849	0	32644	32598	
5850	0	32754	32662	
5851	0	32938	32894	
5852	0	32888	32775	
5853	0	32824	32932	
5854	0	32868	32984	
5855	0	32916	32840	
5856	0	32896	32702	
5857	0	32836	32726	
5858	0	32872	32830	
5859	0	32880	32732	
5860	0	32860	32954	
5861	0	32922	32828	
5862	0	32836	32762	
5863	0	32932	32814	
5864	0	32908	32822	
5865	0	32856	32772	
5866	0	32816	32828	
5867	0	32756	32822	
5868	0	32606	32548	
5869	0	32712	32775	
5870	0	32688	32724	
5871	0	32718	32688	
5872	0	32852	32610	
5873	0	32836	32644	
5874	0	32918	32746	
5875	0	32920	32870	
5876	0	32828	32892	
5877	0	32816	32578	
5878	0	32824	32838	
5879	0	32913	32708	
5880	0	32968	32852	
5881	0	32952	32656	
5882	0	32948	32576	
5883	0	32968	32916	
5884	0	32840	32854	
5885	0	32902	32519	
5886	0	32988	32668	
5887	0	32936	32948	
5888	0	32936	32848	
5889	0	32856	32874	
5890	0	32860	32912	
5891	0	32920	32944	
5892	0	32808	32986	
5893	0	32796	32806	
5894	0	32884	32932	
5895	0	32810	32934	
5896	0	32832	32720	
5897	0	32810	32610	
5898	0	32884	32396	
5899	0	32868	32580	
5900	0	32768	32530	
5901	0	32908	32632	
5902	0	32964	32794	
5903	0	32864	32860	
5904	0	32800	32536	
5905	0	32794	32683	
5906	0	32774	32774	
5907	0	32930	32930	
5908	0	32964	32996	
5909	0	32836	32916	
5910	0	32940	32806	
5911	0	32944	33008	
5912	0	32916	32807	
5913	0	32938	32673	
5914	0	32912	32710	
5915	0	32928	32830	
5916	0	32898	32678	
5917	0	32998	32874	
5918	0	32936	32712	
5919	0	32728	32556	
5920	0	32816	32956	
5921	0	32804	32986	
5922	0	32668	32839	
5923	0	32664	32710	
5924	0	32608	32790	
5925	0	32492	32676	
5926	0	32528	32798	
5927	0	32440	32872	
5928	0	32360	32839	
5929	0	32400	32747	
5930	0	32512	32814	
5931	0	32656	32810	
5932	0	32634	32624	
5933	0	32648	32756	
5934	0	32724	32816	
5935	0	32676	32647	
5936	0	32736	32596	
5937	0	32756	32732	
5938	0	32824	32768	
5939	0	32860	32730	
5940	0	32812	32670	
5941	0	32836	32710	
5942	0	32844	32752	
5943	0	32892	32679	
5944	0	32868	32770	
5945	0	32896	32896	
5946	0	32892	32840	
5947	0	32894	32930	
5948	0	32868	32887	
5949	0	32838	33056	
5950	0	32814	32736	
5951	0	32840	32818	
5952	0	32816	32706	
5953	0	32940	32734	
5954	0	32898	32774	
5955	0	32908	32860	
5956	0	32864	32704	
5957	0	32824	32954	
5958	0	32712	32674	
5959	0	32668	32888	
5960	0	32788	32682	
5961	0	32616	32896	
5962	0	32646	32840	
5963	0	32760	32732	
5964	0	32928	32678	
5965	0	32844	32838	
5966	0	32790	32728	
5967	0	32848	32800	
5968	0	32812	32896	
5969	0	32834	32828	
5970	0	32818	32832	
5971	0	32728	32682	
5972	0	32730	32768	
5973	0	32782	32626	
5974	0	32832	32600	
5975	0	32892	32644	
5976	0	32938	32634	
5977	0	32798	32554	
5978	0	32786	32614	
5979	0	32724	32746	
5980	0	32656	32820	
5981	0	32708	32628	
5982	0	32764	32680	
5983	0	32684	32775	
5984	0	32712	32830	
5985	0	32752	32852	
5986	0	32728	32822	
5987	0	32752	32852	
5988	0	32766	32942	
5989	0	32728	32878	
5990	0	32834	32832	
5991	0	32816	32668	
5992	0	32788	32784	
5993	0	32772	32760	
5994	0	32836	32638	
5995	0	32880	32702	
5996	0	32852	32700	
5997	0	32856	32645	
5998	0	32928	32658	
5999	0	32952	32686	
6000	0	32988	32775	
6001	0	32968	32862	
6002	0	32928	32744	
6003	0	32960	32784	
6004	0	32860	32836	
6005	0	32868	32910	
6006	0	32885	32870	
6007	0	32956	32832	
6008	0	32970	32736	
6009	0	32848	32775	
6010	0	32840	32882	
6011	0	32794	32790	
6012	0	32724	32840	
