# OpenSignals Text File Format. Version 1
# {"00:07:80:8C:0A:39": {"position": 0, "device": "biosignalsplux", "device name": "00:07:80:8C:0A:39", "device connection": "BTH00:07:80:8C:0A:39", "sampling rate": 1000, "resolution": [16, 16], "firmware version": 776, "comments": "", "keywords": "", "mode": 0, "sync interval": 2, "date": "2023-3-10", "time": "15:27:52.54", "channels": [1, 2], "sensor": ["EMG", "EMG"], "label": ["CH1", "CH2"], "column": ["nSeq", "DI", "CH1", "CH2"], "special": [{"SpO2": [80, 40, 5, 4, 3, 3]}, {"SpO2": [80, 40, 5, 4, 3, 3]}, {"SpO2": [80, 40, 5, 4, 3, 3]}, {"SpO2": [80, 40, 5, 4, 3, 3]}, {"SpO2": [80, 40, 5, 4, 3, 3]}, {"SpO2": [80, 40, 5, 4, 3, 3]}, {"SpO2": [80, 40, 5, 4, 3, 3]}, {"SpO2": [80, 40, 5, 4, 3, 3]}], "digital IO": [0, 1], "sleeve color": ["gray", "yellow"], "convertedValues": 0}}
# EndOfHeader
0	0	32770	32830	
1	0	32800	32772	
2	0	32772	32775	
3	0	32758	32850	
4	0	32846	32848	
5	0	32816	32744	
6	0	32842	32716	
7	0	32732	32807	
8	0	32804	32798	
9	0	32820	32764	
10	0	32832	32661	
11	0	32826	32718	
12	0	32800	32744	
13	0	32836	32703	
14	0	32782	32732	
15	0	32800	32726	
16	0	32800	32689	
17	0	32848	32694	
18	0	32852	32724	
19	0	32866	32832	
20	0	32852	32732	
21	0	32796	32800	
22	0	32776	32846	
23	0	32816	32775	
24	0	32868	32736	
25	0	32820	32854	
26	0	32816	32796	
27	0	32832	32810	
28	0	32856	32836	
29	0	32856	32740	
30	0	32876	32696	
31	0	32844	32802	
32	0	32778	32642	
33	0	32808	32770	
34	0	32744	32792	
35	0	32840	32734	
36	0	32818	32750	
37	0	32808	32756	
38	0	32792	32764	
39	0	32804	32774	
40	0	32808	32758	
41	0	32756	32782	
42	0	32844	32674	
43	0	32838	32676	
44	0	32828	32730	
45	0	32808	32826	
46	0	32756	32794	
47	0	32846	32794	
48	0	32836	32812	
49	0	32820	32740	
50	0	32848	32722	
51	0	32860	32692	
52	0	32864	32802	
53	0	32810	32822	
54	0	32824	32752	
55	0	32760	32790	
56	0	32760	32798	
57	0	32816	32838	
58	0	32768	32830	
59	0	32834	32830	
60	0	32814	32790	
61	0	32816	32748	
62	0	32844	32743	
63	0	32816	32826	
64	0	32800	32752	
65	0	32814	32775	
66	0	32816	32784	
67	0	32804	32696	
68	0	32832	32658	
69	0	32758	32690	
70	0	32784	32792	
71	0	32848	32728	
72	0	32866	32774	
73	0	32848	32670	
74	0	32778	32712	
75	0	32828	32759	
76	0	32858	32736	
77	0	32792	32806	
78	0	32808	32768	
79	0	32868	32820	
80	0	32832	32744	
81	0	32818	32848	
82	0	32768	32775	
83	0	32784	32775	
84	0	32820	32624	
85	0	32784	32728	
86	0	32844	32774	
87	0	32762	32775	
88	0	32836	32730	
89	0	32784	32708	
90	0	32816	32807	
91	0	32832	32756	
92	0	32848	32748	
93	0	32784	32710	
94	0	32804	32728	
95	0	32856	32784	
96	0	32856	32788	
97	0	32778	32724	
98	0	32800	32848	
99	0	32792	32748	
100	0	32824	32708	
101	0	32760	32788	
102	0	32784	32854	
103	0	32824	32796	
104	0	32770	32760	
105	0	32764	32790	
106	0	32816	32774	
107	0	32852	32740	
108	0	32760	32720	
109	0	32720	32775	
110	0	32794	32768	
111	0	32832	32690	
112	0	32764	32738	
113	0	32816	32870	
114	0	32850	32775	
115	0	32760	32767	
116	0	32804	32718	
117	0	32784	32818	
118	0	32820	32832	
119	0	32812	32828	
120	0	32812	32782	
121	0	32832	32775	
122	0	32796	32756	
123	0	32852	32775	
124	0	32814	32775	
125	0	32824	32782	
126	0	32812	32786	
127	0	32760	32782	
128	0	32830	32772	
129	0	32788	32679	
130	0	32780	32732	
131	0	32772	32712	
132	0	32820	32842	
133	0	32824	32830	
134	0	32790	32775	
135	0	32844	32864	
136	0	32768	32822	
137	0	32892	32673	
138	0	32768	32638	
139	0	32800	32684	
140	0	32828	32804	
141	0	32806	32775	
142	0	32796	32862	
143	0	32828	32756	
144	0	32746	32692	
145	0	32814	32746	
146	0	32808	32710	
147	0	32766	32634	
148	0	32872	32636	
149	0	32874	32720	
150	0	32824	32752	
151	0	32760	32730	
152	0	32768	32696	
153	0	32864	32784	
154	0	32821	32742	
155	0	32798	32742	
156	0	32842	32744	
157	0	32778	32732	
158	0	32772	32815	
159	0	32880	32828	
160	0	32816	32856	
161	0	32824	32741	
162	0	32788	32718	
163	0	32836	32760	
164	0	32810	32680	
165	0	32848	32770	
166	0	32860	32838	
167	0	32772	32794	
168	0	32816	32810	
169	0	32768	32800	
170	0	32834	32756	
171	0	32828	32866	
172	0	32772	32756	
173	0	32804	32766	
174	0	32816	32786	
175	0	32910	32700	
176	0	32804	32722	
177	0	32778	32662	
178	0	32836	32636	
179	0	32794	32660	
180	0	32762	32818	
181	0	32796	32872	
182	0	32828	32770	
183	0	32804	32820	
184	0	32860	32692	
185	0	32792	32803	
186	0	32844	32806	
187	0	32792	32788	
188	0	32822	32874	
189	0	32768	32920	
190	0	32872	32844	
191	0	32744	32759	
192	0	32810	32658	
193	0	32804	32692	
194	0	32772	32708	
195	0	32810	32806	
196	0	32842	32808	
197	0	32818	32756	
198	0	32788	32892	
199	0	32816	32812	
200	0	32836	32820	
201	0	32852	32694	
202	0	32800	32729	
203	0	32748	32628	
204	0	32768	32846	
205	0	32832	32740	
206	0	32868	32734	
207	0	32768	32784	
208	0	32820	32790	
209	0	32852	32804	
210	0	32784	32738	
211	0	32808	32716	
212	0	32848	32692	
213	0	32720	32680	
214	0	32774	32652	
215	0	32740	32832	
216	0	32842	32834	
217	0	32866	32736	
218	0	32786	32800	
219	0	32808	32716	
220	0	32792	32720	
221	0	32776	32728	
222	0	32830	32849	
223	0	32796	32743	
224	0	32828	32766	
225	0	32820	32822	
226	0	32858	32724	
227	0	32772	32743	
228	0	32752	32750	
229	0	32860	32802	
230	0	32872	32772	
231	0	32756	32762	
232	0	32768	32796	
233	0	32840	32810	
234	0	32853	32768	
235	0	32848	32719	
236	0	32868	32678	
237	0	32860	32688	
238	0	32854	32750	
239	0	32856	32756	
240	0	32858	32798	
241	0	32796	32751	
242	0	32776	32772	
243	0	32828	32838	
244	0	32748	32772	
245	0	32874	32774	
246	0	32836	32684	
247	0	32880	32678	
248	0	32836	32790	
249	0	32834	32908	
250	0	32800	32752	
251	0	32748	32754	
252	0	32762	32750	
253	0	32824	32764	
254	0	32808	32644	
255	0	32786	32740	
256	0	32822	32812	
257	0	32832	32814	
258	0	32816	32848	
259	0	32816	32644	
260	0	32824	32714	
261	0	32772	32832	
262	0	32810	32828	
263	0	32874	32862	
264	0	32800	32808	
265	0	32848	32758	
266	0	32796	32644	
267	0	32848	32839	
268	0	32740	32775	
269	0	32780	32836	
270	0	32816	32848	
271	0	32676	32820	
272	0	32732	32868	
273	0	32778	32754	
274	0	32800	32700	
275	0	32756	32668	
276	0	32704	32704	
277	0	32670	32774	
278	0	32704	32830	
279	0	32708	32806	
280	0	32734	32849	
281	0	32742	32804	
282	0	32680	32820	
283	0	32656	32762	
284	0	32692	32966	
285	0	32720	32772	
286	0	32682	32807	
287	0	32650	32807	
288	0	32670	32828	
289	0	32648	32774	
290	0	32748	32808	
291	0	32804	32762	
292	0	32788	32868	
293	0	32864	32812	
294	0	32850	32770	
295	0	32848	32768	
296	0	32838	32640	
297	0	32916	32620	
298	0	33038	32540	
299	0	33100	32486	
300	0	33116	32506	
301	0	33260	32576	
302	0	33256	32628	
303	0	33318	32560	
304	0	33352	32540	
305	0	33404	32526	
306	0	33418	32519	
307	0	33404	32626	
308	0	33340	32688	
309	0	33140	32700	
310	0	33004	32666	
311	0	32852	32830	
312	0	32792	32826	
313	0	32564	32902	
314	0	32500	32908	
315	0	32468	32944	
316	0	32364	32908	
317	0	32436	32903	
318	0	32448	32903	
319	0	32482	32774	
320	0	32484	32828	
321	0	32516	32998	
322	0	32604	32828	
323	0	32618	32892	
324	0	32660	32716	
325	0	32720	32746	
326	0	32728	32788	
327	0	32724	32752	
328	0	32796	32880	
329	0	32676	32764	
330	0	32756	32688	
331	0	32792	32689	
332	0	32752	32908	
333	0	32812	32876	
334	0	32752	32802	
335	0	32880	32775	
336	0	32748	32806	
337	0	32832	32784	
338	0	32830	32752	
339	0	32776	32732	
340	0	32862	32744	
341	0	32796	32812	
342	0	32772	32870	
343	0	32736	32744	
344	0	32816	32862	
345	0	32776	32792	
346	0	32808	32694	
347	0	32834	32708	
348	0	32798	32726	
349	0	32858	32840	
350	0	32862	32718	
351	0	32822	32678	
352	0	32792	32716	
353	0	32808	32764	
354	0	32832	32768	
355	0	32894	32720	
356	0	32840	32674	
357	0	32834	32585	
358	0	32798	32630	
359	0	32856	32796	
360	0	32782	32823	
361	0	32808	32872	
362	0	32788	32775	
363	0	32796	32817	
364	0	32836	32834	
365	0	32800	32766	
366	0	32856	32864	
367	0	32844	32704	
368	0	32876	32724	
369	0	32849	32784	
370	0	32896	32826	
371	0	32852	32816	
372	0	32730	32820	
373	0	32852	32844	
374	0	32784	32772	
375	0	32744	32712	
376	0	32804	32752	
377	0	32816	32716	
378	0	32774	32698	
379	0	32798	32804	
380	0	32762	32804	
381	0	32796	32728	
382	0	32820	32704	
383	0	32770	32740	
384	0	32824	32690	
385	0	32794	32734	
386	0	32802	32807	
387	0	32752	32826	
388	0	32786	32788	
389	0	32840	32740	
390	0	32804	32812	
391	0	32770	32805	
392	0	32768	32775	
393	0	32888	32756	
394	0	32836	32724	
395	0	32824	32762	
396	0	32794	32888	
397	0	32820	32732	
398	0	32904	32792	
399	0	32808	32766	
400	0	32790	32736	
401	0	32812	32764	
402	0	32832	32766	
403	0	32824	32826	
404	0	32792	32820	
405	0	32772	32758	
406	0	32836	32725	
407	0	32832	32826	
408	0	32764	32732	
409	0	32810	32881	
410	0	32848	32886	
411	0	32832	32756	
412	0	32808	32702	
413	0	32816	32790	
414	0	32756	32692	
415	0	32880	32658	
416	0	32816	32567	
417	0	32810	32756	
418	0	32776	32692	
419	0	32772	32746	
420	0	32832	32856	
421	0	32780	32838	
422	0	32816	32770	
423	0	32776	32816	
424	0	32866	32806	
425	0	32772	32822	
426	0	32824	32820	
427	0	32834	32711	
428	0	32788	32780	
429	0	32868	32784	
430	0	32812	32812	
431	0	32804	32746	
432	0	32820	32710	
433	0	32856	32712	
434	0	32840	32695	
435	0	32812	32730	
436	0	32752	32718	
437	0	32796	32682	
438	0	32848	32714	
439	0	32842	32766	
440	0	32856	32741	
441	0	32812	32656	
442	0	32814	32688	
443	0	32722	32734	
444	0	32840	32734	
445	0	32752	32683	
446	0	32832	32712	
447	0	32814	32796	
448	0	32804	32758	
449	0	32768	32644	
450	0	32800	32708	
451	0	32800	32708	
452	0	32776	32812	
453	0	32750	32740	
454	0	32790	32728	
455	0	32792	32701	
456	0	32816	32834	
457	0	32824	32790	
458	0	32852	32800	
459	0	32792	32746	
460	0	32790	32775	
461	0	32820	32784	
462	0	32808	32850	
463	0	32860	32876	
464	0	32802	32775	
465	0	32812	32772	
466	0	32768	32775	
467	0	32826	32814	
468	0	32784	32738	
469	0	32775	32764	
470	0	32792	32716	
471	0	32742	32800	
472	0	32768	32764	
473	0	32788	32775	
474	0	32858	32632	
475	0	32808	32788	
476	0	32832	32757	
477	0	32846	32794	
478	0	32828	32722	
479	0	32820	32792	
480	0	32852	32764	
481	0	32756	32775	
482	0	32836	32696	
483	0	32792	32751	
484	0	32840	32775	
485	0	32800	32774	
486	0	32828	32880	
487	0	32852	32908	
488	0	32756	32798	
489	0	32826	32788	
490	0	32846	32766	
491	0	32794	32756	
492	0	32780	32732	
493	0	32846	32706	
494	0	32780	32732	
495	0	32780	32726	
496	0	32832	32896	
497	0	32778	32810	
498	0	32760	32775	
499	0	32804	32772	
500	0	32806	32716	
501	0	32802	32848	
502	0	32784	32692	
503	0	32828	32788	
504	0	32828	32800	
505	0	32828	32796	
506	0	32732	32816	
507	0	32792	32752	
508	0	32832	32810	
509	0	32740	32708	
510	0	32812	32784	
511	0	32876	32828	
512	0	32792	32711	
513	0	32836	32734	
514	0	32878	32724	
515	0	32856	32758	
516	0	32752	32678	
517	0	32716	32772	
518	0	32880	32770	
519	0	32838	32743	
520	0	32812	32688	
521	0	32806	32729	
522	0	32820	32820	
523	0	32838	32796	
524	0	32776	32775	
525	0	32800	32826	
526	0	32796	32810	
527	0	32856	32714	
528	0	32792	32688	
529	0	32792	32640	
530	0	32792	32742	
531	0	32822	32812	
532	0	32906	32718	
533	0	32832	32708	
534	0	32834	32807	
535	0	32832	32836	
536	0	32792	32796	
537	0	32849	32654	
538	0	32840	32775	
539	0	32820	32844	
540	0	32832	32689	
541	0	32832	32801	
542	0	32808	32832	
543	0	32884	32784	
544	0	32772	32712	
545	0	32812	32679	
546	0	32788	32748	
547	0	32820	32736	
548	0	32840	32800	
549	0	32828	32862	
550	0	32823	32767	
551	0	32806	32742	
552	0	32808	32790	
553	0	32840	32742	
554	0	32852	32752	
555	0	32802	32768	
556	0	32846	32775	
557	0	32808	32704	
558	0	32800	32670	
559	0	32836	32702	
560	0	32864	32830	
561	0	32784	32812	
562	0	32858	32775	
563	0	32728	32775	
564	0	32810	32888	
565	0	32852	32786	
566	0	32802	32743	
567	0	32846	32676	
568	0	32868	32760	
569	0	32824	32678	
570	0	32792	32772	
571	0	32822	32803	
572	0	32890	32860	
573	0	32808	32766	
574	0	32804	32778	
575	0	32732	32774	
576	0	32876	32814	
577	0	32776	32826	
578	0	32794	32759	
579	0	32870	32744	
580	0	32790	32696	
581	0	32764	32829	
582	0	32788	32872	
583	0	32728	32768	
584	0	32826	32775	
585	0	32792	32860	
586	0	32800	32670	
587	0	32820	32688	
588	0	32780	32774	
589	0	32788	32790	
590	0	32820	32938	
591	0	32832	32788	
592	0	32828	32734	
593	0	32808	32692	
594	0	32806	32672	
595	0	32860	32740	
596	0	32760	32728	
597	0	32760	32842	
598	0	32794	32804	
599	0	32796	32808	
600	0	32848	32775	
601	0	32792	32684	
602	0	32836	32670	
603	0	32852	32784	
604	0	32844	32782	
605	0	32824	32862	
606	0	32820	32812	
607	0	32848	32705	
608	0	32802	32722	
609	0	32740	32673	
610	0	32820	32764	
611	0	32788	32807	
612	0	32840	32734	
613	0	32820	32814	
614	0	32796	32852	
615	0	32826	32724	
616	0	32792	32724	
617	0	32818	32716	
618	0	32792	32828	
619	0	32804	32844	
620	0	32832	32834	
621	0	32804	32846	
622	0	32788	32752	
623	0	32824	32804	
624	0	32780	32774	
625	0	32780	32794	
626	0	32792	32748	
627	0	32804	32700	
628	0	32840	32828	
629	0	32864	32694	
630	0	32800	32774	
631	0	32776	32650	
632	0	32822	32692	
633	0	32822	32848	
634	0	32824	32751	
635	0	32800	32723	
636	0	32792	32774	
637	0	32788	32660	
638	0	32896	32698	
639	0	32714	32828	
640	0	32848	32788	
641	0	32884	32822	
642	0	32792	32725	
643	0	32784	32734	
644	0	32852	32772	
645	0	32800	32743	
646	0	32836	32834	
647	0	32860	32830	
648	0	32838	32792	
649	0	32820	32678	
650	0	32788	32714	
651	0	32892	32836	
652	0	32834	32766	
653	0	32816	32810	
654	0	32820	32836	
655	0	32834	32775	
656	0	32812	32717	
657	0	32772	32662	
658	0	32868	32679	
659	0	32752	32664	
660	0	32804	32786	
661	0	32784	32722	
662	0	32810	32734	
663	0	32834	32784	
664	0	32816	32810	
665	0	32800	32772	
666	0	32808	32775	
667	0	32836	32759	
668	0	32766	32736	
669	0	32792	32824	
670	0	32864	32782	
671	0	32878	32722	
672	0	32784	32807	
673	0	32854	32794	
674	0	32776	32754	
675	0	32928	32760	
676	0	32792	32712	
677	0	32820	32712	
678	0	32816	32692	
679	0	32740	32768	
680	0	32820	32846	
681	0	32764	32832	
682	0	32764	32740	
683	0	32784	32758	
684	0	32812	32820	
685	0	32802	32866	
686	0	32762	32814	
687	0	32848	32822	
688	0	32828	32700	
689	0	32784	32740	
690	0	32812	32724	
691	0	32804	32828	
692	0	32810	32770	
693	0	32784	32774	
694	0	32768	32752	
695	0	32864	32774	
696	0	32856	32688	
697	0	32820	32748	
698	0	32820	32676	
699	0	32848	32756	
700	0	32756	32774	
701	0	32850	32775	
702	0	32830	32836	
703	0	32888	32770	
704	0	32836	32756	
705	0	32752	32806	
706	0	32814	32766	
707	0	32776	32700	
708	0	32832	32708	
709	0	32808	32834	
710	0	32802	32878	
711	0	32752	32735	
712	0	32808	32746	
713	0	32780	32820	
714	0	32748	32754	
715	0	32792	32775	
716	0	32808	32649	
717	0	32808	32745	
718	0	32774	32786	
719	0	32856	32752	
720	0	32856	32828	
721	0	32708	32796	
722	0	32808	32714	
723	0	32834	32736	
724	0	32872	32718	
725	0	32816	32736	
726	0	32768	32855	
727	0	32832	32872	
728	0	32864	32764	
729	0	32786	32866	
730	0	32852	32796	
731	0	32844	32680	
732	0	32800	32708	
733	0	32816	32830	
734	0	32818	32788	
735	0	32854	32814	
736	0	32830	32743	
737	0	32824	32743	
738	0	32834	32775	
739	0	32800	32772	
740	0	32756	32732	
741	0	32790	32622	
742	0	32770	32706	
743	0	32820	32724	
744	0	32796	32784	
745	0	32852	32718	
746	0	32812	32798	
747	0	32826	32828	
748	0	32748	32743	
749	0	32786	32818	
750	0	32820	32874	
751	0	32832	32718	
752	0	32812	32679	
753	0	32840	32647	
754	0	32774	32790	
755	0	32778	32682	
756	0	32784	32762	
757	0	32836	32710	
758	0	32860	32748	
759	0	32824	32722	
760	0	32752	32814	
761	0	32750	32868	
762	0	32834	32762	
763	0	32812	32762	
764	0	32798	32736	
765	0	32784	32738	
766	0	32788	32687	
767	0	32864	32775	
768	0	32846	32832	
769	0	32868	32812	
770	0	32836	32768	
771	0	32844	32748	
772	0	32816	32784	
773	0	32830	32826	
774	0	32768	32836	
775	0	32788	32766	
776	0	32852	32748	
777	0	32772	32756	
778	0	32740	32835	
779	0	32784	32775	
780	0	32832	32760	
781	0	32842	32872	
782	0	32832	32784	
783	0	32802	32760	
784	0	32860	32712	
785	0	32764	32644	
786	0	32832	32760	
787	0	32800	32716	
788	0	32876	32862	
789	0	32808	32842	
790	0	32842	32772	
791	0	32792	32712	
792	0	32868	32886	
793	0	32848	32886	
794	0	32776	32838	
795	0	32840	32703	
796	0	32824	32692	
797	0	32796	32734	
798	0	32718	32680	
799	0	32820	32796	
800	0	32792	32794	
801	0	32820	32799	
802	0	32808	32856	
803	0	32780	32834	
804	0	32772	32858	
805	0	32800	32814	
806	0	32824	32738	
807	0	32888	32874	
808	0	32800	32838	
809	0	32772	32642	
810	0	32824	32718	
811	0	32844	32775	
812	0	32800	32764	
813	0	32762	32808	
814	0	32876	32802	
815	0	32816	32660	
816	0	32832	32682	
817	0	32792	32762	
818	0	32806	32792	
819	0	32884	32794	
820	0	32838	32798	
821	0	32814	32834	
822	0	32824	32860	
823	0	32824	32762	
824	0	32792	32764	
825	0	32836	32692	
826	0	32864	32654	
827	0	32792	32734	
828	0	32776	32752	
829	0	32844	32728	
830	0	32836	32724	
831	0	32834	32804	
832	0	32836	32757	
833	0	32900	32818	
834	0	32740	32770	
835	0	32790	32762	
836	0	32804	32872	
837	0	32744	32814	
838	0	32816	32740	
839	0	32836	32764	
840	0	32768	32807	
841	0	32804	32824	
842	0	32814	32640	
843	0	32788	32729	
844	0	32792	32824	
845	0	32768	32794	
846	0	32776	32828	
847	0	32840	32870	
848	0	32864	32768	
849	0	32870	32734	
850	0	32796	32706	
851	0	32820	32738	
852	0	32806	32698	
853	0	32824	32814	
854	0	32816	32775	
855	0	32784	32736	
856	0	32832	32788	
857	0	32836	32704	
858	0	32796	32718	
859	0	32816	32750	
860	0	32766	32738	
861	0	32760	32690	
862	0	32804	32696	
863	0	32814	32769	
864	0	32828	32892	
865	0	32836	32792	
866	0	32812	32708	
867	0	32808	32732	
868	0	32820	32810	
869	0	32888	32850	
870	0	32844	32740	
871	0	32800	32796	
872	0	32840	32775	
873	0	32800	32762	
874	0	32780	32738	
875	0	32800	32730	
876	0	32876	32838	
877	0	32838	32800	
878	0	32792	32760	
879	0	32840	32718	
880	0	32802	32774	
881	0	32804	32846	
882	0	32802	32798	
883	0	32812	32766	
884	0	32764	32720	
885	0	32824	32684	
886	0	32864	32774	
887	0	32801	32706	
888	0	32784	32798	
889	0	32804	32800	
890	0	32812	32838	
891	0	32848	32852	
892	0	32796	32710	
893	0	32840	32716	
894	0	32868	32710	
895	0	32888	32820	
896	0	32808	32743	
897	0	32852	32796	
898	0	32768	32798	
899	0	32840	32784	
900	0	32768	32768	
901	0	32796	32688	
902	0	32712	32682	
903	0	32798	32834	
904	0	32808	32728	
905	0	32780	32823	
906	0	32834	32792	
907	0	32858	32794	
908	0	32821	32764	
909	0	32816	32702	
910	0	32836	32736	
911	0	32872	32704	
912	0	32842	32746	
913	0	32812	32807	
914	0	32832	32775	
915	0	32769	32812	
916	0	32780	32722	
917	0	32782	32716	
918	0	32820	32644	
919	0	32812	32739	
920	0	32840	32775	
921	0	32778	32816	
922	0	32872	32710	
923	0	32800	32748	
924	0	32836	32654	
925	0	32836	32744	
926	0	32832	32730	
927	0	32794	32734	
928	0	32796	32775	
929	0	32796	32852	
930	0	32804	32792	
931	0	32852	32684	
932	0	32784	32828	
933	0	32816	32844	
934	0	32832	32788	
935	0	32782	32775	
936	0	32820	32726	
937	0	32804	32708	
938	0	32866	32750	
939	0	32810	32848	
940	0	32822	32804	
941	0	32846	32744	
942	0	32868	32880	
943	0	32828	32708	
944	0	32756	32690	
945	0	32764	32714	
946	0	32760	32746	
947	0	32772	32804	
948	0	32770	32814	
949	0	32864	32720	
950	0	32824	32753	
951	0	32810	32740	
952	0	32756	32742	
953	0	32744	32688	
954	0	32852	32690	
955	0	32880	32894	
956	0	32836	32806	
957	0	32848	32866	
958	0	32804	32715	
959	0	32768	32814	
960	0	32810	32814	
961	0	32738	32838	
962	0	32772	32846	
963	0	32816	32660	
964	0	32800	32728	
965	0	32820	32720	
966	0	32860	32804	
967	0	32864	32847	
968	0	32808	32794	
969	0	32865	32743	
970	0	32832	32732	
971	0	32840	32806	
972	0	32812	32816	
973	0	32798	32674	
974	0	32820	32732	
975	0	32784	32728	
976	0	32832	32598	
977	0	32784	32692	
978	0	32792	32908	
979	0	32828	32804	
980	0	32812	32742	
981	0	32888	32774	
982	0	32904	32814	
983	0	32788	32850	
984	0	32814	32728	
985	0	32760	32718	
986	0	32768	32732	
987	0	32768	32696	
988	0	32816	32822	
989	0	32762	32775	
990	0	32856	32757	
991	0	32788	32732	
992	0	32822	32768	
993	0	32830	32748	
994	0	32874	32828	
995	0	32776	32796	
996	0	32792	32750	
997	0	32808	32868	
998	0	32794	32852	
999	0	32804	32846	
1000	0	32892	32816	
1001	0	32856	32770	
1002	0	32872	32786	
1003	0	32796	32764	
1004	0	32708	32680	
1005	0	32808	32834	
1006	0	32824	32748	
1007	0	32842	32775	
1008	0	32828	32824	
1009	0	32772	32720	
1010	0	32756	32782	
1011	0	32768	32792	
1012	0	32860	32740	
1013	0	32748	32764	
1014	0	32744	32792	
1015	0	32794	32700	
1016	0	32916	32657	
1017	0	32826	32696	
1018	0	32820	32698	
1019	0	32884	32740	
1020	0	32828	32847	
1021	0	32792	32808	
1022	0	32796	32806	
1023	0	32864	32725	
1024	0	32786	32764	
1025	0	32828	32808	
1026	0	32744	32816	
1027	0	32860	32876	
1028	0	32816	32852	
1029	0	32800	32824	
1030	0	32836	32748	
1031	0	32812	32696	
1032	0	32780	32682	
1033	0	32744	32830	
1034	0	32802	32864	
1035	0	32724	32744	
1036	0	32840	32724	
1037	0	32840	32759	
1038	0	32776	32872	
1039	0	32876	32804	
1040	0	32848	32798	
1041	0	32836	32760	
1042	0	32816	32652	
1043	0	32834	32726	
1044	0	32788	32743	
1045	0	32770	32710	
1046	0	32816	32668	
1047	0	32796	32734	
1048	0	32784	32696	
1049	0	32868	32676	
1050	0	32780	32714	
1051	0	32832	32816	
1052	0	32792	32784	
1053	0	32802	32766	
1054	0	32820	32746	
1055	0	32764	32770	
1056	0	32828	32800	
1057	0	32808	32672	
1058	0	32812	32748	
1059	0	32784	32806	
1060	0	32856	32792	
1061	0	32816	32810	
1062	0	32842	32834	
1063	0	32816	32852	
1064	0	32800	32696	
1065	0	32808	32720	
1066	0	32816	32642	
1067	0	32724	32704	
1068	0	32778	32826	
1069	0	32750	32820	
1070	0	32800	32746	
1071	0	32796	32742	
1072	0	32832	32724	
1073	0	32800	32798	
1074	0	32812	32700	
1075	0	32732	32700	
1076	0	32788	32852	
1077	0	32784	32816	
1078	0	32828	32794	
1079	0	32784	32772	
1080	0	32846	32872	
1081	0	32848	32796	
1082	0	32816	32758	
1083	0	32744	32720	
1084	0	32704	32680	
1085	0	32796	32740	
1086	0	32762	32764	
1087	0	32856	32774	
1088	0	32836	32800	
1089	0	32780	32860	
1090	0	32760	32874	
1091	0	32764	32792	
1092	0	32812	32730	
1093	0	32828	32700	
1094	0	32834	32690	
1095	0	32770	32754	
1096	0	32868	32830	
1097	0	32852	32805	
1098	0	32748	32806	
1099	0	32852	32720	
1100	0	32842	32724	
1101	0	32796	32744	
1102	0	32806	32750	
1103	0	32796	32830	
1104	0	32782	32828	
1105	0	32792	32824	
1106	0	32734	32640	
1107	0	32832	32759	
1108	0	32820	32728	
1109	0	32780	32838	
1110	0	32832	32846	
1111	0	32840	32834	
1112	0	32782	32828	
1113	0	32788	32751	
1114	0	32816	32708	
1115	0	32744	32816	
1116	0	32796	32738	
1117	0	32756	32734	
1118	0	32796	32806	
1119	0	32792	32628	
1120	0	32810	32674	
1121	0	32864	32744	
1122	0	32780	32804	
1123	0	32828	32760	
1124	0	32760	32788	
1125	0	32828	32782	
1126	0	32768	32889	
1127	0	32806	32806	
1128	0	32884	32688	
1129	0	32848	32679	
1130	0	32810	32787	
1131	0	32792	32792	
1132	0	32858	32830	
1133	0	32788	32804	
1134	0	32808	32702	
1135	0	32740	32788	
1136	0	32766	32775	
1137	0	32780	32808	
1138	0	32736	32782	
1139	0	32732	32782	
1140	0	32752	32724	
1141	0	32770	32812	
1142	0	32760	32830	
1143	0	32784	32767	
1144	0	32812	32668	
1145	0	32708	32836	
1146	0	32692	32852	
1147	0	32708	32774	
1148	0	32744	32852	
1149	0	32770	32828	
1150	0	32704	32694	
1151	0	32692	32830	
1152	0	32716	32844	
1153	0	32646	32910	
1154	0	32664	32844	
1155	0	32688	32846	
1156	0	32656	32820	
1157	0	32672	32820	
1158	0	32696	32737	
1159	0	32720	32774	
1160	0	32750	32740	
1161	0	32792	32783	
1162	0	32812	32760	
1163	0	32792	32704	
1164	0	32868	32727	
1165	0	32868	32666	
1166	0	32904	32624	
1167	0	33044	32600	
1168	0	33154	32716	
1169	0	33124	32672	
1170	0	33208	32534	
1171	0	33194	32500	
1172	0	33378	32492	
1173	0	33364	32476	
1174	0	33364	32582	
1175	0	33400	32538	
1176	0	33332	32586	
1177	0	33242	32566	
1178	0	33064	32802	
1179	0	33036	32871	
1180	0	32906	32954	
1181	0	32754	32967	
1182	0	32640	32916	
1183	0	32596	32876	
1184	0	32568	33020	
1185	0	32520	33010	
1186	0	32484	32846	
1187	0	32506	32858	
1188	0	32512	32858	
1189	0	32466	32878	
1190	0	32508	32788	
1191	0	32650	32742	
1192	0	32592	32734	
1193	0	32680	32724	
1194	0	32740	32674	
1195	0	32650	32710	
1196	0	32632	32775	
1197	0	32712	32800	
1198	0	32716	32820	
1199	0	32752	32858	
1200	0	32766	32820	
1201	0	32768	32790	
1202	0	32830	32782	
1203	0	32824	32849	
1204	0	32780	32736	
1205	0	32792	32687	
1206	0	32820	32808	
1207	0	32844	32796	
1208	0	32820	32796	
1209	0	32800	32774	
1210	0	32788	32775	
1211	0	32816	32839	
1212	0	32860	32812	
1213	0	32800	32744	
1214	0	32876	32698	
1215	0	32823	32756	
1216	0	32814	32768	
1217	0	32808	32766	
1218	0	32816	32830	
1219	0	32868	32800	
1220	0	32824	32666	
1221	0	32856	32704	
1222	0	32840	32664	
1223	0	32824	32775	
1224	0	32738	32798	
1225	0	32830	32848	
1226	0	32848	32806	
1227	0	32776	32798	
1228	0	32860	32754	
1229	0	32916	32697	
1230	0	32764	32764	
1231	0	32800	32704	
1232	0	32774	32767	
1233	0	32778	32628	
1234	0	32808	32826	
1235	0	32826	32724	
1236	0	32808	32796	
1237	0	32748	32768	
1238	0	32840	32772	
1239	0	32818	32694	
1240	0	32782	32708	
1241	0	32832	32748	
1242	0	32804	32754	
1243	0	32832	32668	
1244	0	32872	32710	
1245	0	32808	32694	
1246	0	32806	32608	
1247	0	32808	32720	
1248	0	32796	32703	
1249	0	32768	32743	
1250	0	32808	32734	
1251	0	32824	32820	
1252	0	32848	32782	
1253	0	32824	32766	
1254	0	32820	32800	
1255	0	32810	32816	
1256	0	32768	32756	
1257	0	32776	32774	
1258	0	32784	32804	
1259	0	32794	32769	
1260	0	32786	32742	
1261	0	32768	32694	
1262	0	32844	32774	
1263	0	32852	32744	
1264	0	32824	32724	
1265	0	32788	32680	
1266	0	32812	32740	
1267	0	32780	32744	
1268	0	32764	32695	
1269	0	32816	32836	
1270	0	32870	32846	
1271	0	32844	32775	
1272	0	32732	32812	
1273	0	32818	32748	
1274	0	32888	32696	
1275	0	32808	32822	
1276	0	32752	32740	
1277	0	32812	32694	
1278	0	32744	32676	
1279	0	32816	32700	
1280	0	32852	32682	
1281	0	32820	32676	
1282	0	32812	32782	
1283	0	32828	32866	
1284	0	32806	32720	
1285	0	32778	32788	
1286	0	32808	32806	
1287	0	32812	32766	
1288	0	32788	32804	
1289	0	32844	32769	
1290	0	32820	32872	
1291	0	32808	32796	
1292	0	32880	32756	
1293	0	32772	32792	
1294	0	32804	32708	
1295	0	32828	32736	
1296	0	32836	32692	
1297	0	32792	32794	
1298	0	32824	32746	
1299	0	32838	32817	
1300	0	32808	32796	
1301	0	32792	32774	
1302	0	32846	32770	
1303	0	32768	32734	
1304	0	32772	32730	
1305	0	32800	32732	
1306	0	32796	32890	
1307	0	32768	32704	
1308	0	32848	32716	
1309	0	32836	32688	
1310	0	32812	32686	
1311	0	32860	32638	
1312	0	32804	32758	
1313	0	32798	32772	
1314	0	32824	32774	
1315	0	32816	32702	
1316	0	32796	32820	
1317	0	32878	32786	
1318	0	32864	32814	
1319	0	32862	32794	
1320	0	32764	32786	
1321	0	32840	32791	
1322	0	32852	32775	
1323	0	32820	32820	
1324	0	32794	32792	
1325	0	32796	32812	
1326	0	32770	32672	
1327	0	32913	32748	
1328	0	32832	32762	
1329	0	32798	32872	
1330	0	32740	32792	
1331	0	32836	32790	
1332	0	32800	32727	
1333	0	32812	32878	
1334	0	32816	32760	
1335	0	32772	32744	
1336	0	32756	32734	
1337	0	32744	32719	
1338	0	32780	32706	
1339	0	32834	32742	
1340	0	32798	32742	
1341	0	32800	32654	
1342	0	32804	32655	
1343	0	32808	32728	
1344	0	32804	32766	
1345	0	32712	32800	
1346	0	32728	32848	
1347	0	32860	32720	
1348	0	32808	32756	
1349	0	32770	32821	
1350	0	32796	32822	
1351	0	32866	32824	
1352	0	32840	32734	
1353	0	32834	32694	
1354	0	32888	32748	
1355	0	32776	32716	
1356	0	32816	32740	
1357	0	32814	32784	
1358	0	32801	32807	
1359	0	32828	32836	
1360	0	32772	32730	
1361	0	32802	32732	
1362	0	32816	32800	
1363	0	32744	32775	
1364	0	32764	32740	
1365	0	32792	32836	
1366	0	32808	32894	
1367	0	32760	32840	
1368	0	32800	32792	
1369	0	32864	32785	
1370	0	32836	32802	
1371	0	32852	32796	
1372	0	32868	32694	
1373	0	32840	32700	
1374	0	32784	32744	
1375	0	32772	32696	
1376	0	32866	32719	
1377	0	32878	32647	
1378	0	32784	32678	
1379	0	32806	32734	
1380	0	32764	32810	
1381	0	32820	32802	
1382	0	32796	32814	
1383	0	32854	32825	
1384	0	32800	32832	
1385	0	32796	32806	
1386	0	32790	32839	
1387	0	32840	32788	
1388	0	32810	32752	
1389	0	32856	32710	
1390	0	32760	32726	
1391	0	32816	32638	
1392	0	32800	32708	
1393	0	32862	32680	
1394	0	32768	32821	
1395	0	32792	32764	
1396	0	32772	32768	
1397	0	32784	32775	
1398	0	32800	32738	
1399	0	32828	32758	
1400	0	32800	32772	
1401	0	32868	32818	
1402	0	32866	32870	
1403	0	32844	32884	
1404	0	32876	32766	
1405	0	32794	32748	
1406	0	32760	32670	
1407	0	32762	32644	
1408	0	32836	32708	
1409	0	32836	32775	
1410	0	32860	32660	
1411	0	32860	32684	
1412	0	32808	32694	
1413	0	32828	32684	
1414	0	32832	32788	
1415	0	32818	32670	
1416	0	32782	32710	
1417	0	32786	32692	
1418	0	32846	32775	
1419	0	32812	32772	
1420	0	32772	32746	
1421	0	32804	32839	
1422	0	32812	32796	
1423	0	32802	32775	
1424	0	32784	32824	
1425	0	32874	32744	
1426	0	32794	32744	
1427	0	32761	32775	
1428	0	32836	32790	
1429	0	32800	32794	
1430	0	32812	32782	
1431	0	32756	32844	
1432	0	32894	32860	
1433	0	32808	32800	
1434	0	32764	32882	
1435	0	32794	32864	
1436	0	32764	32828	
1437	0	32756	32775	
1438	0	32888	32828	
1439	0	32794	32804	
1440	0	32852	32774	
1441	0	32806	32766	
1442	0	32858	32642	
1443	0	32804	32660	
1444	0	32708	32666	
1445	0	32836	32780	
1446	0	32800	32722	
1447	0	32840	32792	
1448	0	32804	32836	
1449	0	32864	32842	
1450	0	32748	32822	
1451	0	32798	32799	
1452	0	32848	32774	
1453	0	32802	32775	
1454	0	32812	32764	
1455	0	32788	32848	
1456	0	32800	32748	
1457	0	32764	32688	
1458	0	32806	32722	
1459	0	32818	32732	
1460	0	32857	32734	
1461	0	32812	32702	
1462	0	32842	32786	
1463	0	32788	32672	
1464	0	32834	32702	
1465	0	32816	32806	
1466	0	32808	32734	
1467	0	32776	32754	
1468	0	32760	32694	
1469	0	32852	32836	
1470	0	32796	32892	
1471	0	32816	32807	
1472	0	32788	32890	
1473	0	32776	32828	
1474	0	32872	32880	
1475	0	32824	32775	
1476	0	32806	32704	
1477	0	32780	32774	
1478	0	32764	32792	
1479	0	32760	32784	
1480	0	32834	32751	
1481	0	32804	32680	
1482	0	32884	32716	
1483	0	32814	32704	
1484	0	32818	32728	
1485	0	32868	32696	
1486	0	32822	32756	
1487	0	32828	32800	
1488	0	32852	32839	
1489	0	32796	32775	
1490	0	32788	32775	
1491	0	32828	32760	
1492	0	32832	32812	
1493	0	32816	32903	
1494	0	32776	32886	
1495	0	32808	32824	
1496	0	32828	32732	
1497	0	32796	32848	
1498	0	32780	32726	
1499	0	32738	32756	
1500	0	32816	32826	
1501	0	32814	32660	
1502	0	32788	32740	
1503	0	32808	32756	
1504	0	32800	32828	
1505	0	32788	32750	
1506	0	32832	32816	
1507	0	32854	32805	
1508	0	32832	32775	
1509	0	32804	32792	
1510	0	32748	32764	
1511	0	32780	32834	
1512	0	32798	32711	
1513	0	32736	32658	
1514	0	32816	32706	
1515	0	32844	32716	
1516	0	32816	32720	
1517	0	32788	32676	
1518	0	32812	32838	
1519	0	32792	32792	
1520	0	32784	32734	
1521	0	32816	32708	
1522	0	32828	32808	
1523	0	32784	32796	
1524	0	32808	32822	
1525	0	32812	32846	
1526	0	32772	32820	
1527	0	32800	32792	
1528	0	32832	32690	
1529	0	32848	32678	
1530	0	32796	32800	
1531	0	32804	32868	
1532	0	32786	32804	
1533	0	32822	32772	
1534	0	32706	32786	
1535	0	32760	32775	
1536	0	32840	32878	
1537	0	32804	32730	
1538	0	32826	32722	
1539	0	32808	32896	
1540	0	32804	32676	
1541	0	32764	32715	
1542	0	32808	32796	
1543	0	32820	32774	
1544	0	32848	32774	
1545	0	32828	32864	
1546	0	32832	32816	
1547	0	32773	32828	
1548	0	32746	32804	
1549	0	32780	32704	
1550	0	32842	32744	
1551	0	32786	32718	
1552	0	32774	32764	
1553	0	32798	32766	
1554	0	32846	32768	
1555	0	32740	32812	
1556	0	32768	32766	
1557	0	32800	32808	
1558	0	32860	32816	
1559	0	32806	32714	
1560	0	32804	32724	
1561	0	32800	32706	
1562	0	32768	32798	
1563	0	32912	32806	
1564	0	32826	32782	
1565	0	32804	32744	
1566	0	32780	32728	
1567	0	32776	32720	
1568	0	32752	32754	
1569	0	32864	32748	
1570	0	32770	32756	
1571	0	32772	32830	
1572	0	32792	32902	
1573	0	32836	32772	
1574	0	32856	32712	
1575	0	32816	32740	
1576	0	32800	32812	
1577	0	32848	32828	
1578	0	32800	32815	
1579	0	32806	32730	
1580	0	32810	32810	
1581	0	32832	32726	
1582	0	32792	32724	
1583	0	32752	32726	
1584	0	32834	32750	
1585	0	32764	32700	
1586	0	32774	32834	
1587	0	32866	32792	
1588	0	32848	32808	
1589	0	32789	32823	
1590	0	32860	32814	
1591	0	32816	32734	
1592	0	32788	32700	
1593	0	32776	32648	
1594	0	32848	32712	
1595	0	32852	32719	
1596	0	32860	32820	
1597	0	32840	32820	
1598	0	32776	32806	
1599	0	32794	32794	
1600	0	32740	32764	
1601	0	32880	32852	
1602	0	32820	32767	
1603	0	32838	32774	
1604	0	32804	32832	
1605	0	32868	32770	
1606	0	32844	32822	
1607	0	32844	32760	
1608	0	32834	32656	
1609	0	32820	32668	
1610	0	32796	32751	
1611	0	32804	32748	
1612	0	32808	32752	
1613	0	32792	32724	
1614	0	32736	32764	
1615	0	32864	32772	
1616	0	32832	32839	
1617	0	32788	32816	
1618	0	32772	32670	
1619	0	32820	32682	
1620	0	32812	32760	
1621	0	32804	32788	
1622	0	32792	32836	
1623	0	32832	32744	
1624	0	32864	32790	
1625	0	32800	32848	
1626	0	32804	32854	
1627	0	32788	32775	
1628	0	32868	32708	
1629	0	32866	32766	
1630	0	32800	32758	
1631	0	32816	32738	
1632	0	32812	32768	
1633	0	32820	32676	
1634	0	32818	32796	
1635	0	32876	32812	
1636	0	32800	32724	
1637	0	32852	32673	
1638	0	32804	32732	
1639	0	32780	32790	
1640	0	32756	32696	
1641	0	32773	32824	
1642	0	32848	32775	
1643	0	32868	32724	
1644	0	32804	32740	
1645	0	32828	32784	
1646	0	32800	32854	
1647	0	32832	32822	
1648	0	32820	32793	
1649	0	32864	32900	
1650	0	32810	32775	
1651	0	32824	32792	
1652	0	32852	32724	
1653	0	32840	32674	
1654	0	32796	32682	
1655	0	32796	32775	
1656	0	32838	32652	
1657	0	32770	32814	
1658	0	32792	32832	
1659	0	32746	32751	
1660	0	32774	32816	
1661	0	32830	32762	
1662	0	32856	32788	
1663	0	32884	32730	
1664	0	32806	32706	
1665	0	32836	32732	
1666	0	32858	32682	
1667	0	32828	32792	
1668	0	32840	32880	
1669	0	32860	32870	
1670	0	32794	32746	
1671	0	32808	32654	
1672	0	32792	32770	
1673	0	32792	32706	
1674	0	32762	32726	
1675	0	32782	32726	
1676	0	32796	32743	
1677	0	32792	32736	
1678	0	32804	32822	
1679	0	32804	32834	
1680	0	32834	32750	
1681	0	32804	32804	
1682	0	32808	32716	
1683	0	32796	32680	
1684	0	32828	32884	
1685	0	32808	32832	
1686	0	32848	32772	
1687	0	32858	32682	
1688	0	32812	32844	
1689	0	32712	32772	
1690	0	32832	32700	
1691	0	32814	32780	
1692	0	32812	32792	
1693	0	32836	32732	
1694	0	32812	32726	
1695	0	32812	32812	
1696	0	32828	32734	
1697	0	32810	32712	
1698	0	32822	32768	
1699	0	32804	32712	
1700	0	32836	32770	
1701	0	32868	32746	
1702	0	32820	32700	
1703	0	32784	32724	
1704	0	32844	32738	
1705	0	32776	32844	
1706	0	32772	32872	
1707	0	32808	32796	
1708	0	32862	32736	
1709	0	32772	32788	
1710	0	32860	32870	
1711	0	32776	32726	
1712	0	32878	32716	
1713	0	32770	32744	
1714	0	32816	32744	
1715	0	32824	32800	
1716	0	32748	32811	
1717	0	32878	32775	
1718	0	32740	32744	
1719	0	32830	32684	
1720	0	32836	32720	
1721	0	32800	32892	
1722	0	32826	32828	
1723	0	32816	32908	
1724	0	32784	32804	
1725	0	32860	32862	
1726	0	32868	32817	
1727	0	32844	32814	
1728	0	32840	32816	
1729	0	32852	32732	
1730	0	32944	32708	
1731	0	32874	32718	
1732	0	32804	32774	
1733	0	32802	32714	
1734	0	32786	32742	
1735	0	32768	32657	
1736	0	32732	32686	
1737	0	32896	32688	
1738	0	32836	32718	
1739	0	32780	32710	
1740	0	32808	32746	
1741	0	32794	32750	
1742	0	32864	32760	
1743	0	32858	32652	
1744	0	32824	32700	
1745	0	32776	32690	
1746	0	32804	32712	
1747	0	32764	32644	
1748	0	32804	32636	
1749	0	32836	32679	
1750	0	32788	32624	
1751	0	32816	32704	
1752	0	32792	32754	
1753	0	32796	32728	
1754	0	32812	32796	
1755	0	32828	32890	
1756	0	32806	32820	
1757	0	32732	32740	
1758	0	32788	32772	
1759	0	32788	32784	
1760	0	32770	32824	
1761	0	32796	32726	
1762	0	32800	32686	
1763	0	32792	32753	
1764	0	32780	32680	
1765	0	32812	32750	
1766	0	32816	32724	
1767	0	32826	32838	
1768	0	32852	32890	
1769	0	32848	32820	
1770	0	32836	32862	
1771	0	32828	32920	
1772	0	32788	32796	
1773	0	32836	32668	
1774	0	32810	32710	
1775	0	32882	32682	
1776	0	32884	32712	
1777	0	32788	32668	
1778	0	32796	32735	
1779	0	32772	32806	
1780	0	32772	32770	
1781	0	32776	32802	
1782	0	32788	32766	
1783	0	32800	32744	
1784	0	32860	32852	
1785	0	32884	32884	
1786	0	32796	32838	
1787	0	32772	32772	
1788	0	32828	32792	
1789	0	32812	32792	
1790	0	32850	32822	
1791	0	32860	32802	
1792	0	32778	32772	
1793	0	32802	32768	
1794	0	32834	32822	
1795	0	32832	32775	
1796	0	32832	32792	
1797	0	32794	32688	
1798	0	32804	32802	
1799	0	32802	32756	
1800	0	32860	32764	
1801	0	32780	32784	
1802	0	32834	32764	
1803	0	32878	32680	
1804	0	32796	32726	
1805	0	32816	32708	
1806	0	32770	32710	
1807	0	32780	32696	
1808	0	32844	32748	
1809	0	32824	32646	
1810	0	32852	32760	
1811	0	32858	32754	
1812	0	32800	32772	
1813	0	32824	32732	
1814	0	32864	32870	
1815	0	32808	32796	
1816	0	32780	32865	
1817	0	32752	32775	
1818	0	32836	32672	
1819	0	32840	32718	
1820	0	32844	32754	
1821	0	32792	32775	
1822	0	32840	32784	
1823	0	32804	32748	
1824	0	32740	32842	
1825	0	32740	32708	
1826	0	32796	32772	
1827	0	32808	32775	
1828	0	32848	32743	
1829	0	32876	32692	
1830	0	32744	32759	
1831	0	32788	32726	
1832	0	32808	32784	
1833	0	32832	32764	
1834	0	32848	32826	
1835	0	32818	32772	
1836	0	32744	32796	
1837	0	32770	32806	
1838	0	32812	32770	
1839	0	32710	32802	
1840	0	32782	32840	
1841	0	32752	32784	
1842	0	32820	32656	
1843	0	32780	32736	
1844	0	32808	32708	
1845	0	32840	32766	
1846	0	32828	32772	
1847	0	32878	32736	
1848	0	32824	32710	
1849	0	32796	32784	
1850	0	32804	32700	
1851	0	32860	32718	
1852	0	32818	32692	
1853	0	32792	32759	
1854	0	32740	32732	
1855	0	32788	32732	
1856	0	32812	32732	
1857	0	32792	32754	
1858	0	32868	32752	
1859	0	32848	32792	
1860	0	32808	32754	
1861	0	32808	32764	
1862	0	32798	32814	
1863	0	32840	32708	
1864	0	32824	32816	
1865	0	32800	32823	
1866	0	32774	32694	
1867	0	32836	32742	
1868	0	32820	32890	
1869	0	32780	32730	
1870	0	32876	32684	
1871	0	32802	32804	
1872	0	32862	32800	
1873	0	32882	32800	
1874	0	32846	32704	
1875	0	32798	32707	
1876	0	32836	32708	
1877	0	32800	32810	
1878	0	32804	32775	
1879	0	32798	32772	
1880	0	32852	32730	
1881	0	32776	32846	
1882	0	32782	32810	
1883	0	32796	32862	
1884	0	32788	32796	
1885	0	32816	32716	
1886	0	32818	32834	
1887	0	32804	32840	
1888	0	32736	32728	
1889	0	32790	32727	
1890	0	32828	32679	
1891	0	32872	32614	
1892	0	32924	32718	
1893	0	32900	32788	
1894	0	32868	32736	
1895	0	32888	32735	
1896	0	32792	32784	
1897	0	32876	32774	
1898	0	32820	32868	
1899	0	32784	32846	
1900	0	32830	32856	
1901	0	32832	32796	
1902	0	32852	32762	
1903	0	32892	32792	
1904	0	32878	32736	
1905	0	32832	32728	
1906	0	32802	32812	
1907	0	32720	32804	
1908	0	32832	32760	
1909	0	32764	32744	
1910	0	32728	32748	
1911	0	32832	32756	
1912	0	32776	32678	
1913	0	32768	32695	
1914	0	32744	32728	
1915	0	32772	32678	
1916	0	32796	32708	
1917	0	32744	32796	
1918	0	32784	32834	
1919	0	32792	32750	
1920	0	32800	32806	
1921	0	32860	32966	
1922	0	32848	32796	
1923	0	32816	32746	
1924	0	32770	32852	
1925	0	32740	32810	
1926	0	32880	32887	
1927	0	32864	32880	
1928	0	32802	32802	
1929	0	32812	32856	
1930	0	32864	32871	
1931	0	32916	32784	
1932	0	32808	32775	
1933	0	32844	32748	
1934	0	32822	32838	
1935	0	32800	32871	
1936	0	32784	32676	
1937	0	32802	32676	
1938	0	32808	32724	
1939	0	32768	32666	
1940	0	32826	32794	
1941	0	32824	32702	
1942	0	32870	32814	
1943	0	32712	32848	
1944	0	32762	32762	
1945	0	32684	32773	
1946	0	32794	32820	
1947	0	32808	32844	
1948	0	32768	32820	
1949	0	32784	32742	
1950	0	32796	32766	
1951	0	32824	32808	
1952	0	32836	32716	
1953	0	32960	32744	
1954	0	32896	32775	
1955	0	32920	32756	
1956	0	32852	32758	
1957	0	32808	32830	
1958	0	32824	32770	
1959	0	32830	32766	
1960	0	32862	32792	
1961	0	32822	32732	
1962	0	32800	32788	
1963	0	32780	32696	
1964	0	32798	32682	
1965	0	32892	32790	
1966	0	32866	32716	
1967	0	32876	32734	
1968	0	32740	32742	
1969	0	32848	32794	
1970	0	32818	32863	
1971	0	32852	32768	
1972	0	32798	32767	
1973	0	32826	32853	
1974	0	32784	32828	
1975	0	32772	32742	
1976	0	32790	32727	
1977	0	32912	32818	
1978	0	32846	32892	
1979	0	32828	32836	
1980	0	32852	32840	
1981	0	32804	32711	
1982	0	32832	32754	
1983	0	32804	32676	
1984	0	32838	32786	
1985	0	32776	32711	
1986	0	32824	32742	
1987	0	32776	32736	
1988	0	32844	32796	
1989	0	32806	32782	
1990	0	32806	32775	
1991	0	32848	32766	
1992	0	32884	32742	
1993	0	32788	32852	
1994	0	32740	32808	
1995	0	32866	32668	
1996	0	32876	32766	
1997	0	32712	32775	
1998	0	32738	32728	
1999	0	32812	32630	
2000	0	32744	32696	
2001	0	32824	32688	
2002	0	32908	32716	
2003	0	32844	32652	
2004	0	32768	32656	
2005	0	32792	32692	
2006	0	32844	32839	
2007	0	32840	32802	
2008	0	32920	32774	
2009	0	32864	32775	
2010	0	32776	32768	
2011	0	32724	32720	
2012	0	32768	32686	
2013	0	32692	32828	
2014	0	32748	32748	
2015	0	32736	32881	
2016	0	32834	32854	
2017	0	32846	32696	
2018	0	32848	32760	
2019	0	32804	32762	
2020	0	32744	32740	
2021	0	32708	32802	
2022	0	32800	32655	
2023	0	32792	32656	
2024	0	32960	32775	
2025	0	32852	32740	
2026	0	32798	32894	
2027	0	32884	32844	
2028	0	32932	32840	
2029	0	32888	32784	
2030	0	32850	32775	
2031	0	32922	32736	
2032	0	32848	32772	
2033	0	32700	32810	
2034	0	32548	32886	
2035	0	32612	32672	
2036	0	32856	32788	
2037	0	32817	32678	
2038	0	32744	32708	
2039	0	32864	32760	
2040	0	32882	32748	
2041	0	32792	32660	
2042	0	32856	32766	
2043	0	32928	32775	
2044	0	32852	32848	
2045	0	32772	32775	
2046	0	32792	32784	
2047	0	32744	32894	
2048	0	32788	32774	
2049	0	32766	32788	
2050	0	32812	32740	
2051	0	32760	32644	
2052	0	32800	32686	
2053	0	32712	32646	
2054	0	32726	32716	
2055	0	32756	32748	
2056	0	32652	32698	
2057	0	32796	32820	
2058	0	33016	32812	
2059	0	32976	32796	
2060	0	32708	32828	
2061	0	32798	32840	
2062	0	32940	32892	
2063	0	32856	32644	
2064	0	32884	32676	
2065	0	32816	32544	
2066	0	32896	32660	
2067	0	32828	32798	
2068	0	32848	32770	
2069	0	32700	32758	
2070	0	32784	32775	
2071	0	32760	32766	
2072	0	32802	32808	
2073	0	32752	32894	
2074	0	32750	32686	
2075	0	32704	32641	
2076	0	32744	32670	
2077	0	32836	32743	
2078	0	32732	32772	
2079	0	32760	32798	
2080	0	32712	32772	
2081	0	32684	32843	
2082	0	32730	32807	
2083	0	32756	32704	
2084	0	32930	32764	
2085	0	33168	32798	
2086	0	32792	32775	
2087	0	32772	32839	
2088	0	32798	32899	
2089	0	32668	32844	
2090	0	32708	32804	
2091	0	32735	32792	
2092	0	32772	32640	
2093	0	32768	32712	
2094	0	32720	32824	
2095	0	32644	32762	
2096	0	32668	32826	
2097	0	32790	32774	
2098	0	32728	32960	
2099	0	32678	32802	
2100	0	32632	32800	
2101	0	32732	32742	
2102	0	32784	32786	
2103	0	32738	32844	
2104	0	32768	32814	
2105	0	32692	32736	
2106	0	32588	32711	
2107	0	32644	32670	
2108	0	32880	32646	
2109	0	33032	32752	
2110	0	32844	32564	
2111	0	32932	32519	
2112	0	33124	32476	
2113	0	33084	32490	
2114	0	33178	32466	
2115	0	33400	32528	
2116	0	33444	32564	
2117	0	33444	32574	
2118	0	33270	32582	
2119	0	33284	32670	
2120	0	33238	32658	
2121	0	33020	32756	
2122	0	32972	32780	
2123	0	32800	32768	
2124	0	32784	32820	
2125	0	32816	32960	
2126	0	32738	32974	
2127	0	32640	33008	
2128	0	32652	32866	
2129	0	32384	32876	
2130	0	32552	32812	
2131	0	32504	32962	
2132	0	32632	33072	
2133	0	32764	33020	
2134	0	32784	32984	
2135	0	32496	32848	
2136	0	32612	32790	
2137	0	32620	32874	
2138	0	32756	32724	
2139	0	32712	32796	
2140	0	32512	32772	
2141	0	32680	32660	
2142	0	32816	32728	
2143	0	32892	32770	
2144	0	32664	32720	
2145	0	32708	32752	
2146	0	32672	32718	
2147	0	32932	32652	
2148	0	32932	32680	
2149	0	32712	32652	
2150	0	32716	32718	
2151	0	32774	32732	
2152	0	32774	32696	
2153	0	32844	32874	
2154	0	32910	32788	
2155	0	32988	32716	
2156	0	33116	32736	
2157	0	33044	32688	
2158	0	32812	32838	
2159	0	33016	32804	
2160	0	32622	32796	
2161	0	32728	32916	
2162	0	32532	32788	
2163	0	32308	32732	
2164	0	32920	32908	
2165	0	32538	32899	
2166	0	32622	32775	
2167	0	32824	32769	
2168	0	33074	32708	
2169	0	33036	32647	
2170	0	32572	32537	
2171	0	32900	32686	
2172	0	33140	32719	
2173	0	33092	32848	
2174	0	33008	33060	
2175	0	32728	33002	
2176	0	32576	32804	
2177	0	32484	32576	
2178	0	32514	32630	
2179	0	32620	32608	
2180	0	32496	32716	
2181	0	32664	32664	
2182	0	32744	32612	
2183	0	32660	32807	
2184	0	32738	32760	
2185	0	32826	32668	
2186	0	33172	32664	
2187	0	33184	32646	
2188	0	33070	32734	
2189	0	33008	32672	
2190	0	33156	32736	
2191	0	33166	32769	
2192	0	32972	32622	
2193	0	32964	32642	
2194	0	32612	32662	
2195	0	32386	32791	
2196	0	32420	32994	
2197	0	32720	32810	
2198	0	33382	32784	
2199	0	33040	32788	
2200	0	32868	32838	
2201	0	32878	32764	
2202	0	32736	32786	
2203	0	32916	32912	
2204	0	32892	32745	
2205	0	32314	32784	
2206	0	32440	32842	
2207	0	32752	32804	
2208	0	32776	32740	
2209	0	32744	32766	
2210	0	32840	32854	
2211	0	32888	32936	
2212	0	32840	32992	
2213	0	32741	32976	
2214	0	32918	32864	
2215	0	32930	32903	
2216	0	32804	32903	
2217	0	32704	32846	
2218	0	32818	32868	
2219	0	32732	32647	
2220	0	32832	32534	
2221	0	32996	32596	
2222	0	32900	32658	
2223	0	32832	32552	
2224	0	32852	32616	
2225	0	32568	32727	
2226	0	32616	32758	
2227	0	33010	32848	
2228	0	32640	32678	
2229	0	32360	32772	
2230	0	32468	32996	
2231	0	32624	32967	
2232	0	32888	32952	
2233	0	32984	32879	
2234	0	33072	32734	
2235	0	33028	32704	
2236	0	33128	32648	
2237	0	32970	32646	
2238	0	32846	32672	
2239	0	32688	32767	
2240	0	32916	32732	
2241	0	33156	32695	
2242	0	32924	32736	
2243	0	32672	32820	
2244	0	32914	32836	
2245	0	32628	32768	
2246	0	32714	32816	
2247	0	33048	32775	
2248	0	32688	32868	
2249	0	32448	32999	
2250	0	32612	32938	
2251	0	33000	32878	
2252	0	33012	32742	
2253	0	32804	32682	
2254	0	33048	32654	
2255	0	33072	32890	
2256	0	32988	32903	
2257	0	32922	32888	
2258	0	32908	32934	
2259	0	32708	32944	
2260	0	32622	32824	
2261	0	32572	32664	
2262	0	32408	32654	
2263	0	32722	32678	
2264	0	32828	32600	
2265	0	32904	32551	
2266	0	32624	32492	
2267	0	32490	32534	
2268	0	32476	32452	
2269	0	32552	32554	
2270	0	32684	32650	
2271	0	32842	32782	
2272	0	32832	32980	
2273	0	33040	33076	
2274	0	33204	32946	
2275	0	33160	32884	
2276	0	32974	32948	
2277	0	32742	32775	
2278	0	32664	32646	
2279	0	32540	32596	
2280	0	32644	32698	
2281	0	32802	32648	
2282	0	32952	32672	
2283	0	32750	32604	
2284	0	32864	32702	
2285	0	32502	32660	
2286	0	32068	32764	
2287	0	32976	32848	
2288	0	33066	32816	
2289	0	32768	32852	
2290	0	32756	32938	
2291	0	33086	33048	
2292	0	33418	32996	
2293	0	32898	32750	
2294	0	33316	32792	
2295	0	33384	32775	
2296	0	33056	32743	
2297	0	32996	32702	
2298	0	33082	32576	
2299	0	32768	32798	
2300	0	32428	32824	
2301	0	32592	32836	
2302	0	32876	32938	
2303	0	33058	32944	
2304	0	32756	32970	
2305	0	32320	32772	
2306	0	32388	32658	
2307	0	32446	32708	
2308	0	32476	32702	
2309	0	32740	32668	
2310	0	32832	32675	
2311	0	32504	32578	
2312	0	32398	32744	
2313	0	32256	32704	
2314	0	32280	32758	
2315	0	32764	32775	
2316	0	33068	32844	
2317	0	33050	32942	
2318	0	33220	32796	
2319	0	33428	32646	
2320	0	33640	32708	
2321	0	33612	32586	
2322	0	32752	32604	
2323	0	33072	32602	
2324	0	32890	32647	
2325	0	32564	32760	
2326	0	33184	32660	
2327	0	33292	32700	
2328	0	32788	32700	
2329	0	32116	32646	
2330	0	32504	32650	
2331	0	31946	32920	
2332	0	32048	32884	
2333	0	32140	32817	
2334	0	32584	32858	
2335	0	32708	32966	
2336	0	32780	32772	
2337	0	33020	32678	
2338	0	33221	32582	
2339	0	33356	32518	
2340	0	33080	32700	
2341	0	33132	32788	
2342	0	33264	32964	
2343	0	33060	32900	
2344	0	32630	32752	
2345	0	32480	32700	
2346	0	32620	32839	
2347	0	32736	32775	
2348	0	32548	32678	
2349	0	33088	32772	
2350	0	33004	33029	
2351	0	32706	32916	
2352	0	32856	32927	
2353	0	33348	32698	
2354	0	33642	32722	
2355	0	32900	32727	
2356	0	32808	32598	
2357	0	32760	32432	
2358	0	32044	32500	
2359	0	32800	32712	
2360	0	32496	32884	
2361	0	32756	32894	
2362	0	33348	32936	
2363	0	33944	33136	
2364	0	33580	32768	
2365	0	32588	32608	
2366	0	33094	32622	
2367	0	33210	32658	
2368	0	32920	32821	
2369	0	33044	33066	
2370	0	33354	33190	
2371	0	33540	33044	
2372	0	32840	33022	
2373	0	32160	33207	
2374	0	31460	32900	
2375	0	31556	32734	
2376	0	31634	32610	
2377	0	31868	32334	
2378	0	31926	32102	
2379	0	32108	32196	
2380	0	32624	32404	
2381	0	32416	32530	
2382	0	32628	32694	
2383	0	32948	32515	
2384	0	32798	32510	
2385	0	32626	32484	
2386	0	32624	32721	
2387	0	32710	32742	
2388	0	32904	32631	
2389	0	32456	32670	
2390	0	32744	32518	
2391	0	33960	32564	
2392	0	34120	33268	
2393	0	33752	33452	
2394	0	32480	33420	
2395	0	33060	33422	
2396	0	33584	33332	
2397	0	33944	33194	
2398	0	33428	33184	
2399	0	33196	32900	
2400	0	32540	32954	
2401	0	32412	32768	
2402	0	32388	32616	
2403	0	32542	32500	
2404	0	32268	32262	
2405	0	32314	32298	
2406	0	32348	32170	
2407	0	32462	32454	
2408	0	32484	32676	
2409	0	32460	32774	
2410	0	32660	32684	
2411	0	32672	32647	
2412	0	32938	32646	
2413	0	33002	32551	
2414	0	32800	32528	
2415	0	32908	32334	
2416	0	32924	32444	
2417	0	32868	32580	
2418	0	32821	32736	
2419	0	32928	32848	
2420	0	33124	33332	
2421	0	32900	33400	
2422	0	32838	33370	
2423	0	33044	33392	
2424	0	33200	33248	
2425	0	32880	33124	
2426	0	32792	33063	
2427	0	33112	32824	
2428	0	33172	32616	
2429	0	32936	32388	
2430	0	32986	32378	
2431	0	33072	32359	
2432	0	32700	32304	
2433	0	32206	32508	
2434	0	31972	32662	
2435	0	32320	32832	
2436	0	32402	33063	
2437	0	32708	32984	
2438	0	33062	32844	
2439	0	33080	32728	
2440	0	33140	32995	
2441	0	33108	33158	
2442	0	32832	33205	
2443	0	32824	33046	
2444	0	32586	33202	
2445	0	32589	33182	
2446	0	32828	33076	
2447	0	32932	32908	
2448	0	33010	32878	
2449	0	33092	32585	
2450	0	33002	32334	
2451	0	32938	32260	
2452	0	32936	32366	
2453	0	32828	32698	
2454	0	32674	32892	
2455	0	32490	32830	
2456	0	32652	32614	
2457	0	32988	32560	
2458	0	33364	32714	
2459	0	33584	32852	
2460	0	33308	32968	
2461	0	32834	33013	
2462	0	32464	32842	
2463	0	32136	32704	
2464	0	33198	32546	
2465	0	32848	32600	
2466	0	32616	32684	
2467	0	32724	32558	
2468	0	32116	32486	
2469	0	31816	32551	
2470	0	32346	32312	
2471	0	32448	32316	
2472	0	32242	32574	
2473	0	32480	32748	
2474	0	32640	32796	
2475	0	32680	32912	
2476	0	32680	32902	
2477	0	32650	32994	
2478	0	32648	33194	
2479	0	32808	33054	
2480	0	32836	32774	
2481	0	32942	32775	
2482	0	33064	33000	
2483	0	33040	32952	
2484	0	32890	32824	
2485	0	32816	32404	
2486	0	32880	32362	
2487	0	33344	32511	
2488	0	33540	32588	
2489	0	33560	32956	
2490	0	33424	32934	
2491	0	33084	33300	
2492	0	33034	33588	
2493	0	32940	33500	
2494	0	32620	33174	
2495	0	32178	32714	
2496	0	32632	32335	
2497	0	32964	32110	
2498	0	32812	32084	
2499	0	32756	32102	
2500	0	32992	31936	
2501	0	32852	31902	
2502	0	32894	32070	
2503	0	32938	32263	
2504	0	32944	32423	
2505	0	33060	32518	
2506	0	32740	32640	
2507	0	32736	33228	
2508	0	32796	33780	
2509	0	32868	34222	
2510	0	32740	34438	
2511	0	32328	34934	
2512	0	32524	34606	
2513	0	32620	33706	
2514	0	32786	33004	
2515	0	32916	32666	
2516	0	33060	32404	
2517	0	33150	32052	
2518	0	33304	31572	
2519	0	33104	31148	
2520	0	32808	31088	
2521	0	32864	31372	
2522	0	32592	31424	
2523	0	32708	31649	
2524	0	32668	31808	
2525	0	32580	32236	
2526	0	32772	32487	
2527	0	32796	33074	
2528	0	32754	33576	
2529	0	32360	33608	
2530	0	32280	33930	
2531	0	32212	33686	
2532	0	32140	33532	
2533	0	32644	33358	
2534	0	32812	33094	
2535	0	32776	32296	
2536	0	32768	31950	
2537	0	32924	32372	
2538	0	32932	32496	
2539	0	32944	32364	
2540	0	33008	32352	
2541	0	33268	32480	
2542	0	33400	32588	
2543	0	33262	32868	
2544	0	33118	33031	
2545	0	33264	33242	
2546	0	33008	33168	
2547	0	32616	32940	
2548	0	32632	33010	
2549	0	32782	33132	
2550	0	32802	32862	
2551	0	32740	32470	
2552	0	32676	32514	
2553	0	32764	32812	
2554	0	32788	33502	
2555	0	32566	33444	
2556	0	32746	33278	
2557	0	33000	33200	
2558	0	33102	32970	
2559	0	33058	32518	
2560	0	33220	32176	
2561	0	32984	32126	
2562	0	32778	31968	
2563	0	32616	32232	
2564	0	32376	32632	
2565	0	32496	33004	
2566	0	32880	33352	
2567	0	33292	33456	
2568	0	33336	33306	
2569	0	33058	32868	
2570	0	32894	32674	
2571	0	32852	32774	
2572	0	32572	32678	
2573	0	32296	32568	
2574	0	31936	32730	
2575	0	32004	32708	
2576	0	32356	32574	
2577	0	32432	32362	
2578	0	32228	32441	
2579	0	32548	32596	
2580	0	32782	32830	
2581	0	32760	32724	
2582	0	32888	32754	
2583	0	32930	32610	
2584	0	32944	32896	
2585	0	33008	33072	
2586	0	33000	33040	
2587	0	32936	32748	
2588	0	33064	32712	
2589	0	33042	32492	
2590	0	32988	32725	
2591	0	32980	33140	
2592	0	33064	33612	
2593	0	33504	33984	
2594	0	33306	33543	
2595	0	32948	33074	
2596	0	32932	32890	
2597	0	32600	33026	
2598	0	32576	32928	
2599	0	32560	32839	
2600	0	32944	32166	
2601	0	32996	31909	
2602	0	32920	31584	
2603	0	32900	31720	
2604	0	32929	31556	
2605	0	33000	31318	
2606	0	33072	31326	
2607	0	33016	31334	
2608	0	32584	31810	
2609	0	32368	31994	
2610	0	32574	32428	
2611	0	32460	33238	
2612	0	32360	34026	
2613	0	32666	34484	
2614	0	32508	34508	
2615	0	32344	34311	
2616	0	32276	33416	
2617	0	32460	33204	
2618	0	32536	33319	
2619	0	32830	33476	
2620	0	33168	33572	
2621	0	33112	32879	
2622	0	32952	32420	
2623	0	32874	32340	
2624	0	32580	32336	
2625	0	32692	32736	
2626	0	32756	32476	
2627	0	32988	32304	
2628	0	33416	31864	
2629	0	33630	31794	
2630	0	33420	32434	
2631	0	33320	33020	
2632	0	33364	33031	
2633	0	33024	32999	
2634	0	32856	32884	
2635	0	32732	33140	
2636	0	32608	33068	
2637	0	32624	33287	
2638	0	32744	32870	
2639	0	32770	32620	
2640	0	32770	32530	
2641	0	32620	32656	
2642	0	32682	33024	
2643	0	32788	33126	
2644	0	32538	33188	
2645	0	32604	33246	
2646	0	32456	33138	
2647	0	32416	32972	
2648	0	32440	32790	
2649	0	32568	32783	
2650	0	32732	32468	
2651	0	32784	32244	
2652	0	32888	32132	
2653	0	33008	31726	
2654	0	33328	31828	
2655	0	33332	31856	
2656	0	33048	31844	
2657	0	32844	32140	
2658	0	32896	32672	
2659	0	32812	33322	
2660	0	32772	33632	
2661	0	32822	33654	
2662	0	32640	33348	
2663	0	32596	33359	
2664	0	33000	33240	
2665	0	32834	33162	
2666	0	32918	33456	
2667	0	32840	33664	
2668	0	32912	33975	
2669	0	32860	33815	
2670	0	32548	33406	
2671	0	32596	33210	
2672	0	32548	32616	
2673	0	32728	32191	
2674	0	32640	32263	
2675	0	32748	31860	
2676	0	32672	31600	
2677	0	32804	31112	
2678	0	32904	30948	
2679	0	32888	31230	
2680	0	33086	31606	
2681	0	33132	31988	
2682	0	32889	32504	
2683	0	32782	32624	
2684	0	32720	32942	
2685	0	32660	33240	
2686	0	32844	33452	
2687	0	32870	33780	
2688	0	32810	33438	
2689	0	32980	33342	
2690	0	32972	33218	
2691	0	33064	33608	
2692	0	32838	33890	
2693	0	32800	33764	
2694	0	32360	33415	
2695	0	32346	32838	
2696	0	32346	32270	
2697	0	32526	31828	
2698	0	32660	31602	
2699	0	32904	31598	
2700	0	32944	32172	
2701	0	33058	32154	
2702	0	32872	32304	
2703	0	32820	32112	
2704	0	32868	32551	
2705	0	32844	32692	
2706	0	32804	32720	
2707	0	32652	32800	
2708	0	32604	32796	
2709	0	32824	32876	
2710	0	32882	32828	
2711	0	32772	32846	
2712	0	32818	32846	
2713	0	32880	32980	
2714	0	33064	33140	
2715	0	32984	33538	
2716	0	32936	33786	
2717	0	32844	34536	
2718	0	32848	34842	
2719	0	32824	34951	
2720	0	32586	34490	
2721	0	32834	33902	
2722	0	32834	33616	
2723	0	32724	33380	
2724	0	32668	32654	
2725	0	32734	31810	
2726	0	33092	30982	
2727	0	32856	30384	
2728	0	32756	30574	
2729	0	32806	30682	
2730	0	32602	30820	
2731	0	32856	30988	
2732	0	33192	31428	
2733	0	33524	32064	
2734	0	33576	32612	
2735	0	33358	33238	
2736	0	33104	33485	
2737	0	32806	33394	
2738	0	32558	33351	
2739	0	32452	33596	
2740	0	32400	33348	
2741	0	32308	33031	
2742	0	32580	33208	
2743	0	32670	33478	
2744	0	32656	33500	
2745	0	32636	33238	
2746	0	32728	33196	
2747	0	32638	32775	
2748	0	32516	32683	
2749	0	32760	32650	
2750	0	32888	32304	
2751	0	33056	32258	
2752	0	32928	32171	
2753	0	32536	32326	
2754	0	32700	32672	
2755	0	32720	33217	
2756	0	32516	33158	
2757	0	32832	33602	
2758	0	32884	33780	
2759	0	32774	33680	
2760	0	32800	33338	
2761	0	32926	33141	
2762	0	33152	33196	
2763	0	33276	33084	
2764	0	33036	32647	
2765	0	32712	32140	
2766	0	32842	31774	
2767	0	32874	31659	
2768	0	32868	32186	
2769	0	32904	32652	
2770	0	32964	32664	
2771	0	33000	32964	
2772	0	33032	32647	
2773	0	33136	32206	
2774	0	32724	32076	
2775	0	32538	32028	
2776	0	32634	31980	
2777	0	32854	32020	
2778	0	32780	32300	
2779	0	32802	32488	
2780	0	32748	32664	
2781	0	32636	32770	
2782	0	32990	32872	
2783	0	32932	33031	
2784	0	32860	33226	
2785	0	32770	33198	
2786	0	32704	33012	
2787	0	32578	32956	
2788	0	32682	33434	
2789	0	32916	34100	
2790	0	32832	34272	
2791	0	32792	33984	
2792	0	32622	33444	
2793	0	32426	33148	
2794	0	32442	33066	
2795	0	32722	32796	
2796	0	32902	32542	
2797	0	32790	32820	
2798	0	32796	32568	
2799	0	32912	32268	
2800	0	33060	32263	
2801	0	33032	32412	
2802	0	32901	32007	
2803	0	32746	31612	
2804	0	32824	31548	
2805	0	32736	31640	
2806	0	32898	31920	
2807	0	33148	32024	
2808	0	33060	32336	
2809	0	32804	32644	
2810	0	32692	33230	
2811	0	32852	33558	
2812	0	32772	33324	
2813	0	32708	33510	
2814	0	32690	33475	
2815	0	32676	33468	
2816	0	32844	33686	
2817	0	32912	33831	
2818	0	32614	33726	
2819	0	32572	33388	
2820	0	32512	33316	
2821	0	32318	33268	
2822	0	32624	32912	
2823	0	32732	32198	
2824	0	32612	31918	
2825	0	32984	32074	
2826	0	33008	32263	
2827	0	32720	32302	
2828	0	33010	32870	
2829	0	33324	33478	
2830	0	33424	33510	
2831	0	33166	33086	
2832	0	33036	32918	
2833	0	32712	32775	
2834	0	32732	32006	
2835	0	32720	31607	
2836	0	32764	31440	
2837	0	32856	31388	
2838	0	32706	31612	
2839	0	32734	31708	
2840	0	32804	32012	
2841	0	32706	32252	
2842	0	32798	32670	
2843	0	32872	32966	
2844	0	32738	33272	
2845	0	32720	33658	
2846	0	32528	33614	
2847	0	32618	33434	
2848	0	32876	34048	
2849	0	33072	33830	
2850	0	32968	33318	
2851	0	32860	32722	
2852	0	32780	32484	
2853	0	32654	32532	
2854	0	32852	32158	
2855	0	32900	32084	
2856	0	32906	32178	
2857	0	32868	32540	
2858	0	32744	32754	
2859	0	32720	33127	
2860	0	32696	33064	
2861	0	32752	32916	
2862	0	32880	33270	
2863	0	32684	33986	
2864	0	32646	34464	
2865	0	32636	34544	
2866	0	32618	34350	
2867	0	32856	33958	
2868	0	32908	32980	
2869	0	32786	32054	
2870	0	32716	31332	
2871	0	32632	30848	
2872	0	32688	30786	
2873	0	32872	30878	
2874	0	32928	31520	
2875	0	32988	31902	
2876	0	33120	31836	
2877	0	33032	31574	
2878	0	32988	31966	
2879	0	32924	32418	
2880	0	32888	32536	
2881	0	32688	32708	
2882	0	32396	33100	
2883	0	32688	33600	
2884	0	33052	33748	
2885	0	32796	33788	
2886	0	32676	33671	
2887	0	32816	33696	
2888	0	32568	33446	
2889	0	32908	33572	
2890	0	33080	33692	
2891	0	32860	33452	
2892	0	32984	33054	
2893	0	32986	32752	
2894	0	33060	32964	
2895	0	33076	33144	
2896	0	32884	32924	
2897	0	32700	32644	
2898	0	32656	32736	
2899	0	32816	32775	
2900	0	32740	32420	
2901	0	32784	32444	
2902	0	32664	31950	
2903	0	32492	31810	
2904	0	32582	31939	
2905	0	32782	32006	
2906	0	32614	32023	
2907	0	32516	32506	
2908	0	32618	32860	
2909	0	32920	33214	
2910	0	33088	33268	
2911	0	33070	33332	
2912	0	33106	33370	
2913	0	32852	32946	
2914	0	32898	32544	
2915	0	32868	32344	
2916	0	32764	32300	
2917	0	32695	32084	
2918	0	32844	31984	
2919	0	32716	32296	
2920	0	32586	32383	
2921	0	32654	32948	
2922	0	32726	33320	
2923	0	32632	34084	
2924	0	32664	34695	
2925	0	32832	34694	
2926	0	32770	34420	
2927	0	32724	34000	
2928	0	32894	33140	
2929	0	32884	31928	
2930	0	32812	31292	
2931	0	32838	31216	
2932	0	32924	31020	
2933	0	32952	31239	
2934	0	33052	31364	
2935	0	32954	31648	
2936	0	32880	32030	
2937	0	33024	32263	
2938	0	32784	32372	
2939	0	32706	32858	
2940	0	32732	33094	
2941	0	32834	33356	
2942	0	32656	33400	
2943	0	32616	33500	
2944	0	32728	33640	
2945	0	32936	33610	
2946	0	32778	33722	
2947	0	32764	33655	
2948	0	32752	33574	
2949	0	32992	33140	
2950	0	32856	33044	
2951	0	32832	33866	
2952	0	32841	34188	
2953	0	32870	34380	
2954	0	32912	33564	
2955	0	33100	33028	
2956	0	32790	32682	
2957	0	32680	32263	
2958	0	32593	32046	
2959	0	32752	31884	
2960	0	32642	31606	
2961	0	32806	31664	
2962	0	32732	31544	
2963	0	32760	31445	
2964	0	32656	31444	
2965	0	32790	31644	
2966	0	32878	32028	
2967	0	32634	32422	
2968	0	32538	33008	
2969	0	32284	33416	
2970	0	32362	33696	
2971	0	32576	33850	
2972	0	32844	33372	
2973	0	32690	33168	
2974	0	32538	32871	
2975	0	32670	32514	
2976	0	32924	32322	
2977	0	33244	32262	
2978	0	33176	32434	
2979	0	32718	32542	
2980	0	32432	32876	
2981	0	32586	33259	
2982	0	32956	33502	
2983	0	32940	33434	
2984	0	33052	33316	
2985	0	33164	33108	
2986	0	33232	32844	
2987	0	33344	32768	
2988	0	33208	32318	
2989	0	33240	32130	
2990	0	33348	32132	
2991	0	33484	32492	
2992	0	33664	32938	
2993	0	33720	33543	
2994	0	33552	33700	
2995	0	33344	33135	
2996	0	32976	32570	
2997	0	32864	32106	
2998	0	32756	31990	
2999	0	32484	31714	
3000	0	32552	31652	
3001	0	32394	31576	
3002	0	32296	31694	
3003	0	32136	32452	
3004	0	32432	32666	
3005	0	32400	32946	
3006	0	32520	33213	
3007	0	32554	33358	
3008	0	32720	33190	
3009	0	32612	32804	
3010	0	32578	32662	
3011	0	32656	32828	
3012	0	32746	32657	
3013	0	32916	32922	
3014	0	32706	33024	
3015	0	32752	32896	
3016	0	32810	33264	
3017	0	33210	33410	
3018	0	32950	33538	
3019	0	32952	33838	
3020	0	32596	34038	
3021	0	32700	34330	
3022	0	33068	34662	
3023	0	32912	33839	
3024	0	32804	33124	
3025	0	32724	32807	
3026	0	32478	32129	
3027	0	32512	31862	
3028	0	32612	31306	
3029	0	32804	31132	
3030	0	32768	30986	
3031	0	32868	30996	
3032	0	32844	31057	
3033	0	32868	31438	
3034	0	32908	31700	
3035	0	32936	32032	
3036	0	32792	32487	
3037	0	32748	32804	
3038	0	32804	33270	
3039	0	32834	33470	
3040	0	32748	33444	
3041	0	32754	33452	
3042	0	32734	33224	
3043	0	32693	33346	
3044	0	32822	33611	
3045	0	33016	33654	
3046	0	33000	33583	
3047	0	33120	33526	
3048	0	32972	33360	
3049	0	32844	33298	
3050	0	32640	33150	
3051	0	32608	33658	
3052	0	32820	33888	
3053	0	32746	33543	
3054	0	32590	32846	
3055	0	32808	32380	
3056	0	32754	31808	
3057	0	32736	31495	
3058	0	32776	31676	
3059	0	33046	31636	
3060	0	32896	31658	
3061	0	32548	32062	
3062	0	32872	32540	
3063	0	32996	32984	
3064	0	32884	33799	
3065	0	32888	33760	
3066	0	32542	33402	
3067	0	32734	32822	
3068	0	32760	32406	
3069	0	32694	32312	
3070	0	32748	31890	
3071	0	32842	31687	
3072	0	32874	31862	
3073	0	32762	32170	
3074	0	32782	32676	
3075	0	32860	33086	
3076	0	32936	33092	
3077	0	32692	33478	
3078	0	32850	33316	
3079	0	32740	33092	
3080	0	32480	33480	
3081	0	32550	33572	
3082	0	32616	33350	
3083	0	32640	33182	
3084	0	32670	32641	
3085	0	32868	32632	
3086	0	33010	33336	
3087	0	32952	33278	
3088	0	33072	33078	
3089	0	32910	32940	
3090	0	32782	32872	
3091	0	32964	32430	
3092	0	32892	32081	
3093	0	32804	31962	
3094	0	32788	32204	
3095	0	32796	31900	
3096	0	32884	31590	
3097	0	32832	31616	
3098	0	32708	31676	
3099	0	32686	32004	
3100	0	32716	32242	
3101	0	32632	32638	
3102	0	32618	33058	
3103	0	32716	33294	
3104	0	32504	33518	
3105	0	32764	33540	
3106	0	32824	33414	
3107	0	32832	33679	
3108	0	32880	33734	
3109	0	32828	33412	
3110	0	32664	33620	
3111	0	32696	33416	
3112	0	32748	33080	
3113	0	32876	32676	
3114	0	32874	32254	
3115	0	32852	32076	
3116	0	32912	31996	
3117	0	32900	32180	
3118	0	32958	32200	
3119	0	32968	32420	
3120	0	32854	32692	
3121	0	32774	32794	
3122	0	32846	32718	
3123	0	32808	32716	
3124	0	32848	32508	
3125	0	32774	32652	
3126	0	32706	33104	
3127	0	32636	33304	
3128	0	32828	33550	
3129	0	32800	33799	
3130	0	32768	33780	
3131	0	32884	33534	
3132	0	32816	33155	
3133	0	32674	32568	
3134	0	32784	32630	
3135	0	32676	32408	
3136	0	32712	32130	
3137	0	32776	31816	
3138	0	32936	31868	
3139	0	33022	32436	
3140	0	32968	32468	
3141	0	32976	32227	
3142	0	32850	32560	
3143	0	32732	32492	
3144	0	32796	32628	
3145	0	32800	32728	
3146	0	32796	32678	
3147	0	32972	32682	
3148	0	33012	32554	
3149	0	32996	32734	
3150	0	32804	33174	
3151	0	32604	33144	
3152	0	32714	33518	
3153	0	32932	33768	
3154	0	32856	33799	
3155	0	32774	34140	
3156	0	32948	34218	
3157	0	32800	33640	
3158	0	32844	32748	
3159	0	32820	31928	
3160	0	32840	31646	
3161	0	32880	31604	
3162	0	32804	31424	
3163	0	32600	31640	
3164	0	32716	31760	
3165	0	32708	32404	
3166	0	32696	32832	
3167	0	32600	32718	
3168	0	32780	32378	
3169	0	32824	32416	
3170	0	32812	33014	
3171	0	32824	33158	
3172	0	32888	32674	
3173	0	32656	32384	
3174	0	32756	32248	
3175	0	32774	32343	
3176	0	32880	32932	
3177	0	32996	32958	
3178	0	33306	32706	
3179	0	32972	32934	
3180	0	32744	33282	
3181	0	32804	33265	
3182	0	32840	33046	
3183	0	32756	33780	
3184	0	32836	34178	
3185	0	32880	33796	
3186	0	32724	33280	
3187	0	32704	32832	
3188	0	32732	32422	
3189	0	32708	32548	
3190	0	32688	32432	
3191	0	32764	32174	
3192	0	32784	32080	
3193	0	32882	32106	
3194	0	32832	32304	
3195	0	32532	32578	
3196	0	32450	32775	
3197	0	32704	32804	
3198	0	32812	33322	
3199	0	33024	33482	
3200	0	32792	32913	
3201	0	32736	32294	
3202	0	33042	32260	
3203	0	33140	32418	
3204	0	32964	32906	
3205	0	32540	32598	
3206	0	32776	32508	
3207	0	32996	32775	
3208	0	33014	33070	
3209	0	32880	33024	
3210	0	32780	32680	
3211	0	32792	32162	
3212	0	32796	32114	
3213	0	32908	32244	
3214	0	32884	32686	
3215	0	32764	32948	
3216	0	32788	33098	
3217	0	32682	33050	
3218	0	32676	33112	
3219	0	32634	33208	
3220	0	32560	32862	
3221	0	32756	32678	
3222	0	32790	32620	
3223	0	32930	32703	
3224	0	32856	32612	
3225	0	32760	32676	
3226	0	32736	32752	
3227	0	32820	32600	
3228	0	32956	32592	
3229	0	32976	32782	
3230	0	32848	32788	
3231	0	32992	32940	
3232	0	32938	32967	
3233	0	32760	32794	
3234	0	32862	33062	
3235	0	32828	33380	
3236	0	32820	33754	
3237	0	32586	33580	
3238	0	32744	33532	
3239	0	32984	34400	
3240	0	33106	35164	
3241	0	32868	34644	
3242	0	32615	33283	
3243	0	32764	32495	
3244	0	32760	31688	
3245	0	32686	31088	
3246	0	32784	30616	
3247	0	32792	30340	
3248	0	32732	30384	
3249	0	32792	30727	
3250	0	32968	31036	
3251	0	33009	31700	
3252	0	32726	32236	
3253	0	32620	32806	
3254	0	32706	33278	
3255	0	32830	33152	
3256	0	33162	33121	
3257	0	32904	33031	
3258	0	32848	32950	
3259	0	32868	32744	
3260	0	32746	33056	
3261	0	32616	33392	
3262	0	32704	33510	
3263	0	32726	33844	
3264	0	32904	34112	
3265	0	33002	34210	
3266	0	32896	33724	
3267	0	32716	33500	
3268	0	32712	33184	
3269	0	32820	33104	
3270	0	32812	32818	
3271	0	32740	32044	
3272	0	32644	31920	
3273	0	32744	31860	
3274	0	32822	31746	
3275	0	32996	31626	
3276	0	32832	31935	
3277	0	32746	32306	
3278	0	32654	32444	
3279	0	32680	32464	
3280	0	32820	32700	
3281	0	32856	32880	
3282	0	32976	32916	
3283	0	32818	33090	
3284	0	32896	33127	
3285	0	32852	33222	
3286	0	32768	33206	
3287	0	32736	33211	
3288	0	32546	33438	
3289	0	32604	33570	
3290	0	32932	33268	
3291	0	33028	33079	
3292	0	32796	32842	
3293	0	32552	32392	
3294	0	32660	32653	
3295	0	32676	32890	
3296	0	32744	33114	
3297	0	32878	33196	
3298	0	33240	33748	
3299	0	32854	33790	
3300	0	32874	33222	
3301	0	32736	32672	
3302	0	32888	31900	
3303	0	32888	32146	
3304	0	32762	31998	
3305	0	32636	31922	
3306	0	32748	31814	
3307	0	32784	32102	
3308	0	32950	32308	
3309	0	32824	32380	
3310	0	32832	32226	
3311	0	32680	32136	
3312	0	32624	32045	
3313	0	32716	32288	
3314	0	32656	32320	
3315	0	32838	32850	
3316	0	32888	33014	
3317	0	33048	33296	
3318	0	33016	33374	
3319	0	32872	33312	
3320	0	32824	33434	
3321	0	32904	33490	
3322	0	32782	33604	
3323	0	32724	33654	
3324	0	32814	33792	
3325	0	32852	33436	
3326	0	33044	33584	
3327	0	32934	33580	
3328	0	32928	33280	
3329	0	32912	32690	
3330	0	32556	32120	
3331	0	32800	31434	
3332	0	32676	31239	
3333	0	32548	31570	
3334	0	32688	31782	
3335	0	32756	31910	
3336	0	32798	32384	
3337	0	32928	32706	
3338	0	33176	32864	
3339	0	33124	32924	
3340	0	32988	32897	
3341	0	32676	33202	
3342	0	32620	33178	
3343	0	32704	33576	
3344	0	32732	34052	
3345	0	32660	34300	
3346	0	32736	34252	
3347	0	32922	34082	
3348	0	32972	33872	
3349	0	32856	33150	
3350	0	32876	32374	
3351	0	32874	31994	
3352	0	32772	31270	
3353	0	32682	31096	
3354	0	32910	30992	
3355	0	32820	31290	
3356	0	32817	31768	
3357	0	32778	32180	
3358	0	32724	32668	
3359	0	32924	33004	
3360	0	32712	33176	
3361	0	32944	33134	
3362	0	32836	32814	
3363	0	32796	32646	
3364	0	32812	32704	
3365	0	33032	32838	
3366	0	32872	32656	
3367	0	32628	32680	
3368	0	32752	32736	
3369	0	32816	32666	
3370	0	32948	32830	
3371	0	33073	32934	
3372	0	32924	33380	
3373	0	32736	33873	
3374	0	32674	33816	
3375	0	32856	33828	
3376	0	32834	34640	
3377	0	32788	34880	
3378	0	32696	34044	
3379	0	32654	33783	
3380	0	32660	33190	
3381	0	32628	32260	
3382	0	32648	32124	
3383	0	32760	32040	
3384	0	32544	31462	
3385	0	32612	31208	
3386	0	32804	31326	
3387	0	32882	31632	
3388	0	32848	31674	
3389	0	32902	31380	
3390	0	32927	31312	
3391	0	32904	31890	
3392	0	32808	31884	
3393	0	32748	32124	
3394	0	32708	32510	
3395	0	32920	32832	
3396	0	32944	33372	
3397	0	32956	33799	
3398	0	33068	34214	
3399	0	33148	34076	
3400	0	32806	34166	
3401	0	32624	34338	
3402	0	32448	34588	
3403	0	32444	34302	
3404	0	32640	33924	
3405	0	32628	33056	
3406	0	32536	32128	
3407	0	32632	31892	
3408	0	32740	31684	
3409	0	32668	31271	
3410	0	32600	31732	
3411	0	32888	32620	
3412	0	32994	33392	
3413	0	33056	33580	
3414	0	33332	33018	
3415	0	33360	32324	
3416	0	33150	31844	
3417	0	33092	31751	
3418	0	33100	31848	
3419	0	32954	31944	
3420	0	32908	32464	
3421	0	32826	32536	
3422	0	32896	32842	
3423	0	32914	32834	
3424	0	32632	32638	
3425	0	32756	32536	
3426	0	32616	32692	
3427	0	32606	32824	
3428	0	32708	32932	
3429	0	32642	33126	
3430	0	32824	33430	
3431	0	32852	33946	
3432	0	32814	34238	
3433	0	32658	34144	
3434	0	32732	34458	
3435	0	32880	34378	
3436	0	32912	33640	
3437	0	32774	32732	
3438	0	32664	31838	
3439	0	32732	31612	
3440	0	32804	31522	
3441	0	33028	30924	
3442	0	32752	30624	
3443	0	32902	30884	
3444	0	32776	31794	
3445	0	32724	32454	
3446	0	32648	32688	
3447	0	32704	33196	
3448	0	32760	33415	
3449	0	32608	33346	
3450	0	32468	33024	
3451	0	32516	33031	
3452	0	32788	32976	
3453	0	33022	32878	
3454	0	32986	32968	
3455	0	32868	32636	
3456	0	32862	32588	
3457	0	32808	33159	
3458	0	32884	33446	
3459	0	33024	33714	
3460	0	32928	33536	
3461	0	32756	33476	
3462	0	32672	33622	
3463	0	32616	33394	
3464	0	32720	32806	
3465	0	32782	32288	
3466	0	32816	31842	
3467	0	32720	31444	
3468	0	32812	31152	
3469	0	32948	31018	
3470	0	33000	31559	
3471	0	32964	32118	
3472	0	32980	32566	
3473	0	32954	32476	
3474	0	32840	33006	
3475	0	32778	33624	
3476	0	32614	34226	
3477	0	32250	34330	
3478	0	32396	34410	
3479	0	32364	35132	
3480	0	32212	34972	
3481	0	32458	34662	
3482	0	32916	33372	
3483	0	33356	32774	
3484	0	33452	32188	
3485	0	33412	31720	
3486	0	33256	31030	
3487	0	33048	30534	
3488	0	33048	29792	
3489	0	33104	29688	
3490	0	33048	30714	
3491	0	32928	31727	
3492	0	32968	32068	
3493	0	33004	31886	
3494	0	32866	31860	
3495	0	32844	32766	
3496	0	32692	33352	
3497	0	32736	33374	
3498	0	32576	33520	
3499	0	32568	33628	
3500	0	32604	33878	
3501	0	32591	33748	
3502	0	32632	34284	
3503	0	32500	34916	
3504	0	32574	35230	
3505	0	32712	34848	
3506	0	32668	34102	
3507	0	32744	32918	
3508	0	32596	31866	
3509	0	32612	31320	
3510	0	32818	31174	
3511	0	32932	31048	
3512	0	32972	31156	
3513	0	32876	31280	
3514	0	32908	32146	
3515	0	33056	32984	
3516	0	33028	33260	
3517	0	33106	33456	
3518	0	32928	33542	
3519	0	32752	33296	
3520	0	32796	33440	
3521	0	32940	33540	
3522	0	32820	33634	
3523	0	32810	33422	
3524	0	32756	32894	
3525	0	32806	32600	
3526	0	32744	32662	
3527	0	32746	32838	
3528	0	32764	32696	
3529	0	32712	32878	
3530	0	32668	32874	
3531	0	32684	32712	
3532	0	32708	32174	
3533	0	32666	32096	
3534	0	32780	32620	
3535	0	32976	32914	
3536	0	33018	33082	
3537	0	32944	33006	
3538	0	32841	32836	
3539	0	32896	32828	
3540	0	32846	32730	
3541	0	33060	32590	
3542	0	33064	32638	
3543	0	32952	32860	
3544	0	32700	32668	
3545	0	32738	32565	
3546	0	32808	32494	
3547	0	32744	32372	
3548	0	32716	31844	
3549	0	32748	32128	
3550	0	32740	32526	
3551	0	32776	32644	
3552	0	32828	33465	
3553	0	32826	34055	
3554	0	32688	34180	
3555	0	32772	33366	
3556	0	32828	32634	
3557	0	32808	32508	
3558	0	32672	32580	
3559	0	32676	32120	
3560	0	32698	31954	
3561	0	32812	31824	
3562	0	32808	31582	
3563	0	32916	31576	
3564	0	32896	32016	
3565	0	32876	32058	
3566	0	32716	32140	
3567	0	32912	32448	
3568	0	32880	33114	
3569	0	32912	33458	
3570	0	32884	33904	
3571	0	32828	34736	
3572	0	32756	35202	
3573	0	32772	34830	
3574	0	32476	34263	
3575	0	32480	33808	
3576	0	32798	32910	
3577	0	32908	31804	
3578	0	32682	31382	
3579	0	32644	31080	
3580	0	32720	30900	
3581	0	32876	31268	
3582	0	32770	32212	
3583	0	32710	33218	
3584	0	32840	33708	
3585	0	32926	33912	
3586	0	32968	33634	
3587	0	32896	32932	
3588	0	32876	31818	
3589	0	32688	31004	
3590	0	32486	30780	
3591	0	32736	31560	
3592	0	32852	32200	
3593	0	32912	32774	
3594	0	32976	33542	
3595	0	32940	33814	
3596	0	32842	34108	
3597	0	32814	34032	
3598	0	32834	34288	
3599	0	32752	33924	
3600	0	32810	33401	
3601	0	32696	32743	
3602	0	32588	32632	
3603	0	32740	32234	
3604	0	32764	31536	
3605	0	32632	31808	
3606	0	32852	32160	
3607	0	33090	32679	
3608	0	32984	32646	
3609	0	32874	32668	
3610	0	32844	32570	
3611	0	32856	32494	
3612	0	32860	32454	
3613	0	32812	32722	
3614	0	32760	32676	
3615	0	32828	32744	
3616	0	32828	32454	
3617	0	32816	32480	
3618	0	32894	32420	
3619	0	32916	32494	
3620	0	33068	32956	
3621	0	33184	33982	
3622	0	32880	35016	
3623	0	32704	35128	
3624	0	32754	34808	
3625	0	32732	34650	
3626	0	32750	33694	
3627	0	32676	32452	
3628	0	32746	31502	
3629	0	32720	31140	
3630	0	32832	30914	
3631	0	32781	31120	
3632	0	32856	31296	
3633	0	32912	31850	
3634	0	32713	32170	
3635	0	32788	32218	
3636	0	32788	32316	
3637	0	32708	32128	
3638	0	32852	32442	
3639	0	32836	32554	
3640	0	32774	32624	
3641	0	32772	32494	
3642	0	32804	32860	
3643	0	32792	33184	
3644	0	32912	33212	
3645	0	32766	33314	
3646	0	32897	33404	
3647	0	32800	33620	
3648	0	32708	33600	
3649	0	32712	33780	
3650	0	32716	33750	
3651	0	32898	33488	
3652	0	32928	33520	
3653	0	32748	33474	
3654	0	32708	33588	
3655	0	32800	33816	
3656	0	32924	33799	
3657	0	32738	33127	
3658	0	32688	32550	
3659	0	32784	32124	
3660	0	32720	31718	
3661	0	32784	31224	
3662	0	32712	31104	
3663	0	32620	31952	
3664	0	32696	32358	
3665	0	32942	32906	
3666	0	33016	33031	
3667	0	32794	32992	
3668	0	32842	32660	
3669	0	32956	32876	
3670	0	32856	32276	
3671	0	32788	31847	
3672	0	32824	31760	
3673	0	32780	32560	
3674	0	32746	33127	
3675	0	32796	33094	
3676	0	32732	32902	
3677	0	32778	32874	
3678	0	32648	32754	
3679	0	32800	32184	
3680	0	32876	32206	
3681	0	32768	32492	
3682	0	32780	33174	
3683	0	33001	33354	
3684	0	32904	33792	
3685	0	32828	33582	
3686	0	32932	33592	
3687	0	33044	33617	
3688	0	32958	33572	
3689	0	32876	33124	
3690	0	32592	32434	
3691	0	32610	31964	
3692	0	32682	31478	
3693	0	32608	31344	
3694	0	32724	31266	
3695	0	32818	32044	
3696	0	32720	32598	
3697	0	32578	32854	
3698	0	32754	32860	
3699	0	32752	32903	
3700	0	32746	32964	
3701	0	32638	32662	
3702	0	32676	32504	
3703	0	32774	32680	
3704	0	32842	33238	
3705	0	32798	33226	
3706	0	32900	33390	
3707	0	32938	33268	
3708	0	32916	33223	
3709	0	32968	33064	
3710	0	33204	32943	
3711	0	33096	32960	
3712	0	33092	33254	
3713	0	32988	33232	
3714	0	32812	33320	
3715	0	32764	33108	
3716	0	32602	32762	
3717	0	32636	32567	
3718	0	32720	32954	
3719	0	32852	33236	
3720	0	32872	33108	
3721	0	32656	32775	
3722	0	32800	32678	
3723	0	32776	32640	
3724	0	32816	32508	
3725	0	32748	32390	
3726	0	32750	32428	
3727	0	32634	32726	
3728	0	32904	33294	
3729	0	32922	33558	
3730	0	32900	33364	
3731	0	32996	32732	
3732	0	32945	31924	
3733	0	32802	31604	
3734	0	32692	31616	
3735	0	32720	31610	
3736	0	32868	31676	
3737	0	32828	31902	
3738	0	32824	32412	
3739	0	32856	32758	
3740	0	32746	33008	
3741	0	32804	32812	
3742	0	32872	32852	
3743	0	32810	32788	
3744	0	32824	32487	
3745	0	32894	32702	
3746	0	32828	33052	
3747	0	32900	33136	
3748	0	32900	32984	
3749	0	32776	33031	
3750	0	32740	33430	
3751	0	32824	33216	
3752	0	32828	33010	
3753	0	32796	33330	
3754	0	32824	33572	
3755	0	32678	33442	
3756	0	32692	33716	
3757	0	32668	34100	
3758	0	32724	33850	
3759	0	32666	33352	
3760	0	32718	33286	
3761	0	32768	32775	
3762	0	32842	32082	
3763	0	32732	31364	
3764	0	32868	31352	
3765	0	32930	31676	
3766	0	33008	31822	
3767	0	32988	31751	
3768	0	33036	31860	
3769	0	32864	32040	
3770	0	32708	32188	
3771	0	32804	32258	
3772	0	32680	32364	
3773	0	32632	32592	
3774	0	32728	32860	
3775	0	32668	33324	
3776	0	32696	33735	
3777	0	32648	33434	
3778	0	32638	33340	
3779	0	32653	33022	
3780	0	32694	33084	
3781	0	32722	33174	
3782	0	32860	32948	
3783	0	32732	32912	
3784	0	32600	33154	
3785	0	32788	33408	
3786	0	32780	33326	
3787	0	32716	33444	
3788	0	32656	33406	
3789	0	32548	33066	
3790	0	32628	32772	
3791	0	32602	32282	
3792	0	32674	32066	
3793	0	32740	31962	
3794	0	32890	32042	
3795	0	33028	32292	
3796	0	33140	32330	
3797	0	33060	32588	
3798	0	33188	32558	
3799	0	33272	32613	
3800	0	33360	32714	
3801	0	33352	32822	
3802	0	33328	32960	
3803	0	33348	33168	
3804	0	33516	33212	
3805	0	33474	32940	
3806	0	33508	32626	
3807	0	33522	32263	
3808	0	33324	32360	
3809	0	33044	32292	
3810	0	33088	32212	
3811	0	32948	32092	
3812	0	32628	32032	
3813	0	32612	32482	
3814	0	32576	32964	
3815	0	32352	33116	
3816	0	32280	33110	
3817	0	32288	33216	
3818	0	32340	33360	
3819	0	32474	33318	
3820	0	32494	33068	
3821	0	32516	32860	
3822	0	32528	32874	
3823	0	32572	32998	
3824	0	32500	32942	
3825	0	32608	32998	
3826	0	32708	33074	
3827	0	32728	33092	
3828	0	32632	33180	
3829	0	32746	33013	
3830	0	32768	32716	
3831	0	32804	32340	
3832	0	32836	32241	
3833	0	32836	32812	
3834	0	32902	32876	
3835	0	32808	32196	
3836	0	32944	31794	
3837	0	33008	31706	
3838	0	32944	32124	
3839	0	32832	32199	
3840	0	32812	32135	
3841	0	32704	32436	
3842	0	32740	32798	
3843	0	32684	33322	
3844	0	32854	33456	
3845	0	32936	33766	
3846	0	32826	33881	
3847	0	32908	33742	
3848	0	32940	33543	
3849	0	33038	33170	
3850	0	32832	33004	
3851	0	32796	32727	
3852	0	32810	32294	
3853	0	32880	32196	
3854	0	32676	32408	
3855	0	32616	32612	
3856	0	32493	32718	
3857	0	32692	32796	
3858	0	32784	32952	
3859	0	32781	33024	
3860	0	32740	33178	
3861	0	32786	33038	
3862	0	32810	32692	
3863	0	32702	32378	
3864	0	32700	32068	
3865	0	32774	31588	
3866	0	32728	31604	
3867	0	32874	31786	
3868	0	32894	32294	
3869	0	32788	32775	
3870	0	32788	32981	
3871	0	32824	33197	
3872	0	32752	33606	
3873	0	32720	33575	
3874	0	32732	33151	
3875	0	32864	32754	
3876	0	32844	32514	
3877	0	32820	32358	
3878	0	32762	32263	
3879	0	32732	32318	
3880	0	32652	32734	
3881	0	32692	33150	
3882	0	32876	33436	
3883	0	32944	33510	
3884	0	32708	33944	
3885	0	32788	33970	
3886	0	32820	33284	
3887	0	32728	32812	
3888	0	32656	32476	
3889	0	32656	32316	
3890	0	32744	32216	
3891	0	32686	32272	
3892	0	32804	32380	
3893	0	32810	32644	
3894	0	32894	32802	
3895	0	32902	32802	
3896	0	32872	32912	
3897	0	32814	32920	
3898	0	32832	32758	
3899	0	32734	32526	
3900	0	32720	32478	
3901	0	32808	32620	
3902	0	32936	33030	
3903	0	32884	33140	
3904	0	32880	33134	
3905	0	32872	33026	
3906	0	32824	32810	
3907	0	32952	32736	
3908	0	32868	32576	
3909	0	32794	32198	
3910	0	32788	32071	
3911	0	32832	31724	
3912	0	32794	31680	
3913	0	32784	32052	
3914	0	32832	32848	
3915	0	32896	33158	
3916	0	32880	33423	
3917	0	32804	33576	
3918	0	32788	34001	
3919	0	32828	33954	
3920	0	32848	33616	
3921	0	32816	33948	
3922	0	32748	33380	
3923	0	32768	32646	
3924	0	32858	32006	
3925	0	32845	31460	
3926	0	32741	31122	
3927	0	32748	30822	
3928	0	32680	31332	
3929	0	32708	31822	
3930	0	32772	32422	
3931	0	32948	32692	
3932	0	32992	33140	
3933	0	33080	33354	
3934	0	32956	33428	
3935	0	32844	33340	
3936	0	32856	33383	
3937	0	32860	33388	
3938	0	32676	33518	
3939	0	32676	33532	
3940	0	32712	33408	
3941	0	32768	33380	
3942	0	32856	33436	
3943	0	32764	33196	
3944	0	32804	33174	
3945	0	32836	33070	
3946	0	32852	32775	
3947	0	32770	32518	
3948	0	32864	32142	
3949	0	32740	31829	
3950	0	32788	32006	
3951	0	32934	31944	
3952	0	32823	32208	
3953	0	32852	32628	
3954	0	32824	32940	
3955	0	32756	33278	
3956	0	32680	33488	
3957	0	32800	33196	
3958	0	32776	32844	
3959	0	32704	32630	
3960	0	32702	32358	
3961	0	32700	32486	
3962	0	32684	32578	
3963	0	32648	32190	
3964	0	32688	31960	
3965	0	32840	32218	
3966	0	32888	32388	
3967	0	32960	32474	
3968	0	32944	32806	
3969	0	32900	32956	
3970	0	32792	33064	
3971	0	32764	33306	
3972	0	32846	33240	
3973	0	32821	33582	
3974	0	32748	33730	
3975	0	32788	33854	
3976	0	32772	33692	
3977	0	32706	33240	
3978	0	32862	32666	
3979	0	32812	32196	
3980	0	32846	31850	
3981	0	32820	31996	
3982	0	32824	31886	
3983	0	32796	31812	
3984	0	32820	31952	
3985	0	32844	32042	
3986	0	32792	32096	
3987	0	32722	32331	
3988	0	32800	32798	
3989	0	32808	33312	
3990	0	32850	33510	
3991	0	32734	33589	
3992	0	32794	33327	
3993	0	32836	32964	
3994	0	32854	32592	
3995	0	32808	32564	
3996	0	32916	32590	
3997	0	32880	32724	
3998	0	32864	32551	
3999	0	32884	32684	
4000	0	32784	32766	
4001	0	32732	32784	
4002	0	32808	32986	
4003	0	32784	33300	
4004	0	32836	33146	
4005	0	32920	32992	
4006	0	32864	32928	
4007	0	32804	32962	
4008	0	32720	33248	
4009	0	32748	33266	
4010	0	32708	33074	
4011	0	32799	32942	
4012	0	32740	32884	
4013	0	32736	32966	
4014	0	32760	32900	
4015	0	32794	32775	
4016	0	32692	32424	
4017	0	32826	32100	
4018	0	32792	32652	
4019	0	32958	32774	
4020	0	32884	32926	
4021	0	32856	33300	
4022	0	32944	33328	
4023	0	32940	33095	
4024	0	32906	32642	
4025	0	32878	32556	
4026	0	32736	31896	
4027	0	32666	31764	
4028	0	32652	31856	
4029	0	32816	31850	
4030	0	32796	32028	
4031	0	32840	32354	
4032	0	32856	32508	
4033	0	32984	32694	
4034	0	33073	32878	
4035	0	33008	32796	
4036	0	32928	32698	
4037	0	32766	32748	
4038	0	32700	32752	
4039	0	32712	32758	
4040	0	32644	32927	
4041	0	32704	33006	
4042	0	32826	33102	
4043	0	32824	33124	
4044	0	32920	33027	
4045	0	32894	33140	
4046	0	32868	33098	
4047	0	32924	32978	
4048	0	32912	33159	
4049	0	32816	33264	
4050	0	32884	33126	
4051	0	32732	33248	
4052	0	32682	33380	
4053	0	32666	33268	
4054	0	32716	33224	
4055	0	32770	33330	
4056	0	32744	33254	
4057	0	32892	33160	
4058	0	33004	32584	
4059	0	32942	32078	
4060	0	32920	31750	
4061	0	32872	31428	
4062	0	32676	31330	
4063	0	32740	31694	
4064	0	32796	32146	
4065	0	32830	32708	
4066	0	32798	33152	
4067	0	32868	33233	
4068	0	32898	32880	
4069	0	32910	32592	
4070	0	32936	32372	
4071	0	32788	32757	
4072	0	32860	33028	
4073	0	32908	32942	
4074	0	32806	32668	
4075	0	32800	32934	
4076	0	32864	32898	
4077	0	32897	32804	
4078	0	32868	32798	
4079	0	32784	32679	
4080	0	32640	32815	
4081	0	32612	32940	
4082	0	32596	32976	
4083	0	32722	32880	
4084	0	32852	33148	
4085	0	32760	32960	
4086	0	32852	32615	
4087	0	32870	32710	
4088	0	32842	32774	
4089	0	32860	33122	
4090	0	32928	33300	
4091	0	32916	33338	
4092	0	32748	33142	
4093	0	32638	33204	
4094	0	32576	33204	
4095	0	32650	32998	
4096	0	32776	32775	
4097	0	32796	32548	
4098	0	32836	32420	
4099	0	32892	32396	
4100	0	32906	32448	
4101	0	32796	32636	
4102	0	32812	32812	
4103	0	32836	32650	
4104	0	32916	32542	
4105	0	32874	32399	
4106	0	32796	32455	
4107	0	32794	32496	
4108	0	32824	32692	
4109	0	32806	32902	
4110	0	32736	32852	
4111	0	32776	32700	
4112	0	32812	32442	
4113	0	32888	32455	
4114	0	32790	32668	
4115	0	32868	32692	
4116	0	32878	32808	
4117	0	32788	32894	
4118	0	32808	32976	
4119	0	32748	32966	
4120	0	32682	32868	
4121	0	32676	32676	
4122	0	32596	32690	
4123	0	32664	32736	
4124	0	32612	32756	
4125	0	32752	32796	
4126	0	32828	32896	
4127	0	32860	32810	
4128	0	32884	32754	
4129	0	32916	32948	
4130	0	32888	33026	
4131	0	32932	33151	
4132	0	32864	33210	
4133	0	32850	33056	
4134	0	32780	32914	
4135	0	32680	32814	
4136	0	32668	32628	
4137	0	32642	32449	
4138	0	32740	32252	
4139	0	32812	32222	
4140	0	32964	32426	
4141	0	32988	32583	
4142	0	32834	32900	
4143	0	32836	33134	
4144	0	32858	33152	
4145	0	32962	33150	
4146	0	32916	32934	
4147	0	32864	32744	
4148	0	32894	32647	
4149	0	32872	32382	
4150	0	32728	32110	
4151	0	32764	32270	
4152	0	32746	32570	
4153	0	32716	32980	
4154	0	32752	32860	
4155	0	32720	32948	
4156	0	32744	33038	
4157	0	32752	32818	
4158	0	32792	32552	
4159	0	32858	32320	
4160	0	32748	32276	
4161	0	32704	32420	
4162	0	32810	32632	
4163	0	32862	33060	
4164	0	32940	33102	
4165	0	32880	33148	
4166	0	32832	32944	
4167	0	32680	32716	
4168	0	32720	32812	
4169	0	32756	32452	
4170	0	32788	32418	
4171	0	32734	32602	
4172	0	32820	32604	
4173	0	32918	32690	
4174	0	32912	32756	
4175	0	32944	32944	
4176	0	32896	33220	
4177	0	32884	33207	
4178	0	32904	33010	
4179	0	32868	32874	
4180	0	32860	32952	
4181	0	32916	32866	
4182	0	32886	32775	
4183	0	32840	32853	
4184	0	32728	32966	
4185	0	32850	32830	
4186	0	32764	32896	
4187	0	32800	32692	
4188	0	32784	32880	
4189	0	32852	33058	
4190	0	32796	33066	
4191	0	32728	32998	
4192	0	32848	32906	
4193	0	32864	32672	
4194	0	32752	32390	
4195	0	32718	31988	
4196	0	32700	32066	
4197	0	32712	32472	
4198	0	32776	32532	
4199	0	32776	32455	
4200	0	32880	32308	
4201	0	32789	32448	
4202	0	32702	32436	
4203	0	32708	32330	
4204	0	32752	32378	
4205	0	32780	32616	
4206	0	32838	32742	
4207	0	32856	32786	
4208	0	32880	32752	
4209	0	32820	32858	
4210	0	32744	32870	
4211	0	32784	33082	
4212	0	32696	33132	
4213	0	32758	33031	
4214	0	32726	33148	
4215	0	32768	33038	
4216	0	32780	32960	
4217	0	32876	32999	
4218	0	32788	32998	
4219	0	32876	32986	
4220	0	32834	32854	
4221	0	32812	32775	
4222	0	32818	32802	
4223	0	32676	32764	
4224	0	32788	32724	
4225	0	32784	32668	
4226	0	32748	32704	
4227	0	32786	32835	
4228	0	32840	32840	
4229	0	32948	32804	
4230	0	32874	32694	
4231	0	32884	32568	
4232	0	32892	32678	
4233	0	32969	32710	
4234	0	32900	32698	
4235	0	32808	32734	
4236	0	32836	32956	
4237	0	32656	33112	
4238	0	32676	33120	
4239	0	32728	33088	
4240	0	32796	33094	
4241	0	32788	32954	
4242	0	32832	32823	
4243	0	32896	32910	
4244	0	32864	32728	
4245	0	32960	32718	
4246	0	32920	32406	
4247	0	32766	32344	
4248	0	32756	32560	
4249	0	32708	33028	
4250	0	32808	32844	
4251	0	32852	32456	
4252	0	32804	32502	
4253	0	32868	32636	
4254	0	32832	32436	
4255	0	32940	32236	
4256	0	32832	32100	
4257	0	32674	32140	
4258	0	32836	32420	
4259	0	32952	32508	
4260	0	32942	32634	
4261	0	32920	32990	
4262	0	32736	32974	
4263	0	32790	33116	
4264	0	32806	33255	
4265	0	32786	33472	
4266	0	32872	33556	
4267	0	32828	33470	
4268	0	32880	33463	
4269	0	32840	33208	
4270	0	32876	33154	
4271	0	32902	32824	
4272	0	32796	32346	
4273	0	32662	32068	
4274	0	32670	31918	
4275	0	32768	31996	
4276	0	32708	32337	
4277	0	32631	32542	
4278	0	32736	32481	
4279	0	32724	32766	
4280	0	32844	32832	
4281	0	32812	32802	
4282	0	32828	32896	
4283	0	32914	32860	
4284	0	32956	32808	
4285	0	32996	32871	
4286	0	32844	32896	
4287	0	32768	32950	
4288	0	32772	32832	
4289	0	32788	33040	
4290	0	32778	33018	
4291	0	32852	33126	
4292	0	32794	33208	
4293	0	32824	33031	
4294	0	32750	32876	
4295	0	32684	32775	
4296	0	32662	32756	
4297	0	32704	32838	
4298	0	32720	32724	
4299	0	32744	33238	
4300	0	32684	33524	
4301	0	32764	33590	
4302	0	32762	33404	
4303	0	32862	33128	
4304	0	32936	32596	
4305	0	32948	32007	
4306	0	32928	31468	
4307	0	32788	31252	
4308	0	32762	31182	
4309	0	32846	31448	
4310	0	32864	31612	
4311	0	32876	32382	
4312	0	32782	32834	
4313	0	32782	33231	
4314	0	32796	33159	
4315	0	32784	33144	
4316	0	32824	33180	
4317	0	32712	33180	
4318	0	32720	33084	
4319	0	32793	33118	
4320	0	32922	33031	
4321	0	32920	32960	
4322	0	32814	33026	
4323	0	32730	33040	
4324	0	32680	33130	
4325	0	32638	33124	
4326	0	32736	33064	
4327	0	32884	33070	
4328	0	32880	33057	
4329	0	32896	32982	
4330	0	32796	32906	
4331	0	32780	32916	
4332	0	32846	32670	
4333	0	32796	32628	
4334	0	32818	32638	
4335	0	32784	32592	
4336	0	32824	32560	
4337	0	32832	32594	
4338	0	32936	32590	
4339	0	32866	32538	
4340	0	32860	32608	
4341	0	32848	32550	
4342	0	32810	32712	
4343	0	32788	32786	
4344	0	32842	32838	
4345	0	32910	32870	
4346	0	33040	32820	
4347	0	33050	32722	
4348	0	32956	32620	
4349	0	32714	32398	
4350	0	32562	32458	
4351	0	32514	32671	
4352	0	32600	32630	
4353	0	32620	32772	
4354	0	32774	32956	
4355	0	32782	33084	
4356	0	32942	33066	
4357	0	33020	32966	
4358	0	32920	32738	
4359	0	32924	32736	
4360	0	32872	32696	
4361	0	32726	32820	
4362	0	32762	32903	
4363	0	32720	32814	
4364	0	32694	32841	
4365	0	32632	32902	
4366	0	32616	32848	
4367	0	32768	32784	
4368	0	32906	32700	
4369	0	32832	32882	
4370	0	32872	32775	
4371	0	32902	32724	
4372	0	32876	32711	
4373	0	32908	32687	
4374	0	32892	32764	
4375	0	32852	32820	
4376	0	32854	33116	
4377	0	32900	33092	
4378	0	32808	32903	
4379	0	32828	32672	
4380	0	32872	32698	
4381	0	32876	32583	
4382	0	32742	32350	
4383	0	32686	32230	
4384	0	32696	32242	
4385	0	32732	32304	
4386	0	32756	32518	
4387	0	32670	32503	
4388	0	32728	32850	
4389	0	32766	32908	
4390	0	32852	33036	
4391	0	32992	33026	
4392	0	32920	33031	
4393	0	32750	32868	
4394	0	32546	32564	
4395	0	32576	32700	
4396	0	32584	32812	
4397	0	32696	32794	
4398	0	32678	32954	
4399	0	32808	32950	
4400	0	32856	32852	
4401	0	32822	32762	
4402	0	32780	32854	
4403	0	32832	32892	
4404	0	32840	32982	
4405	0	32864	33086	
4406	0	32836	33030	
4407	0	32844	32823	
4408	0	32824	32752	
4409	0	32784	32574	
4410	0	32836	32472	
4411	0	32816	32574	
4412	0	32856	32576	
4413	0	32908	32542	
4414	0	32897	32532	
4415	0	32792	32560	
4416	0	32896	32678	
4417	0	32934	32806	
4418	0	32808	32738	
4419	0	32736	32807	
4420	0	32736	32742	
4421	0	32752	32819	
4422	0	32716	32806	
4423	0	32666	32952	
4424	0	32780	32950	
4425	0	32848	32914	
4426	0	32856	32916	
4427	0	32876	32902	
4428	0	32892	32775	
4429	0	32836	32732	
4430	0	32864	32716	
4431	0	32728	32775	
4432	0	32856	32519	
4433	0	32864	32646	
4434	0	32908	32747	
4435	0	32868	32636	
4436	0	32844	32684	
4437	0	32764	32612	
4438	0	32756	32582	
4439	0	32830	32682	
4440	0	32768	32903	
4441	0	32740	32882	
4442	0	32756	32818	
4443	0	32716	32830	
4444	0	32772	32948	
4445	0	32820	32854	
4446	0	32920	32814	
4447	0	32964	32894	
4448	0	32824	32880	
4449	0	32760	32804	
4450	0	32732	32716	
4451	0	32760	32724	
4452	0	32864	32497	
4453	0	32852	32558	
4454	0	32804	32804	
4455	0	32784	32770	
4456	0	32748	32775	
4457	0	32830	32903	
4458	0	32890	32914	
4459	0	32868	32919	
4460	0	32792	33106	
4461	0	32808	32879	
4462	0	32912	32614	
4463	0	32772	33014	
4464	0	32712	32928	
4465	0	32716	32768	
4466	0	32834	32672	
4467	0	32906	32578	
4468	0	32988	32552	
4469	0	32864	32532	
4470	0	32744	32532	
4471	0	32720	32472	
4472	0	32688	32414	
4473	0	32760	32391	
4474	0	32860	32414	
4475	0	32960	32658	
4476	0	32920	32826	
4477	0	32944	32936	
4478	0	32872	32978	
4479	0	32676	32802	
4480	0	32688	32724	
4481	0	32668	32934	
4482	0	32694	32802	
4483	0	32740	32920	
4484	0	32820	32980	
4485	0	32842	33070	
4486	0	32804	33031	
4487	0	32736	32832	
4488	0	32798	32638	
4489	0	32764	32606	
4490	0	32840	32656	
4491	0	32962	32608	
4492	0	32852	32636	
4493	0	32788	32802	
4494	0	32804	32836	
4495	0	32806	32836	
4496	0	32882	32852	
4497	0	32864	32922	
4498	0	32804	33040	
4499	0	32772	33018	
4500	0	32724	32894	
4501	0	32628	32740	
4502	0	32742	32800	
4503	0	32776	32720	
4504	0	32776	32634	
4505	0	32956	32700	
4506	0	32960	32738	
4507	0	32872	32678	
4508	0	32852	32864	
4509	0	32900	32708	
4510	0	32844	32774	
4511	0	32924	32710	
4512	0	32800	32786	
4513	0	32780	32998	
4514	0	32740	32967	
4515	0	32768	32807	
4516	0	32700	32644	
4517	0	32760	32650	
4518	0	32854	32674	
4519	0	32970	32620	
4520	0	32836	32646	
4521	0	32784	32852	
4522	0	32816	32910	
4523	0	32708	32822	
4524	0	32704	32802	
4525	0	32868	32876	
4526	0	32832	32824	
4527	0	32818	32836	
4528	0	32756	32816	
4529	0	32780	32668	
4530	0	32858	32612	
4531	0	32816	32572	
4532	0	32828	32634	
4533	0	32828	32702	
4534	0	32756	32696	
4535	0	32864	32700	
4536	0	32856	32690	
4537	0	32740	32654	
4538	0	32960	32696	
4539	0	32924	32764	
4540	0	32936	32784	
4541	0	32740	32702	
4542	0	32738	32792	
4543	0	32712	32836	
4544	0	32840	32770	
4545	0	32780	32662	
4546	0	32912	32592	
4547	0	32872	32818	
4548	0	32770	32935	
4549	0	32800	33038	
4550	0	32744	32958	
4551	0	32736	32880	
4552	0	32944	32775	
4553	0	32892	32708	
4554	0	32968	32775	
4555	0	32896	32792	
4556	0	32744	32716	
4557	0	32622	32764	
4558	0	32702	32836	
4559	0	32678	32800	
4560	0	32712	32844	
4561	0	32760	32932	
4562	0	32740	32936	
4563	0	32748	32744	
4564	0	32812	32438	
4565	0	32900	32546	
4566	0	32932	32542	
4567	0	33020	32630	
4568	0	33060	32672	
4569	0	32928	32852	
4570	0	32804	32948	
4571	0	32672	33040	
4572	0	32604	32930	
4573	0	32640	32903	
4574	0	32673	32792	
4575	0	32686	32600	
4576	0	32740	32634	
4577	0	32712	32672	
4578	0	32744	32700	
4579	0	32824	32810	
4580	0	32668	32858	
4581	0	32810	32828	
4582	0	32762	32750	
4583	0	32884	32752	
4584	0	32846	32814	
4585	0	32640	32768	
4586	0	32644	32589	
4587	0	32732	32676	
4588	0	32816	32774	
4589	0	32841	32924	
4590	0	32844	33040	
4591	0	32770	32956	
4592	0	32720	32967	
4593	0	32636	32948	
4594	0	32656	32840	
4595	0	32740	32692	
4596	0	32850	32666	
4597	0	32832	32662	
4598	0	32928	32632	
4599	0	32820	32636	
4600	0	32734	32712	
4601	0	32720	32616	
4602	0	32776	32487	
4603	0	32798	32660	
4604	0	32996	32580	
4605	0	33020	32508	
4606	0	33112	32584	
4607	0	33348	32543	
4608	0	33344	32482	
4609	0	33308	32390	
4610	0	33322	32439	
4611	0	33354	32476	
4612	0	33528	32512	
4613	0	33364	32716	
4614	0	33270	32742	
4615	0	33172	32798	
4616	0	32964	32860	
4617	0	32852	32858	
4618	0	32760	32732	
4619	0	32592	32900	
4620	0	32552	33038	
4621	0	32572	32935	
4622	0	32552	32996	
4623	0	32560	32856	
4624	0	32560	32870	
4625	0	32572	32868	
4626	0	32620	32906	
4627	0	32552	33052	
4628	0	32592	32926	
4629	0	32540	32698	
4630	0	32480	32844	
4631	0	32634	32836	
4632	0	32682	32734	
4633	0	32588	32714	
4634	0	32744	32760	
4635	0	32798	32775	
4636	0	32706	32860	
4637	0	32817	32804	
4638	0	32738	32775	
4639	0	32736	32816	
4640	0	32682	32730	
4641	0	32712	32868	
4642	0	32804	32836	
4643	0	32728	32800	
4644	0	32800	32775	
4645	0	32900	32796	
4646	0	32896	32768	
4647	0	32906	32768	
4648	0	32884	32866	
4649	0	32744	32628	
4650	0	32668	32556	
4651	0	32716	32588	
4652	0	32756	32824	
4653	0	32744	32886	
4654	0	32728	32804	
4655	0	32804	32706	
4656	0	32892	32724	
4657	0	32886	32682	
4658	0	32868	32710	
4659	0	32806	32701	
4660	0	32692	32638	
4661	0	32560	32582	
4662	0	32740	32552	
4663	0	32884	32618	
4664	0	32994	32612	
4665	0	33034	32890	
4666	0	32972	32938	
4667	0	32880	32876	
4668	0	32936	32872	
4669	0	32810	32804	
4670	0	32844	32600	
4671	0	32914	32688	
4672	0	32956	32640	
4673	0	32704	32658	
4674	0	32688	32738	
4675	0	32675	32806	
4676	0	32660	32644	
4677	0	32728	32652	
4678	0	32832	32800	
4679	0	32986	32752	
4680	0	32816	32702	
4681	0	32666	32775	
4682	0	32650	32784	
4683	0	32821	32722	
4684	0	32896	32704	
4685	0	32772	32766	
4686	0	32828	32748	
4687	0	32822	32874	
4688	0	32776	32830	
4689	0	32844	32752	
4690	0	32820	32658	
4691	0	32824	32704	
4692	0	32850	32736	
4693	0	32896	32746	
4694	0	32928	32775	
4695	0	32920	32826	
4696	0	32828	32860	
4697	0	32748	32880	
4698	0	32808	32854	
4699	0	32754	32846	
4700	0	32808	32845	
4701	0	32788	32804	
4702	0	32876	32826	
4703	0	32816	32758	
4704	0	32780	32820	
4705	0	32776	32692	
4706	0	32736	32570	
4707	0	32840	32567	
4708	0	32828	32500	
4709	0	32756	32536	
4710	0	32788	32676	
4711	0	32932	32712	
4712	0	32880	32824	
4713	0	32864	32902	
4714	0	32774	32846	
4715	0	32828	32860	
4716	0	32808	32788	
4717	0	32744	32703	
4718	0	32728	32726	
4719	0	32710	32730	
4720	0	32772	32830	
4721	0	32896	32738	
4722	0	32930	32760	
4723	0	32798	32740	
4724	0	32824	32720	
4725	0	32884	32584	
4726	0	32776	32688	
4727	0	32772	32752	
4728	0	32692	32698	
4729	0	32680	32608	
4730	0	32820	32702	
4731	0	32788	32716	
4732	0	32860	32788	
4733	0	32660	32724	
4734	0	32746	32796	
4735	0	32816	32775	
4736	0	32864	32848	
4737	0	32850	32760	
4738	0	32796	32644	
4739	0	32864	32704	
4740	0	32804	32800	
4741	0	32832	32804	
4742	0	32784	32704	
4743	0	32704	32804	
4744	0	32870	32711	
4745	0	32810	32668	
4746	0	32784	32736	
4747	0	32828	32690	
4748	0	32964	32702	
4749	0	32980	32824	
4750	0	32860	32775	
4751	0	32820	32832	
4752	0	32712	32910	
4753	0	32776	32932	
4754	0	32608	32836	
4755	0	32576	32768	
4756	0	32724	32836	
4757	0	32832	32780	
4758	0	32868	32836	
4759	0	32828	32828	
4760	0	32832	32687	
4761	0	32880	32748	
4762	0	32856	32742	
4763	0	32790	32724	
4764	0	32874	32729	
4765	0	32856	32644	
4766	0	32824	32700	
4767	0	32840	32748	
4768	0	32848	32782	
4769	0	32872	32794	
4770	0	32792	32838	
4771	0	32884	32872	
4772	0	32784	32864	
4773	0	32788	32838	
4774	0	32882	32948	
4775	0	32824	32870	
4776	0	32800	32806	
4777	0	32784	32822	
4778	0	32885	32680	
4779	0	32888	32526	
4780	0	32864	32472	
4781	0	32798	32766	
4782	0	32670	32888	
4783	0	32554	32935	
4784	0	32560	32874	
4785	0	32698	32881	
4786	0	32796	32714	
4787	0	32864	32679	
4788	0	32832	32734	
4789	0	32846	32724	
4790	0	32916	32808	
4791	0	32900	32824	
4792	0	32924	32882	
4793	0	32816	32904	
4794	0	32900	32972	
4795	0	32716	33050	
4796	0	32750	33098	
4797	0	32776	32793	
4798	0	32868	32694	
4799	0	32788	32600	
4800	0	32832	32554	
4801	0	32844	32506	
4802	0	32900	32367	
4803	0	32900	32516	
4804	0	32944	32616	
4805	0	32832	32644	
4806	0	32620	32670	
4807	0	32736	32767	
4808	0	32746	32858	
4809	0	32784	32992	
4810	0	32928	32946	
4811	0	32868	32852	
4812	0	32716	32864	
4813	0	32740	32720	
4814	0	32740	32738	
4815	0	32808	32930	
4816	0	32816	32854	
4817	0	32844	32862	
4818	0	32862	32836	
4819	0	32836	32880	
4820	0	32890	32903	
4821	0	32716	32812	
4822	0	32640	32810	
4823	0	32796	32768	
4824	0	32828	32744	
4825	0	32892	32856	
4826	0	32826	32804	
4827	0	32862	32892	
4828	0	32880	32868	
4829	0	32852	32714	
4830	0	32804	32900	
4831	0	32786	32897	
4832	0	32768	32796	
4833	0	32988	32814	
4834	0	32852	32743	
4835	0	32766	32710	
4836	0	32820	32746	
4837	0	32826	32756	
4838	0	32814	32648	
4839	0	32752	32636	
4840	0	32784	32628	
4841	0	32792	32694	
4842	0	32802	32636	
4843	0	32816	32634	
4844	0	32884	32768	
4845	0	32802	32732	
4846	0	32924	32771	
4847	0	32896	32678	
4848	0	32734	32660	
4849	0	32806	32648	
4850	0	32828	32688	
4851	0	32820	32676	
4852	0	32808	32760	
4853	0	32892	32836	
4854	0	32858	32728	
4855	0	32818	32836	
4856	0	32920	32706	
4857	0	32896	32847	
4858	0	32842	32810	
4859	0	32832	32812	
4860	0	32934	32836	
4861	0	32756	32826	
4862	0	32576	32786	
4863	0	32664	32692	
4864	0	32772	32788	
4865	0	32792	32824	
4866	0	32816	32756	
4867	0	32860	32719	
4868	0	32920	32736	
4869	0	32852	32738	
4870	0	32828	32838	
4871	0	32856	32862	
4872	0	32816	32766	
4873	0	32836	32754	
4874	0	32852	32814	
4875	0	32784	32764	
4876	0	32868	32838	
4877	0	32840	32822	
4878	0	32756	32720	
4879	0	32724	32720	
4880	0	32780	32798	
4881	0	32762	32796	
4882	0	32834	32730	
4883	0	32772	32772	
4884	0	32720	32580	
4885	0	32764	32478	
4886	0	32816	32495	
4887	0	32976	32690	
4888	0	32872	32767	
4889	0	32848	32718	
4890	0	32884	32732	
4891	0	32808	32775	
4892	0	32796	32775	
4893	0	32942	32788	
4894	0	32954	32902	
4895	0	32806	32842	
4896	0	32752	32804	
4897	0	32744	32775	
4898	0	32524	32792	
4899	0	32744	32814	
4900	0	32756	32736	
4901	0	32732	32766	
4902	0	32710	32716	
4903	0	32864	32721	
4904	0	32788	32756	
4905	0	32792	32842	
4906	0	32768	32743	
4907	0	32828	32672	
4908	0	32716	32672	
4909	0	32760	32641	
4910	0	32868	32656	
4911	0	32868	32828	
4912	0	32872	32826	
4913	0	32832	32743	
4914	0	32892	32836	
4915	0	32826	32852	
4916	0	32860	32880	
4917	0	32832	32903	
4918	0	32838	32800	
4919	0	32758	32574	
4920	0	32801	32622	
4921	0	32836	32692	
4922	0	32818	32678	
4923	0	32768	32660	
4924	0	32900	32684	
4925	0	32812	32750	
4926	0	32775	32791	
4927	0	32830	32754	
4928	0	32784	32940	
4929	0	32784	32896	
4930	0	32700	32816	
4931	0	32730	32734	
4932	0	32836	32662	
4933	0	32816	32708	
4934	0	32826	32615	
4935	0	32870	32813	
4936	0	32844	32847	
4937	0	32708	32814	
4938	0	32784	32727	
4939	0	32788	32802	
4940	0	32804	32775	
4941	0	32768	32728	
4942	0	32810	32802	
4943	0	32764	32852	
4944	0	32832	32708	
4945	0	32806	32822	
4946	0	32902	32788	
4947	0	32868	32844	
4948	0	32872	32775	
4949	0	32900	32702	
4950	0	32884	32796	
4951	0	32832	32764	
4952	0	32780	32788	
4953	0	32804	32820	
4954	0	32774	32880	
4955	0	32772	32826	
4956	0	32822	32858	
4957	0	32776	32800	
4958	0	32830	32857	
4959	0	32780	32896	
4960	0	32766	32775	
4961	0	32744	32760	
4962	0	32774	32814	
4963	0	32894	32820	
4964	0	32920	32756	
4965	0	32870	32686	
4966	0	32824	32647	
4967	0	32848	32663	
4968	0	32832	32720	
4969	0	32844	32742	
4970	0	32840	32734	
4971	0	32832	32743	
4972	0	32786	32838	
4973	0	32736	32732	
4974	0	32772	32689	
4975	0	32846	32716	
4976	0	32744	32570	
4977	0	32804	32798	
4978	0	32836	32676	
4979	0	32732	32688	
4980	0	32798	32678	
4981	0	32812	32767	
4982	0	32740	32660	
4983	0	32748	32692	
4984	0	32800	32808	
4985	0	32822	32792	
4986	0	32712	32804	
4987	0	32830	32849	
4988	0	32852	32906	
4989	0	32904	32840	
4990	0	32844	32838	
4991	0	32866	32882	
4992	0	32860	32850	
4993	0	32898	32782	
4994	0	32900	32724	
4995	0	32832	32868	
4996	0	32952	32894	
4997	0	32864	32756	
4998	0	32768	32770	
4999	0	32668	32858	
5000	0	32580	32844	
5001	0	32696	32830	
5002	0	32804	32766	
5003	0	32824	32764	
5004	0	32840	32708	
5005	0	32900	32699	
5006	0	32874	32678	
5007	0	32814	32746	
5008	0	32842	32764	
5009	0	32846	32704	
5010	0	32764	32690	
5011	0	32780	32734	
5012	0	32864	32825	
5013	0	32878	32769	
5014	0	32836	32742	
5015	0	32849	32744	
5016	0	32792	32814	
5017	0	32796	32828	
5018	0	32828	32812	
5019	0	32780	32706	
5020	0	32778	32788	
5021	0	32816	32758	
5022	0	32776	32646	
5023	0	32788	32791	
5024	0	32748	32743	
5025	0	32816	32706	
5026	0	32856	32911	
5027	0	32806	32840	
5028	0	32800	32828	
5029	0	32872	32670	
5030	0	32796	32844	
5031	0	32788	32688	
5032	0	32740	32730	
5033	0	32840	32796	
5034	0	32816	32746	
5035	0	32844	32696	
5036	0	32756	32828	
5037	0	32576	32742	
5038	0	32696	32830	
5039	0	32800	32730	
5040	0	32874	32758	
5041	0	32776	32588	
5042	0	32874	32691	
5043	0	32832	32792	
5044	0	32936	32796	
5045	0	32864	32775	
5046	0	32844	32802	
5047	0	32824	32708	
5048	0	32800	32696	
5049	0	32820	32730	
5050	0	32888	32714	
5051	0	32880	32836	
5052	0	32786	32762	
5053	0	32832	32876	
5054	0	32834	32802	
5055	0	32780	32820	
5056	0	32792	32812	
5057	0	32820	32694	
5058	0	32792	32756	
5059	0	32840	32744	
5060	0	32828	32840	
5061	0	32802	32814	
5062	0	32770	32720	
5063	0	32806	32730	
5064	0	32840	32700	
5065	0	32840	32728	
5066	0	32900	32758	
5067	0	32752	32770	
5068	0	32800	32694	
5069	0	32748	32688	
5070	0	32776	32672	
5071	0	32768	32746	
5072	0	32792	32756	
5073	0	32796	32758	
5074	0	32780	32714	
5075	0	32812	32800	
5076	0	32888	32844	
5077	0	32850	32956	
5078	0	32882	32802	
5079	0	32950	32678	
5080	0	32912	32836	
5081	0	32862	32800	
5082	0	32792	32814	
5083	0	32712	32844	
5084	0	32662	32823	
5085	0	32732	32864	
5086	0	32804	32932	
5087	0	32884	32870	
5088	0	32882	32816	
5089	0	32780	32756	
5090	0	32832	32759	
5091	0	32896	32775	
5092	0	32896	32680	
5093	0	32856	32670	
5094	0	32856	32775	
5095	0	32952	32830	
5096	0	32894	32718	
5097	0	32914	32750	
5098	0	32868	32752	
5099	0	32874	32804	
5100	0	32616	32784	
5101	0	32572	32764	
5102	0	32752	32766	
5103	0	32604	32730	
5104	0	32790	32812	
5105	0	32808	32774	
5106	0	32896	32633	
5107	0	32820	32775	
5108	0	32820	32856	
5109	0	32852	32742	
5110	0	32924	32810	
5111	0	32896	32718	
5112	0	32848	32770	
5113	0	32808	32672	
5114	0	32808	32796	
5115	0	32752	32860	
5116	0	32784	32924	
5117	0	32720	32878	
5118	0	32844	32736	
5119	0	32844	32752	
5120	0	32862	32848	
5121	0	32801	32752	
5122	0	32764	32708	
5123	0	32764	32764	
5124	0	32738	32630	
5125	0	32810	32774	
5126	0	32776	32756	
5127	0	32836	32708	
5128	0	32920	32730	
5129	0	32832	32727	
5130	0	32862	32740	
5131	0	32872	32815	
5132	0	32796	32828	
5133	0	32846	32804	
5134	0	32814	32791	
5135	0	32848	32630	
5136	0	32792	32744	
5137	0	32808	32732	
5138	0	32746	32721	
5139	0	32800	32704	
5140	0	32792	32775	
5141	0	32788	32762	
5142	0	32834	32807	
5143	0	32928	32796	
5144	0	32744	32702	
5145	0	32748	32684	
5146	0	32824	32646	
5147	0	32844	32726	
5148	0	32808	32800	
5149	0	32688	32774	
5150	0	32656	32962	
5151	0	32778	32764	
5152	0	32880	32668	
5153	0	32910	32744	
5154	0	32862	32746	
5155	0	32908	32759	
5156	0	32788	32719	
5157	0	32782	32743	
5158	0	32822	32764	
5159	0	32800	32730	
5160	0	32720	32618	
5161	0	32812	32666	
5162	0	32868	32694	
5163	0	32868	32738	
5164	0	32836	32768	
5165	0	32804	32804	
5166	0	32804	32791	
5167	0	32814	32858	
5168	0	32780	32752	
5169	0	32836	32768	
5170	0	32894	32814	
5171	0	32900	32796	
5172	0	32828	32854	
5173	0	32718	32782	
5174	0	32820	32736	
5175	0	32872	32743	
5176	0	32844	32736	
5177	0	32852	32688	
5178	0	32776	32743	
5179	0	32758	32638	
5180	0	32778	32704	
5181	0	32802	32780	
5182	0	32878	32872	
5183	0	32868	32786	
5184	0	32800	32806	
5185	0	32775	32688	
5186	0	32840	32768	
5187	0	32812	32838	
5188	0	32740	32748	
5189	0	32796	32860	
5190	0	32784	32830	
5191	0	32826	32799	
5192	0	32868	32806	
5193	0	32772	32856	
5194	0	32788	32738	
5195	0	32802	32736	
5196	0	32790	32692	
5197	0	32892	32740	
5198	0	32818	32795	
5199	0	32768	32775	
5200	0	32864	32712	
5201	0	32748	32844	
5202	0	32698	32746	
5203	0	32778	32772	
5204	0	32800	32788	
5205	0	32834	32966	
5206	0	32800	32694	
5207	0	32638	32703	
5208	0	32768	32600	
5209	0	32854	32692	
5210	0	32900	32862	
5211	0	32778	32834	
5212	0	32892	32870	
5213	0	32836	32752	
5214	0	32802	32678	
5215	0	32752	32688	
5216	0	32776	32768	
5217	0	32736	32792	
5218	0	32644	32835	
5219	0	32810	32775	
5220	0	32896	32756	
5221	0	32916	32746	
5222	0	32924	32892	
5223	0	32936	32774	
5224	0	32672	32775	
5225	0	32640	32766	
5226	0	32838	32810	
5227	0	32908	32804	
5228	0	32842	32798	
5229	0	32928	32764	
5230	0	32930	32734	
5231	0	32882	32701	
5232	0	32796	32740	
5233	0	32838	32764	
5234	0	32732	32756	
5235	0	32704	32828	
5236	0	32812	32775	
5237	0	32804	32740	
5238	0	32816	32794	
5239	0	32796	32772	
5240	0	32828	32788	
5241	0	32832	32810	
5242	0	32788	32690	
5243	0	32764	32788	
5244	0	32820	32788	
5245	0	32800	32839	
5246	0	32856	32903	
5247	0	32860	32750	
5248	0	32776	32654	
5249	0	32830	32662	
5250	0	32752	32678	
5251	0	32762	32694	
5252	0	32800	32686	
5253	0	32764	32796	
5254	0	32702	32896	
5255	0	32826	32886	
5256	0	32792	32825	
5257	0	32800	32846	
5258	0	32736	32724	
5259	0	32844	32775	
5260	0	32836	32806	
5261	0	32821	32868	
5262	0	32852	32912	
5263	0	32816	32863	
5264	0	32760	32718	
5265	0	32864	32719	
5266	0	32816	32794	
5267	0	32698	32908	
5268	0	32800	32698	
5269	0	32838	32836	
5270	0	32832	32838	
5271	0	32768	32738	
5272	0	32824	32792	
5273	0	32870	32764	
5274	0	32824	32770	
5275	0	32882	32686	
5276	0	32708	32756	
5277	0	32828	32840	
5278	0	32808	32823	
5279	0	32864	32834	
5280	0	32800	32796	
5281	0	32792	32814	
5282	0	32808	32715	
5283	0	32860	32804	
5284	0	32834	32791	
5285	0	32788	32774	
5286	0	32808	32832	
5287	0	32836	32824	
5288	0	32852	32702	
5289	0	32856	32815	
5290	0	32837	32830	
5291	0	32874	32860	
5292	0	32794	32686	
5293	0	32794	32708	
5294	0	32820	32722	
5295	0	32794	32800	
5296	0	32836	32799	
5297	0	32824	32806	
5298	0	32828	32788	
5299	0	32802	32646	
5300	0	32756	32711	
5301	0	32820	32810	
5302	0	32748	32775	
5303	0	32756	32688	
5304	0	32774	32804	
5305	0	32788	32746	
5306	0	32820	32775	
5307	0	32804	32737	
5308	0	32716	32770	
5309	0	32796	32738	
5310	0	32792	32726	
5311	0	32772	32704	
5312	0	32824	32704	
5313	0	32892	32674	
5314	0	32824	32798	
5315	0	32858	32798	
5316	0	32836	32750	
5317	0	32839	32732	
5318	0	32792	32710	
5319	0	32824	32824	
5320	0	32792	32806	
5321	0	32752	32768	
5322	0	32766	32798	
5323	0	32756	32743	
5324	0	32804	32744	
5325	0	32776	32772	
5326	0	32774	32712	
5327	0	32768	32804	
5328	0	32788	32772	
5329	0	32864	32846	
5330	0	32844	32842	
5331	0	32876	32840	
5332	0	32816	32824	
5333	0	32880	32768	
5334	0	32832	32768	
5335	0	32816	32788	
5336	0	32820	32728	
5337	0	32848	32668	
5338	0	32752	32744	
5339	0	32752	32732	
5340	0	32780	32775	
5341	0	32848	32826	
5342	0	32788	32760	
5343	0	32840	32796	
5344	0	32836	32680	
5345	0	32828	32785	
5346	0	32808	32706	
5347	0	32780	32716	
5348	0	32778	32743	
5349	0	32796	32696	
5350	0	32840	32724	
5351	0	32820	32756	
5352	0	32844	32694	
5353	0	32836	32788	
5354	0	32810	32807	
5355	0	32736	32856	
5356	0	32780	32874	
5357	0	32752	32830	
5358	0	32752	32840	
5359	0	32804	32826	
5360	0	32776	32832	
5361	0	32836	32838	
5362	0	32864	32807	
5363	0	32930	32826	
5364	0	32808	32794	
5365	0	32716	32804	
5366	0	32638	32730	
5367	0	32696	32828	
5368	0	32856	32860	
5369	0	32932	32815	
5370	0	32932	32742	
5371	0	32876	32720	
5372	0	32828	32775	
5373	0	32780	32712	
5374	0	32810	32752	
5375	0	32772	32670	
5376	0	32776	32801	
5377	0	32824	32760	
5378	0	32814	32838	
5379	0	32824	32725	
5380	0	32818	32750	
5381	0	32792	32688	
5382	0	32772	32690	
5383	0	32908	32706	
5384	0	32840	32708	
5385	0	32820	32686	
5386	0	32760	32744	
5387	0	32746	32736	
5388	0	32689	32679	
5389	0	32744	32628	
5390	0	32792	32616	
5391	0	32860	32664	
5392	0	32848	32742	
5393	0	32852	32772	
5394	0	32888	32728	
5395	0	32693	32855	
5396	0	32856	32798	
5397	0	32716	32872	
5398	0	32648	32734	
5399	0	32760	32964	
5400	0	32756	32932	
5401	0	32738	32854	
5402	0	32720	32718	
5403	0	32774	32710	
5404	0	32722	32814	
5405	0	32686	32784	
5406	0	32764	32740	
5407	0	32756	32820	
5408	0	32744	32775	
5409	0	32720	32760	
5410	0	32688	32880	
5411	0	32696	32942	
5412	0	32740	32761	
5413	0	32681	32725	
5414	0	32698	32761	
5415	0	32780	32824	
5416	0	32764	32952	
5417	0	32814	32832	
5418	0	32796	32704	
5419	0	32826	32734	
5420	0	32912	32756	
5421	0	32838	32766	
5422	0	32832	32692	
5423	0	32740	32650	
5424	0	32872	32583	
5425	0	33060	32570	
5426	0	33050	32540	
5427	0	33300	32560	
5428	0	33348	32518	
5429	0	33422	32420	
5430	0	33472	32384	
5431	0	33540	32364	
5432	0	33486	32554	
5433	0	33424	32590	
5434	0	33384	32686	
5435	0	33220	32698	
5436	0	33044	32754	
5437	0	32836	32874	
5438	0	32896	32958	
5439	0	32672	32962	
5440	0	32524	32934	
5441	0	32368	32990	
5442	0	32402	32990	
5443	0	32378	32960	
5444	0	32390	32844	
5445	0	32366	32936	
5446	0	32476	32826	
5447	0	32472	32876	
5448	0	32548	32916	
5449	0	32620	32810	
5450	0	32664	32800	
5451	0	32692	32804	
5452	0	32684	32806	
5453	0	32742	32839	
5454	0	32746	32884	
5455	0	32644	32830	
5456	0	32744	32774	
5457	0	32688	32708	
5458	0	32728	32632	
5459	0	32824	32714	
5460	0	32814	32775	
5461	0	32826	32746	
5462	0	32832	32820	
5463	0	32796	32816	
5464	0	32712	32832	
5465	0	32804	32775	
5466	0	32834	32796	
5467	0	32856	32726	
5468	0	32828	32848	
5469	0	32850	32844	
5470	0	32840	32775	
5471	0	32792	32775	
5472	0	32816	32752	
5473	0	32804	32840	
5474	0	32856	32836	
5475	0	32814	32775	
5476	0	32754	32696	
5477	0	32732	32727	
5478	0	32760	32775	
5479	0	32778	32756	
5480	0	32854	32792	
5481	0	32906	32679	
5482	0	32874	32788	
5483	0	32844	32852	
5484	0	32764	32808	
5485	0	32768	32762	
5486	0	32804	32752	
5487	0	32840	32684	
5488	0	32856	32624	
5489	0	32884	32691	
5490	0	32864	32678	
5491	0	32896	32710	
5492	0	32780	32832	
5493	0	32848	32828	
5494	0	32812	32888	
5495	0	32812	32872	
5496	0	32862	32768	
5497	0	32796	32800	
5498	0	32796	32736	
5499	0	32844	32720	
5500	0	32740	32748	
5501	0	32828	32760	
5502	0	32800	32852	
5503	0	32814	32748	
5504	0	32768	32679	
5505	0	32828	32732	
5506	0	32844	32680	
5507	0	32892	32708	
5508	0	32840	32688	
5509	0	32868	32748	
5510	0	32816	32740	
5511	0	32828	32718	
5512	0	32816	32864	
5513	0	32836	32896	
5514	0	32860	32866	
5515	0	32900	32843	
5516	0	32844	32806	
5517	0	32800	32722	
5518	0	32804	32860	
5519	0	32736	32724	
5520	0	32704	32775	
5521	0	32680	32792	
5522	0	32604	32688	
5523	0	32736	32757	
5524	0	32790	32812	
5525	0	32788	32718	
5526	0	32888	32844	
5527	0	32906	32762	
5528	0	32848	32743	
5529	0	32884	32690	
5530	0	32882	32816	
5531	0	32820	32759	
5532	0	32840	32838	
5533	0	32786	32790	
5534	0	32704	32839	
5535	0	32640	32844	
5536	0	32692	32807	
5537	0	32698	32832	
5538	0	32832	32836	
5539	0	32840	32822	
5540	0	32844	32711	
5541	0	32802	32666	
5542	0	32774	32682	
5543	0	32892	32695	
5544	0	32846	32711	
5545	0	32872	32660	
5546	0	32816	32756	
5547	0	32922	32692	
5548	0	32828	32775	
5549	0	32860	32802	
5550	0	32904	32788	
5551	0	32850	32902	
5552	0	32784	32752	
5553	0	32748	32788	
5554	0	32756	32712	
5555	0	32756	32736	
5556	0	32854	32686	
5557	0	32820	32732	
5558	0	32808	32732	
5559	0	32810	32650	
5560	0	32896	32775	
5561	0	32890	32783	
5562	0	32828	32766	
5563	0	32772	32800	
5564	0	32772	32806	
5565	0	32788	32775	
5566	0	32826	32840	
5567	0	32810	32828	
5568	0	32750	32855	
5569	0	32720	32802	
5570	0	32782	32798	
5571	0	32816	32798	
5572	0	32832	32720	
5573	0	32796	32828	
5574	0	32850	32903	
5575	0	32776	32807	
5576	0	32816	32853	
5577	0	32892	32724	
5578	0	32868	32678	
5579	0	32788	32702	
5580	0	32772	32640	
5581	0	32748	32642	
5582	0	32758	32683	
5583	0	32774	32688	
5584	0	32856	32737	
5585	0	32798	32728	
5586	0	32850	32868	
5587	0	32852	32912	
5588	0	32878	32792	
5589	0	32904	32876	
5590	0	32786	32788	
5591	0	32770	32846	
5592	0	32872	32719	
5593	0	32800	32744	
5594	0	32752	32720	
5595	0	32844	32730	
5596	0	32836	32830	
5597	0	32796	32782	
5598	0	32816	32734	
5599	0	32736	32718	
5600	0	32792	32814	
5601	0	32848	32786	
5602	0	32796	32738	
5603	0	32784	32678	
5604	0	32682	32806	
5605	0	32840	32780	
5606	0	32874	32850	
5607	0	32832	32800	
5608	0	32844	32844	
5609	0	32892	32796	
5610	0	32836	32678	
5611	0	32864	32680	
5612	0	32804	32742	
5613	0	32844	32694	
5614	0	32744	32710	
5615	0	32800	32792	
5616	0	32652	32694	
5617	0	32732	32714	
5618	0	32702	32714	
5619	0	32764	32839	
5620	0	32910	32902	
5621	0	32740	32764	
5622	0	32840	32834	
5623	0	32860	32879	
5624	0	32902	32762	
5625	0	32860	32698	
5626	0	32828	32838	
5627	0	32828	32872	
5628	0	32804	32897	
5629	0	32914	32799	
5630	0	32812	32854	
5631	0	32804	32812	
5632	0	32836	32858	
5633	0	32858	32839	
5634	0	32856	32766	
5635	0	32874	32666	
5636	0	32752	32858	
5637	0	32744	32762	
5638	0	32792	32790	
5639	0	32856	32898	
5640	0	32856	32822	
5641	0	32836	32742	
5642	0	32840	32682	
5643	0	32824	32644	
5644	0	32808	32692	
5645	0	32826	32774	
5646	0	32772	32860	
5647	0	32772	32815	
5648	0	32824	32772	
5649	0	32776	32762	
5650	0	32764	32750	
5651	0	32808	32786	
5652	0	32858	32832	
5653	0	32804	32839	
5654	0	32804	32790	
5655	0	32854	32764	
5656	0	32820	32768	
5657	0	32890	32814	
5658	0	32752	32838	
5659	0	32736	32766	
5660	0	32782	32760	
5661	0	32812	32671	
5662	0	32816	32615	
5663	0	32840	32686	
5664	0	32776	32740	
5665	0	32880	32702	
5666	0	32816	32754	
5667	0	32800	32726	
5668	0	32870	32686	
5669	0	32848	32820	
5670	0	32860	32750	
5671	0	32846	32822	
5672	0	32796	32820	
5673	0	32820	32730	
5674	0	32814	32724	
5675	0	32852	32728	
5676	0	32828	32756	
5677	0	32918	32850	
5678	0	32824	32788	
5679	0	32848	32820	
5680	0	32832	32688	
5681	0	32756	32647	
5682	0	32840	32692	
5683	0	32802	32838	
5684	0	32806	32768	
5685	0	32644	32775	
5686	0	32808	32788	
5687	0	32848	32768	
5688	0	32764	32694	
5689	0	32768	32732	
5690	0	32836	32884	
5691	0	32808	32807	
5692	0	32876	32808	
5693	0	32872	32858	
5694	0	32840	32816	
5695	0	32808	32828	
5696	0	32684	32760	
5697	0	32808	32884	
5698	0	32740	32836	
5699	0	32780	32814	
5700	0	32828	32788	
5701	0	32760	32828	
5702	0	32718	32748	
5703	0	32856	32772	
5704	0	32832	32718	
5705	0	32820	32820	
5706	0	32800	32775	
5707	0	32764	32788	
5708	0	32824	32784	
5709	0	32840	32806	
5710	0	32814	32708	
5711	0	32768	32746	
5712	0	32768	32756	
5713	0	32760	32878	
5714	0	32808	32800	
5715	0	32876	32688	
5716	0	32820	32724	
5717	0	32804	32712	
5718	0	32788	32630	
5719	0	32776	32706	
5720	0	32832	32616	
5721	0	32852	32788	
5722	0	32884	32812	
5723	0	32760	32836	
5724	0	32784	32796	
5725	0	32714	32732	
5726	0	32768	32710	
5727	0	32836	32704	
5728	0	32828	32656	
5729	0	32852	32730	
5730	0	32848	32782	
5731	0	32730	32775	
5732	0	32824	32828	
5733	0	32900	32782	
5734	0	32788	32770	
5735	0	32776	32775	
5736	0	32732	32722	
5737	0	32744	32732	
5738	0	32736	32720	
5739	0	32792	32770	
5740	0	32796	32684	
5741	0	32766	32628	
5742	0	32790	32678	
5743	0	32824	32692	
5744	0	32760	32688	
5745	0	32820	32674	
5746	0	32808	32775	
5747	0	32852	32902	
5748	0	32836	32775	
5749	0	32870	32878	
5750	0	32882	32844	
5751	0	32872	32825	
5752	0	32872	32744	
5753	0	32820	32740	
5754	0	32870	32800	
5755	0	32764	32870	
5756	0	32712	32806	
5757	0	32802	32860	
5758	0	32760	32842	
5759	0	32832	32684	
5760	0	32900	32766	
5761	0	32816	32796	
5762	0	32828	32714	
5763	0	32808	32676	
5764	0	32758	32628	
5765	0	32796	32746	
5766	0	32830	32756	
5767	0	32744	32724	
5768	0	32772	32766	
5769	0	32716	32820	
5770	0	32892	32896	
5771	0	32904	32824	
5772	0	32896	32852	
5773	0	32848	32864	
5774	0	32830	32856	
5775	0	32800	32750	
5776	0	32776	32754	
5777	0	32788	32764	
5778	0	32856	32944	
5779	0	32824	32860	
5780	0	32768	32710	
5781	0	32792	32775	
5782	0	32812	32775	
5783	0	32804	32796	
5784	0	32792	32734	
5785	0	32782	32756	
5786	0	32868	32830	
5787	0	32874	32692	
5788	0	32796	32720	
5789	0	32784	32718	
5790	0	32752	32775	
5791	0	32744	32728	
5792	0	32718	32800	
5793	0	32846	32840	
5794	0	32784	32886	
5795	0	32804	32881	
5796	0	32808	32887	
5797	0	32714	32822	
5798	0	32862	32746	
5799	0	32856	32769	
5800	0	32902	32710	
5801	0	32776	32710	
5802	0	32846	32836	
5803	0	32884	32800	
5804	0	32832	32752	
5805	0	32872	32734	
5806	0	32786	32751	
5807	0	32710	32692	
5808	0	32770	32766	
5809	0	32672	32775	
5810	0	32840	32807	
5811	0	32808	32816	
5812	0	32760	32796	
5813	0	32876	32752	
5814	0	32830	32726	
5815	0	32852	32715	
5816	0	32804	32758	
5817	0	32852	32644	
5818	0	32832	32638	
5819	0	32824	32732	
5820	0	32848	32670	
5821	0	32792	32647	
5822	0	32912	32672	
5823	0	32820	32702	
5824	0	32776	32724	
5825	0	32724	32784	
5826	0	32706	32914	
5827	0	32752	32798	
5828	0	32864	32846	
5829	0	32958	32832	
5830	0	32936	32796	
5831	0	32800	32820	
5832	0	32775	32871	
5833	0	32764	32820	
5834	0	32760	32718	
5835	0	32768	32706	
5836	0	32696	32684	
5837	0	32708	32654	
5838	0	32696	32750	
5839	0	32720	32804	
5840	0	32784	32798	
5841	0	32880	32894	
5842	0	32816	32836	
5843	0	32856	32886	
5844	0	32816	32800	
5845	0	32832	32750	
5846	0	32702	32828	
5847	0	32740	32754	
5848	0	32810	32668	
5849	0	32836	32734	
5850	0	32848	32760	
5851	0	32832	32806	
5852	0	32908	32814	
5853	0	32828	32792	
5854	0	32832	32796	
5855	0	32868	32780	
5856	0	32868	32743	
5857	0	32772	32828	
5858	0	32720	32756	
5859	0	32730	32820	
5860	0	32752	32794	
5861	0	32754	32762	
5862	0	32740	32666	
5863	0	32740	32668	
5864	0	32832	32768	
5865	0	32836	32684	
5866	0	32846	32823	
5867	0	32888	32804	
5868	0	32890	32768	
5869	0	32908	32834	
5870	0	32806	32734	
5871	0	32864	32856	
5872	0	32804	32910	
5873	0	32812	32838	
5874	0	32816	32836	
5875	0	32820	32774	
5876	0	32800	32772	
5877	0	32856	32876	
5878	0	32888	32890	
5879	0	32836	32850	
5880	0	32816	32790	
5881	0	32752	32636	
5882	0	32846	32726	
5883	0	32760	32736	
5884	0	32780	32742	
5885	0	32824	32808	
5886	0	32728	32770	
5887	0	32760	32734	
5888	0	32810	32742	
5889	0	32812	32786	
5890	0	32804	32755	
5891	0	32824	32726	
5892	0	32834	32774	
5893	0	32880	32790	
5894	0	32768	32798	
5895	0	32820	32839	
5896	0	32832	32741	
5897	0	32808	32860	
5898	0	32812	32873	
5899	0	32824	32746	
5900	0	32782	32798	
5901	0	32826	32840	
5902	0	32822	32758	
5903	0	32816	32708	
5904	0	32786	32762	
5905	0	32796	32775	
5906	0	32756	32650	
5907	0	32792	32688	
5908	0	32780	32754	
5909	0	32670	32705	
5910	0	32764	32774	
5911	0	32832	32854	
5912	0	32784	32844	
5913	0	32924	32796	
5914	0	32758	32886	
5915	0	32826	32758	
5916	0	32816	32802	
5917	0	32772	32664	
5918	0	32810	32775	
5919	0	32732	32762	
5920	0	32788	32775	
5921	0	32776	32756	
5922	0	32792	32760	
5923	0	32860	32840	
5924	0	32932	32774	
5925	0	32828	32806	
5926	0	32900	32728	
5927	0	32796	32820	
5928	0	32824	32752	
5929	0	32814	32748	
5930	0	32812	32788	
5931	0	32708	32806	
5932	0	32764	32774	
5933	0	32848	32824	
5934	0	32804	32810	
5935	0	32822	32852	
5936	0	32830	32743	
5937	0	32804	32784	
5938	0	32772	32670	
5939	0	32784	32756	
5940	0	32768	32742	
5941	0	32772	32812	
5942	0	32826	32772	
5943	0	32772	32875	
5944	0	32730	32848	
5945	0	32780	32808	
5946	0	32824	32738	
5947	0	32828	32800	
5948	0	32802	32834	
5949	0	32870	32864	
5950	0	32800	32848	
5951	0	32820	32828	
5952	0	32812	32890	
5953	0	32775	32704	
5954	0	32804	32682	
5955	0	32804	32806	
5956	0	32910	32870	
5957	0	32868	32767	
5958	0	32828	32810	
5959	0	32866	32756	
5960	0	32764	32710	
5961	0	32746	32774	
5962	0	32792	32752	
5963	0	32788	32762	
5964	0	32780	32740	
5965	0	32780	32728	
5966	0	32800	32750	
5967	0	32838	32730	
5968	0	32824	32736	
5969	0	32824	32740	
5970	0	32772	32740	
5971	0	32848	32846	
5972	0	32852	32766	
5973	0	32790	32744	
5974	0	32802	32818	
5975	0	32814	32796	
5976	0	32840	32775	
5977	0	32796	32664	
5978	0	32844	32719	
5979	0	32800	32764	
5980	0	32804	32727	
5981	0	32816	32718	
5982	0	32776	32688	
5983	0	32856	32742	
5984	0	32788	32688	
5985	0	32844	32716	
5986	0	32798	32676	
5987	0	32820	32724	
5988	0	32744	32788	
5989	0	32744	32760	
5990	0	32800	32784	
5991	0	32832	32807	
5992	0	32760	32808	
5993	0	32768	32826	
5994	0	32824	32804	
5995	0	32892	32836	
5996	0	32880	32800	
5997	0	32852	32807	
5998	0	32848	32814	
5999	0	32794	32766	
6000	0	32856	32678	
6001	0	32800	32720	
6002	0	32786	32646	
6003	0	32860	32674	
6004	0	32800	32788	
6005	0	32840	32740	
6006	0	32876	32794	
6007	0	32928	32775	
6008	0	32780	32870	
6009	0	32832	32820	
6010	0	32814	32852	
6011	0	32812	32828	
6012	0	32878	32878	
