# OpenSignals Text File Format. Version 1
# {"00:07:80:8C:0A:39": {"position": 0, "device": "biosignalsplux", "device name": "00:07:80:8C:0A:39", "device connection": "BTH00:07:80:8C:0A:39", "sampling rate": 1000, "resolution": [16, 16], "firmware version": 776, "comments": "", "keywords": "", "mode": 0, "sync interval": 2, "date": "2023-3-17", "time": "11:14:15.977", "channels": [1, 2], "sensor": ["EMG", "EMG"], "label": ["CH1", "CH2"], "column": ["nSeq", "DI", "CH1", "CH2"], "special": [{"SpO2": [80, 40, 5, 4, 3, 3]}, {"SpO2": [80, 40, 5, 4, 3, 3]}, {"SpO2": [80, 40, 5, 4, 3, 3]}, {"SpO2": [80, 40, 5, 4, 3, 3]}, {"SpO2": [80, 40, 5, 4, 3, 3]}, {"SpO2": [80, 40, 5, 4, 3, 3]}, {"SpO2": [80, 40, 5, 4, 3, 3]}, {"SpO2": [80, 40, 5, 4, 3, 3]}], "digital IO": [0, 1], "sleeve color": ["gray", "yellow"], "convertedValues": 0}}
# EndOfHeader
0	0	32836	32728	
1	0	32886	32775	
2	0	32754	32755	
3	0	32802	32862	
4	0	32770	32775	
5	0	32826	32775	
6	0	32822	32732	
7	0	32780	32703	
8	0	32792	32722	
9	0	32820	32792	
10	0	32832	32814	
11	0	32764	32735	
12	0	32758	32788	
13	0	32820	32826	
14	0	32820	32742	
15	0	32775	32762	
16	0	32900	32694	
17	0	32804	32784	
18	0	32864	32752	
19	0	32888	32814	
20	0	32824	32758	
21	0	32870	32820	
22	0	32780	32866	
23	0	32814	32660	
24	0	32820	32860	
25	0	32840	32822	
26	0	32836	32640	
27	0	32830	32794	
28	0	32836	32820	
29	0	32810	32682	
30	0	32796	32775	
31	0	32820	32692	
32	0	32796	32808	
33	0	32852	32702	
34	0	32860	32784	
35	0	32774	32708	
36	0	32760	32856	
37	0	32826	32724	
38	0	32792	32750	
39	0	32838	32746	
40	0	32782	32790	
41	0	32818	32834	
42	0	32792	32647	
43	0	32808	32822	
44	0	32820	32839	
45	0	32808	32730	
46	0	32748	32748	
47	0	32864	32814	
48	0	32800	32748	
49	0	32784	32724	
50	0	32820	32746	
51	0	32824	32818	
52	0	32842	32810	
53	0	32810	32680	
54	0	32840	32720	
55	0	32804	32708	
56	0	32792	32868	
57	0	32800	32822	
58	0	32778	32788	
59	0	32804	32724	
60	0	32816	32818	
61	0	32764	32826	
62	0	32808	32740	
63	0	32810	32740	
64	0	32748	32684	
65	0	32854	32775	
66	0	32800	32796	
67	0	32884	32737	
68	0	32860	32761	
69	0	32784	32834	
70	0	32808	32716	
71	0	32820	32806	
72	0	32800	32742	
73	0	32876	32796	
74	0	32800	32759	
75	0	32781	32775	
76	0	32796	32846	
77	0	32806	32674	
78	0	32824	32718	
79	0	32832	32836	
80	0	32752	32774	
81	0	32750	32834	
82	0	32789	32720	
83	0	32772	32808	
84	0	32796	32775	
85	0	32840	32722	
86	0	32812	32828	
87	0	32784	32794	
88	0	32864	32708	
89	0	32840	32868	
90	0	32824	32820	
91	0	32860	32746	
92	0	32796	32820	
93	0	32842	32806	
94	0	32878	32684	
95	0	32784	32816	
96	0	32812	32807	
97	0	32784	32758	
98	0	32804	32750	
99	0	32880	32740	
100	0	32790	32820	
101	0	32788	32756	
102	0	32778	32748	
103	0	32778	32816	
104	0	32808	32799	
105	0	32842	32814	
106	0	32780	32666	
107	0	32878	32772	
108	0	32770	32772	
109	0	32798	32729	
110	0	32752	32870	
111	0	32816	32886	
112	0	32794	32766	
113	0	32764	32814	
114	0	32804	32692	
115	0	32836	32836	
116	0	32784	32818	
117	0	32776	32702	
118	0	32856	32740	
119	0	32845	32734	
120	0	32796	32816	
121	0	32920	32810	
122	0	32792	32738	
123	0	32832	32614	
124	0	32824	32766	
125	0	32810	32852	
126	0	32814	32826	
127	0	32824	32742	
128	0	32804	32799	
129	0	32780	32775	
130	0	32768	32852	
131	0	32796	32814	
132	0	32806	32692	
133	0	32804	32806	
134	0	32760	32804	
135	0	32810	32714	
136	0	32764	32724	
137	0	32868	32710	
138	0	32852	32775	
139	0	32778	32812	
140	0	32766	32734	
141	0	32872	32775	
142	0	32782	32678	
143	0	32782	32839	
144	0	32788	32758	
145	0	32808	32690	
146	0	32882	32830	
147	0	32814	32718	
148	0	32800	32816	
149	0	32774	32842	
150	0	32842	32760	
151	0	32824	32828	
152	0	32844	32746	
153	0	32776	32792	
154	0	32820	32752	
155	0	32792	32740	
156	0	32792	32774	
157	0	32780	32766	
158	0	32848	32744	
159	0	32756	32766	
160	0	32832	32716	
161	0	32792	32879	
162	0	32788	32810	
163	0	32856	32759	
164	0	32764	32742	
165	0	32900	32764	
166	0	32858	32764	
167	0	32836	32679	
168	0	32832	32836	
169	0	32788	32782	
170	0	32836	32814	
171	0	32818	32834	
172	0	32836	32732	
173	0	32764	32808	
174	0	32792	32872	
175	0	32776	32743	
176	0	32786	32754	
177	0	32752	32738	
178	0	32814	32796	
179	0	32856	32688	
180	0	32840	32807	
181	0	32834	32852	
182	0	32782	32756	
183	0	32830	32670	
184	0	32816	32718	
185	0	32770	32820	
186	0	32828	32832	
187	0	32792	32758	
188	0	32898	32796	
189	0	32828	32756	
190	0	32844	32786	
191	0	32764	32844	
192	0	32788	32740	
193	0	32778	32838	
194	0	32856	32700	
195	0	32816	32774	
196	0	32821	32792	
197	0	32824	32694	
198	0	32830	32810	
199	0	32752	32816	
200	0	32804	32718	
201	0	32828	32770	
202	0	32772	32750	
203	0	32862	32807	
204	0	32848	32798	
205	0	32796	32740	
206	0	32780	32796	
207	0	32860	32774	
208	0	32792	32692	
209	0	32800	32822	
210	0	32830	32878	
211	0	32806	32814	
212	0	32816	32775	
213	0	32798	32719	
214	0	32838	32839	
215	0	32784	32867	
216	0	32792	32775	
217	0	32812	32758	
218	0	32820	32710	
219	0	32880	32820	
220	0	32808	32775	
221	0	32816	32694	
222	0	32848	32750	
223	0	32804	32824	
224	0	32800	32770	
225	0	32740	32772	
226	0	32836	32724	
227	0	32780	32870	
228	0	32810	32832	
229	0	32812	32664	
230	0	32837	32816	
231	0	32802	32832	
232	0	32856	32674	
233	0	32784	32752	
234	0	32854	32710	
235	0	32844	32816	
236	0	32786	32878	
237	0	32832	32806	
238	0	32792	32742	
239	0	32788	32871	
240	0	32852	32808	
241	0	32860	32832	
242	0	32762	32710	
243	0	32810	32684	
244	0	32856	32823	
245	0	32816	32742	
246	0	32810	32820	
247	0	32852	32698	
248	0	32784	32747	
249	0	32820	32799	
250	0	32820	32906	
251	0	32836	32686	
252	0	32848	32748	
253	0	32834	32774	
254	0	32800	32705	
255	0	32776	32882	
256	0	32856	32791	
257	0	32792	32764	
258	0	32856	32774	
259	0	32848	32802	
260	0	32790	32812	
261	0	32898	32758	
262	0	32768	32754	
263	0	32830	32860	
264	0	32796	32772	
265	0	32788	32764	
266	0	32796	32743	
267	0	32842	32775	
268	0	32808	32786	
269	0	32800	32848	
270	0	32798	32682	
271	0	32746	32834	
272	0	32812	32790	
273	0	32874	32772	
274	0	32832	32862	
275	0	32840	32748	
276	0	32824	32692	
277	0	32796	32786	
278	0	32820	32767	
279	0	32776	32655	
280	0	32788	32784	
281	0	32814	32788	
282	0	32804	32668	
283	0	32796	32767	
284	0	32780	32775	
285	0	32814	32647	
286	0	32714	32705	
287	0	32844	32687	
288	0	32784	32718	
289	0	32798	32668	
290	0	32756	32788	
291	0	32760	32748	
292	0	32724	32642	
293	0	32756	32714	
294	0	32750	32672	
295	0	32792	32804	
296	0	32734	32758	
297	0	32734	32647	
298	0	32798	32712	
299	0	32856	32900	
300	0	32806	32775	
301	0	32844	32775	
302	0	32870	32903	
303	0	32808	32836	
304	0	32906	32903	
305	0	32904	32826	
306	0	32872	32892	
307	0	32906	32918	
308	0	32928	32956	
309	0	33008	32884	
310	0	32922	32914	
311	0	32913	32946	
312	0	32864	32820	
313	0	32868	32886	
314	0	32836	32924	
315	0	32896	32746	
316	0	32828	32922	
317	0	32830	32890	
318	0	32865	32856	
319	0	32926	32840	
320	0	32850	32736	
321	0	32822	32767	
322	0	32798	32744	
323	0	32756	32647	
324	0	32752	32736	
325	0	32780	32711	
326	0	32764	32600	
327	0	32768	32678	
328	0	32736	32748	
329	0	32740	32682	
330	0	32716	32610	
331	0	32750	32662	
332	0	32792	32714	
333	0	32764	32724	
334	0	32776	32860	
335	0	32772	32647	
336	0	32816	32766	
337	0	32792	32775	
338	0	32834	32738	
339	0	32776	32743	
340	0	32854	32756	
341	0	32826	32719	
342	0	32836	32803	
343	0	32844	32694	
344	0	32752	32764	
345	0	32808	32831	
346	0	32764	32770	
347	0	32774	32804	
348	0	32800	32851	
349	0	32864	32774	
350	0	32776	32830	
351	0	32788	32736	
352	0	32842	32726	
353	0	32796	32740	
354	0	32784	32662	
355	0	32790	32775	
356	0	32842	32774	
357	0	32768	32666	
358	0	32812	32808	
359	0	32836	32764	
360	0	32780	32718	
361	0	32844	32804	
362	0	32796	32764	
363	0	32760	32684	
364	0	32872	32868	
365	0	32908	32767	
366	0	32858	32710	
367	0	32830	32816	
368	0	32878	32857	
369	0	32782	32784	
370	0	32812	32714	
371	0	32736	32711	
372	0	32808	32810	
373	0	32810	32794	
374	0	32804	32840	
375	0	32820	32832	
376	0	32846	32666	
377	0	32726	32746	
378	0	32824	32716	
379	0	32867	32802	
380	0	32792	32871	
381	0	32816	32644	
382	0	32820	32728	
383	0	32792	32820	
384	0	32832	32775	
385	0	32846	32750	
386	0	32804	32865	
387	0	32864	32711	
388	0	32832	32786	
389	0	32806	32684	
390	0	32772	32839	
391	0	32780	32746	
392	0	32776	32740	
393	0	32800	32799	
394	0	32852	32868	
395	0	32760	32668	
396	0	32800	32854	
397	0	32812	32775	
398	0	32832	32706	
399	0	32746	32746	
400	0	32792	32654	
401	0	32804	32836	
402	0	32780	32836	
403	0	32876	32698	
404	0	32809	32770	
405	0	32764	32706	
406	0	32832	32726	
407	0	32798	32838	
408	0	32834	32834	
409	0	32828	32772	
410	0	32836	32732	
411	0	32836	32878	
412	0	32793	32815	
413	0	32868	32734	
414	0	32828	32754	
415	0	32796	32710	
416	0	32800	32762	
417	0	32800	32720	
418	0	32784	32722	
419	0	32848	32750	
420	0	32832	32828	
421	0	32848	32771	
422	0	32808	32668	
423	0	32804	32866	
424	0	32780	32839	
425	0	32760	32738	
426	0	32824	32708	
427	0	32868	32854	
428	0	32836	32826	
429	0	32772	32810	
430	0	32826	32826	
431	0	32832	32704	
432	0	32736	32836	
433	0	32804	32700	
434	0	32846	32742	
435	0	32804	32736	
436	0	32780	32752	
437	0	32776	32738	
438	0	32865	32868	
439	0	32828	32800	
440	0	32854	32870	
441	0	32816	32678	
442	0	32808	32831	
443	0	32872	32762	
444	0	32828	32730	
445	0	32784	32758	
446	0	32764	32820	
447	0	32828	32647	
448	0	32800	32847	
449	0	32820	32748	
450	0	32818	32710	
451	0	32760	32775	
452	0	32764	32812	
453	0	32788	32798	
454	0	32842	32724	
455	0	32764	32808	
456	0	32848	32775	
457	0	32832	32804	
458	0	32810	32670	
459	0	32860	32799	
460	0	32866	32804	
461	0	32840	32740	
462	0	32808	32718	
463	0	32866	32768	
464	0	32824	32838	
465	0	32772	32724	
466	0	32862	32814	
467	0	32884	32727	
468	0	32756	32764	
469	0	32826	32775	
470	0	32778	32820	
471	0	32840	32760	
472	0	32814	32744	
473	0	32836	32807	
474	0	32860	32830	
475	0	32792	32718	
476	0	32752	32860	
477	0	32788	32803	
478	0	32812	32724	
479	0	32800	32794	
480	0	32836	32793	
481	0	32836	32704	
482	0	32892	32686	
483	0	32776	32775	
484	0	32804	32752	
485	0	32808	32712	
486	0	32790	32729	
487	0	32780	32734	
488	0	32840	32748	
489	0	32786	32772	
490	0	32832	32716	
491	0	32776	32825	
492	0	32806	32753	
493	0	32754	32826	
494	0	32836	32852	
495	0	32792	32716	
496	0	32844	32814	
497	0	32848	32668	
498	0	32812	32816	
499	0	32844	32728	
500	0	32856	32687	
501	0	32764	32775	
502	0	32828	32810	
503	0	32760	32740	
504	0	32832	32751	
505	0	32836	32799	
506	0	32816	32858	
507	0	32826	32772	
508	0	32828	32654	
509	0	32746	32798	
510	0	32780	32772	
511	0	32818	32718	
512	0	32802	32795	
513	0	32796	32786	
514	0	32822	32702	
515	0	32832	32738	
516	0	32876	32682	
517	0	32788	32846	
518	0	32712	32770	
519	0	32802	32760	
520	0	32876	32714	
521	0	32808	32798	
522	0	32880	32747	
523	0	32872	32692	
524	0	32848	32846	
525	0	32800	32822	
526	0	32796	32664	
527	0	32820	32788	
528	0	32772	32830	
529	0	32824	32775	
530	0	32844	32772	
531	0	32820	32828	
532	0	32820	32670	
533	0	32808	32756	
534	0	32844	32852	
535	0	32772	32775	
536	0	32828	32750	
537	0	32844	32884	
538	0	32842	32766	
539	0	32820	32750	
540	0	32772	32830	
541	0	32838	32704	
542	0	32844	32894	
543	0	32820	32800	
544	0	32762	32647	
545	0	32860	32858	
546	0	32840	32860	
547	0	32828	32743	
548	0	32786	32752	
549	0	32818	32838	
550	0	32812	32724	
551	0	32804	32774	
552	0	32822	32710	
553	0	32800	32793	
554	0	32816	32850	
555	0	32816	32752	
556	0	32816	32802	
557	0	32800	32708	
558	0	32852	32860	
559	0	32872	32687	
560	0	32837	32828	
561	0	32796	32758	
562	0	32814	32752	
563	0	32824	32842	
564	0	32896	32842	
565	0	32840	32740	
566	0	32860	32775	
567	0	32856	32694	
568	0	32746	32836	
569	0	32860	32720	
570	0	32796	32926	
571	0	32770	32850	
572	0	32756	32746	
573	0	32788	32810	
574	0	32852	32702	
575	0	32824	32839	
576	0	32802	32703	
577	0	32858	32772	
578	0	32752	32688	
579	0	32772	32878	
580	0	32790	32826	
581	0	32824	32800	
582	0	32784	32775	
583	0	32826	32632	
584	0	32800	32799	
585	0	32810	32799	
586	0	32874	32831	
587	0	32814	32760	
588	0	32796	32694	
589	0	32776	32804	
590	0	32778	32770	
591	0	32796	32704	
592	0	32830	32805	
593	0	32784	32836	
594	0	32802	32698	
595	0	32884	32772	
596	0	32812	32866	
597	0	32792	32794	
598	0	32884	32775	
599	0	32824	32668	
600	0	32780	32770	
601	0	32792	32846	
602	0	32728	32728	
603	0	32860	32844	
604	0	32896	32800	
605	0	32824	32704	
606	0	32832	32760	
607	0	32788	32724	
608	0	32804	32852	
609	0	32798	32727	
610	0	32776	32772	
611	0	32740	32732	
612	0	32844	32804	
613	0	32890	32814	
614	0	32816	32748	
615	0	32824	32806	
616	0	32720	32772	
617	0	32794	32647	
618	0	32770	32804	
619	0	32834	32816	
620	0	32870	32694	
621	0	32848	32756	
622	0	32828	32653	
623	0	32830	32827	
624	0	32838	32746	
625	0	32814	32676	
626	0	32824	32830	
627	0	32772	32740	
628	0	32852	32714	
629	0	32784	32834	
630	0	32808	32805	
631	0	32828	32698	
632	0	32788	32830	
633	0	32840	32704	
634	0	32812	32762	
635	0	32856	32775	
636	0	32856	32775	
637	0	32820	32860	
638	0	32822	32710	
639	0	32792	32836	
640	0	32800	32745	
641	0	32726	32794	
642	0	32828	32786	
643	0	32878	32728	
644	0	32826	32748	
645	0	32756	32647	
646	0	32816	32766	
647	0	32840	32756	
648	0	32793	32830	
649	0	32838	32835	
650	0	32756	32672	
651	0	32800	32782	
652	0	32846	32668	
653	0	32846	32832	
654	0	32760	32862	
655	0	32832	32750	
656	0	32836	32775	
657	0	32798	32718	
658	0	32784	32670	
659	0	32800	32766	
660	0	32868	32724	
661	0	32788	32708	
662	0	32860	32830	
663	0	32864	32844	
664	0	32788	32764	
665	0	32828	32725	
666	0	32772	32711	
667	0	32924	32772	
668	0	32834	32782	
669	0	32782	32766	
670	0	32848	32746	
671	0	32740	32728	
672	0	32818	32756	
673	0	32748	32702	
674	0	32836	32790	
675	0	32838	32735	
676	0	32872	32834	
677	0	32852	32847	
678	0	32802	32698	
679	0	32820	32788	
680	0	32840	32842	
681	0	32814	32676	
682	0	32776	32808	
683	0	32800	32806	
684	0	32816	32752	
685	0	32828	32798	
686	0	32832	32656	
687	0	32812	32806	
688	0	32824	32798	
689	0	32814	32708	
690	0	32740	32822	
691	0	32796	32737	
692	0	32836	32806	
693	0	32824	32807	
694	0	32792	32710	
695	0	32868	32772	
696	0	32824	32846	
697	0	32772	32638	
698	0	32832	32810	
699	0	32836	32686	
700	0	32832	32812	
701	0	32740	32802	
702	0	32828	32726	
703	0	32812	32791	
704	0	32820	32808	
705	0	32868	32646	
706	0	32824	32736	
707	0	32836	32718	
708	0	32776	32734	
709	0	32790	32826	
710	0	32808	32700	
711	0	32838	32828	
712	0	32790	32770	
713	0	32828	32900	
714	0	32820	32670	
715	0	32804	32839	
716	0	32844	32775	
717	0	32802	32708	
718	0	32800	32832	
719	0	32832	32819	
720	0	32784	32739	
721	0	32808	32788	
722	0	32784	32796	
723	0	32840	32742	
724	0	32752	32772	
725	0	32812	32804	
726	0	32812	32700	
727	0	32844	32750	
728	0	32834	32753	
729	0	32732	32807	
730	0	32824	32796	
731	0	32820	32836	
732	0	32886	32761	
733	0	32844	32830	
734	0	32804	32810	
735	0	32776	32784	
736	0	32782	32758	
737	0	32796	32760	
738	0	32832	32703	
739	0	32772	32746	
740	0	32836	32702	
741	0	32840	32796	
742	0	32808	32758	
743	0	32872	32702	
744	0	32814	32775	
745	0	32800	32764	
746	0	32816	32712	
747	0	32848	32678	
748	0	32878	32708	
749	0	32880	32800	
750	0	32784	32742	
751	0	32818	32794	
752	0	32812	32775	
753	0	32820	32682	
754	0	32820	32775	
755	0	32860	32764	
756	0	32838	32740	
757	0	32832	32862	
758	0	32753	32804	
759	0	32804	32646	
760	0	32792	32774	
761	0	32816	32821	
762	0	32900	32686	
763	0	32816	32774	
764	0	32862	32687	
765	0	32769	32812	
766	0	32824	32713	
767	0	32775	32700	
768	0	32788	32806	
769	0	32864	32812	
770	0	32868	32702	
771	0	32830	32830	
772	0	32832	32825	
773	0	32744	32898	
774	0	32836	32820	
775	0	32778	32740	
776	0	32784	32718	
777	0	32804	32772	
778	0	32816	32862	
779	0	32830	32838	
780	0	32948	32775	
781	0	32822	32624	
782	0	32732	32836	
783	0	32744	32802	
784	0	32740	32694	
785	0	32856	32742	
786	0	32804	32848	
787	0	32758	32696	
788	0	32764	32786	
789	0	32842	32828	
790	0	32848	32736	
791	0	32830	32794	
792	0	32732	32734	
793	0	32806	32758	
794	0	32824	32856	
795	0	32812	32708	
796	0	32824	32866	
797	0	32828	32756	
798	0	32848	32734	
799	0	32802	32714	
800	0	32776	32774	
801	0	32776	32804	
802	0	32820	32647	
803	0	32804	32806	
804	0	32784	32754	
805	0	32808	32816	
806	0	32816	32832	
807	0	32812	32748	
808	0	32816	32726	
809	0	32812	32626	
810	0	32832	32748	
811	0	32894	32844	
812	0	32824	32750	
813	0	32808	32746	
814	0	32768	32706	
815	0	32804	32804	
816	0	32774	32724	
817	0	32832	32670	
818	0	32792	32837	
819	0	32844	32799	
820	0	32788	32690	
821	0	32868	32820	
822	0	32808	32756	
823	0	32824	32690	
824	0	32828	32838	
825	0	32794	32688	
826	0	32836	32732	
827	0	32780	32860	
828	0	32818	32838	
829	0	32842	32756	
830	0	32798	32722	
831	0	32852	32758	
832	0	32800	32674	
833	0	32862	32836	
834	0	32848	32838	
835	0	32824	32639	
836	0	32720	32849	
837	0	32768	32714	
838	0	32862	32726	
839	0	32842	32728	
840	0	32772	32752	
841	0	32886	32724	
842	0	32868	32903	
843	0	32822	32822	
844	0	32762	32750	
845	0	32810	32748	
846	0	32808	32822	
847	0	32788	32766	
848	0	32858	32775	
849	0	32752	32788	
850	0	32754	32652	
851	0	32816	32806	
852	0	32796	32804	
853	0	32820	32775	
854	0	32820	32734	
855	0	32776	32740	
856	0	32804	32820	
857	0	32800	32750	
858	0	32824	32768	
859	0	32872	32690	
860	0	32832	32791	
861	0	32832	32741	
862	0	32792	32702	
863	0	32776	32775	
864	0	32832	32856	
865	0	32812	32720	
866	0	32848	32754	
867	0	32880	32626	
868	0	32794	32828	
869	0	32784	32742	
870	0	32774	32820	
871	0	32858	32806	
872	0	32836	32736	
873	0	32792	32780	
874	0	32810	32814	
875	0	32820	32772	
876	0	32840	32682	
877	0	32758	32806	
878	0	32808	32742	
879	0	32802	32770	
880	0	32800	32772	
881	0	32804	32766	
882	0	32816	32814	
883	0	32808	32686	
884	0	32832	32751	
885	0	32778	32854	
886	0	32836	32652	
887	0	32800	32818	
888	0	32800	32822	
889	0	32770	32678	
890	0	32808	32825	
891	0	32786	32839	
892	0	32760	32620	
893	0	32824	32764	
894	0	32764	32775	
895	0	32836	32702	
896	0	32812	32810	
897	0	32798	32881	
898	0	32825	32764	
899	0	32816	32754	
900	0	32788	32745	
901	0	32820	32836	
902	0	32840	32706	
903	0	32838	32748	
904	0	32844	32798	
905	0	32892	32738	
906	0	32804	32652	
907	0	32796	32794	
908	0	32818	32866	
909	0	32828	32654	
910	0	32788	32838	
911	0	32780	32846	
912	0	32840	32774	
913	0	32822	32846	
914	0	32790	32732	
915	0	32816	32748	
916	0	32828	32798	
917	0	32810	32742	
918	0	32828	32847	
919	0	32800	32690	
920	0	32782	32775	
921	0	32764	32832	
922	0	32842	32716	
923	0	32848	32764	
924	0	32840	32886	
925	0	32820	32726	
926	0	32804	32732	
927	0	32744	32674	
928	0	32828	32806	
929	0	32808	32814	
930	0	32812	32696	
931	0	32832	32910	
932	0	32902	32854	
933	0	32812	32742	
934	0	32800	32748	
935	0	32860	32688	
936	0	32792	32826	
937	0	32796	32710	
938	0	32782	32720	
939	0	32778	32775	
940	0	32862	32895	
941	0	32816	32742	
942	0	32790	32708	
943	0	32814	32874	
944	0	32816	32753	
945	0	32780	32812	
946	0	32800	32710	
947	0	32780	32702	
948	0	32824	32796	
949	0	32828	32839	
950	0	32788	32679	
951	0	32792	32832	
952	0	32816	32822	
953	0	32816	32775	
954	0	32820	32853	
955	0	32852	32816	
956	0	32808	32702	
957	0	32856	32834	
958	0	32752	32764	
959	0	32850	32663	
960	0	32832	32746	
961	0	32778	32739	
962	0	32842	32687	
963	0	32810	32798	
964	0	32848	32764	
965	0	32872	32670	
966	0	32752	32824	
967	0	32766	32829	
968	0	32846	32658	
969	0	32802	32774	
970	0	32836	32885	
971	0	32796	32724	
972	0	32790	32814	
973	0	32828	32756	
974	0	32757	32638	
975	0	32816	32710	
976	0	32840	32828	
977	0	32864	32764	
978	0	32805	32764	
979	0	32824	32702	
980	0	32848	32775	
981	0	32864	32775	
982	0	32800	32726	
983	0	32806	32758	
984	0	32772	32686	
985	0	32810	32775	
986	0	32802	32878	
987	0	32816	32738	
988	0	32768	32784	
989	0	32832	32766	
990	0	32820	32860	
991	0	32756	32722	
992	0	32816	32655	
993	0	32764	32792	
994	0	32832	32814	
995	0	32812	32661	
996	0	32798	32800	
997	0	32814	32822	
998	0	32822	32732	
999	0	32826	32775	
1000	0	32820	32716	
1001	0	32808	32841	
1002	0	32910	32792	
1003	0	32884	32838	
1004	0	32720	32800	
1005	0	32828	32898	
1006	0	32880	32775	
1007	0	32820	32742	
1008	0	32822	32838	
1009	0	32802	32804	
1010	0	32790	32712	
1011	0	32806	32752	
1012	0	32788	32764	
1013	0	32812	32754	
1014	0	32768	32634	
1015	0	32826	32770	
1016	0	32802	32740	
1017	0	32816	32695	
1018	0	32740	32688	
1019	0	32804	32764	
1020	0	32758	32772	
1021	0	32728	32692	
1022	0	32808	32718	
1023	0	32800	32656	
1024	0	32734	32770	
1025	0	32804	32622	
1026	0	32730	32770	
1027	0	32804	32647	
1028	0	32708	32588	
1029	0	32746	32750	
1030	0	32764	32803	
1031	0	32792	32792	
1032	0	32780	32775	
1033	0	32752	32746	
1034	0	32742	32774	
1035	0	32780	32700	
1036	0	32872	32822	
1037	0	32780	32798	
1038	0	32876	32798	
1039	0	32820	32764	
1040	0	32944	32886	
1041	0	32840	32870	
1042	0	32928	32910	
1043	0	32944	32869	
1044	0	32932	32964	
1045	0	32944	32879	
1046	0	32952	32839	
1047	0	32992	33031	
1048	0	32932	32910	
1049	0	32880	33012	
1050	0	32816	32908	
1051	0	32910	32747	
1052	0	32844	32862	
1053	0	32868	32811	
1054	0	32836	32884	
1055	0	32872	32874	
1056	0	32858	32848	
1057	0	32900	32788	
1058	0	32812	32746	
1059	0	32780	32700	
1060	0	32826	32714	
1061	0	32798	32706	
1062	0	32738	32610	
1063	0	32782	32702	
1064	0	32816	32742	
1065	0	32762	32580	
1066	0	32728	32690	
1067	0	32812	32724	
1068	0	32736	32644	
1069	0	32736	32774	
1070	0	32752	32690	
1071	0	32722	32604	
1072	0	32816	32870	
1073	0	32836	32816	
1074	0	32788	32682	
1075	0	32810	32756	
1076	0	32792	32711	
1077	0	32844	32764	
1078	0	32776	32788	
1079	0	32812	32663	
1080	0	32832	32823	
1081	0	32820	32802	
1082	0	32824	32698	
1083	0	32800	32768	
1084	0	32778	32791	
1085	0	32788	32684	
1086	0	32848	32775	
1087	0	32812	32775	
1088	0	32768	32679	
1089	0	32892	32846	
1090	0	32856	32847	
1091	0	32812	32811	
1092	0	32810	32728	
1093	0	32804	32823	
1094	0	32836	32836	
1095	0	32848	32655	
1096	0	32864	32738	
1097	0	32856	32699	
1098	0	32812	32791	
1099	0	32748	32815	
1100	0	32768	32696	
1101	0	32816	32724	
1102	0	32824	32792	
1103	0	32868	32756	
1104	0	32768	32772	
1105	0	32768	32686	
1106	0	32816	32746	
1107	0	32798	32726	
1108	0	32792	32818	
1109	0	32772	32710	
1110	0	32848	32831	
1111	0	32775	32794	
1112	0	32816	32748	
1113	0	32826	32834	
1114	0	32844	32743	
1115	0	32836	32794	
1116	0	32836	32680	
1117	0	32796	32788	
1118	0	32812	32767	
1119	0	32862	32694	
1120	0	32864	32756	
1121	0	32774	32712	
1122	0	32816	32870	
1123	0	32824	32796	
1124	0	32800	32766	
1125	0	32752	32694	
1126	0	32808	32740	
1127	0	32822	32784	
1128	0	32780	32775	
1129	0	32864	32772	
1130	0	32886	32770	
1131	0	32820	32834	
1132	0	32800	32681	
1133	0	32820	32806	
1134	0	32808	32774	
1135	0	32814	32806	
1136	0	32772	32807	
1137	0	32778	32700	
1138	0	32836	32796	
1139	0	32840	32810	
1140	0	32832	32719	
1141	0	32788	32774	
1142	0	32848	32866	
1143	0	32774	32771	
1144	0	32804	32774	
1145	0	32728	32742	
1146	0	32836	32743	
1147	0	32804	32756	
1148	0	32824	32833	
1149	0	32826	32828	
1150	0	32766	32786	
1151	0	32800	32758	
1152	0	32836	32758	
1153	0	32734	32708	
1154	0	32806	32682	
1155	0	32876	32742	
1156	0	32860	32727	
1157	0	32774	32684	
1158	0	32792	32746	
1159	0	32852	32796	
1160	0	32824	32775	
1161	0	32806	32748	
1162	0	32862	32757	
1163	0	32814	32895	
1164	0	32784	32742	
1165	0	32804	32800	
1166	0	32792	32828	
1167	0	32816	32704	
1168	0	32792	32887	
1169	0	32824	32775	
1170	0	32836	32816	
1171	0	32814	32798	
1172	0	32709	32785	
1173	0	32798	32692	
1174	0	32812	32866	
1175	0	32836	32844	
1176	0	32788	32756	
1177	0	32828	32796	
1178	0	32856	32841	
1179	0	32820	32710	
1180	0	32892	32758	
1181	0	32868	32654	
1182	0	32766	32718	
1183	0	32754	32634	
1184	0	32760	32768	
1185	0	32782	32792	
1186	0	32800	32918	
1187	0	32864	32802	
1188	0	32820	32676	
1189	0	32864	32812	
1190	0	32816	32796	
1191	0	32740	32708	
1192	0	32834	32870	
1193	0	32804	32804	
1194	0	32822	32680	
1195	0	32790	32812	
1196	0	32800	32852	
1197	0	32840	32640	
1198	0	32804	32766	
1199	0	32784	32804	
1200	0	32792	32748	
1201	0	32780	32770	
1202	0	32818	32798	
1203	0	32792	32824	
1204	0	32860	32738	
1205	0	32852	32842	
1206	0	32804	32792	
1207	0	32804	32687	
1208	0	32750	32874	
1209	0	32860	32852	
1210	0	32828	32815	
1211	0	32830	32768	
1212	0	32764	32714	
1213	0	32794	32800	
1214	0	32820	32760	
1215	0	32886	32806	
1216	0	32814	32737	
1217	0	32774	32726	
1218	0	32805	32755	
1219	0	32848	32711	
1220	0	32772	32759	
1221	0	32804	32766	
1222	0	32802	32848	
1223	0	32792	32734	
1224	0	32880	32868	
1225	0	32812	32740	
1226	0	32750	32709	
1227	0	32836	32862	
1228	0	32794	32816	
1229	0	32772	32687	
1230	0	32832	32828	
1231	0	32808	32830	
1232	0	32840	32700	
1233	0	32808	32775	
1234	0	32796	32756	
1235	0	32858	32769	
1236	0	32812	32756	
1237	0	32772	32774	
1238	0	32768	32804	
1239	0	32846	32810	
1240	0	32860	32694	
1241	0	32800	32775	
1242	0	32862	32714	
1243	0	32804	32822	
1244	0	32834	32814	
1245	0	32810	32710	
1246	0	32844	32775	
1247	0	32760	32710	
1248	0	32834	32756	
1249	0	32766	32708	
1250	0	32816	32797	
1251	0	32832	32748	
1252	0	32878	32850	
1253	0	32758	32804	
1254	0	32808	32773	
1255	0	32834	32788	
1256	0	32878	32722	
1257	0	32736	32750	
1258	0	32872	32728	
1259	0	32794	32886	
1260	0	32768	32796	
1261	0	32856	32615	
1262	0	32760	32798	
1263	0	32806	32704	
1264	0	32850	32794	
1265	0	32744	32718	
1266	0	32820	32830	
1267	0	32814	32764	
1268	0	32768	32808	
1269	0	32828	32820	
1270	0	32784	32834	
1271	0	32868	32798	
1272	0	32762	32679	
1273	0	32768	32825	
1274	0	32800	32800	
1275	0	32828	32700	
1276	0	32830	32811	
1277	0	32860	32702	
1278	0	32878	32720	
1279	0	32782	32775	
1280	0	32742	32688	
1281	0	32832	32878	
1282	0	32804	32756	
1283	0	32768	32718	
1284	0	32842	32836	
1285	0	32836	32750	
1286	0	32806	32687	
1287	0	32864	32750	
1288	0	32812	32801	
1289	0	32812	32819	
1290	0	32821	32855	
1291	0	32828	32652	
1292	0	32832	32825	
1293	0	32808	32832	
1294	0	32884	32700	
1295	0	32754	32839	
1296	0	32821	32762	
1297	0	32860	32744	
1298	0	32820	32712	
1299	0	32794	32678	
1300	0	32800	32790	
1301	0	32854	32798	
1302	0	32820	32672	
1303	0	32808	32746	
1304	0	32808	32772	
1305	0	32766	32772	
1306	0	32780	32810	
1307	0	32784	32708	
1308	0	32800	32775	
1309	0	32754	32830	
1310	0	32816	32775	
1311	0	32824	32801	
1312	0	32804	32654	
1313	0	32842	32844	
1314	0	32800	32808	
1315	0	32832	32764	
1316	0	32780	32764	
1317	0	32796	32802	
1318	0	32752	32764	
1319	0	32804	32724	
1320	0	32884	32734	
1321	0	32818	32824	
1322	0	32798	32772	
1323	0	32775	32742	
1324	0	32794	32754	
1325	0	32836	32817	
1326	0	32830	32710	
1327	0	32804	32758	
1328	0	32748	32736	
1329	0	32816	32864	
1330	0	32800	32866	
1331	0	32920	32732	
1332	0	32776	32798	
1333	0	32752	32775	
1334	0	32848	32746	
1335	0	32848	32796	
1336	0	32836	32712	
1337	0	32760	32838	
1338	0	32884	32775	
1339	0	32802	32676	
1340	0	32796	32720	
1341	0	32804	32874	
1342	0	32864	32746	
1343	0	32832	32764	
1344	0	32852	32804	
1345	0	32830	32642	
1346	0	32752	32762	
1347	0	32790	32811	
1348	0	32858	32728	
1349	0	32814	32846	
1350	0	32814	32822	
1351	0	32842	32732	
1352	0	32772	32862	
1353	0	32852	32788	
1354	0	32818	32720	
1355	0	32804	32804	
1356	0	32762	32775	
1357	0	32760	32754	
1358	0	32784	32699	
1359	0	32798	32732	
1360	0	32804	32743	
1361	0	32804	32775	
1362	0	32788	32775	
1363	0	32820	32822	
1364	0	32884	32766	
1365	0	32828	32775	
1366	0	32864	32806	
1367	0	32788	32754	
1368	0	32810	32756	
1369	0	32808	32868	
1370	0	32812	32774	
1371	0	32870	32802	
1372	0	32740	32815	
1373	0	32766	32620	
1374	0	32844	32788	
1375	0	32880	32810	
1376	0	32806	32712	
1377	0	32834	32796	
1378	0	32848	32876	
1379	0	32834	32754	
1380	0	32836	32727	
1381	0	32800	32722	
1382	0	32804	32835	
1383	0	32804	32806	
1384	0	32886	32718	
1385	0	32838	32796	
1386	0	32798	32872	
1387	0	32738	32660	
1388	0	32796	32850	
1389	0	32830	32856	
1390	0	32788	32711	
1391	0	32908	32851	
1392	0	32792	32807	
1393	0	32800	32684	
1394	0	32772	32730	
1395	0	32862	32714	
1396	0	32775	32679	
1397	0	32830	32860	
1398	0	32788	32812	
1399	0	32792	32748	
1400	0	32820	32766	
1401	0	32738	32774	
1402	0	32796	32754	
1403	0	32852	32775	
1404	0	32898	32828	
1405	0	32878	32724	
1406	0	32784	32788	
1407	0	32788	32838	
1408	0	32837	32676	
1409	0	32814	32824	
1410	0	32764	32748	
1411	0	32848	32704	
1412	0	32802	32814	
1413	0	32842	32726	
1414	0	32732	32660	
1415	0	32868	32878	
1416	0	32826	32850	
1417	0	32820	32708	
1418	0	32806	32840	
1419	0	32804	32832	
1420	0	32838	32708	
1421	0	32842	32788	
1422	0	32840	32852	
1423	0	32832	32682	
1424	0	32800	32762	
1425	0	32822	32788	
1426	0	32804	32717	
1427	0	32824	32774	
1428	0	32821	32812	
1429	0	32778	32728	
1430	0	32748	32844	
1431	0	32772	32742	
1432	0	32732	32740	
1433	0	32820	32810	
1434	0	32804	32770	
1435	0	32794	32706	
1436	0	32858	32816	
1437	0	32824	32806	
1438	0	32776	32640	
1439	0	32860	32868	
1440	0	32816	32754	
1441	0	32818	32652	
1442	0	32752	32852	
1443	0	32788	32838	
1444	0	32820	32634	
1445	0	32766	32816	
1446	0	32740	32774	
1447	0	32868	32687	
1448	0	32796	32746	
1449	0	32824	32866	
1450	0	32834	32722	
1451	0	32836	32718	
1452	0	32822	32700	
1453	0	32744	32826	
1454	0	32816	32852	
1455	0	32810	32806	
1456	0	32848	32810	
1457	0	32836	32820	
1458	0	32810	32751	
1459	0	32812	32752	
1460	0	32836	32664	
1461	0	32792	32822	
1462	0	32812	32775	
1463	0	32816	32712	
1464	0	32848	32748	
1465	0	32818	32742	
1466	0	32788	32770	
1467	0	32788	32798	
1468	0	32852	32686	
1469	0	32836	32720	
1470	0	32814	32706	
1471	0	32900	32934	
1472	0	32814	32862	
1473	0	32808	32710	
1474	0	32783	32775	
1475	0	32848	32716	
1476	0	32860	32740	
1477	0	32800	32838	
1478	0	32820	32816	
1479	0	32784	32748	
1480	0	32758	32804	
1481	0	32812	32830	
1482	0	32780	32718	
1483	0	32784	32868	
1484	0	32796	32828	
1485	0	32772	32748	
1486	0	32772	32772	
1487	0	32808	32732	
1488	0	32796	32808	
1489	0	32826	32842	
1490	0	32760	32830	
1491	0	32796	32743	
1492	0	32816	32688	
1493	0	32794	32820	
1494	0	32780	32730	
1495	0	32800	32800	
1496	0	32800	32796	
1497	0	32804	32722	
1498	0	32808	32736	
1499	0	32856	32670	
1500	0	32824	32730	
1501	0	32850	32765	
1502	0	32792	32775	
1503	0	32832	32678	
1504	0	32780	32806	
1505	0	32810	32826	
1506	0	32842	32636	
1507	0	32796	32856	
1508	0	32808	32831	
1509	0	32823	32703	
1510	0	32844	32744	
1511	0	32824	32792	
1512	0	32836	32764	
1513	0	32832	32774	
1514	0	32804	32768	
1515	0	32808	32734	
1516	0	32792	32796	
1517	0	32788	32744	
1518	0	32784	32752	
1519	0	32768	32807	
1520	0	32780	32718	
1521	0	32798	32810	
1522	0	32834	32732	
1523	0	32772	32775	
1524	0	32824	32820	
1525	0	32764	32674	
1526	0	32890	32850	
1527	0	32764	32798	
1528	0	32728	32730	
1529	0	32800	32766	
1530	0	32800	32748	
1531	0	32810	32822	
1532	0	32850	32808	
1533	0	32800	32742	
1534	0	32792	32788	
1535	0	32780	32764	
1536	0	32756	32688	
1537	0	32808	32758	
1538	0	32825	32799	
1539	0	32828	32730	
1540	0	32900	32806	
1541	0	32838	32810	
1542	0	32840	32675	
1543	0	32794	32769	
1544	0	32832	32800	
1545	0	32880	32704	
1546	0	32772	32744	
1547	0	32806	32828	
1548	0	32852	32708	
1549	0	32862	32830	
1550	0	32800	32846	
1551	0	32844	32756	
1552	0	32820	32820	
1553	0	32762	32838	
1554	0	32818	32743	
1555	0	32806	32842	
1556	0	32808	32712	
1557	0	32796	32756	
1558	0	32856	32856	
1559	0	32792	32816	
1560	0	32814	32742	
1561	0	32894	32756	
1562	0	32844	32775	
1563	0	32816	32692	
1564	0	32808	32799	
1565	0	32868	32800	
1566	0	32814	32764	
1567	0	32910	32758	
1568	0	32844	32750	
1569	0	32740	32854	
1570	0	32724	32852	
1571	0	32748	32712	
1572	0	32790	32775	
1573	0	32792	32654	
1574	0	32798	32798	
1575	0	32792	32724	
1576	0	32770	32708	
1577	0	32720	32739	
1578	0	32832	32722	
1579	0	32836	32655	
1580	0	32816	32852	
1581	0	32840	32804	
1582	0	32852	32775	
1583	0	32808	32810	
1584	0	32820	32730	
1585	0	32768	32800	
1586	0	32825	32828	
1587	0	32848	32792	
1588	0	32836	32798	
1589	0	32836	32647	
1590	0	32788	32760	
1591	0	32854	32750	
1592	0	32823	32788	
1593	0	32832	32775	
1594	0	32840	32764	
1595	0	32808	32862	
1596	0	32804	32807	
1597	0	32784	32711	
1598	0	32778	32828	
1599	0	32808	32775	
1600	0	32820	32748	
1601	0	32780	32826	
1602	0	32816	32752	
1603	0	32768	32732	
1604	0	32832	32668	
1605	0	32786	32804	
1606	0	32831	32878	
1607	0	32812	32718	
1608	0	32748	32740	
1609	0	32822	32798	
1610	0	32820	32634	
1611	0	32903	32775	
1612	0	32860	32775	
1613	0	32810	32702	
1614	0	32708	32818	
1615	0	32780	32892	
1616	0	32752	32736	
1617	0	32756	32751	
1618	0	32834	32727	
1619	0	32852	32878	
1620	0	32696	32748	
1621	0	32802	32826	
1622	0	32816	32762	
1623	0	32864	32727	
1624	0	32732	32832	
1625	0	32804	32767	
1626	0	32804	32668	
1627	0	32760	32730	
1628	0	32752	32730	
1629	0	32668	32711	
1630	0	32700	32722	
1631	0	32702	32864	
1632	0	32794	32825	
1633	0	32740	32730	
1634	0	32816	32724	
1635	0	32860	32807	
1636	0	32824	32774	
1637	0	32830	32775	
1638	0	32856	32612	
1639	0	32832	32726	
1640	0	32920	32770	
1641	0	32864	32734	
1642	0	32924	32855	
1643	0	32946	32760	
1644	0	32772	32760	
1645	0	32896	32772	
1646	0	32842	32740	
1647	0	32776	32654	
1648	0	32901	32800	
1649	0	32772	32817	
1650	0	32824	32710	
1651	0	32800	32734	
1652	0	32790	32774	
1653	0	32836	32790	
1654	0	32820	32822	
1655	0	32796	32764	
1656	0	32848	32728	
1657	0	32834	32722	
1658	0	32776	32768	
1659	0	32784	32775	
1660	0	32784	32710	
1661	0	32752	32775	
1662	0	32912	32810	
1663	0	32844	32775	
1664	0	32856	32846	
1665	0	32870	32694	
1666	0	32930	32900	
1667	0	32792	32798	
1668	0	32840	32856	
1669	0	32782	32654	
1670	0	32798	32802	
1671	0	32816	32752	
1672	0	32756	32854	
1673	0	32790	32684	
1674	0	32780	32790	
1675	0	32790	32774	
1676	0	32786	32710	
1677	0	32864	32775	
1678	0	32848	32812	
1679	0	32868	32668	
1680	0	32904	32750	
1681	0	32842	32750	
1682	0	32824	32746	
1683	0	32822	32692	
1684	0	32812	32804	
1685	0	32752	32798	
1686	0	32712	32698	
1687	0	32784	32770	
1688	0	32808	32775	
1689	0	32748	32766	
1690	0	32714	32728	
1691	0	32740	32896	
1692	0	32732	32830	
1693	0	32834	32716	
1694	0	32872	32774	
1695	0	32830	32822	
1696	0	32834	32712	
1697	0	32860	32842	
1698	0	32828	32730	
1699	0	32762	32770	
1700	0	32836	32766	
1701	0	32764	32848	
1702	0	32866	32820	
1703	0	32780	32642	
1704	0	32824	32856	
1705	0	32822	32708	
1706	0	32836	32766	
1707	0	32796	32666	
1708	0	32934	32754	
1709	0	32932	32800	
1710	0	32832	32836	
1711	0	32762	32736	
1712	0	32826	32826	
1713	0	32794	32900	
1714	0	32780	32788	
1715	0	32752	32714	
1716	0	32812	32847	
1717	0	32708	32736	
1718	0	32769	32842	
1719	0	32826	32775	
1720	0	32840	32836	
1721	0	32808	32775	
1722	0	32816	32751	
1723	0	32916	32848	
1724	0	32852	32774	
1725	0	32828	32682	
1726	0	32776	32775	
1727	0	32800	32788	
1728	0	32840	32748	
1729	0	32832	32880	
1730	0	32836	32775	
1731	0	32824	32748	
1732	0	32804	32910	
1733	0	32806	32830	
1734	0	32764	32698	
1735	0	32760	32694	
1736	0	32774	32696	
1737	0	32896	32724	
1738	0	32816	32660	
1739	0	32854	32712	
1740	0	32774	32684	
1741	0	32752	32852	
1742	0	32868	32849	
1743	0	32812	32714	
1744	0	32824	32948	
1745	0	32798	32893	
1746	0	32798	32732	
1747	0	32736	32836	
1748	0	32744	32744	
1749	0	32794	32675	
1750	0	32768	32725	
1751	0	32764	32686	
1752	0	32684	32596	
1753	0	32740	32716	
1754	0	32758	32726	
1755	0	32868	32604	
1756	0	32864	32775	
1757	0	32760	32836	
1758	0	32820	32694	
1759	0	32754	32808	
1760	0	32776	32870	
1761	0	32840	32676	
1762	0	32876	32854	
1763	0	32848	32732	
1764	0	32900	32724	
1765	0	32894	32879	
1766	0	32932	32900	
1767	0	32928	32775	
1768	0	32872	32870	
1769	0	32938	32775	
1770	0	32848	32823	
1771	0	32766	32799	
1772	0	32774	32718	
1773	0	32774	32775	
1774	0	32720	32768	
1775	0	32572	32666	
1776	0	32650	32756	
1777	0	32836	32752	
1778	0	32884	32660	
1779	0	32776	32762	
1780	0	32666	32775	
1781	0	32684	32830	
1782	0	32726	32743	
1783	0	32712	32806	
1784	0	32676	32774	
1785	0	32696	32711	
1786	0	32716	32720	
1787	0	32704	32628	
1788	0	32868	32668	
1789	0	32744	32743	
1790	0	32750	32700	
1791	0	32874	32654	
1792	0	32806	32743	
1793	0	32780	32632	
1794	0	32792	32606	
1795	0	32782	32632	
1796	0	33028	32718	
1797	0	33128	32792	
1798	0	33076	32700	
1799	0	33036	32696	
1800	0	32856	32942	
1801	0	32834	32854	
1802	0	32784	32884	
1803	0	32784	32871	
1804	0	32692	32900	
1805	0	32666	32943	
1806	0	32908	32974	
1807	0	32828	32980	
1808	0	32776	32956	
1809	0	32816	32841	
1810	0	32892	32898	
1811	0	32816	32775	
1812	0	32784	32872	
1813	0	32866	32884	
1814	0	32920	32892	
1815	0	32896	32834	
1816	0	32964	32720	
1817	0	32960	32842	
1818	0	33028	32770	
1819	0	32934	32775	
1820	0	32812	32710	
1821	0	32730	32572	
1822	0	32734	32694	
1823	0	32756	32680	
1824	0	32734	32671	
1825	0	32732	32660	
1826	0	32754	32672	
1827	0	32668	32667	
1828	0	32748	32735	
1829	0	32844	32824	
1830	0	32856	32816	
1831	0	32844	32759	
1832	0	32774	32590	
1833	0	32754	32764	
1834	0	32756	32700	
1835	0	32648	32650	
1836	0	32784	32881	
1837	0	32884	32908	
1838	0	32816	33044	
1839	0	32776	33030	
1840	0	32848	32980	
1841	0	32848	32952	
1842	0	32676	32772	
1843	0	32768	32692	
1844	0	32812	32615	
1845	0	32908	32592	
1846	0	32828	32494	
1847	0	32722	32508	
1848	0	32696	32628	
1849	0	32746	32827	
1850	0	32780	32784	
1851	0	32680	32720	
1852	0	32814	32640	
1853	0	33080	32679	
1854	0	33188	32682	
1855	0	33044	32807	
1856	0	32796	32794	
1857	0	32738	32766	
1858	0	32816	32631	
1859	0	32814	32579	
1860	0	32720	32618	
1861	0	32670	32654	
1862	0	32592	32684	
1863	0	32640	32672	
1864	0	32636	32658	
1865	0	32810	32698	
1866	0	32872	32702	
1867	0	32876	32889	
1868	0	32810	32912	
1869	0	32922	32862	
1870	0	33116	32991	
1871	0	33046	32964	
1872	0	32974	32848	
1873	0	32904	32871	
1874	0	32736	32950	
1875	0	32824	32756	
1876	0	32832	32796	
1877	0	32820	32884	
1878	0	32828	32807	
1879	0	32762	32823	
1880	0	32786	32680	
1881	0	32762	32804	
1882	0	32734	32673	
1883	0	32732	32838	
1884	0	32734	32848	
1885	0	32908	32734	
1886	0	32922	32775	
1887	0	32776	32622	
1888	0	32876	32859	
1889	0	32800	32930	
1890	0	32756	32775	
1891	0	32624	32796	
1892	0	32550	32856	
1893	0	32504	32928	
1894	0	32646	32785	
1895	0	32604	32850	
1896	0	32894	32808	
1897	0	32948	32632	
1898	0	33036	32666	
1899	0	32986	32666	
1900	0	32878	32806	
1901	0	32930	32706	
1902	0	32912	32702	
1903	0	32748	32616	
1904	0	32650	32496	
1905	0	32714	32766	
1906	0	32900	32756	
1907	0	32930	32578	
1908	0	32912	32672	
1909	0	32778	32670	
1910	0	32870	32815	
1911	0	32770	32852	
1912	0	32804	32739	
1913	0	32780	32820	
1914	0	32718	32774	
1915	0	32704	32918	
1916	0	32736	32880	
1917	0	32798	32756	
1918	0	32846	32894	
1919	0	32842	32876	
1920	0	32913	32770	
1921	0	32968	32818	
1922	0	32984	32700	
1923	0	32888	32725	
1924	0	32820	32548	
1925	0	32882	32688	
1926	0	32904	32622	
1927	0	32920	32684	
1928	0	32898	32828	
1929	0	32832	32690	
1930	0	32804	32798	
1931	0	32788	32728	
1932	0	32764	32916	
1933	0	32924	32888	
1934	0	32844	32775	
1935	0	32852	32866	
1936	0	32872	32737	
1937	0	32808	32752	
1938	0	32746	32720	
1939	0	32784	32831	
1940	0	32644	32876	
1941	0	32624	32660	
1942	0	32608	32775	
1943	0	32832	32804	
1944	0	32856	32710	
1945	0	32804	32700	
1946	0	32802	32832	
1947	0	32808	32775	
1948	0	32876	32826	
1949	0	32913	32718	
1950	0	32896	32801	
1951	0	33022	32788	
1952	0	32764	32623	
1953	0	32546	32730	
1954	0	32444	32624	
1955	0	32584	32762	
1956	0	32728	32711	
1957	0	32812	32614	
1958	0	32880	32836	
1959	0	32874	32724	
1960	0	32728	32794	
1961	0	32764	32926	
1962	0	32876	32806	
1963	0	32800	32660	
1964	0	32646	32804	
1965	0	32636	32708	
1966	0	33016	32769	
1967	0	33300	32750	
1968	0	33368	32736	
1969	0	33128	32894	
1970	0	33120	32810	
1971	0	33046	32758	
1972	0	32674	32900	
1973	0	32480	32738	
1974	0	32776	32660	
1975	0	32530	32761	
1976	0	32200	32684	
1977	0	32328	32647	
1978	0	32666	32870	
1979	0	32904	32788	
1980	0	32908	32652	
1981	0	32730	32808	
1982	0	32672	32752	
1983	0	32690	32732	
1984	0	32708	32732	
1985	0	32706	32768	
1986	0	32752	32743	
1987	0	32856	32798	
1988	0	32784	32839	
1989	0	32998	32775	
1990	0	32818	32748	
1991	0	33064	32750	
1992	0	32950	32810	
1993	0	32884	33002	
1994	0	33212	32979	
1995	0	33340	32730	
1996	0	33146	32834	
1997	0	32976	32860	
1998	0	32884	32830	
1999	0	32676	32654	
2000	0	32600	32788	
2001	0	32648	32806	
2002	0	32640	32830	
2003	0	32672	32604	
2004	0	32672	32624	
2005	0	32632	32708	
2006	0	32708	32632	
2007	0	32768	32684	
2008	0	32782	32740	
2009	0	32768	32775	
2010	0	32806	32694	
2011	0	32832	32828	
2012	0	32798	32708	
2013	0	32784	32839	
2014	0	32832	32839	
2015	0	32888	32668	
2016	0	32832	32908	
2017	0	32920	32842	
2018	0	32886	32724	
2019	0	32832	32770	
2020	0	32860	32780	
2021	0	32798	32814	
2022	0	32828	32660	
2023	0	32860	32774	
2024	0	32948	32821	
2025	0	32884	32730	
2026	0	32850	32688	
2027	0	32704	32766	
2028	0	32712	32856	
2029	0	32888	32754	
2030	0	32896	32838	
2031	0	32756	32913	
2032	0	32744	32696	
2033	0	32722	32775	
2034	0	32676	32756	
2035	0	32748	32660	
2036	0	32688	32800	
2037	0	32732	32752	
2038	0	32784	32678	
2039	0	32824	32774	
2040	0	32916	32815	
2041	0	32828	32727	
2042	0	32802	32770	
2043	0	32830	32852	
2044	0	32772	32798	
2045	0	32770	32863	
2046	0	32840	32960	
2047	0	32868	32758	
2048	0	32816	32774	
2049	0	32890	32796	
2050	0	32828	32757	
2051	0	32832	32716	
2052	0	32836	32664	
2053	0	32848	32750	
2054	0	32828	32775	
2055	0	32813	32647	
2056	0	32836	32806	
2057	0	32872	32766	
2058	0	32794	32848	
2059	0	32848	32704	
2060	0	32810	32738	
2061	0	32868	32816	
2062	0	32766	32662	
2063	0	32696	32686	
2064	0	32812	32890	
2065	0	32740	32708	
2066	0	32864	32806	
2067	0	32854	32820	
2068	0	32826	32744	
2069	0	32788	32830	
2070	0	32768	32890	
2071	0	32712	32725	
2072	0	32996	32774	
2073	0	32824	32838	
2074	0	32804	32775	
2075	0	32900	32775	
2076	0	32920	32772	
2077	0	32784	32702	
2078	0	32752	32790	
2079	0	32834	32734	
2080	0	32716	32646	
2081	0	32698	32678	
2082	0	32732	32748	
2083	0	32798	32704	
2084	0	32748	32808	
2085	0	32732	32798	
2086	0	32800	32736	
2087	0	32808	32820	
2088	0	32928	32946	
2089	0	32812	32742	
2090	0	32828	32791	
2091	0	32780	32934	
2092	0	32868	32782	
2093	0	33026	32866	
2094	0	33048	32708	
2095	0	33114	32800	
2096	0	32912	32812	
2097	0	32756	32698	
2098	0	32750	32788	
2099	0	32618	32751	
2100	0	32920	32700	
2101	0	32704	32710	
2102	0	32608	32615	
2103	0	32692	32566	
2104	0	32768	32671	
2105	0	32756	32627	
2106	0	32486	32716	
2107	0	32570	32647	
2108	0	32670	32510	
2109	0	33066	32820	
2110	0	33132	33004	
2111	0	33064	32958	
2112	0	32820	32880	
2113	0	32732	32870	
2114	0	32766	32790	
2115	0	32742	32722	
2116	0	32784	32840	
2117	0	32800	32855	
2118	0	32848	32707	
2119	0	32804	32720	
2120	0	32712	32736	
2121	0	32842	32704	
2122	0	32866	32735	
2123	0	32805	32742	
2124	0	32936	32758	
2125	0	33004	32618	
2126	0	32812	32664	
2127	0	32684	32668	
2128	0	32708	32802	
2129	0	32786	32870	
2130	0	32900	32740	
2131	0	32916	32792	
2132	0	32856	32704	
2133	0	32782	32754	
2134	0	32788	32758	
2135	0	32788	32630	
2136	0	32712	32678	
2137	0	32830	32674	
2138	0	32890	32762	
2139	0	32832	32804	
2140	0	32860	32847	
2141	0	32840	32844	
2142	0	32840	32734	
2143	0	32824	32932	
2144	0	32818	32892	
2145	0	32828	32826	
2146	0	32828	32772	
2147	0	32808	32628	
2148	0	32852	32798	
2149	0	32832	32791	
2150	0	32770	32850	
2151	0	32756	32846	
2152	0	32820	32706	
2153	0	32796	32890	
2154	0	32840	32810	
2155	0	32740	32734	
2156	0	32732	32836	
2157	0	32778	32796	
2158	0	32738	32647	
2159	0	32920	32724	
2160	0	32974	32602	
2161	0	32874	32812	
2162	0	32864	32791	
2163	0	32945	32881	
2164	0	32924	32971	
2165	0	32868	32903	
2166	0	32644	32802	
2167	0	32664	32810	
2168	0	32660	32800	
2169	0	32788	32658	
2170	0	32692	32775	
2171	0	32772	32830	
2172	0	32768	32592	
2173	0	32850	32670	
2174	0	32882	32647	
2175	0	32814	32676	
2176	0	32740	32572	
2177	0	32676	32704	
2178	0	32668	32740	
2179	0	32882	32716	
2180	0	33000	32771	
2181	0	32908	32684	
2182	0	32906	32738	
2183	0	32912	32775	
2184	0	32888	32742	
2185	0	32860	32690	
2186	0	32746	32768	
2187	0	32664	32734	
2188	0	32776	32724	
2189	0	32740	32906	
2190	0	32676	32820	
2191	0	32700	32842	
2192	0	32786	32839	
2193	0	32810	32756	
2194	0	32964	32775	
2195	0	33072	32814	
2196	0	33010	32903	
2197	0	32916	32846	
2198	0	32812	32831	
2199	0	32772	32775	
2200	0	32858	32788	
2201	0	32740	32879	
2202	0	32616	32754	
2203	0	32724	32886	
2204	0	32752	32852	
2205	0	32694	32770	
2206	0	32632	32756	
2207	0	32666	32682	
2208	0	32722	32772	
2209	0	32832	32703	
2210	0	32880	32724	
2211	0	32972	32790	
2212	0	32956	32734	
2213	0	32916	32699	
2214	0	32860	32612	
2215	0	32738	32687	
2216	0	32732	32583	
2217	0	32788	32624	
2218	0	32744	32712	
2219	0	32736	32732	
2220	0	32676	32798	
2221	0	32712	32650	
2222	0	32786	32736	
2223	0	32852	32828	
2224	0	32876	32658	
2225	0	32845	32692	
2226	0	32912	32732	
2227	0	32864	32706	
2228	0	32892	32876	
2229	0	32930	32922	
2230	0	32824	33014	
2231	0	32800	32896	
2232	0	32858	32999	
2233	0	32842	32868	
2234	0	32812	32816	
2235	0	32828	32768	
2236	0	32844	32789	
2237	0	32872	32748	
2238	0	32812	32740	
2239	0	32774	32766	
2240	0	32804	32738	
2241	0	32792	32775	
2242	0	32810	32695	
2243	0	32894	32774	
2244	0	32768	32810	
2245	0	32784	32672	
2246	0	32794	32668	
2247	0	32784	32664	
2248	0	32820	32775	
2249	0	32824	32728	
2250	0	32788	32774	
2251	0	32928	32871	
2252	0	32912	32825	
2253	0	32820	32794	
2254	0	32814	32742	
2255	0	32832	32898	
2256	0	32853	32678	
2257	0	32924	32751	
2258	0	32764	32742	
2259	0	32764	32662	
2260	0	32732	32788	
2261	0	32800	32798	
2262	0	32864	32736	
2263	0	32926	32860	
2264	0	32756	32679	
2265	0	32694	32826	
2266	0	32864	32710	
2267	0	32756	32813	
2268	0	32738	32762	
2269	0	32816	32718	
2270	0	32940	32792	
2271	0	32840	32808	
2272	0	32796	32726	
2273	0	32690	32798	
2274	0	32725	32870	
2275	0	32774	32762	
2276	0	32720	32775	
2277	0	32816	32692	
2278	0	32862	32764	
2279	0	32880	32680	
2280	0	32808	32736	
2281	0	32822	32724	
2282	0	32824	32754	
2283	0	32770	32682	
2284	0	32844	32663	
2285	0	32888	32839	
2286	0	32832	32768	
2287	0	32828	32880	
2288	0	32782	32846	
2289	0	32808	32728	
2290	0	32756	32772	
2291	0	32896	32820	
2292	0	32810	32679	
2293	0	32812	32792	
2294	0	32808	32652	
2295	0	32840	32759	
2296	0	32854	32746	
2297	0	32820	32630	
2298	0	32836	32810	
2299	0	32870	32798	
2300	0	32946	32752	
2301	0	32842	32892	
2302	0	32844	32808	
2303	0	32798	32711	
2304	0	32778	32719	
2305	0	32732	32725	
2306	0	32648	32834	
2307	0	32716	32698	
2308	0	32692	32710	
2309	0	32724	32759	
2310	0	32842	32756	
2311	0	32852	32734	
2312	0	32884	32804	
2313	0	32834	32708	
2314	0	32774	32862	
2315	0	32864	32842	
2316	0	32726	32790	
2317	0	32818	32908	
2318	0	32796	32804	
2319	0	32906	32800	
2320	0	32808	32730	
2321	0	32820	32846	
2322	0	32856	32671	
2323	0	32836	32762	
2324	0	32812	32807	
2325	0	32836	32714	
2326	0	32876	32764	
2327	0	32820	32674	
2328	0	32774	32834	
2329	0	32816	32846	
2330	0	32816	32784	
2331	0	32840	32732	
2332	0	32778	32770	
2333	0	32794	32708	
2334	0	32824	32854	
2335	0	32804	32798	
2336	0	32848	32808	
2337	0	32780	32775	
2338	0	32808	32718	
2339	0	32788	32849	
2340	0	32808	32834	
2341	0	32836	32660	
2342	0	32820	32790	
2343	0	32800	32710	
2344	0	32822	32810	
2345	0	32788	32668	
2346	0	32884	32792	
2347	0	32821	32808	
2348	0	32696	32721	
2349	0	32712	32760	
2350	0	32856	32839	
2351	0	32772	32802	
2352	0	32866	32775	
2353	0	32832	32724	
2354	0	32840	32788	
2355	0	32786	32688	
2356	0	32762	32756	
2357	0	32770	32668	
2358	0	32708	32740	
2359	0	32834	32716	
2360	0	32756	32839	
2361	0	32834	32820	
2362	0	32736	32658	
2363	0	32786	32812	
2364	0	32828	32775	
2365	0	32798	32692	
2366	0	32880	32798	
2367	0	32792	32743	
2368	0	32788	32788	
2369	0	32924	32821	
2370	0	32824	32760	
2371	0	32772	32802	
2372	0	32822	32855	
2373	0	32834	32690	
2374	0	32840	32821	
2375	0	32770	32732	
2376	0	32904	32774	
2377	0	32944	32746	
2378	0	32872	32700	
2379	0	32772	32712	
2380	0	32712	32646	
2381	0	32750	32765	
2382	0	32822	32698	
2383	0	32874	32836	
2384	0	32785	32804	
2385	0	32774	32816	
2386	0	32752	32764	
2387	0	32692	32722	
2388	0	32736	32823	
2389	0	32756	32876	
2390	0	33030	32868	
2391	0	32740	32802	
2392	0	32702	32748	
2393	0	32864	32750	
2394	0	33018	32762	
2395	0	33124	32838	
2396	0	32904	32839	
2397	0	32814	32706	
2398	0	32788	32862	
2399	0	32682	32850	
2400	0	32614	32716	
2401	0	32710	32788	
2402	0	32748	32798	
2403	0	32984	32682	
2404	0	32896	32775	
2405	0	32716	32824	
2406	0	32752	32711	
2407	0	32640	32710	
2408	0	32708	32848	
2409	0	32812	32790	
2410	0	32894	32758	
2411	0	32943	32716	
2412	0	32884	32784	
2413	0	32874	32763	
2414	0	32824	32678	
2415	0	32848	32806	
2416	0	32889	32810	
2417	0	32752	32752	
2418	0	32824	32688	
2419	0	32772	32775	
2420	0	32776	32868	
2421	0	32772	32674	
2422	0	32804	32830	
2423	0	32768	32722	
2424	0	32704	32811	
2425	0	32774	32742	
2426	0	32780	32699	
2427	0	32804	32770	
2428	0	32856	32775	
2429	0	32784	32798	
2430	0	32864	32775	
2431	0	32840	32810	
2432	0	32792	32816	
2433	0	32805	32656	
2434	0	32864	32826	
2435	0	32852	32822	
2436	0	32832	32775	
2437	0	32808	32751	
2438	0	32886	32852	
2439	0	32864	32775	
2440	0	32844	32866	
2441	0	32834	32716	
2442	0	32778	32772	
2443	0	32800	32768	
2444	0	32840	32785	
2445	0	32852	32700	
2446	0	32784	32775	
2447	0	32792	32728	
2448	0	32800	32852	
2449	0	32872	32752	
2450	0	32864	32800	
2451	0	32772	32810	
2452	0	32732	32677	
2453	0	32812	32839	
2454	0	32805	32748	
2455	0	32792	32852	
2456	0	32852	32748	
2457	0	32804	32775	
2458	0	32828	32847	
2459	0	32818	32775	
2460	0	32792	32836	
2461	0	32808	32728	
2462	0	32844	32690	
2463	0	32828	32756	
2464	0	32858	32808	
2465	0	32796	32730	
2466	0	32804	32808	
2467	0	32830	32842	
2468	0	32782	32818	
2469	0	32826	32664	
2470	0	32832	32756	
2471	0	32796	32800	
2472	0	32836	32732	
2473	0	32852	32808	
2474	0	32796	32844	
2475	0	32842	32788	
2476	0	32722	32868	
2477	0	32808	32796	
2478	0	32756	32742	
2479	0	32740	32754	
2480	0	32848	32706	
2481	0	32778	32694	
2482	0	32808	32706	
2483	0	32764	32736	
2484	0	32836	32879	
2485	0	32788	32698	
2486	0	32906	32788	
2487	0	32896	32734	
2488	0	32840	32846	
2489	0	32788	32871	
2490	0	32798	32766	
2491	0	32840	32784	
2492	0	32774	32856	
2493	0	32784	32686	
2494	0	32816	32764	
2495	0	32812	32704	
2496	0	32792	32846	
2497	0	32820	32735	
2498	0	32808	32666	
2499	0	32832	32827	
2500	0	32832	32760	
2501	0	32824	32634	
2502	0	32834	32756	
2503	0	32746	32686	
2504	0	32823	32802	
2505	0	32840	32772	
2506	0	32816	32871	
2507	0	32852	32688	
2508	0	32788	32718	
2509	0	32788	32770	
2510	0	32862	32775	
2511	0	32732	32798	
2512	0	32812	32750	
2513	0	32808	32852	
2514	0	32792	32742	
2515	0	32848	32712	
2516	0	32828	32752	
2517	0	32764	32742	
2518	0	32800	32734	
2519	0	32804	32814	
2520	0	32840	32740	
2521	0	32864	32803	
2522	0	32792	32686	
2523	0	32832	32888	
2524	0	32782	32835	
2525	0	32816	32711	
2526	0	32824	32775	
2527	0	32726	32708	
2528	0	32758	32798	
2529	0	32748	32727	
2530	0	32870	32744	
2531	0	32834	32888	
2532	0	32804	32710	
2533	0	32816	32763	
2534	0	32856	32806	
2535	0	32826	32706	
2536	0	32784	32836	
2537	0	32846	32767	
2538	0	32788	32775	
2539	0	32816	32782	
2540	0	32800	32712	
2541	0	32828	32748	
2542	0	32784	32634	
2543	0	32744	32735	
2544	0	32832	32740	
2545	0	32896	32626	
2546	0	32892	32794	
2547	0	32832	32760	
2548	0	32740	32670	
2549	0	32668	32748	
2550	0	32704	32700	
2551	0	32752	32606	
2552	0	32830	32714	
2553	0	32672	32704	
2554	0	32800	32530	
2555	0	32776	32748	
2556	0	32728	32804	
2557	0	32788	32700	
2558	0	32764	32775	
2559	0	32824	32732	
2560	0	32792	32636	
2561	0	32758	32743	
2562	0	32832	32834	
2563	0	32866	32860	
2564	0	32900	32676	
2565	0	32800	32914	
2566	0	32870	32900	
2567	0	32932	32930	
2568	0	32792	33006	
2569	0	32930	32974	
2570	0	32938	32926	
2571	0	32870	32956	
2572	0	32976	32976	
2573	0	32912	32934	
2574	0	32866	32898	
2575	0	32872	32888	
2576	0	32892	32888	
2577	0	32854	32744	
2578	0	32904	32824	
2579	0	32804	32810	
2580	0	32908	32824	
2581	0	32888	32788	
2582	0	32864	32854	
2583	0	32770	32804	
2584	0	32778	32774	
2585	0	32776	32654	
2586	0	32804	32656	
2587	0	32732	32740	
2588	0	32684	32742	
2589	0	32778	32679	
2590	0	32728	32642	
2591	0	32848	32838	
2592	0	32778	32788	
2593	0	32764	32647	
2594	0	32714	32647	
2595	0	32814	32663	
2596	0	32756	32856	
2597	0	32748	32624	
2598	0	32788	32766	
2599	0	32884	32722	
2600	0	32812	32566	
2601	0	32820	32692	
2602	0	32784	32710	
2603	0	32812	32748	
2604	0	32836	32702	
2605	0	32814	32818	
2606	0	32770	32820	
2607	0	32748	32708	
2608	0	32724	32775	
2609	0	32832	32812	
2610	0	32766	32894	
2611	0	32816	32737	
2612	0	32748	32672	
2613	0	32772	32846	
2614	0	32810	32788	
2615	0	32772	32706	
2616	0	32886	32760	
2617	0	32746	32804	
2618	0	32816	32647	
2619	0	32848	32828	
2620	0	32816	32790	
2621	0	32844	32758	
2622	0	32746	32738	
2623	0	32816	32818	
2624	0	32792	32812	
2625	0	32828	32684	
2626	0	32808	32742	
2627	0	32848	32800	
2628	0	32794	32766	
2629	0	32792	32766	
2630	0	32810	32766	
2631	0	32824	32874	
2632	0	32802	32676	
2633	0	32878	32751	
2634	0	32790	32858	
2635	0	32808	32734	
2636	0	32814	32798	
2637	0	32816	32775	
2638	0	32816	32702	
2639	0	32802	32768	
2640	0	32868	32774	
2641	0	32832	32704	
2642	0	32844	32736	
2643	0	32808	32836	
2644	0	32856	32678	
2645	0	32848	32770	
2646	0	32856	32666	
2647	0	32838	32834	
2648	0	32814	32734	
2649	0	32838	32750	
2650	0	32844	32806	
2651	0	32792	32764	
2652	0	32808	32770	
2653	0	32722	32708	
2654	0	32804	32839	
2655	0	32808	32732	
2656	0	32760	32760	
2657	0	32798	32806	
2658	0	32832	32716	
2659	0	32824	32842	
2660	0	32752	32716	
2661	0	32890	32856	
2662	0	32842	32692	
2663	0	32752	32775	
2664	0	32838	32646	
2665	0	32862	32755	
2666	0	32852	32794	
2667	0	32756	32752	
2668	0	32788	32775	
2669	0	32892	32853	
2670	0	32800	32830	
2671	0	32752	32646	
2672	0	32812	32884	
2673	0	32828	32836	
2674	0	32848	32708	
2675	0	32812	32834	
2676	0	32800	32713	
2677	0	32812	32892	
2678	0	32828	32728	
2679	0	32838	32820	
2680	0	32826	32806	
2681	0	32822	32686	
2682	0	32836	32800	
2683	0	32776	32712	
2684	0	32864	32696	
2685	0	32786	32816	
2686	0	32876	32763	
2687	0	32801	32722	
2688	0	32838	32876	
2689	0	32862	32799	
2690	0	32696	32756	
2691	0	32798	32764	
2692	0	32810	32730	
2693	0	32834	32836	
2694	0	32816	32720	
2695	0	32770	32811	
2696	0	32760	32862	
2697	0	32798	32679	
2698	0	32820	32782	
2699	0	32840	32714	
2700	0	32840	32834	
2701	0	32808	32756	
2702	0	32820	32716	
2703	0	32824	32878	
2704	0	32796	32750	
2705	0	32832	32786	
2706	0	32814	32721	
2707	0	32780	32736	
2708	0	32828	32868	
2709	0	32792	32804	
2710	0	32860	32711	
2711	0	32828	32742	
2712	0	32768	32830	
2713	0	32742	32736	
2714	0	32836	32760	
2715	0	32868	32775	
2716	0	32832	32700	
2717	0	32832	32745	
2718	0	32852	32792	
2719	0	32800	32792	
2720	0	32768	32746	
2721	0	32824	32856	
2722	0	32878	32810	
2723	0	32864	32764	
2724	0	32836	32832	
2725	0	32762	32726	
2726	0	32736	32784	
2727	0	32808	32712	
2728	0	32800	32826	
2729	0	32804	32774	
2730	0	32850	32638	
2731	0	32792	32796	
2732	0	32816	32764	
2733	0	32788	32702	
2734	0	32804	32774	
2735	0	32784	32714	
2736	0	32802	32774	
2737	0	32840	32728	
2738	0	32792	32838	
2739	0	32794	32846	
2740	0	32852	32753	
2741	0	32778	32708	
2742	0	32784	32766	
2743	0	32808	32736	
2744	0	32774	32722	
2745	0	32838	32690	
2746	0	32846	32786	
2747	0	32754	32766	
2748	0	32806	32742	
2749	0	32728	32804	
2750	0	32791	32801	
2751	0	32784	32730	
2752	0	32848	32888	
2753	0	32832	32798	
2754	0	32818	32736	
2755	0	32821	32702	
2756	0	32752	32692	
2757	0	32800	32736	
2758	0	32804	32790	
2759	0	32804	32678	
2760	0	32808	32854	
2761	0	32816	32812	
2762	0	32826	32722	
2763	0	32860	32844	
2764	0	32832	32800	
2765	0	32780	32724	
2766	0	32876	32818	
2767	0	32840	32798	
2768	0	32812	32804	
2769	0	32808	32772	
2770	0	32796	32704	
2771	0	32836	32824	
2772	0	32852	32816	
2773	0	32864	32702	
2774	0	32816	32746	
2775	0	32838	32710	
2776	0	32808	32790	
2777	0	32844	32758	
2778	0	32744	32834	
2779	0	32762	32816	
2780	0	32858	32694	
2781	0	32792	32822	
2782	0	32748	32868	
2783	0	32802	32700	
2784	0	32798	32796	
2785	0	32849	32668	
2786	0	32816	32838	
2787	0	32796	32794	
2788	0	32764	32804	
2789	0	32772	32769	
2790	0	32812	32682	
2791	0	32828	32756	
2792	0	32820	32752	
2793	0	32850	32719	
2794	0	32736	32806	
2795	0	32840	32730	
2796	0	32862	32768	
2797	0	32860	32804	
2798	0	32816	32694	
2799	0	32798	32839	
2800	0	32864	32810	
2801	0	32852	32748	
2802	0	32852	32878	
2803	0	32868	32786	
2804	0	32776	32766	
2805	0	32792	32744	
2806	0	32846	32775	
2807	0	32822	32807	
2808	0	32894	32775	
2809	0	32800	32732	
2810	0	32828	32860	
2811	0	32768	32792	
2812	0	32808	32724	
2813	0	32836	32742	
2814	0	32774	32743	
2815	0	32744	32760	
2816	0	32772	32838	
2817	0	32836	32646	
2818	0	32864	32766	
2819	0	32840	32844	
2820	0	32872	32850	
2821	0	32798	32775	
2822	0	32808	32740	
2823	0	32758	32756	
2824	0	32808	32728	
2825	0	32776	32900	
2826	0	32860	32826	
2827	0	32758	32736	
2828	0	32840	32767	
2829	0	32752	32708	
2830	0	32684	32764	
2831	0	32732	32838	
2832	0	32782	32775	
2833	0	32842	32782	
2834	0	32884	32718	
2835	0	32844	32743	
2836	0	32830	32856	
2837	0	32842	32772	
2838	0	32854	32708	
2839	0	32904	32860	
2840	0	32904	32852	
2841	0	32868	32752	
2842	0	32868	32732	
2843	0	32856	32769	
2844	0	32810	32696	
2845	0	32732	32762	
2846	0	32776	32816	
2847	0	32756	32698	
2848	0	32764	32794	
2849	0	32744	32730	
2850	0	32766	32850	
2851	0	32732	32684	
2852	0	32766	32718	
2853	0	32764	32775	
2854	0	32810	32832	
2855	0	32868	32710	
2856	0	32804	32746	
2857	0	32858	32727	
2858	0	32840	32742	
2859	0	32794	32864	
2860	0	32806	32740	
2861	0	32852	32736	
2862	0	32828	32644	
2863	0	32872	32775	
2864	0	32838	32852	
2865	0	32864	32774	
2866	0	32881	32791	
2867	0	32806	32754	
2868	0	32792	32708	
2869	0	32868	32716	
2870	0	32748	32768	
2871	0	32860	32737	
2872	0	32760	32804	
2873	0	32776	32808	
2874	0	32800	32826	
2875	0	32820	32775	
2876	0	32824	32654	
2877	0	32750	32716	
2878	0	32836	32732	
2879	0	32784	32764	
2880	0	32804	32802	
2881	0	32828	32772	
2882	0	32796	32866	
2883	0	32792	32826	
2884	0	32820	32771	
2885	0	32828	32676	
2886	0	32830	32798	
2887	0	32768	32770	
2888	0	32796	32760	
2889	0	32768	32814	
2890	0	32784	32666	
2891	0	32816	32826	
2892	0	32810	32708	
2893	0	32868	32815	
2894	0	32872	32786	
2895	0	32848	32683	
2896	0	32988	32792	
2897	0	32836	32826	
2898	0	32792	32743	
2899	0	32832	32804	
2900	0	32802	32751	
2901	0	32801	32711	
2902	0	32928	32730	
2903	0	32906	32752	
2904	0	32858	32665	
2905	0	32840	32775	
2906	0	32852	32856	
2907	0	32808	32770	
2908	0	32780	32754	
2909	0	32698	32762	
2910	0	32716	32764	
2911	0	32738	32851	
2912	0	32732	32734	
2913	0	32640	32734	
2914	0	32672	32696	
2915	0	32654	32752	
2916	0	32692	32668	
2917	0	32714	32752	
2918	0	32748	32902	
2919	0	32856	32752	
2920	0	32932	32847	
2921	0	32816	32704	
2922	0	32840	32844	
2923	0	32868	32744	
2924	0	32855	32811	
2925	0	32912	32796	
2926	0	32882	32850	
2927	0	32800	32818	
2928	0	32896	32638	
2929	0	32852	32785	
2930	0	32778	32772	
2931	0	32832	32882	
2932	0	32794	32800	
2933	0	32894	32726	
2934	0	33048	32688	
2935	0	33296	32736	
2936	0	33144	32786	
2937	0	32952	32774	
2938	0	32764	32708	
2939	0	32608	32758	
2940	0	32480	32758	
2941	0	32410	32638	
2942	0	32490	32752	
2943	0	32476	32720	
2944	0	32566	32830	
2945	0	32672	32790	
2946	0	32676	32624	
2947	0	32806	32734	
2948	0	32772	32696	
2949	0	32908	32736	
2950	0	32912	32804	
2951	0	32996	32671	
2952	0	33090	32799	
2953	0	33006	32848	
2954	0	32936	32842	
2955	0	32914	32760	
2956	0	32820	32770	
2957	0	32798	32774	
2958	0	32782	32803	
2959	0	32740	32726	
2960	0	32712	32762	
2961	0	32708	32751	
2962	0	32846	32842	
2963	0	32788	32918	
2964	0	32820	32775	
2965	0	32924	32938	
2966	0	33016	32930	
2967	0	32932	32762	
2968	0	32816	32788	
2969	0	32624	32660	
2970	0	32632	32728	
2971	0	32672	32774	
2972	0	32570	32690	
2973	0	32668	32838	
2974	0	32740	32853	
2975	0	32724	32844	
2976	0	32832	32756	
2977	0	32952	32719	
2978	0	32928	32799	
2979	0	32912	32732	
2980	0	32910	32908	
2981	0	33072	32796	
2982	0	32888	32864	
2983	0	32826	32806	
2984	0	32828	32734	
2985	0	32816	32686	
2986	0	32744	32664	
2987	0	32592	32674	
2988	0	32644	32718	
2989	0	32718	32601	
2990	0	32566	32726	
2991	0	32528	32672	
2992	0	32536	32770	
2993	0	32592	32755	
2994	0	32636	32696	
2995	0	32586	32710	
2996	0	32618	32601	
2997	0	32772	32726	
2998	0	32964	32762	
2999	0	33032	32804	
3000	0	33132	32796	
3001	0	33242	32810	
3002	0	33372	32990	
3003	0	33484	32922	
3004	0	33432	32926	
3005	0	33398	33076	
3006	0	33388	32994	
3007	0	33428	32968	
3008	0	33246	32903	
3009	0	33114	32743	
3010	0	32996	32732	
3011	0	32818	32743	
3012	0	32804	32686	
3013	0	32740	32590	
3014	0	32802	32634	
3015	0	32704	32718	
3016	0	32570	32720	
3017	0	32505	32670	
3018	0	32542	32672	
3019	0	32504	32644	
3020	0	32518	32712	
3021	0	32412	32734	
3022	0	32394	32688	
3023	0	32500	32718	
3024	0	32544	32730	
3025	0	32544	32775	
3026	0	32498	32736	
3027	0	32506	32754	
3028	0	32512	32807	
3029	0	32716	32815	
3030	0	32900	32796	
3031	0	32904	32679	
3032	0	33124	32728	
3033	0	33080	32634	
3034	0	33316	32658	
3035	0	33336	32799	
3036	0	32954	32768	
3037	0	32664	32928	
3038	0	32632	32887	
3039	0	32616	32775	
3040	0	32248	32678	
3041	0	32388	32636	
3042	0	32534	32812	
3043	0	32494	32748	
3044	0	32432	32727	
3045	0	32628	32732	
3046	0	32868	32794	
3047	0	33094	32866	
3048	0	32946	32910	
3049	0	33020	32980	
3050	0	32924	32918	
3051	0	32932	32895	
3052	0	32954	32828	
3053	0	32952	32775	
3054	0	32948	32823	
3055	0	32840	32754	
3056	0	32618	32888	
3057	0	32560	32936	
3058	0	32516	32849	
3059	0	32874	32820	
3060	0	32948	32758	
3061	0	32880	32697	
3062	0	33024	32622	
3063	0	33246	32622	
3064	0	33212	32583	
3065	0	32868	32756	
3066	0	32930	32662	
3067	0	32948	32734	
3068	0	32988	32858	
3069	0	32888	32920	
3070	0	32892	32816	
3071	0	32846	32806	
3072	0	32688	32732	
3073	0	32604	32600	
3074	0	32336	32798	
3075	0	32424	32759	
3076	0	32632	32626	
3077	0	32696	32744	
3078	0	32604	32636	
3079	0	32706	32722	
3080	0	32714	32726	
3081	0	32774	32772	
3082	0	32780	32807	
3083	0	32832	32751	
3084	0	32848	32902	
3085	0	33032	32926	
3086	0	33044	32850	
3087	0	32864	32884	
3088	0	32872	32978	
3089	0	32888	32823	
3090	0	33048	32760	
3091	0	32928	32720	
3092	0	32748	32690	
3093	0	32804	32718	
3094	0	32804	32638	
3095	0	32668	32768	
3096	0	32976	32799	
3097	0	33042	32588	
3098	0	32876	32644	
3099	0	32908	32722	
3100	0	32900	32752	
3101	0	32750	32814	
3102	0	32745	32900	
3103	0	32720	32734	
3104	0	32668	32896	
3105	0	32692	32912	
3106	0	32748	32670	
3107	0	32716	32772	
3108	0	32692	32764	
3109	0	32808	32750	
3110	0	32772	32698	
3111	0	32764	32720	
3112	0	32812	32614	
3113	0	32878	32730	
3114	0	32844	32668	
3115	0	32816	32676	
3116	0	32934	32704	
3117	0	32856	32742	
3118	0	32892	32758	
3119	0	32880	32676	
3120	0	32900	32803	
3121	0	32876	32770	
3122	0	32804	32772	
3123	0	32808	32862	
3124	0	32794	32850	
3125	0	32700	32705	
3126	0	32938	32838	
3127	0	33016	32788	
3128	0	32826	32708	
3129	0	32842	32874	
3130	0	32756	32868	
3131	0	32864	32712	
3132	0	32822	32774	
3133	0	32820	32838	
3134	0	32854	32760	
3135	0	32628	32775	
3136	0	32800	32788	
3137	0	32816	32622	
3138	0	32720	32807	
3139	0	32736	32816	
3140	0	32732	32700	
3141	0	32689	32871	
3142	0	32770	32848	
3143	0	32822	32716	
3144	0	32804	32822	
3145	0	32852	32848	
3146	0	32848	32736	
3147	0	32784	32806	
3148	0	32708	32865	
3149	0	32838	32752	
3150	0	33000	32903	
3151	0	33048	32903	
3152	0	33036	32738	
3153	0	32896	32820	
3154	0	32710	32790	
3155	0	32730	32730	
3156	0	32708	32740	
3157	0	32888	32722	
3158	0	33140	32700	
3159	0	33096	32762	
3160	0	32740	32672	
3161	0	32628	32684	
3162	0	32722	32775	
3163	0	32965	32844	
3164	0	32746	32746	
3165	0	32904	32814	
3166	0	32796	32808	
3167	0	32625	32764	
3168	0	32644	32822	
3169	0	32746	32710	
3170	0	32624	32916	
3171	0	32705	32758	
3172	0	32972	32516	
3173	0	32992	32558	
3174	0	33104	32795	
3175	0	32798	32768	
3176	0	32640	32754	
3177	0	32528	32542	
3178	0	32612	32676	
3179	0	32564	32738	
3180	0	32512	32558	
3181	0	32532	32742	
3182	0	32524	32852	
3183	0	33038	32740	
3184	0	33030	32790	
3185	0	33058	33000	
3186	0	32680	33090	
3187	0	32775	33031	
3188	0	33172	32890	
3189	0	33152	32991	
3190	0	32928	32996	
3191	0	32764	32654	
3192	0	32708	32811	
3193	0	32688	32718	
3194	0	32488	32554	
3195	0	32504	32704	
3196	0	32500	32582	
3197	0	32664	32450	
3198	0	32692	32679	
3199	0	32896	32606	
3200	0	33342	32772	
3201	0	33196	32962	
3202	0	33008	33080	
3203	0	32910	33022	
3204	0	32964	32944	
3205	0	32874	32884	
3206	0	32952	32884	
3207	0	33176	32650	
3208	0	33032	32744	
3209	0	32950	32752	
3210	0	32660	32612	
3211	0	32644	32544	
3212	0	32614	32423	
3213	0	32698	32380	
3214	0	32768	32516	
3215	0	32576	32720	
3216	0	32524	32696	
3217	0	32500	32856	
3218	0	32662	32903	
3219	0	32822	32854	
3220	0	32942	32878	
3221	0	32844	32864	
3222	0	32688	32930	
3223	0	32772	32956	
3224	0	32852	32916	
3225	0	32864	32734	
3226	0	32814	32823	
3227	0	32956	32684	
3228	0	32984	32812	
3229	0	32870	32593	
3230	0	32872	32832	
3231	0	32820	32718	
3232	0	32746	32636	
3233	0	32774	32632	
3234	0	32932	32790	
3235	0	32988	32858	
3236	0	32814	32610	
3237	0	32960	32718	
3238	0	32925	32694	
3239	0	32872	32838	
3240	0	32952	32743	
3241	0	32824	32823	
3242	0	32704	32830	
3243	0	32746	32732	
3244	0	33056	32798	
3245	0	32868	32878	
3246	0	32790	32850	
3247	0	32816	32828	
3248	0	32732	32838	
3249	0	32724	32832	
3250	0	32548	32756	
3251	0	32748	32706	
3252	0	32636	32848	
3253	0	32702	32816	
3254	0	32536	32806	
3255	0	32416	32716	
3256	0	32500	32770	
3257	0	32604	32720	
3258	0	33024	32692	
3259	0	33028	32608	
3260	0	33216	32787	
3261	0	33202	32790	
3262	0	32986	32812	
3263	0	32948	32700	
3264	0	32984	32894	
3265	0	32852	33010	
3266	0	32786	33042	
3267	0	32928	33148	
3268	0	32684	32964	
3269	0	32484	32920	
3270	0	32480	32852	
3271	0	32684	32650	
3272	0	33144	32740	
3273	0	33364	32610	
3274	0	33284	32756	
3275	0	32960	32596	
3276	0	32488	32350	
3277	0	32296	32388	
3278	0	32516	32346	
3279	0	32404	32519	
3280	0	32560	32543	
3281	0	32428	32704	
3282	0	32522	32896	
3283	0	32596	32966	
3284	0	32650	32775	
3285	0	32737	32718	
3286	0	32932	32478	
3287	0	32930	32602	
3288	0	33060	32690	
3289	0	33012	32690	
3290	0	32848	32900	
3291	0	32826	32926	
3292	0	32954	33038	
3293	0	32758	33050	
3294	0	32692	32903	
3295	0	33180	32959	
3296	0	33422	32721	
3297	0	33442	32671	
3298	0	33080	32732	
3299	0	32936	32566	
3300	0	32446	32580	
3301	0	32160	32502	
3302	0	32266	32610	
3303	0	32270	32628	
3304	0	32402	32750	
3305	0	32508	32772	
3306	0	32992	32710	
3307	0	33112	32999	
3308	0	33538	33000	
3309	0	33338	32980	
3310	0	33100	32914	
3311	0	32900	32866	
3312	0	32734	32892	
3313	0	32666	32975	
3314	0	32440	32850	
3315	0	32296	32802	
3316	0	32546	32756	
3317	0	32716	32876	
3318	0	32788	32842	
3319	0	32784	32696	
3320	0	32824	32674	
3321	0	32880	32757	
3322	0	33172	32960	
3323	0	33280	32950	
3324	0	32952	32872	
3325	0	33008	32967	
3326	0	33200	32795	
3327	0	33426	32854	
3328	0	33154	32790	
3329	0	32514	32798	
3330	0	32304	32824	
3331	0	32672	32742	
3332	0	33500	32710	
3333	0	33408	32886	
3334	0	32798	32834	
3335	0	32834	32712	
3336	0	32984	32688	
3337	0	32762	32596	
3338	0	32712	32720	
3339	0	32132	32729	
3340	0	32012	32552	
3341	0	32172	32788	
3342	0	32353	32758	
3343	0	32464	32734	
3344	0	32416	32772	
3345	0	32542	32794	
3346	0	32746	32656	
3347	0	32808	32722	
3348	0	32772	32658	
3349	0	32766	32660	
3350	0	32826	32659	
3351	0	32952	32568	
3352	0	32896	32579	
3353	0	32976	32708	
3354	0	33290	32900	
3355	0	33252	32936	
3356	0	33205	32804	
3357	0	32912	32802	
3358	0	32856	32872	
3359	0	32572	32878	
3360	0	32542	32738	
3361	0	32988	32675	
3362	0	33464	32935	
3363	0	33484	32934	
3364	0	33808	32702	
3365	0	33408	32744	
3366	0	32870	32852	
3367	0	32318	32800	
3368	0	32514	32940	
3369	0	32212	32934	
3370	0	31992	32748	
3371	0	32040	32774	
3372	0	32006	32938	
3373	0	32256	32868	
3374	0	32452	32862	
3375	0	32516	32679	
3376	0	33032	32622	
3377	0	33288	32466	
3378	0	33564	32327	
3379	0	33600	32468	
3380	0	33246	32529	
3381	0	33128	32519	
3382	0	32786	32827	
3383	0	32468	32842	
3384	0	33064	32764	
3385	0	33244	32888	
3386	0	32746	32888	
3387	0	32332	32822	
3388	0	32032	33070	
3389	0	32308	32775	
3390	0	32812	32864	
3391	0	33432	32744	
3392	0	33088	32855	
3393	0	32428	32926	
3394	0	32736	32796	
3395	0	32882	32778	
3396	0	32600	32633	
3397	0	33172	32668	
3398	0	33046	32816	
3399	0	32476	32732	
3400	0	32076	32742	
3401	0	32118	32622	
3402	0	32485	32670	
3403	0	32652	32588	
3404	0	32600	32556	
3405	0	32852	32480	
3406	0	33248	32480	
3407	0	33564	32772	
3408	0	33444	32828	
3409	0	33198	32628	
3410	0	33068	32838	
3411	0	33184	32647	
3412	0	32724	32488	
3413	0	32656	32628	
3414	0	32891	32891	
3415	0	32552	33016	
3416	0	32388	32902	
3417	0	32647	32884	
3418	0	32632	33006	
3419	0	32916	33089	
3420	0	33258	33124	
3421	0	33300	33039	
3422	0	33338	33046	
3423	0	32874	32946	
3424	0	32754	32775	
3425	0	32888	32612	
3426	0	33132	32438	
3427	0	32524	32668	
3428	0	32268	32720	
3429	0	32708	32564	
3430	0	33696	32697	
3431	0	33788	32686	
3432	0	33494	32660	
3433	0	32702	32678	
3434	0	32352	32868	
3435	0	31569	32876	
3436	0	31656	32852	
3437	0	32216	32922	
3438	0	32448	32506	
3439	0	32152	32540	
3440	0	32052	32584	
3441	0	32512	32450	
3442	0	32786	32570	
3443	0	32970	32426	
3444	0	33120	32748	
3445	0	33646	33031	
3446	0	33432	32792	
3447	0	33368	32544	
3448	0	33100	32796	
3449	0	33328	32820	
3450	0	33196	32646	
3451	0	32820	32532	
3452	0	32888	32793	
3453	0	32664	32900	
3454	0	32552	32728	
3455	0	32536	32856	
3456	0	32532	32912	
3457	0	32760	32806	
3458	0	32524	33215	
3459	0	31606	33346	
3460	0	33226	33378	
3461	0	34758	33252	
3462	0	34234	33415	
3463	0	33450	33196	
3464	0	33232	32760	
3465	0	33000	32517	
3466	0	32572	32326	
3467	0	32218	32060	
3468	0	31552	32152	
3469	0	31248	32360	
3470	0	31454	32527	
3471	0	31540	32688	
3472	0	32048	32679	
3473	0	32484	32546	
3474	0	32698	32612	
3475	0	33252	32702	
3476	0	34200	32592	
3477	0	33928	32775	
3478	0	33468	32876	
3479	0	33136	32886	
3480	0	33406	32980	
3481	0	32986	33122	
3482	0	32272	33314	
3483	0	32074	33002	
3484	0	32724	33214	
3485	0	33314	33206	
3486	0	33248	32934	
3487	0	32970	32612	
3488	0	33020	32590	
3489	0	33472	32536	
3490	0	33566	32538	
3491	0	32592	32430	
3492	0	32068	32678	
3493	0	32106	32696	
3494	0	31528	32774	
3495	0	31920	32774	
3496	0	32310	32582	
3497	0	32916	32712	
3498	0	33223	32454	
3499	0	32900	32492	
3500	0	32760	32622	
3501	0	33760	32906	
3502	0	34240	32887	
3503	0	33676	32978	
3504	0	33572	33298	
3505	0	32516	33310	
3506	0	31832	33148	
3507	0	32560	33088	
3508	0	32046	32816	
3509	0	32344	32852	
3510	0	32470	32506	
3511	0	32152	32445	
3512	0	32264	32410	
3513	0	32402	32346	
3514	0	32454	32358	
3515	0	32216	32135	
3516	0	32504	32234	
3517	0	33160	32263	
3518	0	33408	32336	
3519	0	33576	32240	
3520	0	33664	32386	
3521	0	33360	32550	
3522	0	32948	32598	
3523	0	33116	32784	
3524	0	32952	32874	
3525	0	32610	32772	
3526	0	33200	32972	
3527	0	33628	33266	
3528	0	33838	33474	
3529	0	33192	33518	
3530	0	33504	33552	
3531	0	34136	33478	
3532	0	33172	33318	
3533	0	31820	32980	
3534	0	31476	32950	
3535	0	31216	32850	
3536	0	30944	32808	
3537	0	31296	32578	
3538	0	31324	32535	
3539	0	31402	32660	
3540	0	31796	32862	
3541	0	32424	32938	
3542	0	32814	32935	
3543	0	33200	33138	
3544	0	34696	33244	
3545	0	35804	33166	
3546	0	35352	33279	
3547	0	34936	33272	
3548	0	34120	33032	
3549	0	32992	32854	
3550	0	31610	32554	
3551	0	31096	32396	
3552	0	31412	31959	
3553	0	31766	31751	
3554	0	31420	31824	
3555	0	31914	31944	
3556	0	33568	32327	
3557	0	33420	32656	
3558	0	33824	32892	
3559	0	33708	32666	
3560	0	33882	32794	
3561	0	33196	33036	
3562	0	33156	32886	
3563	0	33072	32856	
3564	0	33128	32775	
3565	0	32532	32550	
3566	0	32192	32900	
3567	0	31670	32972	
3568	0	31482	32854	
3569	0	31496	33059	
3570	0	31764	33143	
3571	0	32668	32978	
3572	0	33492	33088	
3573	0	34042	33016	
3574	0	33764	32800	
3575	0	33160	32775	
3576	0	33896	32674	
3577	0	33180	32428	
3578	0	32088	32326	
3579	0	31924	32336	
3580	0	32154	32040	
3581	0	33054	32118	
3582	0	33282	32220	
3583	0	32964	32214	
3584	0	32768	32472	
3585	0	32682	32306	
3586	0	32960	32400	
3587	0	33142	32647	
3588	0	32908	32898	
3589	0	33712	33088	
3590	0	32960	33212	
3591	0	32104	33300	
3592	0	32294	33496	
3593	0	32740	33430	
3594	0	33240	33276	
3595	0	32738	33164	
3596	0	33060	33038	
3597	0	32648	32802	
3598	0	32540	32812	
3599	0	32132	32630	
3600	0	32070	32556	
3601	0	32720	32714	
3602	0	33212	32816	
3603	0	32804	32766	
3604	0	32928	32704	
3605	0	32854	32624	
3606	0	33066	32620	
3607	0	32588	32612	
3608	0	32272	32570	
3609	0	33164	32598	
3610	0	33048	32896	
3611	0	34004	32948	
3612	0	34792	32988	
3613	0	33624	32775	
3614	0	33632	32932	
3615	0	34396	32846	
3616	0	33876	32824	
3617	0	31812	32620	
3618	0	31390	32655	
3619	0	30572	32422	
3620	0	30498	32359	
3621	0	30864	32428	
3622	0	31782	32260	
3623	0	32298	32444	
3624	0	32438	32716	
3625	0	33364	32804	
3626	0	33156	32894	
3627	0	33270	32794	
3628	0	33096	32770	
3629	0	32708	32807	
3630	0	32618	32785	
3631	0	33306	32896	
3632	0	33148	32940	
3633	0	33348	33142	
3634	0	33324	33140	
3635	0	33710	33030	
3636	0	33672	32956	
3637	0	33556	32706	
3638	0	32689	32896	
3639	0	32196	32912	
3640	0	33298	32680	
3641	0	33210	32640	
3642	0	31840	32732	
3643	0	31992	32699	
3644	0	33056	32722	
3645	0	33122	32842	
3646	0	32320	32820	
3647	0	31896	32775	
3648	0	34152	32816	
3649	0	34260	32622	
3650	0	33092	32540	
3651	0	32672	32402	
3652	0	31976	32248	
3653	0	31648	32492	
3654	0	31300	32492	
3655	0	31832	32576	
3656	0	32394	32764	
3657	0	33024	32992	
3658	0	33346	33140	
3659	0	33380	33378	
3660	0	33152	33104	
3661	0	33816	33040	
3662	0	34314	32665	
3663	0	33512	32456	
3664	0	32872	32519	
3665	0	32480	32356	
3666	0	31806	32416	
3667	0	31952	32428	
3668	0	32418	32528	
3669	0	32242	32419	
3670	0	32390	32284	
3671	0	34204	32308	
3672	0	34012	32260	
3673	0	32960	32318	
3674	0	33144	32796	
3675	0	33640	32882	
3676	0	32988	33206	
3677	0	32340	33190	
3678	0	32334	32984	
3679	0	32068	32754	
3680	0	31704	32821	
3681	0	31822	32698	
3682	0	32208	32700	
3683	0	32538	32870	
3684	0	32728	32906	
3685	0	32904	32862	
3686	0	32900	32990	
3687	0	32760	32993	
3688	0	33298	32987	
3689	0	33430	33048	
3690	0	33792	33020	
3691	0	33692	33052	
3692	0	33345	33028	
3693	0	34512	33254	
3694	0	34804	33462	
3695	0	33224	33038	
3696	0	31669	32894	
3697	0	32096	32700	
3698	0	31748	32554	
3699	0	31084	32652	
3700	0	31156	32512	
3701	0	31750	32472	
3702	0	32010	32412	
3703	0	32588	32324	
3704	0	33566	32318	
3705	0	33374	32271	
3706	0	32972	32406	
3707	0	33012	32622	
3708	0	32800	32710	
3709	0	33004	32630	
3710	0	32874	32875	
3711	0	32750	33150	
3712	0	33586	32992	
3713	0	33744	33098	
3714	0	32564	32926	
3715	0	32768	32870	
3716	0	33556	32714	
3717	0	32212	32770	
3718	0	32032	32804	
3719	0	33694	32640	
3720	0	35504	32708	
3721	0	34062	32644	
3722	0	32456	32686	
3723	0	32036	32854	
3724	0	31128	32834	
3725	0	30856	32558	
3726	0	30682	32458	
3727	0	30550	32426	
3728	0	31664	32396	
3729	0	32374	32512	
3730	0	32956	32256	
3731	0	33224	32354	
3732	0	33782	32380	
3733	0	33904	32368	
3734	0	33372	32664	
3735	0	33946	32910	
3736	0	34556	33164	
3737	0	35348	33312	
3738	0	33876	33000	
3739	0	33232	32743	
3740	0	32554	32674	
3741	0	31278	32630	
3742	0	31204	32542	
3743	0	31974	32634	
3744	0	33312	32606	
3745	0	33224	32772	
3746	0	33386	32977	
3747	0	32732	33212	
3748	0	32806	33287	
3749	0	32572	33062	
3750	0	32232	32814	
3751	0	32086	32952	
3752	0	31852	32908	
3753	0	31996	32775	
3754	0	32540	33068	
3755	0	32802	32870	
3756	0	33476	32796	
3757	0	33576	33116	
3758	0	34108	33088	
3759	0	33124	32892	
3760	0	32916	32772	
3761	0	32816	32708	
3762	0	32888	32478	
3763	0	33232	32704	
3764	0	33374	32540	
3765	0	32312	32768	
3766	0	31984	32716	
3767	0	32304	32545	
3768	0	32352	32646	
3769	0	32384	32484	
3770	0	32576	32536	
3771	0	33144	32668	
3772	0	33268	32836	
3773	0	33140	33166	
3774	0	33132	33022	
3775	0	32864	32900	
3776	0	32836	33031	
3777	0	33190	32997	
3778	0	33358	32855	
3779	0	33996	32934	
3780	0	33068	32895	
3781	0	32904	32911	
3782	0	31804	32854	
3783	0	31932	32917	
3784	0	31260	32646	
3785	0	31416	32604	
3786	0	31886	32654	
3787	0	32668	32678	
3788	0	32940	32754	
3789	0	33268	32584	
3790	0	33446	32772	
3791	0	34202	32822	
3792	0	33632	32748	
3793	0	33418	32726	
3794	0	33512	32768	
3795	0	32446	32664	
3796	0	32740	32810	
3797	0	32572	32519	
3798	0	31856	32424	
3799	0	32284	32596	
3800	0	32256	32628	
3801	0	32896	32562	
3802	0	33444	32615	
3803	0	34008	32775	
3804	0	34336	32868	
3805	0	33412	32884	
3806	0	32136	32820	
3807	0	31098	32808	
3808	0	31172	32632	
3809	0	32180	32762	
3810	0	33236	32958	
3811	0	33204	33078	
3812	0	31628	33036	
3813	0	32126	33007	
3814	0	33072	33095	
3815	0	33188	32962	
3816	0	33564	32875	
3817	0	33548	33286	
3818	0	33380	33538	
3819	0	33348	33538	
3820	0	34188	33510	
3821	0	33918	33198	
3822	0	32964	32700	
3823	0	31014	32680	
3824	0	31280	32764	
3825	0	31668	32575	
3826	0	31978	32474	
3827	0	32420	32340	
3828	0	32524	32412	
3829	0	33040	32364	
3830	0	32772	32582	
3831	0	33140	32572	
3832	0	33636	32504	
3833	0	33822	32583	
3834	0	33422	32592	
3835	0	33388	32708	
3836	0	33356	32864	
3837	0	32932	32740	
3838	0	32396	32730	
3839	0	32708	32730	
3840	0	33004	32638	
3841	0	32998	32734	
3842	0	32614	32670	
3843	0	32452	32418	
3844	0	32568	32647	
3845	0	32522	32700	
3846	0	32514	32716	
3847	0	32560	33064	
3848	0	32236	33226	
3849	0	32532	32966	
3850	0	34028	32926	
3851	0	34762	32814	
3852	0	33096	32704	
3853	0	34352	32744	
3854	0	32982	32532	
3855	0	32136	32636	
3856	0	31484	32446	
3857	0	31366	32788	
3858	0	31798	33104	
3859	0	32526	32880	
3860	0	33064	32982	
3861	0	32904	32926	
3862	0	33040	32702	
3863	0	32980	32422	
3864	0	32324	32230	
3865	0	32352	32436	
3866	0	32310	32600	
3867	0	33062	32802	
3868	0	32596	33188	
3869	0	32216	33332	
3870	0	32564	33084	
3871	0	33308	33220	
3872	0	32884	32954	
3873	0	32864	32660	
3874	0	33736	32354	
3875	0	34478	32160	
3876	0	34468	32319	
3877	0	33308	32368	
3878	0	32718	32610	
3879	0	31928	32632	
3880	0	32042	32652	
3881	0	31504	32632	
3882	0	32236	32670	
3883	0	33580	32956	
3884	0	32988	32954	
3885	0	32984	32970	
3886	0	33102	33078	
3887	0	33296	33058	
3888	0	33544	32992	
3889	0	33828	32876	
3890	0	33036	32870	
3891	0	32640	32873	
3892	0	31384	32660	
3893	0	32024	32895	
3894	0	31356	32836	
3895	0	31840	33174	
3896	0	31808	33138	
3897	0	32066	33012	
3898	0	32500	33257	
3899	0	33004	33319	
3900	0	33730	33078	
3901	0	34044	32864	
3902	0	33254	32600	
3903	0	33128	32516	
3904	0	33158	32249	
3905	0	32524	32044	
3906	0	32410	32108	
3907	0	32748	32204	
3908	0	33040	32106	
3909	0	33944	32276	
3910	0	34080	32358	
3911	0	33066	32604	
3912	0	32882	32608	
3913	0	32814	32856	
3914	0	32816	33190	
3915	0	32976	33366	
3916	0	32548	33369	
3917	0	33598	33414	
3918	0	33496	33689	
3919	0	32452	33588	
3920	0	32414	33280	
3921	0	32000	32872	
3922	0	31952	32697	
3923	0	31864	32550	
3924	0	31858	32532	
3925	0	32132	32519	
3926	0	32176	32748	
3927	0	33212	32528	
3928	0	33640	32333	
3929	0	33230	32174	
3930	0	33344	32084	
3931	0	33244	31978	
3932	0	33540	32148	
3933	0	32528	32174	
3934	0	32206	32551	
3935	0	31552	32920	
3936	0	31960	33186	
3937	0	33896	33344	
3938	0	33588	33232	
3939	0	33224	33136	
3940	0	32516	32984	
3941	0	32112	32958	
3942	0	33010	32934	
3943	0	33736	33086	
3944	0	34208	33122	
3945	0	33536	32775	
3946	0	33248	32496	
3947	0	32534	32391	
3948	0	32260	32102	
3949	0	32510	31988	
3950	0	31720	32104	
3951	0	31748	32320	
3952	0	32388	32422	
3953	0	32544	32483	
3954	0	32332	32490	
3955	0	33124	32768	
3956	0	33704	32944	
3957	0	33114	32864	
3958	0	32346	32844	
3959	0	32632	32752	
3960	0	32718	32756	
3961	0	32676	32872	
3962	0	32794	33094	
3963	0	32608	33191	
3964	0	32528	33083	
3965	0	32872	33206	
3966	0	34184	33320	
3967	0	34154	33500	
3968	0	34224	33318	
3969	0	33622	33076	
3970	0	32112	32842	
3971	0	31602	32627	
3972	0	32384	32604	
3973	0	32434	32567	
3974	0	31172	32812	
3975	0	32588	32594	
3976	0	33042	32756	
3977	0	33090	32372	
3978	0	33352	32390	
3979	0	32596	32327	
3980	0	31878	32384	
3981	0	32524	32514	
3982	0	32440	32360	
3983	0	32398	32430	
3984	0	33173	32444	
3985	0	32576	32506	
3986	0	32848	32775	
3987	0	32832	32864	
3988	0	34728	32938	
3989	0	33440	33004	
3990	0	33614	33366	
3991	0	34388	33524	
3992	0	33100	33316	
3993	0	32458	33130	
3994	0	31820	32774	
3995	0	31528	32348	
3996	0	32980	32872	
3997	0	33464	32828	
3998	0	32042	32436	
3999	0	31220	32614	
4000	0	31476	32519	
4001	0	32426	32322	
4002	0	32756	32628	
4003	0	32396	32514	
4004	0	33094	32342	
4005	0	33600	32260	
4006	0	33310	32430	
4007	0	33476	32234	
4008	0	33508	32492	
4009	0	33392	32536	
4010	0	33018	32711	
4011	0	33044	32718	
4012	0	32289	32936	
4013	0	32692	32842	
4014	0	32920	32924	
4015	0	33056	32956	
4016	0	33276	33008	
4017	0	33066	33054	
4018	0	32680	32932	
4019	0	32688	32932	
4020	0	32414	33190	
4021	0	32436	33287	
4022	0	32652	32904	
4023	0	32482	32788	
4024	0	32512	32660	
4025	0	32548	32684	
4026	0	32784	32476	
4027	0	32960	32676	
4028	0	32848	32615	
4029	0	32832	32542	
4030	0	33102	32486	
4031	0	33400	32650	
4032	0	33328	32621	
4033	0	33708	32768	
4034	0	33408	33008	
4035	0	33016	33062	
4036	0	32304	33030	
4037	0	32142	33276	
4038	0	32060	33118	
4039	0	31952	33108	
4040	0	32288	32832	
4041	0	32816	32940	
4042	0	33136	32974	
4043	0	33118	32680	
4044	0	32988	32800	
4045	0	33016	32920	
4046	0	32908	32863	
4047	0	32440	32796	
4048	0	33476	32526	
4049	0	33440	32258	
4050	0	32548	32502	
4051	0	32648	32734	
4052	0	33400	32774	
4053	0	33804	32800	
4054	0	34092	32816	
4055	0	32964	32844	
4056	0	32852	33086	
4057	0	33592	32878	
4058	0	31526	32673	
4059	0	30666	33028	
4060	0	31308	33222	
4061	0	31454	33022	
4062	0	31760	32855	
4063	0	32120	32572	
4064	0	32298	32554	
4065	0	32784	32380	
4066	0	33504	32336	
4067	0	33476	32510	
4068	0	32708	31952	
4069	0	33396	31864	
4070	0	33984	32300	
4071	0	34420	32418	
4072	0	34492	33010	
4073	0	33436	33332	
4074	0	32868	33006	
4075	0	32328	32825	
4076	0	32092	32874	
4077	0	32040	32774	
4078	0	32276	33018	
4079	0	32074	32850	
4080	0	31982	32732	
4081	0	32472	32401	
4082	0	33216	32639	
4083	0	34478	32844	
4084	0	33804	33010	
4085	0	33168	32842	
4086	0	32488	32645	
4087	0	32680	32492	
4088	0	32518	32487	
4089	0	31976	32526	
4090	0	32394	32768	
4091	0	32326	33128	
4092	0	32428	32862	
4093	0	32132	32424	
4094	0	32536	32468	
4095	0	32954	32502	
4096	0	32826	32698	
4097	0	33072	33026	
4098	0	33346	33042	
4099	0	33140	33182	
4100	0	33084	32920	
4101	0	32888	33050	
4102	0	32964	32774	
4103	0	32854	32722	
4104	0	33036	32758	
4105	0	32996	32695	
4106	0	33058	32856	
4107	0	32966	32838	
4108	0	32870	32810	
4109	0	32890	32868	
4110	0	32852	32684	
4111	0	32868	32633	
4112	0	32848	32580	
4113	0	32764	32644	
4114	0	32830	32636	
4115	0	32756	32583	
4116	0	32668	32796	
4117	0	32916	32881	
4118	0	32938	33076	
4119	0	32996	33001	
4120	0	32892	32952	
4121	0	32518	32855	
4122	0	32940	32574	
4123	0	32802	32588	
4124	0	32768	32889	
4125	0	32642	32818	
4126	0	32424	32704	
4127	0	32628	32864	
4128	0	32712	33031	
4129	0	32436	32962	
4130	0	32804	33110	
4131	0	33042	32982	
4132	0	33118	32903	
4133	0	32134	32714	
4134	0	32738	32820	
4135	0	33176	32854	
4136	0	33416	32657	
4137	0	33176	32828	
4138	0	33128	32766	
4139	0	32716	32680	
4140	0	32360	32752	
4141	0	32432	32950	
4142	0	33144	32958	
4143	0	32980	32695	
4144	0	32124	32552	
4145	0	32336	32472	
4146	0	32564	32712	
4147	0	32168	32688	
4148	0	32400	32870	
4149	0	33020	32872	
4150	0	33068	32858	
4151	0	33712	32836	
4152	0	33944	32916	
4153	0	33196	32928	
4154	0	33010	32584	
4155	0	32576	32260	
4156	0	32160	32464	
4157	0	32136	32659	
4158	0	32298	32784	
4159	0	32328	32552	
4160	0	32620	32858	
4161	0	32736	32804	
4162	0	33032	32760	
4163	0	33174	32516	
4164	0	32968	32624	
4165	0	32021	32802	
4166	0	33184	33108	
4167	0	33916	32821	
4168	0	33872	33068	
4169	0	33310	33164	
4170	0	32608	33046	
4171	0	32292	32756	
4172	0	32704	33192	
4173	0	32584	33452	
4174	0	32594	33278	
4175	0	33046	32895	
4176	0	33492	32446	
4177	0	33024	31958	
4178	0	32782	31720	
4179	0	32300	31664	
4180	0	31852	31808	
4181	0	31556	32142	
4182	0	32450	32263	
4183	0	33164	32432	
4184	0	33384	32828	
4185	0	33188	32932	
4186	0	32936	32876	
4187	0	32676	32972	
4188	0	32664	33008	
4189	0	32640	33084	
4190	0	32716	33108	
4191	0	32954	33050	
4192	0	32890	33052	
4193	0	32760	33080	
4194	0	32902	32940	
4195	0	32944	32932	
4196	0	33010	32748	
4197	0	32932	32826	
4198	0	32938	32705	
4199	0	32960	32644	
4200	0	33016	32630	
4201	0	33008	32495	
4202	0	32998	32798	
4203	0	33096	32890	
4204	0	32712	32964	
4205	0	33124	33068	
4206	0	33120	32968	
4207	0	32936	32928	
4208	0	32788	32926	
4209	0	32196	32756	
4210	0	32188	32764	
4211	0	32252	32622	
4212	0	32576	32700	
4213	0	32682	32630	
4214	0	32756	32500	
4215	0	32814	32742	
4216	0	32904	32638	
4217	0	32852	32638	
4218	0	32904	32775	
4219	0	32794	32758	
4220	0	32876	32812	
4221	0	32852	32858	
4222	0	32849	32792	
4223	0	32870	32948	
4224	0	32816	32796	
4225	0	32872	32868	
4226	0	32596	32919	
4227	0	32632	32790	
4228	0	32916	32868	
4229	0	33076	33048	
4230	0	33726	33088	
4231	0	33424	33010	
4232	0	32764	33232	
4233	0	33212	32932	
4234	0	33124	32694	
4235	0	32218	32358	
4236	0	32256	32182	
4237	0	32668	32404	
4238	0	31936	32360	
4239	0	31796	32471	
4240	0	33096	32615	
4241	0	32804	32550	
4242	0	32836	32711	
4243	0	32780	32775	
4244	0	33068	32752	
4245	0	33094	32913	
4246	0	33058	32862	
4247	0	32976	32518	
4248	0	32744	32668	
4249	0	32666	32754	
4250	0	32530	32684	
4251	0	32392	32516	
4252	0	32952	32598	
4253	0	33044	32660	
4254	0	33114	32784	
4255	0	33316	33122	
4256	0	33258	33374	
4257	0	32512	33249	
4258	0	32304	33262	
4259	0	33968	33068	
4260	0	33788	33218	
4261	0	32820	32855	
4262	0	32212	32396	
4263	0	31728	32262	
4264	0	32190	32236	
4265	0	32128	32007	
4266	0	32068	32208	
4267	0	32772	32344	
4268	0	33126	32565	
4269	0	33018	32598	
4270	0	33082	32836	
4271	0	33060	32920	
4272	0	33244	32794	
4273	0	33032	33030	
4274	0	32892	33031	
4275	0	32854	32972	
4276	0	32956	33056	
4277	0	32986	33056	
4278	0	32880	32852	
4279	0	32778	32884	
4280	0	32821	32900	
4281	0	33000	32874	
4282	0	32640	32964	
4283	0	32806	33094	
4284	0	33324	33004	
4285	0	32844	32568	
4286	0	32696	32262	
4287	0	32806	32666	
4288	0	32800	32934	
4289	0	32788	32728	
4290	0	32772	32924	
4291	0	32608	32871	
4292	0	32636	32560	
4293	0	32728	32807	
4294	0	32984	32740	
4295	0	32830	32726	
4296	0	32880	32830	
4297	0	32912	32838	
4298	0	32756	32790	
4299	0	32840	32871	
4300	0	32846	32924	
4301	0	32732	32800	
4302	0	32770	32692	
4303	0	32892	32626	
4304	0	32824	32596	
4305	0	32808	32564	
4306	0	32884	32418	
4307	0	32904	32620	
4308	0	32902	32552	
4309	0	32736	32564	
4310	0	32748	32606	
4311	0	32684	32660	
4312	0	32824	32884	
4313	0	32908	32815	
4314	0	32920	32807	
4315	0	32814	32768	
4316	0	32664	32696	
4317	0	32744	32820	
4318	0	32626	32756	
4319	0	32592	32860	
4320	0	32744	32956	
4321	0	32752	32842	
4322	0	32730	32896	
4323	0	33024	32672	
4324	0	32792	32775	
4325	0	32884	32840	
4326	0	32802	33008	
4327	0	32666	32911	
4328	0	32804	33025	
4329	0	32880	33118	
4330	0	32920	32768	
4331	0	32492	32860	
4332	0	32730	32934	
4333	0	32910	32836	
4334	0	32412	32817	
4335	0	33092	32742	
4336	0	33446	32788	
4337	0	32812	32878	
4338	0	32742	32836	
4339	0	32621	32519	
4340	0	32466	32519	
4341	0	32552	32596	
4342	0	32732	32375	
4343	0	32752	32494	
4344	0	32826	32556	
4345	0	32810	32806	
4346	0	32814	32680	
4347	0	32776	32802	
4348	0	32924	32711	
4349	0	32900	32589	
4350	0	32876	32652	
4351	0	32800	32830	
4352	0	32972	32752	
4353	0	32664	32935	
4354	0	32724	32851	
4355	0	32732	32747	
4356	0	32774	32930	
4357	0	32890	33100	
4358	0	32692	32835	
4359	0	33220	32867	
4360	0	33336	32732	
4361	0	32782	32938	
4362	0	32978	32666	
4363	0	32860	32612	
4364	0	32784	32634	
4365	0	32775	32824	
4366	0	32896	32679	
4367	0	32812	32577	
4368	0	32472	32658	
4369	0	32510	32614	
4370	0	32580	32528	
4371	0	32636	32690	
4372	0	33156	32604	
4373	0	32840	32775	
4374	0	32748	32662	
4375	0	32678	32647	
4376	0	32764	32862	
4377	0	32900	32932	
4378	0	32964	32994	
4379	0	32844	33103	
4380	0	32754	33007	
4381	0	32760	32910	
4382	0	32972	32986	
4383	0	32926	32804	
4384	0	32764	32666	
4385	0	33080	32564	
4386	0	32900	32622	
4387	0	32952	32500	
4388	0	32900	32734	
4389	0	32992	32798	
4390	0	32804	32694	
4391	0	32720	32668	
4392	0	32494	32780	
4393	0	32656	32656	
4394	0	32638	32762	
4395	0	32676	32740	
4396	0	32800	32894	
4397	0	32700	32960	
4398	0	32944	32868	
4399	0	32924	33012	
4400	0	32748	32934	
4401	0	32872	32766	
4402	0	32900	32812	
4403	0	32764	32807	
4404	0	32772	32720	
4405	0	32736	32775	
4406	0	32772	32596	
4407	0	32828	32564	
4408	0	32868	32878	
4409	0	32864	32924	
4410	0	32862	32828	
4411	0	32868	32674	
4412	0	32870	32896	
4413	0	32910	32922	
4414	0	32810	32736	
4415	0	32816	32903	
4416	0	32684	32890	
4417	0	32728	32788	
4418	0	32775	32870	
4419	0	32856	32868	
4420	0	32848	32739	
4421	0	32792	32832	
4422	0	32826	32838	
4423	0	32822	32908	
4424	0	32926	32726	
4425	0	32780	32823	
4426	0	32728	32476	
4427	0	32696	32578	
4428	0	32616	32624	
4429	0	32684	32656	
4430	0	32892	32556	
4431	0	32780	32636	
4432	0	32692	32692	
4433	0	32696	32623	
4434	0	32704	32660	
4435	0	32736	32666	
4436	0	32908	32734	
4437	0	32992	32836	
4438	0	32928	32820	
4439	0	32912	32748	
4440	0	33016	32856	
4441	0	32900	33054	
4442	0	33148	32928	
4443	0	33068	32966	
4444	0	32856	32830	
4445	0	32648	32576	
4446	0	32680	32760	
4447	0	32628	32852	
4448	0	32884	32934	
4449	0	32814	32960	
4450	0	32892	33084	
4451	0	32770	32832	
4452	0	32764	32938	
4453	0	32756	32810	
4454	0	32720	32648	
4455	0	32752	32622	
4456	0	32612	32546	
4457	0	32668	32540	
4458	0	32892	32772	
4459	0	32960	32662	
4460	0	32900	32469	
4461	0	32956	32652	
4462	0	32792	32706	
4463	0	32788	32788	
4464	0	32956	32740	
4465	0	32968	32670	
4466	0	32820	32710	
4467	0	32884	32794	
4468	0	32848	32806	
4469	0	32728	32775	
4470	0	32740	32775	
4471	0	33054	32903	
4472	0	32965	32880	
4473	0	33012	33060	
4474	0	32730	32984	
4475	0	32790	32836	
4476	0	32664	32920	
4477	0	32652	33030	
4478	0	32748	32794	
4479	0	32508	32714	
4480	0	32288	32748	
4481	0	32606	32728	
4482	0	32710	32693	
4483	0	32680	32647	
4484	0	32752	32450	
4485	0	32904	32414	
4486	0	32924	32422	
4487	0	32908	32554	
4488	0	32868	32560	
4489	0	32952	32508	
4490	0	32952	32794	
4491	0	32936	32838	
4492	0	32938	32694	
4493	0	32820	32790	
4494	0	32856	32714	
4495	0	32882	32720	
4496	0	32888	32810	
4497	0	32914	32870	
4498	0	32914	32794	
4499	0	32684	32910	
4500	0	32768	32942	
4501	0	32830	32948	
4502	0	32836	32903	
4503	0	32824	32712	
4504	0	32812	32726	
4505	0	32740	32768	
4506	0	32880	32822	
4507	0	32916	32857	
4508	0	33124	32859	
4509	0	33020	33058	
4510	0	32638	32745	
4511	0	32648	32982	
4512	0	32690	32947	
4513	0	32628	32712	
4514	0	32788	32820	
4515	0	32710	32716	
4516	0	32834	32592	
4517	0	32772	32750	
4518	0	32770	32702	
4519	0	32732	32548	
4520	0	32906	32510	
4521	0	32808	32658	
4522	0	32784	32672	
4523	0	32897	32564	
4524	0	32944	32731	
4525	0	32876	32766	
4526	0	32840	32666	
4527	0	32880	32828	
4528	0	32832	32822	
4529	0	32880	32804	
4530	0	32774	32791	
4531	0	32684	32680	
4532	0	32896	32815	
4533	0	32904	32660	
4534	0	32865	32668	
4535	0	32716	32743	
4536	0	32696	32910	
4537	0	32668	32828	
4538	0	32908	32932	
4539	0	32844	32926	
4540	0	32764	32830	
4541	0	32762	32791	
4542	0	32800	32823	
4543	0	32768	32942	
4544	0	32742	32986	
4545	0	32812	32852	
4546	0	32808	32894	
4547	0	32856	32820	
4548	0	32816	32718	
4549	0	32808	32748	
4550	0	32800	32758	
4551	0	32828	32526	
4552	0	32900	32642	
4553	0	32775	32706	
4554	0	32772	32616	
4555	0	32664	32690	
4556	0	32834	32774	
4557	0	32904	32824	
4558	0	32816	32622	
4559	0	32860	32715	
4560	0	32672	32788	
4561	0	32852	32696	
4562	0	32926	32795	
4563	0	32814	32678	
4564	0	32722	32754	
4565	0	32792	32850	
4566	0	32822	32682	
4567	0	32938	32654	
4568	0	32904	32630	
4569	0	32980	32642	
4570	0	32800	32763	
4571	0	32734	32870	
4572	0	32616	32692	
4573	0	32660	32650	
4574	0	32584	32751	
4575	0	32828	32678	
4576	0	32976	32730	
4577	0	32832	32854	
4578	0	32740	32910	
4579	0	32704	32942	
4580	0	32720	32822	
4581	0	32776	32934	
4582	0	32876	32868	
4583	0	32822	32836	
4584	0	32824	32946	
4585	0	32736	32886	
4586	0	32860	32841	
4587	0	32792	32843	
4588	0	32800	32824	
4589	0	32832	32679	
4590	0	32896	32798	
4591	0	32768	32928	
4592	0	32750	32903	
4593	0	32852	32954	
4594	0	32856	32892	
4595	0	32860	32830	
4596	0	32880	32746	
4597	0	32816	32739	
4598	0	32832	32634	
4599	0	32788	32682	
4600	0	32704	32647	
4601	0	32864	32618	
4602	0	32900	32559	
4603	0	32894	32488	
4604	0	32796	32528	
4605	0	32704	32686	
4606	0	32756	32570	
4607	0	32784	32668	
4608	0	32756	32642	
4609	0	32808	32666	
4610	0	32852	32746	
4611	0	32864	32742	
4612	0	32900	32756	
4613	0	32728	33000	
4614	0	32756	32750	
4615	0	32894	32802	
4616	0	32764	32806	
4617	0	32700	32808	
4618	0	32704	32980	
4619	0	32818	32942	
4620	0	32882	32786	
4621	0	32770	32519	
4622	0	32984	32684	
4623	0	32844	32606	
4624	0	32922	32574	
4625	0	32898	32807	
4626	0	32806	32903	
4627	0	32782	32746	
4628	0	32816	32734	
4629	0	32782	32647	
4630	0	32700	32916	
4631	0	32800	33000	
4632	0	32789	32898	
4633	0	32756	32836	
4634	0	32848	32836	
4635	0	32760	32826	
4636	0	32900	32900	
4637	0	32812	33071	
4638	0	32876	32906	
4639	0	32774	32534	
4640	0	32742	32678	
4641	0	32736	32738	
4642	0	32696	32654	
4643	0	32602	32746	
4644	0	32682	32656	
4645	0	32768	32732	
4646	0	32796	32907	
4647	0	32788	32832	
4648	0	32924	32910	
4649	0	33006	32756	
4650	0	32950	32674	
4651	0	32888	32650	
4652	0	33188	32722	
4653	0	32840	32618	
4654	0	32824	32720	
4655	0	32760	32794	
4656	0	32756	32860	
4657	0	32780	32890	
4658	0	32720	32926	
4659	0	32700	32842	
4660	0	32628	32647	
4661	0	32606	32928	
4662	0	32712	33048	
4663	0	32756	32898	
4664	0	32800	32826	
4665	0	32884	32733	
4666	0	32932	32531	
4667	0	32808	32570	
4668	0	33028	32654	
4669	0	32912	32617	
4670	0	32884	32766	
4671	0	32940	32807	
4672	0	32856	32596	
4673	0	32804	32612	
4674	0	32862	32820	
4675	0	32940	32850	
4676	0	32860	32858	
4677	0	32980	32903	
4678	0	32932	32775	
4679	0	32820	32886	
4680	0	32836	32636	
4681	0	32780	32500	
4682	0	32796	32630	
4683	0	32748	32800	
4684	0	32786	32704	
4685	0	32864	32759	
4686	0	32920	32798	
4687	0	32888	32711	
4688	0	32774	32654	
4689	0	32756	32551	
4690	0	32798	32660	
4691	0	32868	32838	
4692	0	32908	32820	
4693	0	32796	32932	
4694	0	32780	32902	
4695	0	32842	32840	
4696	0	32886	32758	
4697	0	32774	32914	
4698	0	32748	32819	
4699	0	32790	32870	
4700	0	32720	32815	
4701	0	32792	32730	
4702	0	32878	32807	
4703	0	32820	32802	
4704	0	32808	32752	
4705	0	32874	32518	
4706	0	32914	32630	
4707	0	32848	32652	
4708	0	32874	32878	
4709	0	32820	32880	
4710	0	32806	32725	
4711	0	32792	32828	
4712	0	32736	32815	
4713	0	32764	32935	
4714	0	32734	32828	
4715	0	32870	32762	
4716	0	32948	32860	
4717	0	32798	32860	
4718	0	32860	32802	
4719	0	32964	32572	
4720	0	32798	32662	
4721	0	32720	32855	
4722	0	32812	32704	
4723	0	32782	32672	
4724	0	32736	32572	
4725	0	32677	32692	
4726	0	32628	32697	
4727	0	32840	32788	
4728	0	32748	32738	
4729	0	32732	32818	
4730	0	32780	33008	
4731	0	32800	32964	
4732	0	32732	32878	
4733	0	32710	32967	
4734	0	32732	32935	
4735	0	33173	32775	
4736	0	33090	32818	
4737	0	32836	32720	
4738	0	32748	32823	
4739	0	32676	32775	
4740	0	32836	32644	
4741	0	32812	32711	
4742	0	32832	32567	
4743	0	32730	32528	
4744	0	32824	32536	
4745	0	32730	32456	
4746	0	32712	32414	
4747	0	32740	32544	
4748	0	32812	32502	
4749	0	32820	32430	
4750	0	32736	32770	
4751	0	32764	32622	
4752	0	32823	32656	
4753	0	32748	32767	
4754	0	32758	32730	
4755	0	32788	32658	
4756	0	32920	32880	
4757	0	32824	32762	
4758	0	32820	32886	
4759	0	32838	32773	
4760	0	32926	32743	
4761	0	32798	32814	
4762	0	32878	32888	
4763	0	32898	32982	
4764	0	32976	32876	
4765	0	32904	32807	
4766	0	32908	32874	
4767	0	32896	32926	
4768	0	32914	32710	
4769	0	32924	32874	
4770	0	32970	32960	
4771	0	33108	32976	
4772	0	33172	33106	
4773	0	33092	33031	
4774	0	33000	33014	
4775	0	32980	32932	
4776	0	32952	32808	
4777	0	32912	32938	
4778	0	32960	32766	
4779	0	32932	32716	
4780	0	32956	32775	
4781	0	32864	32836	
4782	0	32852	32839	
4783	0	32782	32826	
4784	0	32828	32756	
4785	0	32780	32678	
4786	0	32756	32622	
4787	0	32736	32623	
4788	0	32724	32529	
4789	0	32704	32704	
4790	0	32754	32622	
4791	0	32804	32736	
4792	0	32996	32714	
4793	0	32932	32708	
4794	0	32748	32759	
4795	0	32940	32618	
4796	0	32864	32647	
4797	0	32856	32638	
4798	0	32676	32900	
4799	0	32728	32932	
4800	0	32908	32800	
4801	0	33002	32840	
4802	0	32872	32839	
4803	0	32832	32796	
4804	0	32868	32614	
4805	0	32828	32700	
4806	0	32774	32602	
4807	0	32720	32566	
4808	0	32788	32754	
4809	0	32768	32646	
4810	0	32612	32814	
4811	0	32690	32736	
4812	0	32752	32758	
4813	0	32806	32930	
4814	0	32876	32884	
4815	0	32804	32959	
4816	0	32886	32744	
4817	0	32740	32664	
4818	0	32772	32690	
4819	0	32796	32838	
4820	0	32736	32946	
4821	0	32680	32856	
4822	0	32646	32886	
4823	0	32532	32807	
4824	0	32656	32775	
4825	0	32728	32800	
4826	0	32572	32644	
4827	0	32678	32719	
4828	0	32776	32775	
4829	0	32696	32773	
4830	0	32752	32646	
4831	0	32824	32742	
4832	0	32840	32775	
4833	0	32862	32680	
4834	0	32680	32728	
4835	0	32768	32775	
4836	0	32780	32920	
4837	0	32708	32854	
4838	0	32682	32896	
4839	0	32798	32638	
4840	0	32736	32864	
4841	0	32836	32806	
4842	0	32816	32838	
4843	0	32756	32910	
4844	0	32768	32708	
4845	0	32725	32606	
4846	0	32716	32640	
4847	0	32802	32814	
4848	0	32832	32871	
4849	0	32744	32810	
4850	0	32788	32786	
4851	0	32724	32660	
4852	0	32724	32694	
4853	0	32848	32804	
4854	0	32830	32808	
4855	0	32890	32724	
4856	0	32932	32696	
4857	0	32926	32646	
4858	0	32790	32670	
4859	0	32846	32854	
4860	0	32928	32858	
4861	0	32900	32820	
4862	0	32752	32856	
4863	0	32780	32902	
4864	0	32758	32679	
4865	0	32802	32574	
4866	0	32966	32732	
4867	0	32744	32688	
4868	0	32804	32588	
4869	0	32720	32822	
4870	0	32854	32868	
4871	0	32894	32946	
4872	0	32888	32823	
4873	0	33050	32534	
4874	0	32846	32625	
4875	0	32776	32860	
4876	0	32816	32750	
4877	0	32718	32722	
4878	0	32666	32790	
4879	0	32772	32770	
4880	0	32738	32698	
4881	0	32718	32734	
4882	0	32756	32769	
4883	0	32906	32689	
4884	0	33044	32732	
4885	0	32956	32631	
4886	0	32964	32705	
4887	0	32924	32743	
4888	0	32828	32734	
4889	0	32916	32750	
4890	0	32910	32871	
4891	0	32804	32846	
4892	0	32790	32775	
4893	0	32718	32786	
4894	0	32728	32667	
4895	0	32740	32768	
4896	0	32672	32760	
4897	0	32768	32659	
4898	0	32836	32775	
4899	0	32880	32830	
4900	0	32876	32742	
4901	0	32950	32724	
4902	0	32900	32852	
4903	0	32880	32775	
4904	0	32804	32674	
4905	0	32694	32590	
4906	0	32836	32852	
4907	0	32824	32688	
4908	0	33049	32612	
4909	0	32804	32802	
4910	0	32792	32646	
4911	0	32592	32548	
4912	0	32650	32737	
4913	0	32536	32838	
4914	0	32676	32710	
4915	0	32828	32826	
4916	0	32794	32832	
4917	0	32734	32820	
4918	0	32868	32806	
4919	0	32834	32869	
4920	0	32824	32847	
4921	0	32870	32880	
4922	0	32848	32956	
4923	0	32778	32775	
4924	0	32766	32802	
4925	0	32706	32806	
4926	0	32852	32760	
4927	0	32664	32743	
4928	0	32722	32808	
4929	0	32800	32818	
4930	0	32858	32810	
4931	0	32872	32792	
4932	0	32800	32919	
4933	0	32930	32858	
4934	0	32868	32786	
4935	0	32880	32710	
4936	0	32928	32711	
4937	0	32858	32591	
4938	0	32796	32660	
4939	0	32756	32668	
4940	0	32864	32846	
4941	0	32990	32712	
4942	0	33012	32748	
4943	0	33024	32850	
4944	0	33024	32839	
4945	0	32786	32689	
4946	0	32796	32882	
4947	0	32874	32844	
4948	0	33028	32860	
4949	0	32886	32814	
4950	0	32808	32742	
4951	0	32770	32764	
4952	0	32760	32716	
4953	0	32760	32788	
4954	0	32788	32910	
4955	0	32812	32733	
4956	0	32720	32817	
4957	0	32693	32836	
4958	0	32748	32646	
4959	0	32790	32800	
4960	0	32820	32830	
4961	0	32880	32711	
4962	0	32736	32828	
4963	0	32780	32880	
4964	0	32694	32696	
4965	0	32744	32804	
4966	0	32764	32774	
4967	0	32806	32710	
4968	0	32766	32775	
4969	0	32728	32784	
4970	0	32728	32636	
4971	0	32846	32686	
4972	0	32782	32814	
4973	0	32852	32708	
4974	0	32816	32726	
4975	0	32822	32775	
4976	0	32728	32866	
4977	0	32834	32882	
4978	0	32772	32764	
4979	0	32738	33020	
4980	0	32750	32886	
4981	0	32732	32636	
4982	0	32896	32596	
4983	0	32824	32680	
4984	0	32810	32838	
4985	0	32810	32716	
4986	0	32816	32719	
4987	0	32788	32816	
4988	0	32756	32926	
4989	0	32714	32726	
4990	0	32712	32876	
4991	0	32740	32900	
4992	0	32744	32786	
4993	0	32876	32890	
4994	0	32876	32954	
4995	0	32698	32774	
4996	0	32836	32760	
4997	0	32832	32768	
4998	0	32788	32898	
4999	0	32700	32834	
5000	0	32740	32674	
5001	0	32752	32666	
5002	0	32880	32642	
5003	0	32832	32722	
5004	0	32932	32644	
5005	0	32924	32702	
5006	0	32939	32758	
5007	0	32900	32734	
5008	0	32848	32788	
5009	0	32924	32748	
5010	0	32930	32810	
5011	0	32932	32712	
5012	0	32842	32817	
5013	0	32908	32775	
5014	0	32896	32860	
5015	0	32772	32932	
5016	0	32740	32711	
5017	0	32740	32764	
5018	0	32752	32728	
5019	0	32760	32876	
5020	0	32772	32868	
5021	0	32754	32771	
5022	0	32746	32815	
5023	0	32748	32744	
5024	0	32828	32754	
5025	0	32874	32726	
5026	0	32746	32734	
5027	0	32828	32614	
5028	0	32818	32758	
5029	0	32776	32913	
5030	0	32842	32764	
5031	0	32876	32752	
5032	0	32944	32814	
5033	0	32912	32831	
5034	0	32900	32820	
5035	0	32780	32756	
5036	0	32764	32767	
5037	0	32684	32740	
5038	0	32716	32860	
5039	0	32740	32794	
5040	0	32808	32708	
5041	0	32694	32754	
5042	0	32760	32748	
5043	0	32658	32792	
5044	0	32648	32714	
5045	0	32684	32775	
5046	0	32766	32802	
5047	0	32756	32668	
5048	0	32814	32814	
5049	0	32804	32903	
5050	0	32794	32788	
5051	0	32824	32836	
5052	0	32746	32717	
5053	0	32864	32852	
5054	0	32868	32922	
5055	0	32838	32736	
5056	0	32844	32775	
5057	0	32894	32655	
5058	0	32844	32822	
5059	0	32876	32652	
5060	0	32790	32730	
5061	0	32778	32838	
5062	0	32860	32682	
5063	0	32849	32708	
5064	0	32890	32630	
5065	0	32900	32820	
5066	0	32708	32838	
5067	0	32692	32916	
5068	0	32786	32761	
5069	0	32778	32768	
5070	0	32748	32807	
5071	0	32800	32746	
5072	0	32736	32758	
5073	0	32832	32856	
5074	0	32760	32763	
5075	0	32828	32718	
5076	0	32872	32676	
5077	0	32844	32734	
5078	0	32836	32700	
5079	0	32820	32844	
5080	0	32864	32674	
5081	0	32785	32768	
5082	0	32772	32676	
5083	0	32786	32672	
5084	0	32840	32740	
5085	0	32846	32769	
5086	0	32802	32679	
5087	0	32840	32754	
5088	0	32816	32712	
5089	0	32838	32670	
5090	0	32744	32766	
5091	0	32804	32711	
5092	0	32804	32614	
5093	0	32716	32808	
5094	0	32834	32834	
5095	0	32780	32740	
5096	0	32810	32817	
5097	0	32836	32680	
5098	0	32920	32791	
5099	0	32812	32800	
5100	0	32880	32734	
5101	0	32880	32839	
5102	0	32840	32775	
5103	0	32936	32626	
5104	0	32824	32836	
5105	0	32804	32802	
5106	0	32892	32630	
5107	0	32948	32788	
5108	0	32808	32704	
5109	0	32852	32830	
5110	0	32928	32846	
5111	0	32792	32734	
5112	0	32696	32823	
5113	0	32664	32670	
5114	0	32672	32768	
5115	0	32706	32839	
5116	0	32688	32679	
5117	0	32706	32775	
5118	0	32748	32604	
5119	0	32776	32788	
5120	0	32800	32834	
5121	0	32784	32716	
5122	0	32916	32839	
5123	0	32860	32817	
5124	0	32890	32710	
5125	0	32868	32738	
5126	0	32855	32847	
5127	0	32844	32746	
5128	0	32894	32736	
5129	0	32790	32708	
5130	0	32904	32826	
5131	0	32858	32819	
5132	0	32784	32716	
5133	0	32775	32759	
5134	0	32808	32816	
5135	0	32824	32775	
5136	0	32896	32644	
5137	0	32864	32746	
5138	0	32848	32816	
5139	0	32760	32758	
5140	0	32774	32774	
5141	0	32810	32675	
5142	0	32800	32692	
5143	0	32800	32817	
5144	0	32808	32804	
5145	0	32860	32652	
5146	0	32800	32744	
5147	0	32832	32814	
5148	0	32810	32702	
5149	0	32792	32810	
5150	0	32752	32898	
5151	0	32752	32786	
5152	0	32772	32850	
5153	0	32868	32800	
5154	0	32850	32884	
5155	0	32786	32836	
5156	0	32788	32738	
5157	0	32748	32775	
5158	0	32676	32663	
5159	0	32874	32655	
5160	0	32724	32696	
5161	0	32736	32774	
5162	0	32784	32714	
5163	0	32808	32742	
5164	0	32872	32671	
5165	0	32940	32766	
5166	0	32868	32770	
5167	0	32864	32748	
5168	0	32756	32740	
5169	0	32832	32743	
5170	0	32804	32862	
5171	0	32820	32758	
5172	0	32816	32812	
5173	0	32884	32747	
5174	0	32884	32768	
5175	0	32824	32673	
5176	0	32810	32742	
5177	0	32856	32902	
5178	0	32844	32807	
5179	0	32868	32800	
5180	0	32836	32804	
5181	0	32824	32736	
5182	0	32836	32756	
5183	0	32768	32726	
5184	0	32912	32740	
5185	0	32816	32775	
5186	0	32804	32668	
5187	0	32764	32847	
5188	0	32814	32827	
5189	0	32858	32884	
5190	0	32834	32952	
5191	0	32840	32736	
5192	0	32817	32536	
5193	0	32800	32647	
5194	0	32828	32767	
5195	0	32736	32697	
5196	0	32748	32837	
5197	0	32806	32762	
5198	0	32778	32743	
5199	0	32708	32746	
5200	0	32730	32750	
5201	0	32778	32716	
5202	0	32800	32660	
5203	0	32846	32734	
5204	0	32852	32674	
5205	0	32840	32880	
5206	0	32882	32775	
5207	0	32820	32684	
5208	0	32778	32740	
5209	0	32836	32818	
5210	0	32876	32690	
5211	0	32864	32770	
5212	0	32802	32795	
5213	0	32736	32726	
5214	0	32794	32812	
5215	0	32732	32816	
5216	0	32854	32734	
5217	0	32804	32865	
5218	0	32738	32760	
5219	0	32800	32711	
5220	0	32888	32800	
5221	0	32940	32844	
5222	0	32764	32756	
5223	0	32740	32752	
5224	0	32708	32695	
5225	0	32775	32775	
5226	0	32780	32736	
5227	0	32696	32636	
5228	0	32816	32807	
5229	0	32740	32734	
5230	0	32744	32821	
5231	0	32708	32750	
5232	0	32732	32718	
5233	0	32736	32849	
5234	0	32782	32734	
5235	0	32772	32782	
5236	0	32824	32807	
5237	0	32788	32820	
5238	0	32830	32897	
5239	0	32820	32756	
5240	0	32898	32727	
5241	0	32848	32694	
5242	0	32834	32718	
5243	0	32772	32766	
5244	0	32776	32732	
5245	0	32732	32760	
5246	0	32748	32658	
5247	0	32820	32814	
5248	0	32874	32775	
5249	0	32826	32716	
5250	0	32730	32788	
5251	0	32808	32772	
5252	0	32812	32826	
5253	0	32804	32839	
5254	0	32762	32708	
5255	0	32700	32879	
5256	0	32744	32850	
5257	0	32846	32806	
5258	0	32896	32769	
5259	0	32840	32684	
5260	0	32888	32812	
5261	0	32828	32775	
5262	0	32812	32689	
5263	0	32860	32724	
5264	0	32884	32575	
5265	0	32903	32847	
5266	0	32872	32742	
5267	0	32796	32686	
5268	0	32870	32824	
5269	0	32902	32812	
5270	0	32848	32748	
5271	0	32822	32806	
5272	0	32734	32703	
5273	0	32794	32768	
5274	0	32804	32775	
5275	0	32774	32680	
5276	0	32798	32775	
5277	0	32854	32791	
5278	0	32928	32678	
5279	0	32892	32736	
5280	0	32880	32689	
5281	0	32896	32766	
5282	0	32976	32806	
5283	0	32880	32792	
5284	0	32822	32814	
5285	0	32802	32704	
5286	0	32788	32816	
5287	0	32800	32840	
5288	0	32790	32858	
5289	0	32876	32814	
5290	0	32796	32775	
5291	0	32876	32891	
5292	0	32936	32902	
5293	0	32948	32766	
5294	0	32882	32760	
5295	0	32794	32636	
5296	0	32729	32775	
5297	0	32784	32724	
5298	0	32800	32823	
5299	0	32796	32679	
5300	0	32788	32775	
5301	0	32742	32732	
5302	0	32752	32624	
5303	0	32752	32708	
5304	0	32716	32704	
5305	0	32832	32804	
5306	0	32872	32800	
5307	0	32778	32742	
5308	0	32820	32742	
5309	0	32926	32760	
5310	0	32852	32895	
5311	0	32746	32844	
5312	0	32808	32770	
5313	0	32822	32752	
5314	0	32744	32702	
5315	0	32826	32879	
5316	0	32856	32936	
5317	0	32860	32758	
5318	0	32812	32704	
5319	0	32812	32729	
5320	0	32796	32759	
5321	0	32828	32682	
5322	0	32838	32647	
5323	0	32836	32734	
5324	0	32864	32766	
5325	0	32812	32634	
5326	0	32768	32766	
5327	0	32800	32692	
5328	0	32750	32871	
5329	0	32824	32720	
5330	0	32796	32852	
5331	0	32728	32759	
5332	0	32922	32756	
5333	0	32808	32775	
5334	0	32814	32822	
5335	0	32860	32802	
5336	0	32840	32718	
5337	0	32776	32740	
5338	0	32784	32792	
5339	0	32792	32791	
5340	0	32860	32686	
5341	0	32725	32758	
5342	0	32752	32775	
5343	0	32768	32746	
5344	0	32752	32753	
5345	0	32804	32623	
5346	0	32844	32808	
5347	0	32864	32710	
5348	0	32902	32708	
5349	0	32920	32826	
5350	0	32896	32814	
5351	0	32856	32712	
5352	0	32844	32934	
5353	0	32786	32775	
5354	0	32780	32738	
5355	0	32820	32784	
5356	0	32726	32828	
5357	0	32792	32710	
5358	0	32836	32858	
5359	0	32752	32820	
5360	0	32792	32724	
5361	0	32892	32768	
5362	0	32848	32810	
5363	0	32808	32775	
5364	0	32776	32772	
5365	0	32852	32636	
5366	0	32764	32775	
5367	0	32836	32798	
5368	0	32848	32775	
5369	0	32764	32743	
5370	0	32760	32679	
5371	0	32802	32698	
5372	0	32808	32775	
5373	0	32800	32714	
5374	0	32824	32758	
5375	0	32808	32816	
5376	0	32870	32762	
5377	0	32844	32794	
5378	0	32772	32806	
5379	0	32788	32578	
5380	0	32808	32801	
5381	0	32742	32721	
5382	0	32736	32808	
5383	0	32808	32726	
5384	0	32864	32711	
5385	0	32778	32750	
5386	0	32788	32732	
5387	0	32784	32720	
5388	0	32700	32824	
5389	0	32836	32722	
5390	0	32876	32798	
5391	0	32824	32802	
5392	0	32828	32732	
5393	0	32828	32850	
5394	0	32848	32775	
5395	0	32828	32724	
5396	0	32860	32846	
5397	0	32820	32794	
5398	0	32780	32679	
5399	0	32700	32740	
5400	0	32744	32723	
5401	0	32880	32852	
5402	0	32836	32710	
5403	0	32786	32724	
5404	0	32878	32807	
5405	0	32830	32675	
5406	0	32740	32644	
5407	0	32604	32806	
5408	0	32620	32740	
5409	0	32666	32775	
5410	0	32718	32756	
5411	0	32872	32768	
5412	0	32868	32696	
5413	0	32756	32798	
5414	0	32812	32781	
5415	0	33012	32736	
5416	0	32868	32782	
5417	0	32836	32810	
5418	0	32880	32807	
5419	0	32756	32912	
5420	0	32702	32732	
5421	0	32788	32796	
5422	0	32782	32832	
5423	0	32764	32679	
5424	0	32740	32784	
5425	0	32784	32726	
5426	0	32824	32644	
5427	0	32808	32664	
5428	0	32768	32692	
5429	0	32906	32656	
5430	0	32828	32692	
5431	0	32770	32758	
5432	0	32814	32672	
5433	0	32824	32743	
5434	0	32826	32614	
5435	0	32842	32584	
5436	0	32808	32708	
5437	0	32780	32644	
5438	0	32784	32614	
5439	0	32750	32714	
5440	0	32750	32644	
5441	0	32688	32688	
5442	0	32744	32638	
5443	0	32756	32807	
5444	0	32716	32768	
5445	0	32704	32678	
5446	0	32724	32775	
5447	0	32920	32852	
5448	0	32892	32836	
5449	0	32992	32887	
5450	0	32912	32936	
5451	0	32928	32775	
5452	0	32884	32982	
5453	0	32916	33015	
5454	0	32944	32990	
5455	0	32852	33060	
5456	0	32956	33024	
5457	0	32972	33022	
5458	0	33012	33056	
5459	0	32952	32966	
5460	0	32970	32936	
5461	0	32932	32850	
5462	0	32844	32904	
5463	0	32874	32810	
5464	0	32896	32818	
5465	0	32936	32902	
5466	0	32874	32790	
5467	0	32976	32840	
5468	0	32852	32616	
5469	0	32808	32794	
5470	0	32792	32711	
5471	0	32808	32751	
5472	0	32804	32583	
5473	0	32600	32634	
5474	0	32732	32678	
5475	0	32714	32488	
5476	0	32752	32676	
5477	0	32704	32636	
5478	0	32760	32568	
5479	0	32708	32572	
5480	0	32692	32623	
5481	0	32695	32643	
5482	0	32754	32646	
5483	0	32732	32743	
5484	0	32674	32679	
5485	0	32704	32788	
5486	0	32876	32810	
5487	0	32720	32640	
5488	0	32706	32788	
5489	0	32804	32792	
5490	0	32718	32746	
5491	0	32812	32791	
5492	0	32774	32764	
5493	0	32740	32678	
5494	0	32722	32788	
5495	0	32898	32722	
5496	0	32868	32686	
5497	0	32968	32784	
5498	0	32774	32738	
5499	0	32776	32775	
5500	0	32894	32839	
5501	0	32734	32732	
5502	0	32788	32764	
5503	0	32810	32726	
5504	0	32786	32750	
5505	0	32801	32764	
5506	0	32848	32766	
5507	0	32696	32748	
5508	0	32750	32839	
5509	0	32774	32728	
5510	0	32764	32872	
5511	0	32660	32879	
5512	0	32810	32714	
5513	0	32946	32772	
5514	0	32852	32748	
5515	0	32844	32720	
5516	0	32712	32738	
5517	0	32824	32774	
5518	0	32824	32752	
5519	0	32842	32766	
5520	0	32800	32867	
5521	0	32884	32682	
5522	0	32892	32788	
5523	0	32866	32724	
5524	0	32714	32734	
5525	0	32648	32686	
5526	0	32696	32738	
5527	0	32724	32728	
5528	0	32700	32806	
5529	0	32744	32834	
5530	0	32788	32672	
5531	0	32892	32790	
5532	0	32892	32820	
5533	0	32894	32694	
5534	0	32812	32774	
5535	0	32858	32692	
5536	0	32808	32734	
5537	0	32800	32708	
5538	0	32781	32743	
5539	0	32744	32846	
5540	0	32980	32692	
5541	0	32982	32802	
5542	0	32862	32714	
5543	0	32780	32703	
5544	0	32840	32670	
5545	0	32872	32673	
5546	0	32844	32772	
5547	0	32800	32660	
5548	0	32880	32736	
5549	0	32728	32712	
5550	0	32660	32722	
5551	0	32824	32830	
5552	0	32884	32775	
5553	0	32868	32743	
5554	0	32794	32839	
5555	0	32806	32798	
5556	0	32732	32804	
5557	0	32746	32828	
5558	0	32828	32794	
5559	0	32832	32759	
5560	0	32770	32799	
5561	0	32768	32774	
5562	0	32818	32614	
5563	0	32826	32764	
5564	0	32808	32692	
5565	0	32876	32840	
5566	0	32896	32720	
5567	0	32860	32674	
5568	0	32810	32775	
5569	0	32808	32802	
5570	0	32808	32761	
5571	0	32932	32724	
5572	0	32790	32816	
5573	0	32840	32851	
5574	0	32932	32716	
5575	0	32816	32818	
5576	0	32804	32758	
5577	0	32792	32654	
5578	0	32728	32830	
5579	0	32754	32798	
5580	0	32816	32694	
5581	0	33034	32894	
5582	0	32954	32878	
5583	0	32804	32902	
5584	0	32804	32758	
5585	0	32672	32876	
5586	0	32768	32834	
5587	0	32868	32791	
5588	0	32784	32775	
5589	0	32716	32820	
5590	0	32812	32628	
5591	0	32840	32751	
5592	0	32844	32570	
5593	0	32800	32634	
5594	0	32740	32544	
5595	0	32886	32666	
5596	0	32832	32592	
5597	0	32764	32647	
5598	0	32824	32576	
5599	0	32820	32666	
5600	0	32784	32750	
5601	0	32688	32820	
5602	0	32764	32724	
5603	0	32900	32816	
5604	0	32920	32756	
5605	0	32776	32838	
5606	0	32686	32940	
5607	0	32718	32912	
5608	0	32676	32902	
5609	0	32656	32752	
5610	0	32736	32806	
5611	0	32858	32764	
5612	0	32888	32702	
5613	0	32900	32826	
5614	0	32944	32758	
5615	0	32796	32692	
5616	0	32872	32775	
5617	0	32796	32743	
5618	0	32860	32646	
5619	0	32880	32796	
5620	0	32849	32784	
5621	0	32866	32756	
5622	0	32832	32903	
5623	0	32938	32794	
5624	0	32812	32708	
5625	0	32832	32844	
5626	0	32820	32756	
5627	0	32844	32720	
5628	0	32920	32775	
5629	0	32836	32942	
5630	0	32784	32806	
5631	0	32816	32894	
5632	0	32944	32871	
5633	0	32808	32728	
5634	0	32820	32726	
5635	0	32964	32846	
5636	0	32772	32708	
5637	0	32668	32736	
5638	0	32744	32758	
5639	0	32676	32798	
5640	0	32596	32806	
5641	0	32608	32686	
5642	0	32718	32900	
5643	0	32692	32935	
5644	0	32487	32639	
5645	0	32440	32812	
5646	0	32572	32775	
5647	0	32550	32692	
5648	0	32572	32710	
5649	0	32616	33016	
5650	0	32556	32928	
5651	0	32618	32960	
5652	0	32804	32734	
5653	0	32906	32519	
5654	0	32924	32212	
5655	0	32972	32050	
5656	0	33020	32146	
5657	0	33041	32412	
5658	0	33256	32440	
5659	0	33460	32628	
5660	0	33585	32540	
5661	0	33642	32704	
5662	0	33622	32932	
5663	0	33552	32980	
5664	0	33560	33046	
5665	0	33448	33108	
5666	0	33258	33274	
5667	0	32936	33158	
5668	0	32656	32990	
5669	0	32600	32804	
5670	0	32460	32862	
5671	0	32354	32775	
5672	0	32442	32690	
5673	0	32390	32703	
5674	0	32394	32694	
5675	0	32392	32842	
5676	0	32433	32984	
5677	0	32694	32839	
5678	0	32714	32958	
5679	0	32748	32958	
5680	0	32840	32960	
5681	0	32888	32916	
5682	0	32956	32772	
5683	0	33056	32762	
5684	0	32992	32830	
5685	0	33070	32872	
5686	0	33040	32746	
5687	0	33162	32620	
5688	0	33076	32703	
5689	0	32997	32894	
5690	0	32918	32959	
5691	0	32914	33022	
5692	0	32914	32764	
5693	0	32960	32646	
5694	0	32962	32688	
5695	0	32908	32696	
5696	0	32686	32766	
5697	0	32572	32704	
5698	0	32628	32700	
5699	0	32664	32742	
5700	0	32608	32628	
5701	0	32752	32420	
5702	0	32668	32547	
5703	0	32594	32584	
5704	0	32620	32655	
5705	0	32600	32822	
5706	0	32452	32812	
5707	0	32590	32848	
5708	0	32592	32898	
5709	0	32530	32775	
5710	0	32600	32882	
5711	0	32608	32676	
5712	0	32684	32775	
5713	0	32704	32788	
5714	0	32660	32678	
5715	0	32768	32768	
5716	0	32778	32710	
5717	0	32756	32796	
5718	0	32808	32758	
5719	0	32760	32766	
5720	0	32758	32628	
5721	0	32844	32624	
5722	0	32922	32570	
5723	0	32894	32668	
5724	0	32824	32892	
5725	0	32796	32843	
5726	0	32838	32849	
5727	0	32784	32804	
5728	0	32672	32884	
5729	0	32714	32942	
5730	0	32700	32711	
5731	0	32716	32737	
5732	0	32676	32814	
5733	0	32608	32646	
5734	0	32670	32716	
5735	0	32678	32692	
5736	0	32690	32775	
5737	0	32694	32728	
5738	0	32740	32647	
5739	0	32676	32808	
5740	0	32704	32884	
5741	0	32738	32716	
5742	0	32708	32775	
5743	0	32719	32638	
5744	0	32722	32888	
5745	0	32716	32834	
5746	0	32772	32670	
5747	0	32780	32668	
5748	0	32830	32688	
5749	0	32864	32688	
5750	0	32834	32856	
5751	0	32844	32770	
5752	0	32820	32775	
5753	0	32820	32878	
5754	0	32768	32830	
5755	0	32740	32560	
5756	0	32846	32594	
5757	0	32808	32567	
5758	0	32924	32662	
5759	0	32950	32753	
5760	0	32878	32936	
5761	0	32976	32830	
5762	0	32968	32908	
5763	0	33096	32974	
5764	0	33048	32876	
5765	0	32928	32826	
5766	0	32952	32843	
5767	0	32952	32702	
5768	0	32768	32788	
5769	0	32632	32784	
5770	0	32560	32774	
5771	0	32576	32822	
5772	0	32524	32700	
5773	0	32684	32868	
5774	0	32544	32775	
5775	0	32648	32671	
5776	0	32692	32670	
5777	0	32868	32965	
5778	0	32976	32619	
5779	0	33002	32388	
5780	0	32984	32546	
5781	0	33080	32632	
5782	0	33060	32912	
5783	0	33190	32894	
5784	0	33196	32870	
5785	0	33246	33060	
5786	0	33204	32934	
5787	0	33304	32760	
5788	0	33212	32728	
5789	0	33130	32668	
5790	0	32984	32670	
5791	0	32992	32738	
5792	0	32918	32850	
5793	0	32816	32903	
5794	0	32712	32743	
5795	0	32746	32864	
5796	0	32754	32820	
5797	0	32648	32788	
5798	0	32584	32824	
5799	0	32593	32876	
5800	0	32512	32692	
5801	0	32560	32832	
5802	0	32624	32638	
5803	0	32572	32688	
5804	0	32664	32662	
5805	0	32648	32564	
5806	0	32756	32699	
5807	0	32756	32592	
5808	0	32748	32744	
5809	0	32768	32816	
5810	0	32772	32700	
5811	0	32732	32736	
5812	0	32926	32676	
5813	0	32922	32727	
5814	0	32814	32784	
5815	0	32602	32853	
5816	0	33060	32712	
5817	0	33310	32948	
5818	0	33100	32844	
5819	0	32716	32767	
5820	0	32576	32820	
5821	0	32604	32876	
5822	0	32672	32928	
5823	0	32518	32775	
5824	0	32656	32807	
5825	0	32700	32720	
5826	0	32752	32682	
5827	0	32828	32710	
5828	0	32736	32775	
5829	0	32776	32774	
5830	0	32762	32618	
5831	0	32768	32584	
5832	0	32817	32631	
5833	0	32844	32596	
5834	0	32768	32612	
5835	0	32832	32594	
5836	0	32856	32705	
5837	0	32842	32580	
5838	0	32812	32720	
5839	0	32828	32842	
5840	0	32880	32647	
5841	0	32874	32842	
5842	0	32828	32862	
5843	0	32800	32784	
5844	0	32760	32959	
5845	0	32812	32914	
5846	0	32774	32930	
5847	0	32724	32740	
5848	0	32784	32804	
5849	0	32774	32750	
5850	0	32756	32647	
5851	0	32794	32630	
5852	0	32712	32862	
5853	0	32824	32766	
5854	0	32780	32775	
5855	0	32832	32912	
5856	0	32792	32894	
5857	0	32816	32794	
5858	0	32832	32839	
5859	0	32862	32724	
5860	0	32840	32852	
5861	0	32774	32694	
5862	0	32876	32758	
5863	0	32860	32740	
5864	0	32862	32674	
5865	0	32880	32702	
5866	0	32836	32824	
5867	0	32912	32756	
5868	0	32924	32839	
5869	0	32940	32870	
5870	0	32810	32679	
5871	0	32840	32806	
5872	0	32790	32787	
5873	0	32668	32633	
5874	0	32512	32796	
5875	0	32580	32788	
5876	0	32708	32674	
5877	0	32672	32892	
5878	0	32696	32756	
5879	0	32768	32671	
5880	0	32690	32598	
5881	0	32612	32700	
5882	0	32558	32846	
5883	0	32676	32748	
5884	0	32790	32692	
5885	0	33008	32664	
5886	0	33204	32518	
5887	0	33292	32822	
5888	0	33412	32788	
5889	0	33512	32693	
5890	0	33520	32828	
5891	0	33468	32924	
5892	0	33392	32967	
5893	0	33384	32847	
5894	0	33272	32874	
5895	0	33112	32818	
5896	0	33082	32722	
5897	0	32940	32726	
5898	0	32816	32898	
5899	0	32724	32722	
5900	0	32664	32817	
5901	0	32656	32743	
5902	0	32570	32684	
5903	0	32584	32764	
5904	0	32600	32724	
5905	0	32584	32606	
5906	0	32640	32770	
5907	0	32556	32730	
5908	0	32562	32705	
5909	0	32510	32839	
5910	0	32574	32768	
5911	0	32594	32728	
5912	0	32640	32834	
5913	0	32676	32775	
5914	0	32696	32847	
5915	0	32752	32737	
5916	0	32750	32688	
5917	0	32810	32772	
5918	0	32766	32784	
5919	0	32772	32724	
5920	0	32828	32663	
5921	0	32856	32753	
5922	0	32760	32864	
5923	0	32770	32762	
5924	0	32796	32756	
5925	0	32906	32716	
5926	0	33042	32822	
5927	0	32904	32836	
5928	0	32874	32698	
5929	0	32802	32736	
5930	0	32716	32712	
5931	0	32762	32919	
5932	0	32692	32775	
5933	0	32700	32639	
5934	0	32664	32602	
5935	0	32784	32692	
5936	0	32820	32666	
5937	0	32786	32764	
5938	0	32832	32848	
5939	0	32868	32903	
5940	0	32729	32812	
5941	0	32854	32867	
5942	0	32828	32775	
5943	0	32796	32678	
5944	0	32812	32798	
5945	0	32806	32794	
5946	0	32822	32534	
5947	0	32862	32728	
5948	0	32820	32759	
5949	0	32780	32748	
5950	0	32860	32750	
5951	0	32784	32734	
5952	0	32790	32852	
5953	0	32772	32740	
5954	0	32729	32610	
5955	0	32720	32738	
5956	0	32856	32730	
5957	0	33038	32852	
5958	0	32840	32799	
5959	0	32784	32702	
5960	0	32772	32780	
5961	0	32758	32768	
5962	0	32614	32774	
5963	0	32644	32820	
5964	0	32552	32820	
5965	0	32480	32708	
5966	0	32388	32706	
5967	0	32328	32628	
5968	0	32324	32966	
5969	0	32428	32839	
5970	0	32682	32728	
5971	0	32808	32886	
5972	0	32772	32855	
5973	0	32912	32674	
5974	0	32976	32756	
5975	0	33066	32767	
5976	0	33096	32716	
5977	0	33318	32890	
5978	0	33488	32808	
5979	0	33562	32748	
5980	0	33380	32788	
5981	0	33364	32734	
5982	0	33280	32764	
5983	0	33296	32810	
5984	0	33226	32674	
5985	0	33030	32690	
5986	0	32936	32616	
5987	0	32988	32742	
5988	0	32928	32730	
5989	0	32844	32660	
5990	0	32770	32812	
5991	0	32668	32720	
5992	0	32600	32930	
5993	0	32532	32810	
5994	0	32594	32775	
5995	0	32596	32828	
5996	0	32546	32743	
5997	0	32550	32854	
5998	0	32504	32758	
5999	0	32548	32680	
6000	0	32586	32710	
6001	0	32520	32742	
6002	0	32560	32758	
6003	0	32720	32791	
6004	0	32682	32686	
6005	0	32732	32824	
6006	0	32736	32790	
6007	0	32756	32638	
6008	0	32786	32791	
6009	0	32816	32767	
6010	0	32774	32610	
6011	0	32826	32770	
6012	0	32906	32775	
