# OpenSignals Text File Format. Version 1
# {"00:07:80:8C:0A:39": {"position": 0, "device": "biosignalsplux", "device name": "00:07:80:8C:0A:39", "device connection": "BTH00:07:80:8C:0A:39", "sampling rate": 1000, "resolution": [16, 16], "firmware version": 776, "comments": "", "keywords": "", "mode": 0, "sync interval": 2, "date": "2023-3-17", "time": "15:8:17.937", "channels": [1, 2], "sensor": ["EMG", "EMG"], "label": ["CH1", "CH2"], "column": ["nSeq", "DI", "CH1", "CH2"], "special": [{"SpO2": [80, 40, 5, 4, 3, 3]}, {"SpO2": [80, 40, 5, 4, 3, 3]}, {"SpO2": [80, 40, 5, 4, 3, 3]}, {"SpO2": [80, 40, 5, 4, 3, 3]}, {"SpO2": [80, 40, 5, 4, 3, 3]}, {"SpO2": [80, 40, 5, 4, 3, 3]}, {"SpO2": [80, 40, 5, 4, 3, 3]}, {"SpO2": [80, 40, 5, 4, 3, 3]}], "digital IO": [0, 1], "sleeve color": ["gray", "yellow"], "convertedValues": 0}}
# EndOfHeader
0	0	32868	32692	
1	0	32904	32741	
2	0	32816	32726	
3	0	32790	32838	
4	0	32764	32844	
5	0	32768	32671	
6	0	32764	32746	
7	0	32724	32708	
8	0	32816	32762	
9	0	32760	32730	
10	0	32780	32656	
11	0	32792	32842	
12	0	32824	32838	
13	0	32832	32655	
14	0	32792	32794	
15	0	32864	32822	
16	0	32757	32775	
17	0	32788	32762	
18	0	32848	32784	
19	0	32868	32786	
20	0	32812	32638	
21	0	32756	32806	
22	0	32800	32744	
23	0	32746	32775	
24	0	32688	32716	
25	0	32796	32750	
26	0	32824	32676	
27	0	32772	32775	
28	0	32798	32852	
29	0	32776	32634	
30	0	32812	32856	
31	0	32816	32741	
32	0	32790	32775	
33	0	32864	32624	
34	0	32756	32836	
35	0	32804	32830	
36	0	32804	32826	
37	0	32842	32756	
38	0	32772	32830	
39	0	32852	32808	
40	0	32896	32796	
41	0	32818	32764	
42	0	32852	32790	
43	0	32832	32767	
44	0	32828	32748	
45	0	32786	32735	
46	0	32832	32871	
47	0	32796	32775	
48	0	32724	32766	
49	0	32832	32817	
50	0	32820	32716	
51	0	32822	32775	
52	0	32766	32830	
53	0	32828	32774	
54	0	32856	32748	
55	0	32768	32775	
56	0	32812	32775	
57	0	32789	32710	
58	0	32828	32843	
59	0	32772	32796	
60	0	32824	32732	
61	0	32836	32638	
62	0	32792	32774	
63	0	32848	32756	
64	0	32786	32742	
65	0	32800	32794	
66	0	32864	32737	
67	0	32838	32802	
68	0	32852	32806	
69	0	32862	32814	
70	0	32798	32740	
71	0	32816	32862	
72	0	32800	32714	
73	0	32756	32766	
74	0	32784	32766	
75	0	32778	32743	
76	0	32896	32734	
77	0	32836	32838	
78	0	32876	32788	
79	0	32864	32816	
80	0	32766	32668	
81	0	32824	32758	
82	0	32792	32763	
83	0	32806	32724	
84	0	32768	32894	
85	0	32848	32822	
86	0	32788	32809	
87	0	32752	32820	
88	0	32824	32726	
89	0	32755	32775	
90	0	32798	32871	
91	0	32848	32756	
92	0	32770	32736	
93	0	32814	32818	
94	0	32788	32744	
95	0	32828	32775	
96	0	32805	32730	
97	0	32758	32760	
98	0	32818	32817	
99	0	32808	32716	
100	0	32748	32862	
101	0	32865	32760	
102	0	32828	32718	
103	0	32868	32796	
104	0	32801	32742	
105	0	32830	32828	
106	0	32754	32640	
107	0	32816	32711	
108	0	32752	32760	
109	0	32870	32868	
110	0	32798	32732	
111	0	32810	32871	
112	0	32796	32768	
113	0	32852	32796	
114	0	32800	32756	
115	0	32794	32772	
116	0	32792	32770	
117	0	32826	32740	
118	0	32792	32788	
119	0	32832	32786	
120	0	32870	32759	
121	0	32876	32810	
122	0	32828	32830	
123	0	32734	32794	
124	0	32808	32812	
125	0	32888	32732	
126	0	32812	32824	
127	0	32852	32738	
128	0	32804	32858	
129	0	32788	32807	
130	0	32776	32698	
131	0	32780	32692	
132	0	32738	32766	
133	0	32804	32820	
134	0	32838	32676	
135	0	32868	32814	
136	0	32874	32714	
137	0	32912	32764	
138	0	32872	32647	
139	0	32800	32734	
140	0	32840	32810	
141	0	32794	32708	
142	0	32766	32806	
143	0	32758	32652	
144	0	32748	32838	
145	0	32788	32716	
146	0	32780	32820	
147	0	32770	32735	
148	0	32812	32704	
149	0	32844	32711	
150	0	32794	32775	
151	0	32888	32856	
152	0	32834	32730	
153	0	32856	32878	
154	0	32844	32838	
155	0	32858	32731	
156	0	32812	32800	
157	0	32868	32758	
158	0	32778	32740	
159	0	32844	32762	
160	0	32792	32712	
161	0	32852	32775	
162	0	32764	32796	
163	0	32794	32848	
164	0	32812	32660	
165	0	32894	32775	
166	0	32836	32750	
167	0	32784	32812	
168	0	32750	32654	
169	0	32757	32764	
170	0	32872	32775	
171	0	32780	32740	
172	0	32832	32724	
173	0	32768	32874	
174	0	32808	32743	
175	0	32776	32910	
176	0	32804	32682	
177	0	32856	32768	
178	0	32852	32766	
179	0	32844	32804	
180	0	32800	32698	
181	0	32832	32756	
182	0	32800	32796	
183	0	32856	32768	
184	0	32806	32686	
185	0	32848	32635	
186	0	32792	32743	
187	0	32746	32756	
188	0	32808	32848	
189	0	32804	32670	
190	0	32780	32854	
191	0	32814	32818	
192	0	32756	32908	
193	0	32808	32772	
194	0	32798	32682	
195	0	32830	32775	
196	0	32768	32688	
197	0	32826	32896	
198	0	32828	32718	
199	0	32852	32798	
200	0	32788	32754	
201	0	32808	32792	
202	0	32760	32769	
203	0	32802	32668	
204	0	32868	32818	
205	0	32780	32822	
206	0	32812	32804	
207	0	32808	32838	
208	0	32846	32770	
209	0	32834	32678	
210	0	32816	32775	
211	0	32808	32766	
212	0	32892	32815	
213	0	32764	32695	
214	0	32844	32732	
215	0	32836	32790	
216	0	32812	32791	
217	0	32808	32793	
218	0	32792	32798	
219	0	32782	32796	
220	0	32844	32712	
221	0	32820	32732	
222	0	32782	32700	
223	0	32824	32730	
224	0	32849	32814	
225	0	32800	32743	
226	0	32812	32786	
227	0	32768	32890	
228	0	32748	32620	
229	0	32784	32775	
230	0	32784	32698	
231	0	32712	32802	
232	0	32760	32627	
233	0	32804	32868	
234	0	32768	32726	
235	0	32858	32840	
236	0	32828	32743	
237	0	32850	32775	
238	0	32860	32816	
239	0	32852	32794	
240	0	32796	32756	
241	0	32696	32686	
242	0	32792	32814	
243	0	32812	32756	
244	0	32800	32802	
245	0	32880	32732	
246	0	32842	32722	
247	0	32766	32838	
248	0	32836	32810	
249	0	32817	32788	
250	0	32804	32622	
251	0	32820	32808	
252	0	32784	32767	
253	0	32792	32690	
254	0	32802	32806	
255	0	32820	32858	
256	0	32808	32740	
257	0	32808	32743	
258	0	32864	32672	
259	0	32820	32738	
260	0	32844	32808	
261	0	32746	32784	
262	0	32826	32682	
263	0	32812	32839	
264	0	32844	32711	
265	0	32833	32812	
266	0	32836	32668	
267	0	32820	32680	
268	0	32832	32849	
269	0	32794	32850	
270	0	32800	32774	
271	0	32816	32691	
272	0	32832	32838	
273	0	32756	32758	
274	0	32760	32918	
275	0	32836	32680	
276	0	32774	32712	
277	0	32870	32742	
278	0	32830	32743	
279	0	32828	32728	
280	0	32814	32842	
281	0	32868	32644	
282	0	32906	32775	
283	0	32832	32766	
284	0	32832	32868	
285	0	32806	32724	
286	0	32820	32718	
287	0	32806	32774	
288	0	32848	32710	
289	0	32810	32816	
290	0	32868	32768	
291	0	32816	32885	
292	0	32802	32866	
293	0	32858	32764	
294	0	32826	32924	
295	0	32774	32694	
296	0	32772	32732	
297	0	32786	32784	
298	0	32738	32766	
299	0	32708	32652	
300	0	32784	32720	
301	0	32760	32769	
302	0	32820	32866	
303	0	32806	32664	
304	0	32852	32812	
305	0	32836	32803	
306	0	32864	32759	
307	0	32800	32702	
308	0	32882	32816	
309	0	32894	32824	
310	0	32868	32686	
311	0	32804	32864	
312	0	32779	32852	
313	0	32764	32708	
314	0	32760	32775	
315	0	32761	32775	
316	0	32780	32668	
317	0	32806	32844	
318	0	32840	32824	
319	0	32756	32662	
320	0	32744	32800	
321	0	32760	32772	
322	0	32729	32679	
323	0	32792	32710	
324	0	32850	32748	
325	0	32836	32798	
326	0	32832	32750	
327	0	32788	32782	
328	0	32802	32754	
329	0	32840	32752	
330	0	32798	32775	
331	0	32859	32820	
332	0	32810	32818	
333	0	32782	32620	
334	0	32848	32806	
335	0	32800	32812	
336	0	32872	32740	
337	0	32840	32718	
338	0	32816	32834	
339	0	32820	32804	
340	0	32764	32687	
341	0	32864	32737	
342	0	32824	32794	
343	0	32792	32728	
344	0	32714	32807	
345	0	32760	32722	
346	0	32816	32804	
347	0	32804	32682	
348	0	32770	32775	
349	0	32848	32768	
350	0	32824	32670	
351	0	32760	32728	
352	0	32800	32828	
353	0	32822	32752	
354	0	32862	32798	
355	0	32846	32706	
356	0	32823	32728	
357	0	32840	32818	
358	0	32864	32735	
359	0	32808	32844	
360	0	32780	32750	
361	0	32776	32740	
362	0	32840	32743	
363	0	32860	32890	
364	0	32802	32882	
365	0	32796	32766	
366	0	32714	32742	
367	0	32812	32758	
368	0	32816	32810	
369	0	32836	32728	
370	0	32822	32748	
371	0	32820	32796	
372	0	32782	32716	
373	0	32816	32698	
374	0	32738	32720	
375	0	32824	32775	
376	0	32838	32829	
377	0	32824	32698	
378	0	32856	32802	
379	0	32888	32722	
380	0	32796	32804	
381	0	32828	32684	
382	0	32736	32728	
383	0	32760	32788	
384	0	32750	32750	
385	0	32736	32674	
386	0	32798	32822	
387	0	32784	32786	
388	0	32784	32720	
389	0	32724	32644	
390	0	32836	32833	
391	0	32824	32724	
392	0	32852	32869	
393	0	32828	32714	
394	0	32820	32828	
395	0	32796	32770	
396	0	32820	32775	
397	0	32836	32688	
398	0	32864	32823	
399	0	32820	32808	
400	0	32842	32720	
401	0	32840	32760	
402	0	32840	32757	
403	0	32832	32714	
404	0	32868	32756	
405	0	32798	32771	
406	0	32836	32863	
407	0	32840	32736	
408	0	32848	32823	
409	0	32786	32732	
410	0	32710	32802	
411	0	32742	32738	
412	0	32752	32864	
413	0	32782	32726	
414	0	32870	32783	
415	0	32856	32735	
416	0	32848	32694	
417	0	32804	32789	
418	0	32812	32796	
419	0	32908	32716	
420	0	32868	32694	
421	0	32824	32692	
422	0	32762	32770	
423	0	32816	32748	
424	0	32808	32853	
425	0	32746	32740	
426	0	32768	32792	
427	0	32808	32775	
428	0	32788	32740	
429	0	32860	32831	
430	0	32784	32654	
431	0	32776	32791	
432	0	32804	32752	
433	0	32840	32772	
434	0	32808	32711	
435	0	32766	32676	
436	0	32802	32766	
437	0	32874	32775	
438	0	32798	32810	
439	0	32824	32759	
440	0	32756	32734	
441	0	32744	32835	
442	0	32806	32847	
443	0	32772	32764	
444	0	32832	32756	
445	0	32840	32768	
446	0	32832	32722	
447	0	32862	32814	
448	0	32732	32798	
449	0	32770	32702	
450	0	32766	32775	
451	0	32784	32774	
452	0	32738	32740	
453	0	32808	32807	
454	0	32880	32790	
455	0	32823	32720	
456	0	32852	32740	
457	0	32838	32784	
458	0	32820	32775	
459	0	32872	32852	
460	0	32836	32812	
461	0	32816	32740	
462	0	32824	32938	
463	0	32804	32714	
464	0	32792	32775	
465	0	32768	32710	
466	0	32688	32684	
467	0	32800	32774	
468	0	32808	32768	
469	0	32784	32852	
470	0	32820	32732	
471	0	32780	32760	
472	0	32780	32874	
473	0	32848	32758	
474	0	32860	32790	
475	0	32822	32746	
476	0	32774	32820	
477	0	32894	32770	
478	0	32801	32764	
479	0	32880	32692	
480	0	32852	32622	
481	0	32849	32812	
482	0	32748	32775	
483	0	32736	32702	
484	0	32714	32764	
485	0	32872	32860	
486	0	32770	32703	
487	0	32872	32826	
488	0	32788	32775	
489	0	32832	32884	
490	0	32832	32698	
491	0	32840	32711	
492	0	32864	32816	
493	0	32801	32748	
494	0	32764	32826	
495	0	32780	32782	
496	0	32752	32800	
497	0	32820	32712	
498	0	32806	32828	
499	0	32784	32742	
500	0	32804	32698	
501	0	32782	32759	
502	0	32800	32770	
503	0	32782	32654	
504	0	32758	32788	
505	0	32864	32734	
506	0	32822	32825	
507	0	32844	32744	
508	0	32822	32866	
509	0	32788	32775	
510	0	32812	32743	
511	0	32784	32706	
512	0	32752	32890	
513	0	32786	32826	
514	0	32852	32646	
515	0	32852	32862	
516	0	32868	32748	
517	0	32876	32694	
518	0	32852	32700	
519	0	32760	32854	
520	0	32776	32782	
521	0	32752	32657	
522	0	32842	32830	
523	0	32798	32744	
524	0	32836	32746	
525	0	32888	32807	
526	0	32856	32775	
527	0	32852	32903	
528	0	32836	32720	
529	0	32798	32726	
530	0	32818	32766	
531	0	32816	32830	
532	0	32868	32692	
533	0	32804	32719	
534	0	32780	32774	
535	0	32748	32834	
536	0	32796	32790	
537	0	32816	32698	
538	0	32812	32807	
539	0	32810	32759	
540	0	32856	32732	
541	0	32784	32806	
542	0	32878	32608	
543	0	32746	32748	
544	0	32796	32724	
545	0	32864	32768	
546	0	32824	32720	
547	0	32806	32784	
548	0	32764	32884	
549	0	32736	32710	
550	0	32816	32802	
551	0	32848	32770	
552	0	32772	32740	
553	0	32794	32694	
554	0	32804	32767	
555	0	32824	32832	
556	0	32834	32712	
557	0	32820	32858	
558	0	32862	32730	
559	0	32884	32682	
560	0	32834	32724	
561	0	32876	32759	
562	0	32808	32788	
563	0	32866	32772	
564	0	32744	32796	
565	0	32740	32820	
566	0	32700	32828	
567	0	32798	32708	
568	0	32782	32810	
569	0	32788	32724	
570	0	32862	32766	
571	0	32858	32748	
572	0	32806	32812	
573	0	32826	32814	
574	0	32804	32707	
575	0	32775	32810	
576	0	32842	32734	
577	0	32784	32743	
578	0	32862	32867	
579	0	32808	32718	
580	0	32816	32786	
581	0	32850	32860	
582	0	32808	32775	
583	0	32884	32750	
584	0	32752	32710	
585	0	32772	32678	
586	0	32820	32750	
587	0	32816	32696	
588	0	32756	32884	
589	0	32794	32748	
590	0	32728	32806	
591	0	32844	32804	
592	0	32864	32766	
593	0	32848	32758	
594	0	32796	32752	
595	0	32810	32666	
596	0	32889	32808	
597	0	32848	32775	
598	0	32800	32774	
599	0	32796	32746	
600	0	32802	32800	
601	0	32752	32775	
602	0	32774	32668	
603	0	32852	32719	
604	0	32718	32830	
605	0	32776	32752	
606	0	32784	32820	
607	0	32804	32792	
608	0	32788	32647	
609	0	32862	32870	
610	0	32798	32721	
611	0	32796	32775	
612	0	32836	32610	
613	0	32860	32814	
614	0	32804	32775	
615	0	32868	32756	
616	0	32922	32846	
617	0	32808	32770	
618	0	32847	32775	
619	0	32792	32860	
620	0	32840	32774	
621	0	32874	32743	
622	0	32764	32762	
623	0	32810	32830	
624	0	32785	32775	
625	0	32834	32752	
626	0	32808	32874	
627	0	32784	32804	
628	0	32784	32876	
629	0	32792	32686	
630	0	32844	32830	
631	0	32828	32754	
632	0	32780	32694	
633	0	32742	32682	
634	0	32900	32864	
635	0	32860	32842	
636	0	32824	32696	
637	0	32832	32818	
638	0	32916	32796	
639	0	32826	32849	
640	0	32844	32732	
641	0	32840	32846	
642	0	32720	32775	
643	0	32752	32830	
644	0	32792	32734	
645	0	32750	32788	
646	0	32814	32738	
647	0	32824	32810	
648	0	32808	32775	
649	0	32848	32832	
650	0	32776	32788	
651	0	32874	32792	
652	0	32810	32760	
653	0	32908	32816	
654	0	32882	32882	
655	0	32984	32772	
656	0	32840	32909	
657	0	32850	32890	
658	0	32860	32866	
659	0	32882	32734	
660	0	32826	32962	
661	0	32828	32754	
662	0	32788	32734	
663	0	32744	32578	
664	0	32548	32536	
665	0	32644	32556	
666	0	32700	32386	
667	0	32750	32492	
668	0	32620	32446	
669	0	32692	32335	
670	0	32648	32512	
671	0	32692	32646	
672	0	32816	32708	
673	0	32740	32684	
674	0	32822	32864	
675	0	32834	32852	
676	0	32828	32870	
677	0	32820	32832	
678	0	32836	32956	
679	0	32924	32900	
680	0	32876	32988	
681	0	32874	32867	
682	0	32888	32774	
683	0	32903	32872	
684	0	32866	32928	
685	0	32860	32888	
686	0	32852	32938	
687	0	32888	32863	
688	0	32802	32859	
689	0	32900	32863	
690	0	32870	32806	
691	0	32842	32894	
692	0	32834	32838	
693	0	32782	32708	
694	0	32860	32791	
695	0	32890	32828	
696	0	32864	32630	
697	0	32776	32700	
698	0	32848	32656	
699	0	32804	32676	
700	0	32850	32766	
701	0	32816	32790	
702	0	32812	32753	
703	0	32862	32764	
704	0	32808	32775	
705	0	32796	32790	
706	0	32900	32734	
707	0	32774	32694	
708	0	32808	32716	
709	0	32752	32815	
710	0	32766	32760	
711	0	32740	32764	
712	0	32708	32839	
713	0	32756	32666	
714	0	32756	32735	
715	0	32836	32878	
716	0	32800	32838	
717	0	32844	32756	
718	0	32826	32740	
719	0	32838	32732	
720	0	32800	32764	
721	0	32800	32686	
722	0	32872	32775	
723	0	32770	32724	
724	0	32806	32786	
725	0	32836	32770	
726	0	32766	32640	
727	0	32830	32752	
728	0	32836	32860	
729	0	32814	32816	
730	0	32828	32800	
731	0	32854	32775	
732	0	32864	32814	
733	0	32860	32692	
734	0	32838	32704	
735	0	32872	32772	
736	0	32832	32775	
737	0	32784	32871	
738	0	32808	32775	
739	0	32836	32826	
740	0	32828	32798	
741	0	32744	32678	
742	0	32816	32696	
743	0	32826	32670	
744	0	32778	32828	
745	0	32790	32708	
746	0	32852	32742	
747	0	32756	32828	
748	0	32824	32700	
749	0	32858	32711	
750	0	32856	32748	
751	0	32808	32794	
752	0	32772	32768	
753	0	32804	32849	
754	0	32804	32788	
755	0	32780	32768	
756	0	32792	32860	
757	0	32804	32766	
758	0	32848	32788	
759	0	32832	32772	
760	0	32791	32775	
761	0	32740	32770	
762	0	32812	32798	
763	0	32804	32814	
764	0	32820	32668	
765	0	32830	32766	
766	0	32774	32807	
767	0	32880	32774	
768	0	32764	32812	
769	0	32834	32792	
770	0	32740	32682	
771	0	32864	32806	
772	0	32836	32685	
773	0	32826	32792	
774	0	32828	32708	
775	0	32804	32738	
776	0	32836	32802	
777	0	32856	32680	
778	0	32792	32862	
779	0	32852	32823	
780	0	32806	32820	
781	0	32756	32698	
782	0	32824	32722	
783	0	32768	32732	
784	0	32816	32816	
785	0	32830	32732	
786	0	32794	32775	
787	0	32824	32826	
788	0	32858	32786	
789	0	32752	32660	
790	0	32802	32806	
791	0	32780	32846	
792	0	32802	32728	
793	0	32756	32706	
794	0	32792	32823	
795	0	32834	32854	
796	0	32868	32700	
797	0	32914	32772	
798	0	32913	32769	
799	0	32804	32794	
800	0	32882	32710	
801	0	32804	32756	
802	0	32780	32812	
803	0	32808	32820	
804	0	32774	32756	
805	0	32818	32814	
806	0	32864	32775	
807	0	32760	32858	
808	0	32752	32752	
809	0	32768	32662	
810	0	32724	32708	
811	0	32848	32724	
812	0	32758	32792	
813	0	32832	32734	
814	0	32876	32762	
815	0	32872	32772	
816	0	32888	32750	
817	0	32852	32670	
818	0	32868	32850	
819	0	32832	32790	
820	0	32834	32815	
821	0	32808	32647	
822	0	32746	32734	
823	0	32752	32858	
824	0	32782	32772	
825	0	32776	32716	
826	0	32800	32775	
827	0	32810	32758	
828	0	32814	32826	
829	0	32772	32716	
830	0	32770	32839	
831	0	32820	32802	
832	0	32840	32756	
833	0	32816	32919	
834	0	32776	32806	
835	0	32810	32832	
836	0	32836	32692	
837	0	32768	32834	
838	0	32776	32732	
839	0	32836	32822	
840	0	32864	32725	
841	0	32844	32738	
842	0	32880	32696	
843	0	32796	32772	
844	0	32800	32772	
845	0	32798	32754	
846	0	32854	32836	
847	0	32788	32738	
848	0	32808	32838	
849	0	32836	32711	
850	0	32766	32790	
851	0	32840	32756	
852	0	32792	32712	
853	0	32814	32720	
854	0	32794	32842	
855	0	32788	32830	
856	0	32832	32796	
857	0	32820	32656	
858	0	32840	32756	
859	0	32774	32818	
860	0	32774	32660	
861	0	32820	32730	
862	0	32822	32746	
863	0	32814	32784	
864	0	32786	32838	
865	0	32764	32767	
866	0	32814	32754	
867	0	32856	32775	
868	0	32804	32820	
869	0	32800	32690	
870	0	32822	32775	
871	0	32798	32775	
872	0	32780	32748	
873	0	32774	32714	
874	0	32860	32754	
875	0	32862	32798	
876	0	32858	32694	
877	0	32836	32742	
878	0	32900	32816	
879	0	32770	32722	
880	0	32800	32715	
881	0	32780	32751	
882	0	32692	32764	
883	0	32830	32830	
884	0	32852	32775	
885	0	32878	32692	
886	0	32802	32810	
887	0	32817	32810	
888	0	32830	32788	
889	0	32824	32695	
890	0	32828	32870	
891	0	32784	32775	
892	0	32792	32732	
893	0	32796	32854	
894	0	32844	32772	
895	0	32828	32770	
896	0	32830	32796	
897	0	32838	32775	
898	0	32768	32770	
899	0	32790	32610	
900	0	32770	32702	
901	0	32872	32752	
902	0	32864	32694	
903	0	32832	32892	
904	0	32794	32774	
905	0	32748	32770	
906	0	32740	32600	
907	0	32810	32885	
908	0	32784	32798	
909	0	32870	32775	
910	0	32816	32727	
911	0	32852	32820	
912	0	32796	32744	
913	0	32848	32774	
914	0	32808	32724	
915	0	32808	32881	
916	0	32860	32746	
917	0	32872	32802	
918	0	32856	32692	
919	0	32848	32902	
920	0	32756	32724	
921	0	32796	32774	
922	0	32816	32722	
923	0	32840	32794	
924	0	32830	32754	
925	0	32836	32692	
926	0	32784	32852	
927	0	32810	32871	
928	0	32780	32775	
929	0	32820	32850	
930	0	32836	32804	
931	0	32816	32688	
932	0	32746	32724	
933	0	32832	32856	
934	0	32844	32735	
935	0	32778	32895	
936	0	32852	32834	
937	0	32860	32808	
938	0	32820	32772	
939	0	32820	32760	
940	0	32848	32804	
941	0	32876	32676	
942	0	32826	32743	
943	0	32806	32828	
944	0	32804	32658	
945	0	32756	32788	
946	0	32828	32774	
947	0	32872	32774	
948	0	32744	32718	
949	0	32836	32756	
950	0	32768	32764	
951	0	32796	32646	
952	0	32776	32820	
953	0	32792	32846	
954	0	32848	32804	
955	0	32784	32828	
956	0	32804	32832	
957	0	32848	32740	
958	0	32816	32834	
959	0	32808	32762	
960	0	32792	32752	
961	0	32836	32775	
962	0	32852	32887	
963	0	32816	32672	
964	0	32784	32858	
965	0	32828	32792	
966	0	32912	32854	
967	0	32884	32711	
968	0	32816	32796	
969	0	32784	32775	
970	0	32870	32721	
971	0	32820	32750	
972	0	32775	32792	
973	0	32778	32700	
974	0	32804	32736	
975	0	32788	32750	
976	0	32780	32748	
977	0	32760	32842	
978	0	32826	32887	
979	0	32864	32709	
980	0	32860	32740	
981	0	32798	32846	
982	0	32880	32714	
983	0	32864	32767	
984	0	32868	32814	
985	0	32876	32634	
986	0	32800	32812	
987	0	32760	32771	
988	0	32802	32732	
989	0	32728	32708	
990	0	32720	32692	
991	0	32765	32728	
992	0	32778	32738	
993	0	32820	32769	
994	0	32776	32802	
995	0	32812	32711	
996	0	32804	32794	
997	0	32812	32788	
998	0	32920	32740	
999	0	32836	32795	
1000	0	32888	32898	
1001	0	32832	32792	
1002	0	32822	32758	
1003	0	32812	32730	
1004	0	32816	32806	
1005	0	32794	32772	
1006	0	32808	32774	
1007	0	32802	32702	
1008	0	32848	32806	
1009	0	32872	32775	
1010	0	32788	32836	
1011	0	32774	32712	
1012	0	32742	32772	
1013	0	32834	32884	
1014	0	32776	32695	
1015	0	32852	32708	
1016	0	32820	32826	
1017	0	32800	32775	
1018	0	32746	32742	
1019	0	32854	32788	
1020	0	32820	32728	
1021	0	32804	32698	
1022	0	32812	32718	
1023	0	32808	32800	
1024	0	32824	32804	
1025	0	32880	32772	
1026	0	32840	32812	
1027	0	32900	32877	
1028	0	32744	32672	
1029	0	32864	32774	
1030	0	32800	32790	
1031	0	32828	32846	
1032	0	32852	32724	
1033	0	32804	32774	
1034	0	32844	32764	
1035	0	32754	32768	
1036	0	32848	32692	
1037	0	32780	32751	
1038	0	32872	32746	
1039	0	32804	32674	
1040	0	32804	32698	
1041	0	32812	32862	
1042	0	32888	32734	
1043	0	32846	32748	
1044	0	32887	32774	
1045	0	32792	32798	
1046	0	32800	32775	
1047	0	32816	32726	
1048	0	32760	32742	
1049	0	32788	32762	
1050	0	32788	32846	
1051	0	32770	32660	
1052	0	32828	32836	
1053	0	32852	32762	
1054	0	32790	32738	
1055	0	32830	32783	
1056	0	32848	32742	
1057	0	32800	32830	
1058	0	32790	32806	
1059	0	32828	32752	
1060	0	32780	32756	
1061	0	32838	32769	
1062	0	32838	32732	
1063	0	32826	32740	
1064	0	32850	32775	
1065	0	32846	32852	
1066	0	32852	32858	
1067	0	32848	32746	
1068	0	32780	32726	
1069	0	32836	32716	
1070	0	32860	32864	
1071	0	32836	32676	
1072	0	32776	32839	
1073	0	32752	32726	
1074	0	32754	32724	
1075	0	32784	32667	
1076	0	32724	32724	
1077	0	32832	32804	
1078	0	32814	32711	
1079	0	32816	32734	
1080	0	32848	32799	
1081	0	32800	32743	
1082	0	32844	32840	
1083	0	32804	32742	
1084	0	32824	32766	
1085	0	32798	32834	
1086	0	32796	32746	
1087	0	32890	32768	
1088	0	32802	32671	
1089	0	32792	32828	
1090	0	32786	32807	
1091	0	32792	32748	
1092	0	32736	32686	
1093	0	32820	32775	
1094	0	32842	32820	
1095	0	32838	32692	
1096	0	32784	32840	
1097	0	32896	32759	
1098	0	32856	32771	
1099	0	32864	32775	
1100	0	32856	32840	
1101	0	32788	32743	
1102	0	32856	32754	
1103	0	32794	32730	
1104	0	32792	32742	
1105	0	32736	32814	
1106	0	32768	32738	
1107	0	32764	32768	
1108	0	32782	32842	
1109	0	32840	32674	
1110	0	32836	32860	
1111	0	32792	32839	
1112	0	32802	32722	
1113	0	32872	32834	
1114	0	32768	32775	
1115	0	32824	32721	
1116	0	32864	32834	
1117	0	32858	32770	
1118	0	32814	32688	
1119	0	32808	32786	
1120	0	32758	32731	
1121	0	32800	32712	
1122	0	32832	32696	
1123	0	32874	32761	
1124	0	32804	32800	
1125	0	32836	32788	
1126	0	32772	32806	
1127	0	32832	32830	
1128	0	32824	32858	
1129	0	32808	32760	
1130	0	32798	32782	
1131	0	32844	32817	
1132	0	32836	32740	
1133	0	32808	32775	
1134	0	32820	32711	
1135	0	32872	32844	
1136	0	32824	32824	
1137	0	32896	32706	
1138	0	32932	32770	
1139	0	32792	32754	
1140	0	32828	32768	
1141	0	32740	32732	
1142	0	32764	32692	
1143	0	32740	32771	
1144	0	32736	32728	
1145	0	32752	32708	
1146	0	32788	32844	
1147	0	32772	32720	
1148	0	32788	32798	
1149	0	32816	32822	
1150	0	32856	32660	
1151	0	32814	32830	
1152	0	32822	32736	
1153	0	32866	32844	
1154	0	32796	32737	
1155	0	32860	32790	
1156	0	32945	32756	
1157	0	32868	32775	
1158	0	32820	32711	
1159	0	32874	32800	
1160	0	32808	32710	
1161	0	32852	32714	
1162	0	32724	32788	
1163	0	32782	32792	
1164	0	32784	32824	
1165	0	32792	32720	
1166	0	32746	32811	
1167	0	32808	32794	
1168	0	32804	32758	
1169	0	32840	32772	
1170	0	32782	32807	
1171	0	32816	32775	
1172	0	32812	32824	
1173	0	32792	32770	
1174	0	32832	32743	
1175	0	32779	32784	
1176	0	32776	32816	
1177	0	32888	32708	
1178	0	32876	32744	
1179	0	32900	32804	
1180	0	32794	32676	
1181	0	32772	32830	
1182	0	32724	32694	
1183	0	32812	32678	
1184	0	32838	32838	
1185	0	32740	32772	
1186	0	32900	32738	
1187	0	32820	32710	
1188	0	32818	32900	
1189	0	32796	32807	
1190	0	32872	32826	
1191	0	32872	32774	
1192	0	32750	32750	
1193	0	32880	32832	
1194	0	32806	32762	
1195	0	32840	32796	
1196	0	32856	32720	
1197	0	32804	32718	
1198	0	32730	32724	
1199	0	32734	32770	
1200	0	32800	32706	
1201	0	32752	32806	
1202	0	32740	32811	
1203	0	32812	32800	
1204	0	32836	32804	
1205	0	32764	32734	
1206	0	32828	32775	
1207	0	32884	32718	
1208	0	32832	32647	
1209	0	32840	32775	
1210	0	32852	32782	
1211	0	32872	32647	
1212	0	32852	32750	
1213	0	32848	32814	
1214	0	32738	32835	
1215	0	32740	32806	
1216	0	32834	32836	
1217	0	32782	32708	
1218	0	32730	32772	
1219	0	32864	32756	
1220	0	32916	32720	
1221	0	32820	32766	
1222	0	32768	32782	
1223	0	32788	32804	
1224	0	32780	32647	
1225	0	32792	32823	
1226	0	32826	32810	
1227	0	32804	32638	
1228	0	32822	32838	
1229	0	32816	32768	
1230	0	32770	32668	
1231	0	32784	32768	
1232	0	32748	32744	
1233	0	32774	32717	
1234	0	32772	32766	
1235	0	32832	32825	
1236	0	32864	32750	
1237	0	32888	32734	
1238	0	32844	32825	
1239	0	32814	32811	
1240	0	32788	32812	
1241	0	32832	32716	
1242	0	32808	32750	
1243	0	32824	32719	
1244	0	32796	32807	
1245	0	32840	32711	
1246	0	32766	32647	
1247	0	32806	32830	
1248	0	32826	32792	
1249	0	32842	32708	
1250	0	32796	32746	
1251	0	32806	32895	
1252	0	32808	32820	
1253	0	32839	32806	
1254	0	32824	32720	
1255	0	32852	32694	
1256	0	32805	32817	
1257	0	32828	32816	
1258	0	32848	32652	
1259	0	32876	32836	
1260	0	32814	32818	
1261	0	32750	32766	
1262	0	32748	32775	
1263	0	32742	32665	
1264	0	32812	32727	
1265	0	32760	32729	
1266	0	32808	32730	
1267	0	32834	32695	
1268	0	32908	32838	
1269	0	32836	32806	
1270	0	32884	32775	
1271	0	32828	32727	
1272	0	32888	32900	
1273	0	32840	32798	
1274	0	32816	32682	
1275	0	32792	32722	
1276	0	32844	32844	
1277	0	32768	32642	
1278	0	32750	32846	
1279	0	32740	32744	
1280	0	32796	32806	
1281	0	32772	32684	
1282	0	32800	32775	
1283	0	32848	32746	
1284	0	32836	32770	
1285	0	32834	32738	
1286	0	32856	32807	
1287	0	32808	32842	
1288	0	32792	32837	
1289	0	32860	32712	
1290	0	32788	32794	
1291	0	32860	32740	
1292	0	32774	32852	
1293	0	32774	32632	
1294	0	32865	32862	
1295	0	32860	32784	
1296	0	32836	32775	
1297	0	32836	32719	
1298	0	32778	32724	
1299	0	32788	32794	
1300	0	32796	32769	
1301	0	32796	32680	
1302	0	32764	32758	
1303	0	32832	32772	
1304	0	32816	32895	
1305	0	32868	32660	
1306	0	32816	32764	
1307	0	32848	32804	
1308	0	32868	32866	
1309	0	32832	32775	
1310	0	32748	32734	
1311	0	32712	32774	
1312	0	32778	32836	
1313	0	32788	32766	
1314	0	32774	32750	
1315	0	32844	32814	
1316	0	32872	32756	
1317	0	32838	32644	
1318	0	32840	32788	
1319	0	32900	32758	
1320	0	32828	32743	
1321	0	32856	32802	
1322	0	32816	32812	
1323	0	32802	32874	
1324	0	32758	32743	
1325	0	32758	32879	
1326	0	32720	32752	
1327	0	32744	32828	
1328	0	32844	32834	
1329	0	32860	32726	
1330	0	32836	32775	
1331	0	32800	32752	
1332	0	32820	32754	
1333	0	32828	32790	
1334	0	32828	32732	
1335	0	32926	32814	
1336	0	32817	32878	
1337	0	32744	32840	
1338	0	32800	32868	
1339	0	32776	32759	
1340	0	32834	32760	
1341	0	32784	32751	
1342	0	32820	32775	
1343	0	32836	32735	
1344	0	32884	32826	
1345	0	32900	32878	
1346	0	32882	32786	
1347	0	32798	32872	
1348	0	32848	32976	
1349	0	32856	32920	
1350	0	32916	32756	
1351	0	32900	32817	
1352	0	32896	32699	
1353	0	32790	32586	
1354	0	32668	32647	
1355	0	32716	32559	
1356	0	32714	32579	
1357	0	32684	32656	
1358	0	32682	32398	
1359	0	32665	32356	
1360	0	32632	32550	
1361	0	32692	32564	
1362	0	32736	32616	
1363	0	32708	32775	
1364	0	32814	32686	
1365	0	32874	32796	
1366	0	32892	32734	
1367	0	32816	32807	
1368	0	32828	32806	
1369	0	32848	32966	
1370	0	32872	32794	
1371	0	32860	32836	
1372	0	32834	32942	
1373	0	32958	32924	
1374	0	32924	32858	
1375	0	32872	32944	
1376	0	32836	32830	
1377	0	32828	32810	
1378	0	32788	32950	
1379	0	32896	32870	
1380	0	32924	32934	
1381	0	32856	32794	
1382	0	32880	32784	
1383	0	32848	32775	
1384	0	32842	32775	
1385	0	32836	32796	
1386	0	32852	32808	
1387	0	32796	32658	
1388	0	32784	32672	
1389	0	32806	32762	
1390	0	32788	32788	
1391	0	32736	32800	
1392	0	32744	32706	
1393	0	32808	32608	
1394	0	32775	32734	
1395	0	32726	32742	
1396	0	32852	32708	
1397	0	32970	32772	
1398	0	32894	32788	
1399	0	32858	32718	
1400	0	32794	32673	
1401	0	32800	32804	
1402	0	32782	32775	
1403	0	32810	32858	
1404	0	32790	32766	
1405	0	32754	32739	
1406	0	32804	32842	
1407	0	32688	32822	
1408	0	32716	32760	
1409	0	32740	32774	
1410	0	32704	32756	
1411	0	32778	32740	
1412	0	32852	32828	
1413	0	32812	32772	
1414	0	32802	32711	
1415	0	32772	32714	
1416	0	32838	32796	
1417	0	32862	32734	
1418	0	32768	32856	
1419	0	32868	32736	
1420	0	32776	32836	
1421	0	32840	32794	
1422	0	32832	32769	
1423	0	32854	32808	
1424	0	32868	32792	
1425	0	32810	32746	
1426	0	32844	32858	
1427	0	32834	32752	
1428	0	32756	32830	
1429	0	32874	32800	
1430	0	32788	32614	
1431	0	32828	32770	
1432	0	32846	32739	
1433	0	32768	32863	
1434	0	32750	32839	
1435	0	32918	32798	
1436	0	32916	32690	
1437	0	32816	32832	
1438	0	32810	32710	
1439	0	32764	32772	
1440	0	32740	32711	
1441	0	32836	32696	
1442	0	32776	32655	
1443	0	32912	32794	
1444	0	32845	32774	
1445	0	32782	32808	
1446	0	32926	32720	
1447	0	32954	32743	
1448	0	32912	32804	
1449	0	32848	32866	
1450	0	32824	32854	
1451	0	32760	32687	
1452	0	32732	32838	
1453	0	32692	32912	
1454	0	32720	32848	
1455	0	32800	32752	
1456	0	32768	32812	
1457	0	32788	32710	
1458	0	32892	32696	
1459	0	32820	32793	
1460	0	32848	32769	
1461	0	32856	32775	
1462	0	32824	32756	
1463	0	32764	32766	
1464	0	32874	32696	
1465	0	32704	32820	
1466	0	32836	32771	
1467	0	32832	32838	
1468	0	32824	32708	
1469	0	32808	32798	
1470	0	32852	32878	
1471	0	32944	32816	
1472	0	32880	32736	
1473	0	32778	32732	
1474	0	32820	32838	
1475	0	32836	32766	
1476	0	32864	32705	
1477	0	32832	32839	
1478	0	32784	32726	
1479	0	32802	32786	
1480	0	32762	32743	
1481	0	32770	32682	
1482	0	32850	32820	
1483	0	32858	32875	
1484	0	32840	32714	
1485	0	32804	32884	
1486	0	32836	32775	
1487	0	32814	32654	
1488	0	32814	32738	
1489	0	32850	32748	
1490	0	32872	32765	
1491	0	32776	32807	
1492	0	32816	32796	
1493	0	32828	32772	
1494	0	32744	32769	
1495	0	32768	32862	
1496	0	32744	32775	
1497	0	32848	32784	
1498	0	32864	32766	
1499	0	32808	32826	
1500	0	32788	32726	
1501	0	32871	32684	
1502	0	32850	32662	
1503	0	32808	32800	
1504	0	32816	32702	
1505	0	32804	32843	
1506	0	32836	32676	
1507	0	32848	32762	
1508	0	32878	32836	
1509	0	32824	32766	
1510	0	32824	32782	
1511	0	32896	32756	
1512	0	32812	32692	
1513	0	32792	32786	
1514	0	32790	32860	
1515	0	32718	32804	
1516	0	32828	32748	
1517	0	32728	32725	
1518	0	32844	32754	
1519	0	32800	32816	
1520	0	32808	32734	
1521	0	32844	32874	
1522	0	32816	32786	
1523	0	32866	32708	
1524	0	32812	32746	
1525	0	32922	32860	
1526	0	32872	32728	
1527	0	32812	32880	
1528	0	32838	32718	
1529	0	32718	32754	
1530	0	32788	32800	
1531	0	32792	32694	
1532	0	32764	32824	
1533	0	32788	32692	
1534	0	32780	32688	
1535	0	32760	32824	
1536	0	32700	32716	
1537	0	32800	32807	
1538	0	32756	32689	
1539	0	32828	32752	
1540	0	32844	32748	
1541	0	32822	32806	
1542	0	32872	32752	
1543	0	32840	32726	
1544	0	32821	32846	
1545	0	32804	32860	
1546	0	32826	32826	
1547	0	32804	32885	
1548	0	32789	32695	
1549	0	32782	32743	
1550	0	32800	32814	
1551	0	32826	32718	
1552	0	32804	32862	
1553	0	32842	32628	
1554	0	32862	32734	
1555	0	32880	32844	
1556	0	32796	32831	
1557	0	32748	32758	
1558	0	32800	32850	
1559	0	32758	32668	
1560	0	32800	32754	
1561	0	32788	32756	
1562	0	32829	32828	
1563	0	32752	32646	
1564	0	32852	32767	
1565	0	32842	32804	
1566	0	32834	32767	
1567	0	32832	32892	
1568	0	32804	32740	
1569	0	32740	32702	
1570	0	32764	32748	
1571	0	32770	32804	
1572	0	32808	32844	
1573	0	32852	32800	
1574	0	32868	32804	
1575	0	32772	32775	
1576	0	32764	32725	
1577	0	32800	32770	
1578	0	32796	32846	
1579	0	32870	32700	
1580	0	32832	32644	
1581	0	32863	32860	
1582	0	32804	32759	
1583	0	32844	32792	
1584	0	32874	32750	
1585	0	32844	32679	
1586	0	32740	32810	
1587	0	32792	32738	
1588	0	32798	32775	
1589	0	32758	32678	
1590	0	32784	32772	
1591	0	32830	32864	
1592	0	32858	32758	
1593	0	32798	32647	
1594	0	32888	32736	
1595	0	32836	32740	
1596	0	32799	32774	
1597	0	32808	32700	
1598	0	32855	32862	
1599	0	32808	32730	
1600	0	32824	32820	
1601	0	32756	32754	
1602	0	32768	32750	
1603	0	32820	32748	
1604	0	32780	32784	
1605	0	32842	32704	
1606	0	32836	32704	
1607	0	32820	32858	
1608	0	32788	32856	
1609	0	32784	32728	
1610	0	32764	32710	
1611	0	32752	32775	
1612	0	32816	32897	
1613	0	32766	32812	
1614	0	32814	32712	
1615	0	32824	32830	
1616	0	32916	32730	
1617	0	32820	32747	
1618	0	32868	32704	
1619	0	32863	32719	
1620	0	32780	32788	
1621	0	32832	32687	
1622	0	32808	32775	
1623	0	32844	32704	
1624	0	32870	32766	
1625	0	32768	32696	
1626	0	32775	32722	
1627	0	32772	32801	
1628	0	32750	32868	
1629	0	32814	32774	
1630	0	32748	32762	
1631	0	32804	32764	
1632	0	32796	32756	
1633	0	32832	32775	
1634	0	32812	32878	
1635	0	32892	32675	
1636	0	32842	32764	
1637	0	32860	32698	
1638	0	32800	32832	
1639	0	32830	32760	
1640	0	32768	32750	
1641	0	32838	32708	
1642	0	32818	32676	
1643	0	32840	32830	
1644	0	32796	32830	
1645	0	32780	32748	
1646	0	32844	32822	
1647	0	32820	32738	
1648	0	32804	32674	
1649	0	32778	32775	
1650	0	32768	32832	
1651	0	32794	32806	
1652	0	32816	32756	
1653	0	32780	32646	
1654	0	32792	32722	
1655	0	32754	32818	
1656	0	32832	32730	
1657	0	32852	32732	
1658	0	32850	32732	
1659	0	32844	32857	
1660	0	32844	32711	
1661	0	32850	32807	
1662	0	32800	32740	
1663	0	32812	32871	
1664	0	32776	32660	
1665	0	32808	32646	
1666	0	32812	32816	
1667	0	32860	32775	
1668	0	32782	32848	
1669	0	32840	32698	
1670	0	32764	32852	
1671	0	32772	32716	
1672	0	32804	32775	
1673	0	32832	32716	
1674	0	32800	32846	
1675	0	32838	32766	
1676	0	32830	32694	
1677	0	32844	32828	
1678	0	32842	32764	
1679	0	32830	32835	
1680	0	32836	32692	
1681	0	32842	32722	
1682	0	32796	32817	
1683	0	32900	32854	
1684	0	32800	32810	
1685	0	32788	32668	
1686	0	32748	32822	
1687	0	32810	32728	
1688	0	32744	32771	
1689	0	32816	32710	
1690	0	32832	32818	
1691	0	32872	32814	
1692	0	32826	32800	
1693	0	32814	32724	
1694	0	32808	32824	
1695	0	32820	32772	
1696	0	32808	32775	
1697	0	32828	32750	
1698	0	32794	32738	
1699	0	32828	32756	
1700	0	32856	32775	
1701	0	32856	32839	
1702	0	32837	32678	
1703	0	32792	32641	
1704	0	32762	32849	
1705	0	32796	32719	
1706	0	32864	32826	
1707	0	32806	32682	
1708	0	32804	32768	
1709	0	32796	32800	
1710	0	32816	32824	
1711	0	32780	32743	
1712	0	32810	32828	
1713	0	32838	32764	
1714	0	32841	32807	
1715	0	32848	32774	
1716	0	32840	32775	
1717	0	32736	32816	
1718	0	32746	32775	
1719	0	32804	32676	
1720	0	32814	32779	
1721	0	32788	32864	
1722	0	32848	32752	
1723	0	32832	32750	
1724	0	32862	32740	
1725	0	32798	32815	
1726	0	32774	32758	
1727	0	32780	32775	
1728	0	32832	32687	
1729	0	32796	32766	
1730	0	32794	32832	
1731	0	32950	32790	
1732	0	32838	32647	
1733	0	32740	32838	
1734	0	32808	32826	
1735	0	32816	32700	
1736	0	32834	32838	
1737	0	32732	32820	
1738	0	32824	32720	
1739	0	32784	32864	
1740	0	32828	32744	
1741	0	32852	32756	
1742	0	32864	32655	
1743	0	32868	32750	
1744	0	32740	32812	
1745	0	32804	32762	
1746	0	32882	32794	
1747	0	32897	32740	
1748	0	32788	32767	
1749	0	32880	32844	
1750	0	32796	32792	
1751	0	32798	32774	
1752	0	32792	32740	
1753	0	32748	32730	
1754	0	32816	32720	
1755	0	32800	32775	
1756	0	32804	32766	
1757	0	32820	32772	
1758	0	32858	32804	
1759	0	32896	32688	
1760	0	32751	32679	
1761	0	32788	32912	
1762	0	32864	32748	
1763	0	32884	32760	
1764	0	32796	32758	
1765	0	32720	32668	
1766	0	32792	32760	
1767	0	32728	32795	
1768	0	32852	32862	
1769	0	32828	32772	
1770	0	32788	32836	
1771	0	32824	32802	
1772	0	32816	32774	
1773	0	32794	32676	
1774	0	32704	32866	
1775	0	32788	32770	
1776	0	32810	32798	
1777	0	32812	32714	
1778	0	32812	32756	
1779	0	32834	32834	
1780	0	32768	32806	
1781	0	32800	32742	
1782	0	32844	32854	
1783	0	32836	32928	
1784	0	32818	32766	
1785	0	32884	32647	
1786	0	32848	32775	
1787	0	32788	32734	
1788	0	32778	32660	
1789	0	32794	32816	
1790	0	32764	32824	
1791	0	32792	32810	
1792	0	32856	32746	
1793	0	32780	32793	
1794	0	32788	32798	
1795	0	32800	32678	
1796	0	32798	32808	
1797	0	32804	32794	
1798	0	32832	32800	
1799	0	32800	32770	
1800	0	32840	32775	
1801	0	32850	32743	
1802	0	32836	32798	
1803	0	32788	32656	
1804	0	32808	32810	
1805	0	32800	32820	
1806	0	32796	32742	
1807	0	32796	32774	
1808	0	32808	32830	
1809	0	32848	32775	
1810	0	32808	32764	
1811	0	32808	32734	
1812	0	32840	32786	
1813	0	32776	32850	
1814	0	32800	32678	
1815	0	32786	32812	
1816	0	32808	32775	
1817	0	32872	32738	
1818	0	32880	32598	
1819	0	32816	32748	
1820	0	32868	32736	
1821	0	32836	32799	
1822	0	32784	32807	
1823	0	32764	32736	
1824	0	32812	32756	
1825	0	32796	32730	
1826	0	32708	32750	
1827	0	32724	32775	
1828	0	32820	32712	
1829	0	32732	32828	
1830	0	32736	32775	
1831	0	32720	32854	
1832	0	32820	32707	
1833	0	32790	32807	
1834	0	32886	32816	
1835	0	32864	32775	
1836	0	32800	32791	
1837	0	32852	32794	
1838	0	32836	32732	
1839	0	32872	32917	
1840	0	32844	32816	
1841	0	32820	32856	
1842	0	32854	32682	
1843	0	32842	32774	
1844	0	32768	32734	
1845	0	32804	32839	
1846	0	32784	32694	
1847	0	32828	32750	
1848	0	32784	32770	
1849	0	32738	32818	
1850	0	32808	32804	
1851	0	32808	32714	
1852	0	32772	32849	
1853	0	32804	32716	
1854	0	32820	32796	
1855	0	32806	32774	
1856	0	32852	32764	
1857	0	32820	32816	
1858	0	32786	32775	
1859	0	32832	32874	
1860	0	32846	32664	
1861	0	32852	32720	
1862	0	32766	32812	
1863	0	32828	32786	
1864	0	32784	32716	
1865	0	32862	32750	
1866	0	32866	32839	
1867	0	32834	32852	
1868	0	32816	32762	
1869	0	32812	32766	
1870	0	32782	32801	
1871	0	32778	32775	
1872	0	32740	32856	
1873	0	32756	32666	
1874	0	32756	32839	
1875	0	32852	32734	
1876	0	32814	32692	
1877	0	32842	32789	
1878	0	32848	32842	
1879	0	32798	32816	
1880	0	32820	32773	
1881	0	32744	32650	
1882	0	32732	32799	
1883	0	32776	32808	
1884	0	32824	32806	
1885	0	32852	32732	
1886	0	32872	32820	
1887	0	32804	32686	
1888	0	32794	32884	
1889	0	32788	32731	
1890	0	32820	32702	
1891	0	32842	32812	
1892	0	32816	32807	
1893	0	32786	32732	
1894	0	32804	32724	
1895	0	32816	32700	
1896	0	32880	32726	
1897	0	32832	32735	
1898	0	32772	32827	
1899	0	32720	32644	
1900	0	32732	32742	
1901	0	32742	32726	
1902	0	32848	32756	
1903	0	32812	32874	
1904	0	32808	32775	
1905	0	32786	32748	
1906	0	32768	32804	
1907	0	32772	32852	
1908	0	32852	32816	
1909	0	32820	32834	
1910	0	32832	32688	
1911	0	32842	32775	
1912	0	32798	32903	
1913	0	32810	32714	
1914	0	32852	32727	
1915	0	32816	32842	
1916	0	32778	32810	
1917	0	32836	32831	
1918	0	32816	32704	
1919	0	32792	32768	
1920	0	32780	32704	
1921	0	32788	32772	
1922	0	32764	32692	
1923	0	32862	32792	
1924	0	32760	32728	
1925	0	32828	32770	
1926	0	32800	32721	
1927	0	32802	32754	
1928	0	32816	32775	
1929	0	32810	32820	
1930	0	32832	32775	
1931	0	32848	32714	
1932	0	32804	32855	
1933	0	32836	32772	
1934	0	32844	32846	
1935	0	32860	32678	
1936	0	32772	32902	
1937	0	32790	32750	
1938	0	32874	32822	
1939	0	32816	32624	
1940	0	32736	32740	
1941	0	32772	32724	
1942	0	32716	32742	
1943	0	32772	32790	
1944	0	32748	32586	
1945	0	32820	32844	
1946	0	32852	32816	
1947	0	32866	32903	
1948	0	32868	32768	
1949	0	32834	32607	
1950	0	32852	32704	
1951	0	32758	32800	
1952	0	32866	32740	
1953	0	32871	32862	
1954	0	32856	32760	
1955	0	32808	32718	
1956	0	32740	32843	
1957	0	32726	32817	
1958	0	32804	32775	
1959	0	32761	32748	
1960	0	32784	32817	
1961	0	32848	32775	
1962	0	32856	32730	
1963	0	32802	32798	
1964	0	32824	32698	
1965	0	32844	32715	
1966	0	32836	32769	
1967	0	32828	32772	
1968	0	32820	32816	
1969	0	32808	32663	
1970	0	32804	32774	
1971	0	32846	32829	
1972	0	32840	32830	
1973	0	32816	32682	
1974	0	32816	32758	
1975	0	32876	32849	
1976	0	32782	32772	
1977	0	32836	32692	
1978	0	32844	32742	
1979	0	32786	32756	
1980	0	32768	32810	
1981	0	32864	32712	
1982	0	32820	32824	
1983	0	32820	32702	
1984	0	32868	32752	
1985	0	32746	32704	
1986	0	32752	32700	
1987	0	32836	32774	
1988	0	32828	32808	
1989	0	32792	32689	
1990	0	32888	32696	
1991	0	32792	32742	
1992	0	32798	32862	
1993	0	32804	32646	
1994	0	32828	32806	
1995	0	32783	32838	
1996	0	32772	32775	
1997	0	32816	32712	
1998	0	32864	32820	
1999	0	32830	32742	
2000	0	32812	32825	
2001	0	32766	32764	
2002	0	32808	32734	
2003	0	32798	32775	
2004	0	32775	32714	
2005	0	32774	32814	
2006	0	32884	32724	
2007	0	32766	32679	
2008	0	32764	32816	
2009	0	32856	32778	
2010	0	32772	32810	
2011	0	32798	32745	
2012	0	32810	32818	
2013	0	32824	32768	
2014	0	32796	32886	
2015	0	32806	32732	
2016	0	32836	32724	
2017	0	32872	32854	
2018	0	32792	32836	
2019	0	32858	32798	
2020	0	32816	32753	
2021	0	32832	32870	
2022	0	32796	32838	
2023	0	32854	32728	
2024	0	32776	32772	
2025	0	32828	32828	
2026	0	32812	32810	
2027	0	32834	32774	
2028	0	32784	32714	
2029	0	32784	32775	
2030	0	32798	32868	
2031	0	32856	32814	
2032	0	32852	32764	
2033	0	32812	32770	
2034	0	32812	32839	
2035	0	32832	32768	
2036	0	32820	32748	
2037	0	32828	32734	
2038	0	32754	32804	
2039	0	32816	32812	
2040	0	32816	32858	
2041	0	32848	32880	
2042	0	32878	32730	
2043	0	32832	32828	
2044	0	32902	32854	
2045	0	32932	32860	
2046	0	32894	32838	
2047	0	32830	32854	
2048	0	32808	32740	
2049	0	32818	32630	
2050	0	32677	32591	
2051	0	32696	32575	
2052	0	32620	32648	
2053	0	32708	32513	
2054	0	32656	32348	
2055	0	32692	32370	
2056	0	32644	32494	
2057	0	32698	32484	
2058	0	32696	32615	
2059	0	32760	32670	
2060	0	32766	32671	
2061	0	32862	32708	
2062	0	32782	32800	
2063	0	32852	32854	
2064	0	32854	32890	
2065	0	32870	32784	
2066	0	32856	32814	
2067	0	32764	32966	
2068	0	32832	32856	
2069	0	32916	32871	
2070	0	32926	32962	
2071	0	32886	32900	
2072	0	32880	32847	
2073	0	32832	32818	
2074	0	32906	32814	
2075	0	32884	32887	
2076	0	32902	32839	
2077	0	32888	32804	
2078	0	32848	32862	
2079	0	32812	32860	
2080	0	32780	32756	
2081	0	32858	32775	
2082	0	32790	32759	
2083	0	32821	32740	
2084	0	32768	32806	
2085	0	32782	32804	
2086	0	32832	32712	
2087	0	32814	32694	
2088	0	32746	32694	
2089	0	32806	32796	
2090	0	32816	32696	
2091	0	32764	32775	
2092	0	32832	32720	
2093	0	32800	32660	
2094	0	32848	32697	
2095	0	32848	32786	
2096	0	32816	32754	
2097	0	32780	32736	
2098	0	32876	32822	
2099	0	32820	32743	
2100	0	32750	32664	
2101	0	32826	32730	
2102	0	32848	32784	
2103	0	32836	32760	
2104	0	32858	32852	
2105	0	32788	32711	
2106	0	32820	32812	
2107	0	32817	32798	
2108	0	32864	32746	
2109	0	32794	32806	
2110	0	32856	32660	
2111	0	32708	32714	
2112	0	32780	32758	
2113	0	32840	32828	
2114	0	32804	32786	
2115	0	32782	32871	
2116	0	32852	32754	
2117	0	32876	32727	
2118	0	32822	32807	
2119	0	32816	32838	
2120	0	32758	32686	
2121	0	32816	32800	
2122	0	32846	32670	
2123	0	32860	32687	
2124	0	32788	32822	
2125	0	32790	32740	
2126	0	32868	32748	
2127	0	32830	32710	
2128	0	32772	32726	
2129	0	32736	32678	
2130	0	32740	32812	
2131	0	32740	32800	
2132	0	32828	32868	
2133	0	32774	32746	
2134	0	32816	32644	
2135	0	32800	32708	
2136	0	32840	32852	
2137	0	32776	32824	
2138	0	32898	32794	
2139	0	32884	32804	
2140	0	32816	32710	
2141	0	32852	32764	
2142	0	32852	32820	
2143	0	32768	32838	
2144	0	32852	32743	
2145	0	32804	32900	
2146	0	32906	32647	
2147	0	32860	32644	
2148	0	32796	32811	
2149	0	32762	32794	
2150	0	32824	32687	
2151	0	32832	32820	
2152	0	32842	32684	
2153	0	32798	32810	
2154	0	32700	32708	
2155	0	32906	32826	
2156	0	32824	32828	
2157	0	32732	32774	
2158	0	32770	32704	
2159	0	32856	32722	
2160	0	32752	32822	
2161	0	32836	32775	
2162	0	32820	32760	
2163	0	32796	32706	
2164	0	32774	32844	
2165	0	32860	32810	
2166	0	32880	32746	
2167	0	32764	32708	
2168	0	32772	32786	
2169	0	32828	32762	
2170	0	32876	32798	
2171	0	32830	32676	
2172	0	32754	32774	
2173	0	32868	32798	
2174	0	32806	32826	
2175	0	32840	32714	
2176	0	32842	32722	
2177	0	32852	32682	
2178	0	32878	32852	
2179	0	32808	32796	
2180	0	32834	32828	
2181	0	32848	32632	
2182	0	32834	32739	
2183	0	32772	32870	
2184	0	32764	32796	
2185	0	32796	32860	
2186	0	32796	32752	
2187	0	32844	32768	
2188	0	32830	32717	
2189	0	32786	32775	
2190	0	32838	32840	
2191	0	32872	32794	
2192	0	32888	32754	
2193	0	32756	32716	
2194	0	32740	32742	
2195	0	32768	32676	
2196	0	32772	32840	
2197	0	32784	32775	
2198	0	32774	32811	
2199	0	32914	32848	
2200	0	32888	32804	
2201	0	32868	32692	
2202	0	32860	32710	
2203	0	32812	32744	
2204	0	32810	32634	
2205	0	32780	32716	
2206	0	32778	32860	
2207	0	32808	32920	
2208	0	32800	32782	
2209	0	32796	32752	
2210	0	32810	32775	
2211	0	32816	32732	
2212	0	32824	32718	
2213	0	32728	32746	
2214	0	32840	32738	
2215	0	32824	32814	
2216	0	32772	32840	
2217	0	32858	32743	
2218	0	32824	32730	
2219	0	32744	32836	
2220	0	32800	32807	
2221	0	32796	32828	
2222	0	32864	32854	
2223	0	32764	32754	
2224	0	32796	32732	
2225	0	32932	32736	
2226	0	32832	32674	
2227	0	32862	32828	
2228	0	32860	32766	
2229	0	32740	32820	
2230	0	32812	32743	
2231	0	32828	32752	
2232	0	32800	32722	
2233	0	32794	32702	
2234	0	32784	32614	
2235	0	32818	32770	
2236	0	32804	32846	
2237	0	32866	32772	
2238	0	32852	32794	
2239	0	32842	32818	
2240	0	32798	32730	
2241	0	32804	32708	
2242	0	32874	32748	
2243	0	32860	32836	
2244	0	32836	32732	
2245	0	32836	32714	
2246	0	32716	32768	
2247	0	32810	32816	
2248	0	32802	32903	
2249	0	32812	32704	
2250	0	32780	32743	
2251	0	32786	32775	
2252	0	32752	32762	
2253	0	32760	32782	
2254	0	32808	32826	
2255	0	32812	32764	
2256	0	32798	32738	
2257	0	32846	32775	
2258	0	32808	32770	
2259	0	32778	32812	
2260	0	32892	32775	
2261	0	32752	32814	
2262	0	32820	32808	
2263	0	32820	32767	
2264	0	32800	32686	
2265	0	32820	32697	
2266	0	32844	32785	
2267	0	32832	32774	
2268	0	32778	32884	
2269	0	32746	32812	
2270	0	32764	32775	
2271	0	32752	32718	
2272	0	32776	32742	
2273	0	32746	32775	
2274	0	32876	32753	
2275	0	32808	32838	
2276	0	32878	32679	
2277	0	32896	32689	
2278	0	32828	32750	
2279	0	32774	32804	
2280	0	32808	32734	
2281	0	32860	32816	
2282	0	32832	32696	
2283	0	32846	32661	
2284	0	32758	32732	
2285	0	32896	32806	
2286	0	32802	32834	
2287	0	32780	32775	
2288	0	32824	32774	
2289	0	32740	32855	
2290	0	32784	32769	
2291	0	32776	32810	
2292	0	32796	32720	
2293	0	32776	32660	
2294	0	32832	32762	
2295	0	32820	32834	
2296	0	32818	32820	
2297	0	32832	32804	
2298	0	32808	32808	
2299	0	32788	32679	
2300	0	32794	32784	
2301	0	32744	32784	
2302	0	32832	32742	
2303	0	32812	32676	
2304	0	32828	32678	
2305	0	32896	32734	
2306	0	32862	32884	
2307	0	32804	32711	
2308	0	32824	32668	
2309	0	32836	32852	
2310	0	32788	32796	
2311	0	32852	32810	
2312	0	32772	32722	
2313	0	32780	32666	
2314	0	32802	32879	
2315	0	32868	32766	
2316	0	32826	32746	
2317	0	32852	32740	
2318	0	32840	32769	
2319	0	32872	32753	
2320	0	32810	32830	
2321	0	32778	32804	
2322	0	32728	32750	
2323	0	32740	32772	
2324	0	32806	32822	
2325	0	32776	32752	
2326	0	32832	32775	
2327	0	32784	32736	
2328	0	32802	32784	
2329	0	32792	32775	
2330	0	32884	32832	
2331	0	32852	32774	
2332	0	32792	32756	
2333	0	32856	32636	
2334	0	32812	32798	
2335	0	32780	32738	
2336	0	32832	32860	
2337	0	32856	32838	
2338	0	32816	32698	
2339	0	32810	32768	
2340	0	32856	32834	
2341	0	32750	32784	
2342	0	32801	32746	
2343	0	32816	32744	
2344	0	32814	32724	
2345	0	32806	32682	
2346	0	32840	32839	
2347	0	32772	32702	
2348	0	32800	32762	
2349	0	32802	32756	
2350	0	32752	32748	
2351	0	32772	32894	
2352	0	32738	32864	
2353	0	32760	32679	
2354	0	32780	32844	
2355	0	32852	32810	
2356	0	32836	32702	
2357	0	32878	32892	
2358	0	32814	32728	
2359	0	32786	32841	
2360	0	32836	32736	
2361	0	32890	32764	
2362	0	32856	32764	
2363	0	32820	32832	
2364	0	32804	32798	
2365	0	32812	32726	
2366	0	32736	32820	
2367	0	32808	32740	
2368	0	32768	32742	
2369	0	32722	32604	
2370	0	32776	32734	
2371	0	32816	32798	
2372	0	32796	32830	
2373	0	32800	32711	
2374	0	32904	32772	
2375	0	32868	32838	
2376	0	32868	32800	
2377	0	32872	32775	
2378	0	32716	32796	
2379	0	32824	32806	
2380	0	32760	32796	
2381	0	32804	32618	
2382	0	32772	32740	
2383	0	32808	32764	
2384	0	32766	32820	
2385	0	32844	32696	
2386	0	32824	32824	
2387	0	32828	32774	
2388	0	32864	32806	
2389	0	32808	32744	
2390	0	32726	32743	
2391	0	32804	32712	
2392	0	32804	32808	
2393	0	32764	32700	
2394	0	32720	32646	
2395	0	32774	32810	
2396	0	32752	32714	
2397	0	32838	32775	
2398	0	32820	32798	
2399	0	32808	32704	
2400	0	32808	32796	
2401	0	32792	32686	
2402	0	32858	32718	
2403	0	32866	32824	
2404	0	32788	32756	
2405	0	32726	32858	
2406	0	32896	32674	
2407	0	32760	32794	
2408	0	32812	32838	
2409	0	32812	32894	
2410	0	32764	32724	
2411	0	32823	32804	
2412	0	32860	32802	
2413	0	32794	32770	
2414	0	32836	32694	
2415	0	32872	32734	
2416	0	32856	32820	
2417	0	32838	32772	
2418	0	32810	32732	
2419	0	32838	32772	
2420	0	32816	32794	
2421	0	32852	32844	
2422	0	32892	32708	
2423	0	32716	32838	
2424	0	32768	32862	
2425	0	32790	32778	
2426	0	32756	32834	
2427	0	32814	32754	
2428	0	32824	32794	
2429	0	32826	32840	
2430	0	32824	32871	
2431	0	32830	32740	
2432	0	32936	32752	
2433	0	32788	32818	
2434	0	32828	32789	
2435	0	32842	32775	
2436	0	32820	32686	
2437	0	32872	32661	
2438	0	32772	32740	
2439	0	32796	32751	
2440	0	32832	32754	
2441	0	32788	32720	
2442	0	32804	32728	
2443	0	32752	32740	
2444	0	32886	32775	
2445	0	32768	32807	
2446	0	32826	32788	
2447	0	32864	32678	
2448	0	32770	32895	
2449	0	32792	32740	
2450	0	32792	32838	
2451	0	32764	32740	
2452	0	32770	32775	
2453	0	32804	32766	
2454	0	32816	32808	
2455	0	32828	32704	
2456	0	32814	32742	
2457	0	32786	32730	
2458	0	32834	32756	
2459	0	32812	32862	
2460	0	32814	32664	
2461	0	32760	32764	
2462	0	32776	32740	
2463	0	32764	32775	
2464	0	32800	32732	
2465	0	32826	32860	
2466	0	32799	32766	
2467	0	32792	32775	
2468	0	32866	32720	
2469	0	32810	32775	
2470	0	32706	32788	
2471	0	32732	32775	
2472	0	32828	32752	
2473	0	32792	32696	
2474	0	32776	32822	
2475	0	32812	32818	
2476	0	32764	32836	
2477	0	32836	32702	
2478	0	32884	32680	
2479	0	32780	32790	
2480	0	32848	32775	
2481	0	32848	32810	
2482	0	32836	32770	
2483	0	32850	32662	
2484	0	32832	32682	
2485	0	32796	32822	
2486	0	32806	32866	
2487	0	32834	32750	
2488	0	32828	32796	
2489	0	32844	32756	
2490	0	32806	32746	
2491	0	32818	32768	
2492	0	32770	32820	
2493	0	32804	32854	
2494	0	32776	32710	
2495	0	32740	32712	
2496	0	32816	32822	
2497	0	32834	32832	
2498	0	32824	32858	
2499	0	32754	32732	
2500	0	32848	32850	
2501	0	32804	32721	
2502	0	32808	32735	
2503	0	32844	32740	
2504	0	32806	32772	
2505	0	32874	32768	
2506	0	32748	32751	
2507	0	32792	32724	
2508	0	32872	32793	
2509	0	32788	32838	
2510	0	32810	32702	
2511	0	32748	32758	
2512	0	32748	32724	
2513	0	32860	32790	
2514	0	32810	32714	
2515	0	32812	32756	
2516	0	32804	32775	
2517	0	32865	32720	
2518	0	32760	32730	
2519	0	32862	32775	
2520	0	32900	32832	
2521	0	32840	32866	
2522	0	32734	32802	
2523	0	32744	32656	
2524	0	32756	32746	
2525	0	32758	32828	
2526	0	32788	32742	
2527	0	32756	32688	
2528	0	32752	32810	
2529	0	32856	32796	
2530	0	32840	32738	
2531	0	32788	32772	
2532	0	32832	32818	
2533	0	32824	32730	
2534	0	32862	32756	
2535	0	32828	32700	
2536	0	32860	32884	
2537	0	32840	32800	
2538	0	32810	32719	
2539	0	32896	32734	
2540	0	32858	32864	
2541	0	32784	32774	
2542	0	32788	32676	
2543	0	32788	32724	
2544	0	32820	32770	
2545	0	32792	32806	
2546	0	32788	32724	
2547	0	32800	32695	
2548	0	32804	32754	
2549	0	32946	32772	
2550	0	32978	32688	
2551	0	33066	32718	
2552	0	32928	32758	
2553	0	32846	32801	
2554	0	32680	32636	
2555	0	32728	32842	
2556	0	32725	32790	
2557	0	32666	32832	
2558	0	32706	32746	
2559	0	32664	32756	
2560	0	32648	32840	
2561	0	32638	32786	
2562	0	32744	32775	
2563	0	32820	32716	
2564	0	32752	32804	
2565	0	32760	32716	
2566	0	32772	32804	
2567	0	32832	32662	
2568	0	32872	32699	
2569	0	32812	32646	
2570	0	32848	32832	
2571	0	32896	32832	
2572	0	32840	32710	
2573	0	32866	32810	
2574	0	32860	32775	
2575	0	32865	32824	
2576	0	32874	32657	
2577	0	32858	32774	
2578	0	32878	32775	
2579	0	32840	32686	
2580	0	32810	32738	
2581	0	32764	32817	
2582	0	32788	32812	
2583	0	32860	32738	
2584	0	32788	32844	
2585	0	32830	32818	
2586	0	32796	32685	
2587	0	32876	32740	
2588	0	32804	32775	
2589	0	32792	32808	
2590	0	32804	32696	
2591	0	32824	32812	
2592	0	32816	32750	
2593	0	32774	32736	
2594	0	32808	32700	
2595	0	32811	32885	
2596	0	32810	32828	
2597	0	32764	32748	
2598	0	32768	32805	
2599	0	32760	32759	
2600	0	32854	32828	
2601	0	32848	32730	
2602	0	32828	32868	
2603	0	32770	32799	
2604	0	32900	32772	
2605	0	32820	32714	
2606	0	32856	32744	
2607	0	32775	32743	
2608	0	32750	32792	
2609	0	32820	32703	
2610	0	32850	32826	
2611	0	32818	32756	
2612	0	32788	32756	
2613	0	32804	32788	
2614	0	32696	32770	
2615	0	32872	32702	
2616	0	32872	32711	
2617	0	32938	32872	
2618	0	32834	32810	
2619	0	32812	32830	
2620	0	32816	32692	
2621	0	32688	32726	
2622	0	32788	32775	
2623	0	32775	32718	
2624	0	32842	32784	
2625	0	32808	32670	
2626	0	32758	32812	
2627	0	32946	32720	
2628	0	33038	32838	
2629	0	32910	32674	
2630	0	32912	32684	
2631	0	32820	32874	
2632	0	32804	32830	
2633	0	32776	32850	
2634	0	32684	32711	
2635	0	32636	32804	
2636	0	32638	32775	
2637	0	32688	32784	
2638	0	32660	32750	
2639	0	32798	32640	
2640	0	32825	32775	
2641	0	32780	32720	
2642	0	32888	32662	
2643	0	32824	32702	
2644	0	32770	32742	
2645	0	32792	32704	
2646	0	32872	32834	
2647	0	32804	32741	
2648	0	32744	32820	
2649	0	32740	32772	
2650	0	32796	32850	
2651	0	32808	32840	
2652	0	32782	32756	
2653	0	32792	32732	
2654	0	32980	32798	
2655	0	32842	32782	
2656	0	32912	32764	
2657	0	32868	32768	
2658	0	32924	32798	
2659	0	32804	32832	
2660	0	32904	32680	
2661	0	32746	32814	
2662	0	32768	32750	
2663	0	32746	32723	
2664	0	32820	32691	
2665	0	32740	32654	
2666	0	32804	32834	
2667	0	32776	32756	
2668	0	32822	32871	
2669	0	32810	32646	
2670	0	32810	32828	
2671	0	32784	32730	
2672	0	32826	32750	
2673	0	32864	32732	
2674	0	32890	32802	
2675	0	32802	32775	
2676	0	32818	32670	
2677	0	32806	32872	
2678	0	32752	32826	
2679	0	32796	32814	
2680	0	32820	32743	
2681	0	32808	32757	
2682	0	32792	32806	
2683	0	32802	32802	
2684	0	32832	32712	
2685	0	32804	32871	
2686	0	32824	32748	
2687	0	32898	32725	
2688	0	32850	32728	
2689	0	32896	32812	
2690	0	32824	32807	
2691	0	32860	32664	
2692	0	32770	32798	
2693	0	32796	32806	
2694	0	32844	32836	
2695	0	32748	32710	
2696	0	32760	32878	
2697	0	32750	32798	
2698	0	32764	32678	
2699	0	32756	32802	
2700	0	32848	32782	
2701	0	32844	32716	
2702	0	32828	32828	
2703	0	32834	32692	
2704	0	32810	32688	
2705	0	32848	32732	
2706	0	32962	32818	
2707	0	32924	32802	
2708	0	32812	32829	
2709	0	32774	32696	
2710	0	32706	32830	
2711	0	32772	32743	
2712	0	32768	32752	
2713	0	32764	32756	
2714	0	32762	32772	
2715	0	32832	32828	
2716	0	32840	32710	
2717	0	32832	32742	
2718	0	32740	32762	
2719	0	32820	32752	
2720	0	32782	32806	
2721	0	32840	32714	
2722	0	32880	32711	
2723	0	32840	32913	
2724	0	32792	32830	
2725	0	32816	32724	
2726	0	32790	32711	
2727	0	32832	32762	
2728	0	32804	32838	
2729	0	32808	32865	
2730	0	32856	32812	
2731	0	32834	32902	
2732	0	32854	32842	
2733	0	32852	32894	
2734	0	32952	32750	
2735	0	32876	32870	
2736	0	32872	32890	
2737	0	32996	32774	
2738	0	32900	32806	
2739	0	32836	32927	
2740	0	32832	32812	
2741	0	32800	32846	
2742	0	32740	32740	
2743	0	32750	32632	
2744	0	32654	32548	
2745	0	32660	32400	
2746	0	32640	32611	
2747	0	32604	32546	
2748	0	32568	32420	
2749	0	32516	32486	
2750	0	32592	32416	
2751	0	32686	32506	
2752	0	32788	32628	
2753	0	32792	32784	
2754	0	32744	32836	
2755	0	32836	32775	
2756	0	32850	32927	
2757	0	32908	32935	
2758	0	32872	32756	
2759	0	32858	32868	
2760	0	32956	32903	
2761	0	32930	32775	
2762	0	32964	32986	
2763	0	32978	32838	
2764	0	32876	32896	
2765	0	32848	32799	
2766	0	32776	32842	
2767	0	32884	32876	
2768	0	32828	32775	
2769	0	32860	33000	
2770	0	32830	32898	
2771	0	32740	32856	
2772	0	32772	32822	
2773	0	32886	32903	
2774	0	32964	32854	
2775	0	32960	32655	
2776	0	32928	32748	
2777	0	32846	32764	
2778	0	32792	32702	
2779	0	32776	32850	
2780	0	32688	32798	
2781	0	32740	32806	
2782	0	32754	32658	
2783	0	32782	32790	
2784	0	32728	32736	
2785	0	32700	32711	
2786	0	32662	32860	
2787	0	32712	32720	
2788	0	32694	32692	
2789	0	32796	32686	
2790	0	32800	32710	
2791	0	32784	32794	
2792	0	32952	32636	
2793	0	32890	32740	
2794	0	32904	32788	
2795	0	32944	32716	
2796	0	32980	32838	
2797	0	33134	32769	
2798	0	33036	32715	
2799	0	32892	32836	
2800	0	32988	32811	
2801	0	32938	32772	
2802	0	32878	32692	
2803	0	32624	32820	
2804	0	32684	32748	
2805	0	32576	32726	
2806	0	32474	32752	
2807	0	32632	32854	
2808	0	32692	32834	
2809	0	32788	32666	
2810	0	32746	32727	
2811	0	32702	32770	
2812	0	32768	32750	
2813	0	32708	32754	
2814	0	32644	32774	
2815	0	32698	32804	
2816	0	32668	32676	
2817	0	32736	32676	
2818	0	32772	32764	
2819	0	32852	32790	
2820	0	32856	32770	
2821	0	32912	32750	
2822	0	32882	32902	
2823	0	32936	32816	
2824	0	32984	32860	
2825	0	32944	32687	
2826	0	32956	32734	
2827	0	32836	32732	
2828	0	32840	32732	
2829	0	32970	32561	
2830	0	33004	32583	
2831	0	32906	32654	
2832	0	32848	32622	
2833	0	32764	32743	
2834	0	32744	32775	
2835	0	32688	32960	
2836	0	32759	32930	
2837	0	32842	33052	
2838	0	32912	32940	
2839	0	32930	32938	
2840	0	32928	32854	
2841	0	32838	32976	
2842	0	32712	32913	
2843	0	32836	32784	
2844	0	32812	32862	
2845	0	32828	32714	
2846	0	32812	32634	
2847	0	32816	32636	
2848	0	32700	32754	
2849	0	32611	32748	
2850	0	32544	32605	
2851	0	32557	32764	
2852	0	32576	32746	
2853	0	32658	32665	
2854	0	32640	32743	
2855	0	32708	32775	
2856	0	32766	32692	
2857	0	32804	32834	
2858	0	32812	32751	
2859	0	32836	32761	
2860	0	32864	32766	
2861	0	32796	32832	
2862	0	32808	32728	
2863	0	32846	32743	
2864	0	32918	32740	
2865	0	32904	32698	
2866	0	32996	32736	
2867	0	32936	32652	
2868	0	33080	32871	
2869	0	33172	32794	
2870	0	33160	32764	
2871	0	33116	32711	
2872	0	32994	32806	
2873	0	32992	32794	
2874	0	32768	32692	
2875	0	32784	32676	
2876	0	32688	32814	
2877	0	32616	32764	
2878	0	32618	32751	
2879	0	32908	32743	
2880	0	33076	32912	
2881	0	32936	32820	
2882	0	32706	32820	
2883	0	32400	32756	
2884	0	32400	32679	
2885	0	32492	32762	
2886	0	32530	32806	
2887	0	32572	32644	
2888	0	32644	32838	
2889	0	32640	32790	
2890	0	32788	32656	
2891	0	32764	32698	
2892	0	32744	32764	
2893	0	32848	32810	
2894	0	32824	32810	
2895	0	32932	32716	
2896	0	32932	32964	
2897	0	32952	32712	
2898	0	32724	32854	
2899	0	32692	32750	
2900	0	32638	32832	
2901	0	32686	32794	
2902	0	32882	32686	
2903	0	32968	32762	
2904	0	33050	32730	
2905	0	33020	32682	
2906	0	33128	32652	
2907	0	33202	32926	
2908	0	33160	32818	
2909	0	33024	32810	
2910	0	32834	32752	
2911	0	32784	32831	
2912	0	32654	32766	
2913	0	32724	32668	
2914	0	32864	32852	
2915	0	32952	32690	
2916	0	32732	32664	
2917	0	32516	32684	
2918	0	32352	32734	
2919	0	32444	32684	
2920	0	32616	32750	
2921	0	32692	32860	
2922	0	33008	32826	
2923	0	33220	32878	
2924	0	33008	32740	
2925	0	32862	32878	
2926	0	32686	32794	
2927	0	32568	32758	
2928	0	32576	32716	
2929	0	32620	32679	
2930	0	32692	32651	
2931	0	32633	32670	
2932	0	32716	32586	
2933	0	32804	32647	
2934	0	32854	32812	
2935	0	32968	32876	
2936	0	33080	32820	
2937	0	33100	32652	
2938	0	33116	32828	
2939	0	33006	32744	
2940	0	32826	32734	
2941	0	32760	32734	
2942	0	32782	32882	
2943	0	32892	32942	
2944	0	33260	32764	
2945	0	33370	32892	
2946	0	33280	32836	
2947	0	33168	32886	
2948	0	33000	32728	
2949	0	32936	32838	
2950	0	32644	32730	
2951	0	32366	32768	
2952	0	32112	32736	
2953	0	32048	32676	
2954	0	32094	32728	
2955	0	32292	32672	
2956	0	32474	32616	
2957	0	32656	32586	
2958	0	32852	32856	
2959	0	32884	32712	
2960	0	32998	32682	
2961	0	32952	32714	
2962	0	32848	32922	
2963	0	32894	32764	
2964	0	32994	32740	
2965	0	32952	32844	
2966	0	32938	32714	
2967	0	32988	32768	
2968	0	33088	32871	
2969	0	33024	32736	
2970	0	32926	32820	
2971	0	32766	32864	
2972	0	32814	32852	
2973	0	32982	32724	
2974	0	32992	32644	
2975	0	32928	32806	
2976	0	32672	32775	
2977	0	32580	32802	
2978	0	32470	32736	
2979	0	32660	32536	
2980	0	32816	32672	
2981	0	32810	32656	
2982	0	32852	32860	
2983	0	32836	32756	
2984	0	32750	32888	
2985	0	32802	32870	
2986	0	32878	32855	
2987	0	32880	32738	
2988	0	32924	32962	
2989	0	32864	32647	
2990	0	32880	32774	
2991	0	33000	32676	
2992	0	33090	32872	
2993	0	33048	32879	
2994	0	32920	32816	
2995	0	32764	32724	
2996	0	32740	32750	
2997	0	32982	32839	
2998	0	32937	32796	
2999	0	33022	32700	
3000	0	33220	32775	
3001	0	33000	32856	
3002	0	32860	32708	
3003	0	32616	32775	
3004	0	32284	32636	
3005	0	32224	32743	
3006	0	32216	32774	
3007	0	32288	32828	
3008	0	32492	32967	
3009	0	32722	32738	
3010	0	32762	32790	
3011	0	32998	32774	
3012	0	32962	32706	
3013	0	32984	32814	
3014	0	33033	32804	
3015	0	33082	32764	
3016	0	33028	32775	
3017	0	32908	32722	
3018	0	32816	32748	
3019	0	32820	32700	
3020	0	32824	32807	
3021	0	32854	32852	
3022	0	32916	32764	
3023	0	32936	32903	
3024	0	32830	32768	
3025	0	32696	32744	
3026	0	32604	32684	
3027	0	32576	32762	
3028	0	32696	32628	
3029	0	32844	32596	
3030	0	33052	32696	
3031	0	33080	32724	
3032	0	32980	32807	
3033	0	32794	32714	
3034	0	32636	32708	
3035	0	32648	32815	
3036	0	32728	32806	
3037	0	32772	33000	
3038	0	32852	32940	
3039	0	32897	32880	
3040	0	32940	32756	
3041	0	32886	32880	
3042	0	32796	32836	
3043	0	32984	32647	
3044	0	32986	32804	
3045	0	32636	32716	
3046	0	32480	32678	
3047	0	32412	32728	
3048	0	32548	32679	
3049	0	32590	32804	
3050	0	32744	32769	
3051	0	32884	32894	
3052	0	32958	32806	
3053	0	33090	32756	
3054	0	33120	32642	
3055	0	33052	32828	
3056	0	33066	32752	
3057	0	33056	32844	
3058	0	32978	32738	
3059	0	32892	32758	
3060	0	32836	32816	
3061	0	32660	32796	
3062	0	32504	32796	
3063	0	32496	32775	
3064	0	32484	32702	
3065	0	32564	32738	
3066	0	32788	32742	
3067	0	33262	32731	
3068	0	33336	32822	
3069	0	33124	32786	
3070	0	33252	32730	
3071	0	33104	32894	
3072	0	32770	32930	
3073	0	32640	32660	
3074	0	32544	32682	
3075	0	32524	32710	
3076	0	32652	32693	
3077	0	33120	32679	
3078	0	33176	32788	
3079	0	32774	32840	
3080	0	32446	32708	
3081	0	32220	32886	
3082	0	32124	32871	
3083	0	32422	32762	
3084	0	32624	32918	
3085	0	32692	32846	
3086	0	32912	32919	
3087	0	33178	32772	
3088	0	33174	32896	
3089	0	33162	32788	
3090	0	33156	32590	
3091	0	33057	32634	
3092	0	33048	32766	
3093	0	33048	32820	
3094	0	33120	33068	
3095	0	32814	32942	
3096	0	32660	32714	
3097	0	32474	32764	
3098	0	32396	32588	
3099	0	32314	32506	
3100	0	32194	32419	
3101	0	32186	32468	
3102	0	32372	32625	
3103	0	32590	32951	
3104	0	32812	32775	
3105	0	32920	32720	
3106	0	32956	32596	
3107	0	32992	32830	
3108	0	32912	32849	
3109	0	32832	32668	
3110	0	32712	32978	
3111	0	32756	33026	
3112	0	32848	32984	
3113	0	32992	32930	
3114	0	32938	32868	
3115	0	32916	32849	
3116	0	32876	32810	
3117	0	32794	32742	
3118	0	32890	32686	
3119	0	32798	32756	
3120	0	32500	32702	
3121	0	32640	32670	
3122	0	32628	32639	
3123	0	32664	32775	
3124	0	33252	32792	
3125	0	33584	32887	
3126	0	33524	32726	
3127	0	33472	32740	
3128	0	33344	32775	
3129	0	33082	32796	
3130	0	32840	32734	
3131	0	32662	32750	
3132	0	32480	32834	
3133	0	32412	32871	
3134	0	32544	32820	
3135	0	32456	32849	
3136	0	32460	32791	
3137	0	32472	32736	
3138	0	32554	32590	
3139	0	32728	32856	
3140	0	32800	32882	
3141	0	32970	32700	
3142	0	32900	32714	
3143	0	32860	32840	
3144	0	32804	32849	
3145	0	32784	32679	
3146	0	32812	32775	
3147	0	32812	32650	
3148	0	32936	32774	
3149	0	32872	32591	
3150	0	32958	32743	
3151	0	32984	32695	
3152	0	33162	32583	
3153	0	33108	32732	
3154	0	33016	32800	
3155	0	33048	32750	
3156	0	32982	32864	
3157	0	32862	32636	
3158	0	32886	32964	
3159	0	32944	32678	
3160	0	32870	32678	
3161	0	32820	32647	
3162	0	32928	32814	
3163	0	32784	32820	
3164	0	32878	32796	
3165	0	32894	32584	
3166	0	32412	32644	
3167	0	32208	32616	
3168	0	32494	32634	
3169	0	32684	32737	
3170	0	32864	32822	
3171	0	33116	33108	
3172	0	33228	33152	
3173	0	33246	32916	
3174	0	33040	32674	
3175	0	32832	32664	
3176	0	32800	32804	
3177	0	32584	32895	
3178	0	32512	32756	
3179	0	32524	32868	
3180	0	32600	32903	
3181	0	33050	33092	
3182	0	33048	33223	
3183	0	32624	33159	
3184	0	32404	32942	
3185	0	32298	32798	
3186	0	32638	32759	
3187	0	33112	32696	
3188	0	33050	32731	
3189	0	33104	32492	
3190	0	33156	32610	
3191	0	33220	32678	
3192	0	33196	32642	
3193	0	32988	32598	
3194	0	32700	32756	
3195	0	32608	32648	
3196	0	32432	32754	
3197	0	32176	32716	
3198	0	32472	32846	
3199	0	32376	32784	
3200	0	32448	32583	
3201	0	32400	32476	
3202	0	32556	32546	
3203	0	32990	32366	
3204	0	33032	32198	
3205	0	33184	32470	
3206	0	33468	32685	
3207	0	33340	32804	
3208	0	33260	32918	
3209	0	33076	32806	
3210	0	33050	32862	
3211	0	33218	32882	
3212	0	32992	33138	
3213	0	32874	33176	
3214	0	32854	33130	
3215	0	32580	32867	
3216	0	32288	32810	
3217	0	32302	32638	
3218	0	32124	32716	
3219	0	32036	32612	
3220	0	32012	32775	
3221	0	32080	33120	
3222	0	32412	33188	
3223	0	32768	32964	
3224	0	33016	32647	
3225	0	33052	32775	
3226	0	33192	32533	
3227	0	33194	32820	
3228	0	32996	32536	
3229	0	32944	32702	
3230	0	32988	32711	
3231	0	33010	32818	
3232	0	33112	32714	
3233	0	33148	32647	
3234	0	33022	32616	
3235	0	33136	32584	
3236	0	33130	32746	
3237	0	33194	32725	
3238	0	32944	32804	
3239	0	32794	32856	
3240	0	32802	32826	
3241	0	32766	32700	
3242	0	32900	32647	
3243	0	32890	32806	
3244	0	32798	32800	
3245	0	32756	32880	
3246	0	32821	32775	
3247	0	32816	32711	
3248	0	32596	32724	
3249	0	32394	32910	
3250	0	32781	32800	
3251	0	32692	32863	
3252	0	32564	32956	
3253	0	32636	33014	
3254	0	32858	32967	
3255	0	32916	33024	
3256	0	32930	32694	
3257	0	32864	32452	
3258	0	32932	32248	
3259	0	33334	32190	
3260	0	33572	32298	
3261	0	33210	32638	
3262	0	32468	32775	
3263	0	32008	32887	
3264	0	31640	32622	
3265	0	32036	32476	
3266	0	32481	32616	
3267	0	32650	32506	
3268	0	32566	32844	
3269	0	32348	32828	
3270	0	32308	32512	
3271	0	33060	33096	
3272	0	33620	33598	
3273	0	33600	33446	
3274	0	33734	33270	
3275	0	33608	33103	
3276	0	33292	33351	
3277	0	33264	33422	
3278	0	33376	33127	
3279	0	33560	33062	
3280	0	33472	32494	
3281	0	32868	32465	
3282	0	32232	32452	
3283	0	32112	32294	
3284	0	32512	32024	
3285	0	32874	32218	
3286	0	33084	33207	
3287	0	33366	32914	
3288	0	33602	32775	
3289	0	33024	32548	
3290	0	31926	32337	
3291	0	31348	32071	
3292	0	32280	32392	
3293	0	32622	32120	
3294	0	32282	32348	
3295	0	32224	32647	
3296	0	32630	33200	
3297	0	32196	32548	
3298	0	31956	32016	
3299	0	31884	32225	
3300	0	32400	32728	
3301	0	32616	33762	
3302	0	32484	33711	
3303	0	32312	33428	
3304	0	32236	33216	
3305	0	32568	33444	
3306	0	32612	33522	
3307	0	32528	33404	
3308	0	32312	33358	
3309	0	32628	33268	
3310	0	32624	32580	
3311	0	32552	32564	
3312	0	32466	32772	
3313	0	32310	32590	
3314	0	32664	32279	
3315	0	33024	32170	
3316	0	33626	32448	
3317	0	34110	32666	
3318	0	34146	32800	
3319	0	34260	32592	
3320	0	34168	32728	
3321	0	33892	32711	
3322	0	33694	32580	
3323	0	34012	32568	
3324	0	34508	32508	
3325	0	34064	32646	
3326	0	33562	32556	
3327	0	32970	32664	
3328	0	32730	32490	
3329	0	32242	32496	
3330	0	31896	32500	
3331	0	31708	32610	
3332	0	31544	32754	
3333	0	31816	32820	
3334	0	32018	32633	
3335	0	32040	32918	
3336	0	32192	32903	
3337	0	32558	32954	
3338	0	32770	33190	
3339	0	33064	33094	
3340	0	32920	33060	
3341	0	32864	33079	
3342	0	32900	32948	
3343	0	33020	33055	
3344	0	33226	32890	
3345	0	33764	32934	
3346	0	33680	32615	
3347	0	33546	32414	
3348	0	33864	32391	
3349	0	34120	32582	
3350	0	33480	32534	
3351	0	33604	32532	
3352	0	33544	32396	
3353	0	32804	32422	
3354	0	31876	32746	
3355	0	31596	32814	
3356	0	31672	32654	
3357	0	31348	32652	
3358	0	31170	32666	
3359	0	31140	32648	
3360	0	31428	32740	
3361	0	31954	33542	
3362	0	32528	33856	
3363	0	32778	33226	
3364	0	32868	32750	
3365	0	33384	32548	
3366	0	33668	32050	
3367	0	33880	31934	
3368	0	33644	31604	
3369	0	33584	31930	
3370	0	33300	32359	
3371	0	33084	33110	
3372	0	32560	33328	
3373	0	32656	33337	
3374	0	33120	33232	
3375	0	33480	33284	
3376	0	33252	33073	
3377	0	32928	33276	
3378	0	33732	33608	
3379	0	33504	33360	
3380	0	32496	33008	
3381	0	31560	33462	
3382	0	31336	33223	
3383	0	31046	32542	
3384	0	31474	32886	
3385	0	32216	32753	
3386	0	33098	32772	
3387	0	33488	32940	
3388	0	32780	33090	
3389	0	33098	32553	
3390	0	33428	31844	
3391	0	32852	31454	
3392	0	32652	30990	
3393	0	33428	30712	
3394	0	33164	30594	
3395	0	32654	31018	
3396	0	32326	31760	
3397	0	31936	32764	
3398	0	31932	33148	
3399	0	32324	34166	
3400	0	32632	34494	
3401	0	32656	34660	
3402	0	32804	34844	
3403	0	33308	34616	
3404	0	33216	34788	
3405	0	33504	34311	
3406	0	33208	33271	
3407	0	32748	32820	
3408	0	32960	32850	
3409	0	32970	32756	
3410	0	33170	33196	
3411	0	33456	32562	
3412	0	33508	32212	
3413	0	33846	32222	
3414	0	34296	31470	
3415	0	34102	31270	
3416	0	33860	31488	
3417	0	33368	32127	
3418	0	32968	32244	
3419	0	32104	32440	
3420	0	31536	32814	
3421	0	31520	33191	
3422	0	31776	33492	
3423	0	32058	32428	
3424	0	32208	32263	
3425	0	32730	33325	
3426	0	32768	33588	
3427	0	32538	33122	
3428	0	32468	33356	
3429	0	32332	33180	
3430	0	32088	33239	
3431	0	31966	32903	
3432	0	32028	32852	
3433	0	32496	31982	
3434	0	32954	31550	
3435	0	32908	31538	
3436	0	32758	32002	
3437	0	32672	32088	
3438	0	32768	32239	
3439	0	32982	32614	
3440	0	32672	32722	
3441	0	32542	32508	
3442	0	33186	32660	
3443	0	32972	33294	
3444	0	33088	33088	
3445	0	33008	32928	
3446	0	33188	32954	
3447	0	33834	32858	
3448	0	34516	32172	
3449	0	35060	31897	
3450	0	34832	32088	
3451	0	33600	32359	
3452	0	32632	32506	
3453	0	32446	32908	
3454	0	32524	33632	
3455	0	33200	33735	
3456	0	33052	33578	
3457	0	32672	33532	
3458	0	32674	33356	
3459	0	32640	33236	
3460	0	31940	33100	
3461	0	31048	33236	
3462	0	31576	33226	
3463	0	31504	33543	
3464	0	31118	33136	
3465	0	31376	32842	
3466	0	32288	32902	
3467	0	33692	32641	
3468	0	33906	32756	
3469	0	33752	32359	
3470	0	33308	32286	
3471	0	33490	32544	
3472	0	34300	32652	
3473	0	34260	33220	
3474	0	34292	33764	
3475	0	33276	33380	
3476	0	32928	32862	
3477	0	32430	32112	
3478	0	31672	31450	
3479	0	31386	31010	
3480	0	31512	31332	
3481	0	31302	31856	
3482	0	31864	32250	
3483	0	31980	32252	
3484	0	32448	32454	
3485	0	32264	32660	
3486	0	32908	33010	
3487	0	33426	33262	
3488	0	32288	33916	
3489	0	31636	33839	
3490	0	32482	33900	
3491	0	33056	34356	
3492	0	33824	33882	
3493	0	34632	33188	
3494	0	34652	32775	
3495	0	34664	32874	
3496	0	35006	32106	
3497	0	35528	32032	
3498	0	34720	32426	
3499	0	32836	32755	
3500	0	31864	33046	
3501	0	30556	33078	
3502	0	30366	32775	
3503	0	30504	32623	
3504	0	30550	32138	
3505	0	30400	32250	
3506	0	30990	32483	
3507	0	31502	32626	
3508	0	31700	33022	
3509	0	31790	33772	
3510	0	32432	32548	
3511	0	32960	31936	
3512	0	33678	31439	
3513	0	33884	31388	
3514	0	33708	31690	
3515	0	33566	32654	
3516	0	33986	33332	
3517	0	34000	33682	
3518	0	34337	33728	
3519	0	34708	34394	
3520	0	34169	34026	
3521	0	33808	33584	
3522	0	33484	32828	
3523	0	33216	32262	
3524	0	32888	31582	
3525	0	32712	31478	
3526	0	32564	31708	
3527	0	32410	32396	
3528	0	32392	32920	
3529	0	32430	33016	
3530	0	32232	33176	
3531	0	32456	33031	
3532	0	32472	33210	
3533	0	32096	32916	
3534	0	32664	32818	
3535	0	32744	32481	
3536	0	32808	32558	
3537	0	32744	31996	
3538	0	32996	31918	
3539	0	33152	31724	
3540	0	33000	32391	
3541	0	33192	33020	
3542	0	33292	33832	
3543	0	34192	33662	
3544	0	33828	33632	
3545	0	33348	33188	
3546	0	32510	33158	
3547	0	32276	33164	
3548	0	32268	33028	
3549	0	32082	33076	
3550	0	32176	33022	
3551	0	31672	32590	
3552	0	31858	32642	
3553	0	32784	32870	
3554	0	33368	32725	
3555	0	33692	32582	
3556	0	32788	32164	
3557	0	32208	32473	
3558	0	32444	32488	
3559	0	32886	31956	
3560	0	33202	31594	
3561	0	34412	31298	
3562	0	33754	30949	
3563	0	33254	32432	
3564	0	32932	33543	
3565	0	32148	34414	
3566	0	32514	34192	
3567	0	32080	34002	
3568	0	31700	33492	
3569	0	32364	32880	
3570	0	32380	32028	
3571	0	32664	32337	
3572	0	33592	32628	
3573	0	33500	32992	
3574	0	32932	33254	
3575	0	33112	33722	
3576	0	32614	33840	
3577	0	31408	33788	
3578	0	30816	33334	
3579	0	30600	32452	
3580	0	30914	31812	
3581	0	32046	31518	
3582	0	32940	31962	
3583	0	33090	32180	
3584	0	33538	32416	
3585	0	34412	32736	
3586	0	34612	32548	
3587	0	34108	32108	
3588	0	34388	31979	
3589	0	34068	32172	
3590	0	34544	31974	
3591	0	34492	32460	
3592	0	34600	32876	
3593	0	34040	33250	
3594	0	33462	33592	
3595	0	32628	34022	
3596	0	31592	34428	
3597	0	31736	34358	
3598	0	31596	33768	
3599	0	30980	33022	
3600	0	31124	32166	
3601	0	31284	31792	
3602	0	30632	31592	
3603	0	30436	31982	
3604	0	30724	32446	
3605	0	31684	32775	
3606	0	32270	32692	
3607	0	33144	32500	
3608	0	33538	32824	
3609	0	33496	32944	
3610	0	33452	32590	
3611	0	33244	32445	
3612	0	33224	31968	
3613	0	33646	31879	
3614	0	33748	32564	
3615	0	33702	32878	
3616	0	33936	33054	
3617	0	34284	33663	
3618	0	33868	33894	
3619	0	33216	34100	
3620	0	33348	33886	
3621	0	33496	33626	
3622	0	33322	33646	
3623	0	32788	33230	
3624	0	32650	32870	
3625	0	32846	32414	
3626	0	33164	32119	
3627	0	34000	31868	
3628	0	34928	31844	
3629	0	34992	31606	
3630	0	33792	31898	
3631	0	32716	31936	
3632	0	31796	32188	
3633	0	31368	32606	
3634	0	31244	32644	
3635	0	30860	32582	
3636	0	30628	32712	
3637	0	30396	33018	
3638	0	30642	32942	
3639	0	31004	32838	
3640	0	32196	32925	
3641	0	32367	32706	
3642	0	32258	32684	
3643	0	32490	32736	
3644	0	32262	32913	
3645	0	32452	32850	
3646	0	32728	33098	
3647	0	33234	32930	
3648	0	34160	32722	
3649	0	34980	32449	
3650	0	35236	32214	
3651	0	34908	31782	
3652	0	34852	32002	
3653	0	34428	32336	
3654	0	34026	32764	
3655	0	33508	32748	
3656	0	32928	33199	
3657	0	32024	33152	
3658	0	31924	32968	
3659	0	33066	33064	
3660	0	32958	33456	
3661	0	33030	33348	
3662	0	33604	33340	
3663	0	33760	33730	
3664	0	32954	33502	
3665	0	31696	33150	
3666	0	31272	33134	
3667	0	31316	33084	
3668	0	31108	32633	
3669	0	31508	32612	
3670	0	32628	32690	
3671	0	32616	32775	
3672	0	31928	32452	
3673	0	31484	32238	
3674	0	31290	32846	
3675	0	31744	32919	
3676	0	32164	32968	
3677	0	32416	33341	
3678	0	32850	32192	
3679	0	34086	31680	
3680	0	33708	31072	
3681	0	32708	30866	
3682	0	32266	31206	
3683	0	32096	32007	
3684	0	32628	32884	
3685	0	34044	33396	
3686	0	34790	33420	
3687	0	34872	33400	
3688	0	35116	33500	
3689	0	34898	33799	
3690	0	33676	33318	
3691	0	33444	32868	
3692	0	33508	32412	
3693	0	33296	32376	
3694	0	32572	33136	
3695	0	30916	33164	
3696	0	30470	33434	
3697	0	31074	33408	
3698	0	31166	33770	
3699	0	31320	33580	
3700	0	31580	32838	
3701	0	32486	32658	
3702	0	32862	32494	
3703	0	33285	32616	
3704	0	33316	33028	
3705	0	33728	33057	
3706	0	33480	32574	
3707	0	33104	32164	
3708	0	32760	31852	
3709	0	32228	31508	
3710	0	32188	32148	
3711	0	32752	32423	
3712	0	32488	32446	
3713	0	32340	32636	
3714	0	32428	32928	
3715	0	32742	33260	
3716	0	32586	33382	
3717	0	32776	33431	
3718	0	32972	33356	
3719	0	33552	33186	
3720	0	33660	32874	
3721	0	33256	32606	
3722	0	32888	32440	
3723	0	33054	32564	
3724	0	33410	32631	
3725	0	33750	32628	
3726	0	34060	32730	
3727	0	33826	32864	
3728	0	34172	32732	
3729	0	33738	32487	
3730	0	33406	32460	
3731	0	32356	32584	
3732	0	31204	32616	
3733	0	31428	32759	
3734	0	32180	32996	
3735	0	32964	32736	
3736	0	33504	32951	
3737	0	33304	32910	
3738	0	32804	32960	
3739	0	32528	33073	
3740	0	32268	32848	
3741	0	32288	32470	
3742	0	32192	32508	
3743	0	32048	32854	
3744	0	32050	32854	
3745	0	32156	32486	
3746	0	32352	32318	
3747	0	32468	32070	
3748	0	32544	31969	
3749	0	32370	32284	
3750	0	33000	32644	
3751	0	33300	33016	
3752	0	33796	33287	
3753	0	33684	33566	
3754	0	33932	33511	
3755	0	34620	33632	
3756	0	34856	33370	
3757	0	35520	33100	
3758	0	33682	32740	
3759	0	31948	32526	
3760	0	30612	32748	
3761	0	30564	32718	
3762	0	31280	32878	
3763	0	31776	32903	
3764	0	32212	33084	
3765	0	32288	32728	
3766	0	32100	32284	
3767	0	31828	32014	
3768	0	31258	32111	
3769	0	31612	32167	
3770	0	32408	32330	
3771	0	33144	32548	
3772	0	33544	32736	
3773	0	34970	32975	
3774	0	35240	32908	
3775	0	34272	32984	
3776	0	33600	33095	
3777	0	34074	33602	
3778	0	34164	33410	
3779	0	33384	33460	
3780	0	32586	32820	
3781	0	32092	32324	
3782	0	32234	32166	
3783	0	32418	31412	
3784	0	32568	31648	
3785	0	33060	32524	
3786	0	33206	32750	
3787	0	32632	32590	
3788	0	31874	32300	
3789	0	31072	32480	
3790	0	30986	32606	
3791	0	30912	33199	
3792	0	31432	33312	
3793	0	31720	33682	
3794	0	32036	33662	
3795	0	32713	33402	
3796	0	32984	33320	
3797	0	32994	33198	
3798	0	33060	32830	
3799	0	33112	32698	
3800	0	33308	32772	
3801	0	33492	32872	
3802	0	33452	33048	
3803	0	33996	32628	
3804	0	34808	32799	
3805	0	34692	32624	
3806	0	34152	32404	
3807	0	33634	32311	
3808	0	33604	32230	
3809	0	33732	32438	
3810	0	33968	32874	
3811	0	34384	32872	
3812	0	33542	32864	
3813	0	32468	32658	
3814	0	31616	32346	
3815	0	30880	32564	
3816	0	30614	32598	
3817	0	30744	32714	
3818	0	30736	32702	
3819	0	31028	32928	
3820	0	31332	33072	
3821	0	32062	32724	
3822	0	32724	32612	
3823	0	33576	32572	
3824	0	34190	32422	
3825	0	33802	32740	
3826	0	33104	32688	
3827	0	32689	32844	
3828	0	32324	32568	
3829	0	32340	32606	
3830	0	32292	32900	
3831	0	32348	32676	
3832	0	32612	32622	
3833	0	33176	32460	
3834	0	33176	32583	
3835	0	33528	32892	
3836	0	33484	33094	
3837	0	34012	33110	
3838	0	34196	33322	
3839	0	33196	33332	
3840	0	32808	33140	
3841	0	33060	32808	
3842	0	33452	32799	
3843	0	34102	32998	
3844	0	34008	32647	
3845	0	33284	32584	
3846	0	32770	32552	
3847	0	33132	32600	
3848	0	33060	32391	
3849	0	32538	32544	
3850	0	32172	33136	
3851	0	31704	33398	
3852	0	31258	33068	
3853	0	31223	33086	
3854	0	31408	32876	
3855	0	32076	32712	
3856	0	32548	32550	
3857	0	32782	32503	
3858	0	32756	32200	
3859	0	32442	32094	
3860	0	32116	32400	
3861	0	31908	32678	
3862	0	32156	32404	
3863	0	32230	32519	
3864	0	32600	32604	
3865	0	33168	32430	
3866	0	33258	32530	
3867	0	33448	32647	
3868	0	33824	32980	
3869	0	34088	33082	
3870	0	34040	32934	
3871	0	34000	32986	
3872	0	34340	33206	
3873	0	33604	33022	
3874	0	33510	33118	
3875	0	33924	33096	
3876	0	34090	33103	
3877	0	33916	33252	
3878	0	34084	33162	
3879	0	34506	33142	
3880	0	33716	33120	
3881	0	32464	32930	
3882	0	30688	32758	
3883	0	29728	32775	
3884	0	29376	32852	
3885	0	30072	32455	
3886	0	31115	32132	
3887	0	32036	31622	
3888	0	32324	31654	
3889	0	32768	31934	
3890	0	32512	31988	
3891	0	32536	31800	
3892	0	32426	31800	
3893	0	32350	32059	
3894	0	32056	32450	
3895	0	32388	32952	
3896	0	32744	33676	
3897	0	33188	34394	
3898	0	33662	34452	
3899	0	33980	34600	
3900	0	34148	34231	
3901	0	34112	33902	
3902	0	34044	33734	
3903	0	33618	33230	
3904	0	34296	33064	
3905	0	35712	32480	
3906	0	35388	32376	
3907	0	34640	32351	
3908	0	33468	32314	
3909	0	32194	32304	
3910	0	31128	32030	
3911	0	31076	32256	
3912	0	31748	32430	
3913	0	32256	32518	
3914	0	33132	32364	
3915	0	32644	32270	
3916	0	30944	32192	
3917	0	29512	32272	
3918	0	29050	32194	
3919	0	29820	32140	
3920	0	30648	32337	
3921	0	31784	32748	
3922	0	33034	32999	
3923	0	33508	33170	
3924	0	33296	33389	
3925	0	33488	33132	
3926	0	33798	32631	
3927	0	34020	32652	
3928	0	34288	32673	
3929	0	34112	32805	
3930	0	33974	33002	
3931	0	34048	32908	
3932	0	33900	33012	
3933	0	34242	33128	
3934	0	33916	32839	
3935	0	33314	32304	
3936	0	32848	32212	
3937	0	32216	32199	
3938	0	32572	32590	
3939	0	33152	33100	
3940	0	35152	33524	
3941	0	34325	33536	
3942	0	32590	33344	
3943	0	31836	33420	
3944	0	31630	33332	
3945	0	32068	32978	
3946	0	32488	32926	
3947	0	32298	32640	
3948	0	31758	32658	
3949	0	31834	32495	
3950	0	31432	32404	
3951	0	31376	32330	
3952	0	31496	32232	
3953	0	31624	32282	
3954	0	31532	32036	
3955	0	31786	32084	
3956	0	32320	32262	
3957	0	32940	32720	
3958	0	33376	33126	
3959	0	33728	33226	
3960	0	34158	33415	
3961	0	34180	33468	
3962	0	33432	33408	
3963	0	33096	33191	
3964	0	32740	33116	
3965	0	32904	33056	
3966	0	33428	32986	
3967	0	34876	32762	
3968	0	34824	32842	
3969	0	34144	32775	
3970	0	32680	32422	
3971	0	31896	32054	
3972	0	31420	32052	
3973	0	30928	31870	
3974	0	30884	31804	
3975	0	31524	31930	
3976	0	32538	32232	
3977	0	33052	32394	
3978	0	33282	32986	
3979	0	33674	32924	
3980	0	34130	32936	
3981	0	34392	33076	
3982	0	34452	33440	
3983	0	34146	33400	
3984	0	33296	33420	
3985	0	32554	33460	
3986	0	32544	33430	
3987	0	33176	33252	
3988	0	32826	33100	
3989	0	31812	32917	
3990	0	31244	32844	
3991	0	31572	32668	
3992	0	32180	32700	
3993	0	33464	32916	
3994	0	34124	32953	
3995	0	33906	32799	
3996	0	33410	32575	
3997	0	33324	32898	
3998	0	32980	32628	
3999	0	33494	32704	
4000	0	33040	32542	
4001	0	31842	32620	
4002	0	30742	32116	
4003	0	30494	31730	
4004	0	30368	32028	
4005	0	30740	32210	
4006	0	31350	32524	
4007	0	32040	32476	
4008	0	33094	32746	
4009	0	33816	32746	
4010	0	33980	32960	
4011	0	33654	32858	
4012	0	33396	32956	
4013	0	33378	33074	
4014	0	33512	33146	
4015	0	33416	32932	
4016	0	33556	32540	
4017	0	33350	32690	
4018	0	33352	32800	
4019	0	33216	32878	
4020	0	33094	32885	
4021	0	32916	32532	
4022	0	32930	32874	
4023	0	32852	33404	
4024	0	32898	33150	
4025	0	33152	32902	
4026	0	33312	33348	
4027	0	33100	33870	
4028	0	33176	34100	
4029	0	33528	33672	
4030	0	33776	33271	
4031	0	33902	32850	
4032	0	33968	32436	
4033	0	33138	32100	
4034	0	32368	31556	
4035	0	31896	31450	
4036	0	31994	31642	
4037	0	31892	31778	
4038	0	31656	32028	
4039	0	31632	32254	
4040	0	31668	32556	
4041	0	31380	32838	
4042	0	31500	33202	
4043	0	31908	33330	
4044	0	32220	33284	
4045	0	32282	33243	
4046	0	32276	33015	
4047	0	32208	33095	
4048	0	32360	32798	
4049	0	32764	32506	
4050	0	33086	32344	
4051	0	33362	32476	
4052	0	33960	32554	
4053	0	34112	32382	
4054	0	34016	32835	
4055	0	34264	32918	
4056	0	33816	32910	
4057	0	33308	32775	
4058	0	33064	32914	
4059	0	32350	32970	
4060	0	32092	32799	
4061	0	32144	32704	
4062	0	32428	32748	
4063	0	32426	32679	
4064	0	32558	32570	
4065	0	32820	32583	
4066	0	32836	32664	
4067	0	32760	32576	
4068	0	32664	32945	
4069	0	32818	33062	
4070	0	33258	33104	
4071	0	33704	33199	
4072	0	33512	33088	
4073	0	33344	33186	
4074	0	33288	33287	
4075	0	33166	33018	
4076	0	33156	33030	
4077	0	33028	32992	
4078	0	32920	32630	
4079	0	33186	32380	
4080	0	32868	32408	
4081	0	32358	32114	
4082	0	31992	32226	
4083	0	31776	32138	
4084	0	31588	32238	
4085	0	31366	32416	
4086	0	31448	32510	
4087	0	31806	32366	
4088	0	32192	32484	
4089	0	32860	32519	
4090	0	32944	32960	
4091	0	32992	33318	
4092	0	33352	33464	
4093	0	33712	33660	
4094	0	33774	33744	
4095	0	34008	33336	
4096	0	34200	33226	
4097	0	34722	32962	
4098	0	34764	32890	
4099	0	33998	32656	
4100	0	33098	32422	
4101	0	32712	32512	
4102	0	32614	32612	
4103	0	32684	32559	
4104	0	32804	32502	
4105	0	32526	32499	
4106	0	32320	32612	
4107	0	31860	32628	
4108	0	31818	32910	
4109	0	31872	32961	
4110	0	31800	32804	
4111	0	31434	32568	
4112	0	31584	32327	
4113	0	31956	31945	
4114	0	32300	31957	
4115	0	32708	32194	
4116	0	33068	32646	
4117	0	33236	33088	
4118	0	33390	33247	
4119	0	33360	33543	
4120	0	33365	33846	
4121	0	33348	33474	
4122	0	33352	33243	
4123	0	33393	32728	
4124	0	33436	32506	
4125	0	33394	32500	
4126	0	33262	32382	
4127	0	33096	32346	
4128	0	32878	32625	
4129	0	32762	32816	
4130	0	32768	32991	
4131	0	32924	33010	
4132	0	32708	32952	
4133	0	32682	32774	
4134	0	32536	32642	
4135	0	32436	32720	
4136	0	32440	32438	
4137	0	32382	32607	
4138	0	32360	32374	
4139	0	32386	32386	
4140	0	32696	32471	
4141	0	32884	32376	
4142	0	32834	32298	
4143	0	32860	32512	
4144	0	32880	32422	
4145	0	33473	32604	
4146	0	33608	32600	
4147	0	33522	32676	
4148	0	33156	32796	
4149	0	32732	32887	
4150	0	32276	33120	
4151	0	32226	33380	
4152	0	32276	33127	
4153	0	32264	33031	
4154	0	32222	33024	
4155	0	32648	32970	
4156	0	32972	33138	
4157	0	32952	33127	
4158	0	32700	32903	
4159	0	32544	32824	
4160	0	32872	32732	
4161	0	32876	32800	
4162	0	32956	32896	
4163	0	32748	33060	
4164	0	32656	33118	
4165	0	32552	32986	
4166	0	32560	32910	
4167	0	32848	33178	
4168	0	33048	33159	
4169	0	33304	32876	
4170	0	33320	32662	
4171	0	33016	32412	
4172	0	32772	31902	
4173	0	32680	31778	
4174	0	32450	31896	
4175	0	32496	32222	
4176	0	32658	32426	
4177	0	32798	32638	
4178	0	33136	32912	
4179	0	33116	33287	
4180	0	33032	33348	
4181	0	33016	33262	
4182	0	32784	33287	
4183	0	32682	32936	
4184	0	32768	32786	
4185	0	32866	32744	
4186	0	32820	32640	
4187	0	32968	32731	
4188	0	33028	32660	
4189	0	33140	32898	
4190	0	33106	33006	
4191	0	32776	32786	
4192	0	32538	32910	
4193	0	32564	32970	
4194	0	32696	32936	
4195	0	32936	32842	
4196	0	32870	32794	
4197	0	33204	32775	
4198	0	33426	32646	
4199	0	33174	32614	
4200	0	32920	32608	
4201	0	32392	32450	
4202	0	32080	32518	
4203	0	32062	32559	
4204	0	32322	32500	
4205	0	32520	32487	
4206	0	32632	32650	
4207	0	32752	32761	
4208	0	32758	32702	
4209	0	32860	32750	
4210	0	32858	32898	
4211	0	32556	32942	
4212	0	32484	32842	
4213	0	32552	32790	
4214	0	32580	32656	
4215	0	32528	32702	
4216	0	32828	32792	
4217	0	33076	32840	
4218	0	33144	32622	
4219	0	33152	32619	
4220	0	33320	32772	
4221	0	33306	32716	
4222	0	33148	33068	
4223	0	32920	33239	
4224	0	33024	33242	
4225	0	33092	32935	
4226	0	33116	32513	
4227	0	32952	32704	
4228	0	33088	32864	
4229	0	32846	32842	
4230	0	32584	32748	
4231	0	32448	32838	
4232	0	32386	32722	
4233	0	32446	32750	
4234	0	32744	32350	
4235	0	32956	32327	
4236	0	32960	32304	
4237	0	32732	32516	
4238	0	32590	32514	
4239	0	32196	32892	
4240	0	31900	33044	
4241	0	32014	32956	
4242	0	32060	32702	
4243	0	32262	33042	
4244	0	32634	32948	
4245	0	32904	32954	
4246	0	33248	32806	
4247	0	33308	33014	
4248	0	33462	32962	
4249	0	33288	33026	
4250	0	33488	33094	
4251	0	33448	33006	
4252	0	33360	32844	
4253	0	33444	32358	
4254	0	33342	32284	
4255	0	33092	32340	
4256	0	32997	32220	
4257	0	32704	32850	
4258	0	32556	33172	
4259	0	32436	33252	
4260	0	32316	33208	
4261	0	32394	33188	
4262	0	32594	33028	
4263	0	32892	32624	
4264	0	32740	32604	
4265	0	32542	32806	
4266	0	32306	32640	
4267	0	32452	32426	
4268	0	32688	32470	
4269	0	32802	32448	
4270	0	32658	32302	
4271	0	32712	32180	
4272	0	32662	32318	
4273	0	32716	32144	
4274	0	32808	32343	
4275	0	32862	32764	
4276	0	33278	33010	
4277	0	33280	33470	
4278	0	33288	33862	
4279	0	33240	33542	
4280	0	33344	33386	
4281	0	33004	32964	
4282	0	32618	32900	
4283	0	32574	32839	
4284	0	32570	32679	
4285	0	32788	32626	
4286	0	32896	32414	
4287	0	32928	32426	
4288	0	32950	32572	
4289	0	33020	32540	
4290	0	33116	32566	
4291	0	32992	32612	
4292	0	32864	32570	
4293	0	32612	32774	
4294	0	32528	32838	
4295	0	32460	32840	
4296	0	32616	32810	
4297	0	32600	32710	
4298	0	32520	32772	
4299	0	32800	32646	
4300	0	32724	32742	
4301	0	32628	32702	
4302	0	32480	32656	
4303	0	32632	32796	
4304	0	32692	32871	
4305	0	32700	32920	
4306	0	32772	32856	
4307	0	32924	32911	
4308	0	33116	32754	
4309	0	33122	32816	
4310	0	33016	32772	
4311	0	32992	32913	
4312	0	32926	32791	
4313	0	32916	32647	
4314	0	32936	32519	
4315	0	33050	32456	
4316	0	33208	32519	
4317	0	33008	32542	
4318	0	32892	32440	
4319	0	32668	32800	
4320	0	32670	33002	
4321	0	32588	33230	
4322	0	32714	33042	
4323	0	32812	32962	
4324	0	32988	32874	
4325	0	32988	32956	
4326	0	32920	32820	
4327	0	32632	32843	
4328	0	32848	32666	
4329	0	32786	32766	
4330	0	32478	32911	
4331	0	32330	32896	
4332	0	32110	32871	
4333	0	32164	32831	
4334	0	32200	32812	
4335	0	32492	32942	
4336	0	32584	32830	
4337	0	32804	32623	
4338	0	33038	32764	
4339	0	33444	32937	
4340	0	33552	32820	
4341	0	33716	32478	
4342	0	33836	32356	
4343	0	33640	32488	
4344	0	33216	32822	
4345	0	32698	32792	
4346	0	32338	32892	
4347	0	32504	32606	
4348	0	32576	32664	
4349	0	32676	32356	
4350	0	32776	32216	
4351	0	32812	32458	
4352	0	32720	32733	
4353	0	32688	33090	
4354	0	32560	33304	
4355	0	32594	33180	
4356	0	32752	33176	
4357	0	33012	33094	
4358	0	33062	32764	
4359	0	33148	32894	
4360	0	33168	32750	
4361	0	32848	32802	
4362	0	32604	32820	
4363	0	32472	32630	
4364	0	32634	32664	
4365	0	32620	32896	
4366	0	32604	32810	
4367	0	32494	33095	
4368	0	32856	33076	
4369	0	33028	33074	
4370	0	32848	32911	
4371	0	32788	32804	
4372	0	32862	32528	
4373	0	32972	32534	
4374	0	33032	32492	
4375	0	33134	32488	
4376	0	32986	32242	
4377	0	33132	32316	
4378	0	32890	32574	
4379	0	32900	32518	
4380	0	32994	32770	
4381	0	32782	32900	
4382	0	32416	32852	
4383	0	32180	33031	
4384	0	31908	32774	
4385	0	32022	32775	
4386	0	32090	32768	
4387	0	32154	32738	
4388	0	32472	32740	
4389	0	32634	32593	
4390	0	32740	32812	
4391	0	32774	32860	
4392	0	32920	32852	
4393	0	33070	32863	
4394	0	33196	32712	
4395	0	33632	32822	
4396	0	33808	32600	
4397	0	33940	32702	
4398	0	33896	32692	
4399	0	33620	32694	
4400	0	33132	32920	
4401	0	32896	32760	
4402	0	32632	32750	
4403	0	32340	32808	
4404	0	32250	32758	
4405	0	32348	32866	
4406	0	32424	32775	
4407	0	32452	33072	
4408	0	32670	33030	
4409	0	32792	33066	
4410	0	32896	32728	
4411	0	32742	32796	
4412	0	32538	32748	
4413	0	32422	32841	
4414	0	32660	32672	
4415	0	32948	32592	
4416	0	33076	32882	
4417	0	33152	32662	
4418	0	33124	32710	
4419	0	33080	32631	
4420	0	32900	32615	
4421	0	32808	32706	
4422	0	32978	32583	
4423	0	33206	32718	
4424	0	33140	32956	
4425	0	32988	32882	
4426	0	32734	32878	
4427	0	32716	32884	
4428	0	32604	32775	
4429	0	32494	32854	
4430	0	32282	33024	
4431	0	32130	32784	
4432	0	32360	32850	
4433	0	32624	32775	
4434	0	32876	32730	
4435	0	33184	32638	
4436	0	33116	32618	
4437	0	33092	32616	
4438	0	32994	32583	
4439	0	32768	32730	
4440	0	32556	32789	
4441	0	32596	32748	
4442	0	32666	32630	
4443	0	32752	32670	
4444	0	32872	32770	
4445	0	32850	32818	
4446	0	32872	32816	
4447	0	32912	32884	
4448	0	33106	32885	
4449	0	33236	32700	
4450	0	33080	32566	
4451	0	32788	32902	
4452	0	32704	32922	
4453	0	32520	32976	
4454	0	32466	32764	
4455	0	32384	32644	
4456	0	32748	32514	
4457	0	32848	32486	
4458	0	32766	32526	
4459	0	32716	32919	
4460	0	32852	32838	
4461	0	32936	32734	
4462	0	33136	32724	
4463	0	32854	32721	
4464	0	32588	32992	
4465	0	32632	33128	
4466	0	32596	33240	
4467	0	32632	33022	
4468	0	32804	32824	
4469	0	33024	32770	
4470	0	33080	32686	
4471	0	33132	32670	
4472	0	33046	32463	
4473	0	33020	32648	
4474	0	33104	33150	
4475	0	33086	33326	
4476	0	33076	33159	
4477	0	32868	32972	
4478	0	32824	33020	
4479	0	32904	32814	
4480	0	32928	32794	
4481	0	32940	32490	
4482	0	32648	32692	
4483	0	32496	32814	
4484	0	32122	32580	
4485	0	32012	32538	
4486	0	32148	32391	
4487	0	32334	32558	
4488	0	32420	32604	
4489	0	32644	32600	
4490	0	32910	32492	
4491	0	32968	32455	
4492	0	33032	32610	
4493	0	32952	32542	
4494	0	32976	32559	
4495	0	33068	32705	
4496	0	33142	32814	
4497	0	33082	32771	
4498	0	33036	32738	
4499	0	33052	32678	
4500	0	33130	32672	
4501	0	33084	32924	
4502	0	32922	32872	
4503	0	32822	33040	
4504	0	32786	32728	
4505	0	32664	32812	
4506	0	32608	32752	
4507	0	32766	32948	
4508	0	32904	32900	
4509	0	33016	32852	
4510	0	32942	32903	
4511	0	33084	32766	
4512	0	32976	32742	
4513	0	33052	32574	
4514	0	33188	32400	
4515	0	32964	32556	
4516	0	32508	32582	
4517	0	32174	32728	
4518	0	32144	32994	
4519	0	32143	33190	
4520	0	32230	33150	
4521	0	32600	33204	
4522	0	32592	32954	
4523	0	32600	32874	
4524	0	32682	32929	
4525	0	32502	32756	
4526	0	32572	32590	
4527	0	32836	32519	
4528	0	32944	32602	
4529	0	33310	32680	
4530	0	33218	32742	
4531	0	33252	33012	
4532	0	33228	32900	
4533	0	33278	32799	
4534	0	33304	32872	
4535	0	33332	32444	
4536	0	33274	32518	
4537	0	32844	32296	
4538	0	32612	32446	
4539	0	32268	32598	
4540	0	32298	32806	
4541	0	32224	33196	
4542	0	32276	33046	
4543	0	32432	32935	
4544	0	32636	32974	
4545	0	32708	32948	
4546	0	32788	32834	
4547	0	32924	32560	
4548	0	33092	32624	
4549	0	33044	32442	
4550	0	33082	32519	
4551	0	33204	32420	
4552	0	33184	32712	
4553	0	33216	32986	
4554	0	33176	32956	
4555	0	33128	32996	
4556	0	33068	32930	
4557	0	32948	32952	
4558	0	32716	32999	
4559	0	32484	32804	
4560	0	32540	32823	
4561	0	32494	32680	
4562	0	32628	32788	
4563	0	32786	32772	
4564	0	32884	32706	
4565	0	32684	32691	
4566	0	32576	32688	
4567	0	32742	32638	
4568	0	33032	32586	
4569	0	32724	32436	
4570	0	32508	32492	
4571	0	32404	32336	
4572	0	32760	32382	
4573	0	33082	32412	
4574	0	33180	32678	
4575	0	33124	32898	
4576	0	32820	33227	
4577	0	32386	33188	
4578	0	32368	33566	
4579	0	32304	33486	
4580	0	32684	33258	
4581	0	32968	32934	
4582	0	33048	32644	
4583	0	32960	32774	
4584	0	32912	32783	
4585	0	33004	32646	
4586	0	32992	32512	
4587	0	33396	32630	
4588	0	33636	32647	
4589	0	33756	32538	
4590	0	33818	32628	
4591	0	33510	32670	
4592	0	33092	32723	
4593	0	32656	32666	
4594	0	32248	32689	
4595	0	32020	32660	
4596	0	31908	32574	
4597	0	31660	32786	
4598	0	31844	32815	
4599	0	32018	32834	
4600	0	32052	32572	
4601	0	31970	32567	
4602	0	32296	32738	
4603	0	32508	32948	
4604	0	32722	33040	
4605	0	32938	33062	
4606	0	33162	33071	
4607	0	33196	32866	
4608	0	33266	32752	
4609	0	33336	32811	
4610	0	33316	32826	
4611	0	33308	32716	
4612	0	33228	32698	
4613	0	33076	32462	
4614	0	33168	32470	
4615	0	33162	32452	
4616	0	32986	32639	
4617	0	33020	32641	
4618	0	33018	32950	
4619	0	33136	32812	
4620	0	33190	32654	
4621	0	33152	32480	
4622	0	32876	32486	
4623	0	32618	32564	
4624	0	32458	32542	
4625	0	32322	32634	
4626	0	32196	32908	
4627	0	32350	32891	
4628	0	32600	33158	
4629	0	32928	33332	
4630	0	32978	33410	
4631	0	33008	33270	
4632	0	32916	33086	
4633	0	32836	33216	
4634	0	32806	32948	
4635	0	32874	32950	
4636	0	32948	32742	
4637	0	33032	32604	
4638	0	32880	32620	
4639	0	32728	32487	
4640	0	32572	32356	
4641	0	32376	32518	
4642	0	32336	32513	
4643	0	32476	32362	
4644	0	32816	32420	
4645	0	32788	32486	
4646	0	32732	32666	
4647	0	32872	32804	
4648	0	33004	32702	
4649	0	33060	33047	
4650	0	33112	33184	
4651	0	33102	33148	
4652	0	33008	33022	
4653	0	32848	33060	
4654	0	32792	32850	
4655	0	32708	32804	
4656	0	32696	32766	
4657	0	32674	32756	
4658	0	32768	32668	
4659	0	32847	32580	
4660	0	32972	32532	
4661	0	32922	32546	
4662	0	32696	32580	
4663	0	32620	32646	
4664	0	32644	32674	
4665	0	32752	32906	
4666	0	32746	32768	
4667	0	32804	32903	
4668	0	32878	32775	
4669	0	32892	32758	
4670	0	32908	32740	
4671	0	32964	32562	
4672	0	32916	32767	
4673	0	32846	32762	
4674	0	32856	32956	
4675	0	32796	32924	
4676	0	32772	32823	
4677	0	32804	32698	
4678	0	32776	32827	
4679	0	32868	32798	
4680	0	32864	32742	
4681	0	32988	32775	
4682	0	33124	32806	
4683	0	33002	32722	
4684	0	33138	32642	
4685	0	33050	32949	
4686	0	32680	32934	
4687	0	32512	32860	
4688	0	32348	32847	
4689	0	32288	32812	
4690	0	32368	32796	
4691	0	32419	32787	
4692	0	32716	32654	
4693	0	32816	32464	
4694	0	32953	32671	
4695	0	33040	32672	
4696	0	32920	32742	
4697	0	32824	32985	
4698	0	32780	32914	
4699	0	32780	33024	
4700	0	32924	33148	
4701	0	32988	32838	
4702	0	32980	32902	
4703	0	32880	32640	
4704	0	32824	32792	
4705	0	32872	32828	
4706	0	32962	32712	
4707	0	32993	32802	
4708	0	32948	32881	
4709	0	32948	32746	
4710	0	33068	32684	
4711	0	33220	32666	
4712	0	33224	32714	
4713	0	33296	32588	
4714	0	33132	33058	
4715	0	32700	32974	
4716	0	32324	32976	
4717	0	32052	32900	
4718	0	32112	32938	
4719	0	32218	32794	
4720	0	32352	32660	
4721	0	32454	32710	
4722	0	32509	32810	
4723	0	32632	32858	
4724	0	32630	32640	
4725	0	32692	32775	
4726	0	32710	32584	
4727	0	32708	32518	
4728	0	32918	32504	
4729	0	32970	32546	
4730	0	33022	32720	
4731	0	32976	32591	
4732	0	33046	32874	
4733	0	33082	32714	
4734	0	33188	32775	
4735	0	33058	32664	
4736	0	33028	32686	
4737	0	33016	32840	
4738	0	32984	32767	
4739	0	32976	32858	
4740	0	32862	32832	
4741	0	32828	32862	
4742	0	32912	32660	
4743	0	32916	32639	
4744	0	32764	32743	
4745	0	32784	32676	
4746	0	32760	32823	
4747	0	32912	32962	
4748	0	32944	33106	
4749	0	32960	32842	
4750	0	32868	32846	
4751	0	32866	32770	
4752	0	32596	32806	
4753	0	32510	32636	
4754	0	32437	32710	
4755	0	32576	32735	
4756	0	32600	32614	
4757	0	32644	32752	
4758	0	32696	32833	
4759	0	32788	32688	
4760	0	32808	32833	
4761	0	32846	32804	
4762	0	32948	32775	
4763	0	32916	32842	
4764	0	32952	32862	
4765	0	32842	32794	
4766	0	32836	32708	
4767	0	32868	32852	
4768	0	32792	32856	
4769	0	32748	32828	
4770	0	32820	32796	
4771	0	32824	32766	
4772	0	32816	32647	
4773	0	32756	32664	
4774	0	32644	32858	
4775	0	32606	32784	
4776	0	32704	32728	
4777	0	32900	32710	
4778	0	32868	32614	
4779	0	32932	32736	
4780	0	32938	32792	
4781	0	32874	32732	
4782	0	32874	32838	
4783	0	32984	32808	
4784	0	32952	32668	
4785	0	32904	32743	
4786	0	32880	32888	
4787	0	32836	32817	
4788	0	32816	32902	
4789	0	32924	32876	
4790	0	32832	32692	
4791	0	32868	32692	
4792	0	33004	32775	
4793	0	33032	32711	
4794	0	32964	32723	
4795	0	32726	32826	
4796	0	32668	32946	
4797	0	32704	32912	
4798	0	32716	32823	
4799	0	32644	32634	
4800	0	32678	32580	
4801	0	32866	32690	
4802	0	32900	32760	
4803	0	32916	32852	
4804	0	32936	32871	
4805	0	32888	32954	
4806	0	32834	33012	
4807	0	32788	32878	
4808	0	32706	33030	
4809	0	32648	32958	
4810	0	32647	32724	
4811	0	32786	32640	
4812	0	32884	32560	
4813	0	32880	32516	
4814	0	32982	32502	
4815	0	32786	32604	
4816	0	32682	32726	
4817	0	32696	32674	
4818	0	32724	32903	
4819	0	32756	32774	
4820	0	32884	32812	
4821	0	32994	32958	
4822	0	32996	32978	
4823	0	32970	32840	
4824	0	32820	32767	
4825	0	32796	32814	
4826	0	32718	32614	
4827	0	32754	32607	
4828	0	32764	32728	
4829	0	32932	32830	
4830	0	33036	32816	
4831	0	33056	32910	
4832	0	32920	32856	
4833	0	32864	32736	
4834	0	32824	32600	
4835	0	32780	32759	
4836	0	32708	32775	
4837	0	32708	32704	
4838	0	32706	32786	
4839	0	32668	32931	
4840	0	32616	32903	
4841	0	32766	32894	
4842	0	32780	32807	
4843	0	32820	32844	
4844	0	32810	32919	
4845	0	32808	32846	
4846	0	32804	33007	
4847	0	32920	32849	
4848	0	32844	32888	
4849	0	32878	32860	
4850	0	32862	32772	
4851	0	32836	32638	
4852	0	32888	32674	
4853	0	32802	32665	
4854	0	32792	32711	
4855	0	32700	32774	
4856	0	32788	32491	
4857	0	32758	32500	
4858	0	32872	32346	
4859	0	32920	32551	
4860	0	32928	32582	
4861	0	32804	32714	
4862	0	32736	32726	
4863	0	32780	32775	
4864	0	32682	32644	
4865	0	32668	32748	
4866	0	32764	32814	
4867	0	32866	32958	
4868	0	32884	32992	
4869	0	33068	32871	
4870	0	33056	32964	
4871	0	32994	32884	
4872	0	32908	32982	
4873	0	32864	32838	
4874	0	32712	32978	
4875	0	32752	33011	
4876	0	32650	32846	
4877	0	32626	32682	
4878	0	32676	32742	
4879	0	32748	32798	
4880	0	32666	32694	
4881	0	32706	32884	
4882	0	32828	32742	
4883	0	32886	32860	
4884	0	32920	32732	
4885	0	32904	32812	
4886	0	32930	32766	
4887	0	32748	32724	
4888	0	32788	32736	
4889	0	32854	32886	
4890	0	32964	32775	
4891	0	32986	32786	
4892	0	33030	32775	
4893	0	32974	32822	
4894	0	32892	32736	
4895	0	32812	32668	
4896	0	32814	32588	
4897	0	32800	32519	
4898	0	32836	32428	
4899	0	32796	32626	
4900	0	32800	32828	
4901	0	32760	32852	
4902	0	32840	32862	
4903	0	32878	32952	
4904	0	32924	33078	
4905	0	32888	32916	
4906	0	32913	33108	
4907	0	32884	32928	
4908	0	32900	33010	
4909	0	32841	32823	
4910	0	32748	32994	
4911	0	32692	32900	
4912	0	32692	32904	
4913	0	32664	32756	
4914	0	32834	32692	
4915	0	32764	32768	
4916	0	32788	32743	
4917	0	32796	32710	
4918	0	32816	32712	
4919	0	32824	32752	
4920	0	32906	32792	
4921	0	32976	32644	
4922	0	32964	32752	
4923	0	32786	32709	
4924	0	32816	32642	
4925	0	32782	32688	
4926	0	32708	32743	
4927	0	32720	32687	
4928	0	32816	32506	
4929	0	32922	32380	
4930	0	32908	32630	
4931	0	32928	32668	
4932	0	32896	32692	
4933	0	32832	32882	
4934	0	32680	33018	
4935	0	32580	32932	
4936	0	32814	33018	
4937	0	32900	32936	
4938	0	32980	32900	
4939	0	32956	32682	
4940	0	32916	32816	
4941	0	32710	32740	
4942	0	32706	32740	
4943	0	32732	32622	
4944	0	32838	32868	
4945	0	32824	32836	
4946	0	32816	32822	
4947	0	32844	32692	
4948	0	32818	32868	
4949	0	32812	32786	
4950	0	32774	32702	
4951	0	32772	32518	
4952	0	32908	32934	
4953	0	32896	32806	
4954	0	32834	32828	
4955	0	33002	32842	
4956	0	32924	32704	
4957	0	32828	32782	
4958	0	32922	32922	
4959	0	32796	32854	
4960	0	32792	32848	
4961	0	32640	32876	
4962	0	32672	32938	
4963	0	32616	32784	
4964	0	32756	32704	
4965	0	32840	32722	
4966	0	32856	32652	
4967	0	32888	32775	
4968	0	32963	32700	
4969	0	32940	32798	
4970	0	32930	32744	
4971	0	32824	32698	
4972	0	32756	32672	
4973	0	32740	32622	
4974	0	32736	32752	
4975	0	32716	32734	
4976	0	32762	32798	
4977	0	32918	32662	
4978	0	33012	32903	
4979	0	32818	32882	
4980	0	32868	32878	
4981	0	32876	32724	
4982	0	32780	32720	
4983	0	32748	32736	
4984	0	32846	32712	
4985	0	32836	32788	
4986	0	32796	32711	
4987	0	32700	32770	
4988	0	32674	32760	
4989	0	32596	32784	
4990	0	32632	32734	
4991	0	32664	32822	
4992	0	32704	32800	
4993	0	32912	32772	
4994	0	32796	32871	
4995	0	32884	32738	
4996	0	32820	32756	
4997	0	32884	32748	
4998	0	32968	32775	
4999	0	32964	32766	
5000	0	32924	32728	
5001	0	32940	32775	
5002	0	32852	32852	
5003	0	32882	32943	
5004	0	32944	32996	
5005	0	32953	32980	
5006	0	32894	33214	
5007	0	32880	33095	
5008	0	32772	33082	
5009	0	32700	32908	
5010	0	32744	33070	
5011	0	32860	32824	
5012	0	32856	32846	
5013	0	32696	32592	
5014	0	32708	32698	
5015	0	32776	32719	
5016	0	32812	32684	
5017	0	32836	32542	
5018	0	32872	32735	
5019	0	32934	32712	
5020	0	32800	32620	
5021	0	32752	32650	
5022	0	32896	32622	
5023	0	32810	32742	
5024	0	32918	32704	
5025	0	33020	32788	
5026	0	32986	32654	
5027	0	32940	32823	
5028	0	32849	32748	
5029	0	32752	32538	
5030	0	32756	32951	
5031	0	32674	32878	
5032	0	32708	32962	
5033	0	32740	32686	
5034	0	32668	32692	
5035	0	32714	32660	
5036	0	32600	32766	
5037	0	32668	32636	
5038	0	32556	32828	
5039	0	32682	32820	
5040	0	32676	32816	
5041	0	32868	32775	
5042	0	32860	32775	
5043	0	32740	32817	
5044	0	32932	32735	
5045	0	32984	32640	
5046	0	32952	32775	
5047	0	32850	32774	
5048	0	32776	32798	
5049	0	32820	32932	
5050	0	32888	32867	
5051	0	32740	32926	
5052	0	32828	32794	
5053	0	32834	32860	
5054	0	32876	32692	
5055	0	32854	32647	
5056	0	32864	32775	
5057	0	32756	32727	
5058	0	32722	32631	
5059	0	32700	32608	
5060	0	32712	32490	
5061	0	32746	32748	
5062	0	32832	32844	
5063	0	32820	32828	
5064	0	32788	32930	
5065	0	32820	33024	
5066	0	32704	32934	
5067	0	32788	32936	
5068	0	32768	32760	
5069	0	32826	32702	
5070	0	32878	32828	
5071	0	32782	32868	
5072	0	32849	32912	
5073	0	32912	32819	
5074	0	32898	32807	
5075	0	32950	32800	
5076	0	32852	32836	
5077	0	32882	32748	
5078	0	32960	32644	
5079	0	32774	32775	
5080	0	32800	32698	
5081	0	32812	32622	
5082	0	32816	32631	
5083	0	32824	32642	
5084	0	32852	32552	
5085	0	32865	32616	
5086	0	32764	32480	
5087	0	32714	32548	
5088	0	32592	32616	
5089	0	32600	32512	
5090	0	32640	32603	
5091	0	32698	32610	
5092	0	32732	32775	
5093	0	32800	32879	
5094	0	32852	32972	
5095	0	32908	32736	
5096	0	32794	32992	
5097	0	32756	32892	
5098	0	32866	32904	
5099	0	32792	32598	
5100	0	32778	32728	
5101	0	32780	32590	
5102	0	32758	32664	
5103	0	32832	32806	
5104	0	32800	32742	
5105	0	32804	32850	
5106	0	32932	32708	
5107	0	33052	32871	
5108	0	32998	32852	
5109	0	33032	32701	
5110	0	33028	32766	
5111	0	32964	32750	
5112	0	32836	32868	
5113	0	32848	32670	
5114	0	32740	32706	
5115	0	32712	32760	
5116	0	32710	32753	
5117	0	32804	32740	
5118	0	32794	32718	
5119	0	32928	32830	
5120	0	32858	32826	
5121	0	32890	32821	
5122	0	32864	32687	
5123	0	32908	32618	
5124	0	32878	32775	
5125	0	32814	32678	
5126	0	32916	32732	
5127	0	32970	32692	
5128	0	32942	32791	
5129	0	32884	32828	
5130	0	32724	32678	
5131	0	32668	32724	
5132	0	32648	32876	
5133	0	32628	32794	
5134	0	32592	32743	
5135	0	32836	32796	
5136	0	32768	32794	
5137	0	32820	32775	
5138	0	32754	32736	
5139	0	32732	32994	
5140	0	32702	32894	
5141	0	32736	32836	
5142	0	32808	32615	
5143	0	32820	32728	
5144	0	32836	32740	
5145	0	32832	32725	
5146	0	32860	32684	
5147	0	32772	32846	
5148	0	32850	32857	
5149	0	32836	32814	
5150	0	32778	32895	
5151	0	32800	32756	
5152	0	32780	32730	
5153	0	32712	32664	
5154	0	32808	32686	
5155	0	32782	32636	
5156	0	32748	32760	
5157	0	32836	32826	
5158	0	32878	32810	
5159	0	32892	32702	
5160	0	32914	32744	
5161	0	32820	32903	
5162	0	32802	32775	
5163	0	32700	32794	
5164	0	32656	32638	
5165	0	32736	32655	
5166	0	32604	32738	
5167	0	32776	32689	
5168	0	32766	32704	
5169	0	32860	32668	
5170	0	32900	32556	
5171	0	32952	32600	
5172	0	32958	32490	
5173	0	33020	32623	
5174	0	32868	32654	
5175	0	32928	32998	
5176	0	32888	33044	
5177	0	32804	33046	
5178	0	32752	32840	
5179	0	32772	32804	
5180	0	32724	32928	
5181	0	32724	32808	
5182	0	32800	32605	
5183	0	32742	32572	
5184	0	32704	32598	
5185	0	32700	32790	
5186	0	32876	32720	
5187	0	32854	32780	
5188	0	32772	32916	
5189	0	32781	32914	
5190	0	32724	32964	
5191	0	32778	32830	
5192	0	32792	32884	
5193	0	32724	32812	
5194	0	32740	32746	
5195	0	32788	32618	
5196	0	32800	32796	
5197	0	32746	32684	
5198	0	32788	32775	
5199	0	32776	32634	
5200	0	32804	32624	
5201	0	32726	32656	
5202	0	32862	32592	
5203	0	32928	32726	
5204	0	32856	32694	
5205	0	32744	32864	
5206	0	32732	32668	
5207	0	32868	32594	
5208	0	32796	32736	
5209	0	32776	32820	
5210	0	32794	32736	
5211	0	32774	32772	
5212	0	32828	32712	
5213	0	32794	32808	
5214	0	32672	32647	
5215	0	32640	32766	
5216	0	32756	32918	
5217	0	32865	32882	
5218	0	32792	33016	
5219	0	32616	32964	
5220	0	32702	32774	
5221	0	32692	32732	
5222	0	32738	32616	
5223	0	32608	32678	
5224	0	32690	32630	
5225	0	32748	32666	
5226	0	32776	32848	
5227	0	32744	32968	
5228	0	32820	32956	
5229	0	32852	32619	
5230	0	32924	32700	
5231	0	32848	32703	
5232	0	32928	32584	
5233	0	32884	32624	
5234	0	32874	32708	
5235	0	32780	32720	
5236	0	32878	32812	
5237	0	32896	32740	
5238	0	32840	32770	
5239	0	32840	32636	
5240	0	32836	32688	
5241	0	32826	32711	
5242	0	33012	32695	
5243	0	32986	32564	
5244	0	32810	32576	
5245	0	32740	32898	
5246	0	32764	32839	
5247	0	32780	33028	
5248	0	32744	33020	
5249	0	32576	32948	
5250	0	32572	32808	
5251	0	32604	32712	
5252	0	32546	32624	
5253	0	32638	32626	
5254	0	32786	32574	
5255	0	32718	32804	
5256	0	32860	32688	
5257	0	32982	32774	
5258	0	32824	32846	
5259	0	32832	32647	
5260	0	32888	32698	
5261	0	32852	32715	
5262	0	32782	32638	
5263	0	32866	32726	
5264	0	32846	32966	
5265	0	32844	33084	
5266	0	32838	33055	
5267	0	32756	32902	
5268	0	32740	32798	
5269	0	32740	32820	
5270	0	32740	32714	
5271	0	32768	32678	
5272	0	32796	32708	
5273	0	32792	32590	
5274	0	32864	32727	
5275	0	32760	32658	
5276	0	32744	32666	
5277	0	32808	32612	
5278	0	32840	32764	
5279	0	32700	32814	
5280	0	32808	32790	
5281	0	32766	32628	
5282	0	32856	32722	
5283	0	32806	32748	
5284	0	32792	32742	
5285	0	32818	32558	
5286	0	32776	32670	
5287	0	32844	32694	
5288	0	32704	32830	
5289	0	32752	32908	
5290	0	32866	32698	
5291	0	32820	32775	
5292	0	32800	32701	
5293	0	32816	32767	
5294	0	32744	32726	
5295	0	32776	32774	
5296	0	32800	32759	
5297	0	32846	32823	
5298	0	32774	32728	
5299	0	32808	32676	
5300	0	32752	32668	
5301	0	32920	32761	
5302	0	32788	32758	
5303	0	32774	32694	
5304	0	32692	32911	
5305	0	32640	32788	
5306	0	32688	32775	
5307	0	32764	32744	
5308	0	32834	32768	
5309	0	32880	32678	
5310	0	32876	32763	
5311	0	32848	32698	
5312	0	32838	32572	
5313	0	32728	32618	
5314	0	32762	32836	
5315	0	32775	32738	
5316	0	32846	32792	
5317	0	32768	32738	
5318	0	32868	32664	
5319	0	32802	32736	
5320	0	32824	32874	
5321	0	32880	32704	
5322	0	32802	32668	
5323	0	32790	32806	
5324	0	32762	32804	
5325	0	32780	32806	
5326	0	32846	32664	
5327	0	32876	32740	
5328	0	32898	32668	
5329	0	32714	32766	
5330	0	32804	32556	
5331	0	32696	32652	
5332	0	32646	32926	
5333	0	32480	32998	
5334	0	32535	32960	
5335	0	32736	32830	
5336	0	32806	32750	
5337	0	32756	32805	
5338	0	32798	32748	
5339	0	32752	32622	
5340	0	32722	32774	
5341	0	32853	32720	
5342	0	32856	32732	
5343	0	32918	32670	
5344	0	32832	32820	
5345	0	32860	32795	
5346	0	32852	32808	
5347	0	32808	32664	
5348	0	32822	32852	
5349	0	32892	32726	
5350	0	32880	32767	
5351	0	32842	32730	
5352	0	32792	32708	
5353	0	32798	32714	
5354	0	32774	32804	
5355	0	32680	32856	
5356	0	32780	32646	
5357	0	32868	32683	
5358	0	32932	32700	
5359	0	32800	32687	
5360	0	32778	32682	
5361	0	32628	32622	
5362	0	32582	32602	
5363	0	32664	32644	
5364	0	32724	32724	
5365	0	32856	32820	
5366	0	32944	32792	
5367	0	32896	32772	
5368	0	32862	32698	
5369	0	32864	32800	
5370	0	32872	32798	
5371	0	32848	32746	
5372	0	32804	32734	
5373	0	32824	32764	
5374	0	32802	32784	
5375	0	32778	32712	
5376	0	32692	32760	
5377	0	32712	32786	
5378	0	32780	32772	
5379	0	32782	32620	
5380	0	32796	32918	
5381	0	32762	32756	
5382	0	32728	32678	
5383	0	32878	32691	
5384	0	32878	32770	
5385	0	32820	32756	
5386	0	32778	32832	
5387	0	32816	32716	
5388	0	32820	32856	
5389	0	32832	32802	
5390	0	32808	32796	
5391	0	32808	32690	
5392	0	32740	32622	
5393	0	32738	32696	
5394	0	32700	32746	
5395	0	32640	32654	
5396	0	32692	32759	
5397	0	32748	32766	
5398	0	32804	32799	
5399	0	32800	32684	
5400	0	32792	32670	
5401	0	32836	32654	
5402	0	32832	32662	
5403	0	32788	32680	
5404	0	32852	32538	
5405	0	32804	32636	
5406	0	32748	32806	
5407	0	32768	32839	
5408	0	32830	32748	
5409	0	32780	32708	
5410	0	32798	32944	
5411	0	32800	32957	
5412	0	32676	32758	
5413	0	32678	32695	
5414	0	32724	32762	
5415	0	32770	32774	
5416	0	32724	32678	
5417	0	32784	32726	
5418	0	32846	32636	
5419	0	32768	32494	
5420	0	32788	32774	
5421	0	32810	32720	
5422	0	32938	32792	
5423	0	32932	32711	
5424	0	32940	32772	
5425	0	32764	32806	
5426	0	32688	32746	
5427	0	32768	32706	
5428	0	32712	32861	
5429	0	32638	32864	
5430	0	32662	32846	
5431	0	32724	32646	
5432	0	32678	32775	
5433	0	32680	32704	
5434	0	32616	32759	
5435	0	32756	32743	
5436	0	32828	32762	
5437	0	32868	32676	
5438	0	32904	32660	
5439	0	32860	32606	
5440	0	32828	32668	
5441	0	32864	32652	
5442	0	32836	32737	
5443	0	32808	32742	
5444	0	32880	32871	
5445	0	32916	32688	
5446	0	32868	32890	
5447	0	32885	32894	
5448	0	32890	32730	
5449	0	32822	32871	
5450	0	32824	32892	
5451	0	32732	32740	
5452	0	32752	32868	
5453	0	32812	32768	
5454	0	32758	32820	
5455	0	32748	32736	
5456	0	32788	32772	
5457	0	32816	32710	
5458	0	32804	32731	
5459	0	32884	32872	
5460	0	32766	32775	
5461	0	32782	32820	
5462	0	32850	32596	
5463	0	32852	32616	
5464	0	32880	32700	
5465	0	32874	32711	
5466	0	32848	32714	
5467	0	32848	32770	
5468	0	32740	32835	
5469	0	32596	32693	
5470	0	32596	32732	
5471	0	32594	32722	
5472	0	32642	32672	
5473	0	32780	32796	
5474	0	32828	32796	
5475	0	32860	32736	
5476	0	32982	32836	
5477	0	33012	32742	
5478	0	32972	32724	
5479	0	32880	32647	
5480	0	32772	32826	
5481	0	32706	32762	
5482	0	32632	32652	
5483	0	32682	32824	
5484	0	32744	32826	
5485	0	32712	32850	
5486	0	32842	32892	
5487	0	32844	32775	
5488	0	32846	32892	
5489	0	32828	32788	
5490	0	32860	32763	
5491	0	32904	32702	
5492	0	32894	32716	
5493	0	32988	32732	
5494	0	32928	32702	
5495	0	32897	32652	
5496	0	32884	32746	
5497	0	32802	32690	
5498	0	32608	32772	
5499	0	32718	32654	
5500	0	32628	32660	
5501	0	32702	32796	
5502	0	32846	32750	
5503	0	32836	32822	
5504	0	32752	32898	
5505	0	32724	32839	
5506	0	32676	32680	
5507	0	32714	32858	
5508	0	32720	32670	
5509	0	32764	32663	
5510	0	32768	32604	
5511	0	32844	32847	
5512	0	32880	32852	
5513	0	32852	32831	
5514	0	32938	32850	
5515	0	32881	32943	
5516	0	32864	32870	
5517	0	32820	33004	
5518	0	32784	32856	
5519	0	32812	32769	
5520	0	32792	32658	
5521	0	32782	32774	
5522	0	32800	32742	
5523	0	32868	32742	
5524	0	32832	32726	
5525	0	32828	32798	
5526	0	32856	32788	
5527	0	32825	32734	
5528	0	32798	32692	
5529	0	32824	32864	
5530	0	32836	32822	
5531	0	32848	32772	
5532	0	32928	32687	
5533	0	32990	32882	
5534	0	32880	32826	
5535	0	32916	32848	
5536	0	32834	32775	
5537	0	32908	32840	
5538	0	32752	32876	
5539	0	32772	32664	
5540	0	32692	32672	
5541	0	32724	32514	
5542	0	32696	32570	
5543	0	32658	32644	
5544	0	32728	32554	
5545	0	32716	32548	
5546	0	32720	32447	
5547	0	32680	32526	
5548	0	32780	32592	
5549	0	32836	32676	
5550	0	32790	32614	
5551	0	32834	32810	
5552	0	32849	32800	
5553	0	32852	32834	
5554	0	32750	32775	
5555	0	32884	32810	
5556	0	32756	32816	
5557	0	32776	32796	
5558	0	32828	32705	
5559	0	32742	32754	
5560	0	32756	32848	
5561	0	32768	32814	
5562	0	32792	32894	
5563	0	32828	32988	
5564	0	32794	32732	
5565	0	32798	32692	
5566	0	32804	32834	
5567	0	32792	32888	
5568	0	32796	32772	
5569	0	32796	32943	
5570	0	32830	32884	
5571	0	32838	32879	
5572	0	32784	32826	
5573	0	32792	32692	
5574	0	32728	32728	
5575	0	32740	32830	
5576	0	32784	32750	
5577	0	32732	32711	
5578	0	32806	32704	
5579	0	32820	32764	
5580	0	32846	32726	
5581	0	32774	32694	
5582	0	32826	32698	
5583	0	32752	32790	
5584	0	32776	32743	
5585	0	32784	32800	
5586	0	32788	32660	
5587	0	32798	32807	
5588	0	32766	32748	
5589	0	32812	32820	
5590	0	32748	32688	
5591	0	32784	32775	
5592	0	32736	32684	
5593	0	32816	32770	
5594	0	32808	32732	
5595	0	32860	32794	
5596	0	32850	32775	
5597	0	32816	32799	
5598	0	32812	32692	
5599	0	32808	32652	
5600	0	32780	32762	
5601	0	32808	32718	
5602	0	32740	32764	
5603	0	32832	32744	
5604	0	32754	32739	
5605	0	32804	32801	
5606	0	32775	32824	
5607	0	32828	32736	
5608	0	32840	32800	
5609	0	32848	32766	
5610	0	32920	32752	
5611	0	32902	32694	
5612	0	32928	32662	
5613	0	32932	32789	
5614	0	32932	32740	
5615	0	32802	32788	
5616	0	32622	32742	
5617	0	32532	32772	
5618	0	32538	32772	
5619	0	32384	32860	
5620	0	32466	32716	
5621	0	32640	32759	
5622	0	32856	32816	
5623	0	32948	32772	
5624	0	32920	32540	
5625	0	32904	32606	
5626	0	32900	32740	
5627	0	32934	32764	
5628	0	32934	32775	
5629	0	32924	32870	
5630	0	32860	32863	
5631	0	32788	32812	
5632	0	32852	32890	
5633	0	32842	32700	
5634	0	32824	32786	
5635	0	32812	32676	
5636	0	32848	32724	
5637	0	32854	32652	
5638	0	32800	32806	
5639	0	32770	32794	
5640	0	32784	32838	
5641	0	32848	32775	
5642	0	32874	32766	
5643	0	32836	32838	
5644	0	32868	32742	
5645	0	32872	32728	
5646	0	32856	32844	
5647	0	32862	32682	
5648	0	32832	32828	
5649	0	32836	32705	
5650	0	32844	32830	
5651	0	32836	32794	
5652	0	32760	32746	
5653	0	32820	32816	
5654	0	32782	32800	
5655	0	32732	32708	
5656	0	32748	32704	
5657	0	32784	32822	
5658	0	32836	32775	
5659	0	32800	32874	
5660	0	32776	32716	
5661	0	32732	32836	
5662	0	32746	32759	
5663	0	32740	32800	
5664	0	32742	32574	
5665	0	32804	32810	
5666	0	32944	32730	
5667	0	32880	32775	
5668	0	32808	32730	
5669	0	32806	32746	
5670	0	32832	32790	
5671	0	32828	32678	
5672	0	32868	32750	
5673	0	32846	32814	
5674	0	32800	32802	
5675	0	32794	32714	
5676	0	32650	32678	
5677	0	32650	32839	
5678	0	32708	32738	
5679	0	32700	32638	
5680	0	32652	32820	
5681	0	32746	32707	
5682	0	32776	32810	
5683	0	32832	32743	
5684	0	32844	32890	
5685	0	32930	32854	
5686	0	32887	32846	
5687	0	32944	32852	
5688	0	32844	32900	
5689	0	32760	32800	
5690	0	32782	32816	
5691	0	32775	32758	
5692	0	32736	32866	
5693	0	32740	32772	
5694	0	32744	32762	
5695	0	32792	32748	
5696	0	32852	32852	
5697	0	32892	32666	
5698	0	32852	32775	
5699	0	32862	32640	
5700	0	32840	32702	
5701	0	32888	32756	
5702	0	32910	32750	
5703	0	32864	32748	
5704	0	32848	32740	
5705	0	32916	32814	
5706	0	32876	32747	
5707	0	32784	32711	
5708	0	32876	32807	
5709	0	32814	32798	
5710	0	32766	32702	
5711	0	32768	32718	
5712	0	32764	32862	
5713	0	32800	32794	
5714	0	32784	32852	
5715	0	32840	32647	
5716	0	32804	32752	
5717	0	32896	32756	
5718	0	32876	32794	
5719	0	32868	32698	
5720	0	32776	32664	
5721	0	32700	32756	
5722	0	32668	32746	
5723	0	32682	32716	
5724	0	32692	32831	
5725	0	32820	32748	
5726	0	32892	32846	
5727	0	32684	32616	
5728	0	32804	32862	
5729	0	32930	32761	
5730	0	33056	32726	
5731	0	32840	32743	
5732	0	32852	32854	
5733	0	32686	32878	
5734	0	32539	32764	
5735	0	32534	32804	
5736	0	32600	32676	
5737	0	32650	32775	
5738	0	32776	32806	
5739	0	32870	32766	
5740	0	32934	32676	
5741	0	32900	32724	
5742	0	32836	32734	
5743	0	32800	32768	
5744	0	32854	32799	
5745	0	32766	32654	
5746	0	32812	32840	
5747	0	32800	32838	
5748	0	32710	32756	
5749	0	32878	32660	
5750	0	32916	32812	
5751	0	32900	32722	
5752	0	32804	32874	
5753	0	32798	32680	
5754	0	32840	32806	
5755	0	32784	32774	
5756	0	32762	32743	
5757	0	32856	32775	
5758	0	32826	32839	
5759	0	32830	32880	
5760	0	32788	32630	
5761	0	32768	32836	
5762	0	32848	32732	
5763	0	32752	32828	
5764	0	32840	32636	
5765	0	32868	32698	
5766	0	32776	32775	
5767	0	32760	32679	
5768	0	32796	32806	
5769	0	32824	32712	
5770	0	32788	32716	
5771	0	32848	32882	
5772	0	32838	32804	
5773	0	32826	32860	
5774	0	32774	32738	
5775	0	32768	32801	
5776	0	32732	32723	
5777	0	32848	32812	
5778	0	32898	32742	
5779	0	32868	32679	
5780	0	32808	32794	
5781	0	32810	32756	
5782	0	32772	32787	
5783	0	32708	32676	
5784	0	32724	32794	
5785	0	32700	32774	
5786	0	32682	32758	
5787	0	32700	32615	
5788	0	32680	32775	
5789	0	32724	32798	
5790	0	32714	32762	
5791	0	32840	32656	
5792	0	32933	32747	
5793	0	32900	32806	
5794	0	32960	32764	
5795	0	32868	32724	
5796	0	32872	32722	
5797	0	32754	32828	
5798	0	32748	32856	
5799	0	32772	32742	
5800	0	32780	32751	
5801	0	32724	32710	
5802	0	32790	32786	
5803	0	32768	32695	
5804	0	32844	32634	
5805	0	32792	32743	
5806	0	32810	32775	
5807	0	32846	32858	
5808	0	32822	32669	
5809	0	32744	32785	
5810	0	32826	32790	
5811	0	32776	32852	
5812	0	32688	32680	
5813	0	32672	32618	
5814	0	32770	32764	
5815	0	32860	32775	
5816	0	32828	32754	
5817	0	32844	32708	
5818	0	32854	32770	
5819	0	32872	32796	
5820	0	32878	32798	
5821	0	32844	32792	
5822	0	32880	32775	
5823	0	32860	32752	
5824	0	32810	32754	
5825	0	32852	32794	
5826	0	32860	32831	
5827	0	32864	32792	
5828	0	32740	32846	
5829	0	32752	32775	
5830	0	32912	32705	
5831	0	32810	32744	
5832	0	32788	32756	
5833	0	32916	32830	
5834	0	32910	32760	
5835	0	32826	32710	
5836	0	32840	32816	
5837	0	32852	32847	
5838	0	32830	32816	
5839	0	32790	32727	
5840	0	32828	32871	
5841	0	32846	32632	
5842	0	32872	32806	
5843	0	32734	32622	
5844	0	32782	32866	
5845	0	32764	32775	
5846	0	32764	32748	
5847	0	32804	32718	
5848	0	32836	32702	
5849	0	32786	32820	
5850	0	32775	32727	
5851	0	32780	32720	
5852	0	32756	32689	
5853	0	32736	32866	
5854	0	32738	32920	
5855	0	32880	32820	
5856	0	32852	32618	
5857	0	32856	32666	
5858	0	32912	32715	
5859	0	32852	32766	
5860	0	32852	32828	
5861	0	32810	32702	
5862	0	32800	32794	
5863	0	32754	32716	
5864	0	32652	32768	
5865	0	32838	32668	
5866	0	32724	32898	
5867	0	32796	32790	
5868	0	32836	32760	
5869	0	32890	32647	
5870	0	32822	32946	
5871	0	32768	32802	
5872	0	32894	32847	
5873	0	32900	32843	
5874	0	32836	32896	
5875	0	32842	32942	
5876	0	32912	32768	
5877	0	32774	32868	
5878	0	32850	32870	
5879	0	32976	32775	
5880	0	32964	32912	
5881	0	32929	32652	
5882	0	32872	32736	
5883	0	32806	32880	
5884	0	32800	32845	
5885	0	32676	32670	
5886	0	32734	32726	
5887	0	32724	32766	
5888	0	32692	32687	
5889	0	32688	32788	
5890	0	32792	32634	
5891	0	32836	32631	
5892	0	32752	32884	
5893	0	32884	32696	
5894	0	32804	32732	
5895	0	32724	32750	
5896	0	32652	32700	
5897	0	32792	32615	
5898	0	32836	32798	
5899	0	32822	32775	
5900	0	32807	32760	
5901	0	32844	32762	
5902	0	32848	32742	
5903	0	32880	32614	
5904	0	32926	32748	
5905	0	32866	32762	
5906	0	32920	32716	
5907	0	32852	32900	
5908	0	32734	32726	
5909	0	32804	32790	
5910	0	32788	32828	
5911	0	32774	32706	
5912	0	32726	32814	
5913	0	32676	32842	
5914	0	32774	32708	
5915	0	32794	32800	
5916	0	32820	32610	
5917	0	32740	32654	
5918	0	32758	32647	
5919	0	32768	32583	
5920	0	32804	32710	
5921	0	32880	32808	
5922	0	32936	32816	
5923	0	32930	32812	
5924	0	32908	32871	
5925	0	32868	32704	
5926	0	32858	32660	
5927	0	32796	32838	
5928	0	32752	32668	
5929	0	32746	32742	
5930	0	32780	32828	
5931	0	32764	32844	
5932	0	32760	32792	
5933	0	32816	32849	
5934	0	32784	32739	
5935	0	32796	32774	
5936	0	32768	32932	
5937	0	32812	32792	
5938	0	32852	32802	
5939	0	32764	32910	
5940	0	32790	32775	
5941	0	32816	32762	
5942	0	32828	32732	
5943	0	32804	32742	
5944	0	32856	32743	
5945	0	32836	32860	
5946	0	32880	32800	
5947	0	32826	32640	
5948	0	32808	32772	
5949	0	32808	32791	
5950	0	32840	32972	
5951	0	32830	32764	
5952	0	32820	32903	
5953	0	32862	32795	
5954	0	32788	32775	
5955	0	32812	32901	
5956	0	32774	32730	
5957	0	32804	32768	
5958	0	32760	32828	
5959	0	32822	32682	
5960	0	32826	32880	
5961	0	32828	32818	
5962	0	32808	32754	
5963	0	32852	32768	
5964	0	32856	32750	
5965	0	32880	32810	
5966	0	32812	32878	
5967	0	32820	32826	
5968	0	32872	32790	
5969	0	32898	32774	
5970	0	32860	32908	
5971	0	32790	32774	
5972	0	32856	32770	
5973	0	32836	32711	
5974	0	32786	32774	
5975	0	32764	32768	
5976	0	32740	32775	
5977	0	32760	32775	
5978	0	32828	32751	
5979	0	32816	32860	
5980	0	32800	32804	
5981	0	32724	32674	
5982	0	32718	32775	
5983	0	32844	32768	
5984	0	32848	32775	
5985	0	32868	32682	
5986	0	32792	32836	
5987	0	32856	32792	
5988	0	32880	32810	
5989	0	32900	32718	
5990	0	32896	32784	
5991	0	32804	32790	
5992	0	32928	32720	
5993	0	32852	32744	
5994	0	32792	32742	
5995	0	32808	32798	
5996	0	32748	32816	
5997	0	32694	32644	
5998	0	32732	32630	
5999	0	32636	32774	
6000	0	32660	32846	
6001	0	32816	32761	
6002	0	32808	32914	
6003	0	32812	32775	
6004	0	32796	32822	
6005	0	32752	32775	
6006	0	32826	32716	
6007	0	32828	32744	
6008	0	32914	32830	
6009	0	32912	32669	
6010	0	32840	32710	
6011	0	32860	32756	
6012	0	32902	32818	
