# OpenSignals Text File Format. Version 1
# {"00:07:80:8C:0A:39": {"position": 0, "device": "biosignalsplux", "device name": "00:07:80:8C:0A:39", "device connection": "BTH00:07:80:8C:0A:39", "sampling rate": 1000, "resolution": [16, 16], "firmware version": 776, "comments": "", "keywords": "", "mode": 0, "sync interval": 2, "date": "2023-3-10", "time": "15:45:46.991", "channels": [1, 2], "sensor": ["EMG", "EMG"], "label": ["CH1", "CH2"], "column": ["nSeq", "DI", "CH1", "CH2"], "special": [{"SpO2": [80, 40, 5, 4, 3, 3]}, {"SpO2": [80, 40, 5, 4, 3, 3]}, {"SpO2": [80, 40, 5, 4, 3, 3]}, {"SpO2": [80, 40, 5, 4, 3, 3]}, {"SpO2": [80, 40, 5, 4, 3, 3]}, {"SpO2": [80, 40, 5, 4, 3, 3]}, {"SpO2": [80, 40, 5, 4, 3, 3]}, {"SpO2": [80, 40, 5, 4, 3, 3]}], "digital IO": [0, 1], "sleeve color": ["gray", "yellow"], "convertedValues": 0}}
# EndOfHeader
0	0	32820	32844	
1	0	32816	32708	
2	0	32820	32774	
3	0	32876	32758	
4	0	32788	32698	
5	0	32832	32870	
6	0	32744	32800	
7	0	32802	32816	
8	0	32870	32692	
9	0	32860	32756	
10	0	32820	32764	
11	0	32854	32712	
12	0	32856	32716	
13	0	32860	32800	
14	0	32896	32764	
15	0	32840	32807	
16	0	32816	32850	
17	0	32832	32722	
18	0	32828	32732	
19	0	32840	32754	
20	0	32836	32758	
21	0	32856	32712	
22	0	32890	32812	
23	0	32842	32700	
24	0	32804	32710	
25	0	32836	32838	
26	0	32744	32820	
27	0	32738	32721	
28	0	32772	32762	
29	0	32856	32896	
30	0	32782	32686	
31	0	32804	32790	
32	0	32768	32810	
33	0	32764	32726	
34	0	32776	32807	
35	0	32736	32754	
36	0	32778	32790	
37	0	32770	32868	
38	0	32776	32804	
39	0	32804	32668	
40	0	32832	32802	
41	0	32826	32775	
42	0	32748	32775	
43	0	32900	32670	
44	0	32810	32788	
45	0	32768	32766	
46	0	32808	32726	
47	0	32834	32792	
48	0	32804	32871	
49	0	32792	32754	
50	0	32792	32718	
51	0	32830	32744	
52	0	32788	32798	
53	0	32816	32624	
54	0	32802	32646	
55	0	32804	32782	
56	0	32770	32712	
57	0	32732	32712	
58	0	32798	32718	
59	0	32776	32860	
60	0	32836	32840	
61	0	32832	32736	
62	0	32806	32804	
63	0	32812	32728	
64	0	32848	32844	
65	0	32814	32670	
66	0	32832	32748	
67	0	32844	32758	
68	0	32832	32842	
69	0	32856	32774	
70	0	32834	32652	
71	0	32804	32784	
72	0	32828	32788	
73	0	32788	32752	
74	0	32800	32762	
75	0	32860	32775	
76	0	32832	32774	
77	0	32788	32788	
78	0	32806	32772	
79	0	32910	32662	
80	0	32804	32890	
81	0	32848	32794	
82	0	32788	32800	
83	0	32816	32720	
84	0	32804	32788	
85	0	32824	32852	
86	0	32770	32734	
87	0	32852	32725	
88	0	32796	32756	
89	0	32812	32834	
90	0	32790	32726	
91	0	32832	32844	
92	0	32844	32775	
93	0	32820	32860	
94	0	32840	32684	
95	0	32814	32736	
96	0	32876	32758	
97	0	32828	32836	
98	0	32844	32796	
99	0	32780	32904	
100	0	32818	32806	
101	0	32784	32718	
102	0	32788	32692	
103	0	32848	32838	
104	0	32784	32802	
105	0	32796	32688	
106	0	32792	32796	
107	0	32824	32774	
108	0	32754	32684	
109	0	32770	32710	
110	0	32838	32784	
111	0	32804	32856	
112	0	32810	32678	
113	0	32752	32790	
114	0	32817	32772	
115	0	32844	32742	
116	0	32824	32754	
117	0	32852	32796	
118	0	32844	32775	
119	0	32872	32716	
120	0	32842	32814	
121	0	32768	32760	
122	0	32796	32666	
123	0	32836	32666	
124	0	32834	32748	
125	0	32820	32748	
126	0	32764	32706	
127	0	32856	32840	
128	0	32792	32710	
129	0	32768	32775	
130	0	32796	32694	
131	0	32810	32704	
132	0	32814	32844	
133	0	32824	32720	
134	0	32816	32775	
135	0	32794	32820	
136	0	32860	32808	
137	0	32856	32744	
138	0	32788	32740	
139	0	32808	32774	
140	0	32788	32700	
141	0	32796	32810	
142	0	32836	32740	
143	0	32782	32820	
144	0	32836	32684	
145	0	32814	32726	
146	0	32842	32744	
147	0	32836	32623	
148	0	32886	32814	
149	0	32840	32726	
150	0	32796	32708	
151	0	32816	32754	
152	0	32796	32836	
153	0	32848	32775	
154	0	32824	32728	
155	0	32854	32740	
156	0	32864	32820	
157	0	32844	32794	
158	0	32828	32718	
159	0	32832	32808	
160	0	32824	32870	
161	0	32788	32802	
162	0	32796	32726	
163	0	32846	32762	
164	0	32810	32858	
165	0	32808	32722	
166	0	32808	32828	
167	0	32814	32856	
168	0	32840	32624	
169	0	32848	32772	
170	0	32762	32782	
171	0	32800	32680	
172	0	32754	32794	
173	0	32796	32823	
174	0	32752	32682	
175	0	32796	32822	
176	0	32814	32814	
177	0	32778	32772	
178	0	32844	32728	
179	0	32864	32788	
180	0	32860	32768	
181	0	32824	32806	
182	0	32816	32738	
183	0	32846	32790	
184	0	32878	32844	
185	0	32828	32732	
186	0	32846	32793	
187	0	32876	32796	
188	0	32836	32796	
189	0	32828	32724	
190	0	32808	32854	
191	0	32808	32854	
192	0	32812	32688	
193	0	32856	32812	
194	0	32724	32772	
195	0	32780	32746	
196	0	32760	32752	
197	0	32776	32647	
198	0	32764	32772	
199	0	32832	32775	
200	0	32842	32766	
201	0	32840	32811	
202	0	32778	32742	
203	0	32876	32743	
204	0	32808	32802	
205	0	32824	32832	
206	0	32840	32736	
207	0	32798	32682	
208	0	32804	32784	
209	0	32840	32726	
210	0	32818	32750	
211	0	32800	32688	
212	0	32754	32722	
213	0	32820	32766	
214	0	32816	32736	
215	0	32844	32754	
216	0	32892	32700	
217	0	32786	32688	
218	0	32852	32800	
219	0	32792	32834	
220	0	32804	32836	
221	0	32870	32716	
222	0	32820	32872	
223	0	32804	32756	
224	0	32780	32802	
225	0	32750	32768	
226	0	32808	32744	
227	0	32744	32700	
228	0	32824	32678	
229	0	32800	32790	
230	0	32764	32775	
231	0	32820	32688	
232	0	32856	32775	
233	0	32814	32736	
234	0	32846	32764	
235	0	32788	32716	
236	0	32804	32830	
237	0	32816	32767	
238	0	32762	32775	
239	0	32808	32742	
240	0	32840	32796	
241	0	32848	32838	
242	0	32808	32732	
243	0	32840	32864	
244	0	32818	32788	
245	0	32824	32772	
246	0	32792	32660	
247	0	32868	32822	
248	0	32820	32730	
249	0	32860	32804	
250	0	32830	32775	
251	0	32834	32775	
252	0	32848	32858	
253	0	32801	32660	
254	0	32788	32882	
255	0	32828	32728	
256	0	32796	32810	
257	0	32752	32654	
258	0	32744	32806	
259	0	32748	32862	
260	0	32800	32774	
261	0	32824	32704	
262	0	32800	32820	
263	0	32856	32774	
264	0	32808	32754	
265	0	32800	32820	
266	0	32768	32720	
267	0	32772	32724	
268	0	32802	32712	
269	0	32820	32784	
270	0	32876	32748	
271	0	32728	32720	
272	0	32736	32710	
273	0	32810	32822	
274	0	32820	32775	
275	0	32804	32754	
276	0	32760	32672	
277	0	32792	32772	
278	0	32808	32704	
279	0	32796	32818	
280	0	32856	32768	
281	0	32878	32775	
282	0	32804	32802	
283	0	32832	32774	
284	0	32800	32710	
285	0	32800	32760	
286	0	32788	32828	
287	0	32836	32730	
288	0	32764	32806	
289	0	32828	32753	
290	0	32814	32840	
291	0	32816	32656	
292	0	32772	32764	
293	0	32794	32816	
294	0	32844	32720	
295	0	32840	32806	
296	0	32780	32796	
297	0	32856	32709	
298	0	32836	32764	
299	0	32836	32814	
300	0	32776	32810	
301	0	32804	32748	
302	0	32842	32660	
303	0	32804	32766	
304	0	32904	32850	
305	0	32820	32679	
306	0	32848	32794	
307	0	32908	32807	
308	0	32784	32700	
309	0	32836	32724	
310	0	32840	32802	
311	0	32762	32860	
312	0	32814	32756	
313	0	32784	32852	
314	0	32820	32736	
315	0	32816	32784	
316	0	32808	32660	
317	0	32878	32755	
318	0	32826	32752	
319	0	32848	32768	
320	0	32852	32682	
321	0	32792	32694	
322	0	32820	32772	
323	0	32838	32848	
324	0	32840	32740	
325	0	32826	32726	
326	0	32780	32692	
327	0	32824	32775	
328	0	32846	32800	
329	0	32824	32839	
330	0	32836	32718	
331	0	32840	32690	
332	0	32768	32775	
333	0	32836	32775	
334	0	32720	32760	
335	0	32812	32742	
336	0	32764	32838	
337	0	32812	32808	
338	0	32832	32672	
339	0	32822	32952	
340	0	32756	32820	
341	0	32774	32754	
342	0	32784	32706	
343	0	32780	32806	
344	0	32844	32750	
345	0	32824	32770	
346	0	32806	32704	
347	0	32796	32860	
348	0	32872	32775	
349	0	32788	32828	
350	0	32788	32658	
351	0	32806	32806	
352	0	32832	32768	
353	0	32832	32752	
354	0	32820	32702	
355	0	32784	32831	
356	0	32792	32822	
357	0	32826	32824	
358	0	32850	32656	
359	0	32794	32822	
360	0	32820	32782	
361	0	32824	32740	
362	0	32816	32794	
363	0	32784	32647	
364	0	32820	32830	
365	0	32808	32816	
366	0	32772	32764	
367	0	32777	32692	
368	0	32788	32775	
369	0	32836	32770	
370	0	32796	32836	
371	0	32836	32694	
372	0	32740	32771	
373	0	32850	32796	
374	0	32864	32796	
375	0	32820	32716	
376	0	32880	32649	
377	0	32734	32844	
378	0	32838	32768	
379	0	32834	32756	
380	0	32752	32652	
381	0	32802	32748	
382	0	32850	32814	
383	0	32832	32726	
384	0	32846	32775	
385	0	32788	32660	
386	0	32846	32790	
387	0	32820	32782	
388	0	32864	32775	
389	0	32796	32746	
390	0	32784	32884	
391	0	32864	32798	
392	0	32818	32820	
393	0	32752	32716	
394	0	32760	32748	
395	0	32890	32722	
396	0	32784	32812	
397	0	32775	32756	
398	0	32800	32700	
399	0	32872	32884	
400	0	32830	32828	
401	0	32858	32714	
402	0	32812	32632	
403	0	32814	32772	
404	0	32916	32836	
405	0	32808	32730	
406	0	32776	32768	
407	0	32832	32774	
408	0	32796	32769	
409	0	32768	32678	
410	0	32796	32884	
411	0	32824	32830	
412	0	32760	32848	
413	0	32768	32738	
414	0	32800	32692	
415	0	32816	32920	
416	0	32816	32742	
417	0	32870	32823	
418	0	32800	32754	
419	0	32800	32808	
420	0	32788	32764	
421	0	32836	32732	
422	0	32844	32830	
423	0	32828	32802	
424	0	32804	32714	
425	0	32830	32720	
426	0	32806	32732	
427	0	32828	32695	
428	0	32816	32656	
429	0	32872	32720	
430	0	32804	32742	
431	0	32758	32792	
432	0	32852	32774	
433	0	32864	32842	
434	0	32801	32796	
435	0	32746	32790	
436	0	32784	32766	
437	0	32824	32748	
438	0	32806	32775	
439	0	32882	32674	
440	0	32814	32846	
441	0	32780	32808	
442	0	32800	32712	
443	0	32772	32820	
444	0	32836	32810	
445	0	32832	32742	
446	0	32872	32846	
447	0	32790	32724	
448	0	32828	32688	
449	0	32836	32854	
450	0	32816	32848	
451	0	32772	32720	
452	0	32760	32752	
453	0	32828	32832	
454	0	32798	32663	
455	0	32748	32836	
456	0	32752	32824	
457	0	32800	32710	
458	0	32824	32742	
459	0	32852	32724	
460	0	32750	32708	
461	0	32848	32847	
462	0	32792	32748	
463	0	32812	32892	
464	0	32832	32804	
465	0	32836	32742	
466	0	32812	32792	
467	0	32862	32870	
468	0	32852	32732	
469	0	32832	32812	
470	0	32868	32794	
471	0	32784	32828	
472	0	32696	32668	
473	0	32792	32676	
474	0	32825	32823	
475	0	32792	32810	
476	0	32820	32858	
477	0	32812	32770	
478	0	32874	32736	
479	0	32836	32684	
480	0	32810	32796	
481	0	32848	32782	
482	0	32812	32715	
483	0	32814	32760	
484	0	32820	32768	
485	0	32772	32788	
486	0	32784	32740	
487	0	32834	32816	
488	0	32816	32726	
489	0	32754	32632	
490	0	32848	32826	
491	0	32788	32788	
492	0	32772	32770	
493	0	32874	32674	
494	0	32800	32828	
495	0	32836	32786	
496	0	32808	32734	
497	0	32748	32772	
498	0	32784	32812	
499	0	32824	32772	
500	0	32824	32876	
501	0	32850	32732	
502	0	32804	32874	
503	0	32824	32846	
504	0	32834	32864	
505	0	32774	32692	
506	0	32796	32816	
507	0	32814	32784	
508	0	32780	32760	
509	0	32792	32704	
510	0	32776	32858	
511	0	32766	32775	
512	0	32784	32792	
513	0	32836	32668	
514	0	32740	32768	
515	0	32828	32792	
516	0	32880	32798	
517	0	32784	32724	
518	0	32784	32644	
519	0	32742	32758	
520	0	32817	32736	
521	0	32796	32848	
522	0	32936	32642	
523	0	32834	32700	
524	0	32892	32874	
525	0	32814	32772	
526	0	32870	32849	
527	0	32796	32753	
528	0	32812	32774	
529	0	32832	32742	
530	0	32792	32724	
531	0	32788	32855	
532	0	32784	32738	
533	0	32786	32668	
534	0	32868	32830	
535	0	32836	32682	
536	0	32840	32711	
537	0	32900	32734	
538	0	32868	32724	
539	0	32846	32736	
540	0	32844	32860	
541	0	32816	32743	
542	0	32764	32656	
543	0	32832	32774	
544	0	32810	32752	
545	0	32816	32836	
546	0	32814	32701	
547	0	32744	32884	
548	0	32800	32826	
549	0	32768	32828	
550	0	32792	32760	
551	0	32760	32724	
552	0	32780	32824	
553	0	32764	32775	
554	0	32816	32792	
555	0	32832	32775	
556	0	32738	32850	
557	0	32814	32698	
558	0	32780	32712	
559	0	32800	32824	
560	0	32846	32830	
561	0	32794	32852	
562	0	32788	32775	
563	0	32820	32736	
564	0	32900	32842	
565	0	32844	32806	
566	0	32808	32664	
567	0	32816	32740	
568	0	32768	32764	
569	0	32768	32768	
570	0	32824	32646	
571	0	32858	32772	
572	0	32826	32816	
573	0	32844	32799	
574	0	32816	32748	
575	0	32832	32742	
576	0	32832	32764	
577	0	32761	32754	
578	0	32804	32792	
579	0	32824	32706	
580	0	32784	32788	
581	0	32808	32740	
582	0	32780	32898	
583	0	32768	32722	
584	0	32808	32710	
585	0	32764	32718	
586	0	32768	32807	
587	0	32816	32686	
588	0	32900	32682	
589	0	32838	32760	
590	0	32808	32807	
591	0	32770	32650	
592	0	32798	32796	
593	0	32872	32743	
594	0	32846	32786	
595	0	32840	32784	
596	0	32768	32820	
597	0	32830	32792	
598	0	32792	32770	
599	0	32780	32688	
600	0	32846	32814	
601	0	32842	32810	
602	0	32848	32775	
603	0	32780	32679	
604	0	32804	32814	
605	0	32906	32775	
606	0	32772	32772	
607	0	32836	32706	
608	0	32792	32804	
609	0	32816	32792	
610	0	32884	32775	
611	0	32856	32838	
612	0	32828	32654	
613	0	32822	32724	
614	0	32792	32720	
615	0	32740	32766	
616	0	32810	32708	
617	0	32868	32762	
618	0	32816	32750	
619	0	32796	32825	
620	0	32784	32748	
621	0	32888	32716	
622	0	32804	32746	
623	0	32836	32807	
624	0	32896	32788	
625	0	32780	32682	
626	0	32838	32838	
627	0	32792	32752	
628	0	32836	32740	
629	0	32820	32718	
630	0	32872	32794	
631	0	32814	32756	
632	0	32724	32824	
633	0	32788	32820	
634	0	32829	32744	
635	0	32838	32774	
636	0	32806	32708	
637	0	32832	32734	
638	0	32876	32834	
639	0	32856	32842	
640	0	32820	32748	
641	0	32804	32706	
642	0	32808	32774	
643	0	32804	32774	
644	0	32734	32774	
645	0	32816	32839	
646	0	32826	32740	
647	0	32748	32788	
648	0	32774	32682	
649	0	32784	32827	
650	0	32812	32788	
651	0	32816	32632	
652	0	32852	32832	
653	0	32860	32791	
654	0	32798	32744	
655	0	32788	32687	
656	0	32810	32762	
657	0	32784	32762	
658	0	32832	32828	
659	0	32768	32820	
660	0	32818	32844	
661	0	32804	32726	
662	0	32806	32784	
663	0	32840	32762	
664	0	32752	32758	
665	0	32804	32712	
666	0	32888	32775	
667	0	32864	32730	
668	0	32828	32752	
669	0	32822	32712	
670	0	32756	32766	
671	0	32810	32762	
672	0	32808	32802	
673	0	32784	32752	
674	0	32838	32770	
675	0	32856	32822	
676	0	32776	32862	
677	0	32792	32711	
678	0	32784	32808	
679	0	32868	32872	
680	0	32816	32758	
681	0	32808	32798	
682	0	32812	32920	
683	0	32806	32744	
684	0	32844	32784	
685	0	32822	32740	
686	0	32744	32662	
687	0	32812	32828	
688	0	32834	32752	
689	0	32760	32596	
690	0	32770	32846	
691	0	32816	32782	
692	0	32800	32804	
693	0	32798	32758	
694	0	32824	32758	
695	0	32844	32760	
696	0	32858	32692	
697	0	32832	32788	
698	0	32842	32756	
699	0	32766	32746	
700	0	32860	32730	
701	0	32776	32764	
702	0	32817	32840	
703	0	32828	32732	
704	0	32832	32798	
705	0	32840	32746	
706	0	32804	32788	
707	0	32800	32670	
708	0	32800	32903	
709	0	32760	32748	
710	0	32758	32724	
711	0	32776	32694	
712	0	32836	32772	
713	0	32852	32775	
714	0	32798	32682	
715	0	32824	32784	
716	0	32724	32746	
717	0	32764	32736	
718	0	32840	32804	
719	0	32783	32772	
720	0	32842	32798	
721	0	32820	32724	
722	0	32846	32816	
723	0	32848	32802	
724	0	32860	32814	
725	0	32856	32670	
726	0	32748	32816	
727	0	32842	32798	
728	0	32812	32822	
729	0	32804	32735	
730	0	32768	32692	
731	0	32794	32863	
732	0	32828	32784	
733	0	32792	32814	
734	0	32822	32775	
735	0	32796	32612	
736	0	32794	32794	
737	0	32820	32740	
738	0	32784	32788	
739	0	32740	32760	
740	0	32810	32680	
741	0	32776	32852	
742	0	32754	32748	
743	0	32772	32898	
744	0	32788	32706	
745	0	32876	32706	
746	0	32780	32839	
747	0	32836	32762	
748	0	32808	32775	
749	0	32836	32792	
750	0	32864	32714	
751	0	32796	32700	
752	0	32830	32812	
753	0	32816	32838	
754	0	32814	32678	
755	0	32792	32774	
756	0	32832	32828	
757	0	32808	32712	
758	0	32868	32804	
759	0	32810	32806	
760	0	32768	32712	
761	0	32752	32740	
762	0	32828	32730	
763	0	32800	32794	
764	0	32804	32775	
765	0	32804	32812	
766	0	32866	32799	
767	0	32856	32771	
768	0	32840	32700	
769	0	32794	32830	
770	0	32766	32760	
771	0	32832	32788	
772	0	32840	32780	
773	0	32850	32692	
774	0	32792	32751	
775	0	32836	32742	
776	0	32844	32750	
777	0	32860	32792	
778	0	32812	32688	
779	0	32806	32769	
780	0	32808	32796	
781	0	32840	32836	
782	0	32800	32626	
783	0	32808	32748	
784	0	32840	32788	
785	0	32868	32758	
786	0	32760	32816	
787	0	32806	32624	
788	0	32824	32752	
789	0	32820	32804	
790	0	32774	32676	
791	0	32776	32761	
792	0	32764	32803	
793	0	32736	32686	
794	0	32878	32792	
795	0	32838	32818	
796	0	32838	32676	
797	0	32836	32814	
798	0	32808	32774	
799	0	32834	32718	
800	0	32832	32838	
801	0	32908	32822	
802	0	32788	32702	
803	0	32836	32762	
804	0	32852	32830	
805	0	32856	32850	
806	0	32794	32708	
807	0	32824	32850	
808	0	32808	32800	
809	0	32760	32794	
810	0	32740	32784	
811	0	32770	32710	
812	0	32752	32732	
813	0	32758	32775	
814	0	32814	32688	
815	0	32840	32660	
816	0	32792	32784	
817	0	32830	32815	
818	0	32746	32679	
819	0	32748	32759	
820	0	32764	32775	
821	0	32812	32796	
822	0	32836	32734	
823	0	32850	32844	
824	0	32874	32710	
825	0	32830	32812	
826	0	32820	32812	
827	0	32784	32746	
828	0	32810	32736	
829	0	32832	32774	
830	0	32850	32824	
831	0	32772	32686	
832	0	32792	32736	
833	0	32768	32740	
834	0	32780	32900	
835	0	32816	32608	
836	0	32864	32756	
837	0	32792	32740	
838	0	32852	32770	
839	0	32816	32746	
840	0	32832	32698	
841	0	32836	32767	
842	0	32840	32826	
843	0	32780	32774	
844	0	32774	32674	
845	0	32752	32788	
846	0	32816	32760	
847	0	32824	32790	
848	0	32800	32694	
849	0	32740	32876	
850	0	32822	32750	
851	0	32718	32864	
852	0	32744	32748	
853	0	32736	32800	
854	0	32728	32852	
855	0	32796	32724	
856	0	32680	32830	
857	0	32718	32784	
858	0	32764	32870	
859	0	32748	32732	
860	0	32712	32903	
861	0	32718	32770	
862	0	32700	32894	
863	0	32686	32848	
864	0	32676	32903	
865	0	32692	32748	
866	0	32712	32794	
867	0	32682	32936	
868	0	32712	32775	
869	0	32756	32900	
870	0	32830	32742	
871	0	32780	32678	
872	0	32840	32774	
873	0	32796	32740	
874	0	32868	32766	
875	0	32900	32716	
876	0	32900	32800	
877	0	32956	32679	
878	0	33034	32660	
879	0	33114	32616	
880	0	33188	32628	
881	0	33192	32566	
882	0	33212	32528	
883	0	33220	32588	
884	0	33296	32532	
885	0	33256	32634	
886	0	33298	32646	
887	0	33200	32694	
888	0	33102	32604	
889	0	33060	32742	
890	0	32892	32836	
891	0	32800	32710	
892	0	32744	32858	
893	0	32600	32980	
894	0	32608	32740	
895	0	32520	33002	
896	0	32464	32868	
897	0	32464	32903	
898	0	32468	32820	
899	0	32540	32852	
900	0	32586	32872	
901	0	32636	32956	
902	0	32656	32786	
903	0	32680	32774	
904	0	32716	32868	
905	0	32726	32726	
906	0	32728	32775	
907	0	32746	32788	
908	0	32764	32704	
909	0	32780	32775	
910	0	32762	32766	
911	0	32782	32746	
912	0	32786	32756	
913	0	32812	32832	
914	0	32792	32775	
915	0	32780	32753	
916	0	32756	32704	
917	0	32772	32775	
918	0	32724	32732	
919	0	32832	32786	
920	0	32836	32810	
921	0	32808	32734	
922	0	32832	32788	
923	0	32836	32678	
924	0	32804	32680	
925	0	32852	32826	
926	0	32806	32748	
927	0	32880	32764	
928	0	32810	32756	
929	0	32840	32820	
930	0	32828	32796	
931	0	32872	32788	
932	0	32768	32636	
933	0	32812	32724	
934	0	32872	32758	
935	0	32904	32750	
936	0	32788	32724	
937	0	32772	32775	
938	0	32852	32816	
939	0	32808	32744	
940	0	32840	32858	
941	0	32784	32708	
942	0	32816	32863	
943	0	32828	32832	
944	0	32816	32754	
945	0	32844	32846	
946	0	32804	32704	
947	0	32808	32788	
948	0	32764	32710	
949	0	32814	32862	
950	0	32810	32788	
951	0	32788	32826	
952	0	32860	32684	
953	0	32820	32798	
954	0	32858	32834	
955	0	32768	32694	
956	0	32828	32848	
957	0	32782	32788	
958	0	32780	32870	
959	0	32780	32682	
960	0	32792	32742	
961	0	32832	32736	
962	0	32820	32770	
963	0	32782	32674	
964	0	32868	32775	
965	0	32788	32807	
966	0	32808	32732	
967	0	32800	32651	
968	0	32780	32738	
969	0	32864	32790	
970	0	32856	32887	
971	0	32848	32724	
972	0	32842	32775	
973	0	32808	32706	
974	0	32816	32842	
975	0	32788	32716	
976	0	32804	32790	
977	0	32862	32748	
978	0	32760	32871	
979	0	32784	32676	
980	0	32832	32846	
981	0	32824	32792	
982	0	32788	32810	
983	0	32784	32734	
984	0	32816	32832	
985	0	32864	32794	
986	0	32824	32884	
987	0	32806	32834	
988	0	32802	32706	
989	0	32768	32742	
990	0	32798	32775	
991	0	32782	32650	
992	0	32810	32775	
993	0	32792	32675	
994	0	32784	32759	
995	0	32772	32880	
996	0	32802	32738	
997	0	32718	32680	
998	0	32752	32807	
999	0	32784	32842	
1000	0	32766	32807	
1001	0	32784	32786	
1002	0	32840	32767	
1003	0	32826	32794	
1004	0	32832	32700	
1005	0	32786	32789	
1006	0	32810	32832	
1007	0	32780	32714	
1008	0	32804	32704	
1009	0	32812	32718	
1010	0	32870	32798	
1011	0	32824	32734	
1012	0	32808	32713	
1013	0	32868	32804	
1014	0	32788	32718	
1015	0	32794	32840	
1016	0	32848	32748	
1017	0	32812	32790	
1018	0	32780	32860	
1019	0	32866	32756	
1020	0	32784	32806	
1021	0	32818	32775	
1022	0	32816	32766	
1023	0	32810	32679	
1024	0	32800	32814	
1025	0	32840	32756	
1026	0	32744	32805	
1027	0	32824	32638	
1028	0	32828	32756	
1029	0	32812	32852	
1030	0	32762	32724	
1031	0	32852	32810	
1032	0	32800	32872	
1033	0	32900	32752	
1034	0	32858	32775	
1035	0	32810	32746	
1036	0	32840	32732	
1037	0	32808	32724	
1038	0	32821	32840	
1039	0	32812	32766	
1040	0	32864	32790	
1041	0	32868	32686	
1042	0	32836	32846	
1043	0	32832	32820	
1044	0	32856	32756	
1045	0	32798	32802	
1046	0	32848	32726	
1047	0	32760	32754	
1048	0	32832	32816	
1049	0	32814	32788	
1050	0	32798	32766	
1051	0	32760	32750	
1052	0	32796	32748	
1053	0	32750	32775	
1054	0	32788	32764	
1055	0	32800	32762	
1056	0	32808	32758	
1057	0	32852	32804	
1058	0	32810	32736	
1059	0	32768	32812	
1060	0	32776	32824	
1061	0	32810	32838	
1062	0	32780	32728	
1063	0	32816	32794	
1064	0	32830	32764	
1065	0	32828	32808	
1066	0	32772	32824	
1067	0	32868	32703	
1068	0	32830	32743	
1069	0	32842	32700	
1070	0	32816	32822	
1071	0	32796	32748	
1072	0	32772	32688	
1073	0	32824	32766	
1074	0	32820	32862	
1075	0	32824	32706	
1076	0	32796	32775	
1077	0	32806	32843	
1078	0	32840	32708	
1079	0	32836	32760	
1080	0	32782	32800	
1081	0	32784	32792	
1082	0	32756	32794	
1083	0	32782	32770	
1084	0	32788	32816	
1085	0	32788	32802	
1086	0	32866	32820	
1087	0	32836	32672	
1088	0	32824	32830	
1089	0	32852	32774	
1090	0	32800	32722	
1091	0	32846	32758	
1092	0	32780	32760	
1093	0	32800	32775	
1094	0	32836	32768	
1095	0	32778	32775	
1096	0	32800	32726	
1097	0	32846	32746	
1098	0	32840	32772	
1099	0	32854	32792	
1100	0	32828	32620	
1101	0	32840	32711	
1102	0	32792	32812	
1103	0	32804	32775	
1104	0	32832	32796	
1105	0	32850	32694	
1106	0	32888	32646	
1107	0	32798	32764	
1108	0	32856	32812	
1109	0	32780	32764	
1110	0	32772	32820	
1111	0	32784	32722	
1112	0	32784	32608	
1113	0	32836	32840	
1114	0	32792	32790	
1115	0	32820	32806	
1116	0	32768	32838	
1117	0	32776	32670	
1118	0	32820	32716	
1119	0	32852	32728	
1120	0	32816	32796	
1121	0	32868	32826	
1122	0	32844	32750	
1123	0	32760	32816	
1124	0	32806	32790	
1125	0	32848	32704	
1126	0	32816	32766	
1127	0	32822	32732	
1128	0	32852	32900	
1129	0	32808	32742	
1130	0	32780	32720	
1131	0	32764	32708	
1132	0	32788	32826	
1133	0	32796	32804	
1134	0	32792	32798	
1135	0	32768	32718	
1136	0	32808	32744	
1137	0	32880	32716	
1138	0	32764	32792	
1139	0	32716	32775	
1140	0	32854	32892	
1141	0	32760	32736	
1142	0	32768	32672	
1143	0	32792	32740	
1144	0	32808	32848	
1145	0	32800	32772	
1146	0	32792	32724	
1147	0	32824	32898	
1148	0	32744	32818	
1149	0	32800	32836	
1150	0	32728	32762	
1151	0	32756	32700	
1152	0	32836	32832	
1153	0	32768	32782	
1154	0	32832	32774	
1155	0	32816	32842	
1156	0	32832	32775	
1157	0	32802	32699	
1158	0	32794	32814	
1159	0	32788	32710	
1160	0	32880	32800	
1161	0	32828	32692	
1162	0	32834	32768	
1163	0	32866	32848	
1164	0	32850	32872	
1165	0	32864	32742	
1166	0	32882	32726	
1167	0	32804	32788	
1168	0	32840	32768	
1169	0	32848	32820	
1170	0	32876	32775	
1171	0	32808	32630	
1172	0	32804	32806	
1173	0	32792	32712	
1174	0	32792	32774	
1175	0	32804	32828	
1176	0	32840	32710	
1177	0	32862	32775	
1178	0	32784	32706	
1179	0	32744	32744	
1180	0	32810	32818	
1181	0	32908	32796	
1182	0	32804	32804	
1183	0	32836	32716	
1184	0	32832	32806	
1185	0	32836	32750	
1186	0	32836	32806	
1187	0	32828	32814	
1188	0	32844	32754	
1189	0	32792	32775	
1190	0	32810	32860	
1191	0	32818	32754	
1192	0	32800	32804	
1193	0	32828	32788	
1194	0	32792	32740	
1195	0	32836	32763	
1196	0	32824	32775	
1197	0	32874	32743	
1198	0	32788	32774	
1199	0	32832	32830	
1200	0	32808	32684	
1201	0	32854	32823	
1202	0	32752	32766	
1203	0	32882	32848	
1204	0	32780	32775	
1205	0	32852	32636	
1206	0	32796	32852	
1207	0	32826	32732	
1208	0	32784	32792	
1209	0	32746	32704	
1210	0	32844	32798	
1211	0	32814	32810	
1212	0	32840	32742	
1213	0	32780	32674	
1214	0	32810	32734	
1215	0	32820	32756	
1216	0	32828	32796	
1217	0	32746	32774	
1218	0	32740	32775	
1219	0	32824	32775	
1220	0	32800	32738	
1221	0	32778	32806	
1222	0	32808	32775	
1223	0	32784	32732	
1224	0	32860	32664	
1225	0	32780	32758	
1226	0	32818	32764	
1227	0	32757	32840	
1228	0	32740	32724	
1229	0	32810	32794	
1230	0	32768	32772	
1231	0	32808	32806	
1232	0	32808	32696	
1233	0	32838	32775	
1234	0	32808	32751	
1235	0	32868	32774	
1236	0	32816	32689	
1237	0	32812	32844	
1238	0	32800	32728	
1239	0	32848	32724	
1240	0	32784	32724	
1241	0	32780	32775	
1242	0	32778	32770	
1243	0	32716	32836	
1244	0	32852	32728	
1245	0	32820	32840	
1246	0	32776	32774	
1247	0	32842	32768	
1248	0	32774	32718	
1249	0	32770	32738	
1250	0	32796	32752	
1251	0	32766	32788	
1252	0	32732	32746	
1253	0	32808	32722	
1254	0	32738	32682	
1255	0	32862	32726	
1256	0	32860	32756	
1257	0	32808	32792	
1258	0	32732	32708	
1259	0	32816	32812	
1260	0	32824	32775	
1261	0	32872	32844	
1262	0	32808	32804	
1263	0	32828	32704	
1264	0	32788	32790	
1265	0	32840	32792	
1266	0	32820	32700	
1267	0	32856	32754	
1268	0	32934	32810	
1269	0	32894	32700	
1270	0	32848	32810	
1271	0	32808	32806	
1272	0	32849	32698	
1273	0	32868	32858	
1274	0	32808	32791	
1275	0	32792	32812	
1276	0	32808	32743	
1277	0	32792	32812	
1278	0	32784	32788	
1279	0	32800	32694	
1280	0	32852	32736	
1281	0	32816	32875	
1282	0	32816	32642	
1283	0	32796	32855	
1284	0	32820	32796	
1285	0	32836	32720	
1286	0	32752	32696	
1287	0	32804	32775	
1288	0	32816	32790	
1289	0	32788	32612	
1290	0	32878	32727	
1291	0	32804	32804	
1292	0	32828	32812	
1293	0	32768	32678	
1294	0	32786	32793	
1295	0	32824	32740	
1296	0	32736	32712	
1297	0	32852	32726	
1298	0	32820	32740	
1299	0	32778	32804	
1300	0	32852	32860	
1301	0	32820	32770	
1302	0	32772	32775	
1303	0	32788	32868	
1304	0	32864	32718	
1305	0	32816	32832	
1306	0	32808	32852	
1307	0	32840	32772	
1308	0	32804	32775	
1309	0	32796	32738	
1310	0	32720	32657	
1311	0	32894	32704	
1312	0	32868	32800	
1313	0	32842	32708	
1314	0	32766	32820	
1315	0	32876	32858	
1316	0	32808	32844	
1317	0	32762	32730	
1318	0	32762	32838	
1319	0	32804	32868	
1320	0	32810	32760	
1321	0	32762	32870	
1322	0	32772	32796	
1323	0	32812	32808	
1324	0	32832	32740	
1325	0	32848	32772	
1326	0	32820	32730	
1327	0	32792	32752	
1328	0	32812	32820	
1329	0	32866	32757	
1330	0	32804	32736	
1331	0	32880	32758	
1332	0	32820	32718	
1333	0	32868	32722	
1334	0	32856	32844	
1335	0	32892	32806	
1336	0	32768	32700	
1337	0	32796	32764	
1338	0	32822	32712	
1339	0	32792	32775	
1340	0	32814	32775	
1341	0	32734	32743	
1342	0	32872	32822	
1343	0	32792	32740	
1344	0	32808	32734	
1345	0	32824	32704	
1346	0	32816	32810	
1347	0	32860	32740	
1348	0	32768	32676	
1349	0	32796	32774	
1350	0	32800	32806	
1351	0	32792	32680	
1352	0	32828	32856	
1353	0	32812	32839	
1354	0	32798	32654	
1355	0	32874	32801	
1356	0	32774	32804	
1357	0	32788	32746	
1358	0	32782	32808	
1359	0	32848	32754	
1360	0	32812	32742	
1361	0	32804	32920	
1362	0	32820	32814	
1363	0	32836	32806	
1364	0	32848	32711	
1365	0	32852	32798	
1366	0	32812	32858	
1367	0	32788	32688	
1368	0	32838	32752	
1369	0	32862	32820	
1370	0	32852	32832	
1371	0	32850	32772	
1372	0	32772	32808	
1373	0	32864	32788	
1374	0	32802	32672	
1375	0	32780	32804	
1376	0	32788	32784	
1377	0	32788	32678	
1378	0	32842	32775	
1379	0	32792	32815	
1380	0	32744	32772	
1381	0	32808	32748	
1382	0	32788	32746	
1383	0	32796	32862	
1384	0	32882	32696	
1385	0	32832	32720	
1386	0	32830	32848	
1387	0	32788	32720	
1388	0	32794	32756	
1389	0	32833	32836	
1390	0	32828	32658	
1391	0	32829	32766	
1392	0	32824	32822	
1393	0	32792	32760	
1394	0	32820	32796	
1395	0	32804	32786	
1396	0	32800	32652	
1397	0	32782	32786	
1398	0	32784	32706	
1399	0	32746	32824	
1400	0	32764	32704	
1401	0	32800	32762	
1402	0	32788	32766	
1403	0	32830	32812	
1404	0	32842	32786	
1405	0	32830	32752	
1406	0	32852	32814	
1407	0	32824	32818	
1408	0	32866	32743	
1409	0	32834	32718	
1410	0	32776	32798	
1411	0	32806	32810	
1412	0	32832	32871	
1413	0	32768	32736	
1414	0	32848	32688	
1415	0	32816	32842	
1416	0	32848	32816	
1417	0	32734	32734	
1418	0	32840	32740	
1419	0	32796	32750	
1420	0	32772	32908	
1421	0	32840	32836	
1422	0	32868	32748	
1423	0	32788	32775	
1424	0	32708	32874	
1425	0	32798	32678	
1426	0	32894	32804	
1427	0	32844	32700	
1428	0	32804	32784	
1429	0	32770	32743	
1430	0	32784	32750	
1431	0	32786	32740	
1432	0	32812	32682	
1433	0	32868	32838	
1434	0	32816	32852	
1435	0	32800	32784	
1436	0	32792	32730	
1437	0	32764	32848	
1438	0	32768	32764	
1439	0	32788	32708	
1440	0	32836	32762	
1441	0	32804	32786	
1442	0	32754	32702	
1443	0	32780	32764	
1444	0	32820	32744	
1445	0	32774	32820	
1446	0	32860	32768	
1447	0	32830	32810	
1448	0	32792	32796	
1449	0	32784	32767	
1450	0	32778	32872	
1451	0	32820	32920	
1452	0	32764	32708	
1453	0	32804	32823	
1454	0	32880	32748	
1455	0	32778	32748	
1456	0	32806	32746	
1457	0	32796	32678	
1458	0	32892	32792	
1459	0	32804	32710	
1460	0	32816	32836	
1461	0	32844	32836	
1462	0	32792	32584	
1463	0	32808	32764	
1464	0	32816	32807	
1465	0	32865	32744	
1466	0	32846	32872	
1467	0	32814	32794	
1468	0	32896	32764	
1469	0	32828	32734	
1470	0	32828	32764	
1471	0	32836	32876	
1472	0	32794	32740	
1473	0	32852	32690	
1474	0	32760	32775	
1475	0	32812	32762	
1476	0	32764	32708	
1477	0	32762	32728	
1478	0	32892	32734	
1479	0	32742	32864	
1480	0	32808	32684	
1481	0	32852	32696	
1482	0	32778	32804	
1483	0	32828	32820	
1484	0	32814	32822	
1485	0	32792	32806	
1486	0	32856	32724	
1487	0	32812	32798	
1488	0	32824	32820	
1489	0	32872	32804	
1490	0	32776	32746	
1491	0	32816	32704	
1492	0	32836	32743	
1493	0	32848	32860	
1494	0	32886	32666	
1495	0	32748	32780	
1496	0	32800	32702	
1497	0	32776	32724	
1498	0	32820	32730	
1499	0	32760	32774	
1500	0	32744	32836	
1501	0	32788	32766	
1502	0	32810	32775	
1503	0	32752	32674	
1504	0	32868	32722	
1505	0	32832	32872	
1506	0	32874	32920	
1507	0	32788	32684	
1508	0	32864	32839	
1509	0	32830	32808	
1510	0	32756	32674	
1511	0	32800	32760	
1512	0	32744	32766	
1513	0	32756	32702	
1514	0	32738	32728	
1515	0	32844	32784	
1516	0	32736	32686	
1517	0	32744	32870	
1518	0	32844	32887	
1519	0	32780	32700	
1520	0	32796	32734	
1521	0	32800	32858	
1522	0	32818	32743	
1523	0	32745	32814	
1524	0	32800	32714	
1525	0	32772	32652	
1526	0	32848	32732	
1527	0	32796	32796	
1528	0	32774	32640	
1529	0	32840	32820	
1530	0	32772	32768	
1531	0	32792	32858	
1532	0	32826	32718	
1533	0	32788	32780	
1534	0	32844	32756	
1535	0	32760	32670	
1536	0	32876	32836	
1537	0	32796	32724	
1538	0	32874	32746	
1539	0	32872	32688	
1540	0	32860	32736	
1541	0	32776	32775	
1542	0	32810	32734	
1543	0	32776	32806	
1544	0	32804	32916	
1545	0	32836	32674	
1546	0	32826	32860	
1547	0	32828	32830	
1548	0	32840	32714	
1549	0	32788	32721	
1550	0	32872	32785	
1551	0	32802	32708	
1552	0	32794	32766	
1553	0	32774	32756	
1554	0	32792	32698	
1555	0	32766	32792	
1556	0	32748	32828	
1557	0	32902	32738	
1558	0	32784	32746	
1559	0	32808	32832	
1560	0	32852	32672	
1561	0	32810	32772	
1562	0	32836	32866	
1563	0	32834	32738	
1564	0	32836	32786	
1565	0	32842	32676	
1566	0	32820	32772	
1567	0	32778	32774	
1568	0	32840	32756	
1569	0	32820	32770	
1570	0	32812	32730	
1571	0	32796	32694	
1572	0	32840	32824	
1573	0	32832	32788	
1574	0	32728	32696	
1575	0	32812	32796	
1576	0	32852	32838	
1577	0	32764	32708	
1578	0	32860	32804	
1579	0	32840	32864	
1580	0	32780	32689	
1581	0	32832	32734	
1582	0	32832	32839	
1583	0	32830	32820	
1584	0	32856	32844	
1585	0	32816	32712	
1586	0	32854	32706	
1587	0	32890	32744	
1588	0	32784	32752	
1589	0	32826	32847	
1590	0	32824	32774	
1591	0	32808	32720	
1592	0	32752	32702	
1593	0	32820	32820	
1594	0	32808	32738	
1595	0	32860	32796	
1596	0	32806	32848	
1597	0	32808	32680	
1598	0	32788	32806	
1599	0	32748	32800	
1600	0	32800	32760	
1601	0	32816	32880	
1602	0	32812	32764	
1603	0	32769	32786	
1604	0	32764	32730	
1605	0	32820	32804	
1606	0	32776	32816	
1607	0	32868	32754	
1608	0	32808	32828	
1609	0	32768	32834	
1610	0	32766	32671	
1611	0	32788	32806	
1612	0	32808	32818	
1613	0	32832	32710	
1614	0	32828	32680	
1615	0	32884	32866	
1616	0	32802	32704	
1617	0	32808	32770	
1618	0	32804	32712	
1619	0	32748	32868	
1620	0	32828	32700	
1621	0	32884	32884	
1622	0	32798	32782	
1623	0	32820	32839	
1624	0	32796	32728	
1625	0	32764	32768	
1626	0	32848	32810	
1627	0	32849	32712	
1628	0	32822	32804	
1629	0	32868	32796	
1630	0	32828	32710	
1631	0	32780	32788	
1632	0	32784	32810	
1633	0	32788	32742	
1634	0	32768	32900	
1635	0	32792	32756	
1636	0	32796	32820	
1637	0	32812	32678	
1638	0	32840	32724	
1639	0	32810	32764	
1640	0	32840	32684	
1641	0	32798	32854	
1642	0	32828	32816	
1643	0	32850	32694	
1644	0	32812	32852	
1645	0	32852	32764	
1646	0	32760	32792	
1647	0	32828	32692	
1648	0	32760	32775	
1649	0	32784	32775	
1650	0	32804	32804	
1651	0	32740	32650	
1652	0	32744	32718	
1653	0	32876	32803	
1654	0	32788	32810	
1655	0	32846	32724	
1656	0	32798	32794	
1657	0	32784	32826	
1658	0	32792	32740	
1659	0	32848	32774	
1660	0	32760	32714	
1661	0	32790	32752	
1662	0	32824	32736	
1663	0	32780	32726	
1664	0	32856	32768	
1665	0	32852	32858	
1666	0	32828	32678	
1667	0	32828	32788	
1668	0	32852	32800	
1669	0	32820	32682	
1670	0	32828	32772	
1671	0	32836	32832	
1672	0	32816	32704	
1673	0	32828	32810	
1674	0	32778	32808	
1675	0	32788	32736	
1676	0	32806	32766	
1677	0	32828	32775	
1678	0	32828	32722	
1679	0	32864	32775	
1680	0	32810	32804	
1681	0	32744	32844	
1682	0	32850	32760	
1683	0	32856	32786	
1684	0	32804	32775	
1685	0	32812	32698	
1686	0	32826	32775	
1687	0	32772	32846	
1688	0	32800	32684	
1689	0	32840	32760	
1690	0	32792	32711	
1691	0	32848	32710	
1692	0	32836	32796	
1693	0	32836	32711	
1694	0	32840	32798	
1695	0	32848	32798	
1696	0	32852	32760	
1697	0	32788	32775	
1698	0	32728	32852	
1699	0	32760	32644	
1700	0	32792	32772	
1701	0	32828	32700	
1702	0	32780	32822	
1703	0	32764	32750	
1704	0	32892	32764	
1705	0	32866	32798	
1706	0	32880	32775	
1707	0	32860	32716	
1708	0	32808	32808	
1709	0	32796	32804	
1710	0	32816	32742	
1711	0	32782	32810	
1712	0	32848	32847	
1713	0	32808	32716	
1714	0	32834	32719	
1715	0	32800	32764	
1716	0	32724	32740	
1717	0	32814	32814	
1718	0	32812	32792	
1719	0	32740	32710	
1720	0	32808	32758	
1721	0	32852	32804	
1722	0	32820	32740	
1723	0	32786	32842	
1724	0	32852	32730	
1725	0	32774	32750	
1726	0	32792	32684	
1727	0	32900	32926	
1728	0	32828	32712	
1729	0	32810	32706	
1730	0	32860	32794	
1731	0	32800	32804	
1732	0	32816	32672	
1733	0	32792	32740	
1734	0	32772	32796	
1735	0	32818	32704	
1736	0	32744	32812	
1737	0	32808	32774	
1738	0	32828	32684	
1739	0	32766	32768	
1740	0	32812	32824	
1741	0	32814	32695	
1742	0	32792	32804	
1743	0	32792	32802	
1744	0	32858	32704	
1745	0	32816	32806	
1746	0	32812	32816	
1747	0	32824	32700	
1748	0	32816	32720	
1749	0	32832	32868	
1750	0	32808	32844	
1751	0	32822	32746	
1752	0	32756	32740	
1753	0	32824	32796	
1754	0	32808	32762	
1755	0	32816	32734	
1756	0	32872	32678	
1757	0	32902	32700	
1758	0	32836	32820	
1759	0	32800	32784	
1760	0	32756	32768	
1761	0	32820	32748	
1762	0	32732	32768	
1763	0	32796	32700	
1764	0	32778	32742	
1765	0	32740	32736	
1766	0	32776	32716	
1767	0	32752	32775	
1768	0	32864	32804	
1769	0	32792	32696	
1770	0	32832	32820	
1771	0	32820	32820	
1772	0	32814	32704	
1773	0	32792	32766	
1774	0	32828	32828	
1775	0	32776	32660	
1776	0	32784	32759	
1777	0	32736	32816	
1778	0	32788	32702	
1779	0	32756	32772	
1780	0	32808	32839	
1781	0	32768	32850	
1782	0	32808	32820	
1783	0	32846	32644	
1784	0	32852	32809	
1785	0	32812	32786	
1786	0	32854	32762	
1787	0	32880	32810	
1788	0	32796	32808	
1789	0	32830	32720	
1790	0	32810	32730	
1791	0	32780	32798	
1792	0	32888	32688	
1793	0	32846	32808	
1794	0	32800	32910	
1795	0	32836	32650	
1796	0	32822	32878	
1797	0	32806	32840	
1798	0	32760	32686	
1799	0	32764	32764	
1800	0	32804	32752	
1801	0	32744	32791	
1802	0	32782	32862	
1803	0	32788	32686	
1804	0	32772	32802	
1805	0	32816	32780	
1806	0	32832	32740	
1807	0	32788	32792	
1808	0	32788	32874	
1809	0	32786	32732	
1810	0	32724	32810	
1811	0	32712	32750	
1812	0	32708	32646	
1813	0	32704	32698	
1814	0	32688	32868	
1815	0	32762	32806	
1816	0	32752	32704	
1817	0	32708	32858	
1818	0	32652	32976	
1819	0	32656	32736	
1820	0	32726	32868	
1821	0	32676	32806	
1822	0	32732	32888	
1823	0	32690	32847	
1824	0	32668	32816	
1825	0	32716	32760	
1826	0	32820	32774	
1827	0	32836	32804	
1828	0	32804	32754	
1829	0	32808	32770	
1830	0	32832	32564	
1831	0	32916	32754	
1832	0	32952	32676	
1833	0	33028	32608	
1834	0	33012	32634	
1835	0	33108	32633	
1836	0	33170	32606	
1837	0	33140	32582	
1838	0	33252	32582	
1839	0	33304	32548	
1840	0	33300	32494	
1841	0	33304	32682	
1842	0	33316	32680	
1843	0	33224	32696	
1844	0	33042	32711	
1845	0	32952	32756	
1846	0	32920	32864	
1847	0	32744	32772	
1848	0	32676	32840	
1849	0	32584	32924	
1850	0	32536	32874	
1851	0	32540	32812	
1852	0	32468	32804	
1853	0	32448	32988	
1854	0	32456	32732	
1855	0	32530	32850	
1856	0	32576	32858	
1857	0	32660	32710	
1858	0	32640	32814	
1859	0	32656	32732	
1860	0	32696	32844	
1861	0	32764	32774	
1862	0	32714	32828	
1863	0	32780	32782	
1864	0	32748	32756	
1865	0	32782	32790	
1866	0	32826	32760	
1867	0	32808	32696	
1868	0	32784	32846	
1869	0	32786	32752	
1870	0	32852	32744	
1871	0	32848	32743	
1872	0	32812	32775	
1873	0	32808	32810	
1874	0	32788	32636	
1875	0	32820	32796	
1876	0	32760	32800	
1877	0	32772	32756	
1878	0	32796	32743	
1879	0	32848	32828	
1880	0	32820	32760	
1881	0	32808	32750	
1882	0	32808	32714	
1883	0	32810	32772	
1884	0	32816	32774	
1885	0	32864	32838	
1886	0	32794	32706	
1887	0	32834	32775	
1888	0	32812	32820	
1889	0	32841	32770	
1890	0	32868	32698	
1891	0	32792	32714	
1892	0	32824	32804	
1893	0	32850	32775	
1894	0	32852	32768	
1895	0	32714	32760	
1896	0	32814	32744	
1897	0	32776	32802	
1898	0	32790	32812	
1899	0	32820	32692	
1900	0	32800	32810	
1901	0	32746	32792	
1902	0	32802	32856	
1903	0	32812	32684	
1904	0	32840	32788	
1905	0	32824	32766	
1906	0	32768	32719	
1907	0	32804	32712	
1908	0	32808	32788	
1909	0	32848	32760	
1910	0	32776	32752	
1911	0	32804	32816	
1912	0	32844	32775	
1913	0	32742	32758	
1914	0	32816	32774	
1915	0	32842	32834	
1916	0	32820	32676	
1917	0	32834	32758	
1918	0	32816	32814	
1919	0	32868	32696	
1920	0	32784	32868	
1921	0	32788	32775	
1922	0	32804	32804	
1923	0	32818	32858	
1924	0	32840	32800	
1925	0	32832	32696	
1926	0	32862	32741	
1927	0	32910	32790	
1928	0	32775	32725	
1929	0	32804	32742	
1930	0	32840	32830	
1931	0	32820	32710	
1932	0	32750	32788	
1933	0	32808	32804	
1934	0	32800	32728	
1935	0	32812	32661	
1936	0	32788	32775	
1937	0	32846	32854	
1938	0	32788	32728	
1939	0	32700	32766	
1940	0	32748	32784	
1941	0	32796	32775	
1942	0	32828	32802	
1943	0	32784	32710	
1944	0	32888	32740	
1945	0	32832	32738	
1946	0	32792	32775	
1947	0	32848	32738	
1948	0	32768	32870	
1949	0	32768	32726	
1950	0	32824	32791	
1951	0	32814	32775	
1952	0	32868	32802	
1953	0	32784	32640	
1954	0	32784	32792	
1955	0	32810	32810	
1956	0	32768	32807	
1957	0	32780	32825	
1958	0	32792	32828	
1959	0	32780	32678	
1960	0	32756	32850	
1961	0	32760	32748	
1962	0	32844	32834	
1963	0	32852	32704	
1964	0	32840	32790	
1965	0	32818	32784	
1966	0	32868	32732	
1967	0	32816	32774	
1968	0	32798	32678	
1969	0	32774	32722	
1970	0	32834	32852	
1971	0	32836	32738	
1972	0	32740	32680	
1973	0	32768	32844	
1974	0	32778	32792	
1975	0	32904	32678	
1976	0	32744	32766	
1977	0	32836	32750	
1978	0	32832	32796	
1979	0	32798	32670	
1980	0	32840	32775	
1981	0	32800	32768	
1982	0	32866	32858	
1983	0	32868	32734	
1984	0	32796	32772	
1985	0	32756	32774	
1986	0	32846	32640	
1987	0	32858	32736	
1988	0	32862	32775	
1989	0	32816	32676	
1990	0	32800	32794	
1991	0	32778	32798	
1992	0	32784	32760	
1993	0	32820	32774	
1994	0	32852	32830	
1995	0	32804	32730	
1996	0	32784	32810	
1997	0	32784	32775	
1998	0	32786	32688	
1999	0	32760	32806	
2000	0	32820	32836	
2001	0	32764	32718	
2002	0	32868	32852	
2003	0	32816	32775	
2004	0	32840	32682	
2005	0	32833	32807	
2006	0	32802	32800	
2007	0	32856	32668	
2008	0	32832	32824	
2009	0	32834	32752	
2010	0	32832	32664	
2011	0	32768	32882	
2012	0	32810	32832	
2013	0	32780	32788	
2014	0	32780	32692	
2015	0	32812	32748	
2016	0	32840	32816	
2017	0	32864	32786	
2018	0	32796	32772	
2019	0	32826	32843	
2020	0	32836	32764	
2021	0	32776	32820	
2022	0	32804	32740	
2023	0	32760	32726	
2024	0	32780	32804	
2025	0	32826	32756	
2026	0	32792	32666	
2027	0	32836	32746	
2028	0	32840	32775	
2029	0	32876	32726	
2030	0	32828	32826	
2031	0	32774	32848	
2032	0	32792	32721	
2033	0	32840	32752	
2034	0	32764	32710	
2035	0	32748	32768	
2036	0	32828	32724	
2037	0	32824	32792	
2038	0	32798	32732	
2039	0	32820	32660	
2040	0	32814	32716	
2041	0	32834	32775	
2042	0	32860	32700	
2043	0	32874	32831	
2044	0	32832	32698	
2045	0	32752	32758	
2046	0	32792	32830	
2047	0	32800	32705	
2048	0	32740	32806	
2049	0	32790	32768	
2050	0	32796	32834	
2051	0	32860	32830	
2052	0	32808	32700	
2053	0	32864	32802	
2054	0	32884	32590	
2055	0	32812	32705	
2056	0	32808	32726	
2057	0	32720	32688	
2058	0	32828	32748	
2059	0	32780	32678	
2060	0	32816	32856	
2061	0	32856	32680	
2062	0	32808	32727	
2063	0	32834	32764	
2064	0	32880	32840	
2065	0	32872	32688	
2066	0	32758	32864	
2067	0	32816	32664	
2068	0	32770	32804	
2069	0	32932	32716	
2070	0	32884	32775	
2071	0	32768	32764	
2072	0	32844	32742	
2073	0	32836	32812	
2074	0	32806	32792	
2075	0	32820	32854	
2076	0	32800	32750	
2077	0	32768	32780	
2078	0	32856	32716	
2079	0	32880	32728	
2080	0	32890	32812	
2081	0	32816	32838	
2082	0	32804	32884	
2083	0	32778	32646	
2084	0	32802	32728	
2085	0	32748	32736	
2086	0	32848	32758	
2087	0	32760	32742	
2088	0	32816	32742	
2089	0	32828	32788	
2090	0	32804	32826	
2091	0	32748	32834	
2092	0	32784	32840	
2093	0	32800	32688	
2094	0	32852	32838	
2095	0	32772	32752	
2096	0	32812	32802	
2097	0	32868	32726	
2098	0	32788	32740	
2099	0	32824	32784	
2100	0	32742	32866	
2101	0	32826	32808	
2102	0	32796	32792	
2103	0	32828	32740	
2104	0	32818	32775	
2105	0	32802	32636	
2106	0	32808	32775	
2107	0	32776	32746	
2108	0	32798	32680	
2109	0	32844	32775	
2110	0	32836	32902	
2111	0	32816	32728	
2112	0	32800	32798	
2113	0	32788	32772	
2114	0	32836	32708	
2115	0	32770	32634	
2116	0	32832	32820	
2117	0	32772	32716	
2118	0	32848	32764	
2119	0	32832	32849	
2120	0	32804	32788	
2121	0	32796	32724	
2122	0	32800	32796	
2123	0	32836	32710	
2124	0	32852	32816	
2125	0	32832	32748	
2126	0	32778	32774	
2127	0	32852	32718	
2128	0	32844	32775	
2129	0	32816	32834	
2130	0	32824	32692	
2131	0	32802	32774	
2132	0	32768	32712	
2133	0	32772	32856	
2134	0	32820	32696	
2135	0	32824	32856	
2136	0	32756	32812	
2137	0	32776	32628	
2138	0	32818	32764	
2139	0	32812	32816	
2140	0	32840	32756	
2141	0	32844	32826	
2142	0	32820	32728	
2143	0	32788	32774	
2144	0	32864	32758	
2145	0	32848	32828	
2146	0	32814	32840	
2147	0	32784	32647	
2148	0	32832	32833	
2149	0	32876	32728	
2150	0	32852	32732	
2151	0	32842	32798	
2152	0	32762	32839	
2153	0	32772	32614	
2154	0	32874	32856	
2155	0	32862	32816	
2156	0	32796	32680	
2157	0	32816	32772	
2158	0	32804	32718	
2159	0	32800	32790	
2160	0	32794	32784	
2161	0	32778	32775	
2162	0	32784	32736	
2163	0	32792	32692	
2164	0	32816	32870	
2165	0	32812	32818	
2166	0	32792	32632	
2167	0	32840	32828	
2168	0	32836	32808	
2169	0	32804	32816	
2170	0	32756	32768	
2171	0	32888	32740	
2172	0	32762	32820	
2173	0	32792	32706	
2174	0	32832	32808	
2175	0	32812	32732	
2176	0	32828	32696	
2177	0	32836	32786	
2178	0	32782	32808	
2179	0	32782	32762	
2180	0	32816	32804	
2181	0	32852	32754	
2182	0	32856	32700	
2183	0	32828	32884	
2184	0	32804	32880	
2185	0	32756	32624	
2186	0	32812	32780	
2187	0	32792	32750	
2188	0	32808	32764	
2189	0	32800	32792	
2190	0	32772	32638	
2191	0	32806	32788	
2192	0	32804	32828	
2193	0	32816	32702	
2194	0	32808	32842	
2195	0	32776	32788	
2196	0	32814	32720	
2197	0	32868	32775	
2198	0	32752	32746	
2199	0	32804	32722	
2200	0	32786	32760	
2201	0	32784	32820	
2202	0	32844	32856	
2203	0	32868	32772	
2204	0	32792	32848	
2205	0	32756	32756	
2206	0	32778	32748	
2207	0	32868	32836	
2208	0	32810	32775	
2209	0	32750	32678	
2210	0	32756	32842	
2211	0	32780	32800	
2212	0	32788	32720	
2213	0	32836	32750	
2214	0	32808	32756	
2215	0	32792	32868	
2216	0	32796	32672	
2217	0	32882	32754	
2218	0	32856	32704	
2219	0	32842	32652	
2220	0	32798	32712	
2221	0	32812	32775	
2222	0	32866	32736	
2223	0	32790	32692	
2224	0	32864	32784	
2225	0	32786	32818	
2226	0	32836	32706	
2227	0	32838	32818	
2228	0	32796	32764	
2229	0	32816	32688	
2230	0	32846	32812	
2231	0	32838	32840	
2232	0	32780	32686	
2233	0	32866	32910	
2234	0	32724	32887	
2235	0	32766	32662	
2236	0	32830	32918	
2237	0	32912	32720	
2238	0	32846	32760	
2239	0	32816	32774	
2240	0	32834	32856	
2241	0	32788	32775	
2242	0	32832	32720	
2243	0	32864	32852	
2244	0	32812	32722	
2245	0	32778	32807	
2246	0	32808	32689	
2247	0	32844	32812	
2248	0	32752	32738	
2249	0	32832	32756	
2250	0	32792	32743	
2251	0	32764	32792	
2252	0	32804	32790	
2253	0	32784	32706	
2254	0	32824	32806	
2255	0	32720	32820	
2256	0	32820	32736	
2257	0	32792	32854	
2258	0	32804	32710	
2259	0	32814	32818	
2260	0	32846	32762	
2261	0	32792	32728	
2262	0	32868	32792	
2263	0	32784	32728	
2264	0	32820	32786	
2265	0	32828	32774	
2266	0	32808	32798	
2267	0	32802	32806	
2268	0	32870	32736	
2269	0	32912	32775	
2270	0	32754	32775	
2271	0	32772	32716	
2272	0	32760	32764	
2273	0	32790	32732	
2274	0	32812	32752	
2275	0	32800	32871	
2276	0	32808	32772	
2277	0	32866	32672	
2278	0	32778	32750	
2279	0	32766	32736	
2280	0	32800	32775	
2281	0	32820	32692	
2282	0	32808	32804	
2283	0	32792	32830	
2284	0	32806	32728	
2285	0	32768	32841	
2286	0	32792	32750	
2287	0	32808	32798	
2288	0	32804	32724	
2289	0	32881	32788	
2290	0	32790	32740	
2291	0	32816	32743	
2292	0	32836	32744	
2293	0	32718	32698	
2294	0	32810	32708	
2295	0	32856	32868	
2296	0	32878	32748	
2297	0	32776	32732	
2298	0	32708	32716	
2299	0	32784	32806	
2300	0	32808	32884	
2301	0	32824	32666	
2302	0	32832	32736	
2303	0	32820	32788	
2304	0	32836	32647	
2305	0	32816	32780	
2306	0	32824	32786	
2307	0	32808	32628	
2308	0	32830	32814	
2309	0	32864	32832	
2310	0	32860	32775	
2311	0	32776	32704	
2312	0	32832	32838	
2313	0	32760	32822	
2314	0	32792	32676	
2315	0	32752	32768	
2316	0	32802	32888	
2317	0	32808	32716	
2318	0	32840	32846	
2319	0	32868	32772	
2320	0	32768	32710	
2321	0	32788	32796	
2322	0	32756	32870	
2323	0	32812	32686	
2324	0	32920	32870	
2325	0	32820	32775	
2326	0	32848	32775	
2327	0	32772	32678	
2328	0	32808	32804	
2329	0	32796	32826	
2330	0	32880	32752	
2331	0	32784	32754	
2332	0	32800	32854	
2333	0	32792	32654	
2334	0	32820	32832	
2335	0	32810	32822	
2336	0	32782	32736	
2337	0	32792	32756	
2338	0	32768	32742	
2339	0	32858	32812	
2340	0	32800	32849	
2341	0	32856	32700	
2342	0	32832	32820	
2343	0	32808	32812	
2344	0	32816	32720	
2345	0	32746	32723	
2346	0	32768	32838	
2347	0	32824	32792	
2348	0	32772	32685	
2349	0	32800	32728	
2350	0	32920	32775	
2351	0	32804	32724	
2352	0	32788	32755	
2353	0	32864	32750	
2354	0	32782	32774	
2355	0	32736	32710	
2356	0	32860	32744	
2357	0	32780	32842	
2358	0	32792	32710	
2359	0	32860	32774	
2360	0	32824	32798	
2361	0	32784	32878	
2362	0	32758	32742	
2363	0	32790	32772	
2364	0	32796	32740	
2365	0	32776	32674	
2366	0	32784	32814	
2367	0	32744	32764	
2368	0	32804	32800	
2369	0	32810	32828	
2370	0	32832	32752	
2371	0	32788	32807	
2372	0	32852	32772	
2373	0	32852	32742	
2374	0	32848	32834	
2375	0	32816	32844	
2376	0	32780	32726	
2377	0	32800	32718	
2378	0	32802	32770	
2379	0	32854	32840	
2380	0	32812	32764	
2381	0	32828	32732	
2382	0	32840	32790	
2383	0	32772	32775	
2384	0	32848	32852	
2385	0	32860	32742	
2386	0	32840	32740	
2387	0	32768	32754	
2388	0	32844	32814	
2389	0	32832	32774	
2390	0	32794	32720	
2391	0	32778	32736	
2392	0	32836	32790	
2393	0	32798	32804	
2394	0	32752	32688	
2395	0	32788	32774	
2396	0	32818	32878	
2397	0	32870	32774	
2398	0	32884	32810	
2399	0	32794	32852	
2400	0	32836	32698	
2401	0	32784	32714	
2402	0	32804	32892	
2403	0	32860	32750	
2404	0	32868	32792	
2405	0	32818	32744	
2406	0	32772	32860	
2407	0	32796	32768	
2408	0	32840	32628	
2409	0	32762	32808	
2410	0	32850	32802	
2411	0	32806	32692	
2412	0	32782	32784	
2413	0	32840	32810	
2414	0	32872	32680	
2415	0	32810	32800	
2416	0	32832	32859	
2417	0	32828	32740	
2418	0	32760	32754	
2419	0	32808	32834	
2420	0	32816	32614	
2421	0	32838	32790	
2422	0	32778	32903	
2423	0	32788	32680	
2424	0	32884	32775	
2425	0	32802	32830	
2426	0	32800	32774	
2427	0	32904	32760	
2428	0	32790	32734	
2429	0	32852	32806	
2430	0	32816	32727	
2431	0	32804	32822	
2432	0	32854	32670	
2433	0	32848	32839	
2434	0	32772	32774	
2435	0	32832	32764	
2436	0	32788	32694	
2437	0	32760	32775	
2438	0	32832	32856	
2439	0	32838	32692	
2440	0	32760	32724	
2441	0	32744	32752	
2442	0	32838	32826	
2443	0	32820	32740	
2444	0	32880	32740	
2445	0	32800	32828	
2446	0	32860	32679	
2447	0	32750	32757	
2448	0	32780	32852	
2449	0	32784	32734	
2450	0	32744	32798	
2451	0	32776	32832	
2452	0	32826	32716	
2453	0	32784	32794	
2454	0	32848	32808	
2455	0	32776	32768	
2456	0	32820	32711	
2457	0	32748	32714	
2458	0	32760	32838	
2459	0	32812	32725	
2460	0	32818	32702	
2461	0	32796	32746	
2462	0	32764	32710	
2463	0	32804	32782	
2464	0	32852	32856	
2465	0	32788	32824	
2466	0	32778	32688	
2467	0	32796	32721	
2468	0	32840	32792	
2469	0	32844	32832	
2470	0	32804	32796	
2471	0	32836	32784	
2472	0	32840	32704	
2473	0	32776	32790	
2474	0	32764	32804	
2475	0	32804	32734	
2476	0	32782	32768	
2477	0	32820	32870	
2478	0	32788	32680	
2479	0	32864	32736	
2480	0	32830	32790	
2481	0	32824	32682	
2482	0	32828	32800	
2483	0	32800	32794	
2484	0	32834	32726	
2485	0	32790	32820	
2486	0	32796	32842	
2487	0	32792	32704	
2488	0	32816	32844	
2489	0	32816	32802	
2490	0	32784	32772	
2491	0	32812	32872	
2492	0	32800	32766	
2493	0	32782	32734	
2494	0	32794	32790	
2495	0	32812	32804	
2496	0	32836	32682	
2497	0	32868	32796	
2498	0	32836	32771	
2499	0	32796	32694	
2500	0	32872	32808	
2501	0	32856	32790	
2502	0	32796	32826	
2503	0	32832	32870	
2504	0	32768	32724	
2505	0	32736	32676	
2506	0	32810	32728	
2507	0	32906	32752	
2508	0	32864	32804	
2509	0	32806	32684	
2510	0	32780	32770	
2511	0	32796	32775	
2512	0	32778	32724	
2513	0	32854	32762	
2514	0	32760	32838	
2515	0	32778	32698	
2516	0	32772	32830	
2517	0	32768	32860	
2518	0	32816	32722	
2519	0	32810	32732	
2520	0	32772	32674	
2521	0	32818	32743	
2522	0	32780	32696	
2523	0	32732	32828	
2524	0	32800	32844	
2525	0	32808	32612	
2526	0	32804	32774	
2527	0	32778	32868	
2528	0	32784	32690	
2529	0	32852	32764	
2530	0	32824	32702	
2531	0	32826	32752	
2532	0	32772	32828	
2533	0	32762	32724	
2534	0	32860	32790	
2535	0	32856	32871	
2536	0	32822	32679	
2537	0	32776	32774	
2538	0	32778	32822	
2539	0	32788	32772	
2540	0	32832	32708	
2541	0	32816	32740	
2542	0	32770	32868	
2543	0	32768	32836	
2544	0	32816	32696	
2545	0	32856	32898	
2546	0	32736	32752	
2547	0	32860	32678	
2548	0	32824	32824	
2549	0	32860	32774	
2550	0	32856	32694	
2551	0	32824	32789	
2552	0	32848	32820	
2553	0	32776	32742	
2554	0	32784	32816	
2555	0	32872	32764	
2556	0	32800	32814	
2557	0	32792	32759	
2558	0	32812	32668	
2559	0	32800	32768	
2560	0	32812	32852	
2561	0	32849	32791	
2562	0	32848	32760	
2563	0	32840	32854	
2564	0	32816	32806	
2565	0	32808	32756	
2566	0	32834	32740	
2567	0	32772	32759	
2568	0	32752	32840	
2569	0	32800	32744	
2570	0	32852	32804	
2571	0	32900	32802	
2572	0	32824	32770	
2573	0	32832	32722	
2574	0	32792	32808	
2575	0	32832	32820	
2576	0	32802	32662	
2577	0	32794	32800	
2578	0	32780	32775	
2579	0	32796	32720	
2580	0	32864	32697	
2581	0	32866	32734	
2582	0	32830	32746	
2583	0	32832	32678	
2584	0	32808	32746	
2585	0	32752	32812	
2586	0	32826	32752	
2587	0	32788	32846	
2588	0	32838	32799	
2589	0	32744	32843	
2590	0	32736	32704	
2591	0	32828	32774	
2592	0	32820	32828	
2593	0	32788	32615	
2594	0	32788	32804	
2595	0	32808	32770	
2596	0	32802	32848	
2597	0	32884	32772	
2598	0	32840	32834	
2599	0	32836	32800	
2600	0	32780	32738	
2601	0	32880	32775	
2602	0	32906	32840	
2603	0	32800	32642	
2604	0	32848	32775	
2605	0	32860	32744	
2606	0	32792	32784	
2607	0	32744	32760	
2608	0	32792	32751	
2609	0	32780	32704	
2610	0	32762	32775	
2611	0	32808	32784	
2612	0	32760	32726	
2613	0	32790	32696	
2614	0	32756	32796	
2615	0	32824	32804	
2616	0	32816	32696	
2617	0	32816	32760	
2618	0	32776	32742	
2619	0	32770	32714	
2620	0	32800	32848	
2621	0	32836	32924	
2622	0	32804	32764	
2623	0	32808	32702	
2624	0	32832	32854	
2625	0	32816	32775	
2626	0	32816	32816	
2627	0	32844	32756	
2628	0	32858	32736	
2629	0	32824	32756	
2630	0	32788	32760	
2631	0	32820	32630	
2632	0	32824	32816	
2633	0	32852	32794	
2634	0	32810	32740	
2635	0	32804	32848	
2636	0	32788	32780	
2637	0	32798	32774	
2638	0	32798	32686	
2639	0	32860	32730	
2640	0	32820	32817	
2641	0	32840	32806	
2642	0	32852	32720	
2643	0	32776	32796	
2644	0	32792	32806	
2645	0	32808	32711	
2646	0	32868	32830	
2647	0	32821	32788	
2648	0	32844	32721	
2649	0	32796	32871	
2650	0	32774	32790	
2651	0	32788	32752	
2652	0	32802	32703	
2653	0	32824	32720	
2654	0	32868	32774	
2655	0	32824	32724	
2656	0	32790	32703	
2657	0	32832	32775	
2658	0	32794	32710	
2659	0	32884	32804	
2660	0	32796	32748	
2661	0	32812	32734	
2662	0	32864	32756	
2663	0	32840	32708	
2664	0	32832	32808	
2665	0	32848	32712	
2666	0	32852	32852	
2667	0	32820	32810	
2668	0	32780	32664	
2669	0	32806	32906	
2670	0	32776	32740	
2671	0	32804	32740	
2672	0	32732	32646	
2673	0	32836	32740	
2674	0	32868	32786	
2675	0	32768	32706	
2676	0	32748	32704	
2677	0	32848	32710	
2678	0	32828	32774	
2679	0	32860	32798	
2680	0	32786	32748	
2681	0	32856	32709	
2682	0	32828	32742	
2683	0	32752	32706	
2684	0	32824	32670	
2685	0	32728	32790	
2686	0	32788	32665	
2687	0	32816	32806	
2688	0	32812	32860	
2689	0	32840	32652	
2690	0	32848	32766	
2691	0	32836	32806	
2692	0	32896	32670	
2693	0	32810	32752	
2694	0	32834	32740	
2695	0	32824	32798	
2696	0	32788	32644	
2697	0	32820	32700	
2698	0	32772	32648	
2699	0	32788	32807	
2700	0	32782	32660	
2701	0	32804	32816	
2702	0	32816	32736	
2703	0	32792	32742	
2704	0	32736	32768	
2705	0	32800	32800	
2706	0	32754	32816	
2707	0	32814	32772	
2708	0	32834	32710	
2709	0	32760	32704	
2710	0	32760	32880	
2711	0	32772	32784	
2712	0	32792	32894	
2713	0	32780	32878	
2714	0	32844	32768	
2715	0	32816	32816	
2716	0	32816	32728	
2717	0	32810	32736	
2718	0	32764	32728	
2719	0	32800	32762	
2720	0	32820	32870	
2721	0	32762	32844	
2722	0	32884	32684	
2723	0	32798	32852	
2724	0	32816	32886	
2725	0	32796	32752	
2726	0	32868	32870	
2727	0	32804	32856	
2728	0	32844	32710	
2729	0	32852	32767	
2730	0	32804	32702	
2731	0	32860	32700	
2732	0	32872	32866	
2733	0	32852	32872	
2734	0	32832	32730	
2735	0	32836	32885	
2736	0	32776	32736	
2737	0	32780	32800	
2738	0	32768	32692	
2739	0	32792	32652	
2740	0	32774	32720	
2741	0	32848	32602	
2742	0	32850	32761	
2743	0	32828	32775	
2744	0	32888	32844	
2745	0	32934	32834	
2746	0	32826	32847	
2747	0	32776	32916	
2748	0	32856	32728	
2749	0	32790	32775	
2750	0	32776	32796	
2751	0	32792	32711	
2752	0	32864	32690	
2753	0	32718	32838	
2754	0	32730	32775	
2755	0	32764	32784	
2756	0	32768	32754	
2757	0	32692	32752	
2758	0	32786	32730	
2759	0	32720	32796	
2760	0	32768	32692	
2761	0	32712	32826	
2762	0	32784	32806	
2763	0	32766	32725	
2764	0	32762	32847	
2765	0	32780	32828	
2766	0	32740	32832	
2767	0	32816	32752	
2768	0	32650	32808	
2769	0	32732	32799	
2770	0	32668	32868	
2771	0	32692	32874	
2772	0	32764	32788	
2773	0	32714	32823	
2774	0	32686	32724	
2775	0	32728	32902	
2776	0	32720	32756	
2777	0	32686	32886	
2778	0	32812	32876	
2779	0	32866	32866	
2780	0	32836	32734	
2781	0	32824	32868	
2782	0	32792	32668	
2783	0	32844	32822	
2784	0	32866	32748	
2785	0	32928	32682	
2786	0	32918	32630	
2787	0	33066	32558	
2788	0	33078	32628	
2789	0	33090	32616	
2790	0	33124	32505	
2791	0	33144	32496	
2792	0	33276	32548	
2793	0	33228	32508	
2794	0	33182	32550	
2795	0	33208	32572	
2796	0	33232	32686	
2797	0	33114	32736	
2798	0	32960	32796	
2799	0	32920	32766	
2800	0	32868	32828	
2801	0	32620	32920	
2802	0	32524	32796	
2803	0	32540	32930	
2804	0	32518	32970	
2805	0	32481	32792	
2806	0	32472	32874	
2807	0	32548	32854	
2808	0	32612	32814	
2809	0	32588	32826	
2810	0	32632	32870	
2811	0	32704	32724	
2812	0	32768	32822	
2813	0	32702	32830	
2814	0	32700	32770	
2815	0	32758	32774	
2816	0	32704	32790	
2817	0	32696	32712	
2818	0	32700	32772	
2819	0	32756	32798	
2820	0	32822	32688	
2821	0	32750	32788	
2822	0	32756	32884	
2823	0	32776	32794	
2824	0	32832	32839	
2825	0	32842	32842	
2826	0	32826	32846	
2827	0	32814	32656	
2828	0	32756	32810	
2829	0	32882	32856	
2830	0	32880	32771	
2831	0	32802	32788	
2832	0	32806	32894	
2833	0	32792	32674	
2834	0	32832	32786	
2835	0	32772	32868	
2836	0	32798	32686	
2837	0	32820	32772	
2838	0	32860	32820	
2839	0	32836	32696	
2840	0	32828	32802	
2841	0	32832	32896	
2842	0	32868	32796	
2843	0	32848	32694	
2844	0	32858	32750	
2845	0	32844	32734	
2846	0	32876	32628	
2847	0	32812	32732	
2848	0	32796	32742	
2849	0	32892	32726	
2850	0	32800	32775	
2851	0	32844	32804	
2852	0	32826	32836	
2853	0	32762	32744	
2854	0	32792	32812	
2855	0	32756	32871	
2856	0	32782	32738	
2857	0	32776	32838	
2858	0	32820	32800	
2859	0	32784	32772	
2860	0	32816	32788	
2861	0	32796	32728	
2862	0	32840	32775	
2863	0	32756	32710	
2864	0	32764	32742	
2865	0	32812	32788	
2866	0	32808	32686	
2867	0	32816	32802	
2868	0	32817	32794	
2869	0	32876	32688	
2870	0	32784	32764	
2871	0	32852	32770	
2872	0	32848	32748	
2873	0	32852	32744	
2874	0	32872	32792	
2875	0	32888	32739	
2876	0	32816	32762	
2877	0	32866	32708	
2878	0	32878	32738	
2879	0	32848	32806	
2880	0	32868	32836	
2881	0	32840	32760	
2882	0	32836	32834	
2883	0	32781	32772	
2884	0	32776	32794	
2885	0	32714	32798	
2886	0	32760	32708	
2887	0	32756	32758	
2888	0	32768	32754	
2889	0	32856	32647	
2890	0	32788	32700	
2891	0	32760	32882	
2892	0	32855	32714	
2893	0	32772	32786	
2894	0	32760	32830	
2895	0	32792	32702	
2896	0	32764	32870	
2897	0	32860	32898	
2898	0	32884	32775	
2899	0	32864	32852	
2900	0	32828	32674	
2901	0	32724	32820	
2902	0	32838	32864	
2903	0	32788	32768	
2904	0	32824	32775	
2905	0	32774	32722	
2906	0	32760	32806	
2907	0	32796	32740	
2908	0	32804	32812	
2909	0	32816	32830	
2910	0	32848	32848	
2911	0	32792	32828	
2912	0	32808	32724	
2913	0	32764	32732	
2914	0	32800	32870	
2915	0	32748	32698	
2916	0	32788	32724	
2917	0	32776	32882	
2918	0	32796	32724	
2919	0	32788	32726	
2920	0	32728	32712	
2921	0	32750	32772	
2922	0	32844	32775	
2923	0	32804	32772	
2924	0	32862	32666	
2925	0	32770	32732	
2926	0	32700	32734	
2927	0	32788	32774	
2928	0	32824	32732	
2929	0	32830	32800	
2930	0	32822	32608	
2931	0	32856	32743	
2932	0	32808	32774	
2933	0	32904	32720	
2934	0	32872	32772	
2935	0	32928	32826	
2936	0	32900	32726	
2937	0	32864	32714	
2938	0	32858	32756	
2939	0	32858	32711	
2940	0	32864	32918	
2941	0	32910	32820	
2942	0	32748	32724	
2943	0	32786	32903	
2944	0	32768	32914	
2945	0	32744	32796	
2946	0	32686	32764	
2947	0	32696	32622	
2948	0	32676	32792	
2949	0	32724	32775	
2950	0	32774	32804	
2951	0	32714	32716	
2952	0	32704	32680	
2953	0	32736	32794	
2954	0	32732	32775	
2955	0	32762	32684	
2956	0	32782	32678	
2957	0	32852	32735	
2958	0	32880	32736	
2959	0	32896	32750	
2960	0	32884	32828	
2961	0	32822	32824	
2962	0	32792	32700	
2963	0	32856	32894	
2964	0	32804	32808	
2965	0	32788	32802	
2966	0	32830	32946	
2967	0	32884	32726	
2968	0	32830	32746	
2969	0	32796	32743	
2970	0	32776	32832	
2971	0	32800	32838	
2972	0	32952	32704	
2973	0	32848	32728	
2974	0	32996	32588	
2975	0	33006	32796	
2976	0	33016	32716	
2977	0	32952	32668	
2978	0	32968	32772	
2979	0	32856	32642	
2980	0	32736	32862	
2981	0	32720	32800	
2982	0	32804	32770	
2983	0	32672	32796	
2984	0	32632	32724	
2985	0	32582	32724	
2986	0	32658	32788	
2987	0	32704	32748	
2988	0	32676	32712	
2989	0	32688	32744	
2990	0	32680	32784	
2991	0	32648	32794	
2992	0	32680	32808	
2993	0	32740	32688	
2994	0	32768	32670	
2995	0	32782	32712	
2996	0	32834	32740	
2997	0	32880	32872	
2998	0	32934	32756	
2999	0	32860	32770	
3000	0	32860	32734	
3001	0	32804	32838	
3002	0	32846	32808	
3003	0	32788	32724	
3004	0	32816	32760	
3005	0	32754	32759	
3006	0	32804	32788	
3007	0	32840	32871	
3008	0	32840	32738	
3009	0	32808	32737	
3010	0	32718	32764	
3011	0	32722	32714	
3012	0	32740	32711	
3013	0	32740	32738	
3014	0	32764	32826	
3015	0	32736	32848	
3016	0	32740	32716	
3017	0	32800	32728	
3018	0	32844	32794	
3019	0	32876	32678	
3020	0	32928	32808	
3021	0	33016	32775	
3022	0	33084	32708	
3023	0	33064	32728	
3024	0	33024	32802	
3025	0	33028	32698	
3026	0	33012	32756	
3027	0	32910	32858	
3028	0	32808	32696	
3029	0	32724	32744	
3030	0	32756	32868	
3031	0	32724	32722	
3032	0	32782	32730	
3033	0	32752	32714	
3034	0	32756	32775	
3035	0	32764	32679	
3036	0	32892	32614	
3037	0	32920	32640	
3038	0	33024	32644	
3039	0	33052	32710	
3040	0	33012	32820	
3041	0	32980	32902	
3042	0	32964	32844	
3043	0	32994	32750	
3044	0	32994	32934	
3045	0	33248	32679	
3046	0	33376	32852	
3047	0	33356	32720	
3048	0	33016	32720	
3049	0	32912	32656	
3050	0	32782	32742	
3051	0	32720	32792	
3052	0	32684	32624	
3053	0	32480	32750	
3054	0	32360	32760	
3055	0	32486	32830	
3056	0	32600	32784	
3057	0	32605	32614	
3058	0	33044	32660	
3059	0	32892	32663	
3060	0	32812	32892	
3061	0	32500	32812	
3062	0	32412	32956	
3063	0	32224	32942	
3064	0	32154	32794	
3065	0	32140	32771	
3066	0	32028	32798	
3067	0	32090	32706	
3068	0	32288	32866	
3069	0	32218	32724	
3070	0	32144	32680	
3071	0	32168	32630	
3072	0	32416	32628	
3073	0	32576	32759	
3074	0	32682	32775	
3075	0	32824	32624	
3076	0	32940	32832	
3077	0	33132	32952	
3078	0	33064	32798	
3079	0	33162	32872	
3080	0	33308	32816	
3081	0	33248	32766	
3082	0	33410	32880	
3083	0	33372	32870	
3084	0	33284	32742	
3085	0	33248	32692	
3086	0	33224	32666	
3087	0	33088	32732	
3088	0	33120	32670	
3089	0	33130	32775	
3090	0	33092	32884	
3091	0	33104	32720	
3092	0	32986	32724	
3093	0	33028	32784	
3094	0	32850	32852	
3095	0	32872	32874	
3096	0	32860	32836	
3097	0	32960	32838	
3098	0	32904	32848	
3099	0	32932	32724	
3100	0	32948	32775	
3101	0	32998	32856	
3102	0	32936	32906	
3103	0	32928	32842	
3104	0	32960	32870	
3105	0	32948	32844	
3106	0	32986	32750	
3107	0	32922	32728	
3108	0	32904	32628	
3109	0	32908	32734	
3110	0	32878	32799	
3111	0	32796	32858	
3112	0	32744	32714	
3113	0	32708	32652	
3114	0	32720	32764	
3115	0	32680	33004	
3116	0	32756	32936	
3117	0	32800	33038	
3118	0	32956	32992	
3119	0	32934	32870	
3120	0	32924	32676	
3121	0	32858	32718	
3122	0	32898	32590	
3123	0	32944	32616	
3124	0	32936	32588	
3125	0	32924	32852	
3126	0	32878	32868	
3127	0	32540	32742	
3128	0	32596	32722	
3129	0	32572	32678	
3130	0	32523	32516	
3131	0	32456	32482	
3132	0	32588	32444	
3133	0	32578	32464	
3134	0	32582	32512	
3135	0	32514	32446	
3136	0	32632	32687	
3137	0	32714	32870	
3138	0	32848	32900	
3139	0	33052	32814	
3140	0	33076	32820	
3141	0	33204	32880	
3142	0	33200	32826	
3143	0	33172	32978	
3144	0	33194	33006	
3145	0	33048	33104	
3146	0	32936	33272	
3147	0	32644	33374	
3148	0	32462	33286	
3149	0	32548	33392	
3150	0	32496	33377	
3151	0	32436	33388	
3152	0	32372	33362	
3153	0	32352	33302	
3154	0	32222	33320	
3155	0	32270	33470	
3156	0	32352	33414	
3157	0	32410	33382	
3158	0	32344	33380	
3159	0	32388	33348	
3160	0	32424	33228	
3161	0	32566	33136	
3162	0	32700	32866	
3163	0	32896	32680	
3164	0	33032	32484	
3165	0	33124	32298	
3166	0	33096	32338	
3167	0	33226	32226	
3168	0	33268	32223	
3169	0	33308	32116	
3170	0	33326	32319	
3171	0	33228	32097	
3172	0	33116	31940	
3173	0	33088	32158	
3174	0	32986	32140	
3175	0	32824	32126	
3176	0	32670	32262	
3177	0	32592	32252	
3178	0	32424	32236	
3179	0	32232	32318	
3180	0	32436	32248	
3181	0	32468	31964	
3182	0	32498	31943	
3183	0	32568	31928	
3184	0	32614	31684	
3185	0	32724	31912	
3186	0	32692	32056	
3187	0	32616	32088	
3188	0	32768	32344	
3189	0	32792	32420	
3190	0	32748	32408	
3191	0	32710	32604	
3192	0	32664	32766	
3193	0	32632	32518	
3194	0	32727	32486	
3195	0	32912	32512	
3196	0	33076	32420	
3197	0	33196	32556	
3198	0	33188	32708	
3199	0	33176	32820	
3200	0	33048	32946	
3201	0	32840	32968	
3202	0	32812	33088	
3203	0	32960	33088	
3204	0	32876	32962	
3205	0	32830	33070	
3206	0	32720	33068	
3207	0	32692	33252	
3208	0	32724	33198	
3209	0	32722	33200	
3210	0	32624	33158	
3211	0	32568	33266	
3212	0	32582	33281	
3213	0	32622	33012	
3214	0	32594	32956	
3215	0	32664	32960	
3216	0	32646	32888	
3217	0	32696	32892	
3218	0	32846	32920	
3219	0	32820	33076	
3220	0	32728	33060	
3221	0	32802	33092	
3222	0	32858	33204	
3223	0	32852	33137	
3224	0	32852	33232	
3225	0	32936	33370	
3226	0	33212	33415	
3227	0	33328	33386	
3228	0	33472	33314	
3229	0	33470	33380	
3230	0	33392	33450	
3231	0	33228	33352	
3232	0	33168	33332	
3233	0	33192	33255	
3234	0	32892	33144	
3235	0	32848	33054	
3236	0	32654	32974	
3237	0	32482	32874	
3238	0	32356	32944	
3239	0	32372	32944	
3240	0	32496	32894	
3241	0	32608	32802	
3242	0	32752	32720	
3243	0	32640	32696	
3244	0	32632	32692	
3245	0	32696	32584	
3246	0	32768	32588	
3247	0	32708	32556	
3248	0	32872	32647	
3249	0	32836	32736	
3250	0	32722	32818	
3251	0	32830	32604	
3252	0	32904	32636	
3253	0	32840	32564	
3254	0	32848	32560	
3255	0	32892	32564	
3256	0	32944	32634	
3257	0	32945	32684	
3258	0	32820	32566	
3259	0	32832	32590	
3260	0	32926	32718	
3261	0	32996	32486	
3262	0	33113	32430	
3263	0	33076	32450	
3264	0	33228	32402	
3265	0	33140	32383	
3266	0	33284	32604	
3267	0	33192	32768	
3268	0	33368	32631	
3269	0	33216	32666	
3270	0	33258	32704	
3271	0	33076	32576	
3272	0	33018	32540	
3273	0	33021	32532	
3274	0	32886	32466	
3275	0	32548	32450	
3276	0	32324	32398	
3277	0	31952	32516	
3278	0	31934	32494	
3279	0	31886	32602	
3280	0	31952	32450	
3281	0	31924	32378	
3282	0	31876	32548	
3283	0	31800	32792	
3284	0	32052	32688	
3285	0	32146	32702	
3286	0	32304	32586	
3287	0	32784	32580	
3288	0	33088	32464	
3289	0	33100	32646	
3290	0	33226	32680	
3291	0	33248	32804	
3292	0	33248	33060	
3293	0	33448	33086	
3294	0	33520	32742	
3295	0	33400	32734	
3296	0	33200	32448	
3297	0	33134	32428	
3298	0	33022	32278	
3299	0	32968	32240	
3300	0	33132	32276	
3301	0	33102	32552	
3302	0	33010	32716	
3303	0	32876	33000	
3304	0	32864	33024	
3305	0	32668	33026	
3306	0	32570	33118	
3307	0	32464	33222	
3308	0	32504	33342	
3309	0	32492	33096	
3310	0	32332	33132	
3311	0	32046	33028	
3312	0	32172	32796	
3313	0	32296	32924	
3314	0	32502	32886	
3315	0	32800	32700	
3316	0	32760	32634	
3317	0	32792	32903	
3318	0	32950	32960	
3319	0	33064	33022	
3320	0	32772	33052	
3321	0	32760	32574	
3322	0	32556	32678	
3323	0	32594	32824	
3324	0	32720	32572	
3325	0	32556	32756	
3326	0	32888	33072	
3327	0	33036	32756	
3328	0	33220	32398	
3329	0	33632	32350	
3330	0	33766	32128	
3331	0	33924	32044	
3332	0	33836	32464	
3333	0	33500	33002	
3334	0	33300	32852	
3335	0	32880	33062	
3336	0	32696	32952	
3337	0	32438	32614	
3338	0	32244	32460	
3339	0	31982	32618	
3340	0	31820	32852	
3341	0	31652	33096	
3342	0	31552	33120	
3343	0	31776	33292	
3344	0	32328	33180	
3345	0	32816	32966	
3346	0	33036	32570	
3347	0	33444	32492	
3348	0	33604	32472	
3349	0	33432	32562	
3350	0	33706	32775	
3351	0	33492	32956	
3352	0	33262	33460	
3353	0	33088	33312	
3354	0	32896	32730	
3355	0	32794	32450	
3356	0	33340	32192	
3357	0	33320	32270	
3358	0	33380	32740	
3359	0	33532	32836	
3360	0	33374	33398	
3361	0	33172	33712	
3362	0	32744	33604	
3363	0	32400	33484	
3364	0	32164	33207	
3365	0	32258	32848	
3366	0	32536	32272	
3367	0	32488	31820	
3368	0	32828	32280	
3369	0	33092	32614	
3370	0	33482	33134	
3371	0	33766	33143	
3372	0	33700	33198	
3373	0	33556	32726	
3374	0	33290	32354	
3375	0	33276	32560	
3376	0	32748	32222	
3377	0	32440	32638	
3378	0	32096	32790	
3379	0	32308	32404	
3380	0	32588	32174	
3381	0	32138	32298	
3382	0	31864	32704	
3383	0	31694	33068	
3384	0	31928	33274	
3385	0	31988	33532	
3386	0	31952	33428	
3387	0	32452	33252	
3388	0	33104	32838	
3389	0	33240	32790	
3390	0	32776	32480	
3391	0	32472	32492	
3392	0	32576	32678	
3393	0	32720	32804	
3394	0	32644	32980	
3395	0	33174	33364	
3396	0	33424	33500	
3397	0	33460	33440	
3398	0	33484	32686	
3399	0	33546	32020	
3400	0	33472	32114	
3401	0	33192	31904	
3402	0	32236	32286	
3403	0	31920	32436	
3404	0	31898	32824	
3405	0	31584	33358	
3406	0	31608	32892	
3407	0	31436	32896	
3408	0	31476	32900	
3409	0	31424	33084	
3410	0	31770	32290	
3411	0	31820	31974	
3412	0	31888	31672	
3413	0	32304	31958	
3414	0	32652	32310	
3415	0	33052	32790	
3416	0	33364	32576	
3417	0	33578	33320	
3418	0	33800	33356	
3419	0	34004	33068	
3420	0	34296	32742	
3421	0	34284	33012	
3422	0	34266	33396	
3423	0	34424	32806	
3424	0	34272	32410	
3425	0	33996	32744	
3426	0	33556	32624	
3427	0	33312	32740	
3428	0	32976	32624	
3429	0	32824	32876	
3430	0	32528	32556	
3431	0	32208	32414	
3432	0	32002	32420	
3433	0	31804	32796	
3434	0	31564	32422	
3435	0	31592	32454	
3436	0	32168	32796	
3437	0	32732	33031	
3438	0	32852	33242	
3439	0	32884	33159	
3440	0	33126	33096	
3441	0	32998	32928	
3442	0	33184	33262	
3443	0	33364	33188	
3444	0	33642	33070	
3445	0	33960	32800	
3446	0	33756	32484	
3447	0	33696	32560	
3448	0	33492	32694	
3449	0	33326	33014	
3450	0	33316	33064	
3451	0	33148	32824	
3452	0	33060	33384	
3453	0	32960	33402	
3454	0	33306	33838	
3455	0	33364	33944	
3456	0	33440	33114	
3457	0	33406	32358	
3458	0	32892	31804	
3459	0	32586	31562	
3460	0	32356	31976	
3461	0	32182	32052	
3462	0	32284	32324	
3463	0	32228	32846	
3464	0	32192	32852	
3465	0	32420	32880	
3466	0	32625	32807	
3467	0	32770	32680	
3468	0	32596	32590	
3469	0	32562	32650	
3470	0	32344	32804	
3471	0	32400	32334	
3472	0	32564	32396	
3473	0	32536	32464	
3474	0	32408	32760	
3475	0	32268	32562	
3476	0	32132	33318	
3477	0	32058	33031	
3478	0	32152	33034	
3479	0	32086	33508	
3480	0	32093	33254	
3481	0	32236	32634	
3482	0	32392	32682	
3483	0	32792	32422	
3484	0	33076	32156	
3485	0	32932	32438	
3486	0	32914	32452	
3487	0	33112	32876	
3488	0	33085	32736	
3489	0	33156	32716	
3490	0	33424	32300	
3491	0	33272	32998	
3492	0	33006	33647	
3493	0	33004	33332	
3494	0	33068	33520	
3495	0	33324	33578	
3496	0	33210	33510	
3497	0	33028	32804	
3498	0	33020	32759	
3499	0	33190	32436	
3500	0	33104	32314	
3501	0	33436	32462	
3502	0	33556	32938	
3503	0	33632	33266	
3504	0	33450	33280	
3505	0	33362	33262	
3506	0	32964	32884	
3507	0	32736	32646	
3508	0	32480	32694	
3509	0	32340	32816	
3510	0	32308	33304	
3511	0	32316	33418	
3512	0	32682	32588	
3513	0	32634	32250	
3514	0	32216	32310	
3515	0	32046	32232	
3516	0	32098	32322	
3517	0	32088	32434	
3518	0	32364	32932	
3519	0	32834	33330	
3520	0	33264	33172	
3521	0	33508	32552	
3522	0	33390	32342	
3523	0	33402	31684	
3524	0	33364	31545	
3525	0	33176	32130	
3526	0	33306	32158	
3527	0	33198	32007	
3528	0	32750	32252	
3529	0	32356	32596	
3530	0	31952	32928	
3531	0	31808	33186	
3532	0	31936	33364	
3533	0	32412	32992	
3534	0	32372	33087	
3535	0	32556	32800	
3536	0	32908	32470	
3537	0	33300	32292	
3538	0	33426	32260	
3539	0	33360	32134	
3540	0	32896	32156	
3541	0	32304	32308	
3542	0	32508	32510	
3543	0	32872	32466	
3544	0	32840	32820	
3545	0	32768	32564	
3546	0	32714	32820	
3547	0	32696	33270	
3548	0	32648	32914	
3549	0	32716	32708	
3550	0	32664	32980	
3551	0	32532	33120	
3552	0	32326	32954	
3553	0	32496	33048	
3554	0	32632	32792	
3555	0	32616	32534	
3556	0	32500	32908	
3557	0	32440	33102	
3558	0	32492	32940	
3559	0	32740	33076	
3560	0	32948	33498	
3561	0	33218	33038	
3562	0	32996	32612	
3563	0	32984	32636	
3564	0	33372	32553	
3565	0	33294	32256	
3566	0	33328	32322	
3567	0	33444	32628	
3568	0	33402	32664	
3569	0	33236	33050	
3570	0	33132	32820	
3571	0	33108	32732	
3572	0	32876	33208	
3573	0	33220	33242	
3574	0	33256	33154	
3575	0	32904	32804	
3576	0	32578	32970	
3577	0	32512	33356	
3578	0	32100	33264	
3579	0	32100	32876	
3580	0	31988	32532	
3581	0	31696	32314	
3582	0	31456	32436	
3583	0	31306	32554	
3584	0	31602	32660	
3585	0	32020	32588	
3586	0	32552	33258	
3587	0	32982	33366	
3588	0	33220	32988	
3589	0	33344	32536	
3590	0	33248	32033	
3591	0	33352	31846	
3592	0	33420	32116	
3593	0	33416	32740	
3594	0	33494	33636	
3595	0	33604	33756	
3596	0	33378	32836	
3597	0	33199	32916	
3598	0	33184	32964	
3599	0	33312	32492	
3600	0	33428	31876	
3601	0	33444	31840	
3602	0	33542	32112	
3603	0	33588	32352	
3604	0	33484	32796	
3605	0	33126	32686	
3606	0	32926	33010	
3607	0	32706	32816	
3608	0	32436	32252	
3609	0	32128	32556	
3610	0	32480	32646	
3611	0	32588	32732	
3612	0	32040	32724	
3613	0	31688	33092	
3614	0	31588	33354	
3615	0	31708	33460	
3616	0	31760	32948	
3617	0	32042	32838	
3618	0	32146	32916	
3619	0	32288	33240	
3620	0	32850	33368	
3621	0	32968	33272	
3622	0	33004	33180	
3623	0	33052	32550	
3624	0	33096	32322	
3625	0	33180	32546	
3626	0	33380	32646	
3627	0	33508	32432	
3628	0	33346	32290	
3629	0	33156	32504	
3630	0	33064	32700	
3631	0	33152	32786	
3632	0	33532	32538	
3633	0	33744	32968	
3634	0	33524	32896	
3635	0	33106	32916	
3636	0	32612	33394	
3637	0	32508	34124	
3638	0	32486	33206	
3639	0	32370	32416	
3640	0	32160	32192	
3641	0	32072	32340	
3642	0	32120	32116	
3643	0	32484	33044	
3644	0	32752	33154	
3645	0	33364	32714	
3646	0	33432	32234	
3647	0	33640	32382	
3648	0	33366	32542	
3649	0	32952	32832	
3650	0	32628	32368	
3651	0	32238	32612	
3652	0	31906	32852	
3653	0	31436	32902	
3654	0	31144	32903	
3655	0	31146	33072	
3656	0	31776	33079	
3657	0	32564	33006	
3658	0	32912	32705	
3659	0	32832	33108	
3660	0	33254	33400	
3661	0	33456	33098	
3662	0	33498	32970	
3663	0	33316	32646	
3664	0	33248	32128	
3665	0	33340	32090	
3666	0	33360	32239	
3667	0	33368	32698	
3668	0	33460	32516	
3669	0	33424	33188	
3670	0	33672	31712	
3671	0	33656	31672	
3672	0	33358	32996	
3673	0	33252	32806	
3674	0	33218	32508	
3675	0	33188	32260	
3676	0	32924	32426	
3677	0	32960	32398	
3678	0	32856	32492	
3679	0	32804	32846	
3680	0	32802	33586	
3681	0	32648	33190	
3682	0	32392	32944	
3683	0	32308	32976	
3684	0	32468	32680	
3685	0	32894	33126	
3686	0	32976	33496	
3687	0	32900	33126	
3688	0	32756	32751	
3689	0	32224	32704	
3690	0	32154	32960	
3691	0	32794	33094	
3692	0	32508	32864	
3693	0	32552	33013	
3694	0	32596	33310	
3695	0	32736	33783	
3696	0	32912	33604	
3697	0	33204	33078	
3698	0	33594	32454	
3699	0	33416	32204	
3700	0	33156	32340	
3701	0	32700	32104	
3702	0	32262	31290	
3703	0	31860	31660	
3704	0	31758	31812	
3705	0	31930	32390	
3706	0	31934	33002	
3707	0	32232	33226	
3708	0	32448	33654	
3709	0	32730	32878	
3710	0	32964	32196	
3711	0	33492	32334	
3712	0	33848	33256	
3713	0	34200	33620	
3714	0	33936	32826	
3715	0	33856	32852	
3716	0	33924	32948	
3717	0	33636	32644	
3718	0	33504	32136	
3719	0	33448	32284	
3720	0	33224	32782	
3721	0	32528	32632	
3722	0	32274	32508	
3723	0	32140	32584	
3724	0	32456	32298	
3725	0	32340	32362	
3726	0	31858	33564	
3727	0	31388	33420	
3728	0	30969	33052	
3729	0	30718	32600	
3730	0	30844	31734	
3731	0	31342	32094	
3732	0	31636	32775	
3733	0	31784	32938	
3734	0	32116	32884	
3735	0	32552	32668	
3736	0	33366	32984	
3737	0	33624	33552	
3738	0	33392	32908	
3739	0	33108	32391	
3740	0	33080	32088	
3741	0	33152	32415	
3742	0	33024	33018	
3743	0	33198	33452	
3744	0	33824	33020	
3745	0	33768	33287	
3746	0	33520	32924	
3747	0	33192	32092	
3748	0	33002	32186	
3749	0	32914	32262	
3750	0	32812	32444	
3751	0	33052	32708	
3752	0	33056	32850	
3753	0	33188	32766	
3754	0	33210	32958	
3755	0	33284	33078	
3756	0	33328	33276	
3757	0	33328	33716	
3758	0	33536	32903	
3759	0	33478	32908	
3760	0	33456	33062	
3761	0	33328	32988	
3762	0	33264	33020	
3763	0	33094	32428	
3764	0	32836	32048	
3765	0	32828	33070	
3766	0	32964	33204	
3767	0	33124	33031	
3768	0	33562	32896	
3769	0	33516	32562	
3770	0	32976	32616	
3771	0	32012	31678	
3772	0	31448	32296	
3773	0	31028	32604	
3774	0	31106	32748	
3775	0	31592	32775	
3776	0	31996	32664	
3777	0	32656	32775	
3778	0	33024	32910	
3779	0	33304	32700	
3780	0	33408	32592	
3781	0	33340	32642	
3782	0	33572	32344	
3783	0	33688	32743	
3784	0	33536	32966	
3785	0	33436	32714	
3786	0	33430	32932	
3787	0	33410	33188	
3788	0	33492	33216	
3789	0	33380	32938	
3790	0	33138	32916	
3791	0	33092	32804	
3792	0	33504	32832	
3793	0	33628	32892	
3794	0	33158	32964	
3795	0	33008	33108	
3796	0	32800	33030	
3797	0	32696	32908	
3798	0	32744	32796	
3799	0	32792	33064	
3800	0	32588	33146	
3801	0	32196	33496	
3802	0	31968	32958	
3803	0	32054	32236	
3804	0	31832	32480	
3805	0	32092	32944	
3806	0	32245	32692	
3807	0	32014	32620	
3808	0	32028	32582	
3809	0	32220	32222	
3810	0	32372	32166	
3811	0	32512	32456	
3812	0	32526	32848	
3813	0	32876	32832	
3814	0	32952	32718	
3815	0	32892	32826	
3816	0	32952	32775	
3817	0	33076	32862	
3818	0	33276	33018	
3819	0	33124	33004	
3820	0	33142	33052	
3821	0	33184	33058	
3822	0	33300	33332	
3823	0	33056	32930	
3824	0	33240	32528	
3825	0	33308	32902	
3826	0	32862	32900	
3827	0	32584	32593	
3828	0	32404	32698	
3829	0	32250	32799	
3830	0	32402	32444	
3831	0	32302	32204	
3832	0	32124	32436	
3833	0	32212	32634	
3834	0	32554	32534	
3835	0	32448	32581	
3836	0	32432	32624	
3837	0	32544	32888	
3838	0	32436	32912	
3839	0	32644	32926	
3840	0	32576	32848	
3841	0	32482	32948	
3842	0	32426	33056	
3843	0	32604	33340	
3844	0	32586	33414	
3845	0	32504	33214	
3846	0	32544	32804	
3847	0	32560	32742	
3848	0	32486	32588	
3849	0	32488	32798	
3850	0	32414	32682	
3851	0	32458	32750	
3852	0	32444	32820	
3853	0	32388	32990	
3854	0	32218	33060	
3855	0	32086	32436	
3856	0	32320	32486	
3857	0	32344	32300	
3858	0	32468	32384	
3859	0	32556	32380	
3860	0	32450	32580	
3861	0	32584	32578	
3862	0	32822	32956	
3863	0	32976	33086	
3864	0	33008	33060	
3865	0	33324	33000	
3866	0	33370	32774	
3867	0	33108	32772	
3868	0	32800	32420	
3869	0	32500	32695	
3870	0	32344	32876	
3871	0	32516	33000	
3872	0	32728	32934	
3873	0	32844	32504	
3874	0	32944	32852	
3875	0	33200	32684	
3876	0	33328	32740	
3877	0	33276	32612	
3878	0	33168	32774	
3879	0	33054	32554	
3880	0	32962	32624	
3881	0	32960	32852	
3882	0	32936	32812	
3883	0	32966	32574	
3884	0	33020	32775	
3885	0	32914	32876	
3886	0	32938	32668	
3887	0	33028	32714	
3888	0	33040	32628	
3889	0	32994	32966	
3890	0	33014	32956	
3891	0	33128	33076	
3892	0	33162	33280	
3893	0	33182	33040	
3894	0	33082	32872	
3895	0	33092	33134	
3896	0	33180	33198	
3897	0	33106	32938	
3898	0	33052	32586	
3899	0	32944	32487	
3900	0	33088	32306	
3901	0	33088	32262	
3902	0	33080	32240	
3903	0	33012	32418	
3904	0	33132	32372	
3905	0	33136	32484	
3906	0	33088	32516	
3907	0	33360	32750	
3908	0	33378	32692	
3909	0	33192	32794	
3910	0	32946	32582	
3911	0	32796	32724	
3912	0	32904	32596	
3913	0	33002	32420	
3914	0	32936	32420	
3915	0	32578	32510	
3916	0	32384	32556	
3917	0	32520	32710	
3918	0	32548	32800	
3919	0	32314	32775	
3920	0	32100	32839	
3921	0	32152	32888	
3922	0	32008	32798	
3923	0	32040	32727	
3924	0	32164	33031	
3925	0	32394	32704	
3926	0	32522	32762	
3927	0	32718	32692	
3928	0	32934	32839	
3929	0	33088	32840	
3930	0	33184	33050	
3931	0	32980	32826	
3932	0	32768	32818	
3933	0	32660	32903	
3934	0	32588	33164	
3935	0	32640	33054	
3936	0	32482	33040	
3937	0	32304	33014	
3938	0	32152	33068	
3939	0	32272	32930	
3940	0	32468	32734	
3941	0	32628	32746	
3942	0	32924	32548	
3943	0	33144	32712	
3944	0	33040	32932	
3945	0	33030	32667	
3946	0	32790	33006	
3947	0	32448	32902	
3948	0	32386	33048	
3949	0	32226	32998	
3950	0	32158	32846	
3951	0	32236	32564	
3952	0	32356	32478	
3953	0	32648	32455	
3954	0	32976	32632	
3955	0	33248	32716	
3956	0	33408	32856	
3957	0	33598	32788	
3958	0	33762	32939	
3959	0	33674	32846	
3960	0	33672	32444	
3961	0	33496	32422	
3962	0	33496	32526	
3963	0	33464	32580	
3964	0	33472	32562	
3965	0	33397	32824	
3966	0	33328	32540	
3967	0	33264	32704	
3968	0	33326	32700	
3969	0	33472	32716	
3970	0	33646	32655	
3971	0	33686	32740	
3972	0	33438	32744	
3973	0	33342	32724	
3974	0	33400	32718	
3975	0	33426	32744	
3976	0	33168	32748	
3977	0	32872	32680	
3978	0	32682	32710	
3979	0	32828	32822	
3980	0	32576	32784	
3981	0	32304	32903	
3982	0	32272	32912	
3983	0	32332	32752	
3984	0	32216	32618	
3985	0	32080	32656	
3986	0	31926	32852	
3987	0	31952	32714	
3988	0	32060	32872	
3989	0	32188	32702	
3990	0	32308	32664	
3991	0	32452	32575	
3992	0	32632	32786	
3993	0	32784	32866	
3994	0	32928	32894	
3995	0	33004	32956	
3996	0	33160	32770	
3997	0	33258	32774	
3998	0	33232	32688	
3999	0	32920	32866	
4000	0	32926	32884	
4001	0	32896	32784	
4002	0	32838	32839	
4003	0	32748	32904	
4004	0	32712	32860	
4005	0	32766	32800	
4006	0	32744	32788	
4007	0	32528	32888	
4008	0	32480	32858	
4009	0	32326	32843	
4010	0	32012	33031	
4011	0	31764	32710	
4012	0	31984	32519	
4013	0	32244	32672	
4014	0	32504	32842	
4015	0	32830	32768	
4016	0	33136	32594	
4017	0	33360	32700	
4018	0	33578	32624	
4019	0	33916	32830	
4020	0	34196	32848	
4021	0	34424	33010	
4022	0	34468	33084	
4023	0	34400	32804	
4024	0	34376	32736	
4025	0	34192	33088	
4026	0	34152	32966	
4027	0	34158	32824	
4028	0	33984	32750	
4029	0	33754	32930	
4030	0	33336	32588	
4031	0	32962	32724	
4032	0	33222	32526	
4033	0	33004	32596	
4034	0	32788	32560	
4035	0	32456	32436	
4036	0	32184	32600	
4037	0	32100	32516	
4038	0	32228	32543	
4039	0	32068	32460	
4040	0	31872	32716	
4041	0	31440	32858	
4042	0	31276	32872	
4043	0	31346	32808	
4044	0	31377	33016	
4045	0	31656	32628	
4046	0	31856	32656	
4047	0	32280	32598	
4048	0	32272	32860	
4049	0	32465	32710	
4050	0	32390	32670	
4051	0	32660	32700	
4052	0	32864	32942	
4053	0	33142	32958	
4054	0	33140	32984	
4055	0	33229	32834	
4056	0	33096	32706	
4057	0	33088	32586	
4058	0	33048	32830	
4059	0	33156	32944	
4060	0	33020	32864	
4061	0	32804	32748	
4062	0	32720	32632	
4063	0	32796	32500	
4064	0	32752	32500	
4065	0	32704	32592	
4066	0	32742	32682	
4067	0	32692	32914	
4068	0	32676	32679	
4069	0	32696	32918	
4070	0	32646	32762	
4071	0	32732	32844	
4072	0	32820	32775	
4073	0	32824	32752	
4074	0	33028	32893	
4075	0	32926	32902	
4076	0	33160	32916	
4077	0	33016	32847	
4078	0	32952	32856	
4079	0	32684	32660	
4080	0	32652	32588	
4081	0	32652	32817	
4082	0	32616	32694	
4083	0	32616	32760	
4084	0	32820	32680	
4085	0	32744	32596	
4086	0	32752	32694	
4087	0	32720	33020	
4088	0	32688	32940	
4089	0	32740	32718	
4090	0	32784	32820	
4091	0	32736	32456	
4092	0	32706	32812	
4093	0	32696	32768	
4094	0	32868	32828	
4095	0	32952	32838	
4096	0	32962	32838	
4097	0	32870	32887	
4098	0	32764	32880	
4099	0	33016	33024	
4100	0	33098	32696	
4101	0	32992	32783	
4102	0	32720	32588	
4103	0	32556	32480	
4104	0	32324	32562	
4105	0	32542	32580	
4106	0	32644	32666	
4107	0	32534	32855	
4108	0	32614	33070	
4109	0	32656	32822	
4110	0	32696	32828	
4111	0	32752	32574	
4112	0	32706	32538	
4113	0	32674	32618	
4114	0	32576	32750	
4115	0	32556	32775	
4116	0	32744	32740	
4117	0	32796	32892	
4118	0	32908	32775	
4119	0	32766	32950	
4120	0	32948	32802	
4121	0	32984	32736	
4122	0	32832	32454	
4123	0	32860	32876	
4124	0	32912	32986	
4125	0	32826	32775	
4126	0	32808	32682	
4127	0	32866	32504	
4128	0	32832	32650	
4129	0	33112	32715	
4130	0	32984	32836	
4131	0	32828	32830	
4132	0	32866	32868	
4133	0	32910	32872	
4134	0	33156	32716	
4135	0	33068	32839	
4136	0	32648	32689	
4137	0	32520	32580	
4138	0	32208	32580	
4139	0	32100	32546	
4140	0	32224	32872	
4141	0	32322	32790	
4142	0	32616	32775	
4143	0	32576	32847	
4144	0	32500	32682	
4145	0	32704	32839	
4146	0	32756	32966	
4147	0	32850	32902	
4148	0	32836	32872	
4149	0	32994	32678	
4150	0	33100	32644	
4151	0	33136	32660	
4152	0	33328	32682	
4153	0	33396	32928	
4154	0	33472	32732	
4155	0	33348	32818	
4156	0	33176	33028	
4157	0	32782	33012	
4158	0	32660	32802	
4159	0	32820	32768	
4160	0	32584	32902	
4161	0	32350	32834	
4162	0	32104	32982	
4163	0	32060	32860	
4164	0	32050	32312	
4165	0	32368	32584	
4166	0	32612	32640	
4167	0	32532	32662	
4168	0	32636	32760	
4169	0	32750	32702	
4170	0	33004	32798	
4171	0	33220	32696	
4172	0	33408	32534	
4173	0	33320	32504	
4174	0	33412	32812	
4175	0	33404	32928	
4176	0	33024	32671	
4177	0	32656	32838	
4178	0	32600	32724	
4179	0	32470	32788	
4180	0	32368	32678	
4181	0	32120	32798	
4182	0	32208	32908	
4183	0	32480	32551	
4184	0	32688	32710	
4185	0	32944	32775	
4186	0	33248	32678	
4187	0	33156	32821	
4188	0	33388	32982	
4189	0	33520	33086	
4190	0	33396	32684	
4191	0	33332	32664	
4192	0	33478	32586	
4193	0	33626	32708	
4194	0	33626	32816	
4195	0	33468	32762	
4196	0	33196	32842	
4197	0	33016	32696	
4198	0	32802	32784	
4199	0	32676	32852	
4200	0	32522	32868	
4201	0	32584	32944	
4202	0	32532	32602	
4203	0	32400	32454	
4204	0	32548	32596	
4205	0	32380	32934	
4206	0	32340	32903	
4207	0	32372	32798	
4208	0	32324	32912	
4209	0	32584	32775	
4210	0	32512	32794	
4211	0	32558	32742	
4212	0	32540	32724	
4213	0	32648	32660	
4214	0	32444	32320	
4215	0	32268	32647	
4216	0	32212	32578	
4217	0	32272	32680	
4218	0	32192	32748	
4219	0	32368	32775	
4220	0	32408	32848	
4221	0	32404	32920	
4222	0	32686	32862	
4223	0	32620	32977	
4224	0	32716	32918	
4225	0	32968	33028	
4226	0	32992	33018	
4227	0	32852	32788	
4228	0	32670	32860	
4229	0	32716	32680	
4230	0	32682	32738	
4231	0	32754	32686	
4232	0	32780	32966	
4233	0	32920	32916	
4234	0	32932	32862	
4235	0	32756	32692	
4236	0	32668	32838	
4237	0	32784	32608	
4238	0	32678	32588	
4239	0	32720	32738	
4240	0	33032	32684	
4241	0	33188	32600	
4242	0	33120	32598	
4243	0	33032	32720	
4244	0	32960	32712	
4245	0	32794	32718	
4246	0	32824	32775	
4247	0	32992	32812	
4248	0	33024	32988	
4249	0	33032	32742	
4250	0	32804	32692	
4251	0	32900	32724	
4252	0	32936	32740	
4253	0	32872	33010	
4254	0	32848	32775	
4255	0	32914	32692	
4256	0	32906	32718	
4257	0	32998	32784	
4258	0	32976	32854	
4259	0	33066	32838	
4260	0	33112	32854	
4261	0	33176	32730	
4262	0	33212	32678	
4263	0	33390	32854	
4264	0	33224	32770	
4265	0	32812	32692	
4266	0	32520	32738	
4267	0	32622	32680	
4268	0	32664	32636	
4269	0	32772	32866	
4270	0	32780	32759	
4271	0	32954	32976	
4272	0	33084	32974	
4273	0	33224	32822	
4274	0	33332	32758	
4275	0	33124	32696	
4276	0	33104	32868	
4277	0	33008	32848	
4278	0	32808	32622	
4279	0	32788	32644	
4280	0	32794	32740	
4281	0	32780	32742	
4282	0	32988	32574	
4283	0	32904	32458	
4284	0	32808	32684	
4285	0	32704	32744	
4286	0	32584	32712	
4287	0	32782	32796	
4288	0	32720	32606	
4289	0	32740	32836	
4290	0	32864	32888	
4291	0	32844	32704	
4292	0	32894	32698	
4293	0	32916	32634	
4294	0	32976	32711	
4295	0	32896	32862	
4296	0	32772	32920	
4297	0	32752	32902	
4298	0	32884	32598	
4299	0	32918	32628	
4300	0	32940	32844	
4301	0	32944	32864	
4302	0	33008	32758	
4303	0	32884	32872	
4304	0	32682	32656	
4305	0	32848	32734	
4306	0	32894	32794	
4307	0	32712	32871	
4308	0	32825	32854	
4309	0	32810	32766	
4310	0	32724	32735	
4311	0	32716	32828	
4312	0	32716	32832	
4313	0	32740	32752	
4314	0	32748	32798	
4315	0	32786	32858	
4316	0	32756	32700	
4317	0	32882	32634	
4318	0	32800	32856	
4319	0	32792	32998	
4320	0	32900	32942	
4321	0	32918	32852	
4322	0	32990	32622	
4323	0	32896	32680	
4324	0	32852	32628	
4325	0	32588	32612	
4326	0	32496	32836	
4327	0	32480	32714	
4328	0	32608	32586	
4329	0	32672	32906	
4330	0	32664	32892	
4331	0	32696	32852	
4332	0	32868	32746	
4333	0	32836	32556	
4334	0	32706	32498	
4335	0	32666	32584	
4336	0	32616	32852	
4337	0	32766	32849	
4338	0	32832	32711	
4339	0	32852	32800	
4340	0	32824	32816	
4341	0	32788	32678	
4342	0	32964	32758	
4343	0	32884	32844	
4344	0	32866	32996	
4345	0	33002	32844	
4346	0	32868	32772	
4347	0	33026	32804	
4348	0	32944	32960	
4349	0	32788	32958	
4350	0	33008	32774	
4351	0	32884	32900	
4352	0	32804	32746	
4353	0	32828	32576	
4354	0	32936	32668	
4355	0	32780	32775	
4356	0	32656	32658	
4357	0	32536	32676	
4358	0	32668	32654	
4359	0	32834	32942	
4360	0	32684	33056	
4361	0	32608	33124	
4362	0	32624	32878	
4363	0	32600	32622	
4364	0	32506	32588	
4365	0	32644	32508	
4366	0	32696	32772	
4367	0	32736	32824	
4368	0	32832	32882	
4369	0	32818	32710	
4370	0	32916	32704	
4371	0	32906	32780	
4372	0	32980	32756	
4373	0	32994	32647	
4374	0	33004	32720	
4375	0	32992	32624	
4376	0	32952	32846	
4377	0	32956	32848	
4378	0	32880	32764	
4379	0	32812	32750	
4380	0	32604	32705	
4381	0	32640	32568	
4382	0	32600	32634	
4383	0	32625	32660	
4384	0	32586	32626	
4385	0	32516	32834	
4386	0	32512	32812	
4387	0	32564	32960	
4388	0	32612	32906	
4389	0	32712	32864	
4390	0	32788	32870	
4391	0	32912	32926	
4392	0	32848	32826	
4393	0	32796	32612	
4394	0	32904	32592	
4395	0	32876	32644	
4396	0	32998	32680	
4397	0	33016	32854	
4398	0	33144	32679	
4399	0	33104	32748	
4400	0	33232	32756	
4401	0	33012	32604	
4402	0	32890	32712	
4403	0	32884	32752	
4404	0	32828	32771	
4405	0	32812	32932	
4406	0	32826	32887	
4407	0	32732	32874	
4408	0	32520	32816	
4409	0	32530	32848	
4410	0	32644	32862	
4411	0	32736	33000	
4412	0	32720	32912	
4413	0	32652	32924	
4414	0	32736	32834	
4415	0	32768	32666	
4416	0	32802	32662	
4417	0	32728	32824	
4418	0	32712	32726	
4419	0	32644	32704	
4420	0	32760	32592	
4421	0	32864	32726	
4422	0	32896	32708	
4423	0	32872	32730	
4424	0	32878	32847	
4425	0	32888	32792	
4426	0	32836	32718	
4427	0	32904	32592	
4428	0	32804	32702	
4429	0	32732	32682	
4430	0	32794	32838	
4431	0	32808	32928	
4432	0	32816	32882	
4433	0	32976	32847	
4434	0	32884	32662	
4435	0	32880	32692	
4436	0	32872	32801	
4437	0	32968	32646	
4438	0	32996	32673	
4439	0	32876	32652	
4440	0	32860	32810	
4441	0	32824	32742	
4442	0	32864	32800	
4443	0	32808	32732	
4444	0	32804	32540	
4445	0	32804	32682	
4446	0	32854	32880	
4447	0	32930	33100	
4448	0	32928	33028	
4449	0	32946	32720	
4450	0	32832	32880	
4451	0	32812	32659	
4452	0	32748	32592	
4453	0	32788	32682	
4454	0	32588	32636	
4455	0	32612	32800	
4456	0	32632	32824	
4457	0	32596	32644	
4458	0	32656	32728	
4459	0	32692	32582	
4460	0	32896	32680	
4461	0	32976	32726	
4462	0	32920	32644	
4463	0	32760	32822	
4464	0	32852	32784	
4465	0	32828	32772	
4466	0	32576	32943	
4467	0	32352	32870	
4468	0	32324	32892	
4469	0	32320	33159	
4470	0	32284	32922	
4471	0	32408	32908	
4472	0	32564	32958	
4473	0	32608	32948	
4474	0	32728	32782	
4475	0	32840	32774	
4476	0	32900	32588	
4477	0	32818	32688	
4478	0	33076	32724	
4479	0	33032	32608	
4480	0	33172	32736	
4481	0	33336	32814	
4482	0	33502	32526	
4483	0	33552	32660	
4484	0	33520	32658	
4485	0	33512	32519	
4486	0	33412	32572	
4487	0	33460	32510	
4488	0	33396	32484	
4489	0	33388	32775	
4490	0	33216	32775	
4491	0	33248	32804	
4492	0	33004	32838	
4493	0	32780	32775	
4494	0	32596	32750	
4495	0	32408	32860	
4496	0	32338	32772	
4497	0	32228	32902	
4498	0	32264	32744	
4499	0	32320	32824	
4500	0	32490	32918	
4501	0	32512	32924	
4502	0	32540	32906	
4503	0	32566	32756	
4504	0	32532	32914	
4505	0	32596	32916	
4506	0	32628	32956	
4507	0	32668	32924	
4508	0	32790	32758	
4509	0	32788	32792	
4510	0	32726	32713	
4511	0	32840	32560	
4512	0	32856	32926	
4513	0	32866	32898	
4514	0	32748	32734	
4515	0	32828	32828	
4516	0	32874	32668	
4517	0	32880	32774	
4518	0	32840	32828	
4519	0	32800	32938	
4520	0	32730	32996	
4521	0	32720	32788	
4522	0	32740	32654	
4523	0	32744	32606	
4524	0	32786	32807	
4525	0	32840	32828	
4526	0	32920	32700	
4527	0	32888	32870	
4528	0	32902	32892	
4529	0	32848	32688	
4530	0	32900	32772	
4531	0	32756	32736	
4532	0	32808	32728	
4533	0	32812	32806	
4534	0	32980	32670	
4535	0	32930	32865	
4536	0	32858	32728	
4537	0	32878	32662	
4538	0	32852	32618	
4539	0	32894	32726	
4540	0	32788	32856	
4541	0	32812	32754	
4542	0	32836	32796	
4543	0	32906	32771	
4544	0	32896	32768	
4545	0	32890	32816	
4546	0	32860	32816	
4547	0	32788	32596	
4548	0	32952	32702	
4549	0	32928	32753	
4550	0	32782	32702	
4551	0	32762	32724	
4552	0	32748	32672	
4553	0	32866	32728	
4554	0	32932	32712	
4555	0	32806	32942	
4556	0	32817	32868	
4557	0	32868	32692	
4558	0	32696	32854	
4559	0	32760	32921	
4560	0	32682	32664	
4561	0	32670	32664	
4562	0	32800	32858	
4563	0	32916	32656	
4564	0	32872	32431	
4565	0	32864	32580	
4566	0	32942	32846	
4567	0	32860	32812	
4568	0	32840	32844	
4569	0	32822	32796	
4570	0	32796	32694	
4571	0	32768	32790	
4572	0	32910	32728	
4573	0	32956	32636	
4574	0	33013	32884	
4575	0	33166	33100	
4576	0	32976	32752	
4577	0	32912	32732	
4578	0	32796	32610	
4579	0	32674	32780	
4580	0	32567	32858	
4581	0	32528	32778	
4582	0	32568	32734	
4583	0	32576	32724	
4584	0	32624	32668	
4585	0	32736	32830	
4586	0	32752	32840	
4587	0	32780	32818	
4588	0	32858	32844	
4589	0	32676	32788	
4590	0	32520	32718	
4591	0	32632	32796	
4592	0	32788	32807	
4593	0	32936	32742	
4594	0	32954	32814	
4595	0	32900	32656	
4596	0	32792	32774	
4597	0	32856	32784	
4598	0	32940	32730	
4599	0	32930	32756	
4600	0	33072	32720	
4601	0	33072	32682	
4602	0	33030	32700	
4603	0	32970	32786	
4604	0	32864	32876	
4605	0	32914	32848	
4606	0	32832	32932	
4607	0	32658	32798	
4608	0	32414	32721	
4609	0	32544	32775	
4610	0	32552	32744	
4611	0	32622	32764	
4612	0	32788	32830	
4613	0	32824	33016	
4614	0	32872	32716	
4615	0	32842	32718	
4616	0	32848	32748	
4617	0	32858	32666	
4618	0	32838	32775	
4619	0	32832	32808	
4620	0	32794	32756	
4621	0	32716	32696	
4622	0	32708	32752	
4623	0	32780	32668	
4624	0	32984	32934	
4625	0	33130	32842	
4626	0	32992	32646	
4627	0	32962	32744	
4628	0	32890	32816	
4629	0	32814	32640	
4630	0	32768	32756	
4631	0	32708	32662	
4632	0	32710	32764	
4633	0	32668	32754	
4634	0	32644	32750	
4635	0	32584	32746	
4636	0	32520	32855	
4637	0	32629	32834	
4638	0	32780	32775	
4639	0	32852	32856	
4640	0	32784	32828	
4641	0	32712	32730	
4642	0	32824	32812	
4643	0	32826	32798	
4644	0	32856	32718	
4645	0	32952	32790	
4646	0	33024	32744	
4647	0	33064	32639	
4648	0	33012	32678	
4649	0	32924	32738	
4650	0	32896	32728	
4651	0	32860	32775	
4652	0	32920	32858	
4653	0	32888	32956	
4654	0	32836	32780	
4655	0	32870	32863	
4656	0	32887	32870	
4657	0	32962	32652	
4658	0	32940	32752	
4659	0	32962	32796	
4660	0	32912	32798	
4661	0	32758	32644	
4662	0	32744	32734	
4663	0	32840	32858	
4664	0	32836	32728	
4665	0	32804	32752	
4666	0	32804	32642	
4667	0	32836	32816	
4668	0	32901	32548	
4669	0	32912	32696	
4670	0	32964	32788	
4671	0	32856	32670	
4672	0	32960	32775	
4673	0	32912	32852	
4674	0	32796	32750	
4675	0	32757	32816	
4676	0	32798	32828	
4677	0	32884	32798	
4678	0	32824	32674	
4679	0	32966	32838	
4680	0	32956	32866	
4681	0	32904	32752	
4682	0	32916	32790	
4683	0	33124	32762	
4684	0	32912	32840	
4685	0	32750	32854	
4686	0	32656	32852	
4687	0	32576	32796	
4688	0	32476	32840	
4689	0	32424	32759	
4690	0	32368	32766	
4691	0	32428	32686	
4692	0	32508	32836	
4693	0	32382	32708	
4694	0	32366	32744	
4695	0	32420	32688	
4696	0	32480	32798	
4697	0	32560	32862	
4698	0	32676	32866	
4699	0	32638	32966	
4700	0	32608	32840	
4701	0	32700	32648	
4702	0	32736	32758	
4703	0	32680	32768	
4704	0	32704	32596	
4705	0	32828	32690	
4706	0	32856	32740	
4707	0	32816	32686	
4708	0	32864	32790	
4709	0	32820	32812	
4710	0	32938	32742	
4711	0	32876	32840	
4712	0	32910	32726	
4713	0	32904	32656	
4714	0	32916	32679	
4715	0	32994	32690	
4716	0	32896	32636	
4717	0	32968	32720	
4718	0	32940	32860	
4719	0	32884	32834	
4720	0	32898	32958	
4721	0	32950	32896	
4722	0	32900	32692	
4723	0	32892	32716	
4724	0	32802	32764	
4725	0	32836	32696	
4726	0	32860	32856	
4727	0	32846	32890	
4728	0	32798	32710	
4729	0	32908	32950	
4730	0	32884	32854	
4731	0	32872	32788	
4732	0	32872	32694	
4733	0	32738	32634	
4734	0	32796	32862	
4735	0	32836	32758	
4736	0	32896	32775	
4737	0	32846	32670	
4738	0	32824	32748	
4739	0	32874	32708	
4740	0	32812	32718	
4741	0	32832	32692	
4742	0	32884	32614	
4743	0	32864	32706	
4744	0	32842	32775	
4745	0	32864	32708	
4746	0	32816	32756	
4747	0	32748	32724	
4748	0	32792	32871	
4749	0	32790	32796	
4750	0	32734	32624	
4751	0	32784	32807	
4752	0	32692	32624	
4753	0	32820	32769	
4754	0	32842	32878	
4755	0	32800	32768	
4756	0	32792	32819	
4757	0	32804	32828	
4758	0	32644	32830	
4759	0	32676	32732	
4760	0	32736	32724	
4761	0	32780	32880	
4762	0	32852	32682	
4763	0	32820	32674	
4764	0	32824	32840	
4765	0	32736	32846	
4766	0	32820	32758	
4767	0	32792	32894	
4768	0	32800	32688	
4769	0	32776	32788	
4770	0	32852	32804	
4771	0	32868	32702	
4772	0	32900	32636	
4773	0	32908	32814	
4774	0	32948	32838	
4775	0	32868	32732	
4776	0	32820	32830	
4777	0	32776	32796	
4778	0	32764	32658	
4779	0	32856	32860	
4780	0	32910	32664	
4781	0	32786	32584	
4782	0	32810	32788	
4783	0	32764	32730	
4784	0	32768	32802	
4785	0	32828	32828	
4786	0	32792	32710	
4787	0	32766	32764	
4788	0	32772	32775	
4789	0	32704	32960	
4790	0	32766	32876	
4791	0	32772	32864	
4792	0	32740	32628	
4793	0	32792	32752	
4794	0	32860	32896	
4795	0	32840	32736	
4796	0	32832	32652	
4797	0	32818	32692	
4798	0	32704	32742	
4799	0	32716	32954	
4800	0	32752	32858	
4801	0	32756	32900	
4802	0	32912	32872	
4803	0	32920	32804	
4804	0	32892	32796	
4805	0	32868	32808	
4806	0	32888	32705	
4807	0	32844	32888	
4808	0	32840	32824	
4809	0	32884	32802	
4810	0	32916	32832	
4811	0	32896	32798	
4812	0	32772	32740	
4813	0	32900	32750	
4814	0	32908	32658	
4815	0	32834	32800	
4816	0	32864	32812	
4817	0	32810	32708	
4818	0	32809	32806	
4819	0	32776	32696	
4820	0	32780	32586	
4821	0	32808	32714	
4822	0	32804	32716	
4823	0	32814	32710	
4824	0	32836	32722	
4825	0	32804	32788	
4826	0	32878	32836	
4827	0	32838	32844	
4828	0	32704	32916	
4829	0	32920	32759	
4830	0	32840	32794	
4831	0	32784	32721	
4832	0	32792	32672	
4833	0	32834	32774	
4834	0	32888	32704	
4835	0	32768	32784	
4836	0	32752	32708	
4837	0	32720	32592	
4838	0	32728	32752	
4839	0	32848	32746	
4840	0	32776	32768	
4841	0	32836	32714	
4842	0	32850	32846	
4843	0	32884	32752	
4844	0	32816	32704	
4845	0	32794	32782	
4846	0	32852	32710	
4847	0	32820	32694	
4848	0	32922	32742	
4849	0	32834	32686	
4850	0	32888	32814	
4851	0	32860	32812	
4852	0	32872	32852	
4853	0	32804	32760	
4854	0	32788	32608	
4855	0	32816	32743	
4856	0	32842	32836	
4857	0	32864	32812	
4858	0	32804	32724	
4859	0	32732	32764	
4860	0	32676	32740	
4861	0	32704	32738	
4862	0	32732	32904	
4863	0	32752	32882	
4864	0	32796	32772	
4865	0	32760	32872	
4866	0	32768	32814	
4867	0	32786	32710	
4868	0	32740	32628	
4869	0	32790	32798	
4870	0	32872	32715	
4871	0	32900	32920	
4872	0	32912	32964	
4873	0	32880	32762	
4874	0	32856	32794	
4875	0	32850	32844	
4876	0	32860	32775	
4877	0	32873	32912	
4878	0	32918	32682	
4879	0	32912	32647	
4880	0	32880	32590	
4881	0	32872	32714	
4882	0	32854	32870	
4883	0	32772	32764	
4884	0	32756	32702	
4885	0	32710	32756	
4886	0	32796	32816	
4887	0	32760	32732	
4888	0	32844	32806	
4889	0	32790	32775	
4890	0	32796	32702	
4891	0	32764	32568	
4892	0	32854	32638	
4893	0	32736	32647	
4894	0	32840	32644	
4895	0	32804	32774	
4896	0	32760	32636	
4897	0	32756	32775	
4898	0	32732	32756	
4899	0	32760	32732	
4900	0	32904	32878	
4901	0	32878	32810	
4902	0	32876	32654	
4903	0	32832	32692	
4904	0	32828	32790	
4905	0	32772	32690	
4906	0	32816	32868	
4907	0	32860	32902	
4908	0	32810	32830	
4909	0	32798	32936	
4910	0	32810	32812	
4911	0	32812	32858	
4912	0	32812	32775	
4913	0	32748	32892	
4914	0	32778	32880	
4915	0	32792	32814	
4916	0	32902	32924	
4917	0	32841	32674	
4918	0	32788	32754	
4919	0	32906	32588	
4920	0	32870	32742	
4921	0	32931	32688	
4922	0	32976	32886	
4923	0	33046	32890	
4924	0	33026	32976	
4925	0	32908	32852	
4926	0	33004	32823	
4927	0	32850	32736	
4928	0	32828	32658	
4929	0	32836	32700	
4930	0	32738	32676	
4931	0	32712	32705	
4932	0	32612	32812	
4933	0	32650	32682	
4934	0	32708	32795	
4935	0	32764	32784	
4936	0	32632	32826	
4937	0	32714	32862	
4938	0	32628	32716	
4939	0	32720	32740	
4940	0	32740	32804	
4941	0	32708	32720	
4942	0	32736	32726	
4943	0	32774	32678	
4944	0	32818	32724	
4945	0	32808	32806	
4946	0	32768	32849	
4947	0	32888	32768	
4948	0	32804	32724	
4949	0	32800	32624	
4950	0	32904	32604	
4951	0	32878	32664	
4952	0	32824	32742	
4953	0	32802	32630	
4954	0	32764	32839	
4955	0	32892	32806	
4956	0	32784	32754	
4957	0	32864	32890	
4958	0	32896	32775	
4959	0	32796	32664	
4960	0	32644	32790	
4961	0	32752	32852	
4962	0	32744	32748	
4963	0	32824	32892	
4964	0	32744	32824	
4965	0	32740	32766	
4966	0	32828	32884	
4967	0	32836	32768	
4968	0	32866	32610	
4969	0	32788	32750	
4970	0	32808	32792	
4971	0	32764	32711	
4972	0	32804	32748	
4973	0	32858	32818	
4974	0	32912	32684	
4975	0	32860	32904	
4976	0	32912	32910	
4977	0	32824	32814	
4978	0	32740	32670	
4979	0	32834	32890	
4980	0	32812	32884	
4981	0	32828	32794	
4982	0	32780	32794	
4983	0	32752	32832	
4984	0	32868	32790	
4985	0	32788	32708	
4986	0	32780	32621	
4987	0	32752	32786	
4988	0	32760	32808	
4989	0	32720	32751	
4990	0	32728	32832	
4991	0	32808	32926	
4992	0	32832	32824	
4993	0	32828	32722	
4994	0	32792	32852	
4995	0	32802	32708	
4996	0	32772	32692	
4997	0	32736	32682	
4998	0	32680	32768	
4999	0	32704	32664	
5000	0	32766	32679	
5001	0	32764	32769	
5002	0	32740	32710	
5003	0	32838	32760	
5004	0	32818	32774	
5005	0	32848	32628	
5006	0	32840	32822	
5007	0	32828	32737	
5008	0	32788	32604	
5009	0	32846	32519	
5010	0	32762	32524	
5011	0	32800	32584	
5012	0	32782	32556	
5013	0	32874	32714	
5014	0	32820	32756	
5015	0	32840	32846	
5016	0	32826	32860	
5017	0	32832	32648	
5018	0	32776	32788	
5019	0	32656	32928	
5020	0	32776	32974	
5021	0	32808	33002	
5022	0	32808	32990	
5023	0	32788	32954	
5024	0	32860	32982	
5025	0	32904	32934	
5026	0	32844	32802	
5027	0	32780	32768	
5028	0	32812	32702	
5029	0	32836	32672	
5030	0	32940	32740	
5031	0	32908	32704	
5032	0	32872	32738	
5033	0	32902	32712	
5034	0	32760	32742	
5035	0	32732	32714	
5036	0	32794	32720	
5037	0	32834	32666	
5038	0	32812	32594	
5039	0	32968	32552	
5040	0	32892	32540	
5041	0	32748	32592	
5042	0	32740	32645	
5043	0	32660	32736	
5044	0	32636	32722	
5045	0	32704	32766	
5046	0	32726	32768	
5047	0	32696	32720	
5048	0	32682	32747	
5049	0	32676	32738	
5050	0	32762	32722	
5051	0	32756	32718	
5052	0	32752	32848	
5053	0	32712	32836	
5054	0	32756	32800	
5055	0	32874	32956	
5056	0	32958	32922	
5057	0	32985	32842	
5058	0	33048	32804	
5059	0	33016	32732	
5060	0	32980	32796	
5061	0	32972	32712	
5062	0	32966	32804	
5063	0	32844	32686	
5064	0	32922	32580	
5065	0	32716	32700	
5066	0	32716	32807	
5067	0	32824	32716	
5068	0	32870	32730	
5069	0	32860	32824	
5070	0	32832	32884	
5071	0	32676	32988	
5072	0	32586	33070	
5073	0	32616	32962	
5074	0	32710	33031	
5075	0	32736	33000	
5076	0	32730	32924	
5077	0	32840	33022	
5078	0	32810	32998	
5079	0	32956	32938	
5080	0	32978	32794	
5081	0	32928	32790	
5082	0	32872	32772	
5083	0	32926	32528	
5084	0	32884	32616	
5085	0	32850	32548	
5086	0	32804	32644	
5087	0	32876	32655	
5088	0	32790	32684	
5089	0	32726	32708	
5090	0	32798	32704	
5091	0	32760	32748	
5092	0	32754	32646	
5093	0	32908	32775	
5094	0	32912	32759	
5095	0	32804	32690	
5096	0	32800	32775	
5097	0	32848	32760	
5098	0	32820	32684	
5099	0	32804	32790	
5100	0	32746	32791	
5101	0	32792	32668	
5102	0	32796	32774	
5103	0	32774	32751	
5104	0	32804	32756	
5105	0	32734	32596	
5106	0	32744	32740	
5107	0	32784	32775	
5108	0	32696	32688	
5109	0	32800	32796	
5110	0	32852	32798	
5111	0	32948	32688	
5112	0	32960	32730	
5113	0	32872	32884	
5114	0	33040	32692	
5115	0	32984	32726	
5116	0	32856	32870	
5117	0	32804	32800	
5118	0	32804	32824	
5119	0	32826	32714	
5120	0	32798	33018	
5121	0	32768	32908	
5122	0	32742	32985	
5123	0	32808	32882	
5124	0	32660	32750	
5125	0	32704	32748	
5126	0	32692	32804	
5127	0	32768	32675	
5128	0	32672	32769	
5129	0	32662	32756	
5130	0	32678	32670	
5131	0	32788	32838	
5132	0	32866	32930	
5133	0	32786	32832	
5134	0	32764	32816	
5135	0	32756	32713	
5136	0	32724	32754	
5137	0	32796	32704	
5138	0	32736	32767	
5139	0	32812	32764	
5140	0	32796	32894	
5141	0	32900	32794	
5142	0	32800	32824	
5143	0	32812	32775	
5144	0	32952	32750	
5145	0	32850	32671	
5146	0	32816	32750	
5147	0	32852	32732	
5148	0	32878	32688	
5149	0	32865	32674	
5150	0	32908	32718	
5151	0	32824	32628	
5152	0	32862	32820	
5153	0	32820	32774	
5154	0	32812	32690	
5155	0	32686	32806	
5156	0	32824	32678	
5157	0	32772	32550	
5158	0	32782	32330	
5159	0	32888	32366	
5160	0	32892	32576	
5161	0	32836	32650	
5162	0	32704	32716	
5163	0	32756	32930	
5164	0	32764	32870	
5165	0	32776	32990	
5166	0	32836	32844	
5167	0	32936	32828	
5168	0	32904	32738	
5169	0	32896	32886	
5170	0	32804	32890	
5171	0	32636	32920	
5172	0	32698	32710	
5173	0	32700	32864	
5174	0	32804	32804	
5175	0	32780	32742	
5176	0	32636	32775	
5177	0	32738	32774	
5178	0	32728	32788	
5179	0	32832	32824	
5180	0	32812	32788	
5181	0	32836	32786	
5182	0	32810	32700	
5183	0	32748	32782	
5184	0	32776	32774	
5185	0	32816	32666	
5186	0	32912	32888	
5187	0	32994	32792	
5188	0	32924	32806	
5189	0	32908	32792	
5190	0	32872	32828	
5191	0	32878	32944	
5192	0	32880	32804	
5193	0	32860	32766	
5194	0	32832	32752	
5195	0	32872	32708	
5196	0	32936	32744	
5197	0	32852	32725	
5198	0	32812	32748	
5199	0	32748	32638	
5200	0	32708	32804	
5201	0	32762	32798	
5202	0	32832	32755	
5203	0	32836	32824	
5204	0	32666	32822	
5205	0	32744	32678	
5206	0	32789	32728	
5207	0	32838	32748	
5208	0	32792	32740	
5209	0	32816	32740	
5210	0	32780	32676	
5211	0	32812	32716	
5212	0	32780	32820	
5213	0	32736	32928	
5214	0	32824	32856	
5215	0	32832	32764	
5216	0	32852	32788	
5217	0	32810	32726	
5218	0	32740	32838	
5219	0	32820	32717	
5220	0	32856	32662	
5221	0	32892	32802	
5222	0	32736	32842	
5223	0	32714	32630	
5224	0	32834	32732	
5225	0	32856	32680	
5226	0	32872	32794	
5227	0	32874	32742	
5228	0	32890	32662	
5229	0	32902	32816	
5230	0	32864	32734	
5231	0	32760	32860	
5232	0	32760	32980	
5233	0	32768	33031	
5234	0	32772	32886	
5235	0	32954	32748	
5236	0	32906	32800	
5237	0	32744	32774	
5238	0	32576	32860	
5239	0	32640	32678	
5240	0	32794	32624	
5241	0	32840	32687	
5242	0	32826	32836	
5243	0	32848	32828	
5244	0	32750	32742	
5245	0	32756	32758	
5246	0	32776	32865	
5247	0	32868	32840	
5248	0	32886	32808	
5249	0	32870	32742	
5250	0	32874	32664	
5251	0	32852	32690	
5252	0	32900	32864	
5253	0	32864	32846	
5254	0	32800	32808	
5255	0	32880	32752	
5256	0	32896	32749	
5257	0	32838	32782	
5258	0	32840	32631	
5259	0	32828	32658	
5260	0	32852	32632	
5261	0	32800	32862	
5262	0	32798	32830	
5263	0	32808	32764	
5264	0	32708	32768	
5265	0	32742	32638	
5266	0	32744	32698	
5267	0	32610	32676	
5268	0	32712	32686	
5269	0	32788	32590	
5270	0	32720	32642	
5271	0	32748	32815	
5272	0	32720	32734	
5273	0	32752	32868	
5274	0	32714	32834	
5275	0	32834	32890	
5276	0	32858	32766	
5277	0	32906	32788	
5278	0	32740	32752	
5279	0	32854	32826	
5280	0	32866	32770	
5281	0	32928	32816	
5282	0	32868	32706	
5283	0	32788	32740	
5284	0	32796	32750	
5285	0	32802	32756	
5286	0	32744	32678	
5287	0	32854	32798	
5288	0	32902	32900	
5289	0	32860	32790	
5290	0	32904	32824	
5291	0	32826	32736	
5292	0	32640	32636	
5293	0	32660	32694	
5294	0	32600	32820	
5295	0	32616	32874	
5296	0	32580	32871	
5297	0	32568	32836	
5298	0	32564	32852	
5299	0	32578	32822	
5300	0	32532	32828	
5301	0	32580	32864	
5302	0	32556	32812	
5303	0	32660	32896	
5304	0	32736	32888	
5305	0	32774	32932	
5306	0	32854	32736	
5307	0	32858	32682	
5308	0	32890	32788	
5309	0	32992	32724	
5310	0	32960	32756	
5311	0	32980	32764	
5312	0	33012	32604	
5313	0	33070	32519	
5314	0	33164	32482	
5315	0	33214	32558	
5316	0	33264	32576	
5317	0	33304	32568	
5318	0	33476	32558	
5319	0	33568	32564	
5320	0	33580	32610	
5321	0	33520	32554	
5322	0	33442	32558	
5323	0	33352	32680	
5324	0	33194	32678	
5325	0	33068	32912	
5326	0	32820	32820	
5327	0	32686	32888	
5328	0	32638	32862	
5329	0	32492	32958	
5330	0	32332	32900	
5331	0	32336	32802	
5332	0	32324	32806	
5333	0	32358	32810	
5334	0	32430	32934	
5335	0	32520	32912	
5336	0	32438	32900	
5337	0	32520	32894	
5338	0	32658	32690	
5339	0	32572	32698	
5340	0	32612	32830	
5341	0	32696	32788	
5342	0	32660	32826	
5343	0	32764	32744	
5344	0	32744	32742	
5345	0	32816	32660	
5346	0	32808	32702	
5347	0	32886	32742	
5348	0	32834	32812	
5349	0	32768	32770	
5350	0	32832	32728	
5351	0	32774	32832	
5352	0	32764	32804	
5353	0	32840	32808	
5354	0	32852	32862	
5355	0	32920	32956	
5356	0	32900	32799	
5357	0	32860	32788	
5358	0	32778	32796	
5359	0	32812	32852	
5360	0	32832	32806	
5361	0	32848	32722	
5362	0	32776	32820	
5363	0	32800	32876	
5364	0	32732	32632	
5365	0	32740	32772	
5366	0	32836	32828	
5367	0	32776	32632	
5368	0	32768	32726	
5369	0	32768	32798	
5370	0	32740	32668	
5371	0	32756	32890	
5372	0	32762	32854	
5373	0	32852	32676	
5374	0	32852	32764	
5375	0	32856	32864	
5376	0	32936	32870	
5377	0	32842	32751	
5378	0	32888	32724	
5379	0	32890	32775	
5380	0	32804	32760	
5381	0	32758	32798	
5382	0	32828	32746	
5383	0	32894	32752	
5384	0	32792	32852	
5385	0	32764	32804	
5386	0	32792	32704	
5387	0	32812	32784	
5388	0	32774	32725	
5389	0	32796	32775	
5390	0	32820	32850	
5391	0	32852	32700	
5392	0	32914	32680	
5393	0	32812	32690	
5394	0	32842	32772	
5395	0	32880	32838	
5396	0	32808	32772	
5397	0	32908	32810	
5398	0	32880	32792	
5399	0	32914	32686	
5400	0	32880	32680	
5401	0	32856	32612	
5402	0	32864	32732	
5403	0	32832	32698	
5404	0	32716	32870	
5405	0	32732	32830	
5406	0	32792	32786	
5407	0	32820	32867	
5408	0	32840	32833	
5409	0	32816	32615	
5410	0	32808	32756	
5411	0	32764	32775	
5412	0	32696	32716	
5413	0	32764	32770	
5414	0	32896	32728	
5415	0	32942	32884	
5416	0	32900	32794	
5417	0	32780	32816	
5418	0	32750	32688	
5419	0	32752	32688	
5420	0	32692	32753	
5421	0	32584	32788	
5422	0	32692	32608	
5423	0	32776	32648	
5424	0	32850	32782	
5425	0	32864	32810	
5426	0	32932	32775	
5427	0	32840	32740	
5428	0	32830	32830	
5429	0	32944	32790	
5430	0	32968	32748	
5431	0	32860	32862	
5432	0	32816	32710	
5433	0	32810	32846	
5434	0	32674	32892	
5435	0	32634	32652	
5436	0	32708	32698	
5437	0	32744	32730	
5438	0	32788	32790	
5439	0	32756	32906	
5440	0	32806	32718	
5441	0	32846	32768	
5442	0	32814	32858	
5443	0	32848	32734	
5444	0	32856	32830	
5445	0	32828	32772	
5446	0	32944	32744	
5447	0	32854	32790	
5448	0	32888	32694	
5449	0	32904	32800	
5450	0	32856	32684	
5451	0	32834	32730	
5452	0	32828	32790	
5453	0	32860	32762	
5454	0	32884	32814	
5455	0	32766	32816	
5456	0	32794	32743	
5457	0	32824	32732	
5458	0	32760	32682	
5459	0	32808	32848	
5460	0	32808	32720	
5461	0	32854	32690	
5462	0	32786	32732	
5463	0	32744	32714	
5464	0	32820	32816	
5465	0	32828	32734	
5466	0	32832	32688	
5467	0	32828	32870	
5468	0	32732	32766	
5469	0	32792	32730	
5470	0	32886	32820	
5471	0	32816	32804	
5472	0	32788	32880	
5473	0	32812	32775	
5474	0	32784	32760	
5475	0	32760	32832	
5476	0	32826	32786	
5477	0	32784	32759	
5478	0	32778	32882	
5479	0	32778	32774	
5480	0	32766	32614	
5481	0	32800	32775	
5482	0	32800	32788	
5483	0	32852	32806	
5484	0	32828	32790	
5485	0	32810	32794	
5486	0	32800	32842	
5487	0	32774	32820	
5488	0	32824	32814	
5489	0	32788	32718	
5490	0	32832	32830	
5491	0	32756	32868	
5492	0	32792	32740	
5493	0	32804	32856	
5494	0	32806	32766	
5495	0	32806	32810	
5496	0	32868	32770	
5497	0	32778	32752	
5498	0	32792	32704	
5499	0	32856	32758	
5500	0	32744	32804	
5501	0	32794	32796	
5502	0	32814	32772	
5503	0	32756	32732	
5504	0	32804	32812	
5505	0	32804	32680	
5506	0	32836	32622	
5507	0	32840	32753	
5508	0	32848	32816	
5509	0	32860	32680	
5510	0	32832	32768	
5511	0	32868	32802	
5512	0	32832	32743	
5513	0	32860	32746	
5514	0	32788	32804	
5515	0	32808	32860	
5516	0	32784	32753	
5517	0	32800	32696	
5518	0	32746	32828	
5519	0	32724	32782	
5520	0	32822	32768	
5521	0	32784	32756	
5522	0	32832	32663	
5523	0	32860	32775	
5524	0	32800	32750	
5525	0	32872	32820	
5526	0	32760	32775	
5527	0	32888	32714	
5528	0	32792	32775	
5529	0	32774	32775	
5530	0	32802	32742	
5531	0	32766	32844	
5532	0	32816	32864	
5533	0	32824	32898	
5534	0	32922	32820	
5535	0	32876	32824	
5536	0	32952	32740	
5537	0	33012	32806	
5538	0	32936	32796	
5539	0	32808	32736	
5540	0	32624	32844	
5541	0	32740	32760	
5542	0	32788	32774	
5543	0	32644	32657	
5544	0	32732	32816	
5545	0	32776	32775	
5546	0	32774	32660	
5547	0	32868	32766	
5548	0	32960	32716	
5549	0	32924	32800	
5550	0	32988	32786	
5551	0	32842	32798	
5552	0	32836	32860	
5553	0	32866	32736	
5554	0	32774	32770	
5555	0	32784	32830	
5556	0	32778	32668	
5557	0	32796	32742	
5558	0	32750	32792	
5559	0	32812	32710	
5560	0	32856	32750	
5561	0	32792	32756	
5562	0	32764	32678	
5563	0	32744	32806	
5564	0	32880	32742	
5565	0	32904	32740	
5566	0	32842	32738	
5567	0	32908	32664	
5568	0	32885	32820	
5569	0	32860	32840	
5570	0	32852	32682	
5571	0	32904	32696	
5572	0	32842	32675	
5573	0	32878	32734	
5574	0	32774	32846	
5575	0	32800	32704	
5576	0	32840	32704	
5577	0	32808	32794	
5578	0	32920	32884	
5579	0	32900	32758	
5580	0	32834	32824	
5581	0	32764	32800	
5582	0	32592	32774	
5583	0	32568	32743	
5584	0	32608	32774	
5585	0	32608	32604	
5586	0	32740	32788	
5587	0	32768	32668	
5588	0	32784	32687	
5589	0	32824	32724	
5590	0	32768	32742	
5591	0	32736	32711	
5592	0	32852	32792	
5593	0	32896	32856	
5594	0	32910	32768	
5595	0	32844	32886	
5596	0	32874	32784	
5597	0	32830	32728	
5598	0	32768	32908	
5599	0	32774	32788	
5600	0	32780	32720	
5601	0	32732	32814	
5602	0	32820	32804	
5603	0	32764	32680	
5604	0	32852	32782	
5605	0	32808	32628	
5606	0	32814	32824	
5607	0	32800	32754	
5608	0	32820	32688	
5609	0	32762	32764	
5610	0	32792	32772	
5611	0	32816	32898	
5612	0	32842	32836	
5613	0	32780	32678	
5614	0	32832	32816	
5615	0	32828	32840	
5616	0	32820	32698	
5617	0	32822	32788	
5618	0	32786	32850	
5619	0	32828	32744	
5620	0	32756	32823	
5621	0	32776	32824	
5622	0	32700	32662	
5623	0	32738	32746	
5624	0	32760	32724	
5625	0	32848	32728	
5626	0	32876	32775	
5627	0	32808	32686	
5628	0	32816	32824	
5629	0	32880	32798	
5630	0	32832	32748	
5631	0	32748	32772	
5632	0	32824	32804	
5633	0	32724	32676	
5634	0	32854	32792	
5635	0	32760	32828	
5636	0	32892	32792	
5637	0	32910	32758	
5638	0	32778	32816	
5639	0	32804	32750	
5640	0	32860	32668	
5641	0	32840	32684	
5642	0	32850	32802	
5643	0	32784	32746	
5644	0	32820	32748	
5645	0	32788	32725	
5646	0	32758	32678	
5647	0	32740	32680	
5648	0	32728	32792	
5649	0	32860	32836	
5650	0	32908	32738	
5651	0	32874	32841	
5652	0	32846	32840	
5653	0	32788	32758	
5654	0	32836	32706	
5655	0	32860	32822	
5656	0	32796	32822	
5657	0	32846	32814	
5658	0	32752	32775	
5659	0	32814	32788	
5660	0	32744	32775	
5661	0	32768	32682	
5662	0	32820	32711	
5663	0	32706	32804	
5664	0	32816	32728	
5665	0	32872	32772	
5666	0	32912	32668	
5667	0	32872	32798	
5668	0	32912	32820	
5669	0	32912	32702	
5670	0	32872	32840	
5671	0	32812	32792	
5672	0	32806	32795	
5673	0	32762	32808	
5674	0	32736	32726	
5675	0	32712	32626	
5676	0	32662	32652	
5677	0	32720	32808	
5678	0	32832	32758	
5679	0	32780	32832	
5680	0	32878	32838	
5681	0	32782	32718	
5682	0	32812	32836	
5683	0	32832	32868	
5684	0	32832	32696	
5685	0	32894	32865	
5686	0	32848	32827	
5687	0	32820	32734	
5688	0	32796	32596	
5689	0	32784	32752	
5690	0	32808	32828	
5691	0	32884	32648	
5692	0	32820	32744	
5693	0	32824	32786	
5694	0	32820	32742	
5695	0	32816	32756	
5696	0	32776	32660	
5697	0	32780	32686	
5698	0	32774	32634	
5699	0	32864	32806	
5700	0	32874	32832	
5701	0	32874	32775	
5702	0	32876	32768	
5703	0	32828	32863	
5704	0	32720	32807	
5705	0	32802	32692	
5706	0	32858	32770	
5707	0	32826	32804	
5708	0	32836	32756	
5709	0	32774	32796	
5710	0	32764	32692	
5711	0	32742	32786	
5712	0	32762	32724	
5713	0	32740	32820	
5714	0	32730	32884	
5715	0	32892	32736	
5716	0	32924	32820	
5717	0	32804	32822	
5718	0	32856	32692	
5719	0	32752	32752	
5720	0	32824	32846	
5721	0	32770	32804	
5722	0	32696	32702	
5723	0	32790	32746	
5724	0	32808	32750	
5725	0	32836	32614	
5726	0	32924	32775	
5727	0	32936	32784	
5728	0	32860	32638	
5729	0	32828	32756	
5730	0	32788	32734	
5731	0	32748	32804	
5732	0	32712	32722	
5733	0	32732	32902	
5734	0	32738	32742	
5735	0	32772	32758	
5736	0	32776	32802	
5737	0	32778	32688	
5738	0	32824	32798	
5739	0	32832	32680	
5740	0	32756	32806	
5741	0	32856	32775	
5742	0	32856	32642	
5743	0	32804	32828	
5744	0	32772	32886	
5745	0	32824	32792	
5746	0	32868	32896	
5747	0	32828	32804	
5748	0	32824	32807	
5749	0	32912	32760	
5750	0	32848	32790	
5751	0	32844	32758	
5752	0	32828	32784	
5753	0	32792	32828	
5754	0	32760	32802	
5755	0	32744	32718	
5756	0	32714	32792	
5757	0	32752	32775	
5758	0	32737	32838	
5759	0	32816	32788	
5760	0	32788	32706	
5761	0	32668	32750	
5762	0	32772	32830	
5763	0	32808	32678	
5764	0	32868	32878	
5765	0	32928	32832	
5766	0	32916	32764	
5767	0	32964	32886	
5768	0	32860	32812	
5769	0	32864	32748	
5770	0	32880	32764	
5771	0	33054	32682	
5772	0	32904	32808	
5773	0	32752	32784	
5774	0	32772	32644	
5775	0	32700	32768	
5776	0	32710	32822	
5777	0	32760	32874	
5778	0	32760	32796	
5779	0	32792	32759	
5780	0	32816	32734	
5781	0	32672	32750	
5782	0	32644	32538	
5783	0	32660	32726	
5784	0	32720	32768	
5785	0	32778	32690	
5786	0	32858	32752	
5787	0	32821	32801	
5788	0	32858	32716	
5789	0	32878	32820	
5790	0	32884	32764	
5791	0	32824	32775	
5792	0	32868	32870	
5793	0	32794	32772	
5794	0	32776	32796	
5795	0	32768	32790	
5796	0	32780	32866	
5797	0	32812	32748	
5798	0	32812	32680	
5799	0	32844	32790	
5800	0	32818	32696	
5801	0	32726	32856	
5802	0	32814	32775	
5803	0	32878	32696	
5804	0	32912	32766	
5805	0	32840	32684	
5806	0	32808	32764	
5807	0	32816	32828	
5808	0	32832	32668	
5809	0	32820	32807	
5810	0	32788	32775	
5811	0	32828	32820	
5812	0	32900	32792	
5813	0	32896	32710	
5814	0	32868	32727	
5815	0	32840	32860	
5816	0	32810	32732	
5817	0	32776	32826	
5818	0	32806	32765	
5819	0	32880	32874	
5820	0	32758	32784	
5821	0	32736	32702	
5822	0	32798	32888	
5823	0	32872	32740	
5824	0	32860	32775	
5825	0	32872	32800	
5826	0	32768	32790	
5827	0	32740	32708	
5828	0	32856	32810	
5829	0	32824	32746	
5830	0	32810	32712	
5831	0	32828	32722	
5832	0	32830	32820	
5833	0	32812	32690	
5834	0	32814	32792	
5835	0	32774	32871	
5836	0	32732	32764	
5837	0	32736	32805	
5838	0	32792	32720	
5839	0	32772	32926	
5840	0	32864	32832	
5841	0	32816	32692	
5842	0	32810	32840	
5843	0	32808	32752	
5844	0	32844	32745	
5845	0	32826	32744	
5846	0	32808	32780	
5847	0	32816	32784	
5848	0	32840	32880	
5849	0	32752	32692	
5850	0	32818	32754	
5851	0	32802	32720	
5852	0	32838	32822	
5853	0	32784	32772	
5854	0	32800	32740	
5855	0	32844	32804	
5856	0	32884	32808	
5857	0	32794	32756	
5858	0	32780	32761	
5859	0	32748	32756	
5860	0	32756	32708	
5861	0	32780	32768	
5862	0	32858	32689	
5863	0	32888	32856	
5864	0	32864	32860	
5865	0	32892	32788	
5866	0	32900	32754	
5867	0	32782	32702	
5868	0	32752	32678	
5869	0	32764	32878	
5870	0	32688	32708	
5871	0	32692	32727	
5872	0	32744	32778	
5873	0	32740	32710	
5874	0	32796	32814	
5875	0	32798	32874	
5876	0	32750	32676	
5877	0	32780	32766	
5878	0	32806	32800	
5879	0	32876	32726	
5880	0	32904	32768	
5881	0	32802	32844	
5882	0	32792	32646	
5883	0	32760	32846	
5884	0	32756	32832	
5885	0	32780	32802	
5886	0	32784	32730	
5887	0	32792	32828	
5888	0	32788	32820	
5889	0	32810	32638	
5890	0	32804	32764	
5891	0	32804	32770	
5892	0	32810	32812	
5893	0	32884	32736	
5894	0	32804	32770	
5895	0	32796	32716	
5896	0	32884	32734	
5897	0	32776	32792	
5898	0	32874	32870	
5899	0	32932	32788	
5900	0	32840	32752	
5901	0	32804	32778	
5902	0	32770	32792	
5903	0	32792	32714	
5904	0	32812	32684	
5905	0	32834	32704	
5906	0	32812	32748	
5907	0	32790	32768	
5908	0	32814	32810	
5909	0	32854	32840	
5910	0	32846	32808	
5911	0	32852	32868	
5912	0	32778	32768	
5913	0	32832	32796	
5914	0	32830	32834	
5915	0	32798	32798	
5916	0	32802	32762	
5917	0	32848	32775	
5918	0	32808	32894	
5919	0	32856	32660	
5920	0	32792	32714	
5921	0	32788	32736	
5922	0	32870	32766	
5923	0	32728	32696	
5924	0	32788	32832	
5925	0	32816	32884	
5926	0	32814	32900	
5927	0	32788	32752	
5928	0	32842	32881	
5929	0	32912	32790	
5930	0	32866	32854	
5931	0	32846	32718	
5932	0	32766	32774	
5933	0	32778	32718	
5934	0	32792	32794	
5935	0	32788	32844	
5936	0	32808	32800	
5937	0	32752	32774	
5938	0	32782	32734	
5939	0	32784	32616	
5940	0	32748	32682	
5941	0	32864	32647	
5942	0	32854	32744	
5943	0	32808	32806	
5944	0	32846	32774	
5945	0	32828	32692	
5946	0	32732	32890	
5947	0	32862	32722	
5948	0	32792	32816	
5949	0	32830	32838	
5950	0	32762	32842	
5951	0	32828	32780	
5952	0	32812	32775	
5953	0	32854	32740	
5954	0	32810	32710	
5955	0	32816	32784	
5956	0	32800	32768	
5957	0	32796	32775	
5958	0	32744	32800	
5959	0	32780	32738	
5960	0	32784	32696	
5961	0	32792	32766	
5962	0	32876	32820	
5963	0	32812	32804	
5964	0	32868	32772	
5965	0	32846	32896	
5966	0	32826	32724	
5967	0	32792	32682	
5968	0	32822	32703	
5969	0	32785	32674	
5970	0	32764	32718	
5971	0	32824	32824	
5972	0	32778	32762	
5973	0	32836	32807	
5974	0	32830	32796	
5975	0	32764	32828	
5976	0	32776	32687	
5977	0	32776	32680	
5978	0	32804	32846	
5979	0	32768	32804	
5980	0	32752	32804	
5981	0	32816	32868	
5982	0	32824	32746	
5983	0	32792	32682	
5984	0	32908	32641	
5985	0	32870	32732	
5986	0	32850	32775	
5987	0	32804	32590	
5988	0	32796	32786	
5989	0	32804	32890	
5990	0	32704	32775	
5991	0	32840	32824	
5992	0	32860	32822	
5993	0	32864	32860	
5994	0	32818	32815	
5995	0	32836	32750	
5996	0	32864	32775	
5997	0	32782	32828	
5998	0	32862	32716	
5999	0	32868	32791	
6000	0	32812	32752	
6001	0	32744	32662	
6002	0	32702	32718	
6003	0	32608	32743	
6004	0	32580	32746	
6005	0	32584	32682	
6006	0	32730	32868	
6007	0	32824	32742	
6008	0	32758	32636	
6009	0	32844	32756	
6010	0	32892	32775	
6011	0	32908	32775	
6012	0	32862	32849	
