# OpenSignals Text File Format. Version 1
# {"00:07:80:8C:0A:39": {"position": 0, "device": "biosignalsplux", "device name": "00:07:80:8C:0A:39", "device connection": "BTH00:07:80:8C:0A:39", "sampling rate": 1000, "resolution": [16, 16], "firmware version": 776, "comments": "", "keywords": "", "mode": 0, "sync interval": 2, "date": "2023-3-20", "time": "10:3:40.120", "channels": [1, 2], "sensor": ["EMG", "EMG"], "label": ["CH1", "CH2"], "column": ["nSeq", "DI", "CH1", "CH2"], "special": [{"SpO2": [80, 40, 5, 4, 3, 3]}, {"SpO2": [80, 40, 5, 4, 3, 3]}, {"SpO2": [80, 40, 5, 4, 3, 3]}, {"SpO2": [80, 40, 5, 4, 3, 3]}, {"SpO2": [80, 40, 5, 4, 3, 3]}, {"SpO2": [80, 40, 5, 4, 3, 3]}, {"SpO2": [80, 40, 5, 4, 3, 3]}, {"SpO2": [80, 40, 5, 4, 3, 3]}], "digital IO": [0, 1], "sleeve color": ["gray", "yellow"], "convertedValues": 0}}
# EndOfHeader
0	0	32780	32693	
1	0	32770	32732	
2	0	32812	32750	
3	0	32844	32644	
4	0	32820	32670	
5	0	32814	32632	
6	0	32850	32678	
7	0	32816	32695	
8	0	32792	32758	
9	0	32798	32720	
10	0	32806	32788	
11	0	32800	32862	
12	0	32828	32775	
13	0	32824	32812	
14	0	32728	32744	
15	0	32784	32820	
16	0	32848	32768	
17	0	32778	32730	
18	0	32837	32844	
19	0	32832	32804	
20	0	32784	32662	
21	0	32884	32690	
22	0	32846	32754	
23	0	32832	32730	
24	0	32804	32804	
25	0	32836	32868	
26	0	32818	32775	
27	0	32866	32789	
28	0	32868	32786	
29	0	32832	32788	
30	0	32754	32760	
31	0	32852	32772	
32	0	32848	32774	
33	0	32752	32756	
34	0	32728	32712	
35	0	32800	32772	
36	0	32788	32799	
37	0	32798	32870	
38	0	32844	32775	
39	0	32756	32823	
40	0	32728	32852	
41	0	32800	32870	
42	0	32786	32796	
43	0	32840	32848	
44	0	32868	32686	
45	0	32796	32731	
46	0	32844	32644	
47	0	32828	32822	
48	0	32784	32886	
49	0	32808	32732	
50	0	32822	32794	
51	0	32836	32806	
52	0	32808	32772	
53	0	32748	32772	
54	0	32836	32748	
55	0	32788	32730	
56	0	32788	32770	
57	0	32816	32804	
58	0	32784	32768	
59	0	32760	32796	
60	0	32828	32844	
61	0	32844	32650	
62	0	32838	32734	
63	0	32780	32647	
64	0	32824	32718	
65	0	32804	32772	
66	0	32820	32812	
67	0	32780	32886	
68	0	32806	32768	
69	0	32772	32814	
70	0	32740	32744	
71	0	32758	32764	
72	0	32864	32775	
73	0	32800	32768	
74	0	32796	32843	
75	0	32762	32802	
76	0	32849	32831	
77	0	32832	32758	
78	0	32772	32734	
79	0	32822	32668	
80	0	32808	32666	
81	0	32892	32719	
82	0	32824	32702	
83	0	32780	32900	
84	0	32812	32790	
85	0	32860	32732	
86	0	32736	32740	
87	0	32788	32828	
88	0	32772	32736	
89	0	32820	32726	
90	0	32780	32674	
91	0	32850	32794	
92	0	32872	32806	
93	0	32846	32792	
94	0	32764	32708	
95	0	32798	32743	
96	0	32800	32838	
97	0	32760	32860	
98	0	32836	32684	
99	0	32816	32752	
100	0	32864	32694	
101	0	32860	32722	
102	0	32794	32775	
103	0	32808	32838	
104	0	32780	32802	
105	0	32804	32799	
106	0	32804	32796	
107	0	32760	32672	
108	0	32810	32734	
109	0	32792	32794	
110	0	32808	32852	
111	0	32892	32848	
112	0	32756	32820	
113	0	32812	32839	
114	0	32848	32710	
115	0	32792	32718	
116	0	32856	32694	
117	0	32790	32671	
118	0	32832	32737	
119	0	32814	32792	
120	0	32796	32830	
121	0	32783	32775	
122	0	32860	32802	
123	0	32884	32864	
124	0	32884	32768	
125	0	32836	32775	
126	0	32846	32679	
127	0	32832	32798	
128	0	32804	32740	
129	0	32780	32753	
130	0	32780	32842	
131	0	32788	32809	
132	0	32732	32719	
133	0	32806	32745	
134	0	32844	32775	
135	0	32786	32834	
136	0	32792	32750	
137	0	32824	32676	
138	0	32850	32721	
139	0	32752	32708	
140	0	32868	32823	
141	0	32862	32851	
142	0	32866	32820	
143	0	32806	32700	
144	0	32822	32768	
145	0	32842	32775	
146	0	32778	32800	
147	0	32800	32799	
148	0	32832	32775	
149	0	32730	32751	
150	0	32806	32706	
151	0	32926	32632	
152	0	32864	32752	
153	0	32812	32775	
154	0	32804	32766	
155	0	32700	32870	
156	0	32824	32736	
157	0	32834	32730	
158	0	32781	32810	
159	0	32808	32852	
160	0	32818	32775	
161	0	32788	32697	
162	0	32840	32678	
163	0	32800	32654	
164	0	32816	32746	
165	0	32818	32804	
166	0	32754	32868	
167	0	32812	32860	
168	0	32858	32762	
169	0	32824	32740	
170	0	32832	32754	
171	0	32744	32738	
172	0	32804	32758	
173	0	32812	32758	
174	0	32782	32802	
175	0	32782	32775	
176	0	32818	32823	
177	0	32856	32788	
178	0	32876	32802	
179	0	32772	32816	
180	0	32772	32874	
181	0	32796	32804	
182	0	32908	32736	
183	0	32816	32684	
184	0	32900	32752	
185	0	32868	32736	
186	0	32788	32738	
187	0	32802	32742	
188	0	32806	32750	
189	0	32764	32775	
190	0	32756	32796	
191	0	32756	32775	
192	0	32764	32758	
193	0	32850	32807	
194	0	32808	32800	
195	0	32804	32790	
196	0	32804	32864	
197	0	32820	32703	
198	0	32796	32686	
199	0	32802	32767	
200	0	32820	32824	
201	0	32798	32739	
202	0	32836	32743	
203	0	32808	32734	
204	0	32832	32831	
205	0	32778	32744	
206	0	32846	32879	
207	0	32828	32820	
208	0	32836	32816	
209	0	32810	32834	
210	0	32800	32849	
211	0	32760	32810	
212	0	32804	32772	
213	0	32790	32796	
214	0	32834	32736	
215	0	32820	32802	
216	0	32860	32710	
217	0	32804	32736	
218	0	32808	32796	
219	0	32796	32734	
220	0	32844	32708	
221	0	32836	32664	
222	0	32794	32751	
223	0	32820	32714	
224	0	32838	32702	
225	0	32836	32712	
226	0	32800	32719	
227	0	32804	32759	
228	0	32760	32788	
229	0	32772	32738	
230	0	32872	32792	
231	0	32756	32852	
232	0	32816	32836	
233	0	32808	32862	
234	0	32808	32775	
235	0	32794	32775	
236	0	32768	32767	
237	0	32838	32718	
238	0	32846	32804	
239	0	32772	32775	
240	0	32816	32888	
241	0	32784	32814	
242	0	32758	32708	
243	0	32780	32800	
244	0	32816	32696	
245	0	32786	32844	
246	0	32782	32804	
247	0	32836	32788	
248	0	32834	32758	
249	0	32836	32767	
250	0	32812	32846	
251	0	32846	32700	
252	0	32782	32746	
253	0	32788	32706	
254	0	32812	32762	
255	0	32844	32652	
256	0	32856	32775	
257	0	32810	32703	
258	0	32820	32680	
259	0	32804	32783	
260	0	32848	32808	
261	0	32790	32806	
262	0	32784	32816	
263	0	32828	32812	
264	0	32816	32834	
265	0	32768	32790	
266	0	32834	32798	
267	0	32784	32748	
268	0	32754	32680	
269	0	32780	32728	
270	0	32804	32687	
271	0	32828	32806	
272	0	32866	32766	
273	0	32794	32830	
274	0	32830	32904	
275	0	32782	32804	
276	0	32820	32806	
277	0	32836	32794	
278	0	32798	32748	
279	0	32844	32725	
280	0	32836	32772	
281	0	32790	32800	
282	0	32800	32792	
283	0	32840	32850	
284	0	32852	32792	
285	0	32784	32732	
286	0	32778	32745	
287	0	32852	32656	
288	0	32832	32730	
289	0	32744	32719	
290	0	32812	32727	
291	0	32802	32631	
292	0	32800	32764	
293	0	32834	32766	
294	0	32768	32792	
295	0	32804	32724	
296	0	32812	32822	
297	0	32844	32767	
298	0	32842	32775	
299	0	32804	32710	
300	0	32844	32700	
301	0	32738	32760	
302	0	32788	32838	
303	0	32788	32810	
304	0	32796	32838	
305	0	32728	32808	
306	0	32804	32724	
307	0	32796	32726	
308	0	32752	32758	
309	0	32792	32756	
310	0	32806	32732	
311	0	32808	32694	
312	0	32884	32718	
313	0	32936	32660	
314	0	32988	32612	
315	0	32928	32598	
316	0	32974	32546	
317	0	32946	32540	
318	0	32964	32602	
319	0	32990	32650	
320	0	32932	32657	
321	0	32932	32752	
322	0	32884	32708	
323	0	32876	32626	
324	0	32814	32652	
325	0	32976	32734	
326	0	32904	32775	
327	0	32900	32775	
328	0	32898	32826	
329	0	32804	32754	
330	0	32720	32858	
331	0	32760	32874	
332	0	32660	32900	
333	0	32632	32794	
334	0	32612	32868	
335	0	32560	33031	
336	0	32522	33089	
337	0	32554	33156	
338	0	32440	33182	
339	0	32414	33098	
340	0	32554	33056	
341	0	32588	33028	
342	0	32648	32959	
343	0	32672	32986	
344	0	32708	32920	
345	0	32752	32775	
346	0	32844	32888	
347	0	32832	32775	
348	0	32808	32620	
349	0	32908	32559	
350	0	32909	32636	
351	0	32948	32604	
352	0	32900	32620	
353	0	32920	32591	
354	0	32990	32647	
355	0	32928	32673	
356	0	32992	32775	
357	0	32954	32770	
358	0	32908	32742	
359	0	32888	32703	
360	0	32892	32736	
361	0	32904	32670	
362	0	32896	32772	
363	0	32834	32663	
364	0	32866	32682	
365	0	32828	32654	
366	0	32788	32679	
367	0	32784	32696	
368	0	32824	32738	
369	0	32804	32671	
370	0	32792	32663	
371	0	32836	32676	
372	0	32782	32774	
373	0	32868	32852	
374	0	32725	32878	
375	0	32754	32762	
376	0	32813	32790	
377	0	32772	32798	
378	0	32850	32754	
379	0	32780	32775	
380	0	32836	32764	
381	0	32860	32775	
382	0	32796	32710	
383	0	32817	32756	
384	0	32834	32816	
385	0	32824	32808	
386	0	32824	32844	
387	0	32820	32844	
388	0	32834	32824	
389	0	32760	32815	
390	0	32728	32886	
391	0	32832	32694	
392	0	32813	32703	
393	0	32816	32764	
394	0	32780	32740	
395	0	32824	32666	
396	0	32804	32748	
397	0	32760	32812	
398	0	32844	32750	
399	0	32840	32708	
400	0	32796	32740	
401	0	32896	32732	
402	0	32828	32727	
403	0	32806	32730	
404	0	32830	32804	
405	0	32804	32826	
406	0	32712	32830	
407	0	32788	32840	
408	0	32828	32874	
409	0	32864	32730	
410	0	32834	32830	
411	0	32816	32879	
412	0	32736	32836	
413	0	32826	32828	
414	0	32828	32839	
415	0	32800	32806	
416	0	32868	32756	
417	0	32792	32788	
418	0	32784	32753	
419	0	32828	32770	
420	0	32794	32807	
421	0	32872	32742	
422	0	32850	32754	
423	0	32758	32775	
424	0	32832	32804	
425	0	32784	32744	
426	0	32764	32834	
427	0	32872	32816	
428	0	32830	32730	
429	0	32798	32782	
430	0	32834	32842	
431	0	32796	32856	
432	0	32764	32775	
433	0	32824	32835	
434	0	32900	32838	
435	0	32868	32774	
436	0	32806	32736	
437	0	32820	32817	
438	0	32828	32756	
439	0	32762	32775	
440	0	32820	32742	
441	0	32788	32710	
442	0	32860	32850	
443	0	32792	32724	
444	0	32824	32807	
445	0	32768	32754	
446	0	32786	32887	
447	0	32772	32798	
448	0	32816	32796	
449	0	32864	32784	
450	0	32784	32775	
451	0	32801	32813	
452	0	32808	32820	
453	0	32824	32775	
454	0	32804	32820	
455	0	32820	32810	
456	0	32836	32742	
457	0	32816	32740	
458	0	32828	32691	
459	0	32824	32714	
460	0	32800	32798	
461	0	32788	32812	
462	0	32776	32826	
463	0	32900	32846	
464	0	32796	32808	
465	0	32804	32750	
466	0	32796	32821	
467	0	32792	32831	
468	0	32800	32680	
469	0	32871	32788	
470	0	32808	32686	
471	0	32768	32670	
472	0	32798	32718	
473	0	32792	32637	
474	0	32824	32753	
475	0	32820	32759	
476	0	32842	32808	
477	0	32760	32836	
478	0	32740	32967	
479	0	32836	32767	
480	0	32838	32690	
481	0	32832	32775	
482	0	32784	32878	
483	0	32832	32810	
484	0	32844	32770	
485	0	32808	32708	
486	0	32820	32702	
487	0	32772	32742	
488	0	32814	32734	
489	0	32876	32785	
490	0	32844	32798	
491	0	32816	32812	
492	0	32826	32758	
493	0	32796	32728	
494	0	32856	32714	
495	0	32782	32828	
496	0	32782	32728	
497	0	32776	32671	
498	0	32836	32698	
499	0	32828	32688	
500	0	32796	32810	
501	0	32830	32819	
502	0	32802	32820	
503	0	32784	32794	
504	0	32884	32775	
505	0	32832	32790	
506	0	32804	32784	
507	0	32780	32798	
508	0	32792	32726	
509	0	32820	32708	
510	0	32760	32711	
511	0	32832	32676	
512	0	32756	32727	
513	0	32840	32870	
514	0	32776	32770	
515	0	32750	32838	
516	0	32904	32836	
517	0	32834	32724	
518	0	32754	32814	
519	0	32916	32728	
520	0	32808	32810	
521	0	32824	32775	
522	0	32774	32615	
523	0	32804	32807	
524	0	32898	32847	
525	0	32828	32838	
526	0	32820	32774	
527	0	32808	32751	
528	0	32784	32774	
529	0	32872	32812	
530	0	32804	32657	
531	0	32768	32660	
532	0	32820	32772	
533	0	32852	32766	
534	0	32852	32860	
535	0	32814	32856	
536	0	32776	32718	
537	0	32798	32775	
538	0	32782	32802	
539	0	32794	32736	
540	0	32812	32810	
541	0	32878	32870	
542	0	32882	32774	
543	0	32822	32734	
544	0	32802	32676	
545	0	32806	32775	
546	0	32778	32775	
547	0	32836	32743	
548	0	32816	32775	
549	0	32774	32794	
550	0	32856	32846	
551	0	32830	32770	
552	0	32804	32732	
553	0	32840	32698	
554	0	32772	32702	
555	0	32756	32746	
556	0	32836	32751	
557	0	32836	32812	
558	0	32812	32852	
559	0	32856	32795	
560	0	32744	32772	
561	0	32808	32793	
562	0	32894	32838	
563	0	32816	32663	
564	0	32844	32681	
565	0	32746	32724	
566	0	32800	32838	
567	0	32756	32876	
568	0	32808	32798	
569	0	32784	32722	
570	0	32828	32706	
571	0	32812	32754	
572	0	32802	32810	
573	0	32828	32867	
574	0	32756	32846	
575	0	32788	32832	
576	0	32754	32734	
577	0	32804	32821	
578	0	32766	32775	
579	0	32848	32679	
580	0	32800	32647	
581	0	32766	32736	
582	0	32812	32718	
583	0	32798	32694	
584	0	32836	32660	
585	0	32782	32720	
586	0	32774	32764	
587	0	32784	32736	
588	0	32852	32794	
589	0	32800	32806	
590	0	32782	32847	
591	0	32809	32772	
592	0	32780	32836	
593	0	32757	32774	
594	0	32820	32836	
595	0	32769	32722	
596	0	32760	32698	
597	0	32820	32680	
598	0	32860	32828	
599	0	32828	32848	
600	0	32828	32814	
601	0	32832	32760	
602	0	32784	32799	
603	0	32772	32743	
604	0	32832	32851	
605	0	32816	32782	
606	0	32776	32788	
607	0	32832	32830	
608	0	32828	32690	
609	0	32852	32775	
610	0	32776	32792	
611	0	32860	32766	
612	0	32820	32698	
613	0	32768	32804	
614	0	32770	32672	
615	0	32828	32702	
616	0	32826	32758	
617	0	32792	32836	
618	0	32874	32814	
619	0	32776	32800	
620	0	32836	32836	
621	0	32892	32696	
622	0	32848	32688	
623	0	32840	32692	
624	0	32846	32758	
625	0	32824	32830	
626	0	32800	32774	
627	0	32762	32748	
628	0	32744	32879	
629	0	32750	32838	
630	0	32802	32674	
631	0	32814	32714	
632	0	32778	32722	
633	0	32768	32683	
634	0	32788	32807	
635	0	32748	32864	
636	0	32752	32732	
637	0	32850	32790	
638	0	32800	32830	
639	0	32832	32804	
640	0	32836	32768	
641	0	32834	32736	
642	0	32722	32677	
643	0	32824	32674	
644	0	32836	32654	
645	0	32780	32748	
646	0	32850	32732	
647	0	32832	32762	
648	0	32830	32775	
649	0	32792	32880	
650	0	32812	32759	
651	0	32832	32702	
652	0	32834	32750	
653	0	32888	32687	
654	0	32838	32771	
655	0	32824	32814	
656	0	32852	32816	
657	0	32856	32834	
658	0	32836	32772	
659	0	32782	32818	
660	0	32810	32839	
661	0	32828	32824	
662	0	32774	32764	
663	0	32772	32716	
664	0	32788	32732	
665	0	32856	32759	
666	0	32800	32768	
667	0	32868	32728	
668	0	32786	32719	
669	0	32842	32678	
670	0	32804	32836	
671	0	32736	32804	
672	0	32800	32742	
673	0	32790	32760	
674	0	32788	32808	
675	0	32816	32704	
676	0	32856	32728	
677	0	32726	32742	
678	0	32850	32818	
679	0	32794	32814	
680	0	32746	32740	
681	0	32824	32746	
682	0	32832	32850	
683	0	32780	32844	
684	0	32884	32711	
685	0	32866	32675	
686	0	32784	32638	
687	0	32828	32752	
688	0	32800	32775	
689	0	32820	32806	
690	0	32818	32736	
691	0	32804	32798	
692	0	32860	32710	
693	0	32784	32718	
694	0	32764	32775	
695	0	32802	32720	
696	0	32780	32715	
697	0	32814	32796	
698	0	32832	32775	
699	0	32792	32840	
700	0	32776	32775	
701	0	32784	32716	
702	0	32784	32750	
703	0	32880	32809	
704	0	32816	32903	
705	0	32820	32775	
706	0	32756	32642	
707	0	32794	32700	
708	0	32740	32738	
709	0	32776	32872	
710	0	32792	32868	
711	0	32852	32796	
712	0	32788	32720	
713	0	32794	32775	
714	0	32830	32748	
715	0	32798	32734	
716	0	32792	32710	
717	0	32824	32742	
718	0	32780	32759	
719	0	32832	32758	
720	0	32838	32775	
721	0	32800	32807	
722	0	32846	32732	
723	0	32822	32695	
724	0	32834	32806	
725	0	32912	32800	
726	0	32822	32775	
727	0	32800	32862	
728	0	32810	32764	
729	0	32852	32793	
730	0	32764	32764	
731	0	32752	32746	
732	0	32812	32872	
733	0	32800	32914	
734	0	32792	32743	
735	0	32775	32696	
736	0	32774	32766	
737	0	32800	32664	
738	0	32816	32676	
739	0	32856	32724	
740	0	32790	32692	
741	0	32824	32686	
742	0	32800	32732	
743	0	32840	32664	
744	0	32782	32703	
745	0	32848	32640	
746	0	32792	32760	
747	0	32772	32698	
748	0	32788	32684	
749	0	32790	32686	
750	0	32860	32738	
751	0	32772	32752	
752	0	32770	32812	
753	0	32820	32802	
754	0	32788	32826	
755	0	32812	32750	
756	0	32820	32786	
757	0	32800	32754	
758	0	32808	32852	
759	0	32868	32711	
760	0	32852	32724	
761	0	32852	32813	
762	0	32856	32826	
763	0	32778	32769	
764	0	32808	32718	
765	0	32794	32828	
766	0	32732	32754	
767	0	32816	32808	
768	0	32820	32796	
769	0	32816	32662	
770	0	32864	32847	
771	0	32800	32775	
772	0	32840	32792	
773	0	32785	32803	
774	0	32860	32807	
775	0	32814	32874	
776	0	32764	32790	
777	0	32766	32800	
778	0	32804	32771	
779	0	32846	32866	
780	0	32746	32871	
781	0	32748	32784	
782	0	32841	32774	
783	0	32774	32756	
784	0	32836	32751	
785	0	32809	32748	
786	0	32812	32616	
787	0	32852	32711	
788	0	32821	32740	
789	0	32788	32772	
790	0	32810	32823	
791	0	32854	32782	
792	0	32792	32775	
793	0	32768	32764	
794	0	32774	32726	
795	0	32848	32812	
796	0	32768	32865	
797	0	32800	32791	
798	0	32804	32660	
799	0	32842	32712	
800	0	32900	32836	
801	0	32832	32850	
802	0	32824	32848	
803	0	32808	32806	
804	0	32834	32758	
805	0	32780	32807	
806	0	32842	32746	
807	0	32860	32796	
808	0	32844	32784	
809	0	32856	32718	
810	0	32780	32852	
811	0	32834	32830	
812	0	32804	32868	
813	0	32824	32844	
814	0	32806	32789	
815	0	32808	32808	
816	0	32809	32710	
817	0	32828	32768	
818	0	32784	32758	
819	0	32800	32836	
820	0	32808	32728	
821	0	32788	32878	
822	0	32768	32802	
823	0	32788	32748	
824	0	32824	32775	
825	0	32851	32792	
826	0	32766	32824	
827	0	32820	32654	
828	0	32780	32728	
829	0	32826	32730	
830	0	32816	32820	
831	0	32774	32748	
832	0	32824	32758	
833	0	32810	32785	
834	0	32812	32870	
835	0	32754	32726	
836	0	32780	32890	
837	0	32792	32638	
838	0	32860	32647	
839	0	32854	32792	
840	0	32816	32838	
841	0	32890	32742	
842	0	32838	32798	
843	0	32804	32775	
844	0	32858	32788	
845	0	32820	32736	
846	0	32786	32868	
847	0	32728	32740	
848	0	32822	32718	
849	0	32824	32680	
850	0	32868	32830	
851	0	32804	32799	
852	0	32806	32746	
853	0	32788	32748	
854	0	32750	32726	
855	0	32834	32734	
856	0	32784	32706	
857	0	32828	32690	
858	0	32840	32726	
859	0	32892	32726	
860	0	32852	32714	
861	0	32818	32697	
862	0	32852	32762	
863	0	32804	32788	
864	0	32816	32770	
865	0	32810	32860	
866	0	32792	32775	
867	0	32796	32748	
868	0	32776	32738	
869	0	32772	32802	
870	0	32788	32804	
871	0	32760	32816	
872	0	32872	32679	
873	0	32868	32764	
874	0	32756	32814	
875	0	32784	32864	
876	0	32800	32766	
877	0	32710	32790	
878	0	32800	32782	
879	0	32837	32744	
880	0	32788	32897	
881	0	32874	32616	
882	0	32764	32775	
883	0	32812	32772	
884	0	32868	32696	
885	0	32808	32698	
886	0	32900	32748	
887	0	32836	32822	
888	0	32772	32816	
889	0	32836	32767	
890	0	32821	32752	
891	0	32876	32740	
892	0	32840	32832	
893	0	32796	32744	
894	0	32758	32806	
895	0	32782	32836	
896	0	32820	32748	
897	0	32826	32743	
898	0	32804	32759	
899	0	32852	32851	
900	0	32808	32796	
901	0	32864	32810	
902	0	32824	32794	
903	0	32832	32670	
904	0	32820	32666	
905	0	32768	32746	
906	0	32780	32839	
907	0	32766	32678	
908	0	32856	32735	
909	0	32784	32746	
910	0	32848	32694	
911	0	32788	32715	
912	0	32864	32795	
913	0	32820	32810	
914	0	32790	32849	
915	0	32808	32838	
916	0	32774	32832	
917	0	32798	32716	
918	0	32790	32746	
919	0	32800	32775	
920	0	32824	32844	
921	0	32804	32844	
922	0	32858	32698	
923	0	32932	32720	
924	0	32830	32702	
925	0	32804	32710	
926	0	32768	32756	
927	0	32788	32804	
928	0	32778	32793	
929	0	32818	32754	
930	0	32812	32798	
931	0	32770	32838	
932	0	32828	32859	
933	0	32754	32863	
934	0	32816	32692	
935	0	32760	32672	
936	0	32846	32735	
937	0	32898	32864	
938	0	32772	32810	
939	0	32826	32815	
940	0	32772	32727	
941	0	32762	32780	
942	0	32798	32862	
943	0	32840	32775	
944	0	32826	32802	
945	0	32788	32711	
946	0	32818	32672	
947	0	32704	32710	
948	0	32802	32671	
949	0	32788	32887	
950	0	32784	32870	
951	0	32824	32704	
952	0	32832	32794	
953	0	32796	32800	
954	0	32776	32742	
955	0	32806	32686	
956	0	32708	32710	
957	0	32888	32760	
958	0	32862	32784	
959	0	32808	32896	
960	0	32844	32799	
961	0	32846	32766	
962	0	32864	32832	
963	0	32810	32876	
964	0	32750	32702	
965	0	32828	32647	
966	0	32864	32698	
967	0	32866	32732	
968	0	32800	32798	
969	0	32780	32775	
970	0	32792	32734	
971	0	32812	32760	
972	0	32796	32842	
973	0	32778	32740	
974	0	32808	32711	
975	0	32786	32750	
976	0	32768	32774	
977	0	32834	32783	
978	0	32904	32788	
979	0	32852	32768	
980	0	32816	32764	
981	0	32780	32730	
982	0	32826	32830	
983	0	32788	32805	
984	0	32852	32647	
985	0	32832	32718	
986	0	32820	32752	
987	0	32802	32740	
988	0	32812	32822	
989	0	32844	32704	
990	0	32804	32743	
991	0	32842	32750	
992	0	32772	32900	
993	0	32744	32738	
994	0	32804	32680	
995	0	32808	32750	
996	0	32844	32746	
997	0	32838	32735	
998	0	32818	32794	
999	0	32772	32742	
1000	0	32856	32763	
1001	0	32780	32834	
1002	0	32852	32788	
1003	0	32792	32903	
1004	0	32838	32706	
1005	0	32896	32670	
1006	0	32822	32772	
1007	0	32842	32852	
1008	0	32836	32772	
1009	0	32824	32838	
1010	0	32816	32772	
1011	0	32824	32822	
1012	0	32770	32836	
1013	0	32888	32730	
1014	0	32758	32646	
1015	0	32748	32696	
1016	0	32784	32775	
1017	0	32842	32726	
1018	0	32848	32674	
1019	0	32792	32710	
1020	0	32876	32684	
1021	0	32768	32763	
1022	0	32837	32688	
1023	0	32846	32748	
1024	0	32832	32764	
1025	0	32868	32831	
1026	0	32860	32794	
1027	0	32868	32726	
1028	0	32812	32675	
1029	0	32798	32820	
1030	0	32726	32768	
1031	0	32776	32730	
1032	0	32776	32800	
1033	0	32748	32866	
1034	0	32840	32743	
1035	0	32868	32834	
1036	0	32782	32649	
1037	0	32760	32806	
1038	0	32824	32810	
1039	0	32824	32852	
1040	0	32888	32825	
1041	0	32870	32775	
1042	0	32944	32718	
1043	0	32815	32642	
1044	0	32790	32700	
1045	0	32868	32720	
1046	0	32830	32662	
1047	0	32794	32708	
1048	0	32816	32694	
1049	0	32752	32706	
1050	0	32832	32772	
1051	0	32756	32752	
1052	0	32786	32814	
1053	0	32804	32734	
1054	0	32788	32708	
1055	0	32788	32772	
1056	0	32746	32854	
1057	0	32826	32874	
1058	0	32798	32784	
1059	0	32824	32736	
1060	0	32782	32752	
1061	0	32778	32832	
1062	0	32808	32702	
1063	0	32832	32820	
1064	0	32832	32852	
1065	0	32770	32852	
1066	0	32766	32688	
1067	0	32848	32800	
1068	0	32820	32646	
1069	0	32784	32644	
1070	0	32894	32640	
1071	0	32922	32580	
1072	0	32936	32632	
1073	0	32968	32686	
1074	0	32988	32676	
1075	0	32936	32638	
1076	0	32992	32592	
1077	0	32980	32664	
1078	0	32986	32752	
1079	0	32880	32647	
1080	0	32896	32591	
1081	0	32862	32658	
1082	0	32952	32724	
1083	0	32940	32764	
1084	0	32800	32774	
1085	0	32912	32802	
1086	0	32844	32775	
1087	0	32876	32836	
1088	0	32744	32828	
1089	0	32740	32872	
1090	0	32644	32948	
1091	0	32572	32960	
1092	0	32625	32959	
1093	0	32556	32912	
1094	0	32588	33022	
1095	0	32510	33159	
1096	0	32448	33272	
1097	0	32423	33164	
1098	0	32500	33152	
1099	0	32540	33125	
1100	0	32644	33024	
1101	0	32704	32918	
1102	0	32682	32800	
1103	0	32756	32730	
1104	0	32792	32876	
1105	0	32804	32724	
1106	0	32856	32636	
1107	0	32908	32706	
1108	0	32806	32694	
1109	0	32970	32647	
1110	0	32920	32692	
1111	0	32964	32480	
1112	0	32972	32558	
1113	0	32996	32512	
1114	0	32924	32549	
1115	0	32936	32654	
1116	0	32908	32684	
1117	0	32876	32726	
1118	0	32924	32655	
1119	0	32948	32743	
1120	0	32920	32674	
1121	0	32856	32719	
1122	0	32791	32718	
1123	0	32845	32794	
1124	0	32832	32678	
1125	0	32884	32743	
1126	0	32788	32810	
1127	0	32800	32766	
1128	0	32824	32743	
1129	0	32825	32796	
1130	0	32742	32814	
1131	0	32830	32732	
1132	0	32812	32736	
1133	0	32716	32724	
1134	0	32708	32647	
1135	0	32814	32761	
1136	0	32864	32775	
1137	0	32764	32775	
1138	0	32780	32740	
1139	0	32844	32772	
1140	0	32844	32790	
1141	0	32808	32756	
1142	0	32836	32758	
1143	0	32848	32766	
1144	0	32824	32802	
1145	0	32772	32849	
1146	0	32784	32842	
1147	0	32748	32772	
1148	0	32812	32772	
1149	0	32834	32713	
1150	0	32804	32846	
1151	0	32828	32806	
1152	0	32744	32790	
1153	0	32742	32868	
1154	0	32816	32828	
1155	0	32746	32800	
1156	0	32852	32774	
1157	0	32808	32734	
1158	0	32800	32704	
1159	0	32824	32760	
1160	0	32828	32775	
1161	0	32812	32839	
1162	0	32808	32775	
1163	0	32866	32860	
1164	0	32816	32750	
1165	0	32864	32646	
1166	0	32804	32734	
1167	0	32810	32820	
1168	0	32788	32827	
1169	0	32736	32806	
1170	0	32820	32744	
1171	0	32836	32878	
1172	0	32836	32810	
1173	0	32804	32676	
1174	0	32722	32732	
1175	0	32800	32684	
1176	0	32830	32775	
1177	0	32794	32742	
1178	0	32816	32879	
1179	0	32840	32768	
1180	0	32892	32815	
1181	0	32848	32800	
1182	0	32794	32743	
1183	0	32800	32812	
1184	0	32762	32804	
1185	0	32784	32764	
1186	0	32800	32744	
1187	0	32796	32772	
1188	0	32840	32743	
1189	0	32792	32714	
1190	0	32832	32714	
1191	0	32834	32734	
1192	0	32775	32798	
1193	0	32778	32756	
1194	0	32758	32774	
1195	0	32834	32802	
1196	0	32800	32732	
1197	0	32792	32714	
1198	0	32838	32728	
1199	0	32910	32688	
1200	0	32752	32818	
1201	0	32794	32830	
1202	0	32832	32842	
1203	0	32772	32758	
1204	0	32834	32711	
1205	0	32860	32744	
1206	0	32832	32804	
1207	0	32766	32775	
1208	0	32824	32703	
1209	0	32772	32882	
1210	0	32798	32770	
1211	0	32838	32820	
1212	0	32848	32788	
1213	0	32804	32820	
1214	0	32764	32812	
1215	0	32778	32742	
1216	0	32780	32807	
1217	0	32874	32689	
1218	0	32900	32719	
1219	0	32776	32735	
1220	0	32794	32665	
1221	0	32798	32714	
1222	0	32794	32794	
1223	0	32876	32775	
1224	0	32848	32874	
1225	0	32856	32722	
1226	0	32792	32826	
1227	0	32788	32802	
1228	0	32872	32788	
1229	0	32776	32746	
1230	0	32800	32836	
1231	0	32766	32735	
1232	0	32852	32800	
1233	0	32788	32728	
1234	0	32846	32799	
1235	0	32832	32807	
1236	0	32698	32760	
1237	0	32840	32723	
1238	0	32792	32762	
1239	0	32860	32807	
1240	0	32840	32766	
1241	0	32816	32742	
1242	0	32784	32746	
1243	0	32796	32847	
1244	0	32816	32796	
1245	0	32822	32832	
1246	0	32820	32752	
1247	0	32778	32711	
1248	0	32804	32719	
1249	0	32792	32824	
1250	0	32834	32743	
1251	0	32800	32807	
1252	0	32804	32820	
1253	0	32828	32761	
1254	0	32824	32830	
1255	0	32746	32808	
1256	0	32804	32724	
1257	0	32824	32726	
1258	0	32824	32775	
1259	0	32816	32752	
1260	0	32846	32834	
1261	0	32832	32772	
1262	0	32848	32816	
1263	0	32816	32736	
1264	0	32808	32704	
1265	0	32826	32702	
1266	0	32802	32756	
1267	0	32744	32799	
1268	0	32822	32843	
1269	0	32780	32820	
1270	0	32814	32806	
1271	0	32834	32726	
1272	0	32874	32746	
1273	0	32848	32775	
1274	0	32720	32764	
1275	0	32768	32791	
1276	0	32812	32748	
1277	0	32738	32788	
1278	0	32842	32806	
1279	0	32828	32815	
1280	0	32782	32850	
1281	0	32860	32847	
1282	0	32844	32679	
1283	0	32792	32648	
1284	0	32808	32631	
1285	0	32780	32652	
1286	0	32782	32762	
1287	0	32784	32774	
1288	0	32752	32770	
1289	0	32850	32726	
1290	0	32848	32806	
1291	0	32812	32852	
1292	0	32815	32831	
1293	0	32790	32842	
1294	0	32740	32759	
1295	0	32816	32838	
1296	0	32792	32788	
1297	0	32830	32748	
1298	0	32832	32834	
1299	0	32752	32767	
1300	0	32816	32774	
1301	0	32744	32792	
1302	0	32822	32772	
1303	0	32864	32760	
1304	0	32788	32795	
1305	0	32860	32800	
1306	0	32840	32705	
1307	0	32796	32660	
1308	0	32792	32740	
1309	0	32780	32743	
1310	0	32734	32670	
1311	0	32786	32728	
1312	0	32928	32802	
1313	0	32888	32734	
1314	0	32840	32708	
1315	0	32812	32754	
1316	0	32864	32700	
1317	0	32770	32775	
1318	0	32808	32682	
1319	0	32730	32732	
1320	0	32840	32704	
1321	0	32820	32769	
1322	0	32808	32796	
1323	0	32804	32711	
1324	0	32812	32736	
1325	0	32820	32692	
1326	0	32842	32847	
1327	0	32850	32770	
1328	0	32828	32812	
1329	0	32796	32768	
1330	0	32796	32836	
1331	0	32818	32729	
1332	0	32796	32746	
1333	0	32864	32878	
1334	0	32776	32818	
1335	0	32832	32799	
1336	0	32816	32838	
1337	0	32788	32820	
1338	0	32810	32772	
1339	0	32832	32838	
1340	0	32791	32822	
1341	0	32746	32800	
1342	0	32864	32711	
1343	0	32732	32738	
1344	0	32788	32668	
1345	0	32844	32662	
1346	0	32836	32724	
1347	0	32816	32868	
1348	0	32814	32848	
1349	0	32760	32775	
1350	0	32796	32862	
1351	0	32824	32746	
1352	0	32808	32834	
1353	0	32772	32847	
1354	0	32832	32770	
1355	0	32792	32820	
1356	0	32806	32850	
1357	0	32732	32759	
1358	0	32808	32732	
1359	0	32860	32686	
1360	0	32852	32721	
1361	0	32874	32646	
1362	0	32816	32736	
1363	0	32794	32647	
1364	0	32788	32679	
1365	0	32792	32687	
1366	0	32756	32734	
1367	0	32780	32732	
1368	0	32852	32714	
1369	0	32816	32847	
1370	0	32840	32775	
1371	0	32868	32820	
1372	0	32820	32742	
1373	0	32772	32742	
1374	0	32824	32740	
1375	0	32788	32710	
1376	0	32895	32743	
1377	0	32904	32736	
1378	0	32856	32770	
1379	0	32840	32734	
1380	0	32844	32698	
1381	0	32820	32748	
1382	0	32820	32772	
1383	0	32828	32796	
1384	0	32852	32775	
1385	0	32796	32748	
1386	0	32796	32874	
1387	0	32813	32820	
1388	0	32924	32834	
1389	0	32820	32772	
1390	0	32840	32832	
1391	0	32800	32775	
1392	0	32812	32843	
1393	0	32768	32823	
1394	0	32744	32756	
1395	0	32836	32819	
1396	0	32804	32846	
1397	0	32800	32716	
1398	0	32772	32736	
1399	0	32872	32759	
1400	0	32846	32740	
1401	0	32868	32708	
1402	0	32840	32714	
1403	0	32868	32706	
1404	0	32750	32730	
1405	0	32820	32734	
1406	0	32774	32692	
1407	0	32832	32752	
1408	0	32808	32773	
1409	0	32744	32828	
1410	0	32794	32808	
1411	0	32896	32708	
1412	0	32832	32775	
1413	0	32804	32806	
1414	0	32808	32775	
1415	0	32780	32814	
1416	0	32832	32754	
1417	0	32812	32788	
1418	0	32816	32782	
1419	0	32816	32814	
1420	0	32832	32798	
1421	0	32852	32823	
1422	0	32804	32678	
1423	0	32786	32660	
1424	0	32842	32684	
1425	0	32796	32689	
1426	0	32832	32806	
1427	0	32786	32830	
1428	0	32768	32775	
1429	0	32804	32796	
1430	0	32824	32842	
1431	0	32816	32766	
1432	0	32820	32724	
1433	0	32856	32902	
1434	0	32844	32686	
1435	0	32800	32756	
1436	0	32824	32846	
1437	0	32804	32828	
1438	0	32768	32854	
1439	0	32816	32862	
1440	0	32862	32852	
1441	0	32826	32687	
1442	0	32836	32682	
1443	0	32822	32722	
1444	0	32782	32704	
1445	0	32790	32694	
1446	0	32864	32770	
1447	0	32864	32640	
1448	0	32772	32736	
1449	0	32722	32794	
1450	0	32778	32775	
1451	0	32786	32829	
1452	0	32792	32798	
1453	0	32760	32775	
1454	0	32800	32810	
1455	0	32814	32760	
1456	0	32800	32766	
1457	0	32800	32756	
1458	0	32784	32766	
1459	0	32834	32818	
1460	0	32798	32844	
1461	0	32852	32720	
1462	0	32836	32640	
1463	0	32788	32676	
1464	0	32792	32732	
1465	0	32832	32682	
1466	0	32808	32764	
1467	0	32800	32771	
1468	0	32784	32738	
1469	0	32850	32636	
1470	0	32788	32729	
1471	0	32720	32724	
1472	0	32888	32678	
1473	0	32852	32766	
1474	0	32829	32681	
1475	0	32798	32716	
1476	0	32844	32764	
1477	0	32758	32764	
1478	0	32852	32794	
1479	0	32712	32804	
1480	0	32802	32815	
1481	0	32820	32826	
1482	0	32892	32748	
1483	0	32844	32820	
1484	0	32744	32672	
1485	0	32794	32762	
1486	0	32816	32775	
1487	0	32784	32745	
1488	0	32804	32685	
1489	0	32824	32803	
1490	0	32808	32754	
1491	0	32884	32803	
1492	0	32796	32728	
1493	0	32796	32732	
1494	0	32836	32788	
1495	0	32854	32854	
1496	0	32772	32844	
1497	0	32784	32796	
1498	0	32822	32814	
1499	0	32792	32834	
1500	0	32824	32814	
1501	0	32841	32852	
1502	0	32758	32775	
1503	0	32816	32804	
1504	0	32852	32774	
1505	0	32872	32748	
1506	0	32788	32762	
1507	0	32824	32800	
1508	0	32816	32832	
1509	0	32780	32814	
1510	0	32804	32808	
1511	0	32820	32775	
1512	0	32802	32698	
1513	0	32824	32700	
1514	0	32796	32710	
1515	0	32884	32728	
1516	0	32806	32772	
1517	0	32844	32766	
1518	0	32854	32628	
1519	0	32842	32672	
1520	0	32786	32752	
1521	0	32824	32746	
1522	0	32782	32748	
1523	0	32860	32756	
1524	0	32810	32886	
1525	0	32756	32772	
1526	0	32832	32756	
1527	0	32828	32758	
1528	0	32796	32702	
1529	0	32756	32794	
1530	0	32740	32767	
1531	0	32804	32816	
1532	0	32824	32686	
1533	0	32832	32743	
1534	0	32792	32820	
1535	0	32798	32828	
1536	0	32836	32831	
1537	0	32846	32806	
1538	0	32800	32682	
1539	0	32888	32702	
1540	0	32850	32666	
1541	0	32800	32722	
1542	0	32836	32688	
1543	0	32774	32793	
1544	0	32776	32844	
1545	0	32812	32836	
1546	0	32832	32730	
1547	0	32810	32710	
1548	0	32791	32772	
1549	0	32800	32718	
1550	0	32812	32807	
1551	0	32784	32774	
1552	0	32792	32758	
1553	0	32832	32834	
1554	0	32768	32743	
1555	0	32820	32807	
1556	0	32828	32724	
1557	0	32786	32782	
1558	0	32864	32766	
1559	0	32852	32754	
1560	0	32808	32775	
1561	0	32800	32834	
1562	0	32774	32860	
1563	0	32889	32828	
1564	0	32760	32798	
1565	0	32772	32814	
1566	0	32828	32832	
1567	0	32740	32704	
1568	0	32760	32808	
1569	0	32772	32775	
1570	0	32816	32810	
1571	0	32872	32876	
1572	0	32775	32847	
1573	0	32852	32775	
1574	0	32876	32699	
1575	0	32796	32704	
1576	0	32868	32746	
1577	0	32820	32740	
1578	0	32866	32727	
1579	0	32810	32790	
1580	0	32808	32688	
1581	0	32792	32766	
1582	0	32816	32647	
1583	0	32836	32718	
1584	0	32812	32758	
1585	0	32746	32684	
1586	0	32844	32750	
1587	0	32800	32708	
1588	0	32769	32666	
1589	0	32775	32680	
1590	0	32840	32732	
1591	0	32796	32934	
1592	0	32780	32838	
1593	0	32768	32744	
1594	0	32812	32767	
1595	0	32804	32730	
1596	0	32772	32730	
1597	0	32914	32815	
1598	0	32888	32830	
1599	0	32772	32794	
1600	0	32784	32775	
1601	0	32876	32788	
1602	0	32896	32756	
1603	0	32780	32711	
1604	0	32836	32846	
1605	0	32824	32815	
1606	0	32748	32774	
1607	0	32812	32842	
1608	0	32840	32769	
1609	0	32774	32822	
1610	0	32860	32759	
1611	0	32804	32876	
1612	0	32828	32811	
1613	0	32740	32731	
1614	0	32832	32714	
1615	0	32816	32775	
1616	0	32820	32812	
1617	0	32788	32820	
1618	0	32810	32774	
1619	0	32800	32812	
1620	0	32764	32788	
1621	0	32838	32756	
1622	0	32842	32686	
1623	0	32800	32775	
1624	0	32832	32774	
1625	0	32750	32752	
1626	0	32796	32830	
1627	0	32844	32732	
1628	0	32792	32724	
1629	0	32820	32757	
1630	0	32828	32744	
1631	0	32816	32854	
1632	0	32848	32800	
1633	0	32824	32758	
1634	0	32808	32802	
1635	0	32776	32860	
1636	0	32798	32738	
1637	0	32794	32775	
1638	0	32778	32708	
1639	0	32812	32798	
1640	0	32872	32800	
1641	0	32788	32828	
1642	0	32788	32740	
1643	0	32856	32774	
1644	0	32822	32786	
1645	0	32808	32756	
1646	0	32796	32775	
1647	0	32824	32790	
1648	0	32838	32740	
1649	0	32820	32764	
1650	0	32808	32788	
1651	0	32804	32872	
1652	0	32772	32748	
1653	0	32730	32868	
1654	0	32812	32775	
1655	0	32810	32764	
1656	0	32820	32828	
1657	0	32804	32799	
1658	0	32852	32876	
1659	0	32868	32786	
1660	0	32838	32806	
1661	0	32838	32738	
1662	0	32812	32774	
1663	0	32784	32646	
1664	0	32840	32743	
1665	0	32780	32766	
1666	0	32780	32730	
1667	0	32756	32732	
1668	0	32828	32638	
1669	0	32860	32650	
1670	0	32812	32712	
1671	0	32740	32690	
1672	0	32776	32710	
1673	0	32780	32878	
1674	0	32798	32775	
1675	0	32792	32816	
1676	0	32776	32822	
1677	0	32848	32775	
1678	0	32816	32744	
1679	0	32752	32836	
1680	0	32804	32768	
1681	0	32804	32761	
1682	0	32804	32742	
1683	0	32814	32751	
1684	0	32800	32764	
1685	0	32804	32734	
1686	0	32810	32844	
1687	0	32878	32770	
1688	0	32820	32756	
1689	0	32722	32760	
1690	0	32816	32869	
1691	0	32838	32846	
1692	0	32800	32702	
1693	0	32764	32764	
1694	0	32775	32686	
1695	0	32862	32728	
1696	0	32808	32752	
1697	0	32842	32724	
1698	0	32856	32686	
1699	0	32868	32672	
1700	0	32836	32718	
1701	0	32832	32682	
1702	0	32804	32712	
1703	0	32786	32732	
1704	0	32765	32656	
1705	0	32792	32711	
1706	0	32804	32758	
1707	0	32844	32830	
1708	0	32794	32822	
1709	0	32804	32862	
1710	0	32764	32744	
1711	0	32772	32704	
1712	0	32798	32775	
1713	0	32834	32829	
1714	0	32832	32793	
1715	0	32774	32720	
1716	0	32788	32728	
1717	0	32752	32620	
1718	0	32822	32750	
1719	0	32849	32678	
1720	0	32802	32699	
1721	0	32844	32842	
1722	0	32804	32835	
1723	0	32796	32821	
1724	0	32836	32810	
1725	0	32804	32820	
1726	0	32828	32807	
1727	0	32846	32726	
1728	0	32860	32839	
1729	0	32752	32735	
1730	0	32832	32761	
1731	0	32836	32788	
1732	0	32848	32775	
1733	0	32728	32854	
1734	0	32808	32938	
1735	0	32758	32892	
1736	0	32852	32676	
1737	0	32812	32711	
1738	0	32776	32668	
1739	0	32784	32668	
1740	0	32792	32768	
1741	0	32748	32732	
1742	0	32828	32732	
1743	0	32816	32812	
1744	0	32792	32903	
1745	0	32808	32870	
1746	0	32942	32660	
1747	0	32852	32672	
1748	0	32816	32743	
1749	0	32822	32620	
1750	0	32862	32712	
1751	0	32780	32716	
1752	0	32758	32807	
1753	0	32756	32831	
1754	0	32780	32839	
1755	0	32752	32710	
1756	0	32772	32807	
1757	0	32824	32714	
1758	0	32812	32687	
1759	0	32842	32656	
1760	0	32872	32670	
1761	0	32892	32830	
1762	0	32960	32760	
1763	0	32952	32800	
1764	0	32974	32834	
1765	0	32836	32790	
1766	0	32702	32786	
1767	0	32612	32874	
1768	0	32616	33004	
1769	0	32816	33054	
1770	0	32812	33031	
1771	0	32998	32874	
1772	0	33024	32817	
1773	0	32930	32672	
1774	0	32912	32654	
1775	0	32930	32662	
1776	0	32896	32510	
1777	0	32782	32482	
1778	0	32764	32598	
1779	0	32584	32706	
1780	0	32472	32664	
1781	0	32576	32642	
1782	0	32560	32622	
1783	0	32692	32820	
1784	0	32636	32828	
1785	0	32712	32598	
1786	0	32804	32572	
1787	0	32798	32632	
1788	0	32729	32872	
1789	0	32815	32734	
1790	0	32804	32774	
1791	0	32952	32802	
1792	0	32932	32770	
1793	0	32804	32814	
1794	0	32756	32735	
1795	0	32824	32759	
1796	0	32880	32799	
1797	0	32808	32838	
1798	0	32812	32839	
1799	0	32824	32769	
1800	0	32922	32865	
1801	0	32810	32846	
1802	0	32752	32742	
1803	0	32788	32860	
1804	0	32872	32856	
1805	0	32816	32838	
1806	0	32892	32863	
1807	0	33002	32823	
1808	0	33004	32895	
1809	0	32932	32662	
1810	0	32848	32704	
1811	0	32588	32646	
1812	0	32612	32711	
1813	0	32740	32900	
1814	0	32874	32822	
1815	0	32876	32840	
1816	0	32902	32804	
1817	0	32980	32827	
1818	0	32878	32831	
1819	0	32837	32775	
1820	0	32760	32775	
1821	0	32744	32878	
1822	0	32696	32878	
1823	0	32776	32959	
1824	0	32837	32849	
1825	0	32796	32804	
1826	0	32724	32788	
1827	0	32828	32774	
1828	0	32840	32738	
1829	0	32932	32734	
1830	0	32856	32798	
1831	0	32920	32646	
1832	0	32890	32500	
1833	0	32894	32596	
1834	0	32820	32583	
1835	0	32770	32686	
1836	0	32734	32708	
1837	0	32640	32828	
1838	0	32648	32900	
1839	0	32824	32932	
1840	0	32696	32944	
1841	0	32770	32884	
1842	0	32882	32902	
1843	0	32816	32849	
1844	0	32946	32836	
1845	0	32932	32732	
1846	0	32936	32636	
1847	0	32998	32598	
1848	0	33056	32566	
1849	0	32986	32550	
1850	0	32868	32564	
1851	0	32914	32583	
1852	0	32896	32615	
1853	0	32940	32632	
1854	0	32956	32612	
1855	0	32910	32598	
1856	0	32894	32690	
1857	0	32794	32694	
1858	0	32768	32807	
1859	0	32840	32764	
1860	0	32916	32666	
1861	0	32988	32799	
1862	0	33012	32651	
1863	0	32900	32847	
1864	0	32764	32664	
1865	0	32794	32759	
1866	0	32702	32822	
1867	0	32712	32882	
1868	0	32716	32908	
1869	0	32616	32913	
1870	0	32596	33062	
1871	0	32518	33104	
1872	0	32510	33116	
1873	0	32445	33254	
1874	0	32436	33154	
1875	0	32504	33134	
1876	0	32588	33120	
1877	0	32580	33015	
1878	0	32728	32978	
1879	0	32768	32789	
1880	0	32728	32792	
1881	0	32748	32775	
1882	0	32766	32645	
1883	0	32760	32724	
1884	0	32860	32708	
1885	0	32948	32686	
1886	0	32958	32638	
1887	0	33052	32672	
1888	0	33072	32652	
1889	0	32952	32572	
1890	0	32934	32610	
1891	0	32840	32644	
1892	0	32872	32626	
1893	0	32836	32660	
1894	0	32864	32636	
1895	0	32846	32712	
1896	0	32880	32743	
1897	0	32858	32644	
1898	0	32920	32682	
1899	0	32836	32678	
1900	0	32816	32636	
1901	0	32864	32678	
1902	0	32846	32734	
1903	0	32814	32807	
1904	0	32788	32748	
1905	0	32816	32807	
1906	0	32820	32775	
1907	0	32802	32751	
1908	0	32744	32786	
1909	0	32748	32839	
1910	0	32788	32796	
1911	0	32740	32868	
1912	0	32820	32711	
1913	0	32888	32710	
1914	0	32790	32746	
1915	0	32790	32814	
1916	0	32856	32871	
1917	0	32769	32712	
1918	0	32702	32774	
1919	0	32884	32814	
1920	0	32806	32712	
1921	0	32772	32840	
1922	0	32854	32775	
1923	0	32834	32847	
1924	0	32876	32775	
1925	0	32864	32704	
1926	0	32828	32679	
1927	0	32792	32660	
1928	0	32800	32678	
1929	0	32824	32703	
1930	0	32792	32674	
1931	0	32836	32796	
1932	0	32775	32836	
1933	0	32728	32775	
1934	0	32816	32758	
1935	0	32766	32816	
1936	0	32780	32711	
1937	0	32790	32794	
1938	0	32784	32722	
1939	0	32794	32775	
1940	0	32831	32799	
1941	0	32824	32756	
1942	0	32860	32787	
1943	0	32816	32807	
1944	0	32844	32716	
1945	0	32808	32670	
1946	0	32920	32732	
1947	0	32924	32726	
1948	0	32832	32719	
1949	0	32845	32690	
1950	0	32752	32775	
1951	0	32840	32747	
1952	0	32748	32660	
1953	0	32805	32612	
1954	0	32804	32710	
1955	0	32796	32774	
1956	0	32812	32793	
1957	0	32868	32728	
1958	0	32832	32796	
1959	0	32852	32799	
1960	0	32804	32767	
1961	0	32764	32902	
1962	0	32752	32718	
1963	0	32704	32734	
1964	0	32812	32798	
1965	0	32828	32792	
1966	0	32788	32752	
1967	0	32748	32704	
1968	0	32784	32770	
1969	0	32788	32727	
1970	0	32824	32788	
1971	0	32849	32842	
1972	0	32872	32790	
1973	0	32788	32788	
1974	0	32922	32820	
1975	0	32928	32868	
1976	0	32896	32711	
1977	0	32808	32676	
1978	0	32852	32614	
1979	0	32892	32658	
1980	0	32844	32730	
1981	0	32816	32814	
1982	0	32832	32760	
1983	0	32798	32775	
1984	0	32862	32794	
1985	0	32834	32775	
1986	0	32844	32790	
1987	0	32728	32727	
1988	0	32836	32740	
1989	0	32832	32740	
1990	0	32820	32752	
1991	0	32728	32839	
1992	0	32706	32775	
1993	0	32800	32798	
1994	0	32820	32802	
1995	0	32802	32774	
1996	0	32720	32756	
1997	0	32784	32844	
1998	0	32792	32775	
1999	0	32832	32714	
2000	0	32688	32623	
2001	0	32754	32724	
2002	0	32766	32764	
2003	0	32796	32831	
2004	0	32854	32799	
2005	0	32860	32654	
2006	0	32932	32798	
2007	0	32810	32800	
2008	0	32828	32746	
2009	0	32788	32740	
2010	0	32778	32775	
2011	0	32656	32754	
2012	0	32722	32856	
2013	0	32788	32756	
2014	0	33060	32740	
2015	0	33082	32798	
2016	0	32950	32702	
2017	0	32920	32746	
2018	0	32832	32807	
2019	0	32724	32810	
2020	0	32664	32802	
2021	0	32784	32903	
2022	0	32882	32840	
2023	0	32934	32743	
2024	0	32722	32700	
2025	0	32666	32702	
2026	0	32740	32738	
2027	0	32804	32752	
2028	0	32864	32798	
2029	0	32798	32762	
2030	0	32912	32788	
2031	0	32909	32862	
2032	0	32792	32730	
2033	0	32814	32689	
2034	0	32820	32682	
2035	0	32738	32719	
2036	0	32684	32804	
2037	0	32632	32784	
2038	0	32744	32718	
2039	0	32804	32732	
2040	0	32692	32806	
2041	0	32802	32788	
2042	0	32878	32722	
2043	0	32962	32700	
2044	0	33002	32738	
2045	0	32996	32654	
2046	0	32972	32832	
2047	0	32908	32823	
2048	0	33048	32824	
2049	0	32992	32796	
2050	0	32884	32775	
2051	0	32808	32880	
2052	0	32664	32808	
2053	0	32634	32892	
2054	0	32687	32802	
2055	0	32444	32742	
2056	0	32508	32852	
2057	0	32728	32836	
2058	0	32796	32790	
2059	0	32712	32663	
2060	0	32828	32750	
2061	0	33108	32722	
2062	0	32872	32724	
2063	0	32796	32775	
2064	0	32668	32811	
2065	0	32696	32732	
2066	0	32676	32834	
2067	0	32784	32752	
2068	0	32832	32719	
2069	0	32944	32732	
2070	0	32964	32766	
2071	0	32920	32852	
2072	0	32896	32828	
2073	0	32980	32758	
2074	0	32878	32786	
2075	0	32916	32852	
2076	0	32884	32930	
2077	0	32892	32679	
2078	0	32792	32734	
2079	0	32840	32758	
2080	0	32906	32839	
2081	0	32860	32856	
2082	0	32826	32743	
2083	0	32886	32730	
2084	0	33030	32768	
2085	0	33204	32660	
2086	0	33144	32720	
2087	0	32972	32664	
2088	0	32734	32792	
2089	0	32600	32792	
2090	0	32580	32818	
2091	0	32484	32796	
2092	0	32008	32790	
2093	0	31806	32726	
2094	0	31900	32686	
2095	0	32348	32722	
2096	0	32410	32743	
2097	0	32788	32762	
2098	0	33088	32774	
2099	0	33340	32636	
2100	0	33432	32725	
2101	0	33284	32678	
2102	0	33108	32681	
2103	0	33044	32712	
2104	0	32980	32710	
2105	0	32876	32599	
2106	0	32958	32628	
2107	0	32894	32714	
2108	0	32832	32800	
2109	0	32740	32770	
2110	0	32632	32833	
2111	0	32686	32784	
2112	0	32844	32766	
2113	0	32942	32772	
2114	0	32924	32840	
2115	0	32832	32866	
2116	0	33024	32848	
2117	0	32916	32839	
2118	0	32856	32692	
2119	0	32824	32730	
2120	0	32676	32743	
2121	0	32706	32862	
2122	0	32778	32742	
2123	0	32938	32762	
2124	0	33092	32775	
2125	0	33204	32824	
2126	0	33216	32766	
2127	0	33076	32839	
2128	0	33092	32799	
2129	0	32988	32830	
2130	0	32620	32820	
2131	0	32198	32656	
2132	0	32068	32678	
2133	0	31664	32620	
2134	0	31772	32682	
2135	0	32400	32758	
2136	0	32660	32686	
2137	0	32804	32786	
2138	0	33060	32824	
2139	0	33184	32815	
2140	0	33120	32886	
2141	0	33064	32774	
2142	0	33008	32804	
2143	0	32984	32761	
2144	0	32878	32801	
2145	0	32973	32760	
2146	0	32972	32727	
2147	0	32944	32798	
2148	0	32886	32721	
2149	0	32880	32736	
2150	0	32860	32764	
2151	0	32892	32808	
2152	0	32952	32714	
2153	0	32774	32812	
2154	0	32662	32766	
2155	0	32782	32796	
2156	0	32846	32840	
2157	0	32864	32764	
2158	0	33162	32762	
2159	0	33060	32760	
2160	0	33224	32686	
2161	0	33130	32690	
2162	0	32696	32756	
2163	0	32420	32738	
2164	0	32040	32684	
2165	0	32048	32696	
2166	0	32356	32754	
2167	0	32740	32716	
2168	0	32832	32696	
2169	0	32802	32764	
2170	0	32924	32810	
2171	0	32906	32807	
2172	0	32910	32803	
2173	0	33104	32764	
2174	0	32872	32784	
2175	0	32936	32806	
2176	0	32992	32748	
2177	0	32928	32694	
2178	0	32950	32794	
2179	0	32944	32738	
2180	0	32748	32830	
2181	0	32624	32830	
2182	0	32862	32808	
2183	0	32840	32770	
2184	0	32812	32804	
2185	0	33056	32852	
2186	0	33120	32720	
2187	0	32964	32714	
2188	0	32662	32732	
2189	0	32542	32740	
2190	0	32512	32804	
2191	0	32724	32830	
2192	0	33072	32772	
2193	0	32976	32736	
2194	0	32648	32762	
2195	0	32484	32862	
2196	0	32554	32756	
2197	0	32744	32816	
2198	0	32826	32840	
2199	0	32984	32820	
2200	0	33096	32882	
2201	0	32934	32804	
2202	0	33024	32772	
2203	0	32974	32742	
2204	0	32736	32745	
2205	0	32784	32692	
2206	0	32620	32870	
2207	0	32564	32804	
2208	0	32478	32743	
2209	0	32584	32759	
2210	0	32674	32732	
2211	0	32804	32854	
2212	0	32792	32770	
2213	0	32900	32720	
2214	0	32820	32821	
2215	0	32764	32662	
2216	0	32810	32764	
2217	0	33054	32732	
2218	0	33332	32708	
2219	0	33296	32706	
2220	0	32946	32722	
2221	0	33080	32668	
2222	0	32789	32754	
2223	0	32616	32756	
2224	0	32678	32754	
2225	0	32908	32744	
2226	0	32876	32775	
2227	0	32740	32804	
2228	0	32716	32762	
2229	0	32356	32724	
2230	0	32460	32722	
2231	0	32752	32794	
2232	0	32884	32800	
2233	0	32920	32808	
2234	0	32958	32842	
2235	0	32898	32758	
2236	0	32812	32900	
2237	0	32876	32735	
2238	0	32834	32742	
2239	0	32672	32711	
2240	0	32604	32742	
2241	0	32678	32690	
2242	0	32696	32775	
2243	0	32672	32775	
2244	0	32892	32727	
2245	0	32786	32766	
2246	0	32708	32775	
2247	0	32776	32932	
2248	0	32940	32840	
2249	0	32944	32828	
2250	0	32956	32764	
2251	0	33020	32848	
2252	0	32922	32834	
2253	0	32872	32898	
2254	0	32846	32692	
2255	0	32770	32740	
2256	0	32840	32697	
2257	0	32828	32766	
2258	0	32906	32684	
2259	0	32786	32775	
2260	0	32814	32847	
2261	0	32670	32812	
2262	0	32546	32860	
2263	0	32532	32839	
2264	0	32584	32839	
2265	0	32604	32775	
2266	0	32892	32742	
2267	0	32932	32708	
2268	0	32936	32716	
2269	0	32892	32890	
2270	0	32804	32643	
2271	0	32820	32628	
2272	0	32852	32656	
2273	0	33156	32764	
2274	0	33144	32879	
2275	0	33000	32860	
2276	0	32980	32737	
2277	0	32732	32714	
2278	0	32672	32752	
2279	0	32758	32840	
2280	0	32686	32614	
2281	0	32602	32678	
2282	0	32696	32682	
2283	0	32868	32740	
2284	0	32809	32748	
2285	0	32890	32756	
2286	0	32860	32854	
2287	0	33056	32876	
2288	0	33152	32990	
2289	0	33060	32912	
2290	0	32724	32903	
2291	0	32630	32760	
2292	0	32760	32772	
2293	0	32980	32688	
2294	0	32848	32698	
2295	0	32584	32656	
2296	0	32584	32510	
2297	0	32332	32512	
2298	0	32288	32670	
2299	0	33052	32792	
2300	0	33236	32810	
2301	0	33156	32862	
2302	0	33136	32810	
2303	0	32672	32922	
2304	0	32436	32872	
2305	0	32386	32806	
2306	0	32398	32770	
2307	0	32176	32880	
2308	0	32356	32671	
2309	0	32816	32772	
2310	0	33134	32745	
2311	0	33176	32671	
2312	0	33064	32702	
2313	0	32956	32714	
2314	0	33068	32654	
2315	0	33128	32792	
2316	0	32992	32766	
2317	0	32892	32808	
2318	0	32820	32807	
2319	0	32754	32732	
2320	0	32564	32860	
2321	0	32308	32882	
2322	0	32080	32916	
2323	0	32436	32880	
2324	0	32792	32772	
2325	0	32740	32834	
2326	0	32768	32725	
2327	0	33018	32660	
2328	0	33290	32600	
2329	0	33636	32516	
2330	0	33608	32564	
2331	0	33334	32624	
2332	0	32938	32694	
2333	0	32814	32774	
2334	0	32776	32670	
2335	0	32960	32824	
2336	0	32472	32926	
2337	0	32212	32864	
2338	0	32336	32800	
2339	0	32396	32632	
2340	0	32636	32686	
2341	0	32644	32672	
2342	0	32780	32676	
2343	0	32698	32857	
2344	0	32778	32856	
2345	0	32934	32799	
2346	0	33068	32854	
2347	0	33204	32940	
2348	0	33236	32814	
2349	0	33464	32804	
2350	0	33846	32886	
2351	0	33636	32826	
2352	0	33770	32879	
2353	0	33784	32966	
2354	0	33188	32807	
2355	0	32176	32682	
2356	0	31514	32770	
2357	0	31280	32820	
2358	0	31144	32844	
2359	0	31580	32910	
2360	0	31818	32782	
2361	0	32008	32732	
2362	0	32512	32719	
2363	0	32592	32714	
2364	0	33028	32748	
2365	0	32970	32750	
2366	0	32810	32844	
2367	0	32958	32828	
2368	0	33370	32756	
2369	0	33305	32749	
2370	0	33000	32711	
2371	0	32848	32546	
2372	0	32752	32378	
2373	0	32868	32516	
2374	0	32972	32495	
2375	0	33126	32632	
2376	0	32988	32834	
2377	0	32936	32996	
2378	0	33016	33206	
2379	0	32958	33226	
2380	0	33012	33271	
2381	0	33016	33084	
2382	0	32950	32938	
2383	0	32870	32732	
2384	0	32858	32508	
2385	0	32804	32304	
2386	0	32708	32286	
2387	0	32856	32174	
2388	0	33018	32204	
2389	0	32906	32348	
2390	0	33004	32472	
2391	0	32926	32462	
2392	0	32828	32646	
2393	0	32656	32720	
2394	0	32804	32894	
2395	0	33188	32967	
2396	0	33244	33082	
2397	0	33160	33206	
2398	0	32740	33145	
2399	0	32654	33092	
2400	0	32364	33223	
2401	0	32348	33172	
2402	0	32718	32918	
2403	0	33176	32652	
2404	0	33472	32596	
2405	0	33618	32598	
2406	0	32940	32618	
2407	0	31864	32708	
2408	0	31896	32913	
2409	0	32048	33017	
2410	0	32410	33032	
2411	0	32534	33076	
2412	0	32708	33038	
2413	0	32824	32732	
2414	0	32980	32666	
2415	0	32944	32583	
2416	0	32820	32527	
2417	0	32812	32246	
2418	0	32920	32198	
2419	0	33108	32312	
2420	0	33040	32500	
2421	0	32840	32672	
2422	0	32720	32772	
2423	0	32644	32906	
2424	0	32824	33018	
2425	0	32764	33028	
2426	0	32760	33008	
2427	0	32848	33002	
2428	0	32896	33018	
2429	0	32868	33084	
2430	0	32676	32912	
2431	0	32864	32860	
2432	0	32960	32788	
2433	0	33044	32804	
2434	0	33066	32872	
2435	0	33128	32868	
2436	0	33112	32872	
2437	0	32968	32822	
2438	0	32612	32804	
2439	0	32624	32918	
2440	0	32724	32925	
2441	0	32604	32842	
2442	0	32516	32737	
2443	0	32522	32574	
2444	0	32542	32552	
2445	0	32628	32598	
2446	0	32728	32612	
2447	0	32814	32624	
2448	0	33034	32668	
2449	0	33146	32647	
2450	0	33098	32822	
2451	0	32766	32864	
2452	0	32772	32964	
2453	0	32776	32946	
2454	0	32757	32852	
2455	0	32702	32871	
2456	0	32780	32870	
2457	0	32748	32734	
2458	0	32828	32775	
2459	0	32980	32748	
2460	0	33248	32876	
2461	0	33630	33066	
2462	0	33524	33118	
2463	0	32868	33077	
2464	0	32444	33031	
2465	0	32069	33013	
2466	0	31718	32908	
2467	0	31887	32872	
2468	0	32761	32748	
2469	0	33104	32692	
2470	0	33224	32604	
2471	0	32996	32284	
2472	0	32780	32382	
2473	0	32494	32413	
2474	0	32744	32436	
2475	0	32954	32414	
2476	0	32976	32518	
2477	0	32998	32676	
2478	0	32996	32775	
2479	0	32848	32772	
2480	0	32604	32754	
2481	0	32708	32698	
2482	0	32766	32698	
2483	0	32788	32550	
2484	0	33026	32576	
2485	0	33032	32604	
2486	0	32874	32598	
2487	0	32754	32638	
2488	0	32824	32810	
2489	0	32732	32766	
2490	0	32804	32748	
2491	0	32788	32926	
2492	0	32780	33004	
2493	0	32752	32972	
2494	0	32800	33105	
2495	0	32721	33054	
2496	0	32832	32992	
2497	0	32804	32942	
2498	0	32876	32870	
2499	0	32912	32844	
2500	0	32882	32816	
2501	0	32996	32876	
2502	0	32848	32862	
2503	0	32880	32846	
2504	0	32804	32850	
2505	0	32816	32854	
2506	0	33022	32742	
2507	0	32940	32802	
2508	0	32868	32910	
2509	0	32928	32800	
2510	0	33070	32788	
2511	0	32754	32757	
2512	0	32264	32698	
2513	0	32212	32692	
2514	0	32386	32606	
2515	0	32552	32510	
2516	0	32580	32554	
2517	0	32896	32648	
2518	0	33060	32676	
2519	0	33376	32836	
2520	0	33088	32930	
2521	0	32862	33228	
2522	0	32389	33352	
2523	0	32362	33391	
2524	0	32668	33304	
2525	0	32814	33184	
2526	0	32972	32830	
2527	0	32868	32556	
2528	0	32738	32328	
2529	0	32696	32028	
2530	0	32564	31776	
2531	0	32822	31816	
2532	0	33044	32102	
2533	0	33104	32423	
2534	0	32552	32692	
2535	0	32376	32922	
2536	0	33038	33195	
2537	0	33216	33269	
2538	0	33364	33320	
2539	0	33280	33154	
2540	0	33080	32976	
2541	0	32768	32775	
2542	0	32570	32825	
2543	0	32798	32774	
2544	0	32727	32724	
2545	0	32652	32698	
2546	0	32783	32615	
2547	0	32740	32596	
2548	0	32924	32638	
2549	0	33280	32711	
2550	0	33296	32678	
2551	0	33122	32620	
2552	0	32720	32662	
2553	0	32348	32900	
2554	0	32208	33054	
2555	0	32322	33206	
2556	0	32838	33246	
2557	0	32734	33383	
2558	0	32872	33415	
2559	0	32920	33350	
2560	0	33052	33354	
2561	0	32852	33607	
2562	0	32848	33700	
2563	0	32794	33742	
2564	0	33104	33687	
2565	0	33132	33362	
2566	0	32938	32762	
2567	0	33036	32254	
2568	0	32888	31508	
2569	0	32768	31116	
2570	0	32632	30798	
2571	0	32420	30464	
2572	0	32432	30350	
2573	0	32460	30780	
2574	0	32828	31462	
2575	0	32820	32294	
2576	0	32808	32924	
2577	0	32742	33180	
2578	0	32728	33212	
2579	0	32940	33308	
2580	0	32868	33287	
2581	0	32714	33351	
2582	0	32617	33216	
2583	0	32628	33217	
2584	0	32658	33123	
2585	0	32760	33107	
2586	0	32840	32999	
2587	0	33038	32972	
2588	0	33050	33084	
2589	0	32986	33062	
2590	0	32852	32908	
2591	0	32788	33038	
2592	0	32720	33043	
2593	0	32598	32953	
2594	0	32632	32847	
2595	0	32753	32882	
2596	0	32780	32942	
2597	0	32756	32940	
2598	0	32858	32980	
2599	0	32721	33054	
2600	0	32784	32902	
2601	0	32886	32838	
2602	0	32924	32728	
2603	0	33188	32618	
2604	0	33016	32468	
2605	0	32636	32455	
2606	0	32696	32360	
2607	0	32692	32330	
2608	0	32592	32492	
2609	0	32744	32559	
2610	0	32544	32594	
2611	0	32600	32666	
2612	0	32565	32920	
2613	0	32696	33116	
2614	0	32782	33100	
2615	0	33044	32999	
2616	0	33144	32934	
2617	0	32980	32856	
2618	0	33060	32598	
2619	0	33002	32719	
2620	0	32852	32519	
2621	0	32928	32374	
2622	0	33032	32263	
2623	0	33028	33093	
2624	0	33090	33063	
2625	0	32882	32878	
2626	0	32800	33178	
2627	0	32816	34372	
2628	0	32744	34336	
2629	0	32798	33528	
2630	0	32920	32785	
2631	0	33056	32158	
2632	0	33108	31798	
2633	0	33438	31751	
2634	0	33316	32007	
2635	0	33048	32062	
2636	0	33160	32244	
2637	0	33308	31795	
2638	0	33112	31768	
2639	0	32864	31174	
2640	0	32768	31111	
2641	0	32636	31076	
2642	0	32408	31348	
2643	0	31928	31598	
2644	0	32138	32016	
2645	0	32506	32622	
2646	0	32330	33127	
2647	0	32424	33740	
2648	0	32320	33824	
2649	0	32356	33670	
2650	0	32348	33406	
2651	0	32336	33644	
2652	0	32504	34056	
2653	0	32628	34458	
2654	0	32816	34530	
2655	0	32928	34968	
2656	0	32928	35224	
2657	0	32952	34711	
2658	0	32940	33792	
2659	0	33024	32916	
2660	0	33108	32356	
2661	0	33328	32204	
2662	0	33300	32227	
2663	0	33102	32230	
2664	0	32998	32106	
2665	0	32826	31428	
2666	0	32496	30816	
2667	0	32708	30908	
2668	0	32792	31150	
2669	0	32704	31430	
2670	0	32776	31324	
2671	0	33012	31510	
2672	0	33020	32002	
2673	0	32852	32584	
2674	0	32852	32992	
2675	0	32916	33344	
2676	0	32892	33287	
2677	0	32708	33354	
2678	0	32812	33690	
2679	0	32692	33932	
2680	0	32740	33916	
2681	0	32636	33828	
2682	0	32666	33826	
2683	0	32810	33799	
2684	0	32658	33717	
2685	0	32692	33460	
2686	0	32664	33216	
2687	0	32736	33068	
2688	0	32910	33262	
2689	0	32836	33352	
2690	0	32984	33063	
2691	0	33144	32572	
2692	0	33032	32771	
2693	0	32896	33031	
2694	0	32860	32616	
2695	0	32962	32240	
2696	0	32980	31852	
2697	0	32808	31510	
2698	0	32648	31260	
2699	0	32520	31298	
2700	0	32396	32060	
2701	0	32444	32816	
2702	0	32608	32798	
2703	0	32708	32426	
2704	0	32864	32709	
2705	0	32824	33270	
2706	0	32644	33176	
2707	0	32618	33262	
2708	0	32804	33569	
2709	0	33072	33868	
2710	0	33284	34023	
2711	0	33224	33622	
2712	0	33196	32940	
2713	0	32992	32578	
2714	0	32928	32454	
2715	0	32837	31424	
2716	0	32896	31408	
2717	0	32752	32020	
2718	0	32900	32106	
2719	0	32968	32332	
2720	0	32944	32790	
2721	0	32796	33324	
2722	0	32749	33636	
2723	0	32864	33202	
2724	0	32722	33172	
2725	0	32548	32844	
2726	0	32540	32174	
2727	0	32500	31176	
2728	0	32396	30656	
2729	0	32372	30790	
2730	0	32448	31706	
2731	0	32520	32666	
2732	0	32730	33038	
2733	0	33008	33450	
2734	0	33032	34215	
2735	0	32968	33646	
2736	0	32966	33820	
2737	0	32908	33518	
2738	0	32932	32852	
2739	0	32912	32484	
2740	0	32784	32939	
2741	0	32835	33154	
2742	0	32880	33728	
2743	0	32828	34740	
2744	0	32780	34654	
2745	0	32768	33302	
2746	0	32780	31864	
2747	0	32784	30944	
2748	0	32846	30596	
2749	0	32934	30710	
2750	0	32874	30906	
2751	0	32838	31184	
2752	0	32752	31659	
2753	0	32620	32676	
2754	0	32508	33108	
2755	0	32596	33508	
2756	0	32700	33959	
2757	0	32756	33932	
2758	0	32868	34132	
2759	0	32942	34182	
2760	0	33020	34104	
2761	0	32992	33688	
2762	0	32958	33927	
2763	0	32960	34092	
2764	0	33012	33884	
2765	0	32864	33156	
2766	0	32882	33047	
2767	0	32852	32852	
2768	0	32708	33294	
2769	0	32704	33560	
2770	0	32729	33442	
2771	0	32706	33134	
2772	0	32704	32352	
2773	0	32760	32272	
2774	0	32732	31976	
2775	0	32740	32200	
2776	0	32696	32615	
2777	0	32800	32074	
2778	0	32778	31312	
2779	0	32812	30938	
2780	0	32794	31040	
2781	0	32784	31884	
2782	0	32814	33004	
2783	0	32792	34214	
2784	0	32848	34250	
2785	0	32820	33685	
2786	0	32828	32560	
2787	0	32828	31914	
2788	0	32768	31302	
2789	0	32778	31185	
2790	0	32800	30940	
2791	0	32812	30680	
2792	0	32856	30496	
2793	0	32938	31335	
2794	0	32952	32356	
2795	0	32968	32908	
2796	0	32908	32716	
2797	0	32868	32246	
2798	0	32812	31985	
2799	0	32807	31508	
2800	0	32744	32020	
2801	0	32848	32528	
2802	0	32808	32964	
2803	0	32808	33496	
2804	0	32860	34418	
2805	0	32856	35070	
2806	0	32832	35156	
2807	0	32764	34803	
2808	0	32644	34424	
2809	0	32788	33812	
2810	0	32712	33436	
2811	0	32804	33518	
2812	0	32774	33572	
2813	0	32775	33473	
2814	0	32768	34132	
2815	0	32840	33776	
2816	0	32870	33052	
2817	0	32824	32484	
2818	0	32846	32168	
2819	0	32820	31988	
2820	0	32852	32070	
2821	0	32792	32886	
2822	0	32760	33148	
2823	0	32840	32512	
2824	0	32710	32198	
2825	0	32812	32286	
2826	0	32790	32276	
2827	0	32892	32366	
2828	0	32792	32566	
2829	0	32852	32674	
2830	0	32924	32822	
2831	0	32834	32519	
2832	0	32784	32312	
2833	0	32820	31894	
2834	0	32832	31350	
2835	0	32836	31030	
2836	0	32798	30940	
2837	0	32764	31412	
2838	0	32684	31946	
2839	0	32706	33132	
2840	0	32640	34030	
2841	0	32778	34846	
2842	0	32794	34964	
2843	0	32768	34954	
2844	0	32824	35484	
2845	0	32886	35647	
2846	0	32924	34724	
2847	0	32848	33442	
2848	0	32864	31878	
2849	0	32866	30522	
2850	0	32824	29664	
2851	0	32812	29668	
2852	0	32784	29900	
2853	0	32792	30196	
2854	0	32778	30822	
2855	0	32756	31944	
2856	0	32900	33191	
2857	0	32894	34010	
2858	0	32752	34426	
2859	0	32804	34303	
2860	0	32858	34126	
2861	0	32802	33911	
2862	0	32722	33743	
2863	0	32810	33236	
2864	0	32806	32664	
2865	0	32826	32612	
2866	0	32750	32662	
2867	0	32802	32538	
2868	0	32844	32374	
2869	0	32798	32574	
2870	0	32804	32615	
2871	0	32845	32841	
2872	0	32868	33080	
2873	0	32836	33260	
2874	0	32864	33199	
2875	0	32846	33303	
2876	0	32720	33136	
2877	0	32756	33122	
2878	0	32820	32954	
2879	0	32756	32828	
2880	0	32778	32628	
2881	0	32858	32612	
2882	0	32736	32484	
2883	0	32808	32455	
2884	0	32808	32680	
2885	0	32738	32768	
2886	0	32876	33640	
2887	0	32962	33744	
2888	0	32846	33191	
2889	0	32830	32886	
2890	0	32832	32407	
2891	0	32834	32278	
2892	0	32818	31886	
2893	0	32912	31998	
2894	0	32940	32414	
2895	0	32936	32732	
2896	0	32892	33050	
2897	0	32928	34199	
2898	0	32977	35018	
2899	0	33044	34753	
2900	0	33024	34060	
2901	0	32926	34184	
2902	0	32884	34584	
2903	0	32876	32656	
2904	0	32888	31087	
2905	0	32884	30054	
2906	0	32736	29566	
2907	0	32758	30138	
2908	0	32732	30664	
2909	0	32732	30294	
2910	0	32660	30076	
2911	0	32762	30446	
2912	0	32788	31778	
2913	0	32874	32367	
2914	0	32832	32752	
2915	0	32860	32890	
2916	0	32836	33504	
2917	0	32836	34050	
2918	0	32822	34390	
2919	0	32820	34408	
2920	0	32788	34388	
2921	0	32734	34044	
2922	0	32736	33532	
2923	0	32790	33114	
2924	0	32740	33362	
2925	0	32796	33574	
2926	0	32766	33858	
2927	0	32756	33589	
2928	0	32828	33204	
2929	0	32854	33094	
2930	0	32822	32596	
2931	0	32776	32594	
2932	0	32800	32530	
2933	0	32744	32476	
2934	0	32806	32388	
2935	0	32856	32416	
2936	0	32752	32312	
2937	0	32820	32263	
2938	0	32775	32212	
2939	0	32724	32582	
2940	0	32784	32934	
2941	0	32664	32808	
2942	0	32628	32686	
2943	0	32656	32812	
2944	0	32620	32738	
2945	0	32602	32852	
2946	0	32681	32890	
2947	0	32652	33012	
2948	0	32740	32924	
2949	0	32774	32956	
2950	0	32816	33000	
2951	0	32848	32801	
2952	0	32870	32993	
2953	0	32736	32860	
2954	0	32836	32848	
2955	0	32744	32680	
2956	0	32772	32423	
2957	0	32724	32354	
2958	0	32710	32543	
2959	0	32728	32700	
2960	0	32728	32518	
2961	0	32744	32266	
2962	0	32716	32193	
2963	0	32692	32418	
2964	0	32776	32550	
2965	0	32704	32654	
2966	0	32790	32856	
2967	0	32776	32962	
2968	0	32732	32934	
2969	0	32778	32938	
2970	0	32788	32964	
2971	0	32848	33126	
2972	0	32982	33026	
2973	0	32868	33050	
2974	0	32808	33076	
2975	0	32744	32839	
2976	0	32775	32908	
2977	0	32720	33123	
2978	0	32684	32870	
2979	0	32660	32850	
2980	0	32728	32670	
2981	0	32762	32196	
2982	0	32809	31828	
2983	0	32836	31498	
2984	0	32772	31518	
2985	0	32828	31492	
2986	0	32824	31628	
2987	0	32776	32152	
2988	0	32648	32346	
2989	0	32814	32732	
2990	0	32822	33044	
2991	0	32820	33414	
2992	0	32864	33186	
2993	0	32812	33219	
2994	0	32804	33310	
2995	0	32784	33356	
2996	0	32786	33437	
2997	0	32804	33208	
2998	0	32809	33040	
2999	0	32704	32854	
3000	0	32740	32842	
3001	0	32732	32756	
3002	0	32748	32892	
3003	0	32844	32922	
3004	0	32870	33020	
3005	0	32822	32998	
3006	0	32904	32918	
3007	0	32864	32630	
3008	0	32844	32416	
3009	0	32866	32634	
3010	0	32884	32646	
3011	0	32840	32636	
3012	0	32805	32850	
3013	0	32768	32722	
3014	0	32776	32642	
3015	0	32826	32638	
3016	0	32826	32743	
3017	0	32760	32736	
3018	0	32792	32754	
3019	0	32836	32726	
3020	0	32764	32763	
3021	0	32740	32647	
3022	0	32856	32612	
3023	0	32816	32625	
3024	0	32836	32702	
3025	0	32896	32768	
3026	0	32832	32678	
3027	0	32864	32900	
3028	0	32832	33132	
3029	0	32852	33318	
3030	0	32860	33128	
3031	0	32888	33071	
3032	0	32912	32726	
3033	0	32944	32510	
3034	0	32900	32454	
3035	0	32908	32550	
3036	0	32960	32640	
3037	0	32880	32892	
3038	0	32788	32796	
3039	0	32800	32838	
3040	0	32804	32900	
3041	0	32638	32846	
3042	0	32668	32574	
3043	0	32680	32668	
3044	0	32748	33012	
3045	0	32796	33271	
3046	0	32884	32948	
3047	0	32964	32976	
3048	0	33048	32609	
3049	0	33048	32465	
3050	0	33040	32239	
3051	0	32958	32298	
3052	0	32920	32532	
3053	0	32804	32632	
3054	0	32684	32720	
3055	0	32750	32750	
3056	0	32716	32868	
3057	0	32796	32775	
3058	0	32732	32910	
3059	0	32748	32921	
3060	0	32820	32814	
3061	0	32948	32768	
3062	0	32952	32836	
3063	0	32878	32890	
3064	0	32872	32836	
3065	0	32942	32839	
3066	0	32852	32903	
3067	0	32832	32880	
3068	0	32810	32834	
3069	0	32813	32796	
3070	0	32824	32816	
3071	0	32794	32734	
3072	0	32744	32630	
3073	0	32828	32832	
3074	0	32862	32752	
3075	0	32898	32708	
3076	0	32751	32682	
3077	0	32822	32673	
3078	0	32740	32756	
3079	0	32718	32519	
3080	0	32692	32588	
3081	0	32702	32571	
3082	0	32720	32680	
3083	0	32778	32942	
3084	0	32796	33006	
3085	0	32840	33044	
3086	0	32804	33248	
3087	0	32906	33206	
3088	0	32820	33024	
3089	0	32880	33073	
3090	0	32802	32764	
3091	0	32706	32618	
3092	0	32768	32208	
3093	0	32708	32110	
3094	0	32775	32068	
3095	0	32738	31985	
3096	0	32736	32225	
3097	0	32678	32775	
3098	0	32780	33383	
3099	0	32756	33410	
3100	0	32792	33270	
3101	0	32798	33332	
3102	0	32840	33250	
3103	0	32847	33080	
3104	0	32888	32906	
3105	0	32900	33164	
3106	0	32874	32837	
3107	0	32954	32494	
3108	0	32884	32382	
3109	0	32872	32225	
3110	0	32878	32015	
3111	0	32754	32092	
3112	0	32744	32354	
3113	0	32702	32642	
3114	0	32792	32628	
3115	0	32660	32492	
3116	0	32644	32263	
3117	0	32608	32156	
3118	0	32688	32244	
3119	0	32672	32435	
3120	0	32676	33007	
3121	0	32746	33254	
3122	0	32776	33400	
3123	0	32676	33142	
3124	0	32790	33002	
3125	0	32808	33174	
3126	0	32820	33212	
3127	0	32784	33280	
3128	0	32864	33114	
3129	0	32864	33108	
3130	0	32972	33132	
3131	0	32988	32977	
3132	0	33045	32986	
3133	0	32964	32852	
3134	0	32942	32752	
3135	0	32958	32948	
3136	0	32890	33156	
3137	0	32934	33155	
3138	0	32844	32928	
3139	0	32780	32807	
3140	0	32796	32770	
3141	0	32742	32700	
3142	0	32756	32671	
3143	0	32662	32684	
3144	0	32702	32680	
3145	0	32724	32790	
3146	0	32724	32974	
3147	0	32790	33031	
3148	0	32814	32974	
3149	0	32800	32772	
3150	0	32832	32372	
3151	0	32832	32196	
3152	0	32836	32215	
3153	0	32900	32231	
3154	0	32936	32519	
3155	0	32880	32874	
3156	0	32904	33015	
3157	0	32946	33030	
3158	0	32952	33248	
3159	0	32932	32994	
3160	0	32864	32842	
3161	0	32916	32792	
3162	0	32848	32713	
3163	0	32836	32542	
3164	0	32774	32544	
3165	0	32800	32948	
3166	0	32808	32940	
3167	0	32802	32970	
3168	0	32890	32881	
3169	0	32876	32583	
3170	0	32926	32408	
3171	0	32974	32431	
3172	0	32932	32696	
3173	0	32912	32876	
3174	0	32856	33012	
3175	0	32800	32974	
3176	0	32780	32932	
3177	0	32701	32798	
3178	0	32792	32855	
3179	0	32754	32810	
3180	0	32738	32812	
3181	0	32740	32730	
3182	0	32744	32500	
3183	0	32828	32519	
3184	0	32688	32559	
3185	0	32780	32688	
3186	0	32784	32954	
3187	0	32800	32876	
3188	0	32796	32775	
3189	0	32776	32836	
3190	0	32852	32768	
3191	0	32880	32802	
3192	0	32792	32807	
3193	0	32764	32756	
3194	0	32814	32888	
3195	0	32780	32852	
3196	0	32704	32686	
3197	0	32744	32738	
3198	0	32767	32836	
3199	0	32744	32842	
3200	0	32758	32894	
3201	0	32762	32897	
3202	0	32840	32832	
3203	0	32736	32823	
3204	0	32832	32806	
3205	0	32952	32878	
3206	0	32880	32858	
3207	0	32956	32994	
3208	0	32964	32950	
3209	0	32846	32856	
3210	0	32844	32614	
3211	0	32768	32460	
3212	0	32812	32412	
3213	0	32820	32228	
3214	0	32888	32263	
3215	0	32786	32382	
3216	0	32812	32465	
3217	0	32810	32715	
3218	0	32800	32982	
3219	0	32744	33002	
3220	0	32708	33108	
3221	0	32804	33114	
3222	0	32688	32984	
3223	0	32666	32800	
3224	0	32692	32802	
3225	0	32732	32772	
3226	0	32688	32844	
3227	0	32758	32942	
3228	0	32742	32840	
3229	0	32776	32796	
3230	0	32740	32647	
3231	0	32868	32644	
3232	0	32780	32638	
3233	0	32836	32750	
3234	0	32810	32586	
3235	0	32826	32770	
3236	0	32788	32920	
3237	0	32834	32858	
3238	0	32788	32826	
3239	0	32800	32916	
3240	0	32808	32824	
3241	0	32780	32708	
3242	0	32860	32608	
3243	0	32872	32818	
3244	0	32906	32896	
3245	0	32886	32750	
3246	0	32948	32572	
3247	0	32900	32734	
3248	0	32878	32876	
3249	0	32884	32892	
3250	0	32800	32788	
3251	0	32810	32694	
3252	0	32764	32640	
3253	0	32862	32748	
3254	0	32772	32750	
3255	0	32820	32834	
3256	0	32788	32732	
3257	0	32792	32812	
3258	0	32729	32834	
3259	0	32784	32956	
3260	0	32742	33002	
3261	0	32828	33090	
3262	0	32814	33237	
3263	0	32848	33030	
3264	0	32785	32932	
3265	0	32816	32938	
3266	0	32764	32811	
3267	0	32824	32534	
3268	0	32836	32356	
3269	0	32884	32116	
3270	0	32842	31972	
3271	0	32832	31864	
3272	0	32854	31936	
3273	0	32856	32128	
3274	0	32800	32356	
3275	0	32892	32775	
3276	0	32848	33020	
3277	0	32880	33063	
3278	0	32842	33022	
3279	0	32884	33044	
3280	0	32861	32988	
3281	0	32782	32873	
3282	0	32792	32876	
3283	0	32772	32696	
3284	0	32776	32708	
3285	0	32828	32852	
3286	0	32768	32886	
3287	0	32760	33006	
3288	0	32724	32912	
3289	0	32672	32820	
3290	0	32764	32728	
3291	0	32805	32720	
3292	0	32736	32800	
3293	0	32780	32860	
3294	0	32760	32878	
3295	0	32824	32802	
3296	0	32812	32644	
3297	0	32856	32728	
3298	0	32800	32712	
3299	0	32746	32775	
3300	0	32816	32672	
3301	0	32790	32799	
3302	0	32671	32744	
3303	0	32744	32753	
3304	0	32780	32632	
3305	0	32800	32614	
3306	0	32804	32774	
3307	0	32848	32732	
3308	0	32852	32788	
3309	0	32802	32775	
3310	0	32780	32883	
3311	0	32748	32992	
3312	0	32744	33062	
3313	0	32760	32846	
3314	0	32756	32692	
3315	0	32788	32563	
3316	0	32748	32638	
3317	0	32778	32494	
3318	0	32943	32746	
3319	0	32868	32698	
3320	0	32906	32734	
3321	0	32868	32734	
3322	0	32956	32762	
3323	0	32932	32808	
3324	0	32916	32856	
3325	0	32892	32752	
3326	0	32868	32726	
3327	0	32874	32696	
3328	0	32920	32696	
3329	0	32884	32643	
3330	0	32826	32572	
3331	0	32876	32692	
3332	0	32836	32720	
3333	0	32892	32694	
3334	0	32832	32610	
3335	0	32852	32620	
3336	0	32848	32669	
3337	0	32864	32750	
3338	0	32834	32672	
3339	0	32856	32840	
3340	0	32812	32774	
3341	0	32804	32704	
3342	0	32788	32988	
3343	0	32828	32874	
3344	0	32880	32924	
3345	0	32860	32909	
3346	0	32860	32464	
3347	0	32832	32250	
3348	0	32762	32222	
3349	0	32800	32438	
3350	0	32884	32628	
3351	0	32804	32824	
3352	0	32864	32807	
3353	0	32840	32718	
3354	0	32812	32911	
3355	0	32822	33024	
3356	0	32752	32980	
3357	0	32740	32932	
3358	0	32758	32876	
3359	0	32748	32932	
3360	0	32672	32852	
3361	0	32796	32714	
3362	0	32772	32700	
3363	0	32740	32848	
3364	0	32832	32770	
3365	0	32738	32874	
3366	0	32860	32876	
3367	0	32772	32836	
3368	0	32792	32746	
3369	0	32904	32740	
3370	0	32880	32647	
3371	0	32936	32580	
3372	0	32968	32615	
3373	0	32988	32622	
3374	0	32948	32554	
3375	0	32964	32610	
3376	0	32960	32586	
3377	0	32880	32624	
3378	0	32872	32594	
3379	0	32860	32602	
3380	0	32846	32580	
3381	0	32838	32775	
3382	0	32866	32738	
3383	0	32864	32828	
3384	0	32946	32768	
3385	0	32892	32756	
3386	0	32910	32760	
3387	0	32888	32744	
3388	0	32776	32862	
3389	0	32724	32863	
3390	0	32740	32840	
3391	0	32672	32874	
3392	0	32658	32870	
3393	0	32592	32998	
3394	0	32532	32972	
3395	0	32508	33014	
3396	0	32416	33072	
3397	0	32388	33048	
3398	0	32460	33031	
3399	0	32526	33084	
3400	0	32532	33044	
3401	0	32580	32999	
3402	0	32728	32970	
3403	0	32744	32918	
3404	0	32764	32764	
3405	0	32788	32770	
3406	0	32752	32724	
3407	0	32864	32798	
3408	0	32852	32655	
3409	0	32884	32703	
3410	0	33066	32655	
3411	0	33088	32596	
3412	0	33028	32472	
3413	0	33024	32576	
3414	0	33068	32706	
3415	0	32996	32702	
3416	0	32936	32580	
3417	0	32876	32602	
3418	0	32820	32647	
3419	0	32830	32772	
3420	0	32806	32644	
3421	0	32852	32732	
3422	0	32760	32775	
3423	0	32768	32775	
3424	0	32832	32812	
3425	0	32776	32686	
3426	0	32776	32630	
3427	0	32856	32622	
3428	0	32744	32680	
3429	0	32816	32844	
3430	0	32798	32734	
3431	0	32766	32378	
3432	0	32732	32404	
3433	0	32824	32775	
3434	0	32804	33046	
3435	0	32794	33104	
3436	0	32748	32792	
3437	0	32784	32518	
3438	0	32824	32660	
3439	0	32788	32640	
3440	0	32846	32796	
3441	0	32756	32772	
3442	0	32714	32934	
3443	0	32818	32944	
3444	0	32836	32768	
3445	0	32868	32604	
3446	0	32848	32556	
3447	0	32756	32566	
3448	0	32804	32727	
3449	0	32800	32832	
3450	0	32848	32821	
3451	0	32792	32855	
3452	0	32882	32860	
3453	0	32764	32838	
3454	0	32816	32808	
3455	0	32820	32926	
3456	0	32768	32860	
3457	0	32852	32741	
3458	0	32784	32696	
3459	0	32808	32738	
3460	0	32850	32797	
3461	0	32724	32775	
3462	0	32792	32647	
3463	0	32810	32637	
3464	0	32828	32708	
3465	0	32816	32714	
3466	0	32796	32790	
3467	0	32860	32754	
3468	0	32896	32712	
3469	0	32838	32820	
3470	0	32840	32764	
3471	0	32852	32828	
3472	0	32916	32744	
3473	0	32836	32761	
3474	0	32864	32676	
3475	0	32888	32682	
3476	0	32876	32722	
3477	0	32836	32687	
3478	0	32846	32682	
3479	0	32780	32612	
3480	0	32700	32714	
3481	0	32732	32732	
3482	0	32792	32860	
3483	0	32816	32862	
3484	0	32828	32708	
3485	0	32798	32764	
3486	0	32816	32756	
3487	0	32768	32758	
3488	0	32888	32878	
3489	0	32856	32836	
3490	0	32904	32788	
3491	0	32796	32724	
3492	0	32854	32722	
3493	0	32784	32713	
3494	0	32760	32812	
3495	0	32792	32824	
3496	0	32783	32794	
3497	0	32774	32822	
3498	0	32796	32824	
3499	0	32768	32768	
3500	0	32820	32807	
3501	0	32790	32756	
3502	0	32860	32742	
3503	0	32836	32808	
3504	0	32892	32766	
3505	0	32912	32711	
3506	0	32816	32767	
3507	0	32874	32814	
3508	0	32932	32796	
3509	0	32818	32804	
3510	0	32792	32770	
3511	0	32792	32806	
3512	0	32868	32692	
3513	0	32776	32608	
3514	0	32800	32604	
3515	0	32602	32692	
3516	0	32706	32798	
3517	0	32764	32876	
3518	0	32948	32818	
3519	0	32932	32892	
3520	0	33068	33010	
3521	0	33204	32985	
3522	0	33244	32870	
3523	0	33152	32812	
3524	0	33108	32607	
3525	0	33166	32471	
3526	0	32964	32370	
3527	0	32844	32602	
3528	0	32908	32798	
3529	0	32884	32912	
3530	0	32865	33134	
3531	0	32516	32960	
3532	0	32282	32764	
3533	0	31904	32550	
3534	0	31918	32590	
3535	0	31908	32647	
3536	0	32276	32696	
3537	0	32532	32346	
3538	0	32736	32214	
3539	0	32804	32382	
3540	0	32872	32752	
3541	0	32906	32919	
3542	0	32714	32914	
3543	0	32852	32816	
3544	0	32976	32670	
3545	0	32936	32872	
3546	0	32964	32931	
3547	0	32920	32786	
3548	0	33100	32751	
3549	0	33100	32782	
3550	0	33088	32742	
3551	0	33014	32871	
3552	0	32918	32846	
3553	0	32800	32816	
3554	0	32780	32855	
3555	0	32688	32774	
3556	0	32750	32808	
3557	0	32844	32908	
3558	0	32880	32904	
3559	0	32918	32928	
3560	0	32880	32924	
3561	0	32928	32876	
3562	0	32986	33031	
3563	0	33104	32804	
3564	0	32814	32854	
3565	0	32924	32820	
3566	0	32974	32862	
3567	0	33096	33088	
3568	0	33270	33087	
3569	0	33484	32956	
3570	0	33608	32808	
3571	0	33448	32550	
3572	0	32812	32250	
3573	0	32430	32346	
3574	0	32404	32279	
3575	0	32154	32289	
3576	0	32222	32764	
3577	0	32152	33426	
3578	0	32248	33460	
3579	0	32528	33415	
3580	0	32596	33231	
3581	0	32606	32550	
3582	0	32466	32120	
3583	0	32676	31660	
3584	0	32688	31591	
3585	0	32904	31920	
3586	0	32996	32496	
3587	0	33346	32736	
3588	0	33576	32832	
3589	0	33342	33109	
3590	0	32936	32870	
3591	0	32936	32950	
3592	0	32416	32860	
3593	0	32230	32516	
3594	0	32148	32580	
3595	0	32016	32806	
3596	0	31956	32926	
3597	0	32160	33086	
3598	0	32152	33062	
3599	0	32326	32822	
3600	0	32446	32746	
3601	0	32624	32804	
3602	0	32960	32952	
3603	0	33162	32936	
3604	0	33354	32959	
3605	0	33252	32918	
3606	0	33032	33054	
3607	0	33026	33126	
3608	0	33070	33094	
3609	0	33072	33020	
3610	0	33008	33068	
3611	0	32984	32912	
3612	0	32912	32903	
3613	0	32853	32826	
3614	0	32896	32804	
3615	0	32704	32897	
3616	0	32618	32844	
3617	0	32584	32810	
3618	0	32564	32822	
3619	0	32625	32774	
3620	0	32692	32688	
3621	0	32720	32916	
3622	0	32800	32970	
3623	0	32778	32932	
3624	0	32944	32873	
3625	0	32820	32860	
3626	0	33056	32648	
3627	0	33040	32487	
3628	0	33056	32348	
3629	0	33132	32320	
3630	0	33036	32458	
3631	0	32880	32700	
3632	0	32744	33026	
3633	0	32810	33031	
3634	0	32888	32478	
3635	0	33140	32452	
3636	0	33424	32302	
3637	0	33464	32490	
3638	0	33416	32676	
3639	0	33452	32738	
3640	0	33200	32966	
3641	0	33036	32839	
3642	0	32936	32852	
3643	0	32910	32822	
3644	0	32628	32838	
3645	0	32306	32774	
3646	0	32220	32700	
3647	0	31982	32584	
3648	0	31794	32578	
3649	0	32038	32712	
3650	0	32248	32775	
3651	0	32304	32742	
3652	0	32508	32884	
3653	0	32826	32815	
3654	0	32796	32871	
3655	0	32798	32772	
3656	0	32998	32820	
3657	0	33316	32902	
3658	0	33394	32844	
3659	0	33506	32852	
3660	0	33448	32799	
3661	0	33376	32826	
3662	0	33252	32734	
3663	0	33052	32718	
3664	0	32912	32786	
3665	0	33012	32964	
3666	0	33016	32942	
3667	0	33024	32866	
3668	0	32954	32810	
3669	0	32897	32699	
3670	0	32816	32644	
3671	0	32836	32654	
3672	0	32894	32817	
3673	0	32860	33062	
3674	0	32906	33358	
3675	0	32812	33444	
3676	0	32740	32998	
3677	0	32700	32888	
3678	0	32608	32716	
3679	0	32708	32754	
3680	0	32612	33090	
3681	0	32572	33279	
3682	0	32852	32935	
3683	0	33176	32742	
3684	0	33328	33368	
3685	0	33246	33799	
3686	0	33156	33814	
3687	0	33200	33668	
3688	0	32764	33354	
3689	0	32660	32519	
3690	0	32484	32307	
3691	0	32164	31962	
3692	0	32386	31402	
3693	0	32668	30842	
3694	0	32668	30260	
3695	0	32604	29916	
3696	0	32748	29892	
3697	0	32348	30420	
3698	0	32184	31132	
3699	0	32224	31460	
3700	0	32396	31651	
3701	0	32748	31934	
3702	0	32938	32684	
3703	0	32912	33280	
3704	0	32906	34084	
3705	0	32940	34380	
3706	0	32918	34448	
3707	0	32870	34478	
3708	0	32774	34148	
3709	0	32772	34030	
3710	0	32848	33895	
3711	0	32862	33704	
3712	0	32872	33468	
3713	0	32816	33287	
3714	0	32824	33085	
3715	0	32860	33044	
3716	0	32880	33008	
3717	0	32846	32942	
3718	0	32806	33055	
3719	0	32764	32886	
3720	0	32730	32836	
3721	0	32692	32908	
3722	0	32774	32844	
3723	0	32814	32854	
3724	0	32796	33198	
3725	0	32840	32952	
3726	0	32886	32920	
3727	0	32888	33016	
3728	0	32884	32961	
3729	0	32892	33250	
3730	0	32900	33398	
3731	0	32976	33068	
3732	0	32934	32540	
3733	0	32940	32192	
3734	0	32842	32294	
3735	0	32760	32508	
3736	0	32736	32934	
3737	0	32728	33130	
3738	0	32832	33230	
3739	0	32922	33528	
3740	0	32896	33496	
3741	0	32776	33268	
3742	0	32596	32775	
3743	0	32456	32476	
3744	0	32460	32286	
3745	0	32548	32052	
3746	0	32480	31462	
3747	0	32664	30876	
3748	0	32780	30744	
3749	0	32860	30703	
3750	0	32976	30942	
3751	0	32916	31351	
3752	0	32878	31768	
3753	0	32780	32446	
3754	0	32876	33159	
3755	0	32848	33520	
3756	0	32792	33620	
3757	0	32834	33758	
3758	0	32828	33985	
3759	0	32864	33814	
3760	0	32908	33742	
3761	0	32848	33536	
3762	0	32818	33382	
3763	0	32800	33191	
3764	0	32918	33076	
3765	0	32916	33010	
3766	0	32878	33084	
3767	0	32856	32967	
3768	0	32800	32980	
3769	0	32800	32872	
3770	0	32804	32824	
3771	0	32856	32708	
3772	0	32968	32796	
3773	0	32844	32775	
3774	0	32852	32648	
3775	0	32956	32660	
3776	0	32878	32660	
3777	0	32800	32612	
3778	0	32828	32684	
3779	0	32820	32570	
3780	0	32836	32590	
3781	0	32832	32679	
3782	0	33060	32708	
3783	0	33258	32614	
3784	0	33360	32968	
3785	0	33060	33060	
3786	0	32684	33182	
3787	0	32492	32983	
3788	0	32460	32496	
3789	0	32788	32430	
3790	0	32773	32550	
3791	0	32676	32611	
3792	0	32818	32921	
3793	0	33290	33237	
3794	0	33214	33527	
3795	0	32548	34012	
3796	0	32224	34215	
3797	0	32028	34830	
3798	0	31960	34856	
3799	0	32154	33364	
3800	0	32527	31846	
3801	0	32994	30786	
3802	0	33308	30324	
3803	0	33192	30206	
3804	0	33104	30145	
3805	0	32988	29959	
3806	0	32890	30092	
3807	0	32870	30690	
3808	0	32856	31514	
3809	0	33198	32312	
3810	0	33004	33028	
3811	0	32880	33206	
3812	0	32980	33436	
3813	0	32868	33497	
3814	0	32808	33831	
3815	0	32760	34020	
3816	0	32716	33934	
3817	0	32688	33678	
3818	0	32788	33474	
3819	0	32752	33264	
3820	0	32734	33108	
3821	0	32628	33111	
3822	0	32816	33070	
3823	0	32984	33127	
3824	0	33028	33028	
3825	0	32900	33054	
3826	0	32804	32956	
3827	0	32837	32920	
3828	0	32914	32984	
3829	0	32660	32847	
3830	0	32516	32878	
3831	0	32616	32834	
3832	0	32428	32719	
3833	0	32272	32748	
3834	0	32476	32634	
3835	0	33000	32618	
3836	0	33232	32671	
3837	0	33212	32720	
3838	0	33280	32722	
3839	0	33004	32775	
3840	0	32764	32654	
3841	0	32542	32642	
3842	0	31980	32725	
3843	0	32096	32600	
3844	0	32240	32605	
3845	0	32456	32628	
3846	0	32738	32486	
3847	0	33050	32388	
3848	0	33320	32358	
3849	0	33368	32542	
3850	0	33448	32748	
3851	0	33088	32794	
3852	0	32924	32830	
3853	0	32680	32914	
3854	0	32684	32976	
3855	0	32544	32948	
3856	0	32646	32864	
3857	0	32868	32696	
3858	0	32980	32572	
3859	0	33188	32446	
3860	0	33444	32554	
3861	0	33572	32752	
3862	0	32985	32884	
3863	0	32092	32951	
3864	0	31654	32896	
3865	0	31408	32852	
3866	0	31956	32828	
3867	0	32808	32998	
3868	0	33516	32972	
3869	0	33584	33100	
3870	0	33268	33069	
3871	0	32776	33344	
3872	0	32738	33386	
3873	0	32858	33190	
3874	0	32758	32992	
3875	0	32520	32747	
3876	0	32522	32591	
3877	0	32692	32335	
3878	0	32944	32098	
3879	0	32968	31968	
3880	0	32884	31600	
3881	0	32912	31461	
3882	0	32846	31662	
3883	0	32704	31944	
3884	0	32716	32048	
3885	0	32702	32292	
3886	0	32760	32678	
3887	0	32774	32983	
3888	0	32789	33242	
3889	0	32796	33366	
3890	0	32764	33479	
3891	0	32806	33412	
3892	0	32832	33254	
3893	0	32764	33148	
3894	0	32775	33128	
3895	0	32754	32876	
3896	0	32744	32924	
3897	0	32872	32979	
3898	0	32772	32982	
3899	0	32800	32895	
3900	0	32782	32878	
3901	0	32688	32796	
3902	0	32696	32860	
3903	0	32676	32786	
3904	0	32590	32775	
3905	0	32920	32884	
3906	0	33108	32916	
3907	0	33122	32918	
3908	0	33350	32896	
3909	0	33240	32775	
3910	0	32540	32692	
3911	0	32220	32682	
3912	0	32548	32508	
3913	0	32922	32564	
3914	0	32686	32918	
3915	0	32678	33202	
3916	0	32544	33356	
3917	0	32340	33380	
3918	0	32568	33150	
3919	0	32924	32712	
3920	0	32832	32440	
3921	0	32918	32444	
3922	0	32926	32486	
3923	0	33022	32484	
3924	0	33060	32428	
3925	0	33010	32513	
3926	0	33094	32492	
3927	0	33009	32498	
3928	0	33086	32615	
3929	0	32720	32481	
3930	0	32788	32308	
3931	0	32936	32401	
3932	0	33110	32540	
3933	0	32853	32555	
3934	0	32484	32550	
3935	0	32276	32662	
3936	0	32368	32869	
3937	0	32720	33080	
3938	0	33320	32887	
3939	0	33240	32880	
3940	0	32974	32903	
3941	0	32660	32948	
3942	0	32560	32990	
3943	0	32484	33003	
3944	0	32448	33086	
3945	0	32696	33060	
3946	0	32768	32984	
3947	0	32836	32903	
3948	0	32858	32892	
3949	0	32764	32916	
3950	0	32728	32775	
3951	0	32788	32682	
3952	0	32900	32798	
3953	0	32824	32998	
3954	0	32780	32996	
3955	0	32868	32836	
3956	0	32888	32748	
3957	0	32996	32775	
3958	0	33026	32706	
3959	0	33140	32876	
3960	0	33034	32760	
3961	0	32874	32784	
3962	0	32606	32826	
3963	0	32512	32828	
3964	0	32530	32726	
3965	0	32484	32612	
3966	0	32982	32602	
3967	0	33046	32647	
3968	0	32816	32664	
3969	0	32580	32718	
3970	0	32504	32704	
3971	0	32734	32713	
3972	0	32832	32903	
3973	0	32864	32884	
3974	0	32844	32978	
3975	0	32932	32952	
3976	0	33080	32791	
3977	0	33012	32609	
3978	0	32884	32519	
3979	0	32800	32572	
3980	0	32847	32642	
3981	0	32692	32532	
3982	0	32710	32504	
3983	0	32656	32672	
3984	0	32852	32612	
3985	0	32740	32652	
3986	0	32576	32830	
3987	0	32708	32980	
3988	0	32830	32950	
3989	0	32576	32909	
3990	0	32548	33086	
3991	0	32504	33054	
3992	0	32482	32844	
3993	0	32578	32660	
3994	0	32604	32626	
3995	0	32892	32754	
3996	0	33202	32757	
3997	0	33340	32560	
3998	0	33176	32515	
3999	0	32860	32480	
4000	0	32760	32512	
4001	0	32842	32778	
4002	0	32784	32772	
4003	0	32804	32871	
4004	0	32929	33002	
4005	0	32970	32974	
4006	0	32872	32822	
4007	0	32870	32775	
4008	0	32768	32732	
4009	0	32730	32692	
4010	0	32712	32664	
4011	0	32688	32660	
4012	0	32532	32612	
4013	0	32576	32596	
4014	0	32630	32772	
4015	0	32704	32817	
4016	0	32828	32804	
4017	0	32852	32743	
4018	0	32784	32840	
4019	0	32775	32832	
4020	0	32864	32903	
4021	0	32804	32842	
4022	0	32796	32858	
4023	0	32852	32808	
4024	0	32912	32842	
4025	0	32856	32817	
4026	0	32896	32775	
4027	0	33148	32700	
4028	0	33284	32775	
4029	0	33294	32760	
4030	0	33068	32846	
4031	0	32710	32789	
4032	0	32038	32714	
4033	0	32040	32838	
4034	0	32684	32710	
4035	0	33220	32690	
4036	0	32980	32818	
4037	0	32806	32760	
4038	0	32834	32822	
4039	0	32948	32799	
4040	0	32904	32606	
4041	0	33088	32608	
4042	0	32712	32633	
4043	0	32604	32647	
4044	0	32616	32838	
4045	0	32488	32758	
4046	0	32392	32775	
4047	0	32708	32720	
4048	0	33270	32792	
4049	0	33196	32704	
4050	0	32944	32652	
4051	0	32912	32698	
4052	0	32770	32768	
4053	0	33004	32802	
4054	0	33124	32817	
4055	0	33364	32730	
4056	0	33140	32761	
4057	0	32728	32740	
4058	0	32756	32712	
4059	0	32460	32863	
4060	0	32516	32830	
4061	0	32346	32660	
4062	0	32360	32656	
4063	0	32624	32610	
4064	0	33044	32660	
4065	0	33032	32662	
4066	0	32912	32686	
4067	0	32682	32796	
4068	0	32790	32692	
4069	0	32928	32760	
4070	0	32920	32862	
4071	0	32972	32748	
4072	0	32936	32688	
4073	0	32916	32724	
4074	0	32970	32703	
4075	0	33008	32852	
4076	0	32988	32680	
4077	0	32992	32800	
4078	0	32936	32800	
4079	0	32908	32740	
4080	0	32944	32820	
4081	0	32942	32910	
4082	0	32970	32870	
4083	0	32866	32868	
4084	0	32880	32727	
4085	0	32920	32920	
4086	0	32868	32842	
4087	0	32880	32912	
4088	0	32774	32871	
4089	0	32718	32838	
4090	0	32782	32898	
4091	0	32884	32863	
4092	0	32952	32876	
4093	0	33028	32903	
4094	0	33008	32949	
4095	0	32934	32712	
4096	0	32880	32764	
4097	0	33160	32750	
4098	0	33296	32694	
4099	0	33034	32681	
4100	0	32836	32775	
4101	0	33094	32668	
4102	0	32572	32548	
4103	0	32384	32689	
4104	0	32356	32826	
4105	0	31992	33054	
4106	0	31844	33128	
4107	0	32288	33073	
4108	0	32404	33622	
4109	0	32306	33696	
4110	0	32360	33414	
4111	0	32916	33024	
4112	0	33000	32710	
4113	0	32718	32679	
4114	0	32848	32882	
4115	0	33154	32746	
4116	0	33068	32183	
4117	0	32856	31618	
4118	0	32788	31274	
4119	0	32920	31428	
4120	0	33016	31696	
4121	0	33018	31734	
4122	0	33024	32071	
4123	0	33118	32398	
4124	0	32936	32506	
4125	0	33020	32715	
4126	0	33015	32774	
4127	0	33058	32974	
4128	0	32940	33159	
4129	0	32919	33114	
4130	0	32804	32977	
4131	0	32824	33092	
4132	0	32822	32958	
4133	0	32780	32960	
4134	0	32788	32882	
4135	0	32914	32786	
4136	0	32898	32912	
4137	0	32934	32900	
4138	0	32864	32823	
4139	0	32872	32820	
4140	0	32692	32876	
4141	0	32738	32888	
4142	0	32648	32922	
4143	0	32704	32884	
4144	0	32666	32944	
4145	0	32618	32932	
4146	0	32484	33110	
4147	0	32436	33052	
4148	0	32428	33070	
4149	0	32464	33100	
4150	0	32572	33022	
4151	0	32560	32980	
4152	0	32640	33016	
4153	0	32660	32910	
4154	0	32760	32959	
4155	0	32772	32810	
4156	0	32772	32764	
4157	0	32836	32746	
4158	0	33018	32766	
4159	0	33098	32686	
4160	0	33186	32652	
4161	0	33130	32623	
4162	0	33018	32700	
4163	0	32672	32604	
4164	0	32612	32724	
4165	0	32512	32853	
4166	0	32536	32774	
4167	0	32736	32772	
4168	0	32704	32716	
4169	0	32772	32754	
4170	0	32896	32908	
4171	0	32824	32898	
4172	0	32984	32932	
4173	0	32924	32872	
4174	0	33024	32840	
4175	0	32996	32775	
4176	0	33062	32634	
4177	0	33084	32647	
4178	0	33100	32669	
4179	0	33036	32628	
4180	0	32844	32469	
4181	0	32844	32404	
4182	0	32784	32540	
4183	0	32748	32571	
4184	0	32936	32580	
4185	0	32826	32655	
4186	0	32886	32740	
4187	0	32872	32726	
4188	0	32744	32768	
4189	0	32724	32646	
4190	0	32784	32722	
4191	0	32836	32799	
4192	0	32892	32792	
4193	0	32932	32792	
4194	0	32994	32796	
4195	0	33038	32774	
4196	0	33128	32670	
4197	0	33088	32641	
4198	0	33044	32622	
4199	0	32913	32684	
4200	0	32920	32614	
4201	0	32856	32647	
4202	0	32808	32704	
4203	0	32820	32600	
4204	0	32842	32622	
4205	0	32908	32690	
4206	0	32812	32614	
4207	0	32766	32647	
4208	0	32712	32775	
4209	0	32636	32692	
4210	0	32672	32698	
4211	0	32660	32650	
4212	0	32642	32791	
4213	0	32676	32792	
4214	0	32616	32622	
4215	0	32722	32716	
4216	0	32776	32730	
4217	0	32714	32764	
4218	0	32644	32718	
4219	0	32852	32764	
4220	0	32972	32746	
4221	0	32880	32912	
4222	0	32887	33137	
4223	0	32724	33002	
4224	0	32208	32852	
4225	0	32014	32780	
4226	0	32188	32611	
4227	0	32488	32700	
4228	0	32634	32654	
4229	0	32604	32772	
4230	0	32544	32716	
4231	0	32544	32560	
4232	0	32388	32412	
4233	0	32550	32399	
4234	0	32756	32574	
4235	0	32852	32816	
4236	0	32838	32944	
4237	0	32852	32986	
4238	0	32794	32948	
4239	0	32806	32925	
4240	0	32788	32716	
4241	0	32801	32670	
4242	0	32820	32677	
4243	0	32852	32694	
4244	0	32872	32738	
4245	0	32852	32716	
4246	0	32948	32692	
4247	0	32858	32751	
4248	0	32788	32742	
4249	0	32824	32696	
4250	0	32852	32768	
4251	0	32902	32748	
4252	0	32908	32848	
4253	0	32970	32750	
4254	0	32996	32775	
4255	0	33076	32903	
4256	0	33020	32775	
4257	0	32998	32732	
4258	0	33192	32835	
4259	0	33184	32966	
4260	0	32996	32868	
4261	0	32804	32838	
4262	0	32760	32914	
4263	0	32128	32976	
4264	0	31972	32903	
4265	0	32092	32894	
4266	0	32204	32748	
4267	0	32372	32646	
4268	0	32824	32654	
4269	0	32900	32734	
4270	0	32976	32830	
4271	0	33148	32764	
4272	0	32990	32734	
4273	0	32972	32800	
4274	0	33046	32764	
4275	0	32932	32857	
4276	0	32832	32847	
4277	0	32796	32742	
4278	0	32916	32821	
4279	0	33020	32866	
4280	0	32800	32828	
4281	0	32940	32840	
4282	0	33216	32793	
4283	0	33160	32747	
4284	0	32996	32740	
4285	0	32740	32756	
4286	0	32532	32766	
4287	0	32148	32880	
4288	0	32270	32824	
4289	0	32738	32823	
4290	0	32878	32822	
4291	0	32802	32826	
4292	0	32728	32800	
4293	0	32674	32818	
4294	0	32828	32790	
4295	0	32972	32732	
4296	0	33018	32746	
4297	0	33032	32788	
4298	0	32964	32772	
4299	0	33058	32750	
4300	0	32776	32768	
4301	0	32594	32711	
4302	0	32666	32688	
4303	0	32728	32810	
4304	0	32644	32752	
4305	0	32760	32820	
4306	0	32880	32740	
4307	0	32880	32757	
4308	0	32882	32775	
4309	0	32900	32820	
4310	0	32841	32692	
4311	0	32898	32704	
4312	0	32868	32726	
4313	0	32868	32750	
4314	0	32944	32810	
4315	0	32904	32840	
4316	0	32928	32864	
4317	0	32954	32870	
4318	0	32876	32828	
4319	0	32878	32758	
4320	0	32876	32644	
4321	0	32812	32702	
4322	0	32844	32631	
4323	0	32828	32610	
4324	0	32852	32496	
4325	0	32904	32668	
4326	0	32888	32640	
4327	0	32852	32760	
4328	0	32894	32804	
4329	0	32840	32800	
4330	0	32884	32728	
4331	0	32806	32880	
4332	0	32840	32916	
4333	0	32920	32870	
4334	0	32968	32816	
4335	0	32976	32751	
4336	0	32860	32796	
4337	0	32816	32932	
4338	0	32816	32858	
4339	0	32858	32697	
4340	0	32812	32594	
4341	0	32696	32636	
4342	0	32740	32665	
4343	0	32788	32689	
4344	0	32768	32670	
4345	0	32736	32673	
4346	0	32728	32722	
4347	0	32784	32788	
4348	0	32768	32743	
4349	0	32838	32700	
4350	0	32898	32868	
4351	0	32872	32863	
4352	0	32800	32775	
4353	0	32746	32708	
4354	0	32896	32742	
4355	0	32812	32718	
4356	0	32834	32802	
4357	0	32894	32740	
4358	0	32832	32637	
4359	0	32820	32628	
4360	0	32956	32579	
4361	0	33006	32698	
4362	0	32982	32946	
4363	0	32940	32742	
4364	0	32888	32696	
4365	0	32927	32764	
4366	0	32980	32775	
4367	0	33040	32770	
4368	0	32800	32424	
4369	0	32772	32122	
4370	0	32732	32066	
4371	0	32768	32244	
4372	0	32754	32546	
4373	0	32856	32896	
4374	0	33048	33176	
4375	0	32876	33255	
4376	0	32696	33126	
4377	0	32552	32916	
4378	0	32369	32671	
4379	0	32320	32696	
4380	0	32321	32796	
4381	0	32366	33018	
4382	0	32384	32908	
4383	0	32628	32951	
4384	0	32680	32714	
4385	0	32604	32775	
4386	0	32824	32647	
4387	0	32816	32652	
4388	0	32932	32750	
4389	0	33076	32948	
4390	0	33228	32990	
4391	0	33284	32970	
4392	0	33206	32886	
4393	0	33248	32962	
4394	0	33120	32836	
4395	0	32950	32728	
4396	0	32624	32598	
4397	0	32520	32590	
4398	0	32440	32686	
4399	0	32416	32760	
4400	0	32508	32775	
4401	0	32580	32918	
4402	0	32796	32942	
4403	0	32880	33023	
4404	0	32913	32976	
4405	0	32946	32902	
4406	0	32932	32902	
4407	0	32908	32808	
4408	0	33064	32812	
4409	0	32992	32804	
4410	0	33036	32871	
4411	0	32929	32836	
4412	0	32798	32759	
4413	0	32652	32816	
4414	0	32564	32784	
4415	0	32576	32700	
4416	0	32668	32642	
4417	0	32885	32704	
4418	0	32956	32673	
4419	0	32948	32647	
4420	0	32908	32679	
4421	0	32872	32775	
4422	0	32860	32715	
4423	0	32874	32847	
4424	0	32816	32730	
4425	0	32924	32740	
4426	0	32944	32775	
4427	0	32992	32863	
4428	0	32908	32824	
4429	0	32844	32967	
4430	0	32620	32810	
4431	0	32496	32860	
4432	0	32432	32792	
4433	0	32524	32788	
4434	0	32688	32892	
4435	0	32992	32822	
4436	0	33020	32804	
4437	0	33016	32878	
4438	0	33016	32806	
4439	0	33014	32706	
4440	0	32960	32695	
4441	0	32988	32804	
4442	0	33058	32798	
4443	0	33002	32852	
4444	0	32942	32714	
4445	0	32728	32704	
4446	0	32520	32714	
4447	0	32792	32764	
4448	0	32812	32754	
4449	0	32764	32638	
4450	0	32812	32712	
4451	0	32772	32684	
4452	0	32740	32682	
4453	0	32692	32634	
4454	0	32760	32707	
4455	0	32780	32750	
4456	0	32896	32802	
4457	0	33032	32818	
4458	0	33152	32844	
4459	0	33036	32680	
4460	0	32964	32760	
4461	0	32816	32742	
4462	0	32616	32830	
4463	0	32708	32750	
4464	0	32808	32724	
4465	0	32692	32750	
4466	0	32786	32836	
4467	0	32744	32734	
4468	0	32774	32834	
4469	0	32768	32732	
4470	0	32761	32615	
4471	0	32852	32644	
4472	0	32832	32696	
4473	0	32796	32828	
4474	0	32800	32684	
4475	0	32796	32775	
4476	0	32868	32756	
4477	0	32948	32775	
4478	0	32980	32937	
4479	0	32904	32762	
4480	0	32812	32847	
4481	0	32780	32900	
4482	0	32768	32894	
4483	0	32812	32830	
4484	0	32808	32802	
4485	0	32808	32830	
4486	0	32800	32734	
4487	0	32732	32775	
4488	0	32817	32837	
4489	0	32764	32861	
4490	0	32816	32742	
4491	0	32756	32693	
4492	0	32796	32748	
4493	0	32864	32614	
4494	0	32852	32559	
4495	0	32884	32749	
4496	0	32960	32714	
4497	0	32916	32696	
4498	0	33016	32744	
4499	0	32988	32678	
4500	0	33022	32740	
4501	0	32692	32828	
4502	0	32436	32826	
4503	0	32440	32800	
4504	0	32544	32742	
4505	0	32584	32775	
4506	0	32600	32840	
4507	0	32636	32684	
4508	0	32764	32622	
4509	0	32926	32735	
4510	0	32928	32782	
4511	0	32744	32846	
4512	0	32814	32730	
4513	0	32820	32756	
4514	0	32838	32684	
4515	0	32744	32655	
4516	0	32910	32583	
4517	0	32852	32736	
4518	0	32970	32788	
4519	0	32892	32803	
4520	0	32862	32796	
4521	0	32876	32839	
4522	0	32800	32728	
4523	0	32826	32716	
4524	0	32776	32718	
4525	0	32744	32742	
4526	0	32752	32806	
4527	0	32800	32775	
4528	0	32780	32850	
4529	0	32792	32760	
4530	0	32816	32807	
4531	0	32776	32830	
4532	0	32792	32756	
4533	0	32768	32856	
4534	0	32804	32714	
4535	0	32817	32654	
4536	0	32812	32692	
4537	0	32721	32686	
4538	0	32796	32746	
4539	0	32856	32730	
4540	0	32784	32828	
4541	0	32800	32775	
4542	0	32812	32896	
4543	0	32840	32758	
4544	0	32864	32738	
4545	0	32800	32718	
4546	0	32760	32834	
4547	0	32696	32690	
4548	0	32774	32628	
4549	0	32882	32722	
4550	0	32936	32738	
4551	0	32962	32812	
4552	0	32986	32806	
4553	0	33056	32720	
4554	0	32852	32806	
4555	0	32672	32894	
4556	0	32744	32815	
4557	0	32680	32918	
4558	0	32492	32702	
4559	0	32650	32719	
4560	0	32704	32774	
4561	0	32752	32786	
4562	0	32928	32831	
4563	0	32708	32796	
4564	0	32584	32730	
4565	0	32700	32734	
4566	0	32608	32863	
4567	0	32496	32686	
4568	0	32604	32734	
4569	0	32758	32727	
4570	0	32828	32671	
4571	0	32792	32766	
4572	0	32884	32775	
4573	0	32910	32774	
4574	0	32800	32764	
4575	0	32782	32926	
4576	0	33054	32894	
4577	0	33172	32843	
4578	0	33340	32804	
4579	0	33304	32736	
4580	0	33240	32724	
4581	0	32862	32726	
4582	0	32984	32718	
4583	0	33220	32694	
4584	0	32824	32679	
4585	0	32888	32710	
4586	0	32980	32775	
4587	0	32972	32852	
4588	0	32612	32878	
4589	0	32056	32918	
4590	0	31904	32956	
4591	0	31976	32832	
4592	0	32508	32666	
4593	0	32824	32647	
4594	0	33008	32744	
4595	0	33188	32647	
4596	0	33226	32673	
4597	0	33318	32680	
4598	0	33508	32775	
4599	0	33452	32774	
4600	0	33006	32886	
4601	0	32820	32922	
4602	0	32778	32894	
4603	0	32188	32760	
4604	0	31884	32610	
4605	0	32354	32612	
4606	0	32816	32564	
4607	0	32592	32702	
4608	0	32822	32762	
4609	0	32835	32727	
4610	0	32910	32726	
4611	0	32940	32826	
4612	0	33106	32662	
4613	0	32940	32660	
4614	0	32832	32956	
4615	0	32752	32743	
4616	0	32724	32916	
4617	0	32641	32894	
4618	0	32704	32822	
4619	0	32942	32968	
4620	0	33018	33030	
4621	0	32696	32924	
4622	0	32545	32733	
4623	0	32444	32492	
4624	0	32565	32372	
4625	0	32500	32424	
4626	0	32580	32530	
4627	0	32652	32594	
4628	0	32798	32694	
4629	0	32880	32810	
4630	0	33146	32750	
4631	0	33028	32886	
4632	0	32988	32878	
4633	0	33126	32924	
4634	0	32928	33140	
4635	0	32612	32860	
4636	0	32586	32831	
4637	0	32724	32735	
4638	0	32780	32696	
4639	0	32968	32575	
4640	0	33148	32623	
4641	0	33144	32690	
4642	0	32966	32668	
4643	0	32868	32792	
4644	0	32796	32881	
4645	0	32736	32903	
4646	0	32756	32972	
4647	0	32780	32908	
4648	0	32816	32852	
4649	0	32796	32790	
4650	0	32840	32775	
4651	0	32884	32828	
4652	0	32940	32860	
4653	0	32968	32967	
4654	0	32896	32774	
4655	0	32757	32682	
4656	0	32836	32686	
4657	0	32828	32558	
4658	0	32704	32796	
4659	0	32700	32960	
4660	0	32744	32839	
4661	0	32708	32798	
4662	0	32698	32788	
4663	0	32756	32706	
4664	0	32836	32858	
4665	0	32958	32845	
4666	0	32956	32902	
4667	0	32900	32932	
4668	0	32996	33025	
4669	0	32841	33076	
4670	0	32708	33142	
4671	0	32508	32958	
4672	0	32521	32775	
4673	0	32650	32596	
4674	0	32660	32736	
4675	0	32706	32662	
4676	0	32856	32834	
4677	0	32922	32602	
4678	0	32920	32576	
4679	0	32788	32598	
4680	0	32880	32662	
4681	0	32858	32718	
4682	0	32846	32694	
4683	0	32762	32558	
4684	0	32720	32708	
4685	0	32712	33087	
4686	0	32704	33190	
4687	0	32776	33074	
4688	0	32960	33164	
4689	0	33230	32784	
4690	0	33226	32540	
4691	0	33334	32560	
4692	0	33230	32361	
4693	0	33140	32534	
4694	0	33128	32560	
4695	0	32944	32572	
4696	0	32944	32439	
4697	0	32820	32324	
4698	0	32398	32238	
4699	0	32064	32356	
4700	0	31962	32263	
4701	0	32050	32318	
4702	0	31948	32574	
4703	0	32176	32689	
4704	0	32560	32748	
4705	0	32904	32743	
4706	0	32988	32916	
4707	0	33072	33326	
4708	0	33024	33484	
4709	0	33050	33332	
4710	0	33118	33212	
4711	0	33236	33159	
4712	0	33320	32918	
4713	0	33256	32748	
4714	0	33228	33415	
4715	0	32772	33766	
4716	0	32176	33624	
4717	0	32414	33766	
4718	0	33028	33404	
4719	0	33174	33188	
4720	0	33164	33402	
4721	0	33262	33658	
4722	0	33060	33814	
4723	0	32644	33447	
4724	0	32632	32676	
4725	0	32880	31726	
4726	0	32598	30668	
4727	0	32632	29956	
4728	0	32428	29562	
4729	0	32302	29881	
4730	0	32676	30393	
4731	0	32800	31041	
4732	0	32852	31676	
4733	0	32872	32414	
4734	0	32963	33094	
4735	0	32750	33836	
4736	0	32604	34328	
4737	0	32728	34151	
4738	0	32804	33998	
4739	0	32698	33686	
4740	0	32710	33543	
4741	0	32600	33439	
4742	0	32640	32962	
4743	0	32832	32684	
4744	0	32940	32624	
4745	0	33150	32667	
4746	0	33212	32692	
4747	0	33304	32906	
4748	0	33432	32844	
4749	0	32960	32967	
4750	0	32220	33088	
4751	0	31988	33218	
4752	0	32632	33212	
4753	0	33118	32964	
4754	0	33220	32807	
4755	0	32784	32775	
4756	0	32496	32746	
4757	0	32540	32788	
4758	0	33244	32908	
4759	0	33808	32990	
4760	0	33880	32976	
4761	0	33782	32896	
4762	0	33496	32938	
4763	0	33128	32818	
4764	0	32930	32876	
4765	0	32706	32762	
4766	0	32334	32440	
4767	0	32322	33128	
4768	0	32256	33740	
4769	0	32364	33684	
4770	0	32196	33574	
4771	0	32136	33230	
4772	0	31862	33031	
4773	0	31934	33287	
4774	0	31978	33170	
4775	0	31816	32814	
4776	0	32000	32596	
4777	0	32024	32040	
4778	0	32190	31668	
4779	0	32348	31504	
4780	0	32890	31692	
4781	0	33256	31978	
4782	0	33428	31538	
4783	0	33490	31398	
4784	0	33448	31170	
4785	0	33512	31311	
4786	0	33541	31772	
4787	0	33440	32774	
4788	0	33410	33498	
4789	0	33362	33808	
4790	0	33268	33728	
4791	0	33152	33262	
4792	0	33006	32700	
4793	0	32852	32366	
4794	0	32916	32202	
4795	0	33010	32071	
4796	0	33108	32054	
4797	0	32988	32284	
4798	0	32628	32676	
4799	0	32284	33308	
4800	0	32212	33788	
4801	0	32172	34080	
4802	0	32248	33948	
4803	0	32820	33748	
4804	0	33700	33636	
4805	0	34008	33396	
4806	0	34092	33026	
4807	0	33932	32824	
4808	0	33664	32735	
4809	0	33460	33462	
4810	0	33100	33990	
4811	0	32896	33766	
4812	0	32540	33724	
4813	0	31802	33638	
4814	0	31225	33668	
4815	0	31144	33854	
4816	0	30846	34232	
4817	0	31200	34156	
4818	0	31638	33744	
4819	0	31884	32304	
4820	0	31928	31084	
4821	0	32196	30110	
4822	0	32609	30029	
4823	0	32968	30260	
4824	0	33166	31464	
4825	0	33218	31495	
4826	0	33457	31462	
4827	0	33664	31052	
4828	0	33806	30852	
4829	0	33738	30657	
4830	0	33520	30860	
4831	0	33320	31582	
4832	0	33148	32414	
4833	0	33204	32775	
4834	0	33092	33576	
4835	0	32940	34144	
4836	0	33002	33932	
4837	0	32841	33814	
4838	0	32744	33814	
4839	0	32944	33601	
4840	0	33188	33406	
4841	0	33334	33280	
4842	0	33088	33307	
4843	0	33082	33392	
4844	0	33060	33488	
4845	0	32858	33351	
4846	0	32615	33134	
4847	0	32212	32856	
4848	0	31716	32792	
4849	0	32074	32492	
4850	0	32896	32481	
4851	0	33288	32288	
4852	0	33524	32362	
4853	0	33564	32648	
4854	0	33944	33062	
4855	0	34222	33272	
4856	0	34312	33108	
4857	0	34272	32940	
4858	0	33624	32990	
4859	0	32778	32762	
4860	0	32108	32584	
4861	0	31780	32336	
4862	0	31288	32642	
4863	0	30254	32652	
4864	0	29876	32964	
4865	0	29968	33198	
4866	0	30890	33409	
4867	0	31256	33369	
4868	0	31718	33742	
4869	0	32396	33958	
4870	0	32976	34110	
4871	0	33282	34028	
4872	0	33364	33730	
4873	0	33322	33308	
4874	0	33364	32506	
4875	0	33380	32020	
4876	0	33430	31606	
4877	0	33464	31422	
4878	0	33442	31367	
4879	0	33376	31283	
4880	0	33392	31320	
4881	0	33252	31268	
4882	0	33150	31495	
4883	0	33226	32354	
4884	0	33368	32806	
4885	0	33232	33496	
4886	0	33136	33958	
4887	0	32942	34006	
4888	0	32644	34424	
4889	0	32376	35440	
4890	0	32676	35324	
4891	0	32772	34662	
4892	0	33090	33690	
4893	0	33460	32444	
4894	0	33912	31234	
4895	0	33892	30864	
4896	0	33832	30794	
4897	0	33590	30168	
4898	0	33324	29756	
4899	0	33152	30186	
4900	0	32968	30544	
4901	0	32434	31548	
4902	0	31876	32268	
4903	0	31656	33316	
4904	0	31828	33671	
4905	0	31432	34033	
4906	0	31390	34452	
4907	0	31498	34804	
4908	0	31892	35164	
4909	0	32654	34392	
4910	0	32892	33607	
4911	0	32794	32910	
4912	0	32848	32903	
4913	0	32772	32924	
4914	0	32716	33236	
4915	0	32700	33218	
4916	0	32830	33508	
4917	0	33092	32844	
4918	0	33258	32238	
4919	0	33056	31040	
4920	0	33172	30030	
4921	0	33044	30004	
4922	0	33188	30476	
4923	0	33244	30698	
4924	0	33234	30980	
4925	0	33172	31848	
4926	0	33056	32712	
4927	0	33028	33598	
4928	0	33166	33540	
4929	0	32922	33375	
4930	0	32782	33438	
4931	0	32998	33782	
4932	0	33016	33604	
4933	0	33236	33222	
4934	0	33484	33430	
4935	0	34020	35332	
4936	0	34220	35815	
4937	0	34458	34822	
4938	0	34500	34531	
4939	0	34408	34475	
4940	0	33480	34788	
4941	0	32540	34092	
4942	0	31438	32960	
4943	0	30784	31562	
4944	0	30444	30312	
4945	0	29858	29780	
4946	0	29820	29826	
4947	0	29880	29731	
4948	0	30671	29974	
4949	0	31112	30610	
4950	0	31692	31119	
4951	0	32340	31846	
4952	0	32628	32284	
4953	0	33212	32612	
4954	0	33560	33244	
4955	0	33744	33940	
4956	0	33916	34092	
4957	0	34098	34282	
4958	0	33828	34412	
4959	0	34012	34254	
4960	0	34228	33745	
4961	0	33800	33892	
4962	0	33412	34134	
4963	0	32928	33582	
4964	0	32940	33050	
4965	0	32868	32671	
4966	0	33056	32426	
4967	0	33294	32838	
4968	0	33305	33212	
4969	0	33186	32874	
4970	0	33076	32510	
4971	0	32968	32260	
4972	0	32824	31845	
4973	0	32672	31996	
4974	0	32692	31751	
4975	0	32588	31408	
4976	0	32820	31577	
4977	0	32960	32458	
4978	0	33116	33212	
4979	0	32900	33352	
4980	0	32644	33472	
4981	0	32864	33360	
4982	0	32688	33242	
4983	0	32624	33423	
4984	0	32458	34054	
4985	0	32628	33860	
4986	0	32752	33751	
4987	0	32764	34016	
4988	0	32430	35252	
4989	0	32540	35636	
4990	0	32656	35204	
4991	0	32588	34439	
4992	0	32572	33886	
4993	0	32752	33231	
4994	0	32856	32060	
4995	0	32820	30556	
4996	0	32832	29322	
4997	0	33042	28232	
4998	0	33280	28158	
4999	0	33136	28844	
5000	0	33268	29338	
5001	0	33032	30362	
5002	0	32610	31572	
5003	0	32724	31982	
5004	0	32730	31800	
5005	0	32920	32036	
5006	0	32792	32344	
5007	0	33008	32682	
5008	0	32838	33314	
5009	0	32702	34086	
5010	0	32760	34177	
5011	0	33000	34566	
5012	0	33050	34650	
5013	0	32826	34492	
5014	0	32674	34804	
5015	0	32732	34796	
5016	0	32862	34598	
5017	0	32756	33836	
5018	0	32609	33052	
5019	0	32636	32654	
5020	0	32808	32743	
5021	0	32486	32564	
5022	0	32564	33332	
5023	0	32634	34574	
5024	0	32932	34344	
5025	0	33280	34590	
5026	0	33518	34380	
5027	0	33484	34139	
5028	0	32894	33444	
5029	0	32954	32888	
5030	0	32984	32040	
5031	0	32736	31829	
5032	0	32456	32410	
5033	0	31896	32302	
5034	0	31784	31402	
5035	0	32276	30612	
5036	0	32576	30022	
5037	0	32732	29872	
5038	0	32610	30686	
5039	0	32404	31070	
5040	0	32772	31710	
5041	0	32932	31740	
5042	0	32868	31838	
5043	0	33076	32382	
5044	0	33096	32906	
5045	0	33140	33018	
5046	0	33192	32628	
5047	0	33090	32550	
5048	0	32994	32630	
5049	0	32766	32752	
5050	0	32592	32926	
5051	0	32572	32966	
5052	0	32576	33073	
5053	0	32806	33700	
5054	0	32706	34180	
5055	0	32784	34532	
5056	0	32952	34684	
5057	0	32904	34464	
5058	0	32820	34292	
5059	0	32880	33822	
5060	0	33192	33316	
5061	0	33130	32726	
5062	0	32616	32073	
5063	0	32256	31522	
5064	0	32548	31532	
5065	0	32748	31903	
5066	0	32872	32014	
5067	0	33276	32228	
5068	0	33550	32888	
5069	0	33508	33696	
5070	0	32894	34114	
5071	0	32540	34644	
5072	0	32220	35594	
5073	0	32074	36516	
5074	0	32198	36658	
5075	0	32604	36801	
5076	0	32678	35674	
5077	0	32692	34236	
5078	0	33112	32624	
5079	0	33306	30727	
5080	0	33052	28970	
5081	0	33008	27262	
5082	0	33240	26438	
5083	0	33088	26724	
5084	0	32764	28046	
5085	0	33158	28266	
5086	0	33280	28562	
5087	0	32904	29298	
5088	0	32496	30388	
5089	0	32092	31088	
5090	0	31996	31862	
5091	0	32322	32842	
5092	0	32600	33969	
5093	0	32800	35384	
5094	0	33028	38526	
5095	0	33060	39212	
5096	0	33108	39278	
5097	0	33186	38732	
5098	0	33052	38087	
5099	0	32956	36964	
5100	0	32736	36276	
5101	0	32700	35922	
5102	0	32794	34998	
5103	0	32820	32908	
5104	0	33124	29836	
5105	0	32910	28358	
5106	0	32524	27076	
5107	0	32290	26552	
5108	0	32080	29308	
5109	0	32536	30340	
5110	0	32808	30314	
5111	0	32836	30362	
5112	0	32962	30814	
5113	0	33356	31180	
5114	0	33324	31712	
5115	0	33008	32036	
5116	0	32980	32690	
5117	0	32984	32998	
5118	0	32844	33806	
5119	0	32528	33568	
5120	0	32392	33607	
5121	0	32354	33284	
5122	0	32360	33364	
5123	0	32610	33826	
5124	0	33022	35512	
5125	0	32956	35884	
5126	0	32798	36000	
5127	0	32854	35046	
5128	0	32928	34096	
5129	0	33026	33238	
5130	0	32840	32802	
5131	0	32624	33740	
5132	0	32738	32176	
5133	0	32900	30272	
5134	0	32716	29058	
5135	0	32746	28690	
5136	0	33064	28978	
5137	0	33110	29506	
5138	0	33008	30360	
5139	0	33084	32058	
5140	0	33008	32952	
5141	0	33008	33944	
5142	0	32950	34375	
5143	0	32836	34324	
5144	0	32908	34416	
5145	0	32954	35680	
5146	0	33064	36032	
5147	0	33172	37988	
5148	0	33160	37732	
5149	0	32952	36680	
5150	0	32704	36098	
5151	0	32430	34962	
5152	0	31824	33890	
5153	0	31722	31776	
5154	0	31720	30726	
5155	0	31944	30182	
5156	0	32300	31010	
5157	0	32648	30732	
5158	0	32862	32006	
5159	0	32981	32730	
5160	0	33220	31239	
5161	0	33168	30704	
5162	0	32928	30178	
5163	0	33056	30260	
5164	0	32908	29771	
5165	0	32888	29234	
5166	0	32880	28652	
5167	0	33182	28536	
5168	0	33230	28700	
5169	0	33280	29479	
5170	0	33124	30640	
5171	0	32890	31790	
5172	0	32834	33254	
5173	0	32932	35296	
5174	0	32800	36692	
5175	0	32696	37044	
5176	0	32712	37014	
5177	0	32827	36324	
5178	0	32988	35680	
5179	0	32996	35558	
5180	0	33108	34704	
5181	0	32904	34430	
5182	0	32950	34078	
5183	0	32992	33604	
5184	0	32824	33524	
5185	0	32632	32994	
5186	0	32492	32852	
5187	0	32400	32698	
5188	0	32262	32640	
5189	0	32336	33127	
5190	0	32344	34071	
5191	0	32884	33448	
5192	0	33022	33702	
5193	0	32906	33776	
5194	0	33096	34118	
5195	0	33216	34758	
5196	0	33196	34340	
5197	0	33132	33401	
5198	0	32924	32632	
5199	0	32872	31618	
5200	0	32860	31492	
5201	0	32624	32903	
5202	0	32526	35824	
5203	0	32626	34660	
5204	0	32916	31989	
5205	0	32864	29922	
5206	0	32842	28382	
5207	0	32768	27058	
5208	0	32796	26268	
5209	0	32840	25354	
5210	0	32808	24730	
5211	0	32696	25918	
5212	0	32746	28172	
5213	0	32790	29946	
5214	0	32718	30956	
5215	0	32774	32304	
5216	0	32892	34580	
5217	0	33108	36512	
5218	0	33008	37742	
5219	0	32900	38528	
5220	0	32784	38772	
5221	0	32712	37663	
5222	0	32760	37060	
5223	0	32732	36724	
5224	0	32720	36044	
5225	0	32580	34727	
5226	0	32664	33922	
5227	0	32836	33308	
5228	0	32750	32748	
5229	0	32448	32174	
5230	0	32456	32021	
5231	0	32520	32118	
5232	0	32636	33828	
5233	0	32592	33804	
5234	0	32688	33105	
5235	0	32580	32460	
5236	0	32628	32180	
5237	0	32745	32388	
5238	0	32892	32039	
5239	0	32868	31910	
5240	0	32872	31651	
5241	0	32917	32572	
5242	0	32972	32444	
5243	0	33096	31942	
5244	0	33064	31915	
5245	0	33042	31654	
5246	0	32954	32300	
5247	0	32808	34028	
5248	0	32612	35340	
5249	0	32692	34648	
5250	0	32716	33020	
5251	0	32802	32228	
5252	0	32988	31558	
5253	0	33096	29642	
5254	0	33036	29394	
5255	0	32792	30324	
5256	0	32936	30418	
5257	0	32932	31257	
5258	0	32808	32178	
5259	0	32744	32540	
5260	0	32880	32888	
5261	0	32922	32604	
5262	0	32926	32324	
5263	0	32812	32986	
5264	0	32868	32849	
5265	0	32764	33108	
5266	0	32840	33084	
5267	0	32756	33156	
5268	0	32704	33536	
5269	0	32636	33736	
5270	0	32732	34124	
5271	0	32724	34272	
5272	0	32672	35232	
5273	0	32744	34556	
5274	0	32780	33716	
5275	0	32874	32980	
5276	0	32860	31942	
5277	0	32868	31249	
5278	0	32836	30950	
5279	0	32864	32710	
5280	0	32884	32974	
5281	0	32960	32529	
5282	0	32968	33109	
5283	0	32896	34346	
5284	0	32820	34430	
5285	0	32646	33962	
5286	0	32644	33474	
5287	0	32710	33070	
5288	0	32712	33786	
5289	0	32744	33556	
5290	0	32769	33012	
5291	0	32916	32488	
5292	0	32816	31751	
5293	0	32804	31202	
5294	0	32856	31256	
5295	0	32718	30548	
5296	0	32548	29846	
5297	0	32516	30439	
5298	0	32660	30580	
5299	0	32824	31652	
5300	0	32896	32774	
5301	0	32968	33740	
5302	0	33000	33894	
5303	0	32900	34208	
5304	0	32980	34884	
5305	0	32962	34174	
5306	0	33152	33543	
5307	0	33000	33154	
5308	0	32844	34436	
5309	0	32800	33562	
5310	0	32786	32250	
5311	0	32780	31428	
5312	0	32800	31048	
5313	0	32746	30680	
5314	0	32620	30438	
5315	0	32564	30700	
5316	0	32622	31414	
5317	0	32744	32380	
5318	0	32794	33070	
5319	0	32810	33856	
5320	0	32856	34482	
5321	0	32832	35022	
5322	0	32868	34780	
5323	0	32790	34892	
5324	0	32580	34250	
5325	0	32536	33830	
5326	0	32512	33327	
5327	0	32520	32972	
5328	0	32596	34028	
5329	0	32736	34158	
5330	0	32700	33320	
5331	0	32800	32610	
5332	0	32880	31880	
5333	0	32822	31788	
5334	0	32940	32028	
5335	0	32710	31688	
5336	0	32660	31737	
5337	0	32682	31900	
5338	0	32650	32430	
5339	0	32696	32602	
5340	0	32624	33668	
5341	0	32494	33204	
5342	0	32480	32756	
5343	0	32488	32855	
5344	0	32582	32368	
5345	0	32514	31623	
5346	0	32668	31356	
5347	0	32664	31116	
5348	0	32692	31154	
5349	0	32672	31364	
5350	0	32680	31740	
5351	0	32600	31886	
5352	0	32616	32772	
5353	0	32648	33028	
5354	0	32732	33568	
5355	0	32680	32896	
5356	0	32676	32412	
5357	0	32732	32468	
5358	0	32768	33214	
5359	0	32746	34284	
5360	0	32716	34866	
5361	0	32817	34564	
5362	0	32860	34622	
5363	0	32810	35330	
5364	0	32722	34938	
5365	0	32752	34074	
5366	0	32780	32526	
5367	0	32756	31460	
5368	0	32708	31112	
5369	0	32684	30823	
5370	0	32734	30902	
5371	0	32854	32644	
5372	0	32788	33572	
5373	0	32808	33606	
5374	0	32810	33334	
5375	0	32924	34588	
5376	0	32904	36418	
5377	0	32910	36382	
5378	0	32892	35036	
5379	0	32876	32846	
5380	0	32896	30220	
5381	0	32912	28250	
5382	0	32868	27082	
5383	0	32924	26536	
5384	0	32960	26814	
5385	0	32960	27612	
5386	0	32956	29368	
5387	0	32960	31847	
5388	0	32900	34080	
5389	0	32984	35696	
5390	0	32908	36816	
5391	0	32928	36882	
5392	0	32874	36516	
5393	0	32916	36240	
5394	0	32940	35552	
5395	0	32932	34510	
5396	0	32926	33356	
5397	0	32874	32486	
5398	0	32928	32098	
5399	0	32844	32358	
5400	0	32884	32458	
5401	0	32784	32424	
5402	0	32704	32464	
5403	0	32724	32950	
5404	0	32706	33648	
5405	0	32788	35456	
5406	0	32736	35497	
5407	0	32728	34452	
5408	0	32750	32980	
5409	0	32770	31183	
5410	0	32896	30542	
5411	0	32960	31460	
5412	0	32960	31622	
5413	0	33012	31712	
5414	0	32990	31522	
5415	0	32972	31294	
5416	0	32976	31024	
5417	0	32940	30974	
5418	0	32896	31452	
5419	0	32872	31992	
5420	0	32848	32090	
5421	0	32868	32618	
5422	0	32860	33080	
5423	0	32954	33516	
5424	0	32900	33924	
5425	0	32972	33886	
5426	0	33020	34072	
5427	0	32960	34022	
5428	0	32976	34118	
5429	0	32980	33502	
5430	0	33080	33170	
5431	0	33026	33046	
5432	0	32953	32732	
5433	0	32880	32500	
5434	0	32764	32476	
5435	0	32702	32452	
5436	0	32736	32567	
5437	0	32786	32724	
5438	0	32856	32775	
5439	0	32860	32697	
5440	0	32900	32600	
5441	0	32986	32600	
5442	0	33020	32600	
5443	0	32900	32621	
5444	0	32874	32654	
5445	0	32814	32570	
5446	0	32952	32748	
5447	0	32968	32686	
5448	0	32920	32738	
5449	0	32913	32628	
5450	0	32916	32900	
5451	0	32858	33004	
5452	0	32820	32867	
5453	0	32752	32903	
5454	0	32748	32839	
5455	0	32824	32846	
5456	0	32820	32924	
5457	0	32760	33799	
5458	0	32768	34972	
5459	0	32744	34804	
5460	0	32780	34004	
5461	0	32740	35064	
5462	0	32788	36128	
5463	0	32842	35434	
5464	0	32832	33896	
5465	0	32822	33740	
5466	0	32904	34198	
5467	0	32814	32188	
5468	0	32820	30574	
5469	0	32808	29202	
5470	0	32746	27246	
5471	0	32726	26182	
5472	0	32672	26384	
5473	0	32665	27460	
5474	0	32722	29022	
5475	0	32708	29615	
5476	0	32728	30424	
5477	0	32810	31308	
5478	0	32924	32918	
5479	0	32840	34204	
5480	0	32952	35488	
5481	0	32964	36300	
5482	0	32944	36231	
5483	0	33014	36334	
5484	0	32936	37014	
5485	0	33036	36446	
5486	0	33106	35012	
5487	0	33128	33752	
5488	0	33148	32512	
5489	0	33004	31573	
5490	0	32880	30948	
5491	0	32824	30998	
5492	0	32706	31143	
5493	0	32672	31502	
5494	0	32660	31890	
5495	0	32616	32354	
5496	0	32580	32690	
5497	0	32520	32700	
5498	0	32512	33008	
5499	0	32542	33390	
5500	0	32530	33574	
5501	0	32556	33716	
5502	0	32548	33751	
5503	0	32600	33902	
5504	0	32670	33660	
5505	0	32742	33622	
5506	0	32780	33726	
5507	0	32806	33382	
5508	0	32824	33117	
5509	0	32848	32938	
5510	0	32864	32830	
5511	0	32830	32703	
5512	0	32864	32438	
5513	0	32790	32295	
5514	0	32792	32442	
5515	0	32868	33488	
5516	0	32818	33435	
5517	0	32808	33132	
5518	0	32822	33751	
5519	0	32800	33639	
5520	0	32808	32807	
5521	0	32834	32170	
5522	0	32716	31858	
5523	0	32812	31646	
5524	0	32756	31479	
5525	0	32824	32064	
5526	0	32858	32412	
5527	0	32764	32444	
5528	0	32817	32240	
5529	0	32822	32116	
5530	0	32814	32860	
5531	0	32916	32746	
5532	0	32824	32076	
5533	0	32848	32102	
5534	0	32796	32464	
5535	0	32764	32828	
5536	0	32794	33159	
5537	0	32838	33194	
5538	0	32894	33118	
5539	0	32864	32951	
5540	0	32852	32615	
5541	0	32850	32678	
5542	0	32846	32932	
5543	0	32808	33060	
5544	0	32852	32948	
5545	0	32824	33346	
5546	0	32900	33434	
5547	0	32852	34052	
5548	0	32856	33980	
5549	0	32842	32708	
5550	0	32802	31056	
5551	0	32742	30161	
5552	0	32762	29902	
5553	0	32828	30382	
5554	0	32774	31599	
5555	0	32798	32502	
5556	0	32760	32932	
5557	0	32866	33452	
5558	0	32924	33884	
5559	0	32924	34300	
5560	0	33008	34884	
5561	0	32968	34196	
5562	0	32984	33912	
5563	0	32980	33158	
5564	0	33024	32554	
5565	0	32996	32369	
5566	0	32950	32615	
5567	0	32950	32519	
5568	0	32920	32202	
5569	0	32948	31978	
5570	0	32984	31887	
5571	0	32924	31912	
5572	0	32874	32126	
5573	0	32812	32084	
5574	0	32646	32320	
5575	0	32670	32614	
5576	0	32528	33352	
5577	0	32526	35120	
5578	0	32464	35298	
5579	0	32480	34574	
5580	0	32416	34110	
5581	0	32280	33882	
5582	0	32340	33719	
5583	0	32337	33396	
5584	0	32427	32759	
5585	0	32566	32150	
5586	0	32660	31726	
5587	0	32736	31188	
5588	0	32760	30838	
5589	0	32912	30748	
5590	0	32960	30807	
5591	0	32958	31366	
5592	0	33096	31949	
5593	0	33090	32548	
5594	0	33118	33222	
5595	0	33090	33364	
5596	0	33176	33885	
5597	0	33178	33985	
5598	0	33156	33692	
5599	0	33168	33526	
5600	0	33040	33262	
5601	0	32960	33076	
5602	0	33020	32992	
5603	0	33036	32814	
5604	0	32964	32427	
5605	0	32956	32320	
5606	0	32906	32442	
5607	0	32882	32519	
5608	0	32876	32496	
5609	0	32776	32684	
5610	0	32826	32709	
5611	0	32844	32592	
5612	0	32760	32922	
5613	0	32820	33128	
5614	0	32774	33255	
5615	0	32836	33391	
5616	0	32792	33454	
5617	0	32792	33362	
5618	0	32828	33232	
5619	0	32888	33076	
5620	0	32808	32892	
5621	0	32884	32526	
5622	0	32894	32348	
5623	0	32960	32336	
5624	0	32864	32278	
5625	0	32958	32126	
5626	0	32970	32228	
5627	0	32962	32709	
5628	0	32962	32886	
5629	0	32884	33052	
5630	0	32884	33004	
5631	0	32938	32970	
5632	0	32872	32843	
5633	0	32834	32950	
5634	0	32810	33094	
5635	0	32770	33030	
5636	0	32760	33940	
5637	0	32728	34183	
5638	0	32660	33588	
5639	0	32680	33252	
5640	0	32720	32704	
5641	0	32728	32368	
5642	0	32776	32326	
5643	0	32790	32894	
5644	0	32736	33198	
5645	0	32828	34234	
5646	0	32808	34916	
5647	0	32880	33838	
5648	0	32916	32686	
5649	0	32920	31486	
5650	0	32890	30568	
5651	0	32836	30020	
5652	0	32862	29902	
5653	0	32802	29655	
5654	0	32682	29574	
5655	0	32790	30202	
5656	0	32740	30660	
5657	0	32780	30649	
5658	0	32712	31342	
5659	0	32722	32596	
5660	0	32804	33394	
5661	0	32766	34408	
5662	0	32848	35088	
5663	0	32868	35108	
5664	0	32872	34822	
5665	0	32908	34788	
5666	0	32874	34454	
5667	0	32892	34096	
5668	0	32832	33638	
5669	0	32890	33468	
5670	0	32928	33306	
5671	0	32860	33118	
5672	0	32788	33150	
5673	0	32764	32932	
5674	0	32788	33078	
5675	0	32766	32864	
5676	0	32804	32746	
5677	0	32694	32583	
5678	0	32708	32628	
5679	0	32792	32654	
5680	0	32732	32623	
5681	0	32754	32762	
5682	0	32800	32612	
5683	0	32808	32532	
5684	0	32832	32504	
5685	0	32919	32586	
5686	0	32866	32716	
5687	0	32846	32682	
5688	0	32872	32775	
5689	0	32842	32688	
5690	0	32788	32640	
5691	0	32804	32583	
5692	0	32794	32510	
5693	0	32800	32606	
5694	0	32768	32615	
5695	0	32692	32551	
5696	0	32768	32578	
5697	0	32680	32647	
5698	0	32756	32743	
5699	0	32816	32826	
5700	0	32792	32860	
5701	0	32836	32842	
5702	0	32852	32872	
5703	0	32822	32870	
5704	0	32796	32962	
5705	0	32888	32838	
5706	0	32828	32735	
5707	0	32842	32796	
5708	0	32836	32730	
5709	0	32864	32962	
5710	0	32820	32775	
5711	0	32832	32818	
5712	0	32856	32662	
5713	0	32750	32720	
5714	0	32784	32728	
5715	0	32892	32729	
5716	0	32768	32672	
5717	0	32724	32612	
5718	0	32732	32801	
5719	0	32792	32790	
5720	0	32808	32960	
5721	0	32828	32949	
5722	0	32846	32999	
5723	0	32682	33158	
5724	0	32780	33202	
5725	0	32828	33172	
5726	0	32906	32858	
5727	0	32832	32710	
5728	0	32782	32820	
5729	0	32868	32871	
5730	0	32782	32568	
5731	0	32830	32236	
5732	0	32778	32042	
5733	0	32792	31911	
5734	0	32772	31726	
5735	0	32748	32088	
5736	0	32712	32223	
5737	0	32780	32423	
5738	0	32782	32576	
5739	0	32784	32810	
5740	0	32836	32846	
5741	0	32828	32932	
5742	0	32768	33042	
5743	0	32724	32895	
5744	0	32738	32860	
5745	0	32728	32838	
5746	0	32812	32926	
5747	0	32818	32826	
5748	0	32794	32914	
5749	0	32704	32996	
5750	0	32732	32999	
5751	0	32720	33124	
5752	0	32752	33046	
5753	0	32686	33000	
5754	0	32880	32890	
5755	0	32956	32817	
5756	0	32974	32746	
5757	0	32864	32694	
5758	0	32848	32759	
5759	0	32808	32775	
5760	0	32848	32769	
5761	0	32912	32806	
5762	0	32736	32775	
5763	0	32716	32655	
5764	0	32776	32713	
5765	0	32824	32788	
5766	0	32736	32816	
5767	0	32836	32820	
5768	0	32802	32668	
5769	0	32800	32802	
5770	0	32804	32998	
5771	0	32808	33130	
5772	0	32816	33056	
5773	0	32760	32913	
5774	0	32804	32672	
5775	0	32736	32722	
5776	0	32716	32590	
5777	0	32724	32556	
5778	0	32748	32519	
5779	0	32724	32562	
5780	0	32816	32450	
5781	0	32792	32391	
5782	0	32694	32256	
5783	0	32844	32394	
5784	0	32848	32495	
5785	0	32852	32794	
5786	0	32900	32808	
5787	0	32902	32916	
5788	0	32814	32958	
5789	0	32816	33038	
5790	0	32802	33102	
5791	0	32892	33018	
5792	0	32838	32858	
5793	0	32810	32788	
5794	0	32822	32712	
5795	0	32712	32660	
5796	0	32660	32846	
5797	0	32664	32758	
5798	0	32708	32716	
5799	0	32654	32774	
5800	0	32673	32760	
5801	0	32830	32839	
5802	0	32868	32842	
5803	0	32728	32794	
5804	0	32672	32748	
5805	0	32728	32729	
5806	0	32800	32771	
5807	0	32876	32735	
5808	0	32880	32838	
5809	0	32868	32734	
5810	0	32812	32702	
5811	0	32888	32790	
5812	0	32804	32791	
5813	0	32725	32816	
5814	0	32736	32751	
5815	0	32830	32784	
5816	0	32836	32856	
5817	0	32728	32722	
5818	0	32740	32567	
5819	0	32706	32743	
5820	0	32656	32676	
5821	0	32708	32746	
5822	0	32732	32720	
5823	0	32808	32694	
5824	0	32828	32752	
5825	0	32820	32775	
5826	0	32874	32741	
5827	0	32908	32870	
5828	0	32856	32896	
5829	0	32856	32660	
5830	0	32850	32636	
5831	0	32836	32750	
5832	0	32824	32788	
5833	0	32706	32671	
5834	0	32766	32798	
5835	0	32804	32764	
5836	0	32800	32748	
5837	0	32700	32702	
5838	0	32820	32788	
5839	0	32756	32641	
5840	0	32784	32694	
5841	0	32740	32664	
5842	0	32856	32746	
5843	0	32844	32734	
5844	0	32884	32810	
5845	0	32994	32775	
5846	0	32906	32774	
5847	0	32876	32670	
5848	0	32812	32616	
5849	0	32828	32768	
5850	0	32768	32871	
5851	0	32764	32743	
5852	0	32788	32761	
5853	0	32766	32844	
5854	0	32806	32817	
5855	0	32784	32775	
5856	0	32818	32854	
5857	0	32672	32752	
5858	0	32724	32706	
5859	0	32646	32588	
5860	0	32716	32822	
5861	0	32743	32818	
5862	0	32804	32730	
5863	0	32828	32900	
5864	0	32944	32964	
5865	0	33088	33190	
5866	0	32926	32884	
5867	0	32836	32748	
5868	0	32830	32724	
5869	0	32792	32716	
5870	0	32796	32860	
5871	0	32852	32775	
5872	0	32900	32848	
5873	0	32708	32871	
5874	0	32672	32719	
5875	0	32608	32674	
5876	0	32640	32610	
5877	0	32640	32788	
5878	0	32748	32700	
5879	0	32730	32702	
5880	0	32706	32724	
5881	0	32788	32915	
5882	0	32836	32700	
5883	0	32986	32854	
5884	0	32858	32634	
5885	0	32880	32661	
5886	0	32904	32726	
5887	0	32912	32629	
5888	0	32920	32733	
5889	0	32932	32529	
5890	0	32776	32508	
5891	0	32844	32704	
5892	0	32890	32660	
5893	0	32808	32754	
5894	0	32804	32821	
5895	0	32744	32660	
5896	0	32704	32844	
5897	0	32744	32934	
5898	0	32752	32833	
5899	0	32740	32760	
5900	0	32782	32911	
5901	0	32804	32935	
5902	0	32760	32884	
5903	0	32784	32712	
5904	0	32796	32738	
5905	0	32808	32696	
5906	0	32868	32874	
5907	0	32860	32913	
5908	0	32912	33003	
5909	0	32800	32884	
5910	0	32828	32753	
5911	0	32790	32652	
5912	0	32801	32772	
5913	0	32770	32714	
5914	0	32712	32762	
5915	0	32616	32604	
5916	0	32724	32698	
5917	0	32726	32820	
5918	0	32698	32706	
5919	0	32750	32820	
5920	0	32880	32790	
5921	0	32946	32762	
5922	0	33004	32742	
5923	0	32864	32647	
5924	0	32784	32583	
5925	0	32948	32732	
5926	0	32952	32932	
5927	0	32828	32860	
5928	0	32782	32704	
5929	0	32872	32711	
5930	0	32940	32624	
5931	0	33036	32696	
5932	0	32878	32680	
5933	0	32796	32880	
5934	0	32848	32860	
5935	0	32900	33042	
5936	0	32900	32964	
5937	0	32808	32918	
5938	0	32720	32660	
5939	0	32676	32759	
5940	0	32792	32706	
5941	0	32800	32724	
5942	0	32820	32828	
5943	0	32821	32606	
5944	0	32834	32584	
5945	0	32826	32676	
5946	0	32808	32692	
5947	0	32828	32686	
5948	0	32844	32807	
5949	0	32776	32724	
5950	0	32774	32632	
5951	0	32804	32638	
5952	0	32760	32824	
5953	0	32808	32801	
5954	0	32788	32818	
5955	0	32824	32835	
5956	0	32774	32786	
5957	0	32784	32758	
5958	0	32712	32682	
5959	0	32759	32750	
5960	0	32744	32671	
5961	0	32652	32692	
5962	0	32704	32810	
5963	0	32744	32820	
5964	0	32734	32815	
5965	0	32780	32718	
5966	0	32768	32692	
5967	0	32848	32710	
5968	0	32804	32698	
5969	0	32752	32775	
5970	0	32580	32753	
5971	0	32612	32798	
5972	0	32964	32932	
5973	0	33192	32926	
5974	0	32964	32795	
5975	0	32868	32734	
5976	0	33048	32743	
5977	0	33060	32862	
5978	0	33012	32878	
5979	0	32888	32746	
5980	0	32762	32710	
5981	0	32628	32607	
5982	0	32732	32565	
5983	0	32696	32728	
5984	0	32748	32754	
5985	0	32800	32860	
5986	0	32788	32840	
5987	0	32840	32920	
5988	0	32820	32844	
5989	0	32816	32770	
5990	0	32828	32814	
5991	0	32812	32646	
5992	0	32770	32638	
5993	0	32784	32572	
5994	0	32742	32596	
5995	0	32804	32673	
5996	0	32828	32743	
5997	0	32784	32821	
5998	0	32816	32871	
5999	0	32800	32797	
6000	0	32792	32775	
6001	0	32890	32722	
6002	0	32852	32810	
6003	0	32784	32874	
6004	0	32821	32718	
6005	0	32834	32780	
6006	0	32892	32967	
6007	0	32920	32838	
6008	0	32832	32995	
6009	0	32792	32821	
6010	0	32828	32932	
6011	0	32732	32821	
6012	0	32804	32506	
