# OpenSignals Text File Format. Version 1
# {"00:07:80:8C:0A:39": {"position": 0, "device": "biosignalsplux", "device name": "00:07:80:8C:0A:39", "device connection": "BTH00:07:80:8C:0A:39", "sampling rate": 1000, "resolution": [16, 16], "firmware version": 776, "comments": "", "keywords": "", "mode": 0, "sync interval": 2, "date": "2023-3-20", "time": "10:53:24.110", "channels": [1, 2], "sensor": ["EMG", "EMG"], "label": ["CH1", "CH2"], "column": ["nSeq", "DI", "CH1", "CH2"], "special": [{"SpO2": [80, 40, 5, 4, 3, 3]}, {"SpO2": [80, 40, 5, 4, 3, 3]}, {"SpO2": [80, 40, 5, 4, 3, 3]}, {"SpO2": [80, 40, 5, 4, 3, 3]}, {"SpO2": [80, 40, 5, 4, 3, 3]}, {"SpO2": [80, 40, 5, 4, 3, 3]}, {"SpO2": [80, 40, 5, 4, 3, 3]}, {"SpO2": [80, 40, 5, 4, 3, 3]}], "digital IO": [0, 1], "sleeve color": ["gray", "yellow"], "convertedValues": 0}}
# EndOfHeader
0	0	32842	32775	
1	0	32824	32727	
2	0	32762	32799	
3	0	32776	32716	
4	0	32812	32742	
5	0	32848	32852	
6	0	32872	32714	
7	0	32802	32836	
8	0	32832	32756	
9	0	32840	32756	
10	0	32808	32728	
11	0	32792	32796	
12	0	32788	32692	
13	0	32832	32748	
14	0	32788	32718	
15	0	32844	32810	
16	0	32870	32817	
17	0	32788	32799	
18	0	32890	32746	
19	0	32828	32665	
20	0	32826	32734	
21	0	32758	32774	
22	0	32836	32868	
23	0	32876	32775	
24	0	32744	32628	
25	0	32784	32744	
26	0	32756	32703	
27	0	32872	32734	
28	0	32812	32764	
29	0	32836	32828	
30	0	32828	32816	
31	0	32772	32728	
32	0	32817	32788	
33	0	32868	32763	
34	0	32820	32796	
35	0	32832	32822	
36	0	32808	32750	
37	0	32810	32715	
38	0	32792	32710	
39	0	32826	32714	
40	0	32830	32680	
41	0	32764	32850	
42	0	32860	32800	
43	0	32777	32750	
44	0	32778	32724	
45	0	32812	32743	
46	0	32760	32768	
47	0	32816	32832	
48	0	32774	32687	
49	0	32790	32870	
50	0	32884	32794	
51	0	32828	32727	
52	0	32848	32804	
53	0	32790	32740	
54	0	32776	32712	
55	0	32786	32754	
56	0	32842	32660	
57	0	32814	32808	
58	0	32844	32762	
59	0	32758	32750	
60	0	32764	32775	
61	0	32828	32726	
62	0	32830	32764	
63	0	32834	32772	
64	0	32836	32644	
65	0	32864	32694	
66	0	32786	32708	
67	0	32836	32800	
68	0	32828	32836	
69	0	32810	32798	
70	0	32792	32764	
71	0	32780	32720	
72	0	32842	32719	
73	0	32830	32874	
74	0	32832	32775	
75	0	32822	32798	
76	0	32824	32678	
77	0	32808	32834	
78	0	32800	32784	
79	0	32832	32743	
80	0	32812	32740	
81	0	32868	32792	
82	0	32844	32838	
83	0	32792	32863	
84	0	32736	32672	
85	0	32834	32792	
86	0	32824	32702	
87	0	32758	32775	
88	0	32728	32712	
89	0	32810	32792	
90	0	32844	32800	
91	0	32828	32703	
92	0	32816	32772	
93	0	32840	32690	
94	0	32780	32826	
95	0	32800	32860	
96	0	32740	32775	
97	0	32856	32756	
98	0	32808	32680	
99	0	32812	32712	
100	0	32800	32722	
101	0	32789	32845	
102	0	32832	32820	
103	0	32816	32738	
104	0	32820	32767	
105	0	32780	32692	
106	0	32796	32806	
107	0	32818	32700	
108	0	32868	32788	
109	0	32808	32774	
110	0	32844	32770	
111	0	32816	32764	
112	0	32828	32754	
113	0	32856	32832	
114	0	32804	32886	
115	0	32816	32766	
116	0	32782	32824	
117	0	32820	32725	
118	0	32822	32730	
119	0	32765	32760	
120	0	32824	32708	
121	0	32808	32796	
122	0	32836	32819	
123	0	32836	32796	
124	0	32820	32766	
125	0	32738	32636	
126	0	32788	32756	
127	0	32784	32740	
128	0	32836	32846	
129	0	32864	32882	
130	0	32800	32804	
131	0	32848	32774	
132	0	32844	32750	
133	0	32776	32838	
134	0	32788	32808	
135	0	32834	32758	
136	0	32884	32756	
137	0	32786	32724	
138	0	32824	32774	
139	0	32824	32718	
140	0	32824	32710	
141	0	32782	32774	
142	0	32784	32860	
143	0	32772	32736	
144	0	32828	32775	
145	0	32800	32660	
146	0	32852	32756	
147	0	32832	32862	
148	0	32844	32668	
149	0	32832	32774	
150	0	32882	32714	
151	0	32816	32831	
152	0	32816	32806	
153	0	32794	32646	
154	0	32778	32816	
155	0	32822	32772	
156	0	32800	32812	
157	0	32744	32810	
158	0	32846	32706	
159	0	32866	32764	
160	0	32776	32782	
161	0	32820	32858	
162	0	32836	32831	
163	0	32792	32698	
164	0	32860	32751	
165	0	32748	32686	
166	0	32832	32722	
167	0	32836	32727	
168	0	32818	32721	
169	0	32808	32831	
170	0	32842	32872	
171	0	32808	32836	
172	0	32822	32816	
173	0	32802	32788	
174	0	32792	32728	
175	0	32784	32816	
176	0	32772	32808	
177	0	32884	32804	
178	0	32812	32813	
179	0	32808	32732	
180	0	32816	32760	
181	0	32780	32804	
182	0	32844	32807	
183	0	32824	32775	
184	0	32816	32692	
185	0	32842	32768	
186	0	32834	32806	
187	0	32820	32751	
188	0	32806	32772	
189	0	32786	32641	
190	0	32800	32839	
191	0	32780	32844	
192	0	32775	32716	
193	0	32800	32735	
194	0	32808	32662	
195	0	32828	32859	
196	0	32824	32750	
197	0	32824	32824	
198	0	32826	32824	
199	0	32786	32801	
200	0	32884	32816	
201	0	32772	32702	
202	0	32881	32708	
203	0	32810	32753	
204	0	32760	32756	
205	0	32794	32784	
206	0	32804	32752	
207	0	32853	32800	
208	0	32804	32700	
209	0	32824	32807	
210	0	32832	32646	
211	0	32832	32775	
212	0	32744	32717	
213	0	32858	32790	
214	0	32741	32767	
215	0	32770	32692	
216	0	32800	32804	
217	0	32828	32647	
218	0	32802	32712	
219	0	32792	32708	
220	0	32714	32799	
221	0	32772	32759	
222	0	32876	32748	
223	0	32788	32840	
224	0	32844	32789	
225	0	32756	32862	
226	0	32769	32674	
227	0	32808	32764	
228	0	32872	32606	
229	0	32864	32670	
230	0	32864	32680	
231	0	32856	32736	
232	0	32828	32750	
233	0	32836	32670	
234	0	32856	32676	
235	0	32916	32628	
236	0	32866	32770	
237	0	32884	32791	
238	0	32898	32658	
239	0	32836	32584	
240	0	32838	32662	
241	0	32878	32694	
242	0	32844	32737	
243	0	32920	32647	
244	0	32810	32636	
245	0	32946	32671	
246	0	32910	32710	
247	0	32888	32660	
248	0	32868	32796	
249	0	32820	32792	
250	0	32944	32775	
251	0	32844	32878	
252	0	32786	32816	
253	0	32648	32914	
254	0	32730	32832	
255	0	32680	32962	
256	0	32716	32916	
257	0	32712	32950	
258	0	32668	32975	
259	0	32704	33046	
260	0	32648	33016	
261	0	32672	32858	
262	0	32628	32942	
263	0	32652	32900	
264	0	32560	32952	
265	0	32680	32972	
266	0	32632	32926	
267	0	32574	33020	
268	0	32612	33006	
269	0	32708	32945	
270	0	32672	32972	
271	0	32730	32839	
272	0	32864	32700	
273	0	32948	32594	
274	0	32916	32576	
275	0	32852	32574	
276	0	32930	32510	
277	0	32900	32576	
278	0	32900	32594	
279	0	32928	32508	
280	0	32912	32615	
281	0	32920	32570	
282	0	32924	32730	
283	0	32929	32738	
284	0	32840	32641	
285	0	32804	32766	
286	0	32820	32842	
287	0	32804	32740	
288	0	32820	32758	
289	0	32868	32837	
290	0	32760	32712	
291	0	32820	32726	
292	0	32805	32766	
293	0	32832	32802	
294	0	32788	32775	
295	0	32822	32686	
296	0	32822	32814	
297	0	32872	32807	
298	0	32800	32640	
299	0	32868	32830	
300	0	32818	32784	
301	0	32792	32684	
302	0	32904	32754	
303	0	32744	32796	
304	0	32840	32732	
305	0	32840	32796	
306	0	32834	32630	
307	0	32830	32756	
308	0	32772	32730	
309	0	32756	32812	
310	0	32892	32790	
311	0	32850	32687	
312	0	32798	32742	
313	0	32868	32682	
314	0	32834	32758	
315	0	32790	32832	
316	0	32792	32724	
317	0	32816	32632	
318	0	32824	32744	
319	0	32798	32708	
320	0	32880	32753	
321	0	32804	32817	
322	0	32852	32790	
323	0	32876	32680	
324	0	32896	32719	
325	0	32816	32724	
326	0	32804	32790	
327	0	32846	32730	
328	0	32818	32816	
329	0	32796	32720	
330	0	32848	32770	
331	0	32822	32732	
332	0	32816	32762	
333	0	32808	32705	
334	0	32880	32750	
335	0	32908	32708	
336	0	32842	32839	
337	0	32852	32756	
338	0	32792	32722	
339	0	32848	32794	
340	0	32832	32756	
341	0	32784	32852	
342	0	32768	32775	
343	0	32904	32710	
344	0	32796	32690	
345	0	32768	32705	
346	0	32808	32696	
347	0	32872	32712	
348	0	32780	32775	
349	0	32820	32616	
350	0	32782	32788	
351	0	32748	32824	
352	0	32876	32740	
353	0	32778	32814	
354	0	32792	32660	
355	0	32798	32764	
356	0	32786	32742	
357	0	32766	32729	
358	0	32796	32791	
359	0	32744	32729	
360	0	32862	32896	
361	0	32860	32882	
362	0	32750	32758	
363	0	32772	32742	
364	0	32810	32766	
365	0	32758	32729	
366	0	32786	32820	
367	0	32788	32808	
368	0	32860	32756	
369	0	32768	32822	
370	0	32822	32711	
371	0	32772	32790	
372	0	32808	32724	
373	0	32828	32712	
374	0	32820	32727	
375	0	32760	32806	
376	0	32804	32796	
377	0	32768	32815	
378	0	32824	32684	
379	0	32760	32724	
380	0	32812	32802	
381	0	32836	32680	
382	0	32756	32842	
383	0	32820	32872	
384	0	32769	32742	
385	0	32821	32746	
386	0	32878	32775	
387	0	32824	32806	
388	0	32780	32678	
389	0	32808	32740	
390	0	32780	32812	
391	0	32856	32825	
392	0	32842	32766	
393	0	32732	32666	
394	0	32808	32775	
395	0	32848	32775	
396	0	32808	32818	
397	0	32860	32818	
398	0	32804	32769	
399	0	32804	32756	
400	0	32754	32682	
401	0	32840	32720	
402	0	32812	32792	
403	0	32868	32768	
404	0	32764	32766	
405	0	32800	32876	
406	0	32724	32764	
407	0	32764	32750	
408	0	32860	32798	
409	0	32796	32724	
410	0	32840	32862	
411	0	32820	32725	
412	0	32810	32842	
413	0	32860	32746	
414	0	32848	32775	
415	0	32768	32718	
416	0	32834	32790	
417	0	32816	32725	
418	0	32816	32678	
419	0	32812	32702	
420	0	32802	32772	
421	0	32792	32770	
422	0	32796	32847	
423	0	32836	32772	
424	0	32810	32860	
425	0	32800	32792	
426	0	32790	32770	
427	0	32830	32760	
428	0	32880	32676	
429	0	32790	32858	
430	0	32816	32864	
431	0	32826	32743	
432	0	32816	32786	
433	0	32820	32752	
434	0	32756	32740	
435	0	32768	32756	
436	0	32892	32738	
437	0	32802	32800	
438	0	32836	32744	
439	0	32820	32775	
440	0	32774	32807	
441	0	32768	32668	
442	0	32824	32747	
443	0	32820	32775	
444	0	32794	32744	
445	0	32732	32850	
446	0	32828	32800	
447	0	32844	32676	
448	0	32830	32733	
449	0	32812	32702	
450	0	32864	32816	
451	0	32804	32810	
452	0	32800	32818	
453	0	32744	32775	
454	0	32834	32718	
455	0	32804	32710	
456	0	32804	32647	
457	0	32832	32720	
458	0	32872	32887	
459	0	32798	32736	
460	0	32832	32678	
461	0	32776	32775	
462	0	32840	32728	
463	0	32848	32796	
464	0	32758	32791	
465	0	32788	32698	
466	0	32808	32724	
467	0	32856	32754	
468	0	32724	32830	
469	0	32796	32826	
470	0	32868	32724	
471	0	32854	32802	
472	0	32788	32702	
473	0	32790	32816	
474	0	32836	32832	
475	0	32816	32742	
476	0	32866	32694	
477	0	32800	32718	
478	0	32762	32716	
479	0	32752	32757	
480	0	32836	32740	
481	0	32780	32670	
482	0	32872	32796	
483	0	32816	32751	
484	0	32816	32632	
485	0	32786	32702	
486	0	32776	32702	
487	0	32810	32768	
488	0	32856	32836	
489	0	32788	32642	
490	0	32892	32798	
491	0	32840	32775	
492	0	32796	32822	
493	0	32808	32764	
494	0	32844	32775	
495	0	32816	32868	
496	0	32792	32850	
497	0	32826	32794	
498	0	32817	32734	
499	0	32792	32708	
500	0	32817	32740	
501	0	32816	32684	
502	0	32832	32756	
503	0	32793	32839	
504	0	32848	32718	
505	0	32800	32718	
506	0	32808	32680	
507	0	32832	32734	
508	0	32812	32718	
509	0	32844	32838	
510	0	32832	32608	
511	0	32798	32816	
512	0	32798	32842	
513	0	32830	32770	
514	0	32800	32821	
515	0	32828	32756	
516	0	32736	32804	
517	0	32804	32896	
518	0	32800	32842	
519	0	32828	32764	
520	0	32804	32658	
521	0	32848	32700	
522	0	32837	32837	
523	0	32872	32848	
524	0	32840	32732	
525	0	32826	32746	
526	0	32772	32794	
527	0	32798	32788	
528	0	32828	32798	
529	0	32768	32702	
530	0	32798	32640	
531	0	32876	32740	
532	0	32800	32725	
533	0	32796	32820	
534	0	32832	32824	
535	0	32808	32805	
536	0	32812	32770	
537	0	32796	32880	
538	0	32800	32892	
539	0	32832	32775	
540	0	32808	32692	
541	0	32896	32670	
542	0	32890	32660	
543	0	32812	32828	
544	0	32836	32742	
545	0	32768	32744	
546	0	32800	32750	
547	0	32828	32816	
548	0	32826	32838	
549	0	32876	32784	
550	0	32858	32820	
551	0	32808	32775	
552	0	32764	32763	
553	0	32820	32657	
554	0	32800	32750	
555	0	32784	32764	
556	0	32820	32708	
557	0	32852	32732	
558	0	32740	32840	
559	0	32824	32768	
560	0	32804	32775	
561	0	32792	32788	
562	0	32824	32742	
563	0	32758	32846	
564	0	32816	32774	
565	0	32794	32750	
566	0	32814	32754	
567	0	32788	32716	
568	0	32868	32644	
569	0	32748	32724	
570	0	32772	32726	
571	0	32830	32694	
572	0	32878	32804	
573	0	32820	32775	
574	0	32784	32814	
575	0	32806	32808	
576	0	32804	32759	
577	0	32828	32838	
578	0	32820	32794	
579	0	32816	32668	
580	0	32844	32672	
581	0	32760	32608	
582	0	32758	32752	
583	0	32820	32812	
584	0	32842	32720	
585	0	32775	32671	
586	0	32768	32723	
587	0	32828	32695	
588	0	32824	32700	
589	0	32868	32674	
590	0	32772	32820	
591	0	32796	32764	
592	0	32804	32671	
593	0	32840	32770	
594	0	32832	32774	
595	0	32888	32644	
596	0	32854	32634	
597	0	32798	32742	
598	0	32764	32758	
599	0	32784	32842	
600	0	32840	32822	
601	0	32778	32858	
602	0	32838	32850	
603	0	32816	32812	
604	0	32814	32738	
605	0	32774	32680	
606	0	32754	32775	
607	0	32784	32775	
608	0	32828	32794	
609	0	32864	32714	
610	0	32820	32789	
611	0	32836	32827	
612	0	32834	32660	
613	0	32786	32838	
614	0	32821	32718	
615	0	32812	32704	
616	0	32814	32732	
617	0	32816	32702	
618	0	32812	32719	
619	0	32800	32668	
620	0	32790	32700	
621	0	32748	32684	
622	0	32832	32622	
623	0	32760	32684	
624	0	32820	32758	
625	0	32788	32775	
626	0	32788	32800	
627	0	32812	32794	
628	0	32838	32756	
629	0	32860	32838	
630	0	32868	32830	
631	0	32832	32793	
632	0	32772	32788	
633	0	32762	32807	
634	0	32810	32926	
635	0	32826	32762	
636	0	32772	32814	
637	0	32784	32832	
638	0	32872	32874	
639	0	32800	32775	
640	0	32772	32756	
641	0	32832	32775	
642	0	32800	32839	
643	0	32802	32729	
644	0	32868	32722	
645	0	32804	32716	
646	0	32780	32788	
647	0	32740	32751	
648	0	32822	32808	
649	0	32836	32860	
650	0	32834	32871	
651	0	32828	32838	
652	0	32824	32710	
653	0	32820	32624	
654	0	32834	32674	
655	0	32810	32762	
656	0	32820	32761	
657	0	32804	32716	
658	0	32816	32768	
659	0	32768	32679	
660	0	32850	32743	
661	0	32796	32764	
662	0	32796	32775	
663	0	32836	32775	
664	0	32780	32743	
665	0	32816	32738	
666	0	32780	32666	
667	0	32802	32686	
668	0	32728	32679	
669	0	32772	32686	
670	0	32840	32748	
671	0	32808	32714	
672	0	32782	32827	
673	0	32884	32852	
674	0	32818	32860	
675	0	32806	32758	
676	0	32834	32792	
677	0	32798	32802	
678	0	32840	32791	
679	0	32880	32825	
680	0	32828	32890	
681	0	32820	32806	
682	0	32802	32782	
683	0	32780	32876	
684	0	32808	32789	
685	0	32768	32775	
686	0	32812	32824	
687	0	32920	32764	
688	0	32810	32775	
689	0	32810	32791	
690	0	32824	32758	
691	0	32844	32815	
692	0	32804	32760	
693	0	32778	32770	
694	0	32810	32756	
695	0	32800	32734	
696	0	32840	32828	
697	0	32793	32808	
698	0	32868	32750	
699	0	32832	32708	
700	0	32752	32725	
701	0	32808	32704	
702	0	32832	32700	
703	0	32828	32720	
704	0	32740	32670	
705	0	32772	32706	
706	0	32798	32879	
707	0	32800	32759	
708	0	32818	32836	
709	0	32828	32814	
710	0	32836	32798	
711	0	32790	32791	
712	0	32804	32788	
713	0	32818	32740	
714	0	32780	32876	
715	0	32764	32694	
716	0	32808	32722	
717	0	32826	32734	
718	0	32852	32732	
719	0	32806	32804	
720	0	32818	32722	
721	0	32800	32800	
722	0	32760	32720	
723	0	32826	32880	
724	0	32786	32846	
725	0	32804	32718	
726	0	32812	32774	
727	0	32848	32820	
728	0	32764	32896	
729	0	32728	32775	
730	0	32804	32724	
731	0	32768	32742	
732	0	32802	32730	
733	0	32796	32680	
734	0	32806	32753	
735	0	32772	32668	
736	0	32814	32748	
737	0	32816	32798	
738	0	32836	32688	
739	0	32782	32736	
740	0	32816	32662	
741	0	32832	32712	
742	0	32844	32748	
743	0	32862	32720	
744	0	32800	32639	
745	0	32802	32708	
746	0	32836	32703	
747	0	32812	32708	
748	0	32808	32694	
749	0	32842	32734	
750	0	32820	32744	
751	0	32796	32860	
752	0	32880	32828	
753	0	32812	32760	
754	0	32810	32848	
755	0	32820	32802	
756	0	32824	32790	
757	0	32826	32742	
758	0	32824	32806	
759	0	32820	32766	
760	0	32754	32736	
761	0	32866	32834	
762	0	32804	32912	
763	0	32778	32775	
764	0	32808	32924	
765	0	32748	32816	
766	0	32772	32810	
767	0	32736	32852	
768	0	32852	32718	
769	0	32760	32676	
770	0	32846	32714	
771	0	32828	32772	
772	0	32808	32742	
773	0	32864	32742	
774	0	32812	32784	
775	0	32812	32788	
776	0	32816	32740	
777	0	32802	32852	
778	0	32816	32764	
779	0	32800	32806	
780	0	32798	32696	
781	0	32840	32828	
782	0	32810	32790	
783	0	32785	32784	
784	0	32834	32687	
785	0	32812	32670	
786	0	32824	32718	
787	0	32820	32632	
788	0	32760	32698	
789	0	32776	32806	
790	0	32824	32831	
791	0	32860	32828	
792	0	32860	32830	
793	0	32820	32854	
794	0	32812	32800	
795	0	32824	32816	
796	0	32788	32770	
797	0	32826	32836	
798	0	32792	32754	
799	0	32820	32740	
800	0	32824	32788	
801	0	32804	32791	
802	0	32832	32844	
803	0	32766	32821	
804	0	32784	32724	
805	0	32812	32680	
806	0	32784	32654	
807	0	32816	32774	
808	0	32770	32792	
809	0	32810	32728	
810	0	32824	32812	
811	0	32804	32738	
812	0	32784	32775	
813	0	32708	32820	
814	0	32736	32903	
815	0	32804	32723	
816	0	32820	32756	
817	0	32816	32720	
818	0	32762	32714	
819	0	32836	32724	
820	0	32836	32711	
821	0	32856	32670	
822	0	32832	32690	
823	0	32770	32802	
824	0	32840	32775	
825	0	32816	32822	
826	0	32782	32759	
827	0	32856	32774	
828	0	32760	32716	
829	0	32808	32749	
830	0	32820	32798	
831	0	32876	32775	
832	0	32776	32758	
833	0	32800	32822	
834	0	32816	32775	
835	0	32784	32820	
836	0	32856	32788	
837	0	32816	32796	
838	0	32760	32793	
839	0	32744	32736	
840	0	32808	32736	
841	0	32808	32774	
842	0	32856	32818	
843	0	32844	32692	
844	0	32814	32726	
845	0	32848	32700	
846	0	32820	32840	
847	0	32840	32816	
848	0	32800	32816	
849	0	32836	32786	
850	0	32799	32840	
851	0	32826	32750	
852	0	32816	32676	
853	0	32788	32666	
854	0	32832	32744	
855	0	32780	32644	
856	0	32842	32734	
857	0	32804	32708	
858	0	32804	32696	
859	0	32844	32732	
860	0	32804	32652	
861	0	32784	32710	
862	0	32868	32680	
863	0	32824	32721	
864	0	32780	32666	
865	0	32814	32668	
866	0	32834	32734	
867	0	32816	32656	
868	0	32844	32766	
869	0	32864	32810	
870	0	32794	32788	
871	0	32860	32810	
872	0	32792	32726	
873	0	32784	32742	
874	0	32860	32806	
875	0	32854	32700	
876	0	32820	32740	
877	0	32828	32674	
878	0	32738	32718	
879	0	32832	32780	
880	0	32776	32812	
881	0	32768	32682	
882	0	32840	32772	
883	0	32834	32762	
884	0	32782	32696	
885	0	32752	32676	
886	0	32868	32775	
887	0	32824	32800	
888	0	32836	32767	
889	0	32820	32846	
890	0	32774	32716	
891	0	32796	32798	
892	0	32806	32789	
893	0	32874	32802	
894	0	32824	32752	
895	0	32836	32866	
896	0	32734	32775	
897	0	32804	32839	
898	0	32812	32836	
899	0	32844	32844	
900	0	32748	32748	
901	0	32784	32700	
902	0	32856	32742	
903	0	32812	32712	
904	0	32828	32660	
905	0	32814	32622	
906	0	32824	32703	
907	0	32798	32767	
908	0	32824	32724	
909	0	32824	32674	
910	0	32816	32736	
911	0	32852	32810	
912	0	32824	32759	
913	0	32820	32808	
914	0	32840	32884	
915	0	32824	32832	
916	0	32810	32758	
917	0	32840	32711	
918	0	32792	32775	
919	0	32812	32740	
920	0	32824	32798	
921	0	32828	32742	
922	0	32804	32724	
923	0	32770	32804	
924	0	32792	32743	
925	0	32772	32836	
926	0	32848	32748	
927	0	32788	32762	
928	0	32776	32836	
929	0	32756	32816	
930	0	32820	32769	
931	0	32772	32804	
932	0	32804	32842	
933	0	32816	32758	
934	0	32817	32848	
935	0	32848	32825	
936	0	32820	32880	
937	0	32772	32848	
938	0	32798	32837	
939	0	32804	32756	
940	0	32854	32736	
941	0	32864	32807	
942	0	32804	32744	
943	0	32784	32710	
944	0	32814	32728	
945	0	32817	32775	
946	0	32754	32765	
947	0	32772	32808	
948	0	32848	32832	
949	0	32816	32858	
950	0	32836	32860	
951	0	32790	32775	
952	0	32825	32856	
953	0	32776	32806	
954	0	32846	32775	
955	0	32762	32824	
956	0	32820	32738	
957	0	32800	32732	
958	0	32796	32692	
959	0	32802	32679	
960	0	32820	32648	
961	0	32848	32678	
962	0	32784	32744	
963	0	32800	32722	
964	0	32804	32804	
965	0	32824	32700	
966	0	32804	32722	
967	0	32756	32760	
968	0	32836	32702	
969	0	32866	32874	
970	0	32834	32876	
971	0	32836	32810	
972	0	32828	32846	
973	0	32836	32798	
974	0	32810	32758	
975	0	32836	32775	
976	0	32834	32775	
977	0	32864	32799	
978	0	32788	32775	
979	0	32780	32810	
980	0	32812	32768	
981	0	32840	32806	
982	0	32844	32791	
983	0	32846	32802	
984	0	32808	32754	
985	0	32804	32704	
986	0	32794	32764	
987	0	32804	32742	
988	0	32806	32764	
989	0	32900	32740	
990	0	32816	32634	
991	0	32840	32743	
992	0	32792	32678	
993	0	32796	32684	
994	0	32754	32753	
995	0	32812	32700	
996	0	32816	32646	
997	0	32792	32744	
998	0	32756	32692	
999	0	32740	32672	
1000	0	32832	32756	
1001	0	32778	32676	
1002	0	32800	32750	
1003	0	32868	32856	
1004	0	32770	32762	
1005	0	32792	32684	
1006	0	32752	32774	
1007	0	32840	32812	
1008	0	32816	32878	
1009	0	32792	32796	
1010	0	32814	32775	
1011	0	32772	32808	
1012	0	32808	32815	
1013	0	32734	32772	
1014	0	32800	32772	
1015	0	32844	32870	
1016	0	32784	32739	
1017	0	32854	32822	
1018	0	32844	32730	
1019	0	32840	32768	
1020	0	32796	32822	
1021	0	32792	32840	
1022	0	32774	32796	
1023	0	32856	32818	
1024	0	32780	32766	
1025	0	32740	32762	
1026	0	32738	32792	
1027	0	32832	32775	
1028	0	32832	32812	
1029	0	32826	32772	
1030	0	32842	32770	
1031	0	32814	32828	
1032	0	32732	32804	
1033	0	32820	32734	
1034	0	32832	32697	
1035	0	32822	32688	
1036	0	32746	32754	
1037	0	32756	32760	
1038	0	32882	32670	
1039	0	32852	32680	
1040	0	32818	32892	
1041	0	32772	32686	
1042	0	32824	32852	
1043	0	32778	32734	
1044	0	32846	32775	
1045	0	32828	32852	
1046	0	32908	32815	
1047	0	32792	32775	
1048	0	32812	32834	
1049	0	32816	32826	
1050	0	32812	32841	
1051	0	32776	32817	
1052	0	32784	32810	
1053	0	32840	32808	
1054	0	32784	32772	
1055	0	32788	32800	
1056	0	32808	32744	
1057	0	32814	32718	
1058	0	32808	32790	
1059	0	32804	32775	
1060	0	32790	32748	
1061	0	32788	32858	
1062	0	32876	32758	
1063	0	32790	32774	
1064	0	32840	32774	
1065	0	32798	32736	
1066	0	32808	32708	
1067	0	32802	32716	
1068	0	32828	32727	
1069	0	32768	32766	
1070	0	32880	32720	
1071	0	32880	32690	
1072	0	32782	32802	
1073	0	32768	32783	
1074	0	32796	32870	
1075	0	32788	32775	
1076	0	32800	32838	
1077	0	32784	32695	
1078	0	32754	32748	
1079	0	32852	32724	
1080	0	32804	32788	
1081	0	32872	32844	
1082	0	32800	32836	
1083	0	32818	32862	
1084	0	32784	32750	
1085	0	32816	32710	
1086	0	32800	32706	
1087	0	32804	32684	
1088	0	32780	32689	
1089	0	32820	32772	
1090	0	32796	32644	
1091	0	32856	32696	
1092	0	32840	32738	
1093	0	32764	32739	
1094	0	32820	32706	
1095	0	32832	32718	
1096	0	32884	32876	
1097	0	32808	32775	
1098	0	32784	32822	
1099	0	32818	32790	
1100	0	32836	32828	
1101	0	32852	32818	
1102	0	32872	32786	
1103	0	32802	32724	
1104	0	32792	32804	
1105	0	32840	32762	
1106	0	32864	32724	
1107	0	32748	32836	
1108	0	32754	32814	
1109	0	32810	32742	
1110	0	32810	32748	
1111	0	32882	32720	
1112	0	32792	32832	
1113	0	32808	32724	
1114	0	32804	32808	
1115	0	32840	32847	
1116	0	32816	32762	
1117	0	32756	32744	
1118	0	32802	32852	
1119	0	32812	32636	
1120	0	32780	32828	
1121	0	32828	32814	
1122	0	32868	32758	
1123	0	32776	32846	
1124	0	32804	32668	
1125	0	32774	32611	
1126	0	32778	32831	
1127	0	32852	32798	
1128	0	32776	32754	
1129	0	32754	32762	
1130	0	32832	32782	
1131	0	32756	32796	
1132	0	32784	32752	
1133	0	32808	32732	
1134	0	32804	32792	
1135	0	32764	32794	
1136	0	32868	32672	
1137	0	32816	32823	
1138	0	32852	32732	
1139	0	32866	32744	
1140	0	32828	32839	
1141	0	32808	32810	
1142	0	32812	32660	
1143	0	32792	32744	
1144	0	32786	32875	
1145	0	32824	32705	
1146	0	32800	32822	
1147	0	32804	32796	
1148	0	32778	32692	
1149	0	32800	32786	
1150	0	32782	32752	
1151	0	32790	32759	
1152	0	32762	32832	
1153	0	32868	32732	
1154	0	32832	32712	
1155	0	32800	32712	
1156	0	32852	32842	
1157	0	32834	32743	
1158	0	32748	32836	
1159	0	32860	32840	
1160	0	32844	32725	
1161	0	32800	32810	
1162	0	32792	32719	
1163	0	32834	32775	
1164	0	32780	32702	
1165	0	32720	32692	
1166	0	32744	32702	
1167	0	32796	32940	
1168	0	32842	32814	
1169	0	32824	32784	
1170	0	32812	32724	
1171	0	32880	32732	
1172	0	32872	32704	
1173	0	32878	32746	
1174	0	32812	32753	
1175	0	32808	32744	
1176	0	32836	32850	
1177	0	32798	32774	
1178	0	32828	32644	
1179	0	32792	32750	
1180	0	32768	32719	
1181	0	32840	32852	
1182	0	32840	32836	
1183	0	32822	32704	
1184	0	32788	32744	
1185	0	32812	32769	
1186	0	32768	32796	
1187	0	32822	32814	
1188	0	32762	32710	
1189	0	32842	32826	
1190	0	32872	32654	
1191	0	32858	32816	
1192	0	32814	32794	
1193	0	32854	32658	
1194	0	32784	32764	
1195	0	32814	32798	
1196	0	32836	32756	
1197	0	32744	32765	
1198	0	32812	32740	
1199	0	32746	32798	
1200	0	32926	32754	
1201	0	32816	32728	
1202	0	32788	32750	
1203	0	32870	32832	
1204	0	32814	32708	
1205	0	32852	32720	
1206	0	32758	32734	
1207	0	32848	32794	
1208	0	32780	32775	
1209	0	32772	32703	
1210	0	32744	32820	
1211	0	32806	32758	
1212	0	32816	32871	
1213	0	32840	32807	
1214	0	32864	32726	
1215	0	32770	32718	
1216	0	32800	32719	
1217	0	32792	32738	
1218	0	32848	32822	
1219	0	32798	32654	
1220	0	32852	32802	
1221	0	32804	32862	
1222	0	32832	32668	
1223	0	32842	32766	
1224	0	32831	32660	
1225	0	32788	32935	
1226	0	32764	32830	
1227	0	32752	32703	
1228	0	32852	32814	
1229	0	32816	32714	
1230	0	32820	32764	
1231	0	32800	32792	
1232	0	32816	32740	
1233	0	32832	32862	
1234	0	32804	32775	
1235	0	32846	32822	
1236	0	32874	32799	
1237	0	32798	32726	
1238	0	32816	32831	
1239	0	32784	32816	
1240	0	32808	32766	
1241	0	32774	32720	
1242	0	32768	32730	
1243	0	32770	32719	
1244	0	32845	32807	
1245	0	32758	32862	
1246	0	32738	32702	
1247	0	32784	32692	
1248	0	32936	32628	
1249	0	32928	32724	
1250	0	32812	32752	
1251	0	32830	32752	
1252	0	32852	32704	
1253	0	32860	32576	
1254	0	32816	32708	
1255	0	32888	32694	
1256	0	32850	32644	
1257	0	32900	32692	
1258	0	32926	32756	
1259	0	32864	32519	
1260	0	32892	32709	
1261	0	32868	32743	
1262	0	32940	32772	
1263	0	32940	32688	
1264	0	32802	32614	
1265	0	32916	32672	
1266	0	32865	32788	
1267	0	32848	32706	
1268	0	32826	32760	
1269	0	32830	32807	
1270	0	32836	32848	
1271	0	32868	32935	
1272	0	32732	32888	
1273	0	32696	32920	
1274	0	32664	32834	
1275	0	32712	32962	
1276	0	32724	32888	
1277	0	32680	32930	
1278	0	32634	32911	
1279	0	32674	33124	
1280	0	32718	32908	
1281	0	32680	32994	
1282	0	32626	32966	
1283	0	32638	33075	
1284	0	32632	33031	
1285	0	32670	32882	
1286	0	32640	33012	
1287	0	32612	32949	
1288	0	32678	32862	
1289	0	32692	32903	
1290	0	32836	32799	
1291	0	32830	32735	
1292	0	32876	32660	
1293	0	32920	32622	
1294	0	32944	32591	
1295	0	32936	32644	
1296	0	32892	32548	
1297	0	32888	32538	
1298	0	32920	32574	
1299	0	32976	32626	
1300	0	32848	32604	
1301	0	32868	32672	
1302	0	32864	32630	
1303	0	32850	32714	
1304	0	32808	32756	
1305	0	32814	32720	
1306	0	32852	32756	
1307	0	32764	32800	
1308	0	32818	32817	
1309	0	32820	32840	
1310	0	32800	32820	
1311	0	32762	32775	
1312	0	32724	32858	
1313	0	32808	32824	
1314	0	32794	32769	
1315	0	32824	32752	
1316	0	32820	32746	
1317	0	32848	32842	
1318	0	32856	32775	
1319	0	32836	32766	
1320	0	32840	32692	
1321	0	32848	32738	
1322	0	32868	32744	
1323	0	32852	32740	
1324	0	32828	32743	
1325	0	32770	32808	
1326	0	32764	32678	
1327	0	32736	32696	
1328	0	32760	32775	
1329	0	32910	32836	
1330	0	32840	32793	
1331	0	32802	32736	
1332	0	32740	32867	
1333	0	32832	32839	
1334	0	32748	32788	
1335	0	32842	32855	
1336	0	32808	32800	
1337	0	32908	32752	
1338	0	32828	32807	
1339	0	32872	32788	
1340	0	32882	32768	
1341	0	32847	32868	
1342	0	32856	32748	
1343	0	32872	32766	
1344	0	32836	32820	
1345	0	32832	32802	
1346	0	32804	32760	
1347	0	32814	32792	
1348	0	32868	32784	
1349	0	32868	32732	
1350	0	32852	32836	
1351	0	32860	32804	
1352	0	32820	32806	
1353	0	32808	32852	
1354	0	32828	32844	
1355	0	32880	32800	
1356	0	32832	32807	
1357	0	32928	32764	
1358	0	32844	32792	
1359	0	32780	32734	
1360	0	32810	32774	
1361	0	32872	32799	
1362	0	32826	32743	
1363	0	32836	32775	
1364	0	32756	32748	
1365	0	32782	32764	
1366	0	32790	32844	
1367	0	32788	32844	
1368	0	32792	32744	
1369	0	32824	32743	
1370	0	32818	32670	
1371	0	32816	32751	
1372	0	32778	32807	
1373	0	32808	32848	
1374	0	32830	32817	
1375	0	32788	32775	
1376	0	32816	32788	
1377	0	32796	32746	
1378	0	32696	32791	
1379	0	32788	32812	
1380	0	32840	32856	
1381	0	32840	32674	
1382	0	32824	32728	
1383	0	32794	32746	
1384	0	32775	32729	
1385	0	32796	32743	
1386	0	32750	32684	
1387	0	32784	32848	
1388	0	32882	32788	
1389	0	32800	32848	
1390	0	32814	32790	
1391	0	32816	32878	
1392	0	32752	32854	
1393	0	32794	32774	
1394	0	32800	32798	
1395	0	32772	32775	
1396	0	32778	32708	
1397	0	32780	32614	
1398	0	32884	32647	
1399	0	32824	32668	
1400	0	32812	32710	
1401	0	32820	32744	
1402	0	32848	32738	
1403	0	32860	32828	
1404	0	32748	32848	
1405	0	32868	32768	
1406	0	32782	32740	
1407	0	32836	32782	
1408	0	32792	32748	
1409	0	32866	32728	
1410	0	32826	32766	
1411	0	32820	32708	
1412	0	32816	32900	
1413	0	32868	32720	
1414	0	32862	32775	
1415	0	32804	32808	
1416	0	32852	32840	
1417	0	32798	32784	
1418	0	32818	32704	
1419	0	32762	32698	
1420	0	32796	32874	
1421	0	32804	32772	
1422	0	32788	32798	
1423	0	32800	32824	
1424	0	32804	32718	
1425	0	32832	32724	
1426	0	32800	32702	
1427	0	32804	32720	
1428	0	32800	32864	
1429	0	32804	32801	
1430	0	32794	32796	
1431	0	32826	32760	
1432	0	32800	32834	
1433	0	32796	32742	
1434	0	32810	32756	
1435	0	32784	32852	
1436	0	32804	32775	
1437	0	32804	32656	
1438	0	32836	32724	
1439	0	32848	32680	
1440	0	32832	32839	
1441	0	32804	32852	
1442	0	32804	32686	
1443	0	32816	32807	
1444	0	32776	32729	
1445	0	32828	32726	
1446	0	32708	32644	
1447	0	32864	32822	
1448	0	32738	32760	
1449	0	32792	32775	
1450	0	32818	32847	
1451	0	32808	32775	
1452	0	32808	32694	
1453	0	32812	32718	
1454	0	32822	32700	
1455	0	32772	32692	
1456	0	32864	32727	
1457	0	32836	32817	
1458	0	32772	32808	
1459	0	32788	32754	
1460	0	32792	32791	
1461	0	32802	32817	
1462	0	32768	32732	
1463	0	32838	32702	
1464	0	32792	32868	
1465	0	32804	32775	
1466	0	32832	32711	
1467	0	32822	32678	
1468	0	32792	32828	
1469	0	32836	32811	
1470	0	32774	32772	
1471	0	32824	32775	
1472	0	32738	32678	
1473	0	32776	32734	
1474	0	32810	32692	
1475	0	32892	32722	
1476	0	32816	32760	
1477	0	32860	32762	
1478	0	32798	32814	
1479	0	32868	32775	
1480	0	32776	32775	
1481	0	32844	32679	
1482	0	32774	32668	
1483	0	32820	32762	
1484	0	32792	32714	
1485	0	32800	32704	
1486	0	32854	32674	
1487	0	32824	32698	
1488	0	32788	32734	
1489	0	32774	32700	
1490	0	32792	32740	
1491	0	32822	32682	
1492	0	32840	32636	
1493	0	32804	32730	
1494	0	32820	32700	
1495	0	32854	32886	
1496	0	32772	32626	
1497	0	32794	32772	
1498	0	32864	32752	
1499	0	32852	32759	
1500	0	32840	32816	
1501	0	32732	32750	
1502	0	32824	32784	
1503	0	32764	32807	
1504	0	32900	32800	
1505	0	32872	32831	
1506	0	32778	32812	
1507	0	32804	32746	
1508	0	32848	32766	
1509	0	32792	32828	
1510	0	32788	32708	
1511	0	32832	32772	
1512	0	32776	32767	
1513	0	32816	32802	
1514	0	32852	32762	
1515	0	32884	32789	
1516	0	32816	32874	
1517	0	32836	32794	
1518	0	32840	32736	
1519	0	32776	32798	
1520	0	32880	32794	
1521	0	32892	32744	
1522	0	32804	32788	
1523	0	32832	32732	
1524	0	32754	32775	
1525	0	32804	32775	
1526	0	32792	32814	
1527	0	32808	32770	
1528	0	32808	32718	
1529	0	32744	32676	
1530	0	32824	32678	
1531	0	32848	32844	
1532	0	32820	32814	
1533	0	32862	32844	
1534	0	32792	32748	
1535	0	32780	32748	
1536	0	32822	32816	
1537	0	32824	32739	
1538	0	32844	32817	
1539	0	32848	32716	
1540	0	32780	32628	
1541	0	32832	32710	
1542	0	32944	32714	
1543	0	32888	32766	
1544	0	32792	32732	
1545	0	32848	32710	
1546	0	32816	32756	
1547	0	32750	32750	
1548	0	32864	32708	
1549	0	32868	32836	
1550	0	32774	32820	
1551	0	32764	32832	
1552	0	32812	32882	
1553	0	32722	32801	
1554	0	32824	32881	
1555	0	32804	32832	
1556	0	32782	32822	
1557	0	32750	32766	
1558	0	32846	32736	
1559	0	32860	32694	
1560	0	32780	32674	
1561	0	32772	32735	
1562	0	32800	32868	
1563	0	32852	32772	
1564	0	32800	32746	
1565	0	32826	32756	
1566	0	32824	32784	
1567	0	32764	32788	
1568	0	32856	32858	
1569	0	32828	32752	
1570	0	32797	32814	
1571	0	32812	32775	
1572	0	32836	32770	
1573	0	32812	32678	
1574	0	32842	32725	
1575	0	32818	32788	
1576	0	32840	32855	
1577	0	32772	32839	
1578	0	32788	32851	
1579	0	32848	32890	
1580	0	32858	32802	
1581	0	32808	32818	
1582	0	32808	32812	
1583	0	32824	32767	
1584	0	32824	32764	
1585	0	32814	32756	
1586	0	32775	32775	
1587	0	32916	32746	
1588	0	32864	32694	
1589	0	32848	32750	
1590	0	32738	32868	
1591	0	32798	32746	
1592	0	32820	32748	
1593	0	32792	32766	
1594	0	32804	32817	
1595	0	32810	32798	
1596	0	32820	32822	
1597	0	32848	32774	
1598	0	32810	32759	
1599	0	32840	32692	
1600	0	32760	32712	
1601	0	32844	32892	
1602	0	32824	32730	
1603	0	32828	32740	
1604	0	32884	32758	
1605	0	32778	32775	
1606	0	32728	32758	
1607	0	32788	32784	
1608	0	32808	32740	
1609	0	32884	32670	
1610	0	32746	32706	
1611	0	32800	32736	
1612	0	32770	32820	
1613	0	32858	32860	
1614	0	32844	32775	
1615	0	32808	32784	
1616	0	32806	32847	
1617	0	32872	32740	
1618	0	32840	32676	
1619	0	32788	32729	
1620	0	32790	32736	
1621	0	32858	32687	
1622	0	32802	32638	
1623	0	32800	32814	
1624	0	32778	32812	
1625	0	32808	32816	
1626	0	32798	32793	
1627	0	32752	32757	
1628	0	32802	32686	
1629	0	32812	32770	
1630	0	32746	32842	
1631	0	32768	32746	
1632	0	32834	32768	
1633	0	32820	32766	
1634	0	32820	32852	
1635	0	32836	32864	
1636	0	32832	32884	
1637	0	32868	32806	
1638	0	32840	32716	
1639	0	32840	32679	
1640	0	32752	32775	
1641	0	32836	32762	
1642	0	32834	32692	
1643	0	32804	32658	
1644	0	32830	32636	
1645	0	32728	32730	
1646	0	32814	32742	
1647	0	32778	32800	
1648	0	32860	32662	
1649	0	32768	32764	
1650	0	32820	32680	
1651	0	32788	32700	
1652	0	32766	32686	
1653	0	32756	32729	
1654	0	32866	32728	
1655	0	32832	32854	
1656	0	32833	32772	
1657	0	32808	32740	
1658	0	32842	32796	
1659	0	32780	32670	
1660	0	32796	32736	
1661	0	32812	32748	
1662	0	32848	32684	
1663	0	32868	32775	
1664	0	32750	32807	
1665	0	32696	32764	
1666	0	32775	32844	
1667	0	32775	32768	
1668	0	32792	32733	
1669	0	32824	32716	
1670	0	32814	32696	
1671	0	32866	32786	
1672	0	32784	32852	
1673	0	32828	32814	
1674	0	32790	32775	
1675	0	32864	32726	
1676	0	32774	32852	
1677	0	32876	32788	
1678	0	32816	32794	
1679	0	32774	32742	
1680	0	32786	32808	
1681	0	32800	32768	
1682	0	32896	32736	
1683	0	32756	32820	
1684	0	32820	32733	
1685	0	32800	32760	
1686	0	32816	32794	
1687	0	32796	32828	
1688	0	32860	32718	
1689	0	32844	32700	
1690	0	32844	32740	
1691	0	32774	32839	
1692	0	32772	32810	
1693	0	32882	32775	
1694	0	32820	32769	
1695	0	32732	32775	
1696	0	32760	32732	
1697	0	32832	32842	
1698	0	32724	32810	
1699	0	32872	32768	
1700	0	32852	32724	
1701	0	32794	32702	
1702	0	32896	32746	
1703	0	32932	32670	
1704	0	32848	32644	
1705	0	32780	32682	
1706	0	32804	32762	
1707	0	32828	32766	
1708	0	32740	32759	
1709	0	32844	32752	
1710	0	32840	32856	
1711	0	32808	32812	
1712	0	32816	32871	
1713	0	32856	32824	
1714	0	32798	32807	
1715	0	32820	32752	
1716	0	32816	32724	
1717	0	32816	32704	
1718	0	32804	32732	
1719	0	32808	32671	
1720	0	32798	32796	
1721	0	32808	32768	
1722	0	32824	32775	
1723	0	32858	32662	
1724	0	32864	32775	
1725	0	32828	32742	
1726	0	32778	32638	
1727	0	32816	32659	
1728	0	32808	32708	
1729	0	32836	32868	
1730	0	32824	32784	
1731	0	32780	32772	
1732	0	32806	32822	
1733	0	32836	32750	
1734	0	32812	32734	
1735	0	32836	32810	
1736	0	32788	32714	
1737	0	32842	32740	
1738	0	32760	32632	
1739	0	32824	32775	
1740	0	32768	32706	
1741	0	32800	32803	
1742	0	32804	32734	
1743	0	32780	32708	
1744	0	32808	32748	
1745	0	32812	32838	
1746	0	32810	32740	
1747	0	32760	32775	
1748	0	32824	32694	
1749	0	32778	32790	
1750	0	32854	32852	
1751	0	32884	32740	
1752	0	32720	32758	
1753	0	32802	32743	
1754	0	32752	32774	
1755	0	32848	32692	
1756	0	32864	32830	
1757	0	32824	32732	
1758	0	32864	32663	
1759	0	32800	32824	
1760	0	32782	32713	
1761	0	32834	32863	
1762	0	32830	32746	
1763	0	32764	32860	
1764	0	32840	32824	
1765	0	32832	32704	
1766	0	32816	32774	
1767	0	32840	32800	
1768	0	32776	32740	
1769	0	32730	32742	
1770	0	32812	32702	
1771	0	32850	32864	
1772	0	32836	32822	
1773	0	32792	32772	
1774	0	32814	32804	
1775	0	32820	32696	
1776	0	32792	32806	
1777	0	32837	32708	
1778	0	32804	32815	
1779	0	32848	32800	
1780	0	32840	32760	
1781	0	32810	32862	
1782	0	32778	32718	
1783	0	32784	32775	
1784	0	32746	32632	
1785	0	32746	32801	
1786	0	32776	32852	
1787	0	32816	32711	
1788	0	32828	32727	
1789	0	32792	32756	
1790	0	32820	32762	
1791	0	32860	32792	
1792	0	32860	32714	
1793	0	32800	32753	
1794	0	32876	32818	
1795	0	32718	32745	
1796	0	32808	32817	
1797	0	32734	32711	
1798	0	32852	32796	
1799	0	32814	32774	
1800	0	32796	32736	
1801	0	32860	32791	
1802	0	32800	32836	
1803	0	32780	32758	
1804	0	32778	32678	
1805	0	32756	32662	
1806	0	32784	32646	
1807	0	32832	32794	
1808	0	32832	32842	
1809	0	32856	32816	
1810	0	32816	32871	
1811	0	32842	32768	
1812	0	32792	32870	
1813	0	32740	32802	
1814	0	32926	32800	
1815	0	32852	32719	
1816	0	32756	32775	
1817	0	32820	32692	
1818	0	32758	32738	
1819	0	32800	32695	
1820	0	32828	32814	
1821	0	32824	32737	
1822	0	32816	32750	
1823	0	32810	32775	
1824	0	32802	32798	
1825	0	32824	32662	
1826	0	32768	32798	
1827	0	32748	32732	
1828	0	32828	32726	
1829	0	32818	32764	
1830	0	32850	32766	
1831	0	32816	32844	
1832	0	32788	32746	
1833	0	32812	32756	
1834	0	32812	32824	
1835	0	32792	32819	
1836	0	32852	32812	
1837	0	32860	32844	
1838	0	32774	32762	
1839	0	32826	32850	
1840	0	32798	32783	
1841	0	32812	32775	
1842	0	32860	32742	
1843	0	32776	32772	
1844	0	32796	32770	
1845	0	32788	32732	
1846	0	32840	32801	
1847	0	32816	32804	
1848	0	32760	32792	
1849	0	32800	32818	
1850	0	32780	32790	
1851	0	32788	32764	
1852	0	32816	32823	
1853	0	32868	32719	
1854	0	32744	32708	
1855	0	32814	32744	
1856	0	32836	32702	
1857	0	32772	32768	
1858	0	32800	32640	
1859	0	32840	32804	
1860	0	32792	32822	
1861	0	32848	32844	
1862	0	32800	32775	
1863	0	32750	32799	
1864	0	32830	32728	
1865	0	32786	32686	
1866	0	32774	32790	
1867	0	32746	32866	
1868	0	32816	32742	
1869	0	32778	32746	
1870	0	32838	32688	
1871	0	32744	32682	
1872	0	32868	32756	
1873	0	32778	32698	
1874	0	32880	32834	
1875	0	32844	32800	
1876	0	32808	32775	
1877	0	32800	32830	
1878	0	32840	32724	
1879	0	32820	32734	
1880	0	32830	32708	
1881	0	32836	32740	
1882	0	32804	32758	
1883	0	32840	32708	
1884	0	32844	32819	
1885	0	32800	32755	
1886	0	32844	32754	
1887	0	32792	32830	
1888	0	32804	32839	
1889	0	32820	32837	
1890	0	32836	32820	
1891	0	32802	32844	
1892	0	32776	32844	
1893	0	32732	32784	
1894	0	32772	32804	
1895	0	32832	32789	
1896	0	32848	32806	
1897	0	32792	32765	
1898	0	32764	32825	
1899	0	32824	32854	
1900	0	32852	32788	
1901	0	32816	32744	
1902	0	32856	32858	
1903	0	32812	32788	
1904	0	32772	32836	
1905	0	32812	32775	
1906	0	32822	32734	
1907	0	32784	32790	
1908	0	32852	32764	
1909	0	32852	32807	
1910	0	32822	32832	
1911	0	32836	32816	
1912	0	32795	32775	
1913	0	32860	32770	
1914	0	32792	32684	
1915	0	32760	32632	
1916	0	32786	32775	
1917	0	32824	32698	
1918	0	32796	32668	
1919	0	32810	32648	
1920	0	32866	32656	
1921	0	32870	32708	
1922	0	32852	32668	
1923	0	32828	32720	
1924	0	32800	32612	
1925	0	32796	32663	
1926	0	32812	32790	
1927	0	32810	32839	
1928	0	32780	32758	
1929	0	32856	32800	
1930	0	32840	32766	
1931	0	32848	32922	
1932	0	32756	32822	
1933	0	32800	32771	
1934	0	32784	32734	
1935	0	32808	32766	
1936	0	32816	32742	
1937	0	32792	32750	
1938	0	32854	32751	
1939	0	32726	32719	
1940	0	32836	32694	
1941	0	32776	32762	
1942	0	32840	32774	
1943	0	32848	32766	
1944	0	32768	32766	
1945	0	32800	32805	
1946	0	32848	32682	
1947	0	32788	32652	
1948	0	32816	32740	
1949	0	32780	32740	
1950	0	32830	32772	
1951	0	32836	32806	
1952	0	32828	32767	
1953	0	32796	32775	
1954	0	32804	32775	
1955	0	32820	32788	
1956	0	32852	32836	
1957	0	32824	32839	
1958	0	32848	32794	
1959	0	32804	32810	
1960	0	32782	32801	
1961	0	32892	32876	
1962	0	32834	32796	
1963	0	32786	32749	
1964	0	32800	32660	
1965	0	32830	32692	
1966	0	32836	32700	
1967	0	32704	32834	
1968	0	32748	32786	
1969	0	32818	32775	
1970	0	32800	32740	
1971	0	32764	32832	
1972	0	32888	32775	
1973	0	32853	32740	
1974	0	32832	32828	
1975	0	32820	32808	
1976	0	32778	32679	
1977	0	32746	32748	
1978	0	32860	32711	
1979	0	32736	32724	
1980	0	32872	32746	
1981	0	32792	32688	
1982	0	32824	32800	
1983	0	32828	32744	
1984	0	32764	32840	
1985	0	32832	32712	
1986	0	32810	32798	
1987	0	32772	32820	
1988	0	32782	32740	
1989	0	32848	32746	
1990	0	32826	32740	
1991	0	32800	32904	
1992	0	32756	32903	
1993	0	32780	32758	
1994	0	32842	32892	
1995	0	32834	32702	
1996	0	32804	32847	
1997	0	32774	32839	
1998	0	32784	32748	
1999	0	32798	32790	
2000	0	32804	32679	
2001	0	32802	32876	
2002	0	32862	32804	
2003	0	32828	32692	
2004	0	32834	32819	
2005	0	32776	32804	
2006	0	32774	32708	
2007	0	32828	32823	
2008	0	32834	32650	
2009	0	32820	32814	
2010	0	32772	32815	
2011	0	32868	32868	
2012	0	32834	32755	
2013	0	32828	32694	
2014	0	32804	32824	
2015	0	32812	32782	
2016	0	32812	32715	
2017	0	32794	32720	
2018	0	32808	32711	
2019	0	32836	32884	
2020	0	32808	32775	
2021	0	32844	32647	
2022	0	32776	32740	
2023	0	32768	32711	
2024	0	32788	32802	
2025	0	32796	32690	
2026	0	32816	32714	
2027	0	32740	32734	
2028	0	32756	32668	
2029	0	32802	32721	
2030	0	32832	32818	
2031	0	32744	32769	
2032	0	32828	32740	
2033	0	32772	32712	
2034	0	32820	32810	
2035	0	32836	32923	
2036	0	32824	32775	
2037	0	32784	32743	
2038	0	32812	32742	
2039	0	32804	32832	
2040	0	32780	32698	
2041	0	32868	32826	
2042	0	32840	32692	
2043	0	32804	32844	
2044	0	32757	32816	
2045	0	32772	32710	
2046	0	32810	32720	
2047	0	32841	32765	
2048	0	32836	32798	
2049	0	32860	32718	
2050	0	32788	32810	
2051	0	32824	32870	
2052	0	32810	32790	
2053	0	32778	32830	
2054	0	32812	32772	
2055	0	32864	32732	
2056	0	32796	32740	
2057	0	32846	32798	
2058	0	32846	32792	
2059	0	32762	32684	
2060	0	32868	32712	
2061	0	32832	32720	
2062	0	32836	32792	
2063	0	32772	32746	
2064	0	32804	32812	
2065	0	32764	32786	
2066	0	32778	32712	
2067	0	32783	32748	
2068	0	32840	32692	
2069	0	32796	32775	
2070	0	32790	32802	
2071	0	32780	32690	
2072	0	32816	32775	
2073	0	32756	32742	
2074	0	32868	32830	
2075	0	32888	32766	
2076	0	32870	32790	
2077	0	32748	32798	
2078	0	32808	32744	
2079	0	32820	32821	
2080	0	32812	32725	
2081	0	32764	32764	
2082	0	32792	32678	
2083	0	32810	32871	
2084	0	32850	32704	
2085	0	32848	32744	
2086	0	32784	32742	
2087	0	32842	32698	
2088	0	32818	32750	
2089	0	32836	32758	
2090	0	32808	32716	
2091	0	32808	32722	
2092	0	32824	32658	
2093	0	32808	32748	
2094	0	32868	32720	
2095	0	32792	32822	
2096	0	32820	32628	
2097	0	32775	32752	
2098	0	32836	32742	
2099	0	32856	32668	
2100	0	32838	32722	
2101	0	32828	32772	
2102	0	32842	32680	
2103	0	32808	32796	
2104	0	32784	32680	
2105	0	32776	32751	
2106	0	32804	32682	
2107	0	32796	32772	
2108	0	32858	32806	
2109	0	32764	32711	
2110	0	32816	32738	
2111	0	32820	32836	
2112	0	32852	32792	
2113	0	32810	32806	
2114	0	32778	32775	
2115	0	32848	32754	
2116	0	32800	32710	
2117	0	32772	32708	
2118	0	32852	32816	
2119	0	32812	32740	
2120	0	32792	32860	
2121	0	32784	32704	
2122	0	32804	32756	
2123	0	32834	32758	
2124	0	32838	32726	
2125	0	32877	32716	
2126	0	32824	32718	
2127	0	32764	32796	
2128	0	32808	32807	
2129	0	32752	32822	
2130	0	32798	32798	
2131	0	32788	32775	
2132	0	32784	32894	
2133	0	32776	32804	
2134	0	32804	32834	
2135	0	32782	32799	
2136	0	32868	32814	
2137	0	32864	32692	
2138	0	32832	32770	
2139	0	32760	32742	
2140	0	32774	32840	
2141	0	32878	32807	
2142	0	32892	32830	
2143	0	32756	32800	
2144	0	32808	32704	
2145	0	32870	32700	
2146	0	32824	32678	
2147	0	32836	32736	
2148	0	32780	32738	
2149	0	32840	32676	
2150	0	32824	32692	
2151	0	32794	32689	
2152	0	32844	32682	
2153	0	32824	32740	
2154	0	32860	32709	
2155	0	32830	32762	
2156	0	32732	32838	
2157	0	32820	32792	
2158	0	32788	32862	
2159	0	32796	32752	
2160	0	32856	32798	
2161	0	32812	32799	
2162	0	32824	32775	
2163	0	32804	32770	
2164	0	32820	32770	
2165	0	32864	32774	
2166	0	32804	32774	
2167	0	32836	32770	
2168	0	32792	32724	
2169	0	32824	32654	
2170	0	32798	32744	
2171	0	32836	32764	
2172	0	32772	32775	
2173	0	32812	32703	
2174	0	32848	32850	
2175	0	32794	32838	
2176	0	32818	32842	
2177	0	32764	32758	
2178	0	32784	32752	
2179	0	32828	32685	
2180	0	32870	32834	
2181	0	32776	32825	
2182	0	32862	32714	
2183	0	32880	32848	
2184	0	32788	32752	
2185	0	32790	32759	
2186	0	32828	32746	
2187	0	32788	32708	
2188	0	32816	32832	
2189	0	32820	32752	
2190	0	32764	32842	
2191	0	32744	32770	
2192	0	32780	32730	
2193	0	32776	32748	
2194	0	32816	32692	
2195	0	32812	32804	
2196	0	32818	32678	
2197	0	32836	32790	
2198	0	32788	32720	
2199	0	32840	32711	
2200	0	32812	32692	
2201	0	32778	32743	
2202	0	32865	32743	
2203	0	32820	32795	
2204	0	32798	32818	
2205	0	32834	32753	
2206	0	32772	32762	
2207	0	32788	32714	
2208	0	32844	32768	
2209	0	32840	32732	
2210	0	32826	32730	
2211	0	32760	32690	
2212	0	32788	32804	
2213	0	32860	32766	
2214	0	32798	32895	
2215	0	32756	32816	
2216	0	32852	32730	
2217	0	32848	32775	
2218	0	32740	32720	
2219	0	32856	32768	
2220	0	32840	32644	
2221	0	32784	32775	
2222	0	32837	32752	
2223	0	32864	32710	
2224	0	32800	32678	
2225	0	32808	32743	
2226	0	32788	32727	
2227	0	32796	32826	
2228	0	32832	32772	
2229	0	32826	32738	
2230	0	32790	32716	
2231	0	32786	32842	
2232	0	32788	32896	
2233	0	32780	32775	
2234	0	32828	32756	
2235	0	32768	32738	
2236	0	32810	32674	
2237	0	32820	32734	
2238	0	32832	32748	
2239	0	32870	32732	
2240	0	32798	32688	
2241	0	32836	32794	
2242	0	32784	32724	
2243	0	32812	32794	
2244	0	32826	32806	
2245	0	32772	32706	
2246	0	32794	32775	
2247	0	32766	32824	
2248	0	32812	32864	
2249	0	32840	32821	
2250	0	32860	32784	
2251	0	32786	32822	
2252	0	32808	32775	
2253	0	32788	32839	
2254	0	32780	32822	
2255	0	32748	32790	
2256	0	32834	32804	
2257	0	32830	32673	
2258	0	32788	32694	
2259	0	32810	32804	
2260	0	32816	32775	
2261	0	32768	32822	
2262	0	32836	32700	
2263	0	32816	32828	
2264	0	32840	32863	
2265	0	32772	32708	
2266	0	32816	32628	
2267	0	32856	32654	
2268	0	32808	32610	
2269	0	32868	32662	
2270	0	32844	32647	
2271	0	32824	32608	
2272	0	32864	32652	
2273	0	32876	32671	
2274	0	32832	32716	
2275	0	32878	32696	
2276	0	32982	32799	
2277	0	32892	32698	
2278	0	32844	32655	
2279	0	32922	32640	
2280	0	32900	32775	
2281	0	32860	32628	
2282	0	32852	32682	
2283	0	32916	32748	
2284	0	32920	32736	
2285	0	32864	32774	
2286	0	32848	32750	
2287	0	32820	32730	
2288	0	32776	32792	
2289	0	32792	32860	
2290	0	32772	32742	
2291	0	32684	32843	
2292	0	32672	32912	
2293	0	32668	32870	
2294	0	32741	33024	
2295	0	32648	32966	
2296	0	32680	33031	
2297	0	32654	33031	
2298	0	32622	32994	
2299	0	32632	32970	
2300	0	32674	33012	
2301	0	32644	33009	
2302	0	32716	33028	
2303	0	32642	33016	
2304	0	32620	33044	
2305	0	32604	32974	
2306	0	32700	32980	
2307	0	32700	32858	
2308	0	32712	32816	
2309	0	32888	32824	
2310	0	32872	32623	
2311	0	32928	32568	
2312	0	32844	32550	
2313	0	32896	32588	
2314	0	32936	32590	
2315	0	32962	32635	
2316	0	32864	32551	
2317	0	32838	32716	
2318	0	32902	32607	
2319	0	32924	32689	
2320	0	32894	32660	
2321	0	32876	32636	
2322	0	32814	32708	
2323	0	32856	32786	
2324	0	32792	32818	
2325	0	32768	32810	
2326	0	32776	32775	
2327	0	32812	32849	
2328	0	32816	32838	
2329	0	32824	32882	
2330	0	32832	32804	
2331	0	32785	32708	
2332	0	32816	32788	
2333	0	32756	32762	
2334	0	32818	32692	
2335	0	32788	32673	
2336	0	32780	32735	
2337	0	32830	32762	
2338	0	32904	32683	
2339	0	32864	32712	
2340	0	32846	32622	
2341	0	32796	32750	
2342	0	32804	32868	
2343	0	32848	32775	
2344	0	32830	32774	
2345	0	32806	32794	
2346	0	32792	32752	
2347	0	32856	32656	
2348	0	32800	32828	
2349	0	32842	32680	
2350	0	32836	32890	
2351	0	32818	32846	
2352	0	32860	32804	
2353	0	32900	32788	
2354	0	32772	32828	
2355	0	32848	32792	
2356	0	32840	32706	
2357	0	32798	32730	
2358	0	32844	32752	
2359	0	32860	32739	
2360	0	32856	32792	
2361	0	32918	32758	
2362	0	32820	32799	
2363	0	32836	32852	
2364	0	32826	32740	
2365	0	32842	32736	
2366	0	32834	32772	
2367	0	32780	32684	
2368	0	32856	32806	
2369	0	32816	32714	
2370	0	32828	32756	
2371	0	32856	32914	
2372	0	32846	32828	
2373	0	32796	32716	
2374	0	32888	32654	
2375	0	32836	32796	
2376	0	32848	32707	
2377	0	32792	32718	
2378	0	32768	32724	
2379	0	32808	32690	
2380	0	32836	32708	
2381	0	32800	32756	
2382	0	32796	32690	
2383	0	32820	32722	
2384	0	32780	32696	
2385	0	32832	32714	
2386	0	32832	32802	
2387	0	32814	32686	
2388	0	32796	32866	
2389	0	32844	32742	
2390	0	32816	32774	
2391	0	32890	32668	
2392	0	32816	32654	
2393	0	32820	32736	
2394	0	32764	32850	
2395	0	32828	32820	
2396	0	32828	32794	
2397	0	32754	32775	
2398	0	32758	32844	
2399	0	32802	32748	
2400	0	32848	32842	
2401	0	32848	32804	
2402	0	32806	32794	
2403	0	32764	32815	
2404	0	32768	32775	
2405	0	32736	32756	
2406	0	32738	32674	
2407	0	32816	32673	
2408	0	32812	32708	
2409	0	32820	32674	
2410	0	32736	32744	
2411	0	32760	32719	
2412	0	32812	32788	
2413	0	32824	32726	
2414	0	32804	32702	
2415	0	32804	32746	
2416	0	32810	32760	
2417	0	32898	32884	
2418	0	32834	32788	
2419	0	32784	32810	
2420	0	32796	32770	
2421	0	32800	32724	
2422	0	32762	32830	
2423	0	32868	32768	
2424	0	32810	32727	
2425	0	32800	32775	
2426	0	32798	32652	
2427	0	32862	32760	
2428	0	32816	32710	
2429	0	32862	32792	
2430	0	32801	32750	
2431	0	32864	32835	
2432	0	32744	32804	
2433	0	32794	32775	
2434	0	32804	32820	
2435	0	32858	32822	
2436	0	32728	32696	
2437	0	32836	32663	
2438	0	32806	32762	
2439	0	32816	32814	
2440	0	32839	32886	
2441	0	32860	32830	
2442	0	32892	32766	
2443	0	32836	32734	
2444	0	32860	32746	
2445	0	32860	32754	
2446	0	32762	32698	
2447	0	32748	32825	
2448	0	32734	32726	
2449	0	32780	32775	
2450	0	32796	32734	
2451	0	32738	32790	
2452	0	32772	32718	
2453	0	32724	32742	
2454	0	32798	32710	
2455	0	32898	32734	
2456	0	32878	32806	
2457	0	32904	32770	
2458	0	32904	32804	
2459	0	32772	32700	
2460	0	32812	32724	
2461	0	32820	32652	
2462	0	32808	32842	
2463	0	32852	32756	
2464	0	32808	32740	
2465	0	32798	32706	
2466	0	32904	32708	
2467	0	32804	32775	
2468	0	32816	32718	
2469	0	32804	32820	
2470	0	32776	32654	
2471	0	32824	32660	
2472	0	32730	32616	
2473	0	32768	32751	
2474	0	32706	32775	
2475	0	32756	32782	
2476	0	32844	32793	
2477	0	32884	32718	
2478	0	32820	32812	
2479	0	32832	32758	
2480	0	32688	32900	
2481	0	32800	32724	
2482	0	32752	32852	
2483	0	32832	32870	
2484	0	32738	32734	
2485	0	32772	32796	
2486	0	32856	32610	
2487	0	32848	32802	
2488	0	32786	32775	
2489	0	32866	32836	
2490	0	32848	32804	
2491	0	32776	32768	
2492	0	32812	32807	
2493	0	32848	32736	
2494	0	32788	32828	
2495	0	32856	32812	
2496	0	32846	32802	
2497	0	32844	32710	
2498	0	32878	32752	
2499	0	32812	32832	
2500	0	32790	32688	
2501	0	32800	32820	
2502	0	32792	32732	
2503	0	32716	32872	
2504	0	32828	32836	
2505	0	32960	32810	
2506	0	32902	32816	
2507	0	32864	32654	
2508	0	32768	32668	
2509	0	32732	32732	
2510	0	32676	32817	
2511	0	32628	32886	
2512	0	32594	32710	
2513	0	32720	32868	
2514	0	32693	32772	
2515	0	32772	32838	
2516	0	33000	32814	
2517	0	32984	32761	
2518	0	33084	32712	
2519	0	32840	32706	
2520	0	32680	32871	
2521	0	32638	32754	
2522	0	32596	32796	
2523	0	32868	32726	
2524	0	32788	32630	
2525	0	32888	32806	
2526	0	32992	32673	
2527	0	32836	32800	
2528	0	32800	32810	
2529	0	32884	32760	
2530	0	32710	32846	
2531	0	32676	32672	
2532	0	32916	32823	
2533	0	32876	32874	
2534	0	32840	32756	
2535	0	32744	32831	
2536	0	32738	32822	
2537	0	32638	32634	
2538	0	32768	32626	
2539	0	32896	32672	
2540	0	32920	32620	
2541	0	32952	32695	
2542	0	32936	32766	
2543	0	32868	32916	
2544	0	32816	32852	
2545	0	32728	32900	
2546	0	32706	32775	
2547	0	32748	32748	
2548	0	32856	32720	
2549	0	32888	32775	
2550	0	32964	32896	
2551	0	32892	32848	
2552	0	32716	32694	
2553	0	32728	32717	
2554	0	32650	32728	
2555	0	32712	32807	
2556	0	32748	32874	
2557	0	32920	32854	
2558	0	32924	32716	
2559	0	32804	32656	
2560	0	32848	32676	
2561	0	32870	32775	
2562	0	32804	32736	
2563	0	32756	32768	
2564	0	32826	32834	
2565	0	32775	32748	
2566	0	32828	32804	
2567	0	32962	32748	
2568	0	32892	32614	
2569	0	32772	32766	
2570	0	32704	32775	
2571	0	32708	32864	
2572	0	32740	32858	
2573	0	32752	32775	
2574	0	32816	32762	
2575	0	32818	32710	
2576	0	32824	32802	
2577	0	32834	32738	
2578	0	32958	32759	
2579	0	32896	32702	
2580	0	32720	32748	
2581	0	32704	32684	
2582	0	32748	32832	
2583	0	32736	32748	
2584	0	32844	32688	
2585	0	32876	32740	
2586	0	32928	32732	
2587	0	32928	32786	
2588	0	32970	32752	
2589	0	32918	32810	
2590	0	32876	32802	
2591	0	32828	32732	
2592	0	32676	32796	
2593	0	32710	32790	
2594	0	32740	32800	
2595	0	32772	32868	
2596	0	32716	32846	
2597	0	32820	32738	
2598	0	32860	32782	
2599	0	32784	32775	
2600	0	32808	32678	
2601	0	32748	32720	
2602	0	32824	32708	
2603	0	32884	32767	
2604	0	32852	32788	
2605	0	32801	32794	
2606	0	32790	32810	
2607	0	32738	32670	
2608	0	32792	32798	
2609	0	32838	32730	
2610	0	32752	32816	
2611	0	32844	32863	
2612	0	32824	32750	
2613	0	32874	32746	
2614	0	32900	32738	
2615	0	32930	32772	
2616	0	32800	32744	
2617	0	32860	32706	
2618	0	32736	32740	
2619	0	32754	32679	
2620	0	32716	32718	
2621	0	32756	32680	
2622	0	32864	32842	
2623	0	32866	32752	
2624	0	32828	32774	
2625	0	32828	32746	
2626	0	32768	32664	
2627	0	32752	32743	
2628	0	32818	32796	
2629	0	32828	32730	
2630	0	32820	32752	
2631	0	32820	32622	
2632	0	32830	32807	
2633	0	32844	32804	
2634	0	32770	32676	
2635	0	32876	32784	
2636	0	32810	32796	
2637	0	32800	32682	
2638	0	32812	32788	
2639	0	32920	32668	
2640	0	32840	32826	
2641	0	32796	32775	
2642	0	32766	32716	
2643	0	32726	32775	
2644	0	32732	32618	
2645	0	32784	32810	
2646	0	32794	32775	
2647	0	32772	32644	
2648	0	32708	32806	
2649	0	32750	32748	
2650	0	32822	32719	
2651	0	32852	32758	
2652	0	32874	32666	
2653	0	32828	32789	
2654	0	32848	32692	
2655	0	32830	32804	
2656	0	32834	32886	
2657	0	32852	32808	
2658	0	32852	32732	
2659	0	32900	32697	
2660	0	32892	32714	
2661	0	32844	32682	
2662	0	32776	32744	
2663	0	32740	32672	
2664	0	32708	32772	
2665	0	32772	32704	
2666	0	32848	32716	
2667	0	32856	32775	
2668	0	32862	32775	
2669	0	32776	32775	
2670	0	32834	32694	
2671	0	32842	32764	
2672	0	32800	32703	
2673	0	32810	32844	
2674	0	32756	32764	
2675	0	32780	32716	
2676	0	32840	32775	
2677	0	32886	32762	
2678	0	32876	32712	
2679	0	32756	32700	
2680	0	32780	32808	
2681	0	32858	32775	
2682	0	32836	32788	
2683	0	32808	32772	
2684	0	32788	32824	
2685	0	32806	32702	
2686	0	32748	32696	
2687	0	32766	32696	
2688	0	32836	32802	
2689	0	32705	32762	
2690	0	32778	32740	
2691	0	32796	32824	
2692	0	32764	32738	
2693	0	32844	32740	
2694	0	32792	32798	
2695	0	32816	32660	
2696	0	32844	32731	
2697	0	32824	32838	
2698	0	32868	32798	
2699	0	32834	32752	
2700	0	32792	32734	
2701	0	32804	32775	
2702	0	32820	32743	
2703	0	32832	32847	
2704	0	32792	32788	
2705	0	32718	32770	
2706	0	32820	32742	
2707	0	32776	32730	
2708	0	32796	32802	
2709	0	32860	32760	
2710	0	32870	32775	
2711	0	32824	32808	
2712	0	32834	32647	
2713	0	32812	32798	
2714	0	32792	32839	
2715	0	32792	32772	
2716	0	32878	32722	
2717	0	32916	32788	
2718	0	32816	32760	
2719	0	32778	32666	
2720	0	32852	32706	
2721	0	32772	32706	
2722	0	32814	32844	
2723	0	32844	32866	
2724	0	32860	32727	
2725	0	32744	32743	
2726	0	32806	32680	
2727	0	32772	32743	
2728	0	32740	32775	
2729	0	32796	32810	
2730	0	32760	32822	
2731	0	32808	32775	
2732	0	32804	32852	
2733	0	32880	32810	
2734	0	32770	32818	
2735	0	32870	32752	
2736	0	32884	32700	
2737	0	32874	32643	
2738	0	32828	32722	
2739	0	32804	32819	
2740	0	32794	32790	
2741	0	32772	32690	
2742	0	32785	32812	
2743	0	32816	32872	
2744	0	32804	32798	
2745	0	32810	32844	
2746	0	32804	32714	
2747	0	32834	32772	
2748	0	32856	32772	
2749	0	32822	32812	
2750	0	32808	32755	
2751	0	32804	32684	
2752	0	32840	32646	
2753	0	32812	32738	
2754	0	32812	32718	
2755	0	32820	32838	
2756	0	32832	32644	
2757	0	32854	32775	
2758	0	32860	32864	
2759	0	32812	32730	
2760	0	32768	32822	
2761	0	32784	32670	
2762	0	32828	32824	
2763	0	32816	32830	
2764	0	32784	32676	
2765	0	32836	32743	
2766	0	32840	32718	
2767	0	32770	32798	
2768	0	32810	32807	
2769	0	32796	32750	
2770	0	32792	32847	
2771	0	32853	32832	
2772	0	32808	32824	
2773	0	32830	32763	
2774	0	32850	32700	
2775	0	32832	32724	
2776	0	32784	32807	
2777	0	32808	32892	
2778	0	32828	32788	
2779	0	32828	32710	
2780	0	32766	32754	
2781	0	32868	32644	
2782	0	32824	32773	
2783	0	32810	32775	
2784	0	32818	32660	
2785	0	32778	32800	
2786	0	32761	32840	
2787	0	32804	32824	
2788	0	32878	32742	
2789	0	32842	32774	
2790	0	32834	32855	
2791	0	32780	32788	
2792	0	32768	32769	
2793	0	32804	32764	
2794	0	32776	32800	
2795	0	32816	32815	
2796	0	32824	32790	
2797	0	32852	32764	
2798	0	32876	32660	
2799	0	32760	32800	
2800	0	32810	32743	
2801	0	32800	32804	
2802	0	32788	32772	
2803	0	32788	32708	
2804	0	32780	32747	
2805	0	32808	32775	
2806	0	32764	32752	
2807	0	32848	32688	
2808	0	32852	32732	
2809	0	32826	32799	
2810	0	32814	32703	
2811	0	32896	32840	
2812	0	32800	32756	
2813	0	32676	32870	
2814	0	32794	32758	
2815	0	32846	32768	
2816	0	32822	32708	
2817	0	32868	32724	
2818	0	32868	32764	
2819	0	32788	32784	
2820	0	32744	32751	
2821	0	32872	32820	
2822	0	32788	32720	
2823	0	32818	32762	
2824	0	32794	32694	
2825	0	32804	32874	
2826	0	32784	32770	
2827	0	32752	32692	
2828	0	32844	32744	
2829	0	32808	32628	
2830	0	32816	32775	
2831	0	32788	32719	
2832	0	32838	32718	
2833	0	32800	32710	
2834	0	32788	32764	
2835	0	32808	32757	
2836	0	32832	32742	
2837	0	32840	32626	
2838	0	32832	32775	
2839	0	32816	32704	
2840	0	32798	32750	
2841	0	32768	32746	
2842	0	32778	32854	
2843	0	32828	32804	
2844	0	32841	32752	
2845	0	32800	32774	
2846	0	32854	32728	
2847	0	32856	32714	
2848	0	32830	32820	
2849	0	32856	32826	
2850	0	32778	32800	
2851	0	32820	32836	
2852	0	32776	32768	
2853	0	32788	32746	
2854	0	32752	32673	
2855	0	32878	32714	
2856	0	32784	32800	
2857	0	32794	32842	
2858	0	32848	32844	
2859	0	32704	32816	
2860	0	32846	32756	
2861	0	32864	32834	
2862	0	32770	32758	
2863	0	32800	32724	
2864	0	32792	32814	
2865	0	32818	32844	
2866	0	32799	32775	
2867	0	32818	32722	
2868	0	32792	32719	
2869	0	32774	32736	
2870	0	32852	32684	
2871	0	32844	32678	
2872	0	32806	32724	
2873	0	32808	32708	
2874	0	32872	32798	
2875	0	32760	32840	
2876	0	32844	32866	
2877	0	32870	32814	
2878	0	32774	32796	
2879	0	32822	32862	
2880	0	32794	32863	
2881	0	32812	32824	
2882	0	32814	32710	
2883	0	32862	32690	
2884	0	32906	32714	
2885	0	32740	32679	
2886	0	32784	32664	
2887	0	32772	32676	
2888	0	32804	32794	
2889	0	32840	32812	
2890	0	32772	32800	
2891	0	32808	32784	
2892	0	32756	32762	
2893	0	32808	32790	
2894	0	32850	32762	
2895	0	32820	32843	
2896	0	32840	32756	
2897	0	32812	32771	
2898	0	32804	32804	
2899	0	32728	32742	
2900	0	32800	32813	
2901	0	32782	32746	
2902	0	32788	32775	
2903	0	32854	32628	
2904	0	32852	32683	
2905	0	32804	32615	
2906	0	32854	32666	
2907	0	32764	32766	
2908	0	32796	32696	
2909	0	32840	32732	
2910	0	32788	32822	
2911	0	32796	32864	
2912	0	32816	32735	
2913	0	32824	32775	
2914	0	32808	32867	
2915	0	32836	32775	
2916	0	32800	32728	
2917	0	32848	32703	
2918	0	32818	32772	
2919	0	32828	32790	
2920	0	32840	32834	
2921	0	32846	32718	
2922	0	32876	32775	
2923	0	32868	32775	
2924	0	32776	32775	
2925	0	32866	32726	
2926	0	32826	32724	
2927	0	32800	32679	
2928	0	32786	32740	
2929	0	32744	32740	
2930	0	32720	32764	
2931	0	32733	32812	
2932	0	32696	32854	
2933	0	32798	32668	
2934	0	32816	32825	
2935	0	32816	32792	
2936	0	32826	32775	
2937	0	32844	32679	
2938	0	32884	32812	
2939	0	32816	32775	
2940	0	32904	32814	
2941	0	32832	32830	
2942	0	32764	32808	
2943	0	32816	32736	
2944	0	32762	32775	
2945	0	32808	32732	
2946	0	32852	32672	
2947	0	32924	32775	
2948	0	32920	32775	
2949	0	32866	32820	
2950	0	32716	32845	
2951	0	32592	32708	
2952	0	32616	32790	
2953	0	32724	32864	
2954	0	32828	32747	
2955	0	32857	32862	
2956	0	32910	32639	
2957	0	32802	32748	
2958	0	32872	32735	
2959	0	32804	32756	
2960	0	32848	32814	
2961	0	32792	32700	
2962	0	32826	32718	
2963	0	32864	32685	
2964	0	32860	32810	
2965	0	32816	32679	
2966	0	32798	32830	
2967	0	32876	32756	
2968	0	32920	32743	
2969	0	32845	32806	
2970	0	32826	32737	
2971	0	32772	32836	
2972	0	32770	32772	
2973	0	32752	32723	
2974	0	32832	32775	
2975	0	32768	32782	
2976	0	32772	32766	
2977	0	32820	32676	
2978	0	32768	32775	
2979	0	32684	32743	
2980	0	32868	32836	
2981	0	32896	32750	
2982	0	32884	32720	
2983	0	32892	32764	
2984	0	32866	32855	
2985	0	32832	32871	
2986	0	32838	32830	
2987	0	32740	32839	
2988	0	32844	32791	
2989	0	32736	32834	
2990	0	32804	32838	
2991	0	32838	32748	
2992	0	32816	32812	
2993	0	32826	32775	
2994	0	32784	32770	
2995	0	32676	32800	
2996	0	32686	32722	
2997	0	33026	32740	
2998	0	33208	32832	
2999	0	33130	32812	
3000	0	32836	32748	
3001	0	32596	32598	
3002	0	32532	32638	
3003	0	32672	32564	
3004	0	32644	32740	
3005	0	32678	32775	
3006	0	32676	32920	
3007	0	32814	32839	
3008	0	32856	32870	
3009	0	32936	32876	
3010	0	32864	32818	
3011	0	32672	32830	
3012	0	32666	32775	
3013	0	32740	32726	
3014	0	32860	32582	
3015	0	32958	32572	
3016	0	32892	32756	
3017	0	32904	32846	
3018	0	32852	32775	
3019	0	32884	32810	
3020	0	32984	32679	
3021	0	32852	32772	
3022	0	32882	32740	
3023	0	32872	32816	
3024	0	32856	32886	
3025	0	32962	32620	
3026	0	32744	32736	
3027	0	32528	32634	
3028	0	32306	32743	
3029	0	32220	32732	
3030	0	32420	32981	
3031	0	32660	32893	
3032	0	32820	32865	
3033	0	32996	32886	
3034	0	33042	32734	
3035	0	33004	32679	
3036	0	32892	32580	
3037	0	33002	32672	
3038	0	32880	32742	
3039	0	32740	32616	
3040	0	32768	32743	
3041	0	32808	32736	
3042	0	32968	32874	
3043	0	32900	32796	
3044	0	32896	32804	
3045	0	32912	32854	
3046	0	32824	32743	
3047	0	32844	32796	
3048	0	32746	32840	
3049	0	32976	32852	
3050	0	32994	32903	
3051	0	32910	32820	
3052	0	32828	32796	
3053	0	32780	32698	
3054	0	32872	32722	
3055	0	32864	32687	
3056	0	32838	32844	
3057	0	32920	32764	
3058	0	32728	32790	
3059	0	32598	32708	
3060	0	32608	32836	
3061	0	32756	32848	
3062	0	32748	32732	
3063	0	32848	32738	
3064	0	32848	32706	
3065	0	32936	32736	
3066	0	32866	32660	
3067	0	32764	32660	
3068	0	32775	32700	
3069	0	32720	32826	
3070	0	32642	32718	
3071	0	32772	32810	
3072	0	32802	32740	
3073	0	32960	32631	
3074	0	32838	32798	
3075	0	32778	32687	
3076	0	32832	32834	
3077	0	32868	32770	
3078	0	32820	32684	
3079	0	32746	32740	
3080	0	32696	32710	
3081	0	32680	32687	
3082	0	32640	32674	
3083	0	32612	32775	
3084	0	32840	32790	
3085	0	33040	32812	
3086	0	33128	32864	
3087	0	33008	32748	
3088	0	33032	32756	
3089	0	32952	32746	
3090	0	32776	32714	
3091	0	32768	32694	
3092	0	32736	32602	
3093	0	32672	32518	
3094	0	32696	32743	
3095	0	32758	32705	
3096	0	32800	32688	
3097	0	32616	32820	
3098	0	32664	32820	
3099	0	32674	32967	
3100	0	32649	32852	
3101	0	32632	32871	
3102	0	32758	32760	
3103	0	32956	32856	
3104	0	32970	32630	
3105	0	32866	32546	
3106	0	33100	32604	
3107	0	32868	32508	
3108	0	32754	32812	
3109	0	32610	33086	
3110	0	32712	33207	
3111	0	32782	33207	
3112	0	32948	32916	
3113	0	33080	32762	
3114	0	33152	32642	
3115	0	33044	32856	
3116	0	33060	32800	
3117	0	33016	32764	
3118	0	32828	32726	
3119	0	32168	32448	
3120	0	32020	32284	
3121	0	32264	32391	
3122	0	32756	32426	
3123	0	32948	32450	
3124	0	33056	32551	
3125	0	33076	32652	
3126	0	33088	32756	
3127	0	33028	32876	
3128	0	32932	33100	
3129	0	33108	33100	
3130	0	32874	33212	
3131	0	32704	33010	
3132	0	32734	33030	
3133	0	32686	32690	
3134	0	32732	32726	
3135	0	32708	32622	
3136	0	32592	32774	
3137	0	32574	32692	
3138	0	32696	32428	
3139	0	32760	32204	
3140	0	32928	32577	
3141	0	32840	32821	
3142	0	33002	33098	
3143	0	33036	32989	
3144	0	33000	32728	
3145	0	32826	32831	
3146	0	32640	32848	
3147	0	32794	32806	
3148	0	32910	32920	
3149	0	32860	32656	
3150	0	32900	32790	
3151	0	32853	32855	
3152	0	32810	32726	
3153	0	32796	32706	
3154	0	32758	32606	
3155	0	32728	32679	
3156	0	32864	32647	
3157	0	32788	32655	
3158	0	32808	32720	
3159	0	32920	32775	
3160	0	32836	32680	
3161	0	32796	32607	
3162	0	32837	32736	
3163	0	32920	32812	
3164	0	32880	32884	
3165	0	32948	32889	
3166	0	32876	32762	
3167	0	32706	32848	
3168	0	32598	32874	
3169	0	32704	32790	
3170	0	32804	32802	
3171	0	32860	32806	
3172	0	32974	32825	
3173	0	32852	32775	
3174	0	32842	32742	
3175	0	32816	32641	
3176	0	32774	32794	
3177	0	32822	32742	
3178	0	32906	32598	
3179	0	32912	32698	
3180	0	32878	32802	
3181	0	32760	32740	
3182	0	32536	32804	
3183	0	32360	32678	
3184	0	32498	32764	
3185	0	32548	32710	
3186	0	32902	32748	
3187	0	33052	32831	
3188	0	33120	32839	
3189	0	32908	32743	
3190	0	32760	32871	
3191	0	32746	32756	
3192	0	32852	32775	
3193	0	32964	32756	
3194	0	33012	32616	
3195	0	33036	32710	
3196	0	33032	32728	
3197	0	32922	32798	
3198	0	32604	32832	
3199	0	32644	32736	
3200	0	32852	32856	
3201	0	32968	32727	
3202	0	33040	32703	
3203	0	32834	32620	
3204	0	32474	32736	
3205	0	32456	32678	
3206	0	32406	32924	
3207	0	32440	32810	
3208	0	32508	32804	
3209	0	32640	32900	
3210	0	32784	32918	
3211	0	32848	32832	
3212	0	33150	32775	
3213	0	33056	32743	
3214	0	33020	32682	
3215	0	33056	32772	
3216	0	33100	32588	
3217	0	32928	32716	
3218	0	32830	32704	
3219	0	32712	32766	
3220	0	32796	32710	
3221	0	32916	32820	
3222	0	32708	32732	
3223	0	32806	32712	
3224	0	32896	32670	
3225	0	32864	32682	
3226	0	32896	32772	
3227	0	32684	32967	
3228	0	32584	32932	
3229	0	32668	32990	
3230	0	32776	32998	
3231	0	32744	32892	
3232	0	32792	32844	
3233	0	32858	32750	
3234	0	32912	32612	
3235	0	32864	32758	
3236	0	32784	32970	
3237	0	32804	32966	
3238	0	32836	33380	
3239	0	32776	33236	
3240	0	32784	32982	
3241	0	32786	32551	
3242	0	32734	32030	
3243	0	32656	31879	
3244	0	32788	31996	
3245	0	32990	32142	
3246	0	33192	32314	
3247	0	33032	32699	
3248	0	32962	33046	
3249	0	32724	33091	
3250	0	32584	33372	
3251	0	32816	33398	
3252	0	32633	33058	
3253	0	32720	32992	
3254	0	32968	32942	
3255	0	33100	32775	
3256	0	33084	32402	
3257	0	32882	32398	
3258	0	32516	32684	
3259	0	32628	32711	
3260	0	32740	32519	
3261	0	32788	32740	
3262	0	33038	32764	
3263	0	32769	32866	
3264	0	32756	33108	
3265	0	32596	33636	
3266	0	32596	33810	
3267	0	32868	33572	
3268	0	33056	33134	
3269	0	32640	32670	
3270	0	32526	32212	
3271	0	32694	32068	
3272	0	33032	31824	
3273	0	33054	31847	
3274	0	32980	31751	
3275	0	32968	31886	
3276	0	32782	32102	
3277	0	32972	32168	
3278	0	32928	32756	
3279	0	32804	33118	
3280	0	32792	33031	
3281	0	32724	33064	
3282	0	32830	33063	
3283	0	32914	33018	
3284	0	33012	33028	
3285	0	33076	32970	
3286	0	33040	33008	
3287	0	33016	33041	
3288	0	32904	33031	
3289	0	32724	32952	
3290	0	32700	32897	
3291	0	32608	32934	
3292	0	32724	32931	
3293	0	32802	32918	
3294	0	32984	32792	
3295	0	32926	32832	
3296	0	32588	32903	
3297	0	32572	33006	
3298	0	32616	33176	
3299	0	32612	33132	
3300	0	32356	33127	
3301	0	32484	32990	
3302	0	32556	33062	
3303	0	32648	33084	
3304	0	32564	32996	
3305	0	32504	33019	
3306	0	32685	32954	
3307	0	32708	33006	
3308	0	32664	32962	
3309	0	32712	32890	
3310	0	32872	32688	
3311	0	33188	32474	
3312	0	33284	32400	
3313	0	33216	32484	
3314	0	33018	32444	
3315	0	32932	32478	
3316	0	32768	32662	
3317	0	32724	32620	
3318	0	32620	32580	
3319	0	32776	32513	
3320	0	32878	32528	
3321	0	32844	32544	
3322	0	32956	32615	
3323	0	32964	32807	
3324	0	33128	32975	
3325	0	33064	32986	
3326	0	32714	33108	
3327	0	32502	32954	
3328	0	32312	33386	
3329	0	32448	33408	
3330	0	32868	33124	
3331	0	32864	33008	
3332	0	33256	33456	
3333	0	33508	33950	
3334	0	33380	34055	
3335	0	33020	33400	
3336	0	32288	32456	
3337	0	32280	31564	
3338	0	32448	31029	
3339	0	32556	31239	
3340	0	32552	31662	
3341	0	32766	31590	
3342	0	32756	31618	
3343	0	32922	31937	
3344	0	32996	32316	
3345	0	32972	32884	
3346	0	32804	32720	
3347	0	32896	32518	
3348	0	32826	32816	
3349	0	32752	32676	
3350	0	32816	32702	
3351	0	32808	32631	
3352	0	32908	32984	
3353	0	32856	33020	
3354	0	32924	33070	
3355	0	33076	33152	
3356	0	32984	32934	
3357	0	32804	32902	
3358	0	32634	33116	
3359	0	32712	33052	
3360	0	32908	33052	
3361	0	32834	33094	
3362	0	32922	33108	
3363	0	32812	32999	
3364	0	32730	32853	
3365	0	32696	32976	
3366	0	32822	32804	
3367	0	32848	32826	
3368	0	32940	32976	
3369	0	33004	33092	
3370	0	32848	32990	
3371	0	33068	33174	
3372	0	32976	33142	
3373	0	32968	33056	
3374	0	32796	32742	
3375	0	32678	32548	
3376	0	32792	32490	
3377	0	32644	32442	
3378	0	32680	32526	
3379	0	32872	32686	
3380	0	32878	32716	
3381	0	32760	32752	
3382	0	32744	32688	
3383	0	32766	32834	
3384	0	32820	32775	
3385	0	32858	32844	
3386	0	33060	32756	
3387	0	32994	32720	
3388	0	32860	32674	
3389	0	32772	32638	
3390	0	32756	32692	
3391	0	32712	32605	
3392	0	32868	32742	
3393	0	32956	32732	
3394	0	33050	32655	
3395	0	33132	32724	
3396	0	32757	32838	
3397	0	32506	33234	
3398	0	32376	33736	
3399	0	32785	33895	
3400	0	32796	33786	
3401	0	32692	33188	
3402	0	32376	32424	
3403	0	32292	32090	
3404	0	32570	31664	
3405	0	32718	31766	
3406	0	32716	31707	
3407	0	32878	31772	
3408	0	33108	32216	
3409	0	33306	32680	
3410	0	33224	33372	
3411	0	32902	33512	
3412	0	32996	33498	
3413	0	32972	33188	
3414	0	32700	32719	
3415	0	32636	32703	
3416	0	32580	32594	
3417	0	32518	32814	
3418	0	32720	33009	
3419	0	32792	33571	
3420	0	32828	33578	
3421	0	32616	33031	
3422	0	32788	32882	
3423	0	32884	32760	
3424	0	32812	32792	
3425	0	32842	32360	
3426	0	32772	32304	
3427	0	32838	32263	
3428	0	32852	32090	
3429	0	32928	32124	
3430	0	33130	32374	
3431	0	33136	32572	
3432	0	33076	32426	
3433	0	32880	32540	
3434	0	32742	32644	
3435	0	32802	32697	
3436	0	32825	32820	
3437	0	32704	33081	
3438	0	32532	33108	
3439	0	32490	33214	
3440	0	32720	33364	
3441	0	32988	33031	
3442	0	32940	32944	
3443	0	32812	32604	
3444	0	32572	32414	
3445	0	32648	32170	
3446	0	32798	32042	
3447	0	32730	32142	
3448	0	32612	32228	
3449	0	32892	32590	
3450	0	32954	32641	
3451	0	32698	32862	
3452	0	32828	32862	
3453	0	32980	32836	
3454	0	33080	32922	
3455	0	33072	32868	
3456	0	32920	32976	
3457	0	32821	32994	
3458	0	32452	33196	
3459	0	32368	33167	
3460	0	32492	32974	
3461	0	32670	33174	
3462	0	32964	33052	
3463	0	33152	32980	
3464	0	33136	33044	
3465	0	32936	32887	
3466	0	32872	32502	
3467	0	32938	32470	
3468	0	33080	32754	
3469	0	32992	32828	
3470	0	32860	32872	
3471	0	32752	32666	
3472	0	32872	32711	
3473	0	32928	32615	
3474	0	32888	32647	
3475	0	32493	32666	
3476	0	32396	32676	
3477	0	32596	32878	
3478	0	32896	32752	
3479	0	32938	32714	
3480	0	33026	32748	
3481	0	32920	32856	
3482	0	32912	32830	
3483	0	32879	32828	
3484	0	32704	32775	
3485	0	32348	32967	
3486	0	32384	32886	
3487	0	32716	32812	
3488	0	32730	32974	
3489	0	32908	33024	
3490	0	33168	32960	
3491	0	32844	32907	
3492	0	32992	32712	
3493	0	33110	32488	
3494	0	33160	32490	
3495	0	33002	32492	
3496	0	33080	32416	
3497	0	32990	32300	
3498	0	32864	32494	
3499	0	32594	32480	
3500	0	32350	32676	
3501	0	32256	33110	
3502	0	32408	33604	
3503	0	32472	33428	
3504	0	32700	33396	
3505	0	32848	33031	
3506	0	33040	32327	
3507	0	33144	32167	
3508	0	33184	32430	
3509	0	32668	32486	
3510	0	32756	32692	
3511	0	32788	32924	
3512	0	32776	33006	
3513	0	32988	32970	
3514	0	33160	33660	
3515	0	33221	34952	
3516	0	33248	34454	
3517	0	33208	33506	
3518	0	32776	32892	
3519	0	32448	31726	
3520	0	32298	31212	
3521	0	32102	30860	
3522	0	32030	30536	
3523	0	32124	30486	
3524	0	32660	30762	
3525	0	32764	31256	
3526	0	33040	32144	
3527	0	33180	33028	
3528	0	33126	33614	
3529	0	32828	33572	
3530	0	32813	33326	
3531	0	32812	33478	
3532	0	32896	33242	
3533	0	32808	33412	
3534	0	33036	33231	
3535	0	32818	33390	
3536	0	32868	33062	
3537	0	33122	33018	
3538	0	33020	32902	
3539	0	32976	32775	
3540	0	33004	32838	
3541	0	32844	33063	
3542	0	32892	32934	
3543	0	32908	33022	
3544	0	32862	32988	
3545	0	32724	33256	
3546	0	32704	33126	
3547	0	32672	33132	
3548	0	32608	33090	
3549	0	32688	32948	
3550	0	32926	32728	
3551	0	32924	32592	
3552	0	32628	32286	
3553	0	32680	32314	
3554	0	32748	32372	
3555	0	32866	32388	
3556	0	32792	32455	
3557	0	32896	32519	
3558	0	33060	32696	
3559	0	33120	32518	
3560	0	32792	32521	
3561	0	32468	32700	
3562	0	32576	33070	
3563	0	32732	33108	
3564	0	32620	33215	
3565	0	32780	33436	
3566	0	32922	33308	
3567	0	32768	33096	
3568	0	32830	33004	
3569	0	32892	32720	
3570	0	32914	32284	
3571	0	32902	32224	
3572	0	32680	32204	
3573	0	32628	32359	
3574	0	32796	32616	
3575	0	32977	32861	
3576	0	33020	32916	
3577	0	32936	32828	
3578	0	32700	32612	
3579	0	32594	32646	
3580	0	33000	32618	
3581	0	33072	32634	
3582	0	32980	32726	
3583	0	32704	32726	
3584	0	32524	32806	
3585	0	32676	32775	
3586	0	32992	33016	
3587	0	32775	33276	
3588	0	32668	33052	
3589	0	32696	32918	
3590	0	32760	32775	
3591	0	32592	32754	
3592	0	32632	32658	
3593	0	32808	32596	
3594	0	32844	32494	
3595	0	33052	32593	
3596	0	33244	32570	
3597	0	33252	32722	
3598	0	33018	33238	
3599	0	33012	33146	
3600	0	32714	33018	
3601	0	32564	32918	
3602	0	32506	32678	
3603	0	32332	32664	
3604	0	32464	32604	
3605	0	32570	32534	
3606	0	32800	32474	
3607	0	32924	32704	
3608	0	32908	32614	
3609	0	32612	32628	
3610	0	32712	32772	
3611	0	32724	32614	
3612	0	32794	32775	
3613	0	32824	33010	
3614	0	32800	33382	
3615	0	32892	33564	
3616	0	32684	34616	
3617	0	32596	34418	
3618	0	32820	33794	
3619	0	33137	33175	
3620	0	33148	32350	
3621	0	33130	31586	
3622	0	33152	30582	
3623	0	33060	30432	
3624	0	33032	31041	
3625	0	32856	31198	
3626	0	32904	32124	
3627	0	32616	32868	
3628	0	32216	33338	
3629	0	32424	33956	
3630	0	32588	34030	
3631	0	32726	33434	
3632	0	32920	32846	
3633	0	32996	32458	
3634	0	32852	31772	
3635	0	32382	31628	
3636	0	32498	31698	
3637	0	32784	31966	
3638	0	32962	32496	
3639	0	32996	32896	
3640	0	33240	33159	
3641	0	33272	33511	
3642	0	33176	33586	
3643	0	32830	33476	
3644	0	32956	33380	
3645	0	32752	33260	
3646	0	32632	32933	
3647	0	32848	32700	
3648	0	32956	32770	
3649	0	32710	32974	
3650	0	32636	32938	
3651	0	32656	32796	
3652	0	32646	32871	
3653	0	32663	32942	
3654	0	32824	32928	
3655	0	32896	33039	
3656	0	32880	32952	
3657	0	32724	32935	
3658	0	32800	32708	
3659	0	32920	32740	
3660	0	32852	32608	
3661	0	32968	32775	
3662	0	33024	32946	
3663	0	32814	32860	
3664	0	32520	32862	
3665	0	32758	32732	
3666	0	32786	32684	
3667	0	33004	32760	
3668	0	32734	32660	
3669	0	32628	32464	
3670	0	32708	32582	
3671	0	32878	32762	
3672	0	32892	32730	
3673	0	32928	33054	
3674	0	32904	33286	
3675	0	32708	32934	
3676	0	32616	32727	
3677	0	32776	32550	
3678	0	33176	32387	
3679	0	33324	32378	
3680	0	32936	32391	
3681	0	32868	32386	
3682	0	33080	32655	
3683	0	32936	32736	
3684	0	32730	32826	
3685	0	32636	33048	
3686	0	32456	33058	
3687	0	32384	33186	
3688	0	32748	33346	
3689	0	32824	33420	
3690	0	32972	33072	
3691	0	32768	32903	
3692	0	32508	32564	
3693	0	32488	32231	
3694	0	32574	32260	
3695	0	32820	32170	
3696	0	32668	32519	
3697	0	32862	32634	
3698	0	33040	32733	
3699	0	33200	32992	
3700	0	33220	32966	
3701	0	32972	33286	
3702	0	33126	32988	
3703	0	33104	32551	
3704	0	32540	32300	
3705	0	32366	31789	
3706	0	32424	31984	
3707	0	33000	31810	
3708	0	33392	31768	
3709	0	33256	31972	
3710	0	32808	32180	
3711	0	32736	32836	
3712	0	32616	33376	
3713	0	32636	33704	
3714	0	32610	33846	
3715	0	32640	34226	
3716	0	32592	34530	
3717	0	32680	34228	
3718	0	32930	33832	
3719	0	33140	33164	
3720	0	33062	32623	
3721	0	32768	31920	
3722	0	32720	31246	
3723	0	32728	31146	
3724	0	32724	31454	
3725	0	32852	32049	
3726	0	32984	32460	
3727	0	32972	32708	
3728	0	33108	32889	
3729	0	33096	33062	
3730	0	33170	33168	
3731	0	32916	33250	
3732	0	32188	33356	
3733	0	31916	33354	
3734	0	32028	33062	
3735	0	32450	33249	
3736	0	32848	32984	
3737	0	33120	32622	
3738	0	33220	32500	
3739	0	33182	32454	
3740	0	33084	32228	
3741	0	32912	32455	
3742	0	32892	32104	
3743	0	33032	32068	
3744	0	33060	32263	
3745	0	32972	33121	
3746	0	32496	33466	
3747	0	32304	33574	
3748	0	32448	33630	
3749	0	32628	33444	
3750	0	32976	33340	
3751	0	32744	32848	
3752	0	32596	32548	
3753	0	32834	32158	
3754	0	32920	32036	
3755	0	32936	32054	
3756	0	33048	32048	
3757	0	33112	32044	
3758	0	33260	31951	
3759	0	32774	32284	
3760	0	32796	32446	
3761	0	32436	32916	
3762	0	32322	33324	
3763	0	32728	33590	
3764	0	32734	33700	
3765	0	32840	33476	
3766	0	33036	33604	
3767	0	33182	33438	
3768	0	32946	33336	
3769	0	33154	32958	
3770	0	33204	32774	
3771	0	33160	32708	
3772	0	32872	32244	
3773	0	32832	32036	
3774	0	32348	32227	
3775	0	31680	32647	
3776	0	31704	32822	
3777	0	32212	32938	
3778	0	32708	32880	
3779	0	33120	32888	
3780	0	33178	32511	
3781	0	33032	32300	
3782	0	33024	32108	
3783	0	33000	32337	
3784	0	32884	32854	
3785	0	32842	32960	
3786	0	33110	33336	
3787	0	33272	33452	
3788	0	33518	32956	
3789	0	33422	32508	
3790	0	32992	32276	
3791	0	32580	32295	
3792	0	32576	32497	
3793	0	32392	32774	
3794	0	32216	32560	
3795	0	32280	32463	
3796	0	32574	32586	
3797	0	32882	32536	
3798	0	32952	32618	
3799	0	32780	32903	
3800	0	32468	33004	
3801	0	32672	33390	
3802	0	32844	33582	
3803	0	32722	33336	
3804	0	32954	33287	
3805	0	33024	33077	
3806	0	33073	32853	
3807	0	33396	32536	
3808	0	33416	32388	
3809	0	32718	32376	
3810	0	32660	32239	
3811	0	32490	32484	
3812	0	32464	32719	
3813	0	32420	32902	
3814	0	32280	32942	
3815	0	32716	33012	
3816	0	32816	32988	
3817	0	32818	32967	
3818	0	33060	32986	
3819	0	33066	33124	
3820	0	32806	33016	
3821	0	32856	32855	
3822	0	32756	32756	
3823	0	32972	32854	
3824	0	33040	32822	
3825	0	32956	32540	
3826	0	32848	32478	
3827	0	32932	32572	
3828	0	33028	32719	
3829	0	32896	33064	
3830	0	32708	33344	
3831	0	32664	33404	
3832	0	32808	33308	
3833	0	32804	33080	
3834	0	33176	32826	
3835	0	32786	32396	
3836	0	32728	32079	
3837	0	32784	31784	
3838	0	32588	32140	
3839	0	33024	32550	
3840	0	32924	32852	
3841	0	32554	33964	
3842	0	32784	34538	
3843	0	32612	34076	
3844	0	32352	33510	
3845	0	32164	32676	
3846	0	32492	31716	
3847	0	32872	31126	
3848	0	33120	30894	
3849	0	33334	30952	
3850	0	33092	31041	
3851	0	32924	31772	
3852	0	32848	32480	
3853	0	32466	32672	
3854	0	32564	32870	
3855	0	32852	32998	
3856	0	32648	33175	
3857	0	32614	33254	
3858	0	32864	33172	
3859	0	33050	33366	
3860	0	33268	33146	
3861	0	33310	33178	
3862	0	33044	33122	
3863	0	32570	33496	
3864	0	32836	33783	
3865	0	32544	33703	
3866	0	32712	33784	
3867	0	32842	33606	
3868	0	33040	32972	
3869	0	32958	32519	
3870	0	32632	32128	
3871	0	32692	31312	
3872	0	32752	31202	
3873	0	32684	31300	
3874	0	32484	31534	
3875	0	32704	32086	
3876	0	32912	32354	
3877	0	32964	32792	
3878	0	32800	33112	
3879	0	32646	33770	
3880	0	32841	33636	
3881	0	33144	33631	
3882	0	33168	33750	
3883	0	33054	33866	
3884	0	32530	33767	
3885	0	32332	33336	
3886	0	32560	33128	
3887	0	32700	32647	
3888	0	32868	32435	
3889	0	32968	32071	
3890	0	32700	32014	
3891	0	32572	32032	
3892	0	32940	31762	
3893	0	33064	32044	
3894	0	33190	32443	
3895	0	32792	32815	
3896	0	32556	32958	
3897	0	32156	33187	
3898	0	32484	33056	
3899	0	32580	32813	
3900	0	32748	33094	
3901	0	33024	33004	
3902	0	33106	33146	
3903	0	33028	33231	
3904	0	32806	33318	
3905	0	32706	33334	
3906	0	32884	33312	
3907	0	32990	33554	
3908	0	33144	33452	
3909	0	32924	33199	
3910	0	32610	32691	
3911	0	32706	31972	
3912	0	32928	31434	
3913	0	33258	31428	
3914	0	33164	31436	
3915	0	32728	31190	
3916	0	32560	31398	
3917	0	32640	32340	
3918	0	32760	33068	
3919	0	33192	33304	
3920	0	32512	33424	
3921	0	31915	33532	
3922	0	32148	33734	
3923	0	32312	34034	
3924	0	32802	34072	
3925	0	33068	34020	
3926	0	33276	33572	
3927	0	32944	33264	
3928	0	32956	32647	
3929	0	33144	31636	
3930	0	33092	30854	
3931	0	32878	30622	
3932	0	32728	30380	
3933	0	32478	31388	
3934	0	32869	31984	
3935	0	32860	32076	
3936	0	33104	32536	
3937	0	33042	32796	
3938	0	32928	33422	
3939	0	32816	33639	
3940	0	32956	33804	
3941	0	32976	33828	
3942	0	33098	33480	
3943	0	32960	33222	
3944	0	32718	33031	
3945	0	32724	32884	
3946	0	32610	32732	
3947	0	32692	32800	
3948	0	32296	32812	
3949	0	32388	32750	
3950	0	32764	32958	
3951	0	32800	33004	
3952	0	32856	33066	
3953	0	32840	33198	
3954	0	32792	33122	
3955	0	32760	33092	
3956	0	32784	33016	
3957	0	33028	33031	
3958	0	33034	32572	
3959	0	32996	32402	
3960	0	32940	31975	
3961	0	32968	32508	
3962	0	32984	32596	
3963	0	33084	32618	
3964	0	33318	32538	
3965	0	33374	32644	
3966	0	33284	32564	
3967	0	33284	32775	
3968	0	32526	32794	
3969	0	31886	32657	
3970	0	31936	32690	
3971	0	32068	32424	
3972	0	32104	32422	
3973	0	32628	32638	
3974	0	32792	32598	
3975	0	32756	32966	
3976	0	32964	32958	
3977	0	32952	33158	
3978	0	32992	33438	
3979	0	33192	33287	
3980	0	33297	33704	
3981	0	33252	33494	
3982	0	33188	33412	
3983	0	32836	33159	
3984	0	32212	32996	
3985	0	32476	32650	
3986	0	32856	31966	
3987	0	32868	31274	
3988	0	32600	30804	
3989	0	32610	31120	
3990	0	32882	31299	
3991	0	32866	32020	
3992	0	32860	32640	
3993	0	32796	32868	
3994	0	32618	33100	
3995	0	32784	32896	
3996	0	32112	32992	
3997	0	32232	33295	
3998	0	32709	33684	
3999	0	33056	34038	
4000	0	33180	34186	
4001	0	33058	34508	
4002	0	32849	34438	
4003	0	32688	33623	
4004	0	32800	32866	
4005	0	32896	32092	
4006	0	32864	31680	
4007	0	32880	31702	
4008	0	32792	32164	
4009	0	32810	32790	
4010	0	32761	32948	
4011	0	32976	33420	
4012	0	33078	33772	
4013	0	33140	33552	
4014	0	32932	33156	
4015	0	32752	32630	
4016	0	32292	32062	
4017	0	32004	31756	
4018	0	32162	31560	
4019	0	32776	31428	
4020	0	33258	31746	
4021	0	33132	31622	
4022	0	32852	31726	
4023	0	32830	32188	
4024	0	32892	32970	
4025	0	32340	33844	
4026	0	32484	34166	
4027	0	32788	34008	
4028	0	32946	33912	
4029	0	33088	33686	
4030	0	32826	33938	
4031	0	32576	33882	
4032	0	32800	33159	
4033	0	32932	32605	
4034	0	33044	31860	
4035	0	33056	31982	
4036	0	32936	31636	
4037	0	32866	31208	
4038	0	32988	31358	
4039	0	32962	31492	
4040	0	32780	31976	
4041	0	32628	32620	
4042	0	32856	32804	
4043	0	32998	32850	
4044	0	32964	32932	
4045	0	33056	32974	
4046	0	33052	33606	
4047	0	32438	34186	
4048	0	32604	34279	
4049	0	32924	34430	
4050	0	33024	34418	
4051	0	32973	33644	
4052	0	32422	33372	
4053	0	32148	33036	
4054	0	32332	32449	
4055	0	32736	32042	
4056	0	33128	31176	
4057	0	33060	30492	
4058	0	33000	30332	
4059	0	32698	31080	
4060	0	32264	31848	
4061	0	32668	32736	
4062	0	32946	34055	
4063	0	32772	34850	
4064	0	33006	35430	
4065	0	32973	35413	
4066	0	32924	34592	
4067	0	32820	33376	
4068	0	32900	32058	
4069	0	32860	30599	
4070	0	32748	29217	
4071	0	32764	28312	
4072	0	32970	28964	
4073	0	33084	29674	
4074	0	33170	30530	
4075	0	33068	31508	
4076	0	32972	32648	
4077	0	32622	33364	
4078	0	32492	33958	
4079	0	32668	34492	
4080	0	32508	34432	
4081	0	32498	34104	
4082	0	32696	34260	
4083	0	32956	34174	
4084	0	33078	33953	
4085	0	33230	33886	
4086	0	33154	33510	
4087	0	32906	33334	
4088	0	32584	32971	
4089	0	32608	33287	
4090	0	32664	33302	
4091	0	32672	33346	
4092	0	32732	33396	
4093	0	32836	33388	
4094	0	32940	33387	
4095	0	33152	33346	
4096	0	33145	33170	
4097	0	32734	33170	
4098	0	32834	33026	
4099	0	32588	32808	
4100	0	32408	32362	
4101	0	32508	32174	
4102	0	32444	31623	
4103	0	32744	31476	
4104	0	32890	32046	
4105	0	32888	32975	
4106	0	32988	33876	
4107	0	32868	34311	
4108	0	32786	33972	
4109	0	33042	33287	
4110	0	33340	32612	
4111	0	32940	31718	
4112	0	32640	30720	
4113	0	32414	30504	
4114	0	32584	30694	
4115	0	32684	31394	
4116	0	32440	32180	
4117	0	32464	32852	
4118	0	32880	32962	
4119	0	33056	33076	
4120	0	33006	33194	
4121	0	33048	33287	
4122	0	33020	33424	
4123	0	32980	33495	
4124	0	32930	33200	
4125	0	33050	33052	
4126	0	33050	33068	
4127	0	32872	32959	
4128	0	32648	32967	
4129	0	32452	32807	
4130	0	32398	32668	
4131	0	32448	32416	
4132	0	32722	32468	
4133	0	32912	32684	
4134	0	32934	33000	
4135	0	32880	33106	
4136	0	32954	33212	
4137	0	32996	33460	
4138	0	32908	33180	
4139	0	32842	32772	
4140	0	32932	32604	
4141	0	33048	32344	
4142	0	32796	32158	
4143	0	32900	32024	
4144	0	32944	32302	
4145	0	32944	32478	
4146	0	32744	32423	
4147	0	32678	32500	
4148	0	33057	32686	
4149	0	33208	32935	
4150	0	33152	33260	
4151	0	32864	33287	
4152	0	32008	33144	
4153	0	32316	32916	
4154	0	32384	32292	
4155	0	32968	32126	
4156	0	32360	32407	
4157	0	32276	32788	
4158	0	32904	33156	
4159	0	33088	33058	
4160	0	32956	32474	
4161	0	32926	32270	
4162	0	32846	31927	
4163	0	32840	31849	
4164	0	32954	31656	
4165	0	33064	32263	
4166	0	32984	32954	
4167	0	32836	33397	
4168	0	32858	33812	
4169	0	32968	34352	
4170	0	32660	34670	
4171	0	32184	34768	
4172	0	32284	34372	
4173	0	32622	33771	
4174	0	32250	32592	
4175	0	32492	31719	
4176	0	33008	31884	
4177	0	33002	31956	
4178	0	32680	32150	
4179	0	32302	32638	
4180	0	32426	32568	
4181	0	33108	32732	
4182	0	33434	32272	
4183	0	33252	31930	
4184	0	33008	31999	
4185	0	32556	32289	
4186	0	32352	32460	
4187	0	32542	32706	
4188	0	32726	32719	
4189	0	33092	32810	
4190	0	33324	32854	
4191	0	33308	33070	
4192	0	32756	33284	
4193	0	32620	33255	
4194	0	32842	33272	
4195	0	32692	33148	
4196	0	32720	32844	
4197	0	32848	33174	
4198	0	32814	33318	
4199	0	33016	33031	
4200	0	33112	32926	
4201	0	32836	33370	
4202	0	32706	33318	
4203	0	32552	33048	
4204	0	32696	33038	
4205	0	32918	32586	
4206	0	32820	32058	
4207	0	32640	31332	
4208	0	32788	30991	
4209	0	32984	31270	
4210	0	33038	31558	
4211	0	32836	32116	
4212	0	32812	32944	
4213	0	32772	33502	
4214	0	32704	33799	
4215	0	32624	34055	
4216	0	32772	33926	
4217	0	32738	33283	
4218	0	32920	32823	
4219	0	32972	32362	
4220	0	32868	32085	
4221	0	33016	32480	
4222	0	32764	32790	
4223	0	32398	32402	
4224	0	32768	33026	
4225	0	32678	32684	
4226	0	32848	32350	
4227	0	32928	32181	
4228	0	32830	31704	
4229	0	32744	31852	
4230	0	32856	32100	
4231	0	32962	32708	
4232	0	33206	33344	
4233	0	33336	33784	
4234	0	33096	33604	
4235	0	33172	33364	
4236	0	32672	32994	
4237	0	32932	32648	
4238	0	32876	32813	
4239	0	32498	32426	
4240	0	33032	32618	
4241	0	32988	32888	
4242	0	32836	32908	
4243	0	32480	32736	
4244	0	32176	32830	
4245	0	32234	32882	
4246	0	32604	33188	
4247	0	32910	33212	
4248	0	32912	33066	
4249	0	33048	33197	
4250	0	32820	33338	
4251	0	32724	32958	
4252	0	33008	32638	
4253	0	33326	32212	
4254	0	33142	31930	
4255	0	32940	31988	
4256	0	32532	31840	
4257	0	32664	31918	
4258	0	32734	32476	
4259	0	32928	32916	
4260	0	32808	33415	
4261	0	32616	33462	
4262	0	32536	33580	
4263	0	32988	33664	
4264	0	33236	33486	
4265	0	33426	33212	
4266	0	33298	32714	
4267	0	33048	32786	
4268	0	32441	33352	
4269	0	32260	33537	
4270	0	31904	32976	
4271	0	32262	32404	
4272	0	32524	31846	
4273	0	32634	31188	
4274	0	32912	31152	
4275	0	33168	31726	
4276	0	33150	32245	
4277	0	32876	33287	
4278	0	32616	33628	
4279	0	32584	33976	
4280	0	32612	33159	
4281	0	32860	32338	
4282	0	32920	32118	
4283	0	32986	31780	
4284	0	33096	31748	
4285	0	33089	32074	
4286	0	33080	32716	
4287	0	32986	33094	
4288	0	32832	33236	
4289	0	32880	33574	
4290	0	32482	33706	
4291	0	32290	33620	
4292	0	32704	33272	
4293	0	33020	33031	
4294	0	33092	32847	
4295	0	32898	32798	
4296	0	33072	32764	
4297	0	33184	32577	
4298	0	32736	32682	
4299	0	32476	32174	
4300	0	32001	31930	
4301	0	32068	32468	
4302	0	32864	33216	
4303	0	33404	33476	
4304	0	33600	33638	
4305	0	33012	34172	
4306	0	32902	33839	
4307	0	32502	33382	
4308	0	32320	33276	
4309	0	32248	32806	
4310	0	32572	32018	
4311	0	32884	31336	
4312	0	33004	31495	
4313	0	32770	31879	
4314	0	32754	32231	
4315	0	32884	32452	
4316	0	33200	32420	
4317	0	33284	32706	
4318	0	33170	32824	
4319	0	33006	33188	
4320	0	32752	33776	
4321	0	32576	33844	
4322	0	33176	33686	
4323	0	33352	33103	
4324	0	32868	32478	
4325	0	32236	31926	
4326	0	32136	31782	
4327	0	32298	31225	
4328	0	32730	30960	
4329	0	32906	31348	
4330	0	32774	32116	
4331	0	32816	33044	
4332	0	32900	33743	
4333	0	33044	34502	
4334	0	33088	34678	
4335	0	32778	34308	
4336	0	32796	33482	
4337	0	33140	32736	
4338	0	32878	31879	
4339	0	32400	31904	
4340	0	32840	32388	
4341	0	32936	32453	
4342	0	33000	32728	
4343	0	33696	33336	
4344	0	33794	33799	
4345	0	33196	33728	
4346	0	31948	33446	
4347	0	31956	33588	
4348	0	32290	33190	
4349	0	32040	32249	
4350	0	32682	31868	
4351	0	32888	31778	
4352	0	32472	32103	
4353	0	33148	32014	
4354	0	33220	31719	
4355	0	32836	31520	
4356	0	33056	31906	
4357	0	32720	31924	
4358	0	32476	32647	
4359	0	32516	33002	
4360	0	32952	33230	
4361	0	32964	33833	
4362	0	33100	34110	
4363	0	32896	33372	
4364	0	32692	33223	
4365	0	32512	33003	
4366	0	32184	32262	
4367	0	32618	32142	
4368	0	33096	32222	
4369	0	33284	32290	
4370	0	33204	32474	
4371	0	33344	32455	
4372	0	33236	32612	
4373	0	32752	33120	
4374	0	32860	33287	
4375	0	32614	33424	
4376	0	32832	33472	
4377	0	32632	33758	
4378	0	32254	33306	
4379	0	32692	32898	
4380	0	32800	32652	
4381	0	32436	32167	
4382	0	31626	32191	
4383	0	31818	32592	
4384	0	32960	32504	
4385	0	33396	32644	
4386	0	33090	32586	
4387	0	33430	32378	
4388	0	33212	32473	
4389	0	33132	32604	
4390	0	33472	32680	
4391	0	33478	33041	
4392	0	32748	33328	
4393	0	32612	33446	
4394	0	32764	33374	
4395	0	32818	33152	
4396	0	33004	32695	
4397	0	32464	32426	
4398	0	32032	32610	
4399	0	32160	32567	
4400	0	32744	32374	
4401	0	33008	33082	
4402	0	32868	33388	
4403	0	32590	33482	
4404	0	32518	33404	
4405	0	32856	33556	
4406	0	33072	33576	
4407	0	33180	32624	
4408	0	33532	31888	
4409	0	32822	32190	
4410	0	32868	32464	
4411	0	32836	32678	
4412	0	32920	32804	
4413	0	33076	32391	
4414	0	33404	31988	
4415	0	33424	31558	
4416	0	32620	31504	
4417	0	31534	31220	
4418	0	31788	31110	
4419	0	31792	31948	
4420	0	32316	33055	
4421	0	32620	33722	
4422	0	33476	34020	
4423	0	33550	33698	
4424	0	33226	33642	
4425	0	33092	33140	
4426	0	32864	32980	
4427	0	33040	32872	
4428	0	33212	32856	
4429	0	33298	33082	
4430	0	33496	32750	
4431	0	33412	32562	
4432	0	32398	32548	
4433	0	31560	32660	
4434	0	31654	33025	
4435	0	32024	33095	
4436	0	32492	33159	
4437	0	32888	33132	
4438	0	33136	32916	
4439	0	32988	32924	
4440	0	32500	32810	
4441	0	32676	32368	
4442	0	32896	32444	
4443	0	33392	33018	
4444	0	33924	33388	
4445	0	34114	33600	
4446	0	34172	33944	
4447	0	33592	33602	
4448	0	31738	33287	
4449	0	30256	33268	
4450	0	31696	32769	
4451	0	32316	31900	
4452	0	32420	30882	
4453	0	32930	30503	
4454	0	33424	31188	
4455	0	32932	31458	
4456	0	32416	31799	
4457	0	32644	32271	
4458	0	33292	33073	
4459	0	33832	33452	
4460	0	33276	33322	
4461	0	32832	33236	
4462	0	32797	33658	
4463	0	32440	33444	
4464	0	32440	33074	
4465	0	32502	33056	
4466	0	33514	33006	
4467	0	33220	32898	
4468	0	32374	32888	
4469	0	33192	32632	
4470	0	32638	32647	
4471	0	32084	32916	
4472	0	32816	32903	
4473	0	32629	32552	
4474	0	33196	32630	
4475	0	33376	32392	
4476	0	33224	32032	
4477	0	33360	32422	
4478	0	33096	33082	
4479	0	32072	33538	
4480	0	32380	33698	
4481	0	32256	33472	
4482	0	32744	33254	
4483	0	33068	32992	
4484	0	33040	32540	
4485	0	32896	32132	
4486	0	32612	31330	
4487	0	32640	31328	
4488	0	32945	32070	
4489	0	33058	32860	
4490	0	32792	33142	
4491	0	32594	33980	
4492	0	32312	34194	
4493	0	32336	34036	
4494	0	33036	34544	
4495	0	32784	34098	
4496	0	32396	33718	
4497	0	32508	32967	
4498	0	32984	32263	
4499	0	33270	31370	
4500	0	33364	30988	
4501	0	33464	30586	
4502	0	33320	31068	
4503	0	33216	31824	
4504	0	32816	32578	
4505	0	32932	33166	
4506	0	32336	33810	
4507	0	32384	33624	
4508	0	33120	33158	
4509	0	32533	32838	
4510	0	32018	32226	
4511	0	32356	32670	
4512	0	32888	33040	
4513	0	32668	33156	
4514	0	32956	32945	
4515	0	33162	32462	
4516	0	33540	32714	
4517	0	33860	32224	
4518	0	33592	31948	
4519	0	33060	32330	
4520	0	32416	32828	
4521	0	32356	33480	
4522	0	32268	34004	
4523	0	32372	34324	
4524	0	32405	33916	
4525	0	32736	32852	
4526	0	33148	32628	
4527	0	32464	32744	
4528	0	32808	32540	
4529	0	32556	32084	
4530	0	32290	31904	
4531	0	32288	31824	
4532	0	32524	31960	
4533	0	33338	31980	
4534	0	34038	32486	
4535	0	33262	32720	
4536	0	32272	33444	
4537	0	32140	34078	
4538	0	32160	33942	
4539	0	32564	33835	
4540	0	32776	33280	
4541	0	33248	32887	
4542	0	33456	32119	
4543	0	33142	32024	
4544	0	33366	32318	
4545	0	33108	32895	
4546	0	32632	32976	
4547	0	32906	33031	
4548	0	33226	32986	
4549	0	33320	33008	
4550	0	33360	32864	
4551	0	32828	32682	
4552	0	32668	32368	
4553	0	32110	32486	
4554	0	32454	32642	
4555	0	33076	32462	
4556	0	33060	32088	
4557	0	32972	31720	
4558	0	32558	31392	
4559	0	32204	31655	
4560	0	32640	32284	
4561	0	32472	32626	
4562	0	32244	32842	
4563	0	32096	33274	
4564	0	32436	33240	
4565	0	33224	33748	
4566	0	33864	34208	
4567	0	33524	34046	
4568	0	33066	34032	
4569	0	32288	33948	
4570	0	32748	33620	
4571	0	33698	33254	
4572	0	32500	33008	
4573	0	31772	32647	
4574	0	32068	32286	
4575	0	32956	32302	
4576	0	33320	32436	
4577	0	33392	32366	
4578	0	33104	32324	
4579	0	32584	31662	
4580	0	32616	31478	
4581	0	32972	31964	
4582	0	32484	32564	
4583	0	32608	32876	
4584	0	33464	33305	
4585	0	33932	33191	
4586	0	33040	33570	
4587	0	31840	33752	
4588	0	31348	34228	
4589	0	31506	33852	
4590	0	32490	32714	
4591	0	33836	32380	
4592	0	33900	32519	
4593	0	33388	32360	
4594	0	32220	32481	
4595	0	32660	32468	
4596	0	33012	32281	
4597	0	32952	31660	
4598	0	33156	31146	
4599	0	32748	31268	
4600	0	32922	31796	
4601	0	32918	32622	
4602	0	32026	33310	
4603	0	32532	33798	
4604	0	33022	33502	
4605	0	33328	32825	
4606	0	33122	31624	
4607	0	32794	30980	
4608	0	32512	30962	
4609	0	32732	31589	
4610	0	32304	31790	
4611	0	32624	32183	
4612	0	32760	32768	
4613	0	32644	33320	
4614	0	32866	32904	
4615	0	33260	32858	
4616	0	33148	33122	
4617	0	32672	33478	
4618	0	32852	33106	
4619	0	32814	32858	
4620	0	32572	33014	
4621	0	32708	33340	
4622	0	32760	33472	
4623	0	32860	33492	
4624	0	32616	33252	
4625	0	33494	33054	
4626	0	33172	33191	
4627	0	32020	33228	
4628	0	31838	33154	
4629	0	32426	33174	
4630	0	32596	32944	
4631	0	33120	32576	
4632	0	33294	32329	
4633	0	33562	32017	
4634	0	33665	32014	
4635	0	33272	32048	
4636	0	32434	31944	
4637	0	33380	32444	
4638	0	33678	32937	
4639	0	33344	33338	
4640	0	31134	33706	
4641	0	30878	34383	
4642	0	33096	34386	
4643	0	33932	34212	
4644	0	32968	33846	
4645	0	32554	33031	
4646	0	32860	32028	
4647	0	32672	31044	
4648	0	32760	30604	
4649	0	32696	30670	
4650	0	31708	31100	
4651	0	32202	31370	
4652	0	33664	31543	
4653	0	33272	32608	
4654	0	33084	33068	
4655	0	33274	33528	
4656	0	32497	33158	
4657	0	32012	33442	
4658	0	32104	33716	
4659	0	32952	33358	
4660	0	33464	33002	
4661	0	33296	32734	
4662	0	33340	32716	
4663	0	33048	31904	
4664	0	32744	32562	
4665	0	31864	32924	
4666	0	32654	32847	
4667	0	32812	32788	
4668	0	33036	32836	
4669	0	32854	32524	
4670	0	32504	32616	
4671	0	32400	32658	
4672	0	32768	32870	
4673	0	33460	33018	
4674	0	33470	33320	
4675	0	33132	33382	
4676	0	32876	33238	
4677	0	32532	33205	
4678	0	32516	32720	
4679	0	32824	32552	
4680	0	32668	32466	
4681	0	32360	32486	
4682	0	32292	32586	
4683	0	32992	32564	
4684	0	33340	32526	
4685	0	33132	32620	
4686	0	32758	32464	
4687	0	32322	32682	
4688	0	32352	32674	
4689	0	32596	32602	
4690	0	32962	33236	
4691	0	33732	32934	
4692	0	33822	33106	
4693	0	33372	33606	
4694	0	33208	33678	
4695	0	32608	32865	
4696	0	33119	32401	
4697	0	31892	32359	
4698	0	31108	32314	
4699	0	30568	32588	
4700	0	31440	32862	
4701	0	32708	32622	
4702	0	33838	32678	
4703	0	34012	32664	
4704	0	33964	32360	
4705	0	33464	32100	
4706	0	33082	31978	
4707	0	33126	31892	
4708	0	33112	32090	
4709	0	33236	32698	
4710	0	32536	33348	
4711	0	32194	33942	
4712	0	32482	34170	
4713	0	32828	34106	
4714	0	32416	34114	
4715	0	32560	33832	
4716	0	32944	33190	
4717	0	33252	32774	
4718	0	33160	32768	
4719	0	32608	32103	
4720	0	32641	31096	
4721	0	32912	30834	
4722	0	32920	31248	
4723	0	32714	31516	
4724	0	32944	31790	
4725	0	32788	32106	
4726	0	32960	32448	
4727	0	32952	32640	
4728	0	32660	32775	
4729	0	32056	32945	
4730	0	32538	33510	
4731	0	33044	33710	
4732	0	33088	33694	
4733	0	33210	33876	
4734	0	32930	34040	
4735	0	32304	34006	
4736	0	32416	33880	
4737	0	32842	33408	
4738	0	32790	32631	
4739	0	32880	32024	
4740	0	33120	31836	
4741	0	32936	31840	
4742	0	32764	32042	
4743	0	32836	32790	
4744	0	32976	33420	
4745	0	33474	33233	
4746	0	33034	32640	
4747	0	32896	32324	
4748	0	32576	32014	
4749	0	32348	31770	
4750	0	32842	32340	
4751	0	33216	32900	
4752	0	33188	33062	
4753	0	32644	33348	
4754	0	32012	33126	
4755	0	32322	32942	
4756	0	32908	32944	
4757	0	33200	32762	
4758	0	33084	32431	
4759	0	32968	32312	
4760	0	33348	32308	
4761	0	33340	32586	
4762	0	33226	32720	
4763	0	32374	32836	
4764	0	31416	33255	
4765	0	32052	33728	
4766	0	32634	33420	
4767	0	32592	32992	
4768	0	32700	32903	
4769	0	32920	32862	
4770	0	33082	32838	
4771	0	33352	32742	
4772	0	33244	32568	
4773	0	32460	32555	
4774	0	32804	32543	
4775	0	32816	32636	
4776	0	33136	32752	
4777	0	33208	32600	
4778	0	32986	32616	
4779	0	32736	32640	
4780	0	32628	32702	
4781	0	32412	33062	
4782	0	32688	33220	
4783	0	32724	33198	
4784	0	32964	33029	
4785	0	33018	32924	
4786	0	33008	32500	
4787	0	33032	32414	
4788	0	32790	32263	
4789	0	32764	32262	
4790	0	32792	32435	
4791	0	32808	32870	
4792	0	32804	32881	
4793	0	32766	32710	
4794	0	32808	32966	
4795	0	32616	33082	
4796	0	32704	32823	
4797	0	32744	32775	
4798	0	32596	32772	
4799	0	32714	32850	
4800	0	32948	32816	
4801	0	32988	32767	
4802	0	32980	32650	
4803	0	32994	32663	
4804	0	32868	32871	
4805	0	32864	32942	
4806	0	33088	32858	
4807	0	32938	32660	
4808	0	33136	32736	
4809	0	33040	32706	
4810	0	32752	32775	
4811	0	32340	32780	
4812	0	32504	32988	
4813	0	32840	33004	
4814	0	32968	33036	
4815	0	32704	32866	
4816	0	32484	32654	
4817	0	32690	32479	
4818	0	32955	32644	
4819	0	32850	33064	
4820	0	32808	33316	
4821	0	32770	33460	
4822	0	32808	33486	
4823	0	32746	33324	
4824	0	32702	32679	
4825	0	32792	32248	
4826	0	32960	31860	
4827	0	32936	31516	
4828	0	32714	31210	
4829	0	32580	31394	
4830	0	32892	31988	
4831	0	33310	32596	
4832	0	32956	32852	
4833	0	32796	33154	
4834	0	32264	33208	
4835	0	32494	33556	
4836	0	32932	33380	
4837	0	32988	33209	
4838	0	33016	33002	
4839	0	32968	32898	
4840	0	32758	32807	
4841	0	32604	32583	
4842	0	32700	32638	
4843	0	32784	32694	
4844	0	32868	32788	
4845	0	33004	32744	
4846	0	32932	32844	
4847	0	33054	33136	
4848	0	32958	32804	
4849	0	32652	32848	
4850	0	32486	32842	
4851	0	32754	32814	
4852	0	32612	32935	
4853	0	32932	32986	
4854	0	32638	32868	
4855	0	33046	32744	
4856	0	32684	32930	
4857	0	32628	32483	
4858	0	33036	32252	
4859	0	32892	32340	
4860	0	32940	32314	
4861	0	33064	32488	
4862	0	32536	32598	
4863	0	32272	32646	
4864	0	32632	33102	
4865	0	32936	33314	
4866	0	33026	33094	
4867	0	33256	32992	
4868	0	33160	32920	
4869	0	32900	32839	
4870	0	32828	32724	
4871	0	32846	32724	
4872	0	32720	32752	
4873	0	32434	32894	
4874	0	32412	33016	
4875	0	32684	33049	
4876	0	32988	33031	
4877	0	33376	32890	
4878	0	33424	32836	
4879	0	33252	32718	
4880	0	32580	32858	
4881	0	32540	32558	
4882	0	31834	32550	
4883	0	32160	32504	
4884	0	32668	32625	
4885	0	33274	32332	
4886	0	33612	32427	
4887	0	32560	32566	
4888	0	32404	32455	
4889	0	32752	32478	
4890	0	32744	32502	
4891	0	32752	32782	
4892	0	32800	33076	
4893	0	32724	33242	
4894	0	32832	32888	
4895	0	33172	32940	
4896	0	33294	32726	
4897	0	33024	32768	
4898	0	32682	32746	
4899	0	32292	32759	
4900	0	32912	32906	
4901	0	32884	32788	
4902	0	32516	32704	
4903	0	32640	32700	
4904	0	32652	32882	
4905	0	33134	33048	
4906	0	32504	32984	
4907	0	32448	33200	
4908	0	32908	33134	
4909	0	33216	33031	
4910	0	33354	32644	
4911	0	32620	32312	
4912	0	31664	32028	
4913	0	32144	32062	
4914	0	32848	32592	
4915	0	32600	32940	
4916	0	32868	33630	
4917	0	33200	33946	
4918	0	33580	33896	
4919	0	33228	33580	
4920	0	32572	32340	
4921	0	32516	31374	
4922	0	32784	30478	
4923	0	32874	30348	
4924	0	32888	31174	
4925	0	32938	31847	
4926	0	33168	33480	
4927	0	33152	34360	
4928	0	32914	34408	
4929	0	32866	34252	
4930	0	32776	33998	
4931	0	32700	33264	
4932	0	32896	32479	
4933	0	32866	31848	
4934	0	33088	31204	
4935	0	33300	31175	
4936	0	33072	31402	
4937	0	32844	31719	
4938	0	32714	32145	
4939	0	32610	32842	
4940	0	32356	33223	
4941	0	32456	33396	
4942	0	32610	33444	
4943	0	32752	33364	
4944	0	32944	33418	
4945	0	32988	33406	
4946	0	32704	33394	
4947	0	32712	33258	
4948	0	32510	33326	
4949	0	32370	33214	
4950	0	32444	33119	
4951	0	32396	33274	
4952	0	32513	33012	
4953	0	32796	33056	
4954	0	32700	33140	
4955	0	32688	32970	
4956	0	32740	32994	
4957	0	33104	32906	
4958	0	33174	32692	
4959	0	32988	32576	
4960	0	32948	32442	
4961	0	33160	32391	
4962	0	32908	32340	
4963	0	33068	32343	
4964	0	33316	32565	
4965	0	33378	32516	
4966	0	32678	32503	
4967	0	32618	32612	
4968	0	32376	32606	
4969	0	32072	32628	
4970	0	32548	32672	
4971	0	33066	32614	
4972	0	33512	32668	
4973	0	33704	32724	
4974	0	33492	32832	
4975	0	33076	32735	
4976	0	32596	32696	
4977	0	32195	32438	
4978	0	31916	32588	
4979	0	31992	32640	
4980	0	32684	32490	
4981	0	32852	32736	
4982	0	32788	32834	
4983	0	32436	32688	
4984	0	32376	32824	
4985	0	32684	32814	
4986	0	32300	32454	
4987	0	32826	32590	
4988	0	33120	32620	
4989	0	33316	32658	
4990	0	33368	32866	
4991	0	32913	33062	
4992	0	33112	33058	
4993	0	33024	32959	
4994	0	32540	32978	
4995	0	32120	32668	
4996	0	32394	32704	
4997	0	32708	32788	
4998	0	32884	32675	
4999	0	33536	32598	
5000	0	33672	32816	
5001	0	33850	32842	
5002	0	33388	32912	
5003	0	33072	32912	
5004	0	32936	32638	
5005	0	32870	32630	
5006	0	32528	32590	
5007	0	31944	32504	
5008	0	32324	32800	
5009	0	32736	32876	
5010	0	32664	32735	
5011	0	32804	32696	
5012	0	33064	32853	
5013	0	33464	32719	
5014	0	33420	32660	
5015	0	33108	32532	
5016	0	32804	32566	
5017	0	32668	32618	
5018	0	32628	32638	
5019	0	32490	32880	
5020	0	32470	32934	
5021	0	32964	32868	
5022	0	33344	33010	
5023	0	33128	32978	
5024	0	32912	32816	
5025	0	33030	32804	
5026	0	32708	32732	
5027	0	32276	32898	
5028	0	31728	32944	
5029	0	31980	32821	
5030	0	32401	32853	
5031	0	32790	32838	
5032	0	33032	32760	
5033	0	32776	32718	
5034	0	32752	32598	
5035	0	33120	32646	
5036	0	33469	32466	
5037	0	33412	32542	
5038	0	33826	32732	
5039	0	33764	32872	
5040	0	33320	32824	
5041	0	32760	32814	
5042	0	32298	32664	
5043	0	31884	32934	
5044	0	31852	32915	
5045	0	32280	32814	
5046	0	32386	33010	
5047	0	32530	32992	
5048	0	32536	32775	
5049	0	32604	32871	
5050	0	32772	32775	
5051	0	33960	32642	
5052	0	34800	32712	
5053	0	34256	32786	
5054	0	33164	32806	
5055	0	32536	32884	
5056	0	32344	32934	
5057	0	32646	32863	
5058	0	32792	32934	
5059	0	32988	32910	
5060	0	32462	32732	
5061	0	31892	32446	
5062	0	31672	32176	
5063	0	31724	32284	
5064	0	31856	32388	
5065	0	32100	32500	
5066	0	32480	32699	
5067	0	33080	32738	
5068	0	33492	33008	
5069	0	33792	33112	
5070	0	33696	33091	
5071	0	33564	33060	
5072	0	33236	33094	
5073	0	33044	32902	
5074	0	32932	32758	
5075	0	33060	32793	
5076	0	32836	32739	
5077	0	32460	32892	
5078	0	32608	32770	
5079	0	33032	32572	
5080	0	32666	32664	
5081	0	32444	32630	
5082	0	32562	32647	
5083	0	32704	32768	
5084	0	32924	32928	
5085	0	33232	32822	
5086	0	32895	32992	
5087	0	32344	33000	
5088	0	31872	32934	
5089	0	30982	32740	
5090	0	31132	32600	
5091	0	31262	32548	
5092	0	32020	32608	
5093	0	32708	32730	
5094	0	33236	32760	
5095	0	33840	32694	
5096	0	34292	32708	
5097	0	34036	32646	
5098	0	33576	32676	
5099	0	33268	32696	
5100	0	33164	32720	
5101	0	33140	32746	
5102	0	32994	32756	
5103	0	32850	32839	
5104	0	33280	32897	
5105	0	33636	33022	
5106	0	33534	32948	
5107	0	33348	33012	
5108	0	33124	33031	
5109	0	32876	32898	
5110	0	32868	32836	
5111	0	32816	32782	
5112	0	33352	32890	
5113	0	33142	32834	
5114	0	32512	32754	
5115	0	32252	32814	
5116	0	31796	32714	
5117	0	31220	32708	
5118	0	30884	32770	
5119	0	31040	32836	
5120	0	31744	32900	
5121	0	32236	32711	
5122	0	32062	32650	
5123	0	32322	32620	
5124	0	32794	32774	
5125	0	33068	32736	
5126	0	33372	32624	
5127	0	33432	32604	
5128	0	33684	32698	
5129	0	33916	32743	
5130	0	34194	32804	
5131	0	34146	32760	
5132	0	33664	32710	
5133	0	32676	32679	
5134	0	32194	32774	
5135	0	32180	32900	
5136	0	32578	32802	
5137	0	33000	32730	
5138	0	33488	32744	
5139	0	34108	32689	
5140	0	33441	32756	
5141	0	32756	32711	
5142	0	33488	32890	
5143	0	33848	32766	
5144	0	33720	32717	
5145	0	33880	32817	
5146	0	33464	32775	
5147	0	32888	32836	
5148	0	32566	32859	
5149	0	31724	32878	
5150	0	31216	32734	
5151	0	30404	32936	
5152	0	30776	32823	
5153	0	31437	32488	
5154	0	32106	32744	
5155	0	32704	32760	
5156	0	33244	32684	
5157	0	33080	32812	
5158	0	32824	32807	
5159	0	32724	32844	
5160	0	32720	32839	
5161	0	32872	32850	
5162	0	32588	32886	
5163	0	32576	32804	
5164	0	32452	32810	
5165	0	32890	32783	
5166	0	33794	32708	
5167	0	34050	32708	
5168	0	33704	32656	
5169	0	33504	32775	
5170	0	32840	32790	
5171	0	32756	32903	
5172	0	33180	32903	
5173	0	33280	32814	
5174	0	33436	32842	
5175	0	32804	32775	
5176	0	32244	32646	
5177	0	32052	32734	
5178	0	32228	32728	
5179	0	32276	32774	
5180	0	32406	32770	
5181	0	32780	32864	
5182	0	32840	32832	
5183	0	32958	32910	
5184	0	33476	32775	
5185	0	33356	32722	
5186	0	32756	32662	
5187	0	32316	32712	
5188	0	32472	32834	
5189	0	33388	32950	
5190	0	33124	32928	
5191	0	33300	32892	
5192	0	33368	32826	
5193	0	33620	32792	
5194	0	33401	32692	
5195	0	33652	32602	
5196	0	34192	32654	
5197	0	33572	32732	
5198	0	32810	32692	
5199	0	31692	32806	
5200	0	30496	32743	
5201	0	30570	32760	
5202	0	31518	32919	
5203	0	32708	32896	
5204	0	32968	32888	
5205	0	33016	32908	
5206	0	33046	32836	
5207	0	33172	32719	
5208	0	33096	32691	
5209	0	32842	32558	
5210	0	32764	32465	
5211	0	32495	32486	
5212	0	32240	32638	
5213	0	32000	32644	
5214	0	32298	32824	
5215	0	32895	32888	
5216	0	32704	32872	
5217	0	32250	32764	
5218	0	32552	32878	
5219	0	32840	32918	
5220	0	32796	32996	
5221	0	32812	32948	
5222	0	32858	32910	
5223	0	33224	32866	
5224	0	33644	32734	
5225	0	33236	32714	
5226	0	33124	32631	
5227	0	33066	32768	
5228	0	33178	32840	
5229	0	33462	32775	
5230	0	33680	32818	
5231	0	32852	32810	
5232	0	32264	32849	
5233	0	32524	32728	
5234	0	33036	32710	
5235	0	33408	32760	
5236	0	33744	32673	
5237	0	33036	32798	
5238	0	32824	32911	
5239	0	32984	32802	
5240	0	32876	32810	
5241	0	32826	32740	
5242	0	32738	32686	
5243	0	32152	32786	
5244	0	31676	32734	
5245	0	31578	32748	
5246	0	31958	32794	
5247	0	32496	32840	
5248	0	33230	32886	
5249	0	33592	32753	
5250	0	33540	32754	
5251	0	34624	32836	
5252	0	34656	32815	
5253	0	33540	32784	
5254	0	32552	32742	
5255	0	31904	32722	
5256	0	31436	32748	
5257	0	31272	32732	
5258	0	30970	32668	
5259	0	31238	32758	
5260	0	31800	32870	
5261	0	32532	32888	
5262	0	33260	32804	
5263	0	33916	32788	
5264	0	34469	32806	
5265	0	34628	32826	
5266	0	33724	32770	
5267	0	33076	32712	
5268	0	32918	32686	
5269	0	32592	32718	
5270	0	32140	32600	
5271	0	31696	32528	
5272	0	31232	32634	
5273	0	31464	32590	
5274	0	30884	32630	
5275	0	30962	32652	
5276	0	31756	32644	
5277	0	33234	32836	
5278	0	34538	32640	
5279	0	35036	32462	
5280	0	34460	32592	
5281	0	32752	32775	
5282	0	32372	33068	
5283	0	32536	33082	
5284	0	33290	32996	
5285	0	33960	32854	
5286	0	34712	32770	
5287	0	34476	32734	
5288	0	33516	32704	
5289	0	32276	32664	
5290	0	31761	32510	
5291	0	31878	32500	
5292	0	32687	32704	
5293	0	33008	32810	
5294	0	33304	32888	
5295	0	33506	32775	
5296	0	33100	32807	
5297	0	32452	32724	
5298	0	31604	32789	
5299	0	31720	32940	
5300	0	31692	32752	
5301	0	31988	32694	
5302	0	32106	32826	
5303	0	31984	32926	
5304	0	32260	32835	
5305	0	32620	32772	
5306	0	33664	32632	
5307	0	34020	32536	
5308	0	33404	32596	
5309	0	33098	32647	
5310	0	32876	32948	
5311	0	32892	33050	
5312	0	33156	33108	
5313	0	33248	33056	
5314	0	33116	32967	
5315	0	33108	32836	
5316	0	33216	32542	
5317	0	33300	32508	
5318	0	33356	32458	
5319	0	33406	32544	
5320	0	32976	32636	
5321	0	32648	32670	
5322	0	32364	32852	
5323	0	32592	32882	
5324	0	32912	32972	
5325	0	32760	32836	
5326	0	32256	32775	
5327	0	32416	32806	
5328	0	32340	32790	
5329	0	32124	32688	
5330	0	32192	32737	
5331	0	32688	32794	
5332	0	33064	32846	
5333	0	33252	32817	
5334	0	32928	32752	
5335	0	32568	32862	
5336	0	32608	32928	
5337	0	32626	32868	
5338	0	32708	32810	
5339	0	33006	32786	
5340	0	33000	32816	
5341	0	33226	32828	
5342	0	33274	32932	
5343	0	32938	32749	
5344	0	32835	32792	
5345	0	32790	32624	
5346	0	32938	32692	
5347	0	33120	32623	
5348	0	32962	32770	
5349	0	32726	32599	
5350	0	32528	32684	
5351	0	31832	32680	
5352	0	31878	32698	
5353	0	31892	32693	
5354	0	32528	32724	
5355	0	32680	32644	
5356	0	32272	32676	
5357	0	32640	32614	
5358	0	33160	32634	
5359	0	33450	32574	
5360	0	33252	32632	
5361	0	33176	32582	
5362	0	33264	32692	
5363	0	33040	32680	
5364	0	33236	32852	
5365	0	33066	32770	
5366	0	33148	32693	
5367	0	32784	32612	
5368	0	32184	32766	
5369	0	32012	32644	
5370	0	31866	32646	
5371	0	32316	32660	
5372	0	32616	32662	
5373	0	32876	32716	
5374	0	32728	32674	
5375	0	32521	32684	
5376	0	32706	32679	
5377	0	32868	32766	
5378	0	33334	32716	
5379	0	34152	32856	
5380	0	34288	32782	
5381	0	34330	32810	
5382	0	33684	32730	
5383	0	32900	32792	
5384	0	32612	32698	
5385	0	32336	32662	
5386	0	32480	32672	
5387	0	32338	32674	
5388	0	32374	32712	
5389	0	32242	32686	
5390	0	32164	32696	
5391	0	32276	32818	
5392	0	32584	32817	
5393	0	32936	32744	
5394	0	33382	32860	
5395	0	33864	32887	
5396	0	33860	32878	
5397	0	33232	32854	
5398	0	32524	32775	
5399	0	32640	32790	
5400	0	33308	32838	
5401	0	33304	32740	
5402	0	33452	32666	
5403	0	32916	32846	
5404	0	32448	32818	
5405	0	31990	32802	
5406	0	31730	32775	
5407	0	31745	32760	
5408	0	32472	32828	
5409	0	32484	32774	
5410	0	32704	32889	
5411	0	32884	32764	
5412	0	32732	32846	
5413	0	31976	32720	
5414	0	31928	32740	
5415	0	32716	32796	
5416	0	33088	32874	
5417	0	33260	32878	
5418	0	33172	32810	
5419	0	33124	32784	
5420	0	32844	32842	
5421	0	32940	32808	
5422	0	32920	32836	
5423	0	32626	32830	
5424	0	32884	32798	
5425	0	32976	32820	
5426	0	33184	32750	
5427	0	33486	32772	
5428	0	33336	32766	
5429	0	33350	32863	
5430	0	32898	32839	
5431	0	32432	32826	
5432	0	31912	32812	
5433	0	32308	32650	
5434	0	32554	32742	
5435	0	32594	32718	
5436	0	33268	32734	
5437	0	34236	32822	
5438	0	34160	32788	
5439	0	33288	32842	
5440	0	32793	32842	
5441	0	32464	32806	
5442	0	32318	32804	
5443	0	31921	32692	
5444	0	31684	32812	
5445	0	31844	32734	
5446	0	32356	32830	
5447	0	33062	32622	
5448	0	33684	32638	
5449	0	34216	32756	
5450	0	33732	32756	
5451	0	33156	32796	
5452	0	32826	32762	
5453	0	32574	32664	
5454	0	32828	32724	
5455	0	32592	32904	
5456	0	32246	32807	
5457	0	32664	32750	
5458	0	32516	32823	
5459	0	32600	32810	
5460	0	33224	32684	
5461	0	33832	32772	
5462	0	33814	32764	
5463	0	33148	32753	
5464	0	32458	32790	
5465	0	32454	32732	
5466	0	32158	32718	
5467	0	32042	32714	
5468	0	31812	32695	
5469	0	31794	32808	
5470	0	32106	32814	
5471	0	32476	32774	
5472	0	32814	32826	
5473	0	33036	32775	
5474	0	33231	32730	
5475	0	33485	32802	
5476	0	33424	32818	
5477	0	33740	32748	
5478	0	33734	32768	
5479	0	33322	32657	
5480	0	33352	32766	
5481	0	33180	32744	
5482	0	32840	32660	
5483	0	32384	32842	
5484	0	32904	32710	
5485	0	33202	32742	
5486	0	32580	32660	
5487	0	31804	32676	
5488	0	31958	32674	
5489	0	32368	32848	
5490	0	31888	32764	
5491	0	31896	32926	
5492	0	32288	32818	
5493	0	32190	32660	
5494	0	32288	32756	
5495	0	32594	32718	
5496	0	32493	32752	
5497	0	32192	32748	
5498	0	32324	32746	
5499	0	32808	32760	
5500	0	33220	32758	
5501	0	33364	32622	
5502	0	33452	32692	
5503	0	33248	32689	
5504	0	33352	32836	
5505	0	33348	32798	
5506	0	33232	32839	
5507	0	33196	32833	
5508	0	33410	32757	
5509	0	33344	32770	
5510	0	33048	32679	
5511	0	33024	32841	
5512	0	32816	32884	
5513	0	32584	33010	
5514	0	32852	32828	
5515	0	32904	32636	
5516	0	32840	32852	
5517	0	32988	32670	
5518	0	32744	32738	
5519	0	32494	32652	
5520	0	32526	32750	
5521	0	32782	32834	
5522	0	33342	32764	
5523	0	33672	32830	
5524	0	33496	32732	
5525	0	33108	32740	
5526	0	32832	32760	
5527	0	32090	32758	
5528	0	31702	32643	
5529	0	31564	32774	
5530	0	31532	32791	
5531	0	31800	32669	
5532	0	31510	32668	
5533	0	31550	32594	
5534	0	32388	32805	
5535	0	32848	32852	
5536	0	32970	32904	
5537	0	33132	32892	
5538	0	33144	32836	
5539	0	33194	32775	
5540	0	33274	32698	
5541	0	33218	32828	
5542	0	33120	32820	
5543	0	33410	32594	
5544	0	33664	32724	
5545	0	33466	32708	
5546	0	33320	32600	
5547	0	33328	32775	
5548	0	33305	32784	
5549	0	32796	32743	
5550	0	32740	32775	
5551	0	32906	32718	
5552	0	32688	32743	
5553	0	32280	32738	
5554	0	32340	32711	
5555	0	32244	32744	
5556	0	32484	32752	
5557	0	32640	32678	
5558	0	32540	32632	
5559	0	32672	32812	
5560	0	33048	32884	
5561	0	33226	32750	
5562	0	32988	32766	
5563	0	32712	32684	
5564	0	32792	32743	
5565	0	32608	32698	
5566	0	32464	32844	
5567	0	32552	32812	
5568	0	32672	32692	
5569	0	32549	32775	
5570	0	32678	32743	
5571	0	32620	32720	
5572	0	32510	32754	
5573	0	32768	32686	
5574	0	32892	32773	
5575	0	33028	32746	
5576	0	33320	32752	
5577	0	33344	32782	
5578	0	33184	32692	
5579	0	32926	32749	
5580	0	32752	32683	
5581	0	32644	32804	
5582	0	33012	32812	
5583	0	32960	32702	
5584	0	32664	32838	
5585	0	32624	32662	
5586	0	32622	32740	
5587	0	32534	32830	
5588	0	32520	32676	
5589	0	32648	32732	
5590	0	32696	32718	
5591	0	32872	32748	
5592	0	33052	32684	
5593	0	33036	32894	
5594	0	33064	32888	
5595	0	32936	32743	
5596	0	32946	32732	
5597	0	32794	32684	
5598	0	32720	32903	
5599	0	33082	32879	
5600	0	33390	32666	
5601	0	33376	32818	
5602	0	33228	32828	
5603	0	33072	32784	
5604	0	32928	32824	
5605	0	32482	32838	
5606	0	32230	32826	
5607	0	32124	32774	
5608	0	31996	32723	
5609	0	32016	32711	
5610	0	32384	32736	
5611	0	32652	32726	
5612	0	32776	32820	
5613	0	33092	32678	
5614	0	33196	32682	
5615	0	33164	32578	
5616	0	33364	32686	
5617	0	33410	32775	
5618	0	33284	32734	
5619	0	33278	32830	
5620	0	33200	32852	
5621	0	33006	32700	
5622	0	32992	32804	
5623	0	32960	32751	
5624	0	32872	32811	
5625	0	32848	32749	
5626	0	32814	32825	
5627	0	32904	32676	
5628	0	32912	32656	
5629	0	32926	32764	
5630	0	32894	32806	
5631	0	32864	32752	
5632	0	32832	32735	
5633	0	32848	32708	
5634	0	32808	32794	
5635	0	32896	32807	
5636	0	32816	32689	
5637	0	32808	32753	
5638	0	32866	32760	
5639	0	32964	32806	
5640	0	32840	32906	
5641	0	32894	32742	
5642	0	32916	32884	
5643	0	33010	32914	
5644	0	32744	32888	
5645	0	32666	32768	
5646	0	32500	32654	
5647	0	32548	32720	
5648	0	32536	32734	
5649	0	32604	32629	
5650	0	32732	32766	
5651	0	32764	32638	
5652	0	32968	32698	
5653	0	32906	32775	
5654	0	32768	32647	
5655	0	32646	32658	
5656	0	32620	32704	
5657	0	32564	32710	
5658	0	32534	32712	
5659	0	32673	32794	
5660	0	32736	32920	
5661	0	32844	32906	
5662	0	32724	32750	
5663	0	32616	32786	
5664	0	32732	32897	
5665	0	32956	32743	
5666	0	32881	32786	
5667	0	32928	32720	
5668	0	32990	32804	
5669	0	33040	32878	
5670	0	33020	32759	
5671	0	33084	32754	
5672	0	32976	32739	
5673	0	32878	32804	
5674	0	32748	32660	
5675	0	32796	32690	
5676	0	32656	32888	
5677	0	32792	32844	
5678	0	32808	32814	
5679	0	32868	32828	
5680	0	32756	32830	
5681	0	32762	32872	
5682	0	32784	32844	
5683	0	32738	32792	
5684	0	32896	32794	
5685	0	32896	32932	
5686	0	32952	32960	
5687	0	32916	32884	
5688	0	32848	32940	
5689	0	32648	32860	
5690	0	32656	32886	
5691	0	32596	32878	
5692	0	32629	32735	
5693	0	32716	32772	
5694	0	32752	32750	
5695	0	32840	32825	
5696	0	32760	32718	
5697	0	32948	32674	
5698	0	33052	32874	
5699	0	32882	32930	
5700	0	32793	32834	
5701	0	32658	32722	
5702	0	32504	32712	
5703	0	32540	32764	
5704	0	32604	32864	
5705	0	32680	32826	
5706	0	32820	32876	
5707	0	32564	32866	
5708	0	32666	32820	
5709	0	32834	32903	
5710	0	33026	32726	
5711	0	32968	32704	
5712	0	32792	32746	
5713	0	32748	32830	
5714	0	32656	32770	
5715	0	32784	32679	
5716	0	32764	32646	
5717	0	32688	32639	
5718	0	32868	32482	
5719	0	32960	32480	
5720	0	33070	32504	
5721	0	32970	32414	
5722	0	32912	32540	
5723	0	32938	32589	
5724	0	32684	32510	
5725	0	32672	32548	
5726	0	32888	32606	
5727	0	32950	32644	
5728	0	32688	32748	
5729	0	32636	32590	
5730	0	32911	32574	
5731	0	32940	32524	
5732	0	32916	32686	
5733	0	32848	32846	
5734	0	32908	32806	
5735	0	32788	32903	
5736	0	32802	33030	
5737	0	32796	33175	
5738	0	32786	33282	
5739	0	32676	33286	
5740	0	32680	33402	
5741	0	32604	33286	
5742	0	32672	33302	
5743	0	32632	33190	
5744	0	32724	33150	
5745	0	32672	32988	
5746	0	32608	32944	
5747	0	32618	32856	
5748	0	32600	32860	
5749	0	32724	32768	
5750	0	32740	32904	
5751	0	32662	32862	
5752	0	32662	32876	
5753	0	32730	32874	
5754	0	32744	32716	
5755	0	32870	32700	
5756	0	32850	32558	
5757	0	32872	32391	
5758	0	32872	32454	
5759	0	32926	32532	
5760	0	32930	32470	
5761	0	33028	32495	
5762	0	33040	32646	
5763	0	33054	32580	
5764	0	33060	32606	
5765	0	32936	32688	
5766	0	32928	32630	
5767	0	33028	32662	
5768	0	32866	32586	
5769	0	32916	32673	
5770	0	32942	32775	
5771	0	32910	32774	
5772	0	32956	32718	
5773	0	32884	32834	
5774	0	32890	32734	
5775	0	32868	32611	
5776	0	32808	32720	
5777	0	32802	32840	
5778	0	32848	32733	
5779	0	32814	32708	
5780	0	32804	32660	
5781	0	32832	32764	
5782	0	32904	32810	
5783	0	32912	32756	
5784	0	32810	32810	
5785	0	32828	32732	
5786	0	32880	32754	
5787	0	32842	32764	
5788	0	32794	32702	
5789	0	32816	32800	
5790	0	32880	32790	
5791	0	32928	32694	
5792	0	32818	32790	
5793	0	32848	32807	
5794	0	32792	32744	
5795	0	32880	32844	
5796	0	32856	32804	
5797	0	32884	32730	
5798	0	32824	32774	
5799	0	32775	32839	
5800	0	32840	32743	
5801	0	32822	32775	
5802	0	32826	32798	
5803	0	32920	32801	
5804	0	32868	32846	
5805	0	32902	32663	
5806	0	32808	32792	
5807	0	32932	32824	
5808	0	33012	32758	
5809	0	32964	32728	
5810	0	32872	32766	
5811	0	32812	32822	
5812	0	32864	32854	
5813	0	32836	32706	
5814	0	32868	32762	
5815	0	32852	32768	
5816	0	32852	32742	
5817	0	32696	32839	
5818	0	32816	32800	
5819	0	32740	32730	
5820	0	32814	32742	
5821	0	32784	32800	
5822	0	32740	32808	
5823	0	32712	32734	
5824	0	32840	32694	
5825	0	32904	32788	
5826	0	32812	32684	
5827	0	32852	32662	
5828	0	32868	32638	
5829	0	32896	32753	
5830	0	32768	32752	
5831	0	32780	32814	
5832	0	32836	32796	
5833	0	32840	32944	
5834	0	32836	32710	
5835	0	32808	32710	
5836	0	32844	32760	
5837	0	32756	32880	
5838	0	32780	32892	
5839	0	32784	32839	
5840	0	32768	32836	
5841	0	32746	32796	
5842	0	32800	32798	
5843	0	32740	32704	
5844	0	32712	32842	
5845	0	32784	32926	
5846	0	32822	32936	
5847	0	32756	32816	
5848	0	32740	32824	
5849	0	32764	32820	
5850	0	32780	32775	
5851	0	32766	32868	
5852	0	32756	32784	
5853	0	32760	32712	
5854	0	32740	32660	
5855	0	32788	32764	
5856	0	32856	32820	
5857	0	32804	32804	
5858	0	32781	32774	
5859	0	32772	32818	
5860	0	32748	32810	
5861	0	32820	32735	
5862	0	32800	32743	
5863	0	32758	32750	
5864	0	32761	32748	
5865	0	32752	32762	
5866	0	32760	32810	
5867	0	32778	32807	
5868	0	32804	32798	
5869	0	32774	32696	
5870	0	32808	32716	
5871	0	32776	32696	
5872	0	32672	32634	
5873	0	32800	32685	
5874	0	32786	32750	
5875	0	32878	32818	
5876	0	32884	32708	
5877	0	32794	32699	
5878	0	32846	32664	
5879	0	32820	32638	
5880	0	32832	32734	
5881	0	32888	32852	
5882	0	32800	32900	
5883	0	32708	32956	
5884	0	32660	32950	
5885	0	32714	33254	
5886	0	32708	33028	
5887	0	32832	33083	
5888	0	32846	32932	
5889	0	32888	32826	
5890	0	32852	32775	
5891	0	32860	32668	
5892	0	32768	32694	
5893	0	32804	32624	
5894	0	32804	32678	
5895	0	32692	32650	
5896	0	32768	32692	
5897	0	32724	32864	
5898	0	32748	32732	
5899	0	32916	32759	
5900	0	32885	32872	
5901	0	32848	32791	
5902	0	32868	32824	
5903	0	32730	32774	
5904	0	32692	32718	
5905	0	32638	32788	
5906	0	32616	32820	
5907	0	32730	33026	
5908	0	32846	32932	
5909	0	32928	32923	
5910	0	32840	32892	
5911	0	32862	32768	
5912	0	32804	32796	
5913	0	32892	32830	
5914	0	32848	32688	
5915	0	32836	32718	
5916	0	32888	32711	
5917	0	32748	32656	
5918	0	32804	32644	
5919	0	32800	32775	
5920	0	32849	32744	
5921	0	32804	32775	
5922	0	32816	32766	
5923	0	32804	32847	
5924	0	32868	32828	
5925	0	32872	32738	
5926	0	32840	32796	
5927	0	32920	32810	
5928	0	32794	32780	
5929	0	32858	32692	
5930	0	32780	32762	
5931	0	32856	32762	
5932	0	32860	32869	
5933	0	32844	32718	
5934	0	32840	32715	
5935	0	32752	32610	
5936	0	32802	32692	
5937	0	32836	32774	
5938	0	32952	32736	
5939	0	32868	32810	
5940	0	32808	32775	
5941	0	32812	32842	
5942	0	32752	32768	
5943	0	32760	32686	
5944	0	32799	32744	
5945	0	32796	32756	
5946	0	32854	32720	
5947	0	32842	32756	
5948	0	32808	32826	
5949	0	32848	32930	
5950	0	32836	32919	
5951	0	32940	32828	
5952	0	32888	32854	
5953	0	32812	32718	
5954	0	32736	32705	
5955	0	32724	32772	
5956	0	32620	32804	
5957	0	32658	32860	
5958	0	32768	32900	
5959	0	32820	32694	
5960	0	32852	32866	
5961	0	32904	32820	
5962	0	32828	32828	
5963	0	32880	32772	
5964	0	32817	32671	
5965	0	32868	32687	
5966	0	32824	32697	
5967	0	32792	32750	
5968	0	32816	32724	
5969	0	32796	32746	
5970	0	32848	32794	
5971	0	32820	32862	
5972	0	32844	32842	
5973	0	32744	32800	
5974	0	32772	32806	
5975	0	32833	32816	
5976	0	32800	32826	
5977	0	32826	32852	
5978	0	32824	32770	
5979	0	32798	32754	
5980	0	32812	32806	
5981	0	32856	32742	
5982	0	32768	32813	
5983	0	32840	32702	
5984	0	32724	32775	
5985	0	32832	32702	
5986	0	32804	32816	
5987	0	32816	32766	
5988	0	32786	32666	
5989	0	32848	32626	
5990	0	32816	32742	
5991	0	32760	32758	
5992	0	32788	32840	
5993	0	32740	32792	
5994	0	32824	32814	
5995	0	32804	32774	
5996	0	32812	32678	
5997	0	32810	32828	
5998	0	32788	32740	
5999	0	32712	32784	
6000	0	32776	32852	
6001	0	32802	32838	
6002	0	32796	32826	
6003	0	32824	32710	
6004	0	32778	32692	
6005	0	32816	32732	
6006	0	32836	32805	
6007	0	32792	32710	
6008	0	32816	32807	
6009	0	32848	32848	
6010	0	32884	32894	
6011	0	32856	32902	
6012	0	32840	32839	
