# OpenSignals Text File Format. Version 1
# {"00:07:80:8C:0A:39": {"position": 0, "device": "biosignalsplux", "device name": "00:07:80:8C:0A:39", "device connection": "BTH00:07:80:8C:0A:39", "sampling rate": 1000, "resolution": [16, 16], "firmware version": 776, "comments": "", "keywords": "", "mode": 0, "sync interval": 2, "date": "2023-3-20", "time": "10:10:19.842", "channels": [1, 2], "sensor": ["EMG", "EMG"], "label": ["CH1", "CH2"], "column": ["nSeq", "DI", "CH1", "CH2"], "special": [{"SpO2": [80, 40, 5, 4, 3, 3]}, {"SpO2": [80, 40, 5, 4, 3, 3]}, {"SpO2": [80, 40, 5, 4, 3, 3]}, {"SpO2": [80, 40, 5, 4, 3, 3]}, {"SpO2": [80, 40, 5, 4, 3, 3]}, {"SpO2": [80, 40, 5, 4, 3, 3]}, {"SpO2": [80, 40, 5, 4, 3, 3]}, {"SpO2": [80, 40, 5, 4, 3, 3]}], "digital IO": [0, 1], "sleeve color": ["gray", "yellow"], "convertedValues": 0}}
# EndOfHeader
0	0	32837	32786	
1	0	32952	32766	
2	0	32800	32804	
3	0	32800	32801	
4	0	32832	32828	
5	0	32836	32836	
6	0	32834	32764	
7	0	32898	32702	
8	0	32870	32680	
9	0	32882	32647	
10	0	32841	32775	
11	0	32792	32769	
12	0	32832	32815	
13	0	32812	32720	
14	0	32830	32750	
15	0	32796	32807	
16	0	32804	32924	
17	0	32868	32752	
18	0	32788	32760	
19	0	32778	32775	
20	0	32836	32832	
21	0	32840	32788	
22	0	32902	32794	
23	0	32808	32804	
24	0	32816	32870	
25	0	32804	32814	
26	0	32802	32752	
27	0	32802	32734	
28	0	32800	32708	
29	0	32802	32694	
30	0	32820	32600	
31	0	32824	32775	
32	0	32816	32686	
33	0	32784	32712	
34	0	32814	32812	
35	0	32816	32836	
36	0	32800	32726	
37	0	32820	32791	
38	0	32800	32807	
39	0	32758	32788	
40	0	32820	32734	
41	0	32824	32654	
42	0	32862	32703	
43	0	32844	32672	
44	0	32828	32662	
45	0	32800	32687	
46	0	32796	32822	
47	0	32788	32650	
48	0	32816	32644	
49	0	32776	32784	
50	0	32800	32662	
51	0	32816	32676	
52	0	32834	32722	
53	0	32724	32746	
54	0	32818	32666	
55	0	32844	32756	
56	0	32762	32744	
57	0	32864	32759	
58	0	32784	32774	
59	0	32804	32826	
60	0	32852	32768	
61	0	32832	32775	
62	0	32796	32866	
63	0	32806	32810	
64	0	32756	32816	
65	0	32820	32806	
66	0	32826	32804	
67	0	32848	32756	
68	0	32788	32734	
69	0	32862	32775	
70	0	32800	32792	
71	0	32828	32802	
72	0	32812	32751	
73	0	32808	32724	
74	0	32792	32692	
75	0	32816	32775	
76	0	32852	32708	
77	0	32770	32772	
78	0	32752	32702	
79	0	32836	32702	
80	0	32848	32708	
81	0	32844	32748	
82	0	32814	32711	
83	0	32812	32711	
84	0	32884	32712	
85	0	32852	32775	
86	0	32800	32666	
87	0	32802	32684	
88	0	32824	32740	
89	0	32828	32756	
90	0	32736	32775	
91	0	32798	32788	
92	0	32840	32748	
93	0	32844	32668	
94	0	32800	32702	
95	0	32840	32662	
96	0	32808	32700	
97	0	32780	32712	
98	0	32748	32660	
99	0	32744	32764	
100	0	32808	32814	
101	0	32852	32828	
102	0	32852	32840	
103	0	32840	32796	
104	0	32804	32748	
105	0	32792	32812	
106	0	32792	32800	
107	0	32736	32750	
108	0	32784	32878	
109	0	32812	32764	
110	0	32868	32722	
111	0	32786	32734	
112	0	32836	32664	
113	0	32740	32698	
114	0	32828	32764	
115	0	32856	32828	
116	0	32800	32800	
117	0	32826	32854	
118	0	32820	32768	
119	0	32768	32730	
120	0	32800	32749	
121	0	32792	32806	
122	0	32776	32756	
123	0	32846	32768	
124	0	32810	32788	
125	0	32836	32806	
126	0	32820	32740	
127	0	32860	32775	
128	0	32848	32740	
129	0	32808	32734	
130	0	32818	32860	
131	0	32818	32742	
132	0	32816	32772	
133	0	32802	32699	
134	0	32900	32702	
135	0	32768	32689	
136	0	32770	32680	
137	0	32794	32748	
138	0	32828	32824	
139	0	32800	32775	
140	0	32804	32836	
141	0	32884	32795	
142	0	32840	32654	
143	0	32768	32710	
144	0	32834	32814	
145	0	32852	32728	
146	0	32804	32822	
147	0	32762	32799	
148	0	32784	32679	
149	0	32816	32730	
150	0	32790	32746	
151	0	32792	32670	
152	0	32784	32796	
153	0	32762	32820	
154	0	32834	32838	
155	0	32804	32806	
156	0	32858	32796	
157	0	32748	32728	
158	0	32782	32703	
159	0	32778	32750	
160	0	32868	32902	
161	0	32784	32762	
162	0	32824	32842	
163	0	32872	32718	
164	0	32868	32804	
165	0	32844	32756	
166	0	32816	32724	
167	0	32846	32674	
168	0	32772	32804	
169	0	32812	32815	
170	0	32836	32820	
171	0	32780	32772	
172	0	32804	32812	
173	0	32860	32818	
174	0	32796	32836	
175	0	32806	32828	
176	0	32856	32834	
177	0	32796	32680	
178	0	32844	32814	
179	0	32760	32839	
180	0	32800	32868	
181	0	32788	32870	
182	0	32790	32830	
183	0	32802	32734	
184	0	32785	32754	
185	0	32784	32828	
186	0	32860	32775	
187	0	32812	32775	
188	0	32820	32752	
189	0	32796	32805	
190	0	32802	32754	
191	0	32768	32768	
192	0	32800	32814	
193	0	32834	32738	
194	0	32772	32746	
195	0	32840	32752	
196	0	32816	32838	
197	0	32788	32770	
198	0	32768	32718	
199	0	32778	32724	
200	0	32842	32775	
201	0	32868	32796	
202	0	32836	32775	
203	0	32820	32750	
204	0	32852	32762	
205	0	32826	32775	
206	0	32780	32807	
207	0	32776	32808	
208	0	32776	32774	
209	0	32816	32775	
210	0	32812	32804	
211	0	32842	32764	
212	0	32844	32684	
213	0	32844	32702	
214	0	32904	32696	
215	0	32720	32692	
216	0	32828	32810	
217	0	32812	32798	
218	0	32800	32762	
219	0	32797	32824	
220	0	32824	32838	
221	0	32780	32847	
222	0	32812	32676	
223	0	32784	32686	
224	0	32852	32823	
225	0	32816	32896	
226	0	32796	32870	
227	0	32775	32772	
228	0	32762	32774	
229	0	32804	32642	
230	0	32844	32868	
231	0	32838	32750	
232	0	32846	32886	
233	0	32758	32756	
234	0	32796	32760	
235	0	32804	32788	
236	0	32864	32802	
237	0	32826	32775	
238	0	32824	32826	
239	0	32824	32722	
240	0	32746	32720	
241	0	32752	32775	
242	0	32792	32743	
243	0	32826	32804	
244	0	32800	32618	
245	0	32796	32775	
246	0	32884	32712	
247	0	32832	32741	
248	0	32828	32802	
249	0	32860	32672	
250	0	32884	32724	
251	0	32756	32775	
252	0	32764	32862	
253	0	32764	32702	
254	0	32808	32715	
255	0	32750	32800	
256	0	32784	32850	
257	0	32870	32720	
258	0	32856	32711	
259	0	32798	32822	
260	0	32804	32742	
261	0	32796	32682	
262	0	32808	32686	
263	0	32784	32772	
264	0	32852	32770	
265	0	32812	32774	
266	0	32753	32799	
267	0	32814	32804	
268	0	32776	32775	
269	0	32788	32832	
270	0	32784	32798	
271	0	32844	32684	
272	0	32854	32714	
273	0	32810	32810	
274	0	32848	32798	
275	0	32784	32705	
276	0	32868	32850	
277	0	32806	32718	
278	0	32841	32712	
279	0	32802	32676	
280	0	32844	32872	
281	0	32860	32758	
282	0	32792	32760	
283	0	32812	32846	
284	0	32818	32794	
285	0	32812	32706	
286	0	32784	32740	
287	0	32856	32724	
288	0	32829	32775	
289	0	32789	32775	
290	0	32792	32806	
291	0	32768	32832	
292	0	32766	32774	
293	0	32834	32702	
294	0	32810	32712	
295	0	32794	32708	
296	0	32728	32615	
297	0	32748	32876	
298	0	32824	32759	
299	0	32862	32770	
300	0	32804	32830	
301	0	32824	32816	
302	0	32820	32732	
303	0	32802	32664	
304	0	32800	32752	
305	0	32781	32775	
306	0	32858	32752	
307	0	32798	32820	
308	0	32832	32692	
309	0	32812	32706	
310	0	32760	32760	
311	0	32804	32732	
312	0	32832	32752	
313	0	32790	32832	
314	0	32832	32768	
315	0	32820	32772	
316	0	32828	32788	
317	0	32808	32804	
318	0	32794	32791	
319	0	32810	32806	
320	0	32816	32836	
321	0	32796	32807	
322	0	32792	32775	
323	0	32802	32758	
324	0	32804	32743	
325	0	32794	32768	
326	0	32768	32740	
327	0	32804	32711	
328	0	32772	32871	
329	0	32826	32710	
330	0	32788	32728	
331	0	32854	32798	
332	0	32844	32756	
333	0	32788	32688	
334	0	32876	32686	
335	0	32844	32751	
336	0	32808	32828	
337	0	32776	32726	
338	0	32796	32757	
339	0	32752	32846	
340	0	32800	32772	
341	0	32822	32686	
342	0	32812	32758	
343	0	32788	32775	
344	0	32792	32734	
345	0	32736	32750	
346	0	32794	32744	
347	0	32832	32744	
348	0	32828	32714	
349	0	32822	32806	
350	0	32832	32852	
351	0	32832	32775	
352	0	32788	32790	
353	0	32775	32794	
354	0	32852	32700	
355	0	32856	32700	
356	0	32796	32756	
357	0	32752	32754	
358	0	32792	32775	
359	0	32808	32748	
360	0	32828	32764	
361	0	32810	32849	
362	0	32820	32690	
363	0	32838	32770	
364	0	32832	32804	
365	0	32836	32775	
366	0	32872	32775	
367	0	32892	32740	
368	0	32836	32758	
369	0	32820	32772	
370	0	32772	32692	
371	0	32788	32728	
372	0	32826	32700	
373	0	32840	32826	
374	0	32842	32724	
375	0	32828	32761	
376	0	32744	32740	
377	0	32788	32846	
378	0	32796	32794	
379	0	32772	32680	
380	0	32892	32804	
381	0	32812	32671	
382	0	32780	32710	
383	0	32744	32764	
384	0	32848	32790	
385	0	32816	32775	
386	0	32846	32814	
387	0	32800	32834	
388	0	32850	32756	
389	0	32832	32704	
390	0	32768	32775	
391	0	32744	32775	
392	0	32782	32772	
393	0	32846	32882	
394	0	32844	32702	
395	0	32828	32674	
396	0	32836	32702	
397	0	32816	32702	
398	0	32856	32723	
399	0	32774	32896	
400	0	32848	32759	
401	0	32832	32785	
402	0	32798	32705	
403	0	32818	32725	
404	0	32836	32764	
405	0	32752	32754	
406	0	32768	32792	
407	0	32826	32788	
408	0	32792	32695	
409	0	32772	32742	
410	0	32832	32748	
411	0	32824	32796	
412	0	32816	32772	
413	0	32810	32827	
414	0	32812	32698	
415	0	32762	32655	
416	0	32816	32690	
417	0	32872	32712	
418	0	32818	32719	
419	0	32760	32871	
420	0	32768	32788	
421	0	32742	32736	
422	0	32784	32820	
423	0	32824	32775	
424	0	32796	32666	
425	0	32884	32768	
426	0	32808	32852	
427	0	32810	32824	
428	0	32828	32782	
429	0	32862	32702	
430	0	32794	32844	
431	0	32744	32799	
432	0	32784	32686	
433	0	32836	32678	
434	0	32854	32846	
435	0	32806	32775	
436	0	32800	32790	
437	0	32728	32748	
438	0	32760	32793	
439	0	32812	32752	
440	0	32842	32743	
441	0	32826	32756	
442	0	32820	32908	
443	0	32812	32756	
444	0	32848	32785	
445	0	32824	32782	
446	0	32760	32874	
447	0	32784	32822	
448	0	32847	32706	
449	0	32758	32788	
450	0	32732	32810	
451	0	32846	32740	
452	0	32768	32727	
453	0	32788	32770	
454	0	32816	32866	
455	0	32784	32769	
456	0	32832	32760	
457	0	32796	32710	
458	0	32800	32735	
459	0	32848	32732	
460	0	32924	32696	
461	0	32904	32700	
462	0	32908	32716	
463	0	32970	32518	
464	0	32944	32542	
465	0	32976	32551	
466	0	32988	32596	
467	0	33012	32548	
468	0	32936	32687	
469	0	32951	32678	
470	0	32902	32638	
471	0	32876	32807	
472	0	32932	32752	
473	0	32900	32688	
474	0	32884	32638	
475	0	32878	32647	
476	0	32904	32630	
477	0	32832	32698	
478	0	32904	32804	
479	0	32804	32855	
480	0	32754	32955	
481	0	32696	32831	
482	0	32665	32844	
483	0	32608	32956	
484	0	32592	32944	
485	0	32550	33084	
486	0	32500	33076	
487	0	32408	33060	
488	0	32408	33208	
489	0	32458	33103	
490	0	32488	32982	
491	0	32584	32903	
492	0	32668	32920	
493	0	32644	32960	
494	0	32698	32798	
495	0	32744	32818	
496	0	32788	32844	
497	0	32900	32684	
498	0	32850	32647	
499	0	32836	32580	
500	0	32894	32664	
501	0	33012	32612	
502	0	33006	32615	
503	0	32996	32627	
504	0	33020	32559	
505	0	32944	32592	
506	0	32966	32562	
507	0	32900	32640	
508	0	32910	32626	
509	0	32916	32623	
510	0	32928	32770	
511	0	32853	32814	
512	0	32858	32726	
513	0	32831	32720	
514	0	32856	32680	
515	0	32768	32692	
516	0	32842	32802	
517	0	32848	32737	
518	0	32820	32764	
519	0	32780	32886	
520	0	32828	32730	
521	0	32794	32766	
522	0	32812	32758	
523	0	32774	32878	
524	0	32788	32784	
525	0	32812	32720	
526	0	32726	32838	
527	0	32728	32774	
528	0	32790	32832	
529	0	32858	32726	
530	0	32852	32660	
531	0	32824	32711	
532	0	32820	32824	
533	0	32798	32736	
534	0	32852	32796	
535	0	32892	32807	
536	0	32838	32857	
537	0	32792	32708	
538	0	32800	32769	
539	0	32810	32775	
540	0	32832	32822	
541	0	32798	32748	
542	0	32788	32775	
543	0	32828	32684	
544	0	32886	32727	
545	0	32792	32788	
546	0	32844	32759	
547	0	32808	32820	
548	0	32792	32794	
549	0	32920	32800	
550	0	32780	32616	
551	0	32820	32714	
552	0	32850	32742	
553	0	32772	32774	
554	0	32884	32798	
555	0	32804	32816	
556	0	32836	32772	
557	0	32808	32672	
558	0	32725	32743	
559	0	32788	32716	
560	0	32780	32790	
561	0	32804	32767	
562	0	32812	32822	
563	0	32862	32762	
564	0	32856	32814	
565	0	32842	32752	
566	0	32812	32652	
567	0	32816	32623	
568	0	32840	32775	
569	0	32824	32807	
570	0	32808	32839	
571	0	32752	32710	
572	0	32844	32729	
573	0	32772	32839	
574	0	32818	32774	
575	0	32776	32763	
576	0	32730	32684	
577	0	32840	32686	
578	0	32800	32743	
579	0	32804	32871	
580	0	32838	32823	
581	0	32800	32770	
582	0	32824	32820	
583	0	32864	32816	
584	0	32814	32860	
585	0	32784	32734	
586	0	32760	32724	
587	0	32836	32672	
588	0	32800	32689	
589	0	32752	32748	
590	0	32832	32802	
591	0	32770	32718	
592	0	32868	32796	
593	0	32816	32775	
594	0	32852	32708	
595	0	32826	32689	
596	0	32826	32812	
597	0	32904	32736	
598	0	32730	32742	
599	0	32802	32836	
600	0	32792	32752	
601	0	32791	32788	
602	0	32788	32668	
603	0	32796	32764	
604	0	32824	32850	
605	0	32840	32804	
606	0	32836	32828	
607	0	32834	32708	
608	0	32796	32729	
609	0	32808	32828	
610	0	32840	32812	
611	0	32830	32856	
612	0	32792	32767	
613	0	32828	32694	
614	0	32830	32775	
615	0	32812	32692	
616	0	32842	32742	
617	0	32724	32768	
618	0	32778	32700	
619	0	32756	32824	
620	0	32812	32750	
621	0	32754	32784	
622	0	32820	32764	
623	0	32868	32700	
624	0	32794	32724	
625	0	32808	32724	
626	0	32812	32800	
627	0	32856	32750	
628	0	32908	32775	
629	0	32826	32760	
630	0	32812	32719	
631	0	32816	32794	
632	0	32856	32888	
633	0	32760	32821	
634	0	32742	32664	
635	0	32752	32604	
636	0	32808	32816	
637	0	32736	32734	
638	0	32790	32814	
639	0	32802	32740	
640	0	32832	32734	
641	0	32762	32700	
642	0	32784	32756	
643	0	32810	32732	
644	0	32784	32660	
645	0	32846	32686	
646	0	32852	32720	
647	0	32868	32836	
648	0	32824	32843	
649	0	32796	32834	
650	0	32800	32807	
651	0	32808	32764	
652	0	32764	32775	
653	0	32772	32796	
654	0	32890	32770	
655	0	32752	32806	
656	0	32818	32784	
657	0	32828	32644	
658	0	32810	32743	
659	0	32750	32728	
660	0	32800	32842	
661	0	32832	32832	
662	0	32816	32730	
663	0	32862	32756	
664	0	32880	32775	
665	0	32834	32742	
666	0	32808	32716	
667	0	32800	32680	
668	0	32792	32640	
669	0	32806	32698	
670	0	32824	32820	
671	0	32850	32772	
672	0	32880	32831	
673	0	32842	32724	
674	0	32784	32804	
675	0	32788	32798	
676	0	32766	32646	
677	0	32752	32692	
678	0	32754	32704	
679	0	32820	32675	
680	0	32800	32712	
681	0	32836	32770	
682	0	32830	32679	
683	0	32836	32684	
684	0	32816	32836	
685	0	32838	32774	
686	0	32778	32810	
687	0	32792	32850	
688	0	32768	32828	
689	0	32864	32805	
690	0	32834	32856	
691	0	32798	32712	
692	0	32874	32702	
693	0	32796	32723	
694	0	32824	32850	
695	0	32790	32838	
696	0	32852	32737	
697	0	32800	32730	
698	0	32770	32847	
699	0	32768	32775	
700	0	32752	32752	
701	0	32768	32718	
702	0	32792	32742	
703	0	32782	32732	
704	0	32814	32800	
705	0	32836	32762	
706	0	32752	32775	
707	0	32784	32721	
708	0	32836	32752	
709	0	32820	32802	
710	0	32768	32807	
711	0	32821	32728	
712	0	32762	32826	
713	0	32852	32774	
714	0	32790	32774	
715	0	32844	32838	
716	0	32820	32728	
717	0	32778	32625	
718	0	32764	32734	
719	0	32782	32646	
720	0	32784	32872	
721	0	32836	32732	
722	0	32852	32748	
723	0	32824	32818	
724	0	32740	32829	
725	0	32866	32823	
726	0	32834	32835	
727	0	32810	32796	
728	0	32788	32682	
729	0	32804	32768	
730	0	32784	32712	
731	0	32772	32874	
732	0	32796	32828	
733	0	32812	32884	
734	0	32780	32775	
735	0	32854	32756	
736	0	32772	32754	
737	0	32830	32724	
738	0	32804	32650	
739	0	32812	32828	
740	0	32756	32762	
741	0	32768	32762	
742	0	32794	32960	
743	0	32808	32756	
744	0	32824	32720	
745	0	32790	32660	
746	0	32812	32704	
747	0	32836	32774	
748	0	32806	32775	
749	0	32832	32710	
750	0	32844	32821	
751	0	32828	32724	
752	0	32786	32718	
753	0	32834	32774	
754	0	32824	32792	
755	0	32764	32756	
756	0	32900	32862	
757	0	32780	32807	
758	0	32782	32772	
759	0	32820	32774	
760	0	32788	32732	
761	0	32824	32714	
762	0	32788	32636	
763	0	32792	32728	
764	0	32846	32806	
765	0	32842	32822	
766	0	32849	32746	
767	0	32792	32860	
768	0	32860	32796	
769	0	32858	32662	
770	0	32790	32694	
771	0	32872	32692	
772	0	32804	32746	
773	0	32798	32740	
774	0	32792	32818	
775	0	32778	32732	
776	0	32836	32768	
777	0	32804	32752	
778	0	32760	32703	
779	0	32800	32740	
780	0	32848	32824	
781	0	32800	32704	
782	0	32738	32730	
783	0	32876	32801	
784	0	32814	32716	
785	0	32868	32706	
786	0	32856	32806	
787	0	32858	32786	
788	0	32804	32790	
789	0	32816	32684	
790	0	32812	32743	
791	0	32864	32796	
792	0	32750	32790	
793	0	32768	32724	
794	0	32824	32700	
795	0	32816	32736	
796	0	32824	32775	
797	0	32784	32756	
798	0	32801	32800	
799	0	32798	32678	
800	0	32806	32743	
801	0	32830	32666	
802	0	32768	32824	
803	0	32792	32839	
804	0	32868	32756	
805	0	32786	32736	
806	0	32844	32848	
807	0	32792	32742	
808	0	32830	32702	
809	0	32834	32742	
810	0	32816	32798	
811	0	32808	32807	
812	0	32802	32792	
813	0	32852	32722	
814	0	32824	32805	
815	0	32794	32793	
816	0	32844	32756	
817	0	32812	32703	
818	0	32816	32738	
819	0	32740	32716	
820	0	32837	32820	
821	0	32804	32796	
822	0	32872	32718	
823	0	32824	32847	
824	0	32816	32847	
825	0	32864	32754	
826	0	32804	32734	
827	0	32842	32694	
828	0	32872	32708	
829	0	32810	32826	
830	0	32760	32775	
831	0	32828	32700	
832	0	32788	32810	
833	0	32792	32722	
834	0	32824	32836	
835	0	32804	32812	
836	0	32808	32746	
837	0	32812	32647	
838	0	32788	32730	
839	0	32706	32666	
840	0	32784	32747	
841	0	32792	32760	
842	0	32838	32884	
843	0	32810	32848	
844	0	32769	32774	
845	0	32820	32742	
846	0	32834	32756	
847	0	32842	32760	
848	0	32832	32756	
849	0	32786	32828	
850	0	32776	32803	
851	0	32764	32756	
852	0	32776	32678	
853	0	32860	32748	
854	0	32847	32746	
855	0	32860	32750	
856	0	32756	32818	
857	0	32848	32839	
858	0	32792	32750	
859	0	32808	32684	
860	0	32812	32756	
861	0	32788	32766	
862	0	32852	32810	
863	0	32812	32775	
864	0	32752	32806	
865	0	32764	32796	
866	0	32794	32855	
867	0	32782	32679	
868	0	32800	32647	
869	0	32806	32684	
870	0	32768	32793	
871	0	32826	32846	
872	0	32774	32775	
873	0	32824	32804	
874	0	32820	32847	
875	0	32764	32786	
876	0	32784	32746	
877	0	32844	32740	
878	0	32824	32642	
879	0	32850	32732	
880	0	32772	32806	
881	0	32836	32800	
882	0	32834	32836	
883	0	32808	32772	
884	0	32842	32732	
885	0	32814	32784	
886	0	32802	32784	
887	0	32788	32824	
888	0	32760	32746	
889	0	32864	32769	
890	0	32804	32775	
891	0	32772	32704	
892	0	32854	32724	
893	0	32852	32820	
894	0	32828	32690	
895	0	32814	32692	
896	0	32834	32670	
897	0	32820	32680	
898	0	32812	32647	
899	0	32804	32775	
900	0	32766	32674	
901	0	32922	32702	
902	0	32808	32762	
903	0	32802	32870	
904	0	32828	32819	
905	0	32744	32842	
906	0	32788	32756	
907	0	32772	32775	
908	0	32816	32839	
909	0	32808	32791	
910	0	32752	32775	
911	0	32824	32790	
912	0	32808	32770	
913	0	32836	32736	
914	0	32752	32754	
915	0	32832	32743	
916	0	32816	32790	
917	0	32788	32794	
918	0	32796	32722	
919	0	32788	32702	
920	0	32820	32746	
921	0	32830	32759	
922	0	32840	32770	
923	0	32804	32738	
924	0	32762	32742	
925	0	32852	32702	
926	0	32882	32766	
927	0	32770	32682	
928	0	32856	32790	
929	0	32836	32732	
930	0	32784	32756	
931	0	32796	32679	
932	0	32776	32660	
933	0	32788	32815	
934	0	32818	32760	
935	0	32763	32719	
936	0	32832	32798	
937	0	32812	32660	
938	0	32814	32689	
939	0	32810	32652	
940	0	32822	32692	
941	0	32756	32736	
942	0	32828	32688	
943	0	32832	32775	
944	0	32832	32721	
945	0	32804	32716	
946	0	32776	32668	
947	0	32792	32694	
948	0	32838	32694	
949	0	32848	32701	
950	0	32884	32846	
951	0	32764	32864	
952	0	32810	32794	
953	0	32808	32734	
954	0	32794	32760	
955	0	32820	32826	
956	0	32816	32794	
957	0	32812	32732	
958	0	32772	32762	
959	0	32842	32744	
960	0	32796	32719	
961	0	32792	32808	
962	0	32840	32822	
963	0	32820	32802	
964	0	32810	32792	
965	0	32864	32770	
966	0	32802	32826	
967	0	32832	32762	
968	0	32824	32788	
969	0	32826	32767	
970	0	32868	32734	
971	0	32836	32708	
972	0	32732	32807	
973	0	32752	32864	
974	0	32796	32844	
975	0	32808	32743	
976	0	32796	32686	
977	0	32842	32728	
978	0	32780	32695	
979	0	32864	32737	
980	0	32864	32770	
981	0	32794	32780	
982	0	32898	32740	
983	0	32794	32775	
984	0	32826	32767	
985	0	32860	32830	
986	0	32828	32766	
987	0	32868	32794	
988	0	32812	32743	
989	0	32810	32807	
990	0	32792	32742	
991	0	32784	32826	
992	0	32788	32768	
993	0	32808	32766	
994	0	32838	32746	
995	0	32828	32734	
996	0	32804	32588	
997	0	32812	32714	
998	0	32780	32762	
999	0	32812	32808	
1000	0	32788	32836	
1001	0	32802	32748	
1002	0	32848	32818	
1003	0	32814	32775	
1004	0	32864	32788	
1005	0	32854	32832	
1006	0	32768	32742	
1007	0	32808	32775	
1008	0	32826	32762	
1009	0	32832	32806	
1010	0	32788	32796	
1011	0	32810	32796	
1012	0	32808	32742	
1013	0	32804	32794	
1014	0	32824	32832	
1015	0	32818	32688	
1016	0	32817	32790	
1017	0	32756	32646	
1018	0	32744	32767	
1019	0	32772	32866	
1020	0	32876	32807	
1021	0	32876	32712	
1022	0	32800	32764	
1023	0	32786	32898	
1024	0	32820	32810	
1025	0	32854	32684	
1026	0	32740	32684	
1027	0	32808	32704	
1028	0	32792	32683	
1029	0	32756	32716	
1030	0	32792	32728	
1031	0	32758	32742	
1032	0	32841	32752	
1033	0	32848	32746	
1034	0	32810	32711	
1035	0	32820	32816	
1036	0	32826	32760	
1037	0	32804	32775	
1038	0	32776	32743	
1039	0	32768	32768	
1040	0	32870	32854	
1041	0	32810	32762	
1042	0	32808	32694	
1043	0	32804	32647	
1044	0	32856	32698	
1045	0	32834	32772	
1046	0	32796	32830	
1047	0	32828	32744	
1048	0	32768	32774	
1049	0	32848	32752	
1050	0	32820	32792	
1051	0	32772	32716	
1052	0	32780	32716	
1053	0	32788	32660	
1054	0	32868	32718	
1055	0	32792	32848	
1056	0	32806	32802	
1057	0	32816	32767	
1058	0	32798	32796	
1059	0	32820	32799	
1060	0	32742	32756	
1061	0	32796	32728	
1062	0	32845	32775	
1063	0	32832	32760	
1064	0	32816	32758	
1065	0	32728	32803	
1066	0	32816	32764	
1067	0	32804	32742	
1068	0	32868	32800	
1069	0	32860	32708	
1070	0	32792	32814	
1071	0	32798	32814	
1072	0	32780	32815	
1073	0	32790	32760	
1074	0	32836	32728	
1075	0	32800	32775	
1076	0	32784	32734	
1077	0	32822	32750	
1078	0	32776	32744	
1079	0	32823	32818	
1080	0	32804	32818	
1081	0	32808	32800	
1082	0	32818	32711	
1083	0	32796	32822	
1084	0	32824	32772	
1085	0	32834	32748	
1086	0	32848	32740	
1087	0	32808	32768	
1088	0	32814	32740	
1089	0	32824	32831	
1090	0	32820	32719	
1091	0	32830	32666	
1092	0	32736	32700	
1093	0	32760	32646	
1094	0	32820	32688	
1095	0	32884	32760	
1096	0	32828	32692	
1097	0	32808	32775	
1098	0	32802	32842	
1099	0	32828	32786	
1100	0	32804	32810	
1101	0	32808	32796	
1102	0	32848	32808	
1103	0	32870	32798	
1104	0	32816	32722	
1105	0	32750	32814	
1106	0	32820	32734	
1107	0	32836	32816	
1108	0	32916	32812	
1109	0	32764	32654	
1110	0	32806	32774	
1111	0	32912	32742	
1112	0	32764	32672	
1113	0	32800	32734	
1114	0	32768	32668	
1115	0	32804	32689	
1116	0	32834	32711	
1117	0	32828	32766	
1118	0	32784	32798	
1119	0	32800	32712	
1120	0	32844	32702	
1121	0	32728	32714	
1122	0	32768	32812	
1123	0	32824	32804	
1124	0	32810	32751	
1125	0	32784	32794	
1126	0	32822	32736	
1127	0	32824	32772	
1128	0	32804	32828	
1129	0	32812	32834	
1130	0	32822	32842	
1131	0	32958	32793	
1132	0	32832	32796	
1133	0	32796	32838	
1134	0	32784	32728	
1135	0	32844	32759	
1136	0	32782	32734	
1137	0	32810	32682	
1138	0	32766	32736	
1139	0	32810	32696	
1140	0	32804	32724	
1141	0	32804	32708	
1142	0	32772	32802	
1143	0	32796	32764	
1144	0	32756	32711	
1145	0	32832	32790	
1146	0	32856	32816	
1147	0	32848	32703	
1148	0	32958	32807	
1149	0	32790	32820	
1150	0	32788	32807	
1151	0	32840	32820	
1152	0	32820	32743	
1153	0	32848	32754	
1154	0	32762	32759	
1155	0	32788	32784	
1156	0	32775	32646	
1157	0	32742	32678	
1158	0	32820	32734	
1159	0	32826	32775	
1160	0	32828	32775	
1161	0	32760	32846	
1162	0	32840	32744	
1163	0	32826	32720	
1164	0	32896	32830	
1165	0	32788	32760	
1166	0	32824	32763	
1167	0	32798	32775	
1168	0	32804	32815	
1169	0	32772	32838	
1170	0	32794	32750	
1171	0	32824	32775	
1172	0	32832	32838	
1173	0	32828	32754	
1174	0	32792	32775	
1175	0	32823	32759	
1176	0	32784	32798	
1177	0	32820	32743	
1178	0	32862	32704	
1179	0	32792	32711	
1180	0	32816	32721	
1181	0	32800	32726	
1182	0	32820	32708	
1183	0	32744	32732	
1184	0	32802	32733	
1185	0	32812	32900	
1186	0	32800	32775	
1187	0	32806	32775	
1188	0	32782	32790	
1189	0	32816	32788	
1190	0	32796	32748	
1191	0	32816	32824	
1192	0	32784	32691	
1193	0	32778	32726	
1194	0	32794	32804	
1195	0	32840	32692	
1196	0	32840	32806	
1197	0	32800	32804	
1198	0	32800	32775	
1199	0	32812	32742	
1200	0	32792	32870	
1201	0	32806	32802	
1202	0	32840	32716	
1203	0	32862	32740	
1204	0	32824	32702	
1205	0	32868	32730	
1206	0	32858	32814	
1207	0	32900	32751	
1208	0	32878	32646	
1209	0	32768	32678	
1210	0	32876	32830	
1211	0	32804	32756	
1212	0	32752	32734	
1213	0	32776	32847	
1214	0	32858	32826	
1215	0	32818	32791	
1216	0	32862	32732	
1217	0	32832	32626	
1218	0	32820	32724	
1219	0	32826	32706	
1220	0	32802	32688	
1221	0	32788	32846	
1222	0	32794	32810	
1223	0	32780	32812	
1224	0	32814	32817	
1225	0	32862	32708	
1226	0	32794	32758	
1227	0	32774	32775	
1228	0	32776	32694	
1229	0	32800	32696	
1230	0	32836	32740	
1231	0	32824	32746	
1232	0	32804	32736	
1233	0	32796	32824	
1234	0	32788	32770	
1235	0	32754	32723	
1236	0	32798	32692	
1237	0	32746	32887	
1238	0	32706	32800	
1239	0	32808	32743	
1240	0	32808	32737	
1241	0	32804	32796	
1242	0	32800	32740	
1243	0	32743	32705	
1244	0	32792	32727	
1245	0	32767	32846	
1246	0	32820	32843	
1247	0	32842	32796	
1248	0	32846	32810	
1249	0	32800	32824	
1250	0	32824	32726	
1251	0	32900	32644	
1252	0	32880	32647	
1253	0	32898	32648	
1254	0	32950	32658	
1255	0	32952	32596	
1256	0	32974	32582	
1257	0	33002	32468	
1258	0	32972	32654	
1259	0	32936	32606	
1260	0	32900	32632	
1261	0	32914	32690	
1262	0	32922	32634	
1263	0	32866	32768	
1264	0	32842	32738	
1265	0	32980	32716	
1266	0	32928	32692	
1267	0	32996	32636	
1268	0	32930	32674	
1269	0	32828	32719	
1270	0	32740	32856	
1271	0	32708	32871	
1272	0	32672	32850	
1273	0	32660	32903	
1274	0	32642	33024	
1275	0	32606	33086	
1276	0	32550	32968	
1277	0	32386	33020	
1278	0	32404	33212	
1279	0	32432	33134	
1280	0	32480	33098	
1281	0	32484	33106	
1282	0	32564	33076	
1283	0	32556	32838	
1284	0	32680	32775	
1285	0	32760	32864	
1286	0	32704	32856	
1287	0	32748	32791	
1288	0	32868	32775	
1289	0	32864	32710	
1290	0	32924	32634	
1291	0	32918	32668	
1292	0	32964	32554	
1293	0	32988	32508	
1294	0	33050	32586	
1295	0	32982	32602	
1296	0	32932	32626	
1297	0	32890	32796	
1298	0	32898	32652	
1299	0	32940	32690	
1300	0	32924	32610	
1301	0	32922	32614	
1302	0	32884	32712	
1303	0	32900	32626	
1304	0	32816	32646	
1305	0	32854	32708	
1306	0	32778	32655	
1307	0	32858	32766	
1308	0	32800	32700	
1309	0	32820	32824	
1310	0	32818	32788	
1311	0	32852	32822	
1312	0	32816	32818	
1313	0	32788	32822	
1314	0	32812	32821	
1315	0	32738	32736	
1316	0	32756	32846	
1317	0	32844	32796	
1318	0	32852	32833	
1319	0	32840	32791	
1320	0	32836	32854	
1321	0	32784	32750	
1322	0	32828	32804	
1323	0	32868	32754	
1324	0	32772	32658	
1325	0	32876	32654	
1326	0	32780	32722	
1327	0	32798	32767	
1328	0	32808	32802	
1329	0	32824	32815	
1330	0	32796	32910	
1331	0	32822	32808	
1332	0	32776	32788	
1333	0	32768	32770	
1334	0	32802	32740	
1335	0	32790	32815	
1336	0	32804	32775	
1337	0	32856	32728	
1338	0	32828	32606	
1339	0	32804	32638	
1340	0	32876	32738	
1341	0	32804	32802	
1342	0	32784	32804	
1343	0	32776	32807	
1344	0	32814	32744	
1345	0	32888	32798	
1346	0	32808	32808	
1347	0	32900	32834	
1348	0	32812	32724	
1349	0	32788	32660	
1350	0	32788	32646	
1351	0	32792	32724	
1352	0	32748	32863	
1353	0	32820	32788	
1354	0	32764	32711	
1355	0	32832	32764	
1356	0	32856	32868	
1357	0	32806	32724	
1358	0	32768	32622	
1359	0	32800	32775	
1360	0	32845	32758	
1361	0	32846	32804	
1362	0	32812	32734	
1363	0	32798	32860	
1364	0	32880	32816	
1365	0	32808	32712	
1366	0	32852	32660	
1367	0	32846	32694	
1368	0	32834	32795	
1369	0	32800	32788	
1370	0	32821	32828	
1371	0	32824	32810	
1372	0	32788	32710	
1373	0	32796	32810	
1374	0	32872	32740	
1375	0	32756	32710	
1376	0	32804	32850	
1377	0	32816	32876	
1378	0	32824	32804	
1379	0	32796	32622	
1380	0	32816	32724	
1381	0	32832	32858	
1382	0	32868	32750	
1383	0	32820	32756	
1384	0	32808	32894	
1385	0	32792	32766	
1386	0	32844	32636	
1387	0	32792	32775	
1388	0	32832	32744	
1389	0	32804	32850	
1390	0	32834	32806	
1391	0	32802	32806	
1392	0	32796	32664	
1393	0	32830	32748	
1394	0	32786	32732	
1395	0	32790	32742	
1396	0	32764	32704	
1397	0	32836	32736	
1398	0	32754	32708	
1399	0	32772	32647	
1400	0	32810	32718	
1401	0	32868	32844	
1402	0	32816	32812	
1403	0	32834	32732	
1404	0	32812	32794	
1405	0	32812	32838	
1406	0	32788	32692	
1407	0	32808	32740	
1408	0	32822	32729	
1409	0	32780	32748	
1410	0	32796	32834	
1411	0	32758	32763	
1412	0	32740	32796	
1413	0	32784	32846	
1414	0	32842	32798	
1415	0	32874	32700	
1416	0	32804	32702	
1417	0	32800	32701	
1418	0	32756	32775	
1419	0	32784	32844	
1420	0	32852	32798	
1421	0	32820	32807	
1422	0	32812	32790	
1423	0	32828	32806	
1424	0	32816	32852	
1425	0	32804	32764	
1426	0	32784	32692	
1427	0	32844	32655	
1428	0	32894	32676	
1429	0	32816	32820	
1430	0	32813	32824	
1431	0	32832	32720	
1432	0	32782	32720	
1433	0	32828	32836	
1434	0	32804	32785	
1435	0	32794	32738	
1436	0	32832	32746	
1437	0	32842	32876	
1438	0	32780	32820	
1439	0	32720	32730	
1440	0	32824	32849	
1441	0	32796	32656	
1442	0	32812	32731	
1443	0	32836	32767	
1444	0	32828	32789	
1445	0	32864	32785	
1446	0	32774	32807	
1447	0	32812	32664	
1448	0	32800	32678	
1449	0	32864	32665	
1450	0	32796	32762	
1451	0	32832	32820	
1452	0	32828	32762	
1453	0	32848	32760	
1454	0	32784	32842	
1455	0	32836	32775	
1456	0	32868	32708	
1457	0	32804	32710	
1458	0	32832	32775	
1459	0	32734	32788	
1460	0	32816	32824	
1461	0	32868	32858	
1462	0	32768	32679	
1463	0	32792	32650	
1464	0	32870	32647	
1465	0	32856	32695	
1466	0	32824	32750	
1467	0	32864	32820	
1468	0	32824	32722	
1469	0	32842	32854	
1470	0	32800	32814	
1471	0	32880	32696	
1472	0	32788	32700	
1473	0	32792	32828	
1474	0	32836	32810	
1475	0	32860	32739	
1476	0	32817	32764	
1477	0	32732	32810	
1478	0	32804	32730	
1479	0	32820	32764	
1480	0	32780	32753	
1481	0	32818	32828	
1482	0	32876	32774	
1483	0	32844	32760	
1484	0	32830	32798	
1485	0	32888	32846	
1486	0	32804	32786	
1487	0	32864	32762	
1488	0	32816	32780	
1489	0	32796	32775	
1490	0	32760	32848	
1491	0	32796	32752	
1492	0	32800	32771	
1493	0	32790	32762	
1494	0	32756	32620	
1495	0	32804	32748	
1496	0	32818	32736	
1497	0	32744	32839	
1498	0	32720	32714	
1499	0	32816	32775	
1500	0	32824	32710	
1501	0	32776	32852	
1502	0	32792	32820	
1503	0	32858	32722	
1504	0	32800	32646	
1505	0	32820	32712	
1506	0	32768	32660	
1507	0	32784	32718	
1508	0	32832	32828	
1509	0	32804	32804	
1510	0	32788	32820	
1511	0	32832	32846	
1512	0	32884	32807	
1513	0	32764	32772	
1514	0	32796	32808	
1515	0	32782	32684	
1516	0	32800	32626	
1517	0	32812	32743	
1518	0	32761	32775	
1519	0	32784	32814	
1520	0	32770	32775	
1521	0	32812	32830	
1522	0	32736	32742	
1523	0	32770	32768	
1524	0	32868	32800	
1525	0	32828	32798	
1526	0	32824	32746	
1527	0	32798	32679	
1528	0	32833	32736	
1529	0	32716	32688	
1530	0	32838	32828	
1531	0	32802	32769	
1532	0	32840	32710	
1533	0	32832	32832	
1534	0	32798	32760	
1535	0	32820	32688	
1536	0	32822	32727	
1537	0	32860	32823	
1538	0	32804	32836	
1539	0	32768	32789	
1540	0	32796	32774	
1541	0	32744	32834	
1542	0	32844	32718	
1543	0	32828	32768	
1544	0	32868	32775	
1545	0	32828	32812	
1546	0	32788	32889	
1547	0	32788	32700	
1548	0	32736	32769	
1549	0	32904	32836	
1550	0	32856	32742	
1551	0	32810	32684	
1552	0	32768	32850	
1553	0	32784	32734	
1554	0	32900	32694	
1555	0	32804	32700	
1556	0	32852	32769	
1557	0	32732	32854	
1558	0	32824	32704	
1559	0	32836	32734	
1560	0	32874	32702	
1561	0	32808	32791	
1562	0	32832	32788	
1563	0	32880	32736	
1564	0	32828	32654	
1565	0	32814	32666	
1566	0	32772	32682	
1567	0	32778	32814	
1568	0	32826	32804	
1569	0	32846	32720	
1570	0	32880	32679	
1571	0	32818	32888	
1572	0	32816	32770	
1573	0	32816	32686	
1574	0	32828	32652	
1575	0	32800	32854	
1576	0	32784	32857	
1577	0	32772	32802	
1578	0	32808	32728	
1579	0	32860	32782	
1580	0	32834	32752	
1581	0	32901	32800	
1582	0	32804	32770	
1583	0	32784	32816	
1584	0	32824	32810	
1585	0	32792	32775	
1586	0	32748	32790	
1587	0	32784	32775	
1588	0	32778	32794	
1589	0	32830	32664	
1590	0	32808	32600	
1591	0	32808	32682	
1592	0	32814	32758	
1593	0	32784	32750	
1594	0	32792	32738	
1595	0	32762	32740	
1596	0	32862	32752	
1597	0	32806	32736	
1598	0	32856	32796	
1599	0	32860	32796	
1600	0	32806	32772	
1601	0	32820	32775	
1602	0	32798	32743	
1603	0	32856	32775	
1604	0	32794	32871	
1605	0	32836	32815	
1606	0	32824	32871	
1607	0	32788	32766	
1608	0	32784	32814	
1609	0	32810	32822	
1610	0	32816	32743	
1611	0	32828	32832	
1612	0	32796	32764	
1613	0	32834	32806	
1614	0	32840	32752	
1615	0	32838	32788	
1616	0	32796	32668	
1617	0	32802	32764	
1618	0	32876	32756	
1619	0	32748	32708	
1620	0	32778	32750	
1621	0	32762	32775	
1622	0	32828	32847	
1623	0	32818	32804	
1624	0	32878	32760	
1625	0	32818	32658	
1626	0	32868	32692	
1627	0	32888	32673	
1628	0	32828	32761	
1629	0	32834	32796	
1630	0	32802	32848	
1631	0	32852	32694	
1632	0	32736	32788	
1633	0	32801	32798	
1634	0	32812	32830	
1635	0	32820	32705	
1636	0	32836	32774	
1637	0	32728	32772	
1638	0	32832	32834	
1639	0	32804	32752	
1640	0	32846	32746	
1641	0	32812	32705	
1642	0	32800	32708	
1643	0	32808	32711	
1644	0	32844	32710	
1645	0	32877	32744	
1646	0	32810	32728	
1647	0	32824	32684	
1648	0	32832	32719	
1649	0	32794	32734	
1650	0	32788	32854	
1651	0	32836	32726	
1652	0	32800	32802	
1653	0	32800	32796	
1654	0	32818	32833	
1655	0	32842	32804	
1656	0	32836	32710	
1657	0	32804	32772	
1658	0	32792	32764	
1659	0	32840	32722	
1660	0	32852	32743	
1661	0	32800	32775	
1662	0	32860	32798	
1663	0	32760	32792	
1664	0	32770	32812	
1665	0	32784	32727	
1666	0	32810	32712	
1667	0	32780	32708	
1668	0	32844	32684	
1669	0	32872	32676	
1670	0	32792	32758	
1671	0	32752	32708	
1672	0	32808	32732	
1673	0	32696	32702	
1674	0	32796	32884	
1675	0	32868	32887	
1676	0	32778	32848	
1677	0	32796	32796	
1678	0	32824	32775	
1679	0	32770	32706	
1680	0	32812	32756	
1681	0	32768	32846	
1682	0	32884	32820	
1683	0	32856	32836	
1684	0	32782	32759	
1685	0	32848	32807	
1686	0	32788	32767	
1687	0	32852	32732	
1688	0	32880	32752	
1689	0	32850	32720	
1690	0	32804	32772	
1691	0	32804	32838	
1692	0	32800	32756	
1693	0	32812	32788	
1694	0	32842	32804	
1695	0	32798	32807	
1696	0	32814	32766	
1697	0	32808	32812	
1698	0	32823	32766	
1699	0	32800	32858	
1700	0	32828	32783	
1701	0	32824	32832	
1702	0	32790	32818	
1703	0	32804	32828	
1704	0	32828	32734	
1705	0	32784	32838	
1706	0	32790	32748	
1707	0	32804	32738	
1708	0	32802	32774	
1709	0	32892	32758	
1710	0	32836	32647	
1711	0	32804	32696	
1712	0	32822	32678	
1713	0	32794	32751	
1714	0	32796	32743	
1715	0	32860	32703	
1716	0	32860	32668	
1717	0	32752	32756	
1718	0	32784	32775	
1719	0	32774	32743	
1720	0	32796	32724	
1721	0	32738	32804	
1722	0	32836	32784	
1723	0	32762	32826	
1724	0	32842	32822	
1725	0	32856	32860	
1726	0	32788	32864	
1727	0	32828	32826	
1728	0	32768	32838	
1729	0	32853	32828	
1730	0	32720	32720	
1731	0	32828	32792	
1732	0	32792	32838	
1733	0	32840	32828	
1734	0	32780	32804	
1735	0	32858	32670	
1736	0	32816	32743	
1737	0	32792	32762	
1738	0	32824	32720	
1739	0	32832	32748	
1740	0	32836	32668	
1741	0	32710	32694	
1742	0	32834	32684	
1743	0	32802	32703	
1744	0	32836	32656	
1745	0	32816	32711	
1746	0	32832	32684	
1747	0	32832	32578	
1748	0	32804	32720	
1749	0	32814	32711	
1750	0	32800	32660	
1751	0	32752	32706	
1752	0	32792	32818	
1753	0	32814	32743	
1754	0	32822	32665	
1755	0	32748	32678	
1756	0	32806	32722	
1757	0	32801	32746	
1758	0	32848	32668	
1759	0	32808	32730	
1760	0	32700	32720	
1761	0	32856	32721	
1762	0	32849	32806	
1763	0	32796	32768	
1764	0	32812	32806	
1765	0	32902	32812	
1766	0	32838	32764	
1767	0	32774	32775	
1768	0	32816	32764	
1769	0	32772	32750	
1770	0	32770	32736	
1771	0	32832	32757	
1772	0	32794	32732	
1773	0	32782	32816	
1774	0	32852	32775	
1775	0	32826	32663	
1776	0	32824	32700	
1777	0	32752	32828	
1778	0	32848	32743	
1779	0	32812	32708	
1780	0	32792	32684	
1781	0	32878	32852	
1782	0	32852	32860	
1783	0	32804	32690	
1784	0	32870	32724	
1785	0	32880	32854	
1786	0	32860	32775	
1787	0	32864	32704	
1788	0	32806	32743	
1789	0	32770	32692	
1790	0	32760	32694	
1791	0	32828	32757	
1792	0	32846	32768	
1793	0	32728	32852	
1794	0	32850	32865	
1795	0	32736	32818	
1796	0	32814	32796	
1797	0	32808	32746	
1798	0	32812	32798	
1799	0	32828	32775	
1800	0	32866	32798	
1801	0	32830	32820	
1802	0	32916	32838	
1803	0	32760	32804	
1804	0	32824	32718	
1805	0	32800	32708	
1806	0	32818	32708	
1807	0	32802	32666	
1808	0	32816	32620	
1809	0	32784	32730	
1810	0	32764	32714	
1811	0	32820	32775	
1812	0	32820	32736	
1813	0	32832	32760	
1814	0	32830	32788	
1815	0	32788	32838	
1816	0	32794	32796	
1817	0	32760	32688	
1818	0	32712	32809	
1819	0	32796	32768	
1820	0	32828	32679	
1821	0	32809	32712	
1822	0	32832	32686	
1823	0	32808	32734	
1824	0	32836	32718	
1825	0	32882	32771	
1826	0	32826	32870	
1827	0	32836	32822	
1828	0	32864	32774	
1829	0	32824	32758	
1830	0	32788	32811	
1831	0	32872	32808	
1832	0	32828	32757	
1833	0	32856	32800	
1834	0	32780	32689	
1835	0	32816	32740	
1836	0	32842	32742	
1837	0	32778	32830	
1838	0	32778	32840	
1839	0	32791	32816	
1840	0	32834	32726	
1841	0	32812	32766	
1842	0	32888	32704	
1843	0	32872	32820	
1844	0	32832	32736	
1845	0	32822	32744	
1846	0	32798	32748	
1847	0	32828	32772	
1848	0	32804	32746	
1849	0	32821	32799	
1850	0	32814	32775	
1851	0	32824	32828	
1852	0	32766	32726	
1853	0	32764	32768	
1854	0	32780	32764	
1855	0	32782	32775	
1856	0	32810	32828	
1857	0	32842	32814	
1858	0	32798	32750	
1859	0	32762	32718	
1860	0	32790	32736	
1861	0	32782	32628	
1862	0	32814	32694	
1863	0	32798	32700	
1864	0	32830	32763	
1865	0	32848	32690	
1866	0	32814	32730	
1867	0	32846	32740	
1868	0	32824	32807	
1869	0	32812	32790	
1870	0	32852	32788	
1871	0	32800	32804	
1872	0	32846	32769	
1873	0	32789	32852	
1874	0	32862	32800	
1875	0	32786	32802	
1876	0	32792	32802	
1877	0	32848	32808	
1878	0	32856	32810	
1879	0	32726	32839	
1880	0	32766	32692	
1881	0	32840	32694	
1882	0	32816	32660	
1883	0	32835	32855	
1884	0	32824	32798	
1885	0	32762	32775	
1886	0	32784	32802	
1887	0	32788	32799	
1888	0	32792	32766	
1889	0	32808	32806	
1890	0	32810	32802	
1891	0	32776	32810	
1892	0	32880	32774	
1893	0	32870	32715	
1894	0	32844	32695	
1895	0	32858	32764	
1896	0	32836	32871	
1897	0	32796	32694	
1898	0	32808	32668	
1899	0	32792	32790	
1900	0	32846	32746	
1901	0	32792	32788	
1902	0	32798	32700	
1903	0	32808	32820	
1904	0	32864	32730	
1905	0	32792	32828	
1906	0	32824	32810	
1907	0	32778	32841	
1908	0	32824	32852	
1909	0	32820	32775	
1910	0	32810	32798	
1911	0	32800	32710	
1912	0	32768	32696	
1913	0	32800	32706	
1914	0	32802	32640	
1915	0	32784	32762	
1916	0	32828	32788	
1917	0	32804	32826	
1918	0	32836	32794	
1919	0	32794	32847	
1920	0	32788	32860	
1921	0	32746	32822	
1922	0	32832	32794	
1923	0	32772	32798	
1924	0	32804	32824	
1925	0	32820	32864	
1926	0	32764	32774	
1927	0	32860	32788	
1928	0	32792	32803	
1929	0	32784	32798	
1930	0	32826	32754	
1931	0	32884	32762	
1932	0	32764	32814	
1933	0	32802	32810	
1934	0	32736	32832	
1935	0	32828	32671	
1936	0	32822	32704	
1937	0	32812	32708	
1938	0	32796	32884	
1939	0	32888	32796	
1940	0	32828	32775	
1941	0	32832	32750	
1942	0	32832	32811	
1943	0	32814	32849	
1944	0	32822	32774	
1945	0	32824	32752	
1946	0	32850	32784	
1947	0	32792	32695	
1948	0	32786	32775	
1949	0	32870	32802	
1950	0	32756	32846	
1951	0	32782	32750	
1952	0	32822	32772	
1953	0	32798	32810	
1954	0	32768	32839	
1955	0	32820	32678	
1956	0	32816	32718	
1957	0	32840	32697	
1958	0	32816	32790	
1959	0	32884	32788	
1960	0	32780	32862	
1961	0	32804	32706	
1962	0	32856	32775	
1963	0	32780	32760	
1964	0	32812	32914	
1965	0	32860	32856	
1966	0	32808	32798	
1967	0	32846	32756	
1968	0	32804	32742	
1969	0	32820	32724	
1970	0	32805	32670	
1971	0	32794	32670	
1972	0	32800	32706	
1973	0	32828	32732	
1974	0	32792	32758	
1975	0	32828	32802	
1976	0	32848	32774	
1977	0	32874	32764	
1978	0	32716	32743	
1979	0	32775	32808	
1980	0	32790	32708	
1981	0	32808	32820	
1982	0	32820	32808	
1983	0	32868	32774	
1984	0	32876	32747	
1985	0	32838	32826	
1986	0	32884	32799	
1987	0	32860	32665	
1988	0	32826	32679	
1989	0	32908	32720	
1990	0	32852	32692	
1991	0	32768	32702	
1992	0	32794	32734	
1993	0	32706	32746	
1994	0	32806	32844	
1995	0	32800	32740	
1996	0	32840	32830	
1997	0	32750	32745	
1998	0	32778	32808	
1999	0	32804	32822	
2000	0	32780	32796	
2001	0	32846	32820	
2002	0	32844	32693	
2003	0	32822	32756	
2004	0	32812	32816	
2005	0	32836	32790	
2006	0	32816	32752	
2007	0	32810	32874	
2008	0	32780	32786	
2009	0	32724	32734	
2010	0	32840	32726	
2011	0	32848	32764	
2012	0	32814	32775	
2013	0	32774	32775	
2014	0	32842	32826	
2015	0	32832	32812	
2016	0	32772	32762	
2017	0	32762	32704	
2018	0	32832	32724	
2019	0	32838	32818	
2020	0	32736	32698	
2021	0	32790	32814	
2022	0	32738	32719	
2023	0	32784	32812	
2024	0	32775	32798	
2025	0	32796	32704	
2026	0	32790	32752	
2027	0	32804	32871	
2028	0	32772	32738	
2029	0	32842	32785	
2030	0	32786	32774	
2031	0	32908	32808	
2032	0	32858	32740	
2033	0	32921	32710	
2034	0	32876	32623	
2035	0	32936	32612	
2036	0	32888	32672	
2037	0	32866	32588	
2038	0	32940	32593	
2039	0	32904	32615	
2040	0	32986	32652	
2041	0	33034	32622	
2042	0	32896	32647	
2043	0	32904	32660	
2044	0	32836	32647	
2045	0	32890	32708	
2046	0	32900	32758	
2047	0	32928	32802	
2048	0	32878	32676	
2049	0	32900	32720	
2050	0	32880	32658	
2051	0	32772	32725	
2052	0	32736	32910	
2053	0	32600	32996	
2054	0	32656	32922	
2055	0	32632	33026	
2056	0	32600	33038	
2057	0	32464	32956	
2058	0	32516	33086	
2059	0	32408	33078	
2060	0	32424	33220	
2061	0	32516	33158	
2062	0	32536	33062	
2063	0	32604	33028	
2064	0	32616	32903	
2065	0	32740	32774	
2066	0	32704	32715	
2067	0	32724	32967	
2068	0	32809	32730	
2069	0	32852	32754	
2070	0	32888	32652	
2071	0	32940	32534	
2072	0	32912	32568	
2073	0	32876	32591	
2074	0	32916	32655	
2075	0	32948	32650	
2076	0	32922	32583	
2077	0	32948	32560	
2078	0	32960	32572	
2079	0	32876	32762	
2080	0	32968	32684	
2081	0	32918	32743	
2082	0	32876	32723	
2083	0	32856	32726	
2084	0	32892	32652	
2085	0	32924	32814	
2086	0	32900	32752	
2087	0	32840	32646	
2088	0	32760	32775	
2089	0	32816	32775	
2090	0	32814	32696	
2091	0	32764	32722	
2092	0	32780	32732	
2093	0	32768	32737	
2094	0	32796	32740	
2095	0	32836	32736	
2096	0	32792	32746	
2097	0	32776	32844	
2098	0	32788	32839	
2099	0	32846	32815	
2100	0	32804	32775	
2101	0	32836	32631	
2102	0	32840	32730	
2103	0	32828	32876	
2104	0	32792	32822	
2105	0	32804	32832	
2106	0	32792	32858	
2107	0	32788	32818	
2108	0	32780	32775	
2109	0	32860	32786	
2110	0	32834	32784	
2111	0	32862	32804	
2112	0	32818	32752	
2113	0	32764	32748	
2114	0	32848	32770	
2115	0	32764	32824	
2116	0	32768	32708	
2117	0	32817	32736	
2118	0	32802	32750	
2119	0	32828	32775	
2120	0	32830	32720	
2121	0	32856	32819	
2122	0	32810	32767	
2123	0	32828	32676	
2124	0	32828	32786	
2125	0	32782	32808	
2126	0	32830	32792	
2127	0	32776	32810	
2128	0	32784	32628	
2129	0	32816	32662	
2130	0	32760	32699	
2131	0	32772	32748	
2132	0	32860	32830	
2133	0	32762	32745	
2134	0	32808	32794	
2135	0	32824	32768	
2136	0	32878	32743	
2137	0	32856	32706	
2138	0	32810	32660	
2139	0	32804	32658	
2140	0	32788	32837	
2141	0	32840	32775	
2142	0	32824	32736	
2143	0	32830	32775	
2144	0	32800	32828	
2145	0	32780	32735	
2146	0	32830	32711	
2147	0	32812	32775	
2148	0	32816	32858	
2149	0	32852	32724	
2150	0	32752	32788	
2151	0	32784	32804	
2152	0	32826	32748	
2153	0	32836	32707	
2154	0	32810	32750	
2155	0	32816	32830	
2156	0	32772	32762	
2157	0	32856	32764	
2158	0	32754	32692	
2159	0	32772	32678	
2160	0	32756	32680	
2161	0	32796	32806	
2162	0	32756	32788	
2163	0	32824	32796	
2164	0	32778	32823	
2165	0	32800	32812	
2166	0	32812	32704	
2167	0	32826	32734	
2168	0	32804	32814	
2169	0	32808	32692	
2170	0	32828	32750	
2171	0	32848	32822	
2172	0	32836	32815	
2173	0	32840	32760	
2174	0	32774	32710	
2175	0	32778	32666	
2176	0	32748	32775	
2177	0	32792	32812	
2178	0	32852	32816	
2179	0	32896	32832	
2180	0	32832	32775	
2181	0	32768	32900	
2182	0	32820	32682	
2183	0	32852	32740	
2184	0	32808	32760	
2185	0	32812	32678	
2186	0	32868	32791	
2187	0	32870	32688	
2188	0	32856	32716	
2189	0	32822	32790	
2190	0	32724	32740	
2191	0	32772	32775	
2192	0	32762	32702	
2193	0	32768	32666	
2194	0	32796	32788	
2195	0	32788	32775	
2196	0	32836	32750	
2197	0	32826	32802	
2198	0	32808	32718	
2199	0	32868	32714	
2200	0	32828	32764	
2201	0	32812	32743	
2202	0	32826	32876	
2203	0	32796	32742	
2204	0	32778	32716	
2205	0	32796	32678	
2206	0	32810	32860	
2207	0	32808	32774	
2208	0	32820	32794	
2209	0	32842	32790	
2210	0	32816	32775	
2211	0	32744	32702	
2212	0	32828	32690	
2213	0	32832	32758	
2214	0	32724	32716	
2215	0	32800	32730	
2216	0	32836	32767	
2217	0	32808	32820	
2218	0	32836	32788	
2219	0	32808	32720	
2220	0	32828	32856	
2221	0	32800	32696	
2222	0	32812	32626	
2223	0	32824	32684	
2224	0	32832	32810	
2225	0	32810	32756	
2226	0	32888	32700	
2227	0	32854	32796	
2228	0	32784	32727	
2229	0	32838	32814	
2230	0	32834	32754	
2231	0	32812	32720	
2232	0	32872	32679	
2233	0	32792	32708	
2234	0	32812	32770	
2235	0	32840	32747	
2236	0	32906	32748	
2237	0	32788	32822	
2238	0	32798	32830	
2239	0	32760	32695	
2240	0	32790	32726	
2241	0	32798	32818	
2242	0	32836	32844	
2243	0	32818	32808	
2244	0	32932	32871	
2245	0	32775	32740	
2246	0	32832	32822	
2247	0	32864	32772	
2248	0	32810	32770	
2249	0	32744	32798	
2250	0	32837	32808	
2251	0	32828	32730	
2252	0	32822	32676	
2253	0	32728	32738	
2254	0	32838	32758	
2255	0	32812	32786	
2256	0	32828	32738	
2257	0	32788	32786	
2258	0	32822	32775	
2259	0	32804	32791	
2260	0	32860	32652	
2261	0	32896	32696	
2262	0	32804	32752	
2263	0	32840	32702	
2264	0	32844	32820	
2265	0	32802	32794	
2266	0	32804	32719	
2267	0	32842	32884	
2268	0	32840	32884	
2269	0	32840	32734	
2270	0	32828	32743	
2271	0	32792	32750	
2272	0	32800	32700	
2273	0	32776	32836	
2274	0	32832	32812	
2275	0	32744	32797	
2276	0	32776	32790	
2277	0	32775	32736	
2278	0	32712	32814	
2279	0	32840	32772	
2280	0	32764	32661	
2281	0	32830	32676	
2282	0	32802	32732	
2283	0	32840	32775	
2284	0	32834	32835	
2285	0	32840	32775	
2286	0	32876	32846	
2287	0	32816	32842	
2288	0	32782	32748	
2289	0	32748	32743	
2290	0	32772	32846	
2291	0	32802	32768	
2292	0	32756	32722	
2293	0	32788	32679	
2294	0	32742	32711	
2295	0	32804	32839	
2296	0	32760	32722	
2297	0	32760	32796	
2298	0	32770	32822	
2299	0	32782	32775	
2300	0	32808	32794	
2301	0	32816	32818	
2302	0	32838	32775	
2303	0	32794	32902	
2304	0	32768	32732	
2305	0	32808	32690	
2306	0	32784	32750	
2307	0	32820	32711	
2308	0	32804	32807	
2309	0	32812	32876	
2310	0	32824	32796	
2311	0	32766	32775	
2312	0	32768	32790	
2313	0	32788	32815	
2314	0	32812	32726	
2315	0	32804	32710	
2316	0	32812	32844	
2317	0	32810	32848	
2318	0	32806	32742	
2319	0	32768	32636	
2320	0	32802	32687	
2321	0	32740	32624	
2322	0	32807	32834	
2323	0	32774	32786	
2324	0	32792	32821	
2325	0	32814	32807	
2326	0	32814	32764	
2327	0	32764	32834	
2328	0	32844	32736	
2329	0	32842	32844	
2330	0	32812	32820	
2331	0	32848	32615	
2332	0	32830	32796	
2333	0	32832	32903	
2334	0	32852	32810	
2335	0	32812	32716	
2336	0	32810	32858	
2337	0	32852	32732	
2338	0	32812	32752	
2339	0	32852	32792	
2340	0	32812	32850	
2341	0	32820	32775	
2342	0	32740	32798	
2343	0	32768	32729	
2344	0	32840	32758	
2345	0	32852	32820	
2346	0	32842	32762	
2347	0	32844	32792	
2348	0	32846	32751	
2349	0	32836	32736	
2350	0	32812	32852	
2351	0	32772	32820	
2352	0	32842	32755	
2353	0	32792	32740	
2354	0	32794	32860	
2355	0	32700	32775	
2356	0	32766	32718	
2357	0	32828	32711	
2358	0	32848	32746	
2359	0	32888	32690	
2360	0	32821	32736	
2361	0	32782	32775	
2362	0	32854	32770	
2363	0	32760	32756	
2364	0	32800	32846	
2365	0	32820	32656	
2366	0	32812	32720	
2367	0	32804	32814	
2368	0	32796	32775	
2369	0	32800	32775	
2370	0	32776	32825	
2371	0	32876	32784	
2372	0	32812	32775	
2373	0	32788	32753	
2374	0	32788	32672	
2375	0	32856	32866	
2376	0	32872	32746	
2377	0	32850	32821	
2378	0	32794	32811	
2379	0	32808	32787	
2380	0	32812	32736	
2381	0	32806	32674	
2382	0	32796	32682	
2383	0	32870	32618	
2384	0	32860	32666	
2385	0	32804	32772	
2386	0	32832	32635	
2387	0	32830	32741	
2388	0	32814	32798	
2389	0	32838	32862	
2390	0	32772	32694	
2391	0	32752	32714	
2392	0	32798	32762	
2393	0	32760	32798	
2394	0	32816	32775	
2395	0	32868	32756	
2396	0	32884	32759	
2397	0	32854	32748	
2398	0	32792	32675	
2399	0	32736	32708	
2400	0	32816	32823	
2401	0	32820	32832	
2402	0	32768	32740	
2403	0	32798	32826	
2404	0	32818	32767	
2405	0	32820	32704	
2406	0	32750	32719	
2407	0	32806	32756	
2408	0	32860	32711	
2409	0	32876	32772	
2410	0	32874	32743	
2411	0	32868	32802	
2412	0	32836	32758	
2413	0	32816	32711	
2414	0	32832	32700	
2415	0	32846	32796	
2416	0	32816	32762	
2417	0	32796	32800	
2418	0	32796	32775	
2419	0	32764	32678	
2420	0	32836	32756	
2421	0	32840	32820	
2422	0	32776	32774	
2423	0	32740	32754	
2424	0	32756	32911	
2425	0	32820	32686	
2426	0	32836	32728	
2427	0	32836	32740	
2428	0	32882	32768	
2429	0	32888	32900	
2430	0	32778	32716	
2431	0	32806	32734	
2432	0	32768	32775	
2433	0	32844	32868	
2434	0	32822	32759	
2435	0	32796	32694	
2436	0	32820	32854	
2437	0	32800	32770	
2438	0	32820	32750	
2439	0	32788	32816	
2440	0	32810	32743	
2441	0	32720	32847	
2442	0	32796	32820	
2443	0	32842	32736	
2444	0	32850	32692	
2445	0	32864	32719	
2446	0	32820	32736	
2447	0	32816	32732	
2448	0	32782	32840	
2449	0	32820	32800	
2450	0	32768	32815	
2451	0	32776	32764	
2452	0	32780	32836	
2453	0	32776	32854	
2454	0	32828	32730	
2455	0	32864	32848	
2456	0	32806	32688	
2457	0	32760	32679	
2458	0	32798	32750	
2459	0	32796	32775	
2460	0	32780	32766	
2461	0	32852	32764	
2462	0	32840	32762	
2463	0	32848	32832	
2464	0	32853	32798	
2465	0	32824	32700	
2466	0	32846	32696	
2467	0	32812	32718	
2468	0	32848	32775	
2469	0	32780	32846	
2470	0	32718	32721	
2471	0	32756	32734	
2472	0	32804	32762	
2473	0	32808	32836	
2474	0	32796	32832	
2475	0	32884	32664	
2476	0	32788	32742	
2477	0	32798	32748	
2478	0	32784	32775	
2479	0	32784	32865	
2480	0	32812	32775	
2481	0	32784	32820	
2482	0	32808	32790	
2483	0	32820	32661	
2484	0	32792	32716	
2485	0	32852	32752	
2486	0	32820	32792	
2487	0	32776	32775	
2488	0	32836	32826	
2489	0	32800	32740	
2490	0	32832	32662	
2491	0	32836	32682	
2492	0	32832	32820	
2493	0	32766	32788	
2494	0	32802	32775	
2495	0	32760	32775	
2496	0	32760	32838	
2497	0	32796	32743	
2498	0	32764	32711	
2499	0	32854	32771	
2500	0	32817	32759	
2501	0	32736	32800	
2502	0	32836	32743	
2503	0	32796	32836	
2504	0	32756	32737	
2505	0	32866	32708	
2506	0	32792	32792	
2507	0	32844	32807	
2508	0	32784	32748	
2509	0	32848	32726	
2510	0	32866	32664	
2511	0	32844	32839	
2512	0	32820	32775	
2513	0	32842	32746	
2514	0	32802	32775	
2515	0	32815	32794	
2516	0	32720	32806	
2517	0	32832	32738	
2518	0	32900	32704	
2519	0	32780	32726	
2520	0	32794	32722	
2521	0	32772	32831	
2522	0	32834	32775	
2523	0	32806	32738	
2524	0	32748	32775	
2525	0	32840	32768	
2526	0	32810	32672	
2527	0	32804	32818	
2528	0	32788	32847	
2529	0	32804	32799	
2530	0	32764	32816	
2531	0	32840	32807	
2532	0	32724	32775	
2533	0	32824	32743	
2534	0	32836	32748	
2535	0	32876	32708	
2536	0	32822	32656	
2537	0	32784	32710	
2538	0	32792	32710	
2539	0	32804	32762	
2540	0	32760	32834	
2541	0	32774	32756	
2542	0	32846	32724	
2543	0	32865	32718	
2544	0	32799	32698	
2545	0	32808	32727	
2546	0	32816	32692	
2547	0	32848	32752	
2548	0	32820	32793	
2549	0	32820	32910	
2550	0	32808	32830	
2551	0	32830	32760	
2552	0	32760	32756	
2553	0	32800	32746	
2554	0	32808	32730	
2555	0	32780	32707	
2556	0	32844	32742	
2557	0	32828	32806	
2558	0	32796	32756	
2559	0	32780	32775	
2560	0	32853	32684	
2561	0	32801	32702	
2562	0	32780	32814	
2563	0	32836	32844	
2564	0	32798	32808	
2565	0	32832	32720	
2566	0	32798	32775	
2567	0	32756	32749	
2568	0	32834	32822	
2569	0	32848	32761	
2570	0	32776	32785	
2571	0	32824	32822	
2572	0	32820	32862	
2573	0	32808	32698	
2574	0	32775	32750	
2575	0	32744	32822	
2576	0	32824	32743	
2577	0	32842	32746	
2578	0	32796	32832	
2579	0	32832	32842	
2580	0	32822	32751	
2581	0	32804	32624	
2582	0	32822	32775	
2583	0	32834	32662	
2584	0	32778	32886	
2585	0	32768	32798	
2586	0	32748	32788	
2587	0	32774	32674	
2588	0	32884	32791	
2589	0	32836	32802	
2590	0	32765	32702	
2591	0	32796	32686	
2592	0	32848	32650	
2593	0	32778	32856	
2594	0	32830	32710	
2595	0	32778	32788	
2596	0	32906	32756	
2597	0	32786	32884	
2598	0	32808	32897	
2599	0	32818	32775	
2600	0	32862	32710	
2601	0	32788	32724	
2602	0	32796	32828	
2603	0	32800	32848	
2604	0	32836	32826	
2605	0	32804	32790	
2606	0	32826	32751	
2607	0	32832	32828	
2608	0	32838	32804	
2609	0	32860	32756	
2610	0	32740	32656	
2611	0	32820	32710	
2612	0	32896	32743	
2613	0	32868	32742	
2614	0	32830	32686	
2615	0	32804	32791	
2616	0	32824	32920	
2617	0	32738	32744	
2618	0	32898	32754	
2619	0	32804	32656	
2620	0	32880	32687	
2621	0	32906	32926	
2622	0	32900	32798	
2623	0	32788	32752	
2624	0	32796	32722	
2625	0	32806	32794	
2626	0	32780	32814	
2627	0	32840	32798	
2628	0	32802	32764	
2629	0	32696	32848	
2630	0	32756	32800	
2631	0	32772	32775	
2632	0	32704	32790	
2633	0	32728	32720	
2634	0	32812	32774	
2635	0	32826	32716	
2636	0	32744	32730	
2637	0	32792	32802	
2638	0	32784	32794	
2639	0	32816	32690	
2640	0	32762	32714	
2641	0	32852	32704	
2642	0	32873	32729	
2643	0	32838	32740	
2644	0	32842	32758	
2645	0	32812	32775	
2646	0	32868	32792	
2647	0	32820	32723	
2648	0	32790	32820	
2649	0	32830	32772	
2650	0	32798	32750	
2651	0	32904	32754	
2652	0	32860	32689	
2653	0	32856	32800	
2654	0	32820	32738	
2655	0	32928	32718	
2656	0	32849	32716	
2657	0	32848	32678	
2658	0	32788	32727	
2659	0	32781	32864	
2660	0	32836	32810	
2661	0	32844	32799	
2662	0	32770	32775	
2663	0	32836	32766	
2664	0	32822	32812	
2665	0	32816	32775	
2666	0	32856	32700	
2667	0	32868	32775	
2668	0	32824	32775	
2669	0	32768	32864	
2670	0	32772	32764	
2671	0	32768	32840	
2672	0	32812	32791	
2673	0	32836	32785	
2674	0	32800	32728	
2675	0	32796	32854	
2676	0	32832	32755	
2677	0	32788	32807	
2678	0	32760	32804	
2679	0	32796	32807	
2680	0	32804	32800	
2681	0	32828	32884	
2682	0	32788	32852	
2683	0	32836	32656	
2684	0	32808	32535	
2685	0	32800	32528	
2686	0	32746	32662	
2687	0	32756	32609	
2688	0	32768	32716	
2689	0	32738	32928	
2690	0	32748	33020	
2691	0	32774	32944	
2692	0	32830	32828	
2693	0	32816	32767	
2694	0	32828	32626	
2695	0	32888	32568	
2696	0	32876	32506	
2697	0	32918	32498	
2698	0	32866	32684	
2699	0	32846	33014	
2700	0	32774	33199	
2701	0	32804	33190	
2702	0	32880	32998	
2703	0	32844	33031	
2704	0	32812	32826	
2705	0	32791	32966	
2706	0	32764	32858	
2707	0	32880	32630	
2708	0	32746	32320	
2709	0	32696	32286	
2710	0	32832	32282	
2711	0	32820	32366	
2712	0	32689	32543	
2713	0	32762	32600	
2714	0	32848	32708	
2715	0	32997	32918	
2716	0	33028	33118	
2717	0	33044	33287	
2718	0	33116	33190	
2719	0	33128	33102	
2720	0	33062	32881	
2721	0	32896	32688	
2722	0	32718	32558	
2723	0	32592	32287	
2724	0	32472	32108	
2725	0	32448	32170	
2726	0	32304	32784	
2727	0	32490	33120	
2728	0	32664	33148	
2729	0	32706	32957	
2730	0	32794	32690	
2731	0	32968	32670	
2732	0	32970	32821	
2733	0	33060	32826	
2734	0	33018	32834	
2735	0	32944	32854	
2736	0	32832	32870	
2737	0	32772	32820	
2738	0	32596	32618	
2739	0	32696	32367	
2740	0	32612	32216	
2741	0	32740	32508	
2742	0	32728	32952	
2743	0	32856	33188	
2744	0	32830	33040	
2745	0	32728	32966	
2746	0	32720	32982	
2747	0	32856	32898	
2748	0	32860	33006	
2749	0	32934	32968	
2750	0	32844	32838	
2751	0	32972	33172	
2752	0	32918	33550	
2753	0	32820	33556	
2754	0	32828	33560	
2755	0	32860	33151	
2756	0	32824	32935	
2757	0	32692	32390	
2758	0	32742	31574	
2759	0	32820	30922	
2760	0	32876	31944	
2761	0	32960	31873	
2762	0	33008	31896	
2763	0	33012	32816	
2764	0	32961	33764	
2765	0	33312	33057	
2766	0	33404	31954	
2767	0	33440	31092	
2768	0	33226	31110	
2769	0	32812	31860	
2770	0	32412	32998	
2771	0	32202	33740	
2772	0	32208	33826	
2773	0	32058	33540	
2774	0	32030	33309	
2775	0	32360	33390	
2776	0	32344	33278	
2777	0	32516	33300	
2778	0	32708	33314	
2779	0	32840	33142	
2780	0	32884	32977	
2781	0	32876	32858	
2782	0	32840	32684	
2783	0	32948	32728	
2784	0	32800	32678	
2785	0	32804	32679	
2786	0	32954	32640	
2787	0	33128	32900	
2788	0	33036	32791	
2789	0	33028	32900	
2790	0	32870	32871	
2791	0	32791	33418	
2792	0	32734	33976	
2793	0	32738	33754	
2794	0	32932	33727	
2795	0	33012	33156	
2796	0	33060	32296	
2797	0	32928	31152	
2798	0	32972	30740	
2799	0	32832	30688	
2800	0	32760	30727	
2801	0	32881	31772	
2802	0	32714	33716	
2803	0	32588	34386	
2804	0	32524	34120	
2805	0	32642	34471	
2806	0	32576	34428	
2807	0	32936	33446	
2808	0	33344	31790	
2809	0	33324	30727	
2810	0	33416	30742	
2811	0	33572	31712	
2812	0	33424	32292	
2813	0	33428	33230	
2814	0	33400	34352	
2815	0	33514	33508	
2816	0	33444	32679	
2817	0	33244	32422	
2818	0	32896	31866	
2819	0	32528	31460	
2820	0	32068	31800	
2821	0	31618	31902	
2822	0	31656	32160	
2823	0	31334	32558	
2824	0	31380	33396	
2825	0	31640	33735	
2826	0	32106	33150	
2827	0	32640	32676	
2828	0	33072	32399	
2829	0	33377	32788	
2830	0	33340	33578	
2831	0	33158	34154	
2832	0	33052	34636	
2833	0	32998	34356	
2834	0	33052	34218	
2835	0	32977	33778	
2836	0	32856	32606	
2837	0	32706	31256	
2838	0	32636	30886	
2839	0	32519	31212	
2840	0	32480	32902	
2841	0	32494	34532	
2842	0	32604	34472	
2843	0	32652	33282	
2844	0	33000	31492	
2845	0	33060	31650	
2846	0	33028	31980	
2847	0	33032	31823	
2848	0	32900	32216	
2849	0	32856	32625	
2850	0	32828	32847	
2851	0	32872	32158	
2852	0	32616	33102	
2853	0	32502	34096	
2854	0	32408	33562	
2855	0	32636	32246	
2856	0	32748	32734	
2857	0	32946	32007	
2858	0	33094	31438	
2859	0	33140	32334	
2860	0	33108	34150	
2861	0	33004	34268	
2862	0	32992	33822	
2863	0	32992	33799	
2864	0	33156	33138	
2865	0	33264	32320	
2866	0	33144	31272	
2867	0	32924	31198	
2868	0	32716	31783	
2869	0	32554	32624	
2870	0	32472	33692	
2871	0	32428	33904	
2872	0	32680	34278	
2873	0	32644	33936	
2874	0	32770	32656	
2875	0	32968	31222	
2876	0	33060	31508	
2877	0	33046	31876	
2878	0	33008	31488	
2879	0	32932	32298	
2880	0	32720	33142	
2881	0	32484	33056	
2882	0	32390	33240	
2883	0	32208	33446	
2884	0	32428	33616	
2885	0	32684	34556	
2886	0	33040	34455	
2887	0	33202	33894	
2888	0	33166	33894	
2889	0	33168	33138	
2890	0	32960	31492	
2891	0	32964	30920	
2892	0	32992	30288	
2893	0	32970	30460	
2894	0	32934	30190	
2895	0	33004	31279	
2896	0	32913	32812	
2897	0	32980	34548	
2898	0	32808	35111	
2899	0	32656	34356	
2900	0	32744	34609	
2901	0	32866	34120	
2902	0	32838	32861	
2903	0	32748	31720	
2904	0	32520	31180	
2905	0	32452	30232	
2906	0	32432	29176	
2907	0	32992	31173	
2908	0	33392	33176	
2909	0	33468	34116	
2910	0	33426	34282	
2911	0	33112	34196	
2912	0	32836	33528	
2913	0	32550	33510	
2914	0	32188	33876	
2915	0	31888	33420	
2916	0	31676	32884	
2917	0	31578	32998	
2918	0	32034	32610	
2919	0	32448	32244	
2920	0	32826	31874	
2921	0	33040	32560	
2922	0	33056	33424	
2923	0	33092	32903	
2924	0	33186	32673	
2925	0	33096	33108	
2926	0	33060	33314	
2927	0	33152	33684	
2928	0	32996	33516	
2929	0	33064	32743	
2930	0	32932	32519	
2931	0	32684	31680	
2932	0	32734	31796	
2933	0	32716	32775	
2934	0	32840	33287	
2935	0	32954	33617	
2936	0	33140	33271	
2937	0	33190	32696	
2938	0	33048	32032	
2939	0	33140	31997	
2940	0	33056	32258	
2941	0	32980	33422	
2942	0	32852	34826	
2943	0	32744	35047	
2944	0	32736	34503	
2945	0	32540	32988	
2946	0	32740	29940	
2947	0	32780	27264	
2948	0	32960	27726	
2949	0	33024	30167	
2950	0	33044	32702	
2951	0	32894	33276	
2952	0	32708	33838	
2953	0	32608	33814	
2954	0	32580	33504	
2955	0	32644	33543	
2956	0	32882	33732	
2957	0	33380	33764	
2958	0	33557	33873	
2959	0	33272	33591	
2960	0	33392	33436	
2961	0	33710	33532	
2962	0	33916	33158	
2963	0	33708	33280	
2964	0	33262	33623	
2965	0	32642	34351	
2966	0	32052	33714	
2967	0	31770	33038	
2968	0	31760	33696	
2969	0	31476	32570	
2970	0	31044	31216	
2971	0	30820	30220	
2972	0	31132	29524	
2973	0	31812	28804	
2974	0	32481	29968	
2975	0	33400	32902	
2976	0	33724	34782	
2977	0	33602	34942	
2978	0	33414	34500	
2979	0	33212	33232	
2980	0	32868	31524	
2981	0	32900	31230	
2982	0	32612	32744	
2983	0	32304	33108	
2984	0	32752	34183	
2985	0	33560	34162	
2986	0	34040	33040	
2987	0	34358	32068	
2988	0	34340	32952	
2989	0	33900	32412	
2990	0	33396	32138	
2991	0	32836	32263	
2992	0	32512	32668	
2993	0	31656	33164	
2994	0	31608	32926	
2995	0	31436	32630	
2996	0	31526	33102	
2997	0	32136	33433	
2998	0	32630	33584	
2999	0	32744	33482	
3000	0	32806	33255	
3001	0	32676	31800	
3002	0	32938	30598	
3003	0	32946	31362	
3004	0	32730	32716	
3005	0	32772	33953	
3006	0	33020	34072	
3007	0	32958	33966	
3008	0	32968	33606	
3009	0	33376	33414	
3010	0	33442	33400	
3011	0	33273	32756	
3012	0	33230	32442	
3013	0	33024	33524	
3014	0	32824	33236	
3015	0	32864	32982	
3016	0	32994	32364	
3017	0	33255	31888	
3018	0	33144	31594	
3019	0	32788	31608	
3020	0	32336	31583	
3021	0	32302	31928	
3022	0	32512	31476	
3023	0	33008	33170	
3024	0	33596	34418	
3025	0	33556	34086	
3026	0	33410	30968	
3027	0	33168	30334	
3028	0	32914	32194	
3029	0	32464	32671	
3030	0	32124	33422	
3031	0	31762	33766	
3032	0	31224	33716	
3033	0	31404	34750	
3034	0	31604	35308	
3035	0	31884	35847	
3036	0	32295	35132	
3037	0	32374	31886	
3038	0	32380	28816	
3039	0	32452	27724	
3040	0	32360	28264	
3041	0	32620	30976	
3042	0	32826	33920	
3043	0	32950	34368	
3044	0	33232	34114	
3045	0	33252	33376	
3046	0	33256	32959	
3047	0	33304	32644	
3048	0	33184	31924	
3049	0	33332	32063	
3050	0	33392	32714	
3051	0	33572	34110	
3052	0	33416	34654	
3053	0	33096	34284	
3054	0	33084	33064	
3055	0	33484	32854	
3056	0	33352	33146	
3057	0	33321	33166	
3058	0	33296	33158	
3059	0	33584	33494	
3060	0	33806	33572	
3061	0	33680	33832	
3062	0	33472	33328	
3063	0	32656	31668	
3064	0	32172	31092	
3065	0	31616	31020	
3066	0	31488	31144	
3067	0	31604	32084	
3068	0	31584	32618	
3069	0	31862	32748	
3070	0	32122	32924	
3071	0	32364	33308	
3072	0	32520	33524	
3073	0	32510	33026	
3074	0	32764	32468	
3075	0	33096	32836	
3076	0	33268	33543	
3077	0	33232	33730	
3078	0	33324	33390	
3079	0	33228	33241	
3080	0	33124	33066	
3081	0	33047	33460	
3082	0	32944	33174	
3083	0	32820	32254	
3084	0	32638	31420	
3085	0	32426	31796	
3086	0	32552	32182	
3087	0	32536	32692	
3088	0	32768	34718	
3089	0	33028	35802	
3090	0	33672	33266	
3091	0	34712	31504	
3092	0	35200	29286	
3093	0	35226	28412	
3094	0	34750	30894	
3095	0	33414	34808	
3096	0	32204	34970	
3097	0	31432	33606	
3098	0	30910	31268	
3099	0	30640	30938	
3100	0	30504	31976	
3101	0	30530	32870	
3102	0	30572	33228	
3103	0	30972	33204	
3104	0	32196	33348	
3105	0	33136	33488	
3106	0	33588	33362	
3107	0	33664	33366	
3108	0	33152	33432	
3109	0	33080	33208	
3110	0	33092	33025	
3111	0	33216	32706	
3112	0	33152	32792	
3113	0	33054	33031	
3114	0	32840	32872	
3115	0	32804	32790	
3116	0	32776	32796	
3117	0	32900	32822	
3118	0	33208	32988	
3119	0	33343	32902	
3120	0	33260	32992	
3121	0	33384	32812	
3122	0	33562	32887	
3123	0	33524	33500	
3124	0	33524	33830	
3125	0	33360	33998	
3126	0	33066	33124	
3127	0	32704	31862	
3128	0	32153	31276	
3129	0	31790	32140	
3130	0	31712	33169	
3131	0	32452	33114	
3132	0	32790	32146	
3133	0	33784	29870	
3134	0	34332	29860	
3135	0	34052	31036	
3136	0	33600	32546	
3137	0	33024	33781	
3138	0	32506	33530	
3139	0	32468	33840	
3140	0	32542	33770	
3141	0	32600	33478	
3142	0	32760	33479	
3143	0	32420	32640	
3144	0	32440	32026	
3145	0	32568	32136	
3146	0	32456	32919	
3147	0	32474	32566	
3148	0	32552	33374	
3149	0	32406	34396	
3150	0	31890	33397	
3151	0	31228	33287	
3152	0	31396	32427	
3153	0	32382	31812	
3154	0	32896	32480	
3155	0	32992	33102	
3156	0	33116	33036	
3157	0	33380	32210	
3158	0	33580	31996	
3159	0	33298	32088	
3160	0	32921	33009	
3161	0	32878	33488	
3162	0	32550	33280	
3163	0	32528	32568	
3164	0	33144	32647	
3165	0	33316	32894	
3166	0	33144	32836	
3167	0	33020	32637	
3168	0	32742	32928	
3169	0	32466	32814	
3170	0	32398	32542	
3171	0	32328	32918	
3172	0	32632	33252	
3173	0	33028	32962	
3174	0	33164	33054	
3175	0	33350	33799	
3176	0	33352	33639	
3177	0	33386	33406	
3178	0	33320	32738	
3179	0	33180	30834	
3180	0	33092	30650	
3181	0	33016	31394	
3182	0	33082	32290	
3183	0	32852	33468	
3184	0	32730	33758	
3185	0	32752	34476	
3186	0	32610	34916	
3187	0	32484	33728	
3188	0	32418	31712	
3189	0	32388	30258	
3190	0	32384	30503	
3191	0	32642	31092	
3192	0	33204	31960	
3193	0	33476	32880	
3194	0	33760	34183	
3195	0	33900	34410	
3196	0	33576	34566	
3197	0	33284	33560	
3198	0	32990	32252	
3199	0	32392	31162	
3200	0	32072	31506	
3201	0	31708	33432	
3202	0	31744	34272	
3203	0	32084	34460	
3204	0	32620	32572	
3205	0	32920	30708	
3206	0	33376	31040	
3207	0	33118	32682	
3208	0	32776	33799	
3209	0	32300	33812	
3210	0	31864	32711	
3211	0	32412	31448	
3212	0	33656	31970	
3213	0	33873	33274	
3214	0	33620	33198	
3215	0	33004	32612	
3216	0	32088	32352	
3217	0	31556	32470	
3218	0	31168	33210	
3219	0	31444	34308	
3220	0	31908	34408	
3221	0	31954	33671	
3222	0	31814	33262	
3223	0	32122	31660	
3224	0	32816	31684	
3225	0	33352	31796	
3226	0	33610	32098	
3227	0	34196	32954	
3228	0	34328	33244	
3229	0	34522	32892	
3230	0	34376	32740	
3231	0	33960	31983	
3232	0	33096	32316	
3233	0	32292	32876	
3234	0	31690	33208	
3235	0	31896	33060	
3236	0	32160	34004	
3237	0	32298	34074	
3238	0	32920	32819	
3239	0	33050	31232	
3240	0	33198	29924	
3241	0	33020	31498	
3242	0	32952	33031	
3243	0	32906	33399	
3244	0	33364	34196	
3245	0	33584	32758	
3246	0	33750	32410	
3247	0	33640	33287	
3248	0	33314	32884	
3249	0	32754	32376	
3250	0	32268	32484	
3251	0	32028	32592	
3252	0	31976	32712	
3253	0	31664	32978	
3254	0	31400	33322	
3255	0	31412	33279	
3256	0	31620	33094	
3257	0	32372	33124	
3258	0	33036	32985	
3259	0	33668	32120	
3260	0	33756	32436	
3261	0	33858	33626	
3262	0	33848	33442	
3263	0	33656	33276	
3264	0	33742	33415	
3265	0	33158	32482	
3266	0	32804	32436	
3267	0	32620	32220	
3268	0	32398	32096	
3269	0	32138	31840	
3270	0	32208	32560	
3271	0	32520	33190	
3272	0	32552	34288	
3273	0	32620	34017	
3274	0	32812	32586	
3275	0	32588	31182	
3276	0	32629	31593	
3277	0	32792	32336	
3278	0	32828	33262	
3279	0	32810	34134	
3280	0	32486	32940	
3281	0	32356	31978	
3282	0	32408	31654	
3283	0	32552	32028	
3284	0	32732	32066	
3285	0	33136	32284	
3286	0	33368	32519	
3287	0	33580	32920	
3288	0	33520	33164	
3289	0	33116	33241	
3290	0	33232	33452	
3291	0	33010	33424	
3292	0	32786	33354	
3293	0	32720	33148	
3294	0	32526	33074	
3295	0	32476	32916	
3296	0	32302	32866	
3297	0	32588	33272	
3298	0	32698	32944	
3299	0	32714	32716	
3300	0	32952	32898	
3301	0	32912	32960	
3302	0	33072	33046	
3303	0	33092	32695	
3304	0	32804	32664	
3305	0	32424	33076	
3306	0	32072	33782	
3307	0	32588	33836	
3308	0	32972	33238	
3309	0	32983	31110	
3310	0	33142	29916	
3311	0	33108	31223	
3312	0	33024	32078	
3313	0	33121	33810	
3314	0	33062	35450	
3315	0	32880	34713	
3316	0	32826	31830	
3317	0	32880	30348	
3318	0	32742	30813	
3319	0	32778	31554	
3320	0	32692	33524	
3321	0	32808	34020	
3322	0	32816	34055	
3323	0	32856	32263	
3324	0	32876	31319	
3325	0	32872	31662	
3326	0	33132	32708	
3327	0	33412	33468	
3328	0	33660	33454	
3329	0	33710	33314	
3330	0	33428	32510	
3331	0	33092	32404	
3332	0	32450	32846	
3333	0	31860	32636	
3334	0	31204	32790	
3335	0	31036	32976	
3336	0	31116	33142	
3337	0	32172	32938	
3338	0	32702	32894	
3339	0	32884	33070	
3340	0	33056	32972	
3341	0	33028	32822	
3342	0	33252	32758	
3343	0	32912	32943	
3344	0	33104	32828	
3345	0	33178	32802	
3346	0	33240	32796	
3347	0	33220	32844	
3348	0	33140	32878	
3349	0	33052	32775	
3350	0	32978	32615	
3351	0	32928	32808	
3352	0	32964	32710	
3353	0	32792	32736	
3354	0	32880	32764	
3355	0	32954	32716	
3356	0	32824	32850	
3357	0	32848	33054	
3358	0	32876	33124	
3359	0	32874	33270	
3360	0	32758	32486	
3361	0	32732	31734	
3362	0	32768	31679	
3363	0	32808	32061	
3364	0	32686	32746	
3365	0	32664	32942	
3366	0	32680	33286	
3367	0	32774	33116	
3368	0	32788	32894	
3369	0	32736	32719	
3370	0	32696	32592	
3371	0	32752	32132	
3372	0	32724	32870	
3373	0	32804	32866	
3374	0	32858	32928	
3375	0	32894	32892	
3376	0	32977	32756	
3377	0	32998	32625	
3378	0	32900	32583	
3379	0	32670	32812	
3380	0	32696	33030	
3381	0	32618	32786	
3382	0	32596	32666	
3383	0	32656	32670	
3384	0	32814	32740	
3385	0	32824	32614	
3386	0	32890	32600	
3387	0	32740	32882	
3388	0	32784	32960	
3389	0	32786	32964	
3390	0	32700	32936	
3391	0	32782	32725	
3392	0	32817	32674	
3393	0	32840	32894	
3394	0	32816	33006	
3395	0	32832	32916	
3396	0	32800	32775	
3397	0	32808	32572	
3398	0	32794	32708	
3399	0	32810	32608	
3400	0	32736	32186	
3401	0	32870	32110	
3402	0	32800	32609	
3403	0	32724	32825	
3404	0	32788	32996	
3405	0	32748	32828	
3406	0	32784	32880	
3407	0	32820	32858	
3408	0	32776	32984	
3409	0	32740	32788	
3410	0	32738	32775	
3411	0	32722	32800	
3412	0	32702	32884	
3413	0	32816	32868	
3414	0	32816	32878	
3415	0	32816	32702	
3416	0	32842	32652	
3417	0	32824	32676	
3418	0	32700	32896	
3419	0	32688	32976	
3420	0	32668	32786	
3421	0	32724	32727	
3422	0	32748	32824	
3423	0	32742	32913	
3424	0	32760	32922	
3425	0	32732	32932	
3426	0	32736	32703	
3427	0	32780	32720	
3428	0	32756	32784	
3429	0	32766	32802	
3430	0	32778	32913	
3431	0	32804	32903	
3432	0	32804	32839	
3433	0	32808	32539	
3434	0	32754	32614	
3435	0	32800	32943	
3436	0	32850	32838	
3437	0	32826	32786	
3438	0	32848	32938	
3439	0	32730	32786	
3440	0	32752	32618	
3441	0	32712	32579	
3442	0	32756	32732	
3443	0	32696	32692	
3444	0	32744	32775	
3445	0	32716	32722	
3446	0	32816	32748	
3447	0	32760	32880	
3448	0	32822	32890	
3449	0	32898	32750	
3450	0	32754	32911	
3451	0	32740	32870	
3452	0	32754	32839	
3453	0	32746	32720	
3454	0	32852	32720	
3455	0	32864	32734	
3456	0	32792	32775	
3457	0	32768	32786	
3458	0	32828	32834	
3459	0	32820	32734	
3460	0	32820	32743	
3461	0	32808	32744	
3462	0	32748	32775	
3463	0	32768	32762	
3464	0	32748	32696	
3465	0	32816	32804	
3466	0	32784	32718	
3467	0	32834	32636	
3468	0	32836	32716	
3469	0	32834	32634	
3470	0	32824	32672	
3471	0	32804	32807	
3472	0	32744	32746	
3473	0	32832	32768	
3474	0	32738	32726	
3475	0	32972	32822	
3476	0	33020	32916	
3477	0	32932	32794	
3478	0	32976	32688	
3479	0	32812	32657	
3480	0	32812	32564	
3481	0	32964	32775	
3482	0	32962	32720	
3483	0	32954	32679	
3484	0	32838	32766	
3485	0	32888	32716	
3486	0	32816	32814	
3487	0	32648	32876	
3488	0	32640	32874	
3489	0	32676	32884	
3490	0	32816	32906	
3491	0	32880	32801	
3492	0	33004	32702	
3493	0	32972	32647	
3494	0	32860	32748	
3495	0	32760	32934	
3496	0	32642	32709	
3497	0	32680	32755	
3498	0	32830	32762	
3499	0	32892	32728	
3500	0	32848	32660	
3501	0	32840	32600	
3502	0	33002	32885	
3503	0	33000	32988	
3504	0	32964	33044	
3505	0	33072	32978	
3506	0	33112	32750	
3507	0	33106	32516	
3508	0	33156	32270	
3509	0	32982	32020	
3510	0	32948	31889	
3511	0	33060	31944	
3512	0	32952	32174	
3513	0	32790	32222	
3514	0	32812	32614	
3515	0	32872	33063	
3516	0	32908	33222	
3517	0	32780	33094	
3518	0	32720	33158	
3519	0	32816	33164	
3520	0	32916	33103	
3521	0	32832	33143	
3522	0	32828	32994	
3523	0	32952	32992	
3524	0	33030	32878	
3525	0	33162	32788	
3526	0	33098	32692	
3527	0	32924	32852	
3528	0	32780	32636	
3529	0	32764	32772	
3530	0	32680	32888	
3531	0	32665	32724	
3532	0	32712	32743	
3533	0	32684	32820	
3534	0	32766	32948	
3535	0	32834	32900	
3536	0	32876	32710	
3537	0	32918	32518	
3538	0	32936	32514	
3539	0	32996	32871	
3540	0	33050	32772	
3541	0	32984	32624	
3542	0	33088	32620	
3543	0	33044	32714	
3544	0	32930	32672	
3545	0	32832	32652	
3546	0	32894	32714	
3547	0	32914	32568	
3548	0	32910	32676	
3549	0	32874	32775	
3550	0	32968	32710	
3551	0	33074	32772	
3552	0	32928	32922	
3553	0	32826	32794	
3554	0	32636	32774	
3555	0	32560	32872	
3556	0	32552	32900	
3557	0	32402	32847	
3558	0	32402	32831	
3559	0	32520	32844	
3560	0	32642	32574	
3561	0	32768	32620	
3562	0	32868	32940	
3563	0	32900	32974	
3564	0	33002	33018	
3565	0	32840	32947	
3566	0	32972	32968	
3567	0	32896	32914	
3568	0	32968	32792	
3569	0	32896	32807	
3570	0	32772	32434	
3571	0	32810	32428	
3572	0	32796	32720	
3573	0	32776	32876	
3574	0	32736	32866	
3575	0	32728	32714	
3576	0	32772	32596	
3577	0	32748	32609	
3578	0	32816	32616	
3579	0	32720	32775	
3580	0	32708	32982	
3581	0	32760	32970	
3582	0	32824	32874	
3583	0	32748	32832	
3584	0	32732	32719	
3585	0	32688	32815	
3586	0	32704	33044	
3587	0	32652	32899	
3588	0	32648	32863	
3589	0	32692	32752	
3590	0	32824	32814	
3591	0	32900	32942	
3592	0	32902	32767	
3593	0	32968	32700	
3594	0	32878	32588	
3595	0	32980	32594	
3596	0	32940	32566	
3597	0	32932	32519	
3598	0	32886	32673	
3599	0	32914	32626	
3600	0	32888	32628	
3601	0	32981	32644	
3602	0	33000	32606	
3603	0	32950	32662	
3604	0	32888	32764	
3605	0	32812	32770	
3606	0	32778	32798	
3607	0	32852	32878	
3608	0	32932	32700	
3609	0	32970	32770	
3610	0	32976	32688	
3611	0	32916	32654	
3612	0	32804	32736	
3613	0	32724	32918	
3614	0	32716	32764	
3615	0	32700	32863	
3616	0	32712	32942	
3617	0	32594	32913	
3618	0	32424	32954	
3619	0	32356	33016	
3620	0	32344	33176	
3621	0	32404	33308	
3622	0	32360	33156	
3623	0	32460	33101	
3624	0	32360	33020	
3625	0	32566	32817	
3626	0	32564	32768	
3627	0	32620	32754	
3628	0	32748	32768	
3629	0	32786	32839	
3630	0	32864	32762	
3631	0	32828	32728	
3632	0	32864	32670	
3633	0	32956	32577	
3634	0	33152	32664	
3635	0	33124	32614	
3636	0	33152	32631	
3637	0	33074	32672	
3638	0	32928	32516	
3639	0	32856	32624	
3640	0	32664	32564	
3641	0	32704	32716	
3642	0	32836	32622	
3643	0	32764	32694	
3644	0	32922	32688	
3645	0	32902	32634	
3646	0	32906	32743	
3647	0	32810	32708	
3648	0	32847	32602	
3649	0	32864	32623	
3650	0	32832	32842	
3651	0	32793	32848	
3652	0	32748	32948	
3653	0	32752	32872	
3654	0	32820	32772	
3655	0	32738	32710	
3656	0	32760	32654	
3657	0	32772	32566	
3658	0	32792	32583	
3659	0	32842	32670	
3660	0	32872	32831	
3661	0	32838	32686	
3662	0	32814	32760	
3663	0	32916	32822	
3664	0	32890	32860	
3665	0	32810	32898	
3666	0	32730	32800	
3667	0	32768	32646	
3668	0	32756	32714	
3669	0	32876	32992	
3670	0	32848	32815	
3671	0	32868	32856	
3672	0	32868	32840	
3673	0	32836	32708	
3674	0	32780	32711	
3675	0	32808	32806	
3676	0	32748	32802	
3677	0	32660	32870	
3678	0	32672	32772	
3679	0	32750	32822	
3680	0	32792	32722	
3681	0	32760	32791	
3682	0	32776	32812	
3683	0	32824	32742	
3684	0	32932	32686	
3685	0	32848	32775	
3686	0	32858	32878	
3687	0	32770	32892	
3688	0	32688	32853	
3689	0	32672	32640	
3690	0	32732	32542	
3691	0	32744	32620	
3692	0	32880	32718	
3693	0	32770	33012	
3694	0	32804	32876	
3695	0	32892	32830	
3696	0	32856	32584	
3697	0	32872	32636	
3698	0	32712	32772	
3699	0	32796	32646	
3700	0	32752	32658	
3701	0	32824	32806	
3702	0	32784	32916	
3703	0	32828	32622	
3704	0	32792	32754	
3705	0	32848	32884	
3706	0	32804	32742	
3707	0	32858	32759	
3708	0	32856	32746	
3709	0	32768	32672	
3710	0	32796	32718	
3711	0	32810	32736	
3712	0	32888	32758	
3713	0	32996	32710	
3714	0	32866	32790	
3715	0	32942	32806	
3716	0	32824	32764	
3717	0	32790	32824	
3718	0	32801	32863	
3719	0	32954	32772	
3720	0	32888	32679	
3721	0	32836	32756	
3722	0	32870	32832	
3723	0	32812	32976	
3724	0	32776	32888	
3725	0	32698	32743	
3726	0	32704	32700	
3727	0	32712	32682	
3728	0	32720	32808	
3729	0	32858	32774	
3730	0	32852	32740	
3731	0	32848	32746	
3732	0	32894	32708	
3733	0	32802	32711	
3734	0	32800	32628	
3735	0	32816	32724	
3736	0	32832	32662	
3737	0	32846	32783	
3738	0	32828	32768	
3739	0	32712	32642	
3740	0	32704	32732	
3741	0	32724	32767	
3742	0	32790	32654	
3743	0	32892	32885	
3744	0	32818	32775	
3745	0	32828	32911	
3746	0	32864	32874	
3747	0	32892	32744	
3748	0	32876	32714	
3749	0	32868	32672	
3750	0	32868	32752	
3751	0	32880	32724	
3752	0	32818	32692	
3753	0	32856	32668	
3754	0	32802	32639	
3755	0	32784	32858	
3756	0	32822	32760	
3757	0	32784	32798	
3758	0	32792	32948	
3759	0	32781	32898	
3760	0	32764	32847	
3761	0	32758	32727	
3762	0	32752	32784	
3763	0	32726	32769	
3764	0	32774	32764	
3765	0	32842	32844	
3766	0	32920	33070	
3767	0	32892	33020	
3768	0	32802	32726	
3769	0	32772	32519	
3770	0	32740	32519	
3771	0	32726	32692	
3772	0	32756	32739	
3773	0	32714	32684	
3774	0	32706	32756	
3775	0	32756	32720	
3776	0	32732	32814	
3777	0	32828	32844	
3778	0	32864	32666	
3779	0	32852	32636	
3780	0	32868	32663	
3781	0	32892	32860	
3782	0	32880	32798	
3783	0	32760	32788	
3784	0	32716	32772	
3785	0	32816	32812	
3786	0	32826	32636	
3787	0	32904	32556	
3788	0	32900	32687	
3789	0	32929	32654	
3790	0	33018	32657	
3791	0	32928	32690	
3792	0	32868	32742	
3793	0	32928	32828	
3794	0	32880	32834	
3795	0	32904	32913	
3796	0	32772	32846	
3797	0	32772	32770	
3798	0	32716	32870	
3799	0	32716	32862	
3800	0	32692	32852	
3801	0	32696	32830	
3802	0	32576	32736	
3803	0	32704	32698	
3804	0	32620	32652	
3805	0	32644	32822	
3806	0	32650	32894	
3807	0	32590	32788	
3808	0	32852	32800	
3809	0	32965	32742	
3810	0	32908	32788	
3811	0	33008	32830	
3812	0	32932	32930	
3813	0	33028	32936	
3814	0	32964	32892	
3815	0	32962	32702	
3816	0	32840	32495	
3817	0	32730	32426	
3818	0	32792	32462	
3819	0	32638	32542	
3820	0	32636	32538	
3821	0	32568	32560	
3822	0	32618	32671	
3823	0	32531	32832	
3824	0	32488	32710	
3825	0	32568	32854	
3826	0	32684	33184	
3827	0	32824	33006	
3828	0	32896	32927	
3829	0	32981	32977	
3830	0	32896	32881	
3831	0	32900	32867	
3832	0	32824	32788	
3833	0	32832	32684	
3834	0	32668	32744	
3835	0	32680	32622	
3836	0	32676	32598	
3837	0	32672	32708	
3838	0	32792	32672	
3839	0	32690	32730	
3840	0	32764	32812	
3841	0	32884	32804	
3842	0	32872	32928	
3843	0	32764	32890	
3844	0	32816	32858	
3845	0	32750	32826	
3846	0	32798	32748	
3847	0	32786	32632	
3848	0	32856	32760	
3849	0	32878	32842	
3850	0	32886	32886	
3851	0	32842	32740	
3852	0	32924	32748	
3853	0	32908	32772	
3854	0	32916	32804	
3855	0	32788	32746	
3856	0	32878	32735	
3857	0	32844	32771	
3858	0	32798	32770	
3859	0	32804	32642	
3860	0	32804	32758	
3861	0	32892	32822	
3862	0	32916	32751	
3863	0	32878	32802	
3864	0	32792	32769	
3865	0	32780	32860	
3866	0	32716	32790	
3867	0	32716	32718	
3868	0	32722	32654	
3869	0	32764	32734	
3870	0	32958	32807	
3871	0	33000	32889	
3872	0	32904	32790	
3873	0	32824	32728	
3874	0	32906	32806	
3875	0	32892	32757	
3876	0	32812	32658	
3877	0	32746	32726	
3878	0	32636	32758	
3879	0	32706	32928	
3880	0	32746	32879	
3881	0	32858	32935	
3882	0	32866	32876	
3883	0	32850	32750	
3884	0	32772	32711	
3885	0	32816	32800	
3886	0	32932	32751	
3887	0	32994	32703	
3888	0	32928	32772	
3889	0	33000	32791	
3890	0	32976	32798	
3891	0	32994	32751	
3892	0	32872	32728	
3893	0	32834	32672	
3894	0	32748	32759	
3895	0	32714	32711	
3896	0	32770	32744	
3897	0	32912	32802	
3898	0	33020	32712	
3899	0	33012	32728	
3900	0	32968	32721	
3901	0	32932	32758	
3902	0	32936	32640	
3903	0	32924	32604	
3904	0	32926	32860	
3905	0	32990	32876	
3906	0	33036	32718	
3907	0	33004	32708	
3908	0	33032	32700	
3909	0	32964	32721	
3910	0	32904	32886	
3911	0	32864	32868	
3912	0	32650	32790	
3913	0	32552	32702	
3914	0	32628	32766	
3915	0	32740	32878	
3916	0	32708	32992	
3917	0	32702	33031	
3918	0	32636	32836	
3919	0	32638	32674	
3920	0	32506	32698	
3921	0	32374	32679	
3922	0	32456	32764	
3923	0	32704	32722	
3924	0	32848	32460	
3925	0	32780	32402	
3926	0	32616	32388	
3927	0	32648	32427	
3928	0	32768	32484	
3929	0	32952	32676	
3930	0	32986	32694	
3931	0	32862	32706	
3932	0	32976	32775	
3933	0	32930	32772	
3934	0	32936	32919	
3935	0	32966	33040	
3936	0	32920	33023	
3937	0	32934	32831	
3938	0	32880	32750	
3939	0	32898	32774	
3940	0	32904	32704	
3941	0	32804	32692	
3942	0	32826	32711	
3943	0	32842	32884	
3944	0	32856	32852	
3945	0	32838	32847	
3946	0	32848	32868	
3947	0	32860	32760	
3948	0	32856	32804	
3949	0	32880	32796	
3950	0	32852	32772	
3951	0	32900	32750	
3952	0	32872	32698	
3953	0	32932	32669	
3954	0	33004	32762	
3955	0	32900	32728	
3956	0	32878	32648	
3957	0	32812	32766	
3958	0	32754	32922	
3959	0	32828	32896	
3960	0	32796	32804	
3961	0	32804	32760	
3962	0	32852	32764	
3963	0	32880	32870	
3964	0	32782	32822	
3965	0	32812	32772	
3966	0	32816	32709	
3967	0	32768	32715	
3968	0	32784	32798	
3969	0	32808	32789	
3970	0	32865	32912	
3971	0	32788	32862	
3972	0	32762	32794	
3973	0	32762	32764	
3974	0	32856	32788	
3975	0	32872	32764	
3976	0	32792	32742	
3977	0	32872	32807	
3978	0	32836	32766	
3979	0	32772	32727	
3980	0	32836	32775	
3981	0	32836	32786	
3982	0	32744	32768	
3983	0	32752	32726	
3984	0	32832	32597	
3985	0	32762	32582	
3986	0	32756	32682	
3987	0	32820	32800	
3988	0	32880	32786	
3989	0	32852	32663	
3990	0	32872	32676	
3991	0	32852	32754	
3992	0	32896	32756	
3993	0	32820	32820	
3994	0	32814	32804	
3995	0	32812	32871	
3996	0	32852	32822	
3997	0	32900	32817	
3998	0	32902	32746	
3999	0	32906	32858	
4000	0	32916	32918	
4001	0	32908	32817	
4002	0	32878	32974	
4003	0	32868	33080	
4004	0	32884	33156	
4005	0	32784	32999	
4006	0	32768	33014	
4007	0	32724	32850	
4008	0	32664	32732	
4009	0	32674	32708	
4010	0	32736	32730	
4011	0	32736	32736	
4012	0	32838	32708	
4013	0	32824	32833	
4014	0	32828	32914	
4015	0	32832	32701	
4016	0	32830	32672	
4017	0	32824	32604	
4018	0	32812	32344	
4019	0	32848	32142	
4020	0	32828	31924	
4021	0	32860	31972	
4022	0	32852	32026	
4023	0	32753	32454	
4024	0	32850	32654	
4025	0	32992	32868	
4026	0	32970	33058	
4027	0	32924	33033	
4028	0	32960	33031	
4029	0	32980	33026	
4030	0	32768	33026	
4031	0	32558	32852	
4032	0	32528	33092	
4033	0	32300	33092	
4034	0	32288	33016	
4035	0	32212	32986	
4036	0	32452	33008	
4037	0	32687	32960	
4038	0	32718	32975	
4039	0	32744	32990	
4040	0	32778	32910	
4041	0	32700	33014	
4042	0	32884	33031	
4043	0	32940	32902	
4044	0	32912	32788	
4045	0	32906	32758	
4046	0	32788	32740	
4047	0	32754	32775	
4048	0	32864	32642	
4049	0	32868	32705	
4050	0	32868	32720	
4051	0	32870	32756	
4052	0	32826	32758	
4053	0	32826	32762	
4054	0	32864	32732	
4055	0	32926	32763	
4056	0	32852	32794	
4057	0	32824	32718	
4058	0	32864	32672	
4059	0	32870	32599	
4060	0	32864	32604	
4061	0	32844	32596	
4062	0	32826	32564	
4063	0	32764	32719	
4064	0	32768	32832	
4065	0	32772	32768	
4066	0	32808	32692	
4067	0	32898	32694	
4068	0	32944	32744	
4069	0	32892	32871	
4070	0	32800	32804	
4071	0	32922	32855	
4072	0	32908	32930	
4073	0	32796	32775	
4074	0	32704	32938	
4075	0	32472	33062	
4076	0	32404	33011	
4077	0	32236	32740	
4078	0	32236	32752	
4079	0	32444	32688	
4080	0	32457	32663	
4081	0	32532	32694	
4082	0	32728	32615	
4083	0	32784	32606	
4084	0	32860	32758	
4085	0	32900	32866	
4086	0	32954	32775	
4087	0	32906	32847	
4088	0	32970	32679	
4089	0	32980	32708	
4090	0	32960	32660	
4091	0	32920	32676	
4092	0	32953	32868	
4093	0	32817	32746	
4094	0	32938	32647	
4095	0	32788	32747	
4096	0	32808	32598	
4097	0	32864	32580	
4098	0	32908	32676	
4099	0	32968	32775	
4100	0	32980	32661	
4101	0	32912	32708	
4102	0	32912	32636	
4103	0	32994	32638	
4104	0	33000	32721	
4105	0	32930	32808	
4106	0	32904	32746	
4107	0	32908	32814	
4108	0	32956	32718	
4109	0	32932	32600	
4110	0	32832	32494	
4111	0	32794	32540	
4112	0	32756	32556	
4113	0	32862	32734	
4114	0	32856	32775	
4115	0	32844	32756	
4116	0	32906	32884	
4117	0	32696	32874	
4118	0	32702	32766	
4119	0	32704	32646	
4120	0	32724	32554	
4121	0	32764	32628	
4122	0	32760	32812	
4123	0	32794	32668	
4124	0	32872	32582	
4125	0	32812	32612	
4126	0	32742	32679	
4127	0	32838	32648	
4128	0	32816	32570	
4129	0	32812	32576	
4130	0	32828	32728	
4131	0	32792	32790	
4132	0	32884	32974	
4133	0	32845	32916	
4134	0	32844	32844	
4135	0	32812	32800	
4136	0	32768	32704	
4137	0	32876	32569	
4138	0	32980	32630	
4139	0	32974	32462	
4140	0	32928	32308	
4141	0	32940	32400	
4142	0	32964	32680	
4143	0	32880	32842	
4144	0	32840	32808	
4145	0	32888	32876	
4146	0	32832	32924	
4147	0	32796	32970	
4148	0	32836	32946	
4149	0	32676	32932	
4150	0	32884	32940	
4151	0	33006	32990	
4152	0	32988	32898	
4153	0	32916	32732	
4154	0	32804	32711	
4155	0	32788	32718	
4156	0	32722	32826	
4157	0	32628	32842	
4158	0	32612	32994	
4159	0	32724	32980	
4160	0	32720	32894	
4161	0	32724	32823	
4162	0	32776	32860	
4163	0	32786	32922	
4164	0	32764	32917	
4165	0	32824	32963	
4166	0	32700	32774	
4167	0	32804	32742	
4168	0	32810	32650	
4169	0	32816	32792	
4170	0	32848	32913	
4171	0	32868	32822	
4172	0	32956	32670	
4173	0	32852	32656	
4174	0	32932	32548	
4175	0	32958	32580	
4176	0	33017	32618	
4177	0	33000	32692	
4178	0	32912	32796	
4179	0	32888	32726	
4180	0	32888	32822	
4181	0	32904	32900	
4182	0	32852	32871	
4183	0	32816	32796	
4184	0	32830	32920	
4185	0	32780	32814	
4186	0	32772	32871	
4187	0	32816	32996	
4188	0	32820	32864	
4189	0	32788	32726	
4190	0	32760	32736	
4191	0	32824	32822	
4192	0	32824	32816	
4193	0	32904	32721	
4194	0	32800	32766	
4195	0	32768	32768	
4196	0	32828	32757	
4197	0	32612	32534	
4198	0	32692	32714	
4199	0	32734	32798	
4200	0	32736	32710	
4201	0	32688	32702	
4202	0	32688	32734	
4203	0	32716	32647	
4204	0	32778	32636	
4205	0	32682	32756	
4206	0	32616	32826	
4207	0	32728	32804	
4208	0	32704	32767	
4209	0	32784	32880	
4210	0	32756	32894	
4211	0	32752	32900	
4212	0	32754	32900	
4213	0	32879	32908	
4214	0	32884	32919	
4215	0	32855	32726	
4216	0	32780	32796	
4217	0	32884	32855	
4218	0	32816	32878	
4219	0	32884	32948	
4220	0	32806	32924	
4221	0	32832	32839	
4222	0	32770	32605	
4223	0	32846	32618	
4224	0	32870	32600	
4225	0	32884	32646	
4226	0	32826	32562	
4227	0	32864	32528	
4228	0	32720	32602	
4229	0	32836	32806	
4230	0	32828	32879	
4231	0	32708	32874	
4232	0	32696	32775	
4233	0	32744	32638	
4234	0	32820	32772	
4235	0	32944	32852	
4236	0	32918	32738	
4237	0	32888	32796	
4238	0	32816	32788	
4239	0	32744	32775	
4240	0	32720	32748	
4241	0	32756	32724	
4242	0	32828	32670	
4243	0	32806	32682	
4244	0	32884	32874	
4245	0	32790	32816	
4246	0	32760	32837	
4247	0	32832	32734	
4248	0	32814	32717	
4249	0	32858	32660	
4250	0	32828	32612	
4251	0	32800	32768	
4252	0	32884	32802	
4253	0	32816	32754	
4254	0	32788	32820	
4255	0	32872	32678	
4256	0	32848	32736	
4257	0	32780	32727	
4258	0	32782	32724	
4259	0	32828	32784	
4260	0	32800	32796	
4261	0	32794	32832	
4262	0	32840	32795	
4263	0	32804	32828	
4264	0	32782	32775	
4265	0	32768	32775	
4266	0	32736	32943	
4267	0	32800	32966	
4268	0	32768	32844	
4269	0	32756	32735	
4270	0	32710	32766	
4271	0	32736	32794	
4272	0	32750	32852	
4273	0	32736	32763	
4274	0	32790	32903	
4275	0	32796	32889	
4276	0	32810	32822	
4277	0	32768	32816	
4278	0	32720	32896	
4279	0	32736	32826	
4280	0	32772	32750	
4281	0	32696	32872	
4282	0	32744	32938	
4283	0	32853	32756	
4284	0	32820	32845	
4285	0	32804	32742	
4286	0	32844	32720	
4287	0	32798	32719	
4288	0	32768	32764	
4289	0	32786	32766	
4290	0	32860	32704	
4291	0	32974	32642	
4292	0	32936	32684	
4293	0	32916	32644	
4294	0	32858	32798	
4295	0	32904	32820	
4296	0	32897	32712	
4297	0	32872	32722	
4298	0	32864	32804	
4299	0	32926	32810	
4300	0	32856	32810	
4301	0	32868	32682	
4302	0	32820	32729	
4303	0	32932	32826	
4304	0	32830	32788	
4305	0	32812	32775	
4306	0	32856	32696	
4307	0	32792	32788	
4308	0	32876	32814	
4309	0	32834	32700	
4310	0	32908	32632	
4311	0	32844	32692	
4312	0	32796	32756	
4313	0	32854	32903	
4314	0	32788	32740	
4315	0	32874	32736	
4316	0	32910	32834	
4317	0	32920	32846	
4318	0	32838	32832	
4319	0	32796	32808	
4320	0	32790	32834	
4321	0	32780	32736	
4322	0	32800	32644	
4323	0	32768	32652	
4324	0	32814	32679	
4325	0	32798	32760	
4326	0	32840	32794	
4327	0	32868	32775	
4328	0	32768	32812	
4329	0	32884	32858	
4330	0	32912	32847	
4331	0	32960	32839	
4332	0	32920	32693	
4333	0	32854	32682	
4334	0	32760	32696	
4335	0	32804	32794	
4336	0	32796	32812	
4337	0	32866	32844	
4338	0	32900	32792	
4339	0	32764	32732	
4340	0	32756	32710	
4341	0	32768	32596	
4342	0	32788	32647	
4343	0	32740	32734	
4344	0	32780	32680	
4345	0	32800	32646	
4346	0	32756	32692	
4347	0	32802	32738	
4348	0	32816	32820	
4349	0	32780	32826	
4350	0	32792	32802	
4351	0	32736	32862	
4352	0	32820	32832	
4353	0	32828	32754	
4354	0	32789	32812	
4355	0	32820	32757	
4356	0	32846	32716	
4357	0	32772	32668	
4358	0	32812	32686	
4359	0	32848	32916	
4360	0	32848	32859	
4361	0	32720	32791	
4362	0	32894	32682	
4363	0	32864	32736	
4364	0	32764	32642	
4365	0	32828	32711	
4366	0	32752	32730	
4367	0	32704	32688	
4368	0	32676	32752	
4369	0	32768	32639	
4370	0	32744	32670	
4371	0	32792	32752	
4372	0	32778	32740	
4373	0	32692	32750	
4374	0	32812	32724	
4375	0	32860	32770	
4376	0	32768	32764	
4377	0	32812	32951	
4378	0	32740	32826	
4379	0	32724	32736	
4380	0	32844	32740	
4381	0	32874	32814	
4382	0	32864	32732	
4383	0	32828	32730	
4384	0	32796	32593	
4385	0	32820	32518	
4386	0	32804	32530	
4387	0	32856	32567	
4388	0	32922	32492	
4389	0	32896	32775	
4390	0	32984	32910	
4391	0	33010	33064	
4392	0	32964	32972	
4393	0	32880	32854	
4394	0	32848	32678	
4395	0	32834	32582	
4396	0	32870	32340	
4397	0	32906	32304	
4398	0	32968	32535	
4399	0	32868	32770	
4400	0	32724	32871	
4401	0	32792	32990	
4402	0	32800	33128	
4403	0	32772	32903	
4404	0	32762	33054	
4405	0	32692	32958	
4406	0	32616	33012	
4407	0	32484	33046	
4408	0	32516	32970	
4409	0	32408	33112	
4410	0	32500	33064	
4411	0	32540	33072	
4412	0	32660	32988	
4413	0	32652	32774	
4414	0	32720	32763	
4415	0	32816	32722	
4416	0	32868	32766	
4417	0	32920	32700	
4418	0	32840	32640	
4419	0	32818	32672	
4420	0	32948	32622	
4421	0	32772	32610	
4422	0	32840	32572	
4423	0	32822	32660	
4424	0	32876	32646	
4425	0	32840	32572	
4426	0	32908	32497	
4427	0	32816	32526	
4428	0	32844	32542	
4429	0	32876	32634	
4430	0	32916	32628	
4431	0	32900	32666	
4432	0	32834	32646	
4433	0	32852	32678	
4434	0	32894	32866	
4435	0	32882	32898	
4436	0	32880	32775	
4437	0	32916	32704	
4438	0	32882	32736	
4439	0	32914	32692	
4440	0	32972	32670	
4441	0	32824	32614	
4442	0	32780	32692	
4443	0	32756	32694	
4444	0	32740	32698	
4445	0	32752	32758	
4446	0	32808	32863	
4447	0	32770	32852	
4448	0	32732	32775	
4449	0	32814	32807	
4450	0	32848	32798	
4451	0	32864	32818	
4452	0	32832	32766	
4453	0	32780	32727	
4454	0	32814	32829	
4455	0	32764	32743	
4456	0	32712	32726	
4457	0	32730	32730	
4458	0	32832	32702	
4459	0	32812	32731	
4460	0	32834	32759	
4461	0	32784	32625	
4462	0	32834	32750	
4463	0	32964	32831	
4464	0	33162	32936	
4465	0	32984	32884	
4466	0	32732	32638	
4467	0	32808	32735	
4468	0	32806	32711	
4469	0	32844	32800	
4470	0	32728	32775	
4471	0	32676	32656	
4472	0	32732	32738	
4473	0	32821	32628	
4474	0	32822	32871	
4475	0	32840	32756	
4476	0	32868	32788	
4477	0	32860	32790	
4478	0	32850	32732	
4479	0	32864	32718	
4480	0	32810	32742	
4481	0	32804	32867	
4482	0	32820	32864	
4483	0	32804	32846	
4484	0	32762	32764	
4485	0	32848	32788	
4486	0	32860	32732	
4487	0	32868	32775	
4488	0	32888	32815	
4489	0	32892	32838	
4490	0	32952	32838	
4491	0	32932	32756	
4492	0	32868	32775	
4493	0	32840	32892	
4494	0	32968	32796	
4495	0	32908	32834	
4496	0	32920	32867	
4497	0	32832	32910	
4498	0	32880	32898	
4499	0	32716	32800	
4500	0	32702	32706	
4501	0	32692	32693	
4502	0	32784	32602	
4503	0	32774	32644	
4504	0	32776	32572	
4505	0	32824	32788	
4506	0	32964	32942	
4507	0	32880	32942	
4508	0	32816	32956	
4509	0	32570	32628	
4510	0	32672	32448	
4511	0	32686	32685	
4512	0	32700	32753	
4513	0	32684	32646	
4514	0	32740	32664	
4515	0	32940	32678	
4516	0	32796	32792	
4517	0	32740	32845	
4518	0	32700	32775	
4519	0	32724	32838	
4520	0	32732	32878	
4521	0	32800	32814	
4522	0	32756	32890	
4523	0	32708	32868	
4524	0	32628	32764	
4525	0	32628	32666	
4526	0	32628	32679	
4527	0	32572	32762	
4528	0	32572	32789	
4529	0	32612	32826	
4530	0	32674	32838	
4531	0	32790	32863	
4532	0	32794	33002	
4533	0	32852	33015	
4534	0	32828	32975	
4535	0	32775	32775	
4536	0	32752	32764	
4537	0	32885	32736	
4538	0	32816	32623	
4539	0	32716	32761	
4540	0	32736	32775	
4541	0	32742	32766	
4542	0	32832	32728	
4543	0	32816	32663	
4544	0	32834	32734	
4545	0	32698	32756	
4546	0	32720	32708	
4547	0	32762	32824	
4548	0	32770	32972	
4549	0	32864	32866	
4550	0	32902	32830	
4551	0	32842	32750	
4552	0	32820	32658	
4553	0	32840	32788	
4554	0	32656	32618	
4555	0	32760	32664	
4556	0	32888	32708	
4557	0	32918	32668	
4558	0	32862	32678	
4559	0	32762	32516	
4560	0	32752	32592	
4561	0	32744	32711	
4562	0	32775	32630	
4563	0	32786	32742	
4564	0	32804	32724	
4565	0	32862	32718	
4566	0	32826	32772	
4567	0	32796	32676	
4568	0	32800	32695	
4569	0	32844	32798	
4570	0	32836	32864	
4571	0	32848	32828	
4572	0	32918	32807	
4573	0	32816	32784	
4574	0	32792	32775	
4575	0	32772	32738	
4576	0	32864	32903	
4577	0	32820	32846	
4578	0	32746	32806	
4579	0	32752	32898	
4580	0	32830	32820	
4581	0	32912	33019	
4582	0	32920	33048	
4583	0	32764	32862	
4584	0	32760	32718	
4585	0	32752	32612	
4586	0	32666	32708	
4587	0	32678	32794	
4588	0	32692	32708	
4589	0	32732	32775	
4590	0	32912	32805	
4591	0	32824	32838	
4592	0	32788	32712	
4593	0	32878	32658	
4594	0	32848	32623	
4595	0	32880	32716	
4596	0	32964	32676	
4597	0	32948	32758	
4598	0	32966	32740	
4599	0	32910	32762	
4600	0	32946	32816	
4601	0	32952	32702	
4602	0	32820	32646	
4603	0	32800	32703	
4604	0	32804	32817	
4605	0	32752	32850	
4606	0	32750	32878	
4607	0	32714	32890	
4608	0	32671	32820	
4609	0	32812	32719	
4610	0	32780	32627	
4611	0	32834	32644	
4612	0	32870	32775	
4613	0	32894	32760	
4614	0	32860	32712	
4615	0	32864	32742	
4616	0	32808	32724	
4617	0	32824	32704	
4618	0	32824	32710	
4619	0	32834	32810	
4620	0	32936	32926	
4621	0	32948	32970	
4622	0	32832	32868	
4623	0	32804	32746	
4624	0	32762	32738	
4625	0	32712	32840	
4626	0	32766	32775	
4627	0	32776	32770	
4628	0	32868	32775	
4629	0	32734	32756	
4630	0	32844	32830	
4631	0	32774	32836	
4632	0	32808	32775	
4633	0	32796	32830	
4634	0	32816	32836	
4635	0	32820	32959	
4636	0	32732	32808	
4637	0	32676	32838	
4638	0	32725	32750	
4639	0	32728	32754	
4640	0	32834	32724	
4641	0	32816	32682	
4642	0	32852	32680	
4643	0	32852	32704	
4644	0	32888	32752	
4645	0	32836	32828	
4646	0	32794	32695	
4647	0	32880	32588	
4648	0	32836	32580	
4649	0	32826	32688	
4650	0	32858	32724	
4651	0	32886	32822	
4652	0	32856	32818	
4653	0	32876	32950	
4654	0	32876	32928	
4655	0	32886	32926	
4656	0	32852	32742	
4657	0	32860	32743	
4658	0	32796	32804	
4659	0	32836	32876	
4660	0	32724	32810	
4661	0	32744	32724	
4662	0	32694	32712	
4663	0	32728	32724	
4664	0	32832	32726	
4665	0	32752	32820	
4666	0	32732	32772	
4667	0	32662	32742	
4668	0	32770	32747	
4669	0	32862	32862	
4670	0	32852	32876	
4671	0	32856	32818	
4672	0	32836	32796	
4673	0	32860	32840	
4674	0	32808	32756	
4675	0	32820	32858	
4676	0	32900	32827	
4677	0	32847	32794	
4678	0	32804	32826	
4679	0	32756	32762	
4680	0	32872	32796	
4681	0	32870	32831	
4682	0	32818	32822	
4683	0	32736	32687	
4684	0	32836	32574	
4685	0	32744	32596	
4686	0	32856	32574	
4687	0	32802	32645	
4688	0	32828	32764	
4689	0	32880	32730	
4690	0	32844	32720	
4691	0	32846	32792	
4692	0	32844	32812	
4693	0	32862	32696	
4694	0	32808	32786	
4695	0	32864	32798	
4696	0	32784	32812	
4697	0	32832	32831	
4698	0	32834	32752	
4699	0	32836	32775	
4700	0	32764	32788	
4701	0	32756	32758	
4702	0	32768	32804	
4703	0	32890	32836	
4704	0	32836	32816	
4705	0	32860	32759	
4706	0	32820	32832	
4707	0	32858	32866	
4708	0	32934	32926	
4709	0	32920	32800	
4710	0	32828	32719	
4711	0	32800	32718	
4712	0	32776	32696	
4713	0	32720	32742	
4714	0	32752	32686	
4715	0	32788	32676	
4716	0	32840	32852	
4717	0	32752	32750	
4718	0	32626	32631	
4719	0	32846	32806	
4720	0	33004	32806	
4721	0	32928	32788	
4722	0	32836	32740	
4723	0	32736	32625	
4724	0	32736	32616	
4725	0	32798	32692	
4726	0	32716	32740	
4727	0	32764	32631	
4728	0	32724	32588	
4729	0	32760	32732	
4730	0	32780	32794	
4731	0	32838	32870	
4732	0	32852	32876	
4733	0	32936	32734	
4734	0	32956	32698	
4735	0	32900	32746	
4736	0	32882	32602	
4737	0	32894	32700	
4738	0	32792	32751	
4739	0	32808	32706	
4740	0	32796	32704	
4741	0	32818	32878	
4742	0	32780	32759	
4743	0	32892	32782	
4744	0	32768	32774	
4745	0	32772	32716	
4746	0	32786	32768	
4747	0	32712	32679	
4748	0	32868	32718	
4749	0	32772	32756	
4750	0	32806	32859	
4751	0	32848	32810	
4752	0	32828	32800	
4753	0	32849	32796	
4754	0	32879	32757	
4755	0	32894	32775	
4756	0	32812	32734	
4757	0	32804	32774	
4758	0	32788	32704	
4759	0	32888	32852	
4760	0	32784	32876	
4761	0	32818	32884	
4762	0	32789	32836	
4763	0	32852	32884	
4764	0	32790	32804	
4765	0	32746	32726	
4766	0	32772	32754	
4767	0	32784	32758	
4768	0	32746	32714	
4769	0	32774	32754	
4770	0	32892	32694	
4771	0	32820	32759	
4772	0	32836	32785	
4773	0	32800	32728	
4774	0	32860	32704	
4775	0	32836	32775	
4776	0	32812	32654	
4777	0	32896	32744	
4778	0	32854	32849	
4779	0	32828	32800	
4780	0	32816	32775	
4781	0	32812	32882	
4782	0	32818	32748	
4783	0	32766	32706	
4784	0	32782	32716	
4785	0	32808	32670	
4786	0	32816	32757	
4787	0	32804	32732	
4788	0	32850	32734	
4789	0	32760	32620	
4790	0	32820	32801	
4791	0	32820	32806	
4792	0	32798	32760	
4793	0	32800	32710	
4794	0	32924	32792	
4795	0	32824	32695	
4796	0	32712	32770	
4797	0	32814	32618	
4798	0	32804	32716	
4799	0	32748	32686	
4800	0	32800	32866	
4801	0	32916	32916	
4802	0	32876	32793	
4803	0	32888	32788	
4804	0	32894	32807	
4805	0	32964	32754	
4806	0	32660	32602	
4807	0	32632	32610	
4808	0	32836	32716	
4809	0	32900	32820	
4810	0	32900	32764	
4811	0	32746	32896	
4812	0	32832	32986	
4813	0	32832	32612	
4814	0	32804	32594	
4815	0	32956	32690	
4816	0	32792	32760	
4817	0	32880	32746	
4818	0	32881	32814	
4819	0	32828	32814	
4820	0	32774	32852	
4821	0	32780	32771	
4822	0	32862	32690	
4823	0	32808	32732	
4824	0	32760	32690	
4825	0	32796	32731	
4826	0	32788	32821	
4827	0	32772	32810	
4828	0	32730	32862	
4829	0	32760	32722	
4830	0	32820	32800	
4831	0	32842	32840	
4832	0	32868	32700	
4833	0	32832	32760	
4834	0	32804	32700	
4835	0	32788	32758	
4836	0	32772	32770	
4837	0	32888	32804	
4838	0	32888	32966	
4839	0	32922	32983	
4840	0	32812	32814	
4841	0	32810	32652	
4842	0	32780	32766	
4843	0	32726	32748	
4844	0	32716	32694	
4845	0	32770	32718	
4846	0	32764	32748	
4847	0	32840	32682	
4848	0	32766	32727	
4849	0	32844	32772	
4850	0	32844	32709	
4851	0	32742	32760	
4852	0	32752	32774	
4853	0	32832	32744	
4854	0	32856	32660	
4855	0	32850	32680	
4856	0	32884	32728	
4857	0	32884	32762	
4858	0	32834	32679	
4859	0	32836	32676	
4860	0	32844	32828	
4861	0	32868	32876	
4862	0	32860	32854	
4863	0	32928	32864	
4864	0	32816	32832	
4865	0	32798	32836	
4866	0	32856	32774	
4867	0	32816	32906	
4868	0	32798	32658	
4869	0	32716	32606	
4870	0	32792	32618	
4871	0	32780	32676	
4872	0	32808	32802	
4873	0	32724	32775	
4874	0	32820	32834	
4875	0	32810	32817	
4876	0	32768	32804	
4877	0	32776	32788	
4878	0	32786	32714	
4879	0	32764	32743	
4880	0	32768	32750	
4881	0	32780	32832	
4882	0	32740	32734	
4883	0	32866	32718	
4884	0	32818	32628	
4885	0	32768	32652	
4886	0	32704	32642	
4887	0	32716	32690	
4888	0	32774	32788	
4889	0	32756	32775	
4890	0	32732	32775	
4891	0	32761	32752	
4892	0	32776	32702	
4893	0	32744	32762	
4894	0	32868	32754	
4895	0	32887	32834	
4896	0	32902	32760	
4897	0	32930	32817	
4898	0	32968	32800	
4899	0	32836	32684	
4900	0	32824	32816	
4901	0	32844	32726	
4902	0	32908	32832	
4903	0	32788	32724	
4904	0	32672	32582	
4905	0	32636	32678	
4906	0	32680	32670	
4907	0	32676	32638	
4908	0	32840	32806	
4909	0	32900	32876	
4910	0	32968	32898	
4911	0	33064	32938	
4912	0	32996	32846	
4913	0	32866	32812	
4914	0	32846	32672	
4915	0	32788	32650	
4916	0	32728	32614	
4917	0	32776	32660	
4918	0	32804	32799	
4919	0	32752	32784	
4920	0	32788	32798	
4921	0	32736	32834	
4922	0	32746	32812	
4923	0	32792	32784	
4924	0	32790	32724	
4925	0	32816	32775	
4926	0	32720	32722	
4927	0	32812	32775	
4928	0	32816	32756	
4929	0	32798	32870	
4930	0	32812	32712	
4931	0	32743	32764	
4932	0	32816	32818	
4933	0	32844	32838	
4934	0	32846	32812	
4935	0	32810	32817	
4936	0	32864	32724	
4937	0	32900	32712	
4938	0	32840	32668	
4939	0	32796	32719	
4940	0	32788	32734	
4941	0	32800	32700	
4942	0	32824	32732	
4943	0	32766	32712	
4944	0	32792	32728	
4945	0	32768	32746	
4946	0	32760	32830	
4947	0	32744	32760	
4948	0	32818	32732	
4949	0	32792	32800	
4950	0	32793	32692	
4951	0	32820	32734	
4952	0	32788	32676	
4953	0	32848	32830	
4954	0	32908	32864	
4955	0	32922	32870	
4956	0	32836	32910	
4957	0	32824	32771	
4958	0	32824	32736	
4959	0	32760	32688	
4960	0	32816	32672	
4961	0	32880	32710	
4962	0	32760	32706	
4963	0	32768	32680	
4964	0	32820	32742	
4965	0	32832	32728	
4966	0	32778	32751	
4967	0	32849	32884	
4968	0	32802	32772	
4969	0	32784	32736	
4970	0	32760	32722	
4971	0	32736	32760	
4972	0	32876	32734	
4973	0	32916	32727	
4974	0	32822	32708	
4975	0	32784	32798	
4976	0	32858	32728	
4977	0	32856	32700	
4978	0	32748	32614	
4979	0	32756	32692	
4980	0	32692	32676	
4981	0	32800	32652	
4982	0	32736	32602	
4983	0	32828	32706	
4984	0	32888	32662	
4985	0	32852	32746	
4986	0	32772	32788	
4987	0	32848	32820	
4988	0	32828	32884	
4989	0	32822	32884	
4990	0	32814	32810	
4991	0	32849	32746	
4992	0	32826	32821	
4993	0	32772	32788	
4994	0	32798	32754	
4995	0	32760	32700	
4996	0	32766	32773	
4997	0	32778	32768	
4998	0	32756	32796	
4999	0	32752	32695	
5000	0	32856	32740	
5001	0	32760	32711	
5002	0	32636	32644	
5003	0	32716	32686	
5004	0	33032	32800	
5005	0	33164	32994	
5006	0	33084	32940	
5007	0	32920	32852	
5008	0	32804	32892	
5009	0	32772	32758	
5010	0	32720	32668	
5011	0	32724	32604	
5012	0	32766	32762	
5013	0	32762	32748	
5014	0	32844	32744	
5015	0	32786	32832	
5016	0	32810	32836	
5017	0	32812	32775	
5018	0	32814	32655	
5019	0	32810	32695	
5020	0	32784	32689	
5021	0	32774	32810	
5022	0	32772	32703	
5023	0	32772	32775	
5024	0	32808	32704	
5025	0	32810	32775	
5026	0	32768	32774	
5027	0	32738	32711	
5028	0	32788	32764	
5029	0	32777	32720	
5030	0	32794	32705	
5031	0	32834	32762	
5032	0	32882	32790	
5033	0	32884	32866	
5034	0	32830	32808	
5035	0	32830	32858	
5036	0	32852	32815	
5037	0	32780	32738	
5038	0	32810	32830	
5039	0	32738	32680	
5040	0	32820	32710	
5041	0	32820	32743	
5042	0	32728	32846	
5043	0	32774	32739	
5044	0	32752	32756	
5045	0	32746	32799	
5046	0	32876	32706	
5047	0	32840	32756	
5048	0	32750	32816	
5049	0	32792	32854	
5050	0	32972	32836	
5051	0	32888	32934	
5052	0	32786	32687	
5053	0	32692	32742	
5054	0	32886	32618	
5055	0	33054	32832	
5056	0	32936	32756	
5057	0	32848	32828	
5058	0	32836	32842	
5059	0	32812	32772	
5060	0	32756	32793	
5061	0	32804	32724	
5062	0	32764	32740	
5063	0	32756	32711	
5064	0	32732	32796	
5065	0	32738	32774	
5066	0	32714	32728	
5067	0	32716	32704	
5068	0	32770	32668	
5069	0	32792	32775	
5070	0	32824	32706	
5071	0	32814	32810	
5072	0	32818	32687	
5073	0	32752	32762	
5074	0	32860	32704	
5075	0	32840	32756	
5076	0	32906	32798	
5077	0	32888	32862	
5078	0	32780	32747	
5079	0	32788	32714	
5080	0	32788	32791	
5081	0	32800	32774	
5082	0	32746	32618	
5083	0	32792	32750	
5084	0	32784	32644	
5085	0	32760	32762	
5086	0	32834	32828	
5087	0	32869	32768	
5088	0	32804	32808	
5089	0	32822	32764	
5090	0	32808	32770	
5091	0	32776	32824	
5092	0	32842	32666	
5093	0	32916	32786	
5094	0	32900	32815	
5095	0	32884	32816	
5096	0	32868	32790	
5097	0	32862	32676	
5098	0	32845	32670	
5099	0	32808	32818	
5100	0	32832	32734	
5101	0	32784	32793	
5102	0	32792	32816	
5103	0	32774	32750	
5104	0	32756	32711	
5105	0	32740	32721	
5106	0	32782	32832	
5107	0	32852	32796	
5108	0	32828	32624	
5109	0	32780	32812	
5110	0	32872	32836	
5111	0	32864	32729	
5112	0	32831	32809	
5113	0	32798	32700	
5114	0	32834	32844	
5115	0	32868	32794	
5116	0	32868	32674	
5117	0	32864	32748	
5118	0	32872	32750	
5119	0	32808	32775	
5120	0	32816	32769	
5121	0	32676	32656	
5122	0	32756	32760	
5123	0	32832	32926	
5124	0	32864	32775	
5125	0	32854	32752	
5126	0	32854	32714	
5127	0	32700	32785	
5128	0	32716	32775	
5129	0	32768	32682	
5130	0	32778	32844	
5131	0	32836	32820	
5132	0	32794	32816	
5133	0	32814	32724	
5134	0	32854	32680	
5135	0	32916	32736	
5136	0	32974	32664	
5137	0	32976	32558	
5138	0	32956	32704	
5139	0	32912	32719	
5140	0	32932	32652	
5141	0	32992	32663	
5142	0	32984	32602	
5143	0	32960	32577	
5144	0	32904	32628	
5145	0	32888	32712	
5146	0	32838	32735	
5147	0	32788	32696	
5148	0	32796	32764	
5149	0	32881	32734	
5150	0	32994	32828	
5151	0	32964	32770	
5152	0	32958	32736	
5153	0	32876	32858	
5154	0	32834	32767	
5155	0	32708	32756	
5156	0	32772	32860	
5157	0	32670	32830	
5158	0	32644	32794	
5159	0	32640	33072	
5160	0	32654	33098	
5161	0	32520	33070	
5162	0	32396	33088	
5163	0	32344	33132	
5164	0	32418	33223	
5165	0	32480	33102	
5166	0	32550	32992	
5167	0	32616	32924	
5168	0	32712	32774	
5169	0	32736	32855	
5170	0	32740	32804	
5171	0	32710	32774	
5172	0	32818	32732	
5173	0	32904	32636	
5174	0	32896	32756	
5175	0	32974	32636	
5176	0	32932	32670	
5177	0	32934	32692	
5178	0	32954	32606	
5179	0	32914	32652	
5180	0	32936	32577	
5181	0	32916	32646	
5182	0	32892	32692	
5183	0	32880	32532	
5184	0	32878	32634	
5185	0	32912	32662	
5186	0	32852	32688	
5187	0	32872	32754	
5188	0	32820	32756	
5189	0	32832	32767	
5190	0	32748	32822	
5191	0	32784	32775	
5192	0	32852	32836	
5193	0	32802	32812	
5194	0	32868	32676	
5195	0	32850	32796	
5196	0	32798	32767	
5197	0	32760	32751	
5198	0	32788	32775	
5199	0	32849	32756	
5200	0	32772	32703	
5201	0	32780	32838	
5202	0	32784	32826	
5203	0	32804	32826	
5204	0	32770	32842	
5205	0	32818	32775	
5206	0	32758	32670	
5207	0	32768	32732	
5208	0	32734	32826	
5209	0	32768	32694	
5210	0	32772	32766	
5211	0	32868	32756	
5212	0	32858	32743	
5213	0	32932	32804	
5214	0	33012	32769	
5215	0	32772	32708	
5216	0	32894	32696	
5217	0	32844	32807	
5218	0	32816	32864	
5219	0	32834	32758	
5220	0	32768	32890	
5221	0	32844	32684	
5222	0	32810	32820	
5223	0	32756	32758	
5224	0	32760	32661	
5225	0	32760	32682	
5226	0	32816	32775	
5227	0	32804	32743	
5228	0	32836	32738	
5229	0	32828	32808	
5230	0	32772	32704	
5231	0	32810	32882	
5232	0	32820	32866	
5233	0	32856	32764	
5234	0	32858	32808	
5235	0	32828	32830	
5236	0	32856	32758	
5237	0	32836	32756	
5238	0	32828	32692	
5239	0	32820	32871	
5240	0	32788	32855	
5241	0	32804	32712	
5242	0	32850	32775	
5243	0	32784	32671	
5244	0	32732	32793	
5245	0	32764	32836	
5246	0	32828	32742	
5247	0	32844	32820	
5248	0	32804	32762	
5249	0	32764	32849	
5250	0	32760	32804	
5251	0	32842	32692	
5252	0	32804	32775	
5253	0	32824	32775	
5254	0	32820	32743	
5255	0	32832	32743	
5256	0	32890	32624	
5257	0	32868	32756	
5258	0	32788	32799	
5259	0	32806	32718	
5260	0	32820	32724	
5261	0	32784	32710	
5262	0	32800	32760	
5263	0	32716	32866	
5264	0	32746	32698	
5265	0	32852	32805	
5266	0	32884	32838	
5267	0	32776	32722	
5268	0	32850	32674	
5269	0	32810	32775	
5270	0	32808	32762	
5271	0	32860	32824	
5272	0	32839	32791	
5273	0	32780	32734	
5274	0	32848	32846	
5275	0	32842	32940	
5276	0	32824	32702	
5277	0	32820	32682	
5278	0	32880	32684	
5279	0	32804	32658	
5280	0	32778	32818	
5281	0	32772	32828	
5282	0	32772	32740	
5283	0	32850	32855	
5284	0	32712	32818	
5285	0	32744	32620	
5286	0	32776	32732	
5287	0	32757	32714	
5288	0	32804	32775	
5289	0	32782	32674	
5290	0	32804	32718	
5291	0	32802	32806	
5292	0	32884	32775	
5293	0	32832	32698	
5294	0	32816	32766	
5295	0	32900	32694	
5296	0	32800	32820	
5297	0	32808	32860	
5298	0	32856	32775	
5299	0	32798	32775	
5300	0	32822	32756	
5301	0	32780	32734	
5302	0	32788	32852	
5303	0	32800	32668	
5304	0	32816	32774	
5305	0	32788	32734	
5306	0	32796	32832	
5307	0	32702	32846	
5308	0	32774	32682	
5309	0	32728	32740	
5310	0	32792	32807	
5311	0	32840	32838	
5312	0	32904	32775	
5313	0	32840	32672	
5314	0	32843	32746	
5315	0	32832	32830	
5316	0	32792	32764	
5317	0	32804	32872	
5318	0	32806	32672	
5319	0	32824	32756	
5320	0	32889	32815	
5321	0	32836	32780	
5322	0	32848	32847	
5323	0	32740	32680	
5324	0	32730	32711	
5325	0	32768	32834	
5326	0	32788	32724	
5327	0	32772	32732	
5328	0	32780	32756	
5329	0	32824	32752	
5330	0	32848	32814	
5331	0	32812	32758	
5332	0	32792	32800	
5333	0	32848	32724	
5334	0	32822	32788	
5335	0	32824	32772	
5336	0	32856	32711	
5337	0	32880	32743	
5338	0	32804	32718	
5339	0	32832	32864	
5340	0	32783	32796	
5341	0	32828	32775	
5342	0	32784	32864	
5343	0	32840	32772	
5344	0	32770	32750	
5345	0	32836	32794	
5346	0	32760	32838	
5347	0	32700	32826	
5348	0	32764	32884	
5349	0	32864	32794	
5350	0	32774	32710	
5351	0	32918	32707	
5352	0	32872	32838	
5353	0	32796	32860	
5354	0	32862	32668	
5355	0	32840	32868	
5356	0	32880	32850	
5357	0	32824	32756	
5358	0	32846	32748	
5359	0	32732	32728	
5360	0	32770	32666	
5361	0	32828	32826	
5362	0	32764	32711	
5363	0	32680	32764	
5364	0	32780	32736	
5365	0	32764	32772	
5366	0	32792	32720	
5367	0	32772	32660	
5368	0	32866	32817	
5369	0	32780	32720	
5370	0	32820	32812	
5371	0	32774	32771	
5372	0	32804	32682	
5373	0	32792	32678	
5374	0	32800	32676	
5375	0	32838	32759	
5376	0	32852	32692	
5377	0	32842	32775	
5378	0	32808	32868	
5379	0	32844	32735	
5380	0	32786	32775	
5381	0	32752	32855	
5382	0	32820	32746	
5383	0	32750	32708	
5384	0	32766	32820	
5385	0	32736	32856	
5386	0	32800	32770	
5387	0	32760	32634	
5388	0	32854	32775	
5389	0	32826	32775	
5390	0	32774	32750	
5391	0	32872	32718	
5392	0	32858	32839	
5393	0	32916	32640	
5394	0	32902	32770	
5395	0	32836	32736	
5396	0	32788	32750	
5397	0	32792	32862	
5398	0	32806	32844	
5399	0	32784	32775	
5400	0	32732	32862	
5401	0	32852	32770	
5402	0	32800	32775	
5403	0	32812	32716	
5404	0	32776	32754	
5405	0	32820	32689	
5406	0	32744	32867	
5407	0	32848	32896	
5408	0	32780	32775	
5409	0	32736	32789	
5410	0	32772	32677	
5411	0	32860	32712	
5412	0	32844	32758	
5413	0	32808	32743	
5414	0	32868	32746	
5415	0	32790	32724	
5416	0	32836	32820	
5417	0	32808	32806	
5418	0	32868	32792	
5419	0	32808	32862	
5420	0	32804	32839	
5421	0	32780	32784	
5422	0	32746	32858	
5423	0	32780	32743	
5424	0	32832	32805	
5425	0	32798	32806	
5426	0	32854	32822	
5427	0	32834	32746	
5428	0	32764	32832	
5429	0	32796	32832	
5430	0	32824	32729	
5431	0	32860	32764	
5432	0	32840	32716	
5433	0	32896	32822	
5434	0	32784	32727	
5435	0	32816	32846	
5436	0	32864	32786	
5437	0	32856	32690	
5438	0	32852	32775	
5439	0	32788	32798	
5440	0	32772	32711	
5441	0	32808	32832	
5442	0	32772	32864	
5443	0	32816	32784	
5444	0	32784	32892	
5445	0	32832	32724	
5446	0	32740	32760	
5447	0	32824	32860	
5448	0	32856	32775	
5449	0	32896	32775	
5450	0	32856	32679	
5451	0	32772	32744	
5452	0	32864	32821	
5453	0	32916	32708	
5454	0	32860	32636	
5455	0	32892	32670	
5456	0	32856	32775	
5457	0	32852	32712	
5458	0	32818	32624	
5459	0	32836	32699	
5460	0	32821	32708	
5461	0	32808	32732	
5462	0	32810	32700	
5463	0	32846	32580	
5464	0	32752	32738	
5465	0	32816	32750	
5466	0	32824	32758	
5467	0	32752	32756	
5468	0	32804	32630	
5469	0	32840	32751	
5470	0	32798	32690	
5471	0	32836	32647	
5472	0	32864	32728	
5473	0	32836	32692	
5474	0	32810	32722	
5475	0	32812	32772	
5476	0	32868	32728	
5477	0	32784	32834	
5478	0	32720	32759	
5479	0	32816	32567	
5480	0	32804	32740	
5481	0	32716	32725	
5482	0	32804	32664	
5483	0	32768	32795	
5484	0	32704	32663	
5485	0	32718	32594	
5486	0	32772	32821	
5487	0	32804	32775	
5488	0	32874	32690	
5489	0	32776	32802	
5490	0	32832	32839	
5491	0	32752	32688	
5492	0	32830	32731	
5493	0	32804	32798	
5494	0	32912	32697	
5495	0	32812	32816	
5496	0	32844	32758	
5497	0	32828	32798	
5498	0	32848	32803	
5499	0	32798	32692	
5500	0	32788	32794	
5501	0	32784	32740	
5502	0	32876	32695	
5503	0	32804	32710	
5504	0	32836	32820	
5505	0	32776	32720	
5506	0	32804	32772	
5507	0	32817	32766	
5508	0	32762	32760	
5509	0	32804	32774	
5510	0	32788	32668	
5511	0	32816	32847	
5512	0	32862	32802	
5513	0	32882	32711	
5514	0	32894	32742	
5515	0	32834	32798	
5516	0	32858	32791	
5517	0	32826	32820	
5518	0	32776	32854	
5519	0	32828	32630	
5520	0	32846	32814	
5521	0	32832	32842	
5522	0	32764	32736	
5523	0	32764	32852	
5524	0	32810	32754	
5525	0	32764	32604	
5526	0	32760	32774	
5527	0	32826	32886	
5528	0	32766	32766	
5529	0	32860	32816	
5530	0	32804	32830	
5531	0	32792	32711	
5532	0	32868	32746	
5533	0	32820	32884	
5534	0	32856	32796	
5535	0	32820	32804	
5536	0	32860	32775	
5537	0	32808	32822	
5538	0	32860	32742	
5539	0	32788	32799	
5540	0	32846	32913	
5541	0	32796	32723	
5542	0	32688	32832	
5543	0	32800	32920	
5544	0	32816	32822	
5545	0	32778	32814	
5546	0	32816	32820	
5547	0	32832	32826	
5548	0	32812	32942	
5549	0	32824	32864	
5550	0	32788	32858	
5551	0	32800	32700	
5552	0	32764	32816	
5553	0	32844	32726	
5554	0	32840	32748	
5555	0	32804	32847	
5556	0	32824	32758	
5557	0	32832	32775	
5558	0	32840	32824	
5559	0	32843	32804	
5560	0	32804	32820	
5561	0	32744	32750	
5562	0	32744	32724	
5563	0	32820	32751	
5564	0	32792	32769	
5565	0	32800	32832	
5566	0	32764	32752	
5567	0	32822	32748	
5568	0	32728	32852	
5569	0	32856	32770	
5570	0	32804	32714	
5571	0	32826	32754	
5572	0	32788	32668	
5573	0	32884	32775	
5574	0	32864	32775	
5575	0	32866	32700	
5576	0	32884	32784	
5577	0	32816	32742	
5578	0	32864	32760	
5579	0	32786	32775	
5580	0	32756	32716	
5581	0	32844	32728	
5582	0	32796	32728	
5583	0	32804	32750	
5584	0	32852	32834	
5585	0	32808	32760	
5586	0	32764	32849	
5587	0	32774	32828	
5588	0	32816	32870	
5589	0	32776	32834	
5590	0	32856	32670	
5591	0	32878	32814	
5592	0	32852	32764	
5593	0	32824	32844	
5594	0	32832	32804	
5595	0	32760	32749	
5596	0	32812	32897	
5597	0	32714	32828	
5598	0	32788	32684	
5599	0	32772	32754	
5600	0	32756	32736	
5601	0	32780	32618	
5602	0	32816	32846	
5603	0	32712	32771	
5604	0	32756	32721	
5605	0	32828	32702	
5606	0	32804	32638	
5607	0	32788	32728	
5608	0	32764	32743	
5609	0	32790	32784	
5610	0	32782	32798	
5611	0	32904	32794	
5612	0	32844	32756	
5613	0	32824	32799	
5614	0	32816	32734	
5615	0	32844	32699	
5616	0	32796	32806	
5617	0	32878	32806	
5618	0	32832	32702	
5619	0	32808	32810	
5620	0	32806	32712	
5621	0	32744	32794	
5622	0	32782	32805	
5623	0	32800	32740	
5624	0	32732	32838	
5625	0	32724	32692	
5626	0	32720	32743	
5627	0	32726	32708	
5628	0	32864	32686	
5629	0	32820	32718	
5630	0	32820	32668	
5631	0	32804	32746	
5632	0	32828	32871	
5633	0	32856	32714	
5634	0	32856	32852	
5635	0	32836	32855	
5636	0	32824	32908	
5637	0	32824	32817	
5638	0	32868	32846	
5639	0	32832	32810	
5640	0	32744	32863	
5641	0	32752	32724	
5642	0	32840	32770	
5643	0	32782	32679	
5644	0	32766	32844	
5645	0	32792	32844	
5646	0	32782	32794	
5647	0	32800	32775	
5648	0	32768	32684	
5649	0	32788	32702	
5650	0	32768	32640	
5651	0	32804	32756	
5652	0	32840	32716	
5653	0	32924	32815	
5654	0	32852	32790	
5655	0	32828	32752	
5656	0	32818	32796	
5657	0	32864	32694	
5658	0	32860	32836	
5659	0	32782	32716	
5660	0	32844	32768	
5661	0	32792	32647	
5662	0	32820	32768	
5663	0	32816	32708	
5664	0	32806	32808	
5665	0	32760	32718	
5666	0	32708	32774	
5667	0	32724	32684	
5668	0	32772	32826	
5669	0	32806	32671	
5670	0	32802	32902	
5671	0	32804	32766	
5672	0	32868	32784	
5673	0	32900	32796	
5674	0	32864	32775	
5675	0	32850	32802	
5676	0	32790	32684	
5677	0	32862	32844	
5678	0	32832	32667	
5679	0	32874	32742	
5680	0	32836	32716	
5681	0	32788	32872	
5682	0	32792	32775	
5683	0	32828	32682	
5684	0	32792	32820	
5685	0	32772	32752	
5686	0	32752	32748	
5687	0	32828	32690	
5688	0	32836	32702	
5689	0	32816	32692	
5690	0	32852	32826	
5691	0	32836	32880	
5692	0	32832	32830	
5693	0	32872	32764	
5694	0	32922	32718	
5695	0	32812	32728	
5696	0	32872	32678	
5697	0	32852	32744	
5698	0	32836	32807	
5699	0	32820	32711	
5700	0	32792	32764	
5701	0	32828	32689	
5702	0	32748	32758	
5703	0	32808	32700	
5704	0	32721	32818	
5705	0	32764	32790	
5706	0	32798	32838	
5707	0	32740	32810	
5708	0	32842	32774	
5709	0	32772	32790	
5710	0	32744	32692	
5711	0	32804	32714	
5712	0	32798	32768	
5713	0	32824	32772	
5714	0	32828	32838	
5715	0	32888	32716	
5716	0	32836	32738	
5717	0	32880	32730	
5718	0	32860	32874	
5719	0	32820	32798	
5720	0	32772	32840	
5721	0	32802	32775	
5722	0	32788	32746	
5723	0	32798	32686	
5724	0	32780	32858	
5725	0	32808	32734	
5726	0	32818	32702	
5727	0	32824	32716	
5728	0	32740	32828	
5729	0	32822	32678	
5730	0	32792	32808	
5731	0	32832	32800	
5732	0	32804	32775	
5733	0	32832	32792	
5734	0	32868	32702	
5735	0	32852	32868	
5736	0	32884	32816	
5737	0	32836	32706	
5738	0	32860	32798	
5739	0	32834	32702	
5740	0	32812	32790	
5741	0	32804	32738	
5742	0	32844	32775	
5743	0	32768	32710	
5744	0	32782	32838	
5745	0	32800	32758	
5746	0	32728	32774	
5747	0	32780	32874	
5748	0	32798	32767	
5749	0	32778	32748	
5750	0	32824	32660	
5751	0	32792	32814	
5752	0	32804	32746	
5753	0	32872	32704	
5754	0	32864	32707	
5755	0	32840	32734	
5756	0	32844	32775	
5757	0	32822	32798	
5758	0	32800	32824	
5759	0	32808	32743	
5760	0	32784	32892	
5761	0	32766	32772	
5762	0	32836	32742	
5763	0	32784	32726	
5764	0	32805	32768	
5765	0	32772	32743	
5766	0	32804	32734	
5767	0	32756	32755	
5768	0	32784	32772	
5769	0	32782	32799	
5770	0	32876	32775	
5771	0	32824	32726	
5772	0	32864	32722	
5773	0	32890	32775	
5774	0	32804	32830	
5775	0	32866	32716	
5776	0	32832	32711	
5777	0	32812	32740	
5778	0	32828	32702	
5779	0	32864	32818	
5780	0	32836	32832	
5781	0	32762	32724	
5782	0	32770	32814	
5783	0	32824	32740	
5784	0	32764	32750	
5785	0	32788	32692	
5786	0	32783	32786	
5787	0	32730	32814	
5788	0	32842	32692	
5789	0	32788	32892	
5790	0	32826	32714	
5791	0	32784	32743	
5792	0	32796	32848	
5793	0	32780	32678	
5794	0	32792	32802	
5795	0	32818	32664	
5796	0	32888	32764	
5797	0	32902	32718	
5798	0	32852	32770	
5799	0	32786	32832	
5800	0	32858	32671	
5801	0	32836	32814	
5802	0	32789	32689	
5803	0	32800	32865	
5804	0	32828	32846	
5805	0	32794	32775	
5806	0	32784	32743	
5807	0	32772	32673	
5808	0	32804	32644	
5809	0	32848	32602	
5810	0	32712	32796	
5811	0	32760	32775	
5812	0	32876	32884	
5813	0	32868	32692	
5814	0	32794	32811	
5815	0	32876	32729	
5816	0	32844	32724	
5817	0	32852	32772	
5818	0	32840	32794	
5819	0	32820	32624	
5820	0	32718	32728	
5821	0	32794	32668	
5822	0	32790	32852	
5823	0	32832	32830	
5824	0	32794	32831	
5825	0	32756	32792	
5826	0	32780	32770	
5827	0	32820	32804	
5828	0	32764	32749	
5829	0	32828	32768	
5830	0	32760	32775	
5831	0	32820	32770	
5832	0	32852	32775	
5833	0	32836	32720	
5834	0	32856	32812	
5835	0	32860	32876	
5836	0	32844	32746	
5837	0	32848	32858	
5838	0	32864	32748	
5839	0	32820	32759	
5840	0	32784	32800	
5841	0	32784	32720	
5842	0	32844	32742	
5843	0	32828	32665	
5844	0	32720	32808	
5845	0	32772	32775	
5846	0	32798	32730	
5847	0	32816	32738	
5848	0	32764	32630	
5849	0	32824	32828	
5850	0	32844	32710	
5851	0	32804	32784	
5852	0	32850	32792	
5853	0	32852	32711	
5854	0	32898	32806	
5855	0	32844	32692	
5856	0	32838	32798	
5857	0	32840	32775	
5858	0	32852	32710	
5859	0	32828	32843	
5860	0	32834	32855	
5861	0	32740	32854	
5862	0	32826	32770	
5863	0	32788	32792	
5864	0	32802	32774	
5865	0	32760	32642	
5866	0	32796	32711	
5867	0	32812	32725	
5868	0	32780	32824	
5869	0	32784	32794	
5870	0	32783	32742	
5871	0	32820	32830	
5872	0	32894	32672	
5873	0	32800	32766	
5874	0	32836	32736	
5875	0	32848	32774	
5876	0	32858	32732	
5877	0	32872	32686	
5878	0	32792	32847	
5879	0	32842	32854	
5880	0	32776	32820	
5881	0	32736	32805	
5882	0	32808	32834	
5883	0	32778	32788	
5884	0	32732	32740	
5885	0	32762	32736	
5886	0	32802	32764	
5887	0	32856	32720	
5888	0	32902	32670	
5889	0	32926	32664	
5890	0	32936	32690	
5891	0	32924	32738	
5892	0	32938	32687	
5893	0	32986	32526	
5894	0	32956	32662	
5895	0	32974	32636	
5896	0	33008	32580	
5897	0	32962	32602	
5898	0	32920	32773	
5899	0	32906	32733	
5900	0	32904	32738	
5901	0	32928	32604	
5902	0	32880	32806	
5903	0	32960	32736	
5904	0	32884	32674	
5905	0	32900	32775	
5906	0	32766	32756	
5907	0	32756	32916	
5908	0	32668	32856	
5909	0	32696	32820	
5910	0	32636	32887	
5911	0	32686	32820	
5912	0	32638	32960	
5913	0	32540	32956	
5914	0	32472	33031	
5915	0	32401	33048	
5916	0	32420	33168	
5917	0	32488	33218	
5918	0	32566	33063	
5919	0	32618	32996	
5920	0	32653	32860	
5921	0	32704	32903	
5922	0	32744	32775	
5923	0	32808	32799	
5924	0	32834	32746	
5925	0	32839	32802	
5926	0	32848	32751	
5927	0	32798	32551	
5928	0	32860	32676	
5929	0	32936	32542	
5930	0	32988	32594	
5931	0	32968	32476	
5932	0	32966	32644	
5933	0	32928	32684	
5934	0	32993	32500	
5935	0	32962	32628	
5936	0	32968	32668	
5937	0	33008	32628	
5938	0	32918	32744	
5939	0	32868	32672	
5940	0	32908	32764	
5941	0	32812	32767	
5942	0	32824	32748	
5943	0	32736	32647	
5944	0	32768	32764	
5945	0	32682	32732	
5946	0	32828	32852	
5947	0	32738	32862	
5948	0	32812	32678	
5949	0	32775	32766	
5950	0	32868	32734	
5951	0	32768	32830	
5952	0	32736	32895	
5953	0	32880	32796	
5954	0	32788	32775	
5955	0	32812	32770	
5956	0	32828	32772	
5957	0	32832	32687	
5958	0	32874	32764	
5959	0	32848	32871	
5960	0	32762	32720	
5961	0	32808	32724	
5962	0	32808	32694	
5963	0	32824	32823	
5964	0	32760	32822	
5965	0	32796	32709	
5966	0	32808	32775	
5967	0	32808	32728	
5968	0	32752	32748	
5969	0	32844	32743	
5970	0	32812	32720	
5971	0	32849	32882	
5972	0	32809	32804	
5973	0	32876	32766	
5974	0	32856	32758	
5975	0	32844	32822	
5976	0	32832	32852	
5977	0	32796	32736	
5978	0	32868	32832	
5979	0	32860	32728	
5980	0	32844	32808	
5981	0	32810	32775	
5982	0	32788	32706	
5983	0	32752	32810	
5984	0	32762	32712	
5985	0	32788	32790	
5986	0	32880	32734	
5987	0	32748	32682	
5988	0	32764	32848	
5989	0	32820	32825	
5990	0	32824	32775	
5991	0	32808	32800	
5992	0	32856	32691	
5993	0	32868	32794	
5994	0	32900	32679	
5995	0	32860	32768	
5996	0	32800	32788	
5997	0	32810	32741	
5998	0	32892	32820	
5999	0	32780	32687	
6000	0	32816	32772	
6001	0	32764	32712	
6002	0	32792	32842	
6003	0	32780	32711	
6004	0	32726	32626	
6005	0	32772	32716	
6006	0	32832	32700	
6007	0	32808	32764	
6008	0	32848	32789	
6009	0	32790	32804	
6010	0	32878	32662	
6011	0	32868	32644	
6012	0	32810	32784	
