# OpenSignals Text File Format. Version 1
# {"00:07:80:8C:0A:39": {"position": 0, "device": "biosignalsplux", "device name": "00:07:80:8C:0A:39", "device connection": "BTH00:07:80:8C:0A:39", "sampling rate": 1000, "resolution": [16, 16], "firmware version": 776, "comments": "", "keywords": "", "mode": 0, "sync interval": 2, "date": "2023-3-19", "time": "11:10:13.958", "channels": [1, 2], "sensor": ["EMG", "EMG"], "label": ["CH1", "CH2"], "column": ["nSeq", "DI", "CH1", "CH2"], "special": [{"SpO2": [80, 40, 5, 4, 3, 3]}, {"SpO2": [80, 40, 5, 4, 3, 3]}, {"SpO2": [80, 40, 5, 4, 3, 3]}, {"SpO2": [80, 40, 5, 4, 3, 3]}, {"SpO2": [80, 40, 5, 4, 3, 3]}, {"SpO2": [80, 40, 5, 4, 3, 3]}, {"SpO2": [80, 40, 5, 4, 3, 3]}, {"SpO2": [80, 40, 5, 4, 3, 3]}], "digital IO": [0, 1], "sleeve color": ["gray", "yellow"], "convertedValues": 0}}
# EndOfHeader
0	0	32752	32839	
1	0	32784	32862	
2	0	32834	32870	
3	0	32760	32786	
4	0	32804	32782	
5	0	32846	32870	
6	0	32812	32756	
7	0	32864	32788	
8	0	32836	32788	
9	0	32896	32906	
10	0	32800	32830	
11	0	32868	32754	
12	0	32794	32752	
13	0	32824	32721	
14	0	32852	32775	
15	0	32828	32756	
16	0	32744	32812	
17	0	32856	32775	
18	0	32804	32882	
19	0	32768	32774	
20	0	32868	32718	
21	0	32748	32702	
22	0	32784	32724	
23	0	32796	32850	
24	0	32754	32768	
25	0	32782	32686	
26	0	32750	32812	
27	0	32804	32740	
28	0	32856	32727	
29	0	32808	32622	
30	0	32812	32592	
31	0	32852	32742	
32	0	32794	32710	
33	0	32816	32740	
34	0	32876	32775	
35	0	32784	32690	
36	0	32752	32701	
37	0	32720	32668	
38	0	32776	32588	
39	0	32852	32418	
40	0	32846	32548	
41	0	32788	32662	
42	0	32740	32682	
43	0	32862	32653	
44	0	32908	32656	
45	0	32854	32736	
46	0	32826	32583	
47	0	32838	32693	
48	0	32868	32686	
49	0	32828	32696	
50	0	32868	32695	
51	0	32760	32640	
52	0	32878	32622	
53	0	32782	32668	
54	0	32828	32647	
55	0	32868	32688	
56	0	32800	32642	
57	0	32812	32600	
58	0	32822	32790	
59	0	32878	32764	
60	0	32844	32775	
61	0	32830	32890	
62	0	32912	32786	
63	0	32900	32768	
64	0	32840	32806	
65	0	32856	32802	
66	0	32762	32726	
67	0	32836	32730	
68	0	32836	32817	
69	0	32860	32900	
70	0	32818	32830	
71	0	32778	32796	
72	0	32840	32810	
73	0	32832	32849	
74	0	32800	32965	
75	0	32788	32884	
76	0	32864	32806	
77	0	32872	32757	
78	0	32792	32786	
79	0	32894	32736	
80	0	32778	32756	
81	0	32678	32828	
82	0	32684	32802	
83	0	32722	32792	
84	0	32812	32774	
85	0	32794	32750	
86	0	32826	32936	
87	0	32832	32938	
88	0	32896	32794	
89	0	32810	32890	
90	0	32900	32815	
91	0	32942	32958	
92	0	32932	32830	
93	0	32868	33045	
94	0	32840	33018	
95	0	32808	33036	
96	0	32828	33075	
97	0	32876	33056	
98	0	32844	32967	
99	0	32906	33025	
100	0	32868	32956	
101	0	32874	33004	
102	0	32884	33054	
103	0	32856	32938	
104	0	32772	32908	
105	0	32724	32806	
106	0	32766	32839	
107	0	32725	32958	
108	0	32760	32858	
109	0	32788	32716	
110	0	32834	32734	
111	0	32800	32604	
112	0	32826	32558	
113	0	32784	32714	
114	0	32866	32654	
115	0	32774	32678	
116	0	32804	32774	
117	0	32872	32736	
118	0	32776	32690	
119	0	32834	32775	
120	0	32774	32718	
121	0	32724	32696	
122	0	32800	32728	
123	0	32784	32793	
124	0	32792	32700	
125	0	32970	32774	
126	0	32894	32802	
127	0	32900	32761	
128	0	32884	32794	
129	0	32936	32790	
130	0	32924	32798	
131	0	32896	32748	
132	0	32770	32749	
133	0	32762	32808	
134	0	32784	32874	
135	0	32736	32858	
136	0	32802	32855	
137	0	32804	32798	
138	0	32740	32735	
139	0	32868	32668	
140	0	32826	32544	
141	0	32836	32746	
142	0	32778	32804	
143	0	32784	32740	
144	0	32846	32832	
145	0	32814	32754	
146	0	32728	32732	
147	0	32700	32614	
148	0	32682	32752	
149	0	32704	32732	
150	0	32628	32724	
151	0	32618	32872	
152	0	32655	32838	
153	0	32600	32866	
154	0	32508	32806	
155	0	32776	32738	
156	0	32656	32712	
157	0	32696	32792	
158	0	32774	32676	
159	0	32740	32686	
160	0	32856	32678	
161	0	32900	32803	
162	0	32808	32791	
163	0	32784	32750	
164	0	32724	32814	
165	0	32682	32728	
166	0	32608	32804	
167	0	32664	32746	
168	0	32840	32711	
169	0	33010	32654	
170	0	32960	32720	
171	0	32892	32700	
172	0	32948	32748	
173	0	32880	32796	
174	0	32832	32784	
175	0	32728	32712	
176	0	32674	32663	
177	0	32660	32702	
178	0	32564	32647	
179	0	32832	32628	
180	0	32986	32610	
181	0	32748	32700	
182	0	33076	32694	
183	0	33025	32540	
184	0	33098	32746	
185	0	33052	32716	
186	0	32836	32712	
187	0	32600	32666	
188	0	32530	32714	
189	0	32656	32854	
190	0	32684	32864	
191	0	32744	32916	
192	0	32884	32978	
193	0	32840	32806	
194	0	32864	32804	
195	0	32818	32811	
196	0	32712	32888	
197	0	32746	32775	
198	0	32736	32671	
199	0	32936	32695	
200	0	32924	32619	
201	0	33072	32724	
202	0	33060	32679	
203	0	33080	32702	
204	0	32920	32718	
205	0	32802	32798	
206	0	32836	32766	
207	0	32780	32810	
208	0	32780	32756	
209	0	32758	32775	
210	0	32808	32836	
211	0	32796	32852	
212	0	32756	32820	
213	0	32756	32842	
214	0	32798	32828	
215	0	32836	32876	
216	0	32774	32804	
217	0	32816	32766	
218	0	32842	32744	
219	0	32784	32775	
220	0	32790	32775	
221	0	32838	32710	
222	0	32876	32772	
223	0	32872	32856	
224	0	32878	32868	
225	0	32880	32872	
226	0	32788	32799	
227	0	32824	32743	
228	0	32870	32750	
229	0	32808	32734	
230	0	32796	32775	
231	0	32852	32714	
232	0	32881	32700	
233	0	32828	32791	
234	0	32788	32823	
235	0	32890	32756	
236	0	32886	32903	
237	0	32816	32940	
238	0	32746	32850	
239	0	32822	32856	
240	0	32848	32806	
241	0	32824	32807	
242	0	32796	32816	
243	0	32636	32728	
244	0	32616	32614	
245	0	32796	32625	
246	0	32802	32700	
247	0	32774	32714	
248	0	32988	32774	
249	0	32988	32750	
250	0	32988	32775	
251	0	32970	32838	
252	0	32852	32764	
253	0	32670	32770	
254	0	32788	32894	
255	0	32812	32810	
256	0	32820	32978	
257	0	32920	32834	
258	0	32728	32679	
259	0	32852	32806	
260	0	32956	32756	
261	0	32804	32678	
262	0	32816	32750	
263	0	32718	32670	
264	0	32756	32655	
265	0	32738	32672	
266	0	32768	32636	
267	0	32944	32646	
268	0	32970	32656	
269	0	32862	32804	
270	0	32888	32775	
271	0	32920	32670	
272	0	32950	32696	
273	0	32962	32886	
274	0	32632	32836	
275	0	32404	32628	
276	0	32320	32634	
277	0	32420	32612	
278	0	32682	32578	
279	0	32775	32526	
280	0	32748	32600	
281	0	32908	32635	
282	0	32952	32769	
283	0	32960	32736	
284	0	32796	32814	
285	0	32840	32888	
286	0	33026	32646	
287	0	32972	32510	
288	0	32880	32567	
289	0	33008	32800	
290	0	32948	32775	
291	0	32912	32742	
292	0	32874	32596	
293	0	32914	32640	
294	0	32892	32632	
295	0	32888	32708	
296	0	32708	32740	
297	0	32748	32726	
298	0	32704	32612	
299	0	32924	32687	
300	0	32988	32692	
301	0	33068	32750	
302	0	32928	32688	
303	0	32784	32807	
304	0	32724	32732	
305	0	32672	32762	
306	0	32569	32895	
307	0	32624	32761	
308	0	32696	32804	
309	0	32764	32793	
310	0	32768	32798	
311	0	32704	32775	
312	0	32728	32839	
313	0	32732	32862	
314	0	32664	32760	
315	0	32784	32775	
316	0	32788	32790	
317	0	32738	32862	
318	0	32788	32870	
319	0	32804	32852	
320	0	32760	32862	
321	0	32808	32914	
322	0	32728	32839	
323	0	32706	32863	
324	0	32713	32836	
325	0	32682	32781	
326	0	32674	32820	
327	0	32720	32743	
328	0	32722	32762	
329	0	32716	32672	
330	0	32792	32734	
331	0	32856	32678	
332	0	32906	32624	
333	0	32840	32708	
334	0	32876	32565	
335	0	32748	32544	
336	0	32796	32584	
337	0	32898	32534	
338	0	33060	32614	
339	0	33124	32646	
340	0	33092	32620	
341	0	32944	32665	
342	0	32796	32799	
343	0	32858	32775	
344	0	32856	32818	
345	0	32900	32853	
346	0	32968	32750	
347	0	33064	32702	
348	0	32986	32704	
349	0	32940	32784	
350	0	32868	32838	
351	0	32708	32952	
352	0	32744	33006	
353	0	32552	33116	
354	0	32500	33204	
355	0	32480	33264	
356	0	32446	33380	
357	0	32420	33648	
358	0	32576	33512	
359	0	32664	33279	
360	0	32865	33031	
361	0	32824	32924	
362	0	32832	32954	
363	0	32878	32868	
364	0	32832	32794	
365	0	32764	32786	
366	0	32740	32719	
367	0	32788	32630	
368	0	32978	32604	
369	0	32880	32646	
370	0	32904	32535	
371	0	32916	32407	
372	0	32772	32384	
373	0	32916	32422	
374	0	33130	32339	
375	0	33014	32400	
376	0	33014	32447	
377	0	33186	32558	
378	0	33138	32704	
379	0	32976	32828	
380	0	32772	32775	
381	0	32664	32618	
382	0	32648	32519	
383	0	32496	32542	
384	0	32452	32564	
385	0	32904	32662	
386	0	33330	32766	
387	0	33332	32844	
388	0	33264	32814	
389	0	32862	32772	
390	0	32688	32606	
391	0	32662	32519	
392	0	32680	32536	
393	0	32628	32530	
394	0	32592	32544	
395	0	32694	32642	
396	0	32706	32600	
397	0	32728	32645	
398	0	32640	32615	
399	0	32654	32636	
400	0	32606	32608	
401	0	32628	32596	
402	0	32616	32572	
403	0	32684	32590	
404	0	32521	32658	
405	0	32441	32710	
406	0	32404	32647	
407	0	32420	32775	
408	0	32556	32678	
409	0	32702	32772	
410	0	32768	32830	
411	0	32846	32783	
412	0	32928	32840	
413	0	32748	32894	
414	0	32732	32932	
415	0	32772	33010	
416	0	32740	33054	
417	0	32826	32890	
418	0	32804	32852	
419	0	32788	32810	
420	0	32802	32796	
421	0	32788	32902	
422	0	32816	32802	
423	0	32764	32852	
424	0	32832	32728	
425	0	32784	32820	
426	0	32762	32836	
427	0	32816	32786	
428	0	32928	32711	
429	0	32880	32712	
430	0	32866	32760	
431	0	32922	32633	
432	0	32960	32788	
433	0	32854	32797	
434	0	32916	32772	
435	0	32844	32830	
436	0	32936	32743	
437	0	32932	32770	
438	0	32936	32804	
439	0	32876	32812	
440	0	32884	32858	
441	0	32816	32874	
442	0	32952	32910	
443	0	32936	32867	
444	0	32910	32814	
445	0	32901	32842	
446	0	32948	32844	
447	0	32920	32771	
448	0	32842	32775	
449	0	32856	32932	
450	0	32853	32912	
451	0	32846	32874	
452	0	32888	32868	
453	0	32928	32812	
454	0	32912	32711	
455	0	32904	32830	
456	0	32960	32908	
457	0	32936	32818	
458	0	32900	32839	
459	0	32816	32770	
460	0	32960	32687	
461	0	32876	32671	
462	0	32888	32654	
463	0	32876	32618	
464	0	32860	32614	
465	0	32812	32704	
466	0	32936	32728	
467	0	32920	32700	
468	0	32952	32732	
469	0	33004	32731	
470	0	33022	32682	
471	0	33072	32692	
472	0	33088	32702	
473	0	33196	32708	
474	0	33144	32727	
475	0	33284	32774	
476	0	33192	32790	
477	0	33206	32788	
478	0	33200	32775	
479	0	33190	32726	
480	0	33136	32724	
481	0	33248	32692	
482	0	33188	32720	
483	0	33294	32743	
484	0	33440	32676	
485	0	33484	32712	
486	0	33562	32617	
487	0	33654	32748	
488	0	33800	32786	
489	0	33828	32775	
490	0	33936	32821	
491	0	34024	32772	
492	0	34256	32834	
493	0	34412	32844	
494	0	34570	32850	
495	0	34364	32676	
496	0	34034	32692	
497	0	33668	32820	
498	0	33102	32844	
499	0	32628	32794	
500	0	32330	32730	
501	0	32164	32794	
502	0	31996	32650	
503	0	31732	32708	
504	0	31742	32826	
505	0	31690	32770	
506	0	31598	32714	
507	0	31602	32672	
508	0	31630	32756	
509	0	31716	32668	
510	0	31880	32796	
511	0	31976	32642	
512	0	32104	32604	
513	0	32152	32772	
514	0	32240	32847	
515	0	32120	32764	
516	0	31972	32704	
517	0	31686	32960	
518	0	31516	32876	
519	0	31381	32870	
520	0	31372	32842	
521	0	31534	32734	
522	0	31668	32775	
523	0	31836	32740	
524	0	31980	32724	
525	0	32052	32799	
526	0	32102	32730	
527	0	32112	32783	
528	0	32164	32666	
529	0	32288	32696	
530	0	32320	32720	
531	0	32444	32660	
532	0	32528	32775	
533	0	32624	32743	
534	0	32736	32732	
535	0	32812	32732	
536	0	32817	32736	
537	0	32832	32728	
538	0	32748	32724	
539	0	32624	32791	
540	0	32588	32756	
541	0	32530	32840	
542	0	32472	32812	
543	0	32704	32664	
544	0	33116	32724	
545	0	33412	32670	
546	0	33572	32687	
547	0	33624	32650	
548	0	33604	32687	
549	0	33512	32711	
550	0	33532	32682	
551	0	33392	32643	
552	0	33390	32652	
553	0	33380	32746	
554	0	33226	32794	
555	0	33204	32796	
556	0	33236	32798	
557	0	33096	32714	
558	0	32994	32746	
559	0	33090	32730	
560	0	32932	32770	
561	0	33088	32774	
562	0	33028	32800	
563	0	33100	32896	
564	0	33118	32832	
565	0	33072	32881	
566	0	32980	32770	
567	0	33030	32726	
568	0	32816	32740	
569	0	32910	32710	
570	0	32732	32726	
571	0	32696	32678	
572	0	32674	32622	
573	0	32668	32710	
574	0	32696	32720	
575	0	32624	32721	
576	0	32606	32666	
577	0	32706	32644	
578	0	32700	32762	
579	0	32697	32768	
580	0	32686	32700	
581	0	32676	32726	
582	0	32792	32734	
583	0	32812	32680	
584	0	32862	32714	
585	0	32842	32688	
586	0	32866	32708	
587	0	32892	32772	
588	0	32876	32842	
589	0	32964	32903	
590	0	32908	32840	
591	0	32884	32786	
592	0	32864	32775	
593	0	32884	32808	
594	0	32832	32754	
595	0	32924	32839	
596	0	32882	32871	
597	0	32908	32884	
598	0	32836	32822	
599	0	32882	32802	
600	0	32830	32870	
601	0	32848	32804	
602	0	32884	32746	
603	0	32760	32708	
604	0	32758	32794	
605	0	32750	32804	
606	0	32784	32830	
607	0	32804	32759	
608	0	32842	32838	
609	0	32808	32860	
610	0	32824	32748	
611	0	32902	32771	
612	0	32880	32788	
613	0	32864	32770	
614	0	32928	32760	
615	0	32868	32844	
616	0	32834	32722	
617	0	32892	32911	
618	0	32868	32768	
619	0	32830	32894	
620	0	32832	32895	
621	0	32828	32898	
622	0	32824	32840	
623	0	32804	32726	
624	0	32812	32768	
625	0	32724	32762	
626	0	32736	32732	
627	0	32780	32743	
628	0	32810	32724	
629	0	32744	32772	
630	0	32750	32694	
631	0	32756	32723	
632	0	32752	32695	
633	0	32760	32657	
634	0	32776	32644	
635	0	32776	32700	
636	0	32708	32618	
637	0	32756	32655	
638	0	32740	32646	
639	0	32780	32772	
640	0	32775	32666	
641	0	32854	32721	
642	0	32776	32840	
643	0	32724	32950	
644	0	32756	32890	
645	0	32784	32767	
646	0	32758	32775	
647	0	32794	32825	
648	0	32806	32792	
649	0	32748	32766	
650	0	32752	32807	
651	0	32700	32708	
652	0	32752	32876	
653	0	32802	32733	
654	0	32800	32832	
655	0	32808	32807	
656	0	32788	32709	
657	0	32772	32817	
658	0	32694	32695	
659	0	32748	32655	
660	0	32762	32660	
661	0	32724	32742	
662	0	32652	32902	
663	0	32744	32794	
664	0	32716	32664	
665	0	32718	32740	
666	0	32708	32808	
667	0	32672	32775	
668	0	32712	32811	
669	0	32714	32711	
670	0	32758	32702	
671	0	32760	32702	
672	0	32824	32759	
673	0	32776	32710	
674	0	32804	32764	
675	0	32774	32759	
676	0	32856	32741	
677	0	32776	32775	
678	0	32764	32708	
679	0	32812	32672	
680	0	32752	32634	
681	0	32812	32632	
682	0	32864	32658	
683	0	32830	32682	
684	0	32740	32704	
685	0	32840	32660	
686	0	32849	32654	
687	0	32758	32676	
688	0	32760	32678	
689	0	32820	32704	
690	0	32842	32673	
691	0	32786	32770	
692	0	32812	32775	
693	0	32846	32714	
694	0	32894	32716	
695	0	32852	32790	
696	0	32896	32830	
697	0	32892	32807	
698	0	32823	32823	
699	0	32828	32718	
700	0	32908	32775	
701	0	32936	32820	
702	0	32936	32796	
703	0	32884	32739	
704	0	32820	32792	
705	0	32912	32848	
706	0	32869	32806	
707	0	32810	32728	
708	0	32866	32647	
709	0	32836	32789	
710	0	32828	32732	
711	0	32846	32714	
712	0	32924	32828	
713	0	32892	32852	
714	0	32920	32871	
715	0	32900	32808	
716	0	32826	32764	
717	0	32884	32768	
718	0	32928	32864	
719	0	32870	32744	
720	0	32944	32752	
721	0	32940	32734	
722	0	32944	32824	
723	0	32864	32824	
724	0	32836	32804	
725	0	32828	32768	
726	0	32848	32679	
727	0	32788	32788	
728	0	32800	32846	
729	0	32801	32854	
730	0	32820	32750	
731	0	32800	32775	
732	0	32816	32870	
733	0	32888	32772	
734	0	32850	32760	
735	0	32788	32800	
736	0	32858	32832	
737	0	32818	32742	
738	0	32782	32683	
739	0	32844	32796	
740	0	32852	32798	
741	0	32898	32796	
742	0	32844	32758	
743	0	32772	32728	
744	0	32828	32829	
745	0	32838	32710	
746	0	32886	32727	
747	0	32804	32647	
748	0	32832	32702	
749	0	32804	32662	
750	0	32764	32740	
751	0	32820	32724	
752	0	32864	32687	
753	0	32836	32710	
754	0	32832	32620	
755	0	32872	32672	
756	0	32844	32696	
757	0	32800	32647	
758	0	32756	32660	
759	0	32824	32788	
760	0	32871	32708	
761	0	32844	32756	
762	0	32876	32815	
763	0	32758	32823	
764	0	32812	32764	
765	0	32794	32738	
766	0	32844	32880	
767	0	32808	32820	
768	0	32854	32831	
769	0	32816	32844	
770	0	32832	32775	
771	0	32789	32775	
772	0	32806	32684	
773	0	32824	32770	
774	0	32764	32704	
775	0	32880	32728	
776	0	32808	32724	
777	0	32830	32814	
778	0	32792	32708	
779	0	32840	32687	
780	0	32804	32724	
781	0	32802	32673	
782	0	32836	32768	
783	0	32840	32766	
784	0	32728	32775	
785	0	32750	32804	
786	0	32774	32740	
787	0	32780	32788	
788	0	32708	32728	
789	0	32860	32750	
790	0	32784	32710	
791	0	32832	32727	
792	0	32788	32846	
793	0	32822	32844	
794	0	32720	32863	
795	0	32736	32724	
796	0	32784	32698	
797	0	32848	32650	
798	0	32836	32720	
799	0	32832	32748	
800	0	32716	32815	
801	0	32852	32806	
802	0	32744	32812	
803	0	32882	32712	
804	0	32872	32752	
805	0	32772	32770	
806	0	32820	32792	
807	0	32832	32710	
808	0	32842	32844	
809	0	32856	32816	
810	0	32816	32830	
811	0	32852	32870	
812	0	32786	32774	
813	0	32768	32832	
814	0	32766	32884	
815	0	32856	32926	
816	0	32842	32784	
817	0	32796	32742	
818	0	32894	32754	
819	0	32804	32852	
820	0	32804	32838	
821	0	32836	32750	
822	0	32848	32762	
823	0	32772	32775	
824	0	32789	32752	
825	0	32832	32775	
826	0	32840	32838	
827	0	32756	32764	
828	0	32798	32826	
829	0	32842	32830	
830	0	32852	32804	
831	0	32816	32789	
832	0	32862	32744	
833	0	32868	32760	
834	0	32776	32836	
835	0	32804	32820	
836	0	32808	32706	
837	0	32780	32692	
838	0	32802	32748	
839	0	32786	32684	
840	0	32864	32775	
841	0	32828	32772	
842	0	32852	32708	
843	0	32862	32692	
844	0	32788	32700	
845	0	32836	32714	
846	0	32832	32788	
847	0	32764	32660	
848	0	32744	32644	
849	0	32785	32758	
850	0	32848	32720	
851	0	32784	32606	
852	0	32744	32673	
853	0	32814	32734	
854	0	32812	32660	
855	0	32800	32615	
856	0	32792	32680	
857	0	32772	32876	
858	0	32792	32814	
859	0	32862	32814	
860	0	32874	32742	
861	0	32848	32816	
862	0	32846	32788	
863	0	32804	32852	
864	0	32834	32836	
865	0	32774	32842	
866	0	32768	32875	
867	0	32782	32795	
868	0	32800	32740	
869	0	32728	32724	
870	0	32728	32714	
871	0	32704	32663	
872	0	32718	32732	
873	0	32750	32740	
874	0	32738	32794	
875	0	32740	32785	
876	0	32738	32788	
877	0	32732	32764	
878	0	32758	32702	
879	0	32668	32817	
880	0	32724	32870	
881	0	32768	32751	
882	0	32764	32724	
883	0	32784	32790	
884	0	32800	32810	
885	0	32774	32900	
886	0	32840	32864	
887	0	32796	32884	
888	0	32796	32742	
889	0	32852	32790	
890	0	32804	32762	
891	0	32850	32736	
892	0	32828	32846	
893	0	32792	32775	
894	0	32864	32834	
895	0	32862	32756	
896	0	32924	32820	
897	0	32838	32839	
898	0	32810	32798	
899	0	32804	32879	
900	0	32842	32839	
901	0	32874	32903	
902	0	32816	32819	
903	0	32794	32775	
904	0	32806	32748	
905	0	32760	32764	
906	0	32800	32852	
907	0	32796	32775	
908	0	32792	32798	
909	0	32796	32840	
910	0	32806	32868	
911	0	32802	32884	
912	0	32856	32853	
913	0	32832	32800	
914	0	32844	32804	
915	0	32828	32700	
916	0	32750	32706	
917	0	32792	32743	
918	0	32848	32748	
919	0	32876	32862	
920	0	32822	32792	
921	0	32903	32744	
922	0	32858	32830	
923	0	32882	32798	
924	0	32816	32814	
925	0	32884	32900	
926	0	32814	32858	
927	0	32796	32760	
928	0	32810	32792	
929	0	32760	32871	
930	0	32756	32832	
931	0	32788	32647	
932	0	32786	32674	
933	0	32750	32668	
934	0	32748	32788	
935	0	32764	32775	
936	0	32864	32734	
937	0	32844	32700	
938	0	32786	32847	
939	0	32808	32688	
940	0	32844	32676	
941	0	32828	32711	
942	0	32801	32657	
943	0	32862	32688	
944	0	32808	32750	
945	0	32810	32805	
946	0	32800	32775	
947	0	32828	32760	
948	0	32841	32678	
949	0	32792	32714	
950	0	32770	32704	
951	0	32800	32744	
952	0	32764	32816	
953	0	32748	32839	
954	0	32820	32748	
955	0	32810	32616	
956	0	32836	32694	
957	0	32830	32725	
958	0	32816	32725	
959	0	32794	32748	
960	0	32792	32728	
961	0	32784	32772	
962	0	32848	32750	
963	0	32856	32838	
964	0	32909	32891	
965	0	32864	32793	
966	0	32856	32770	
967	0	32852	32752	
968	0	32814	32740	
969	0	32840	32768	
970	0	32888	32775	
971	0	32864	32743	
972	0	32908	32732	
973	0	32912	32768	
974	0	32860	32846	
975	0	32844	32801	
976	0	32826	32748	
977	0	32826	32768	
978	0	32772	32678	
979	0	32850	32670	
980	0	32856	32644	
981	0	32870	32670	
982	0	32768	32804	
983	0	32812	32862	
984	0	32754	32728	
985	0	32746	32781	
986	0	32818	32800	
987	0	32802	32783	
988	0	32814	32839	
989	0	32778	32836	
990	0	32792	32654	
991	0	32828	32671	
992	0	32876	32716	
993	0	32765	32736	
994	0	32832	32834	
995	0	32808	32788	
996	0	32786	32818	
997	0	32788	32798	
998	0	32760	32756	
999	0	32860	32768	
1000	0	32818	32896	
1001	0	32864	32846	
1002	0	32836	32870	
1003	0	32764	32840	
1004	0	32814	32804	
1005	0	32808	32814	
1006	0	32844	32807	
1007	0	32784	32838	
1008	0	32832	32848	
1009	0	32804	32889	
1010	0	32844	32784	
1011	0	32838	32796	
1012	0	32782	32796	
1013	0	32840	32796	
1014	0	32784	32764	
1015	0	32812	32881	
1016	0	32808	32820	
1017	0	32792	32774	
1018	0	32840	32728	
1019	0	32870	32772	
1020	0	32860	32799	
1021	0	32788	32838	
1022	0	32822	32756	
1023	0	32794	32828	
1024	0	32872	32818	
1025	0	32802	32914	
1026	0	32802	32890	
1027	0	32836	32839	
1028	0	32788	32816	
1029	0	32750	32806	
1030	0	32784	32946	
1031	0	32804	32892	
1032	0	32736	32820	
1033	0	32732	32694	
1034	0	32724	32806	
1035	0	32794	32818	
1036	0	32828	32765	
1037	0	32808	32794	
1038	0	32756	32868	
1039	0	32770	32884	
1040	0	32804	32844	
1041	0	32776	32872	
1042	0	32864	32852	
1043	0	32804	32855	
1044	0	32836	32929	
1045	0	32836	32876	
1046	0	32810	32836	
1047	0	32868	32830	
1048	0	32836	32791	
1049	0	32828	32728	
1050	0	32794	32653	
1051	0	32892	32788	
1052	0	32820	32724	
1053	0	32804	32678	
1054	0	32756	32751	
1055	0	32730	32828	
1056	0	32834	32832	
1057	0	32802	32888	
1058	0	32812	32836	
1059	0	32842	32884	
1060	0	32860	32814	
1061	0	32860	32934	
1062	0	32896	32924	
1063	0	32896	32842	
1064	0	32866	32913	
1065	0	32898	32834	
1066	0	32944	32839	
1067	0	32878	32834	
1068	0	32910	32922	
1069	0	32788	32864	
1070	0	32832	32888	
1071	0	32820	32791	
1072	0	32758	32800	
1073	0	32792	32740	
1074	0	32856	32756	
1075	0	32824	32826	
1076	0	32830	32792	
1077	0	32912	32847	
1078	0	32898	32738	
1079	0	32890	32796	
1080	0	32772	32847	
1081	0	32888	32802	
1082	0	32752	32794	
1083	0	32876	32892	
1084	0	32760	32903	
1085	0	32772	32898	
1086	0	32832	32847	
1087	0	32784	32892	
1088	0	32832	32842	
1089	0	32834	32896	
1090	0	32818	32892	
1091	0	32784	32838	
1092	0	32838	32868	
1093	0	32768	32879	
1094	0	32872	32798	
1095	0	32764	32805	
1096	0	32810	32810	
1097	0	32756	32692	
1098	0	32730	32680	
1099	0	32818	32698	
1100	0	32812	32631	
1101	0	32767	32655	
1102	0	32792	32700	
1103	0	32826	32615	
1104	0	32775	32670	
1105	0	32848	32646	
1106	0	32760	32678	
1107	0	32808	32750	
1108	0	32844	32852	
1109	0	32744	32948	
1110	0	32816	32943	
1111	0	32846	32892	
1112	0	32868	32890	
1113	0	32760	32830	
1114	0	32775	32920	
1115	0	32868	32897	
1116	0	32830	32886	
1117	0	32882	32775	
1118	0	32836	32662	
1119	0	32884	32565	
1120	0	32864	32548	
1121	0	32890	32550	
1122	0	32905	32452	
1123	0	32892	32456	
1124	0	32908	32478	
1125	0	32900	32444	
1126	0	32868	32446	
1127	0	32868	32534	
1128	0	32928	32452	
1129	0	32972	32508	
1130	0	32936	32543	
1131	0	32972	32542	
1132	0	32904	32661	
1133	0	32932	32612	
1134	0	32932	32647	
1135	0	32956	32682	
1136	0	32928	32638	
1137	0	32928	32679	
1138	0	32866	32632	
1139	0	32784	32728	
1140	0	32744	32706	
1141	0	32742	32922	
1142	0	32686	32948	
1143	0	32570	32948	
1144	0	32506	33028	
1145	0	32452	33076	
1146	0	32408	33207	
1147	0	32266	33390	
1148	0	32296	33534	
1149	0	32328	33474	
1150	0	32508	33144	
1151	0	32648	33020	
1152	0	32740	32935	
1153	0	32720	32898	
1154	0	32804	32758	
1155	0	32812	32775	
1156	0	32758	32652	
1157	0	32798	32720	
1158	0	32918	32618	
1159	0	32788	32647	
1160	0	32836	32582	
1161	0	32936	32474	
1162	0	32932	32504	
1163	0	32916	32472	
1164	0	32984	32430	
1165	0	33012	32558	
1166	0	32944	32584	
1167	0	32896	32558	
1168	0	32896	32498	
1169	0	32956	32566	
1170	0	32860	32513	
1171	0	32840	32562	
1172	0	32892	32600	
1173	0	32898	32564	
1174	0	32882	32583	
1175	0	32848	32702	
1176	0	32808	32680	
1177	0	32846	32738	
1178	0	32868	32700	
1179	0	32776	32740	
1180	0	32804	32686	
1181	0	32874	32762	
1182	0	32865	32812	
1183	0	32840	32782	
1184	0	32774	32822	
1185	0	32760	32850	
1186	0	32720	32812	
1187	0	32782	32830	
1188	0	32788	32726	
1189	0	32708	32815	
1190	0	32828	32790	
1191	0	32784	32744	
1192	0	32834	32802	
1193	0	32700	32775	
1194	0	32736	32761	
1195	0	32792	32748	
1196	0	32752	32726	
1197	0	32808	32782	
1198	0	32860	32788	
1199	0	32794	32802	
1200	0	32828	32806	
1201	0	32836	32840	
1202	0	32800	32820	
1203	0	32788	32844	
1204	0	32816	32855	
1205	0	32884	32903	
1206	0	32820	32788	
1207	0	32800	32696	
1208	0	32796	32652	
1209	0	32838	32728	
1210	0	32836	32678	
1211	0	32826	32647	
1212	0	32792	32668	
1213	0	32812	32758	
1214	0	32874	32748	
1215	0	32816	32802	
1216	0	32772	32804	
1217	0	32902	32822	
1218	0	32816	32775	
1219	0	32836	32791	
1220	0	32870	32774	
1221	0	32902	32770	
1222	0	32896	32818	
1223	0	32864	32858	
1224	0	32860	32775	
1225	0	32824	32710	
1226	0	32856	32772	
1227	0	32856	32718	
1228	0	32864	32767	
1229	0	32820	32697	
1230	0	32872	32654	
1231	0	32788	32702	
1232	0	32792	32740	
1233	0	32780	32928	
1234	0	32804	32753	
1235	0	32808	32831	
1236	0	32840	32834	
1237	0	32816	32754	
1238	0	32780	32804	
1239	0	32824	32818	
1240	0	32810	32775	
1241	0	32828	32756	
1242	0	32758	32671	
1243	0	32808	32682	
1244	0	32852	32756	
1245	0	32830	32682	
1246	0	32846	32744	
1247	0	32812	32820	
1248	0	32770	32766	
1249	0	32860	32839	
1250	0	32816	32864	
1251	0	32843	32799	
1252	0	32776	32724	
1253	0	32828	32842	
1254	0	32831	32724	
1255	0	32788	32788	
1256	0	32848	32718	
1257	0	32860	32751	
1258	0	32706	32632	
1259	0	32820	32718	
1260	0	32788	32740	
1261	0	32868	32880	
1262	0	32772	32858	
1263	0	32832	32775	
1264	0	32808	32756	
1265	0	32832	32737	
1266	0	32772	32775	
1267	0	32888	32702	
1268	0	32760	32695	
1269	0	32784	32716	
1270	0	32756	32686	
1271	0	32808	32818	
1272	0	32780	32804	
1273	0	32800	32766	
1274	0	32750	32812	
1275	0	32808	32804	
1276	0	32804	32830	
1277	0	32800	32816	
1278	0	32832	32794	
1279	0	32832	32838	
1280	0	32820	32775	
1281	0	32784	32806	
1282	0	32806	32790	
1283	0	32790	32772	
1284	0	32784	32767	
1285	0	32816	32816	
1286	0	32788	32756	
1287	0	32788	32762	
1288	0	32740	32828	
1289	0	32796	32724	
1290	0	32836	32855	
1291	0	32756	32725	
1292	0	32816	32862	
1293	0	32852	32703	
1294	0	32820	32750	
1295	0	32788	32852	
1296	0	32788	32828	
1297	0	32736	32740	
1298	0	32752	32744	
1299	0	32824	32807	
1300	0	32784	32696	
1301	0	32804	32802	
1302	0	32764	32854	
1303	0	32784	32844	
1304	0	32794	32728	
1305	0	32804	32684	
1306	0	32800	32711	
1307	0	32820	32696	
1308	0	32812	32748	
1309	0	32816	32809	
1310	0	32830	32742	
1311	0	32816	32796	
1312	0	32836	32784	
1313	0	32812	32868	
1314	0	32826	32871	
1315	0	32768	32840	
1316	0	32826	32775	
1317	0	32794	32870	
1318	0	32832	32790	
1319	0	32814	32850	
1320	0	32810	32774	
1321	0	32904	32699	
1322	0	32810	32724	
1323	0	32800	32836	
1324	0	32748	32738	
1325	0	32838	32742	
1326	0	32802	32790	
1327	0	32788	32839	
1328	0	32756	32732	
1329	0	32772	32826	
1330	0	32828	32768	
1331	0	32838	32816	
1332	0	32864	32708	
1333	0	32817	32775	
1334	0	32820	32714	
1335	0	32724	32794	
1336	0	32798	32828	
1337	0	32892	32766	
1338	0	32840	32802	
1339	0	32824	32744	
1340	0	32822	32766	
1341	0	32778	32775	
1342	0	32804	32698	
1343	0	32788	32731	
1344	0	32768	32734	
1345	0	32808	32838	
1346	0	32872	32856	
1347	0	32802	32820	
1348	0	32804	32848	
1349	0	32748	32647	
1350	0	32796	32622	
1351	0	32756	32736	
1352	0	32836	32634	
1353	0	32776	32658	
1354	0	32766	32774	
1355	0	32804	32743	
1356	0	32824	32664	
1357	0	32788	32700	
1358	0	32832	32692	
1359	0	32828	32738	
1360	0	32756	32636	
1361	0	32834	32742	
1362	0	32842	32724	
1363	0	32846	32665	
1364	0	32808	32692	
1365	0	32844	32834	
1366	0	32818	32820	
1367	0	32880	32808	
1368	0	32860	32767	
1369	0	32824	32864	
1370	0	32838	32806	
1371	0	32844	32740	
1372	0	32812	32764	
1373	0	32874	32708	
1374	0	32880	32880	
1375	0	32804	32859	
1376	0	32844	32816	
1377	0	32802	32855	
1378	0	32784	32814	
1379	0	32798	32725	
1380	0	32864	32765	
1381	0	32808	32680	
1382	0	32884	32679	
1383	0	32854	32694	
1384	0	32868	32692	
1385	0	32770	32708	
1386	0	32848	32743	
1387	0	32812	32734	
1388	0	32802	32710	
1389	0	32738	32817	
1390	0	32768	32812	
1391	0	32808	32812	
1392	0	32756	32828	
1393	0	32792	32838	
1394	0	32808	32759	
1395	0	32820	32790	
1396	0	32793	32764	
1397	0	32768	32799	
1398	0	32804	32828	
1399	0	32780	32794	
1400	0	32736	32743	
1401	0	32776	32838	
1402	0	32776	32740	
1403	0	32748	32764	
1404	0	32766	32814	
1405	0	32780	32751	
1406	0	32774	32692	
1407	0	32756	32774	
1408	0	32758	32826	
1409	0	32794	32736	
1410	0	32758	32714	
1411	0	32852	32804	
1412	0	32804	32842	
1413	0	32876	32807	
1414	0	32800	32757	
1415	0	32830	32833	
1416	0	32796	32830	
1417	0	32812	32860	
1418	0	32821	32753	
1419	0	32814	32785	
1420	0	32776	32743	
1421	0	32772	32774	
1422	0	32816	32798	
1423	0	32821	32712	
1424	0	32792	32846	
1425	0	32826	32756	
1426	0	32866	32820	
1427	0	32822	32898	
1428	0	32780	32803	
1429	0	32788	32775	
1430	0	32756	32828	
1431	0	32776	32826	
1432	0	32816	32758	
1433	0	32804	32768	
1434	0	32844	32804	
1435	0	32834	32794	
1436	0	32808	32806	
1437	0	32832	32807	
1438	0	32836	32796	
1439	0	32788	32756	
1440	0	32764	32792	
1441	0	32772	32744	
1442	0	32852	32854	
1443	0	32816	32811	
1444	0	32816	32830	
1445	0	32848	32842	
1446	0	32852	32676	
1447	0	32910	32707	
1448	0	32852	32702	
1449	0	32768	32727	
1450	0	32848	32808	
1451	0	32832	32846	
1452	0	32808	32823	
1453	0	32748	32775	
1454	0	32866	32743	
1455	0	32796	32708	
1456	0	32876	32788	
1457	0	32798	32724	
1458	0	32808	32732	
1459	0	32768	32682	
1460	0	32792	32760	
1461	0	32836	32775	
1462	0	32900	32788	
1463	0	32832	32802	
1464	0	32864	32852	
1465	0	32864	32759	
1466	0	32794	32804	
1467	0	32804	32796	
1468	0	32832	32752	
1469	0	32852	32748	
1470	0	32820	32740	
1471	0	32812	32743	
1472	0	32756	32724	
1473	0	32876	32747	
1474	0	32810	32590	
1475	0	32792	32719	
1476	0	32880	32714	
1477	0	32820	32743	
1478	0	32828	32674	
1479	0	32808	32766	
1480	0	32824	32718	
1481	0	32825	32738	
1482	0	32952	32768	
1483	0	32778	32742	
1484	0	32735	32697	
1485	0	32804	32684	
1486	0	32760	32808	
1487	0	32846	32856	
1488	0	32842	32852	
1489	0	32847	32756	
1490	0	32904	32762	
1491	0	32852	32740	
1492	0	32804	32796	
1493	0	32864	32817	
1494	0	32774	32754	
1495	0	32860	32824	
1496	0	32812	32831	
1497	0	32800	32768	
1498	0	32786	32767	
1499	0	32820	32740	
1500	0	32720	32647	
1501	0	32888	32770	
1502	0	32792	32863	
1503	0	32780	32794	
1504	0	32806	32766	
1505	0	32814	32762	
1506	0	32800	32814	
1507	0	32788	32757	
1508	0	32820	32770	
1509	0	32832	32800	
1510	0	32816	32841	
1511	0	32804	32750	
1512	0	32868	32708	
1513	0	32840	32647	
1514	0	32810	32710	
1515	0	32820	32678	
1516	0	32808	32710	
1517	0	32852	32847	
1518	0	32746	32770	
1519	0	32836	32740	
1520	0	32860	32740	
1521	0	32806	32740	
1522	0	32772	32678	
1523	0	32792	32824	
1524	0	32844	32817	
1525	0	32760	32820	
1526	0	32786	32812	
1527	0	32820	32823	
1528	0	32756	32832	
1529	0	32808	32762	
1530	0	32858	32806	
1531	0	32828	32801	
1532	0	32840	32720	
1533	0	32844	32735	
1534	0	32812	32740	
1535	0	32834	32679	
1536	0	32849	32668	
1537	0	32842	32634	
1538	0	32836	32719	
1539	0	32838	32695	
1540	0	32812	32766	
1541	0	32764	32676	
1542	0	32784	32720	
1543	0	32864	32744	
1544	0	32805	32828	
1545	0	32822	32732	
1546	0	32772	32816	
1547	0	32846	32805	
1548	0	32868	32814	
1549	0	32868	32808	
1550	0	32770	32810	
1551	0	32757	32734	
1552	0	32864	32742	
1553	0	32836	32786	
1554	0	32836	32823	
1555	0	32812	32775	
1556	0	32816	32814	
1557	0	32820	32839	
1558	0	32788	32835	
1559	0	32776	32816	
1560	0	32792	32798	
1561	0	32786	32804	
1562	0	32832	32806	
1563	0	32788	32799	
1564	0	32796	32724	
1565	0	32816	32704	
1566	0	32800	32718	
1567	0	32876	32664	
1568	0	32784	32840	
1569	0	32820	32830	
1570	0	32844	32798	
1571	0	32758	32730	
1572	0	32784	32774	
1573	0	32760	32748	
1574	0	32768	32714	
1575	0	32814	32752	
1576	0	32790	32860	
1577	0	32796	32742	
1578	0	32740	32746	
1579	0	32834	32690	
1580	0	32846	32756	
1581	0	32814	32794	
1582	0	32796	32722	
1583	0	32820	32850	
1584	0	32862	32762	
1585	0	32796	32756	
1586	0	32808	32758	
1587	0	32790	32718	
1588	0	32834	32770	
1589	0	32788	32772	
1590	0	32846	32770	
1591	0	32844	32816	
1592	0	32792	32796	
1593	0	32836	32711	
1594	0	32778	32788	
1595	0	32892	32818	
1596	0	32748	32775	
1597	0	32772	32775	
1598	0	32762	32846	
1599	0	32862	32773	
1600	0	32852	32748	
1601	0	32864	32754	
1602	0	32852	32732	
1603	0	32912	32771	
1604	0	32784	32844	
1605	0	32818	32775	
1606	0	32784	32764	
1607	0	32804	32743	
1608	0	32802	32855	
1609	0	32840	32730	
1610	0	32808	32730	
1611	0	32804	32648	
1612	0	32792	32708	
1613	0	32792	32903	
1614	0	32782	32828	
1615	0	32806	32806	
1616	0	32832	32738	
1617	0	32772	32694	
1618	0	32764	32775	
1619	0	32810	32768	
1620	0	32820	32824	
1621	0	32824	32755	
1622	0	32836	32730	
1623	0	32804	32706	
1624	0	32856	32738	
1625	0	32832	32716	
1626	0	32826	32720	
1627	0	32816	32706	
1628	0	32824	32664	
1629	0	32812	32687	
1630	0	32800	32714	
1631	0	32840	32838	
1632	0	32828	32753	
1633	0	32848	32774	
1634	0	32778	32836	
1635	0	32766	32858	
1636	0	32772	32775	
1637	0	32860	32775	
1638	0	32804	32732	
1639	0	32804	32754	
1640	0	32808	32754	
1641	0	32852	32708	
1642	0	32788	32754	
1643	0	32810	32732	
1644	0	32868	32672	
1645	0	32800	32732	
1646	0	32812	32735	
1647	0	32764	32690	
1648	0	32854	32830	
1649	0	32858	32847	
1650	0	32860	32772	
1651	0	32784	32756	
1652	0	32846	32703	
1653	0	32820	32735	
1654	0	32846	32750	
1655	0	32824	32775	
1656	0	32856	32724	
1657	0	32809	32720	
1658	0	32786	32658	
1659	0	32784	32704	
1660	0	32802	32728	
1661	0	32776	32824	
1662	0	32828	32807	
1663	0	32812	32875	
1664	0	32784	32764	
1665	0	32826	32817	
1666	0	32772	32775	
1667	0	32796	32788	
1668	0	32844	32742	
1669	0	32832	32788	
1670	0	32824	32844	
1671	0	32792	32868	
1672	0	32792	32836	
1673	0	32732	32798	
1674	0	32736	32834	
1675	0	32820	32823	
1676	0	32816	32775	
1677	0	32860	32871	
1678	0	32804	32790	
1679	0	32816	32844	
1680	0	32780	32766	
1681	0	32820	32756	
1682	0	32808	32684	
1683	0	32832	32775	
1684	0	32840	32768	
1685	0	32808	32760	
1686	0	32798	32772	
1687	0	32796	32730	
1688	0	32864	32814	
1689	0	32826	32842	
1690	0	32756	32757	
1691	0	32784	32766	
1692	0	32852	32724	
1693	0	32844	32695	
1694	0	32864	32660	
1695	0	32812	32702	
1696	0	32746	32730	
1697	0	32836	32775	
1698	0	32778	32836	
1699	0	32842	32796	
1700	0	32818	32812	
1701	0	32844	32768	
1702	0	32840	32788	
1703	0	32792	32724	
1704	0	32760	32775	
1705	0	32724	32794	
1706	0	32834	32830	
1707	0	32844	32773	
1708	0	32792	32774	
1709	0	32768	32799	
1710	0	32840	32794	
1711	0	32726	32775	
1712	0	32740	32732	
1713	0	32800	32796	
1714	0	32764	32698	
1715	0	32812	32743	
1716	0	32712	32740	
1717	0	32728	32770	
1718	0	32748	32775	
1719	0	32804	32774	
1720	0	32744	32772	
1721	0	32802	32860	
1722	0	32800	32895	
1723	0	32792	32772	
1724	0	32814	32744	
1725	0	32758	32774	
1726	0	32748	32771	
1727	0	32844	32710	
1728	0	32794	32708	
1729	0	32764	32690	
1730	0	32802	32680	
1731	0	32868	32735	
1732	0	32848	32791	
1733	0	32884	32720	
1734	0	32792	32740	
1735	0	32816	32830	
1736	0	32830	32775	
1737	0	32816	32720	
1738	0	32828	32800	
1739	0	32776	32818	
1740	0	32872	32788	
1741	0	32764	32736	
1742	0	32816	32792	
1743	0	32896	32796	
1744	0	32792	32775	
1745	0	32820	32832	
1746	0	32822	32696	
1747	0	32760	32754	
1748	0	32740	32774	
1749	0	32832	32692	
1750	0	32812	32684	
1751	0	32764	32692	
1752	0	32772	32864	
1753	0	32836	32876	
1754	0	32824	32788	
1755	0	32838	32844	
1756	0	32848	32759	
1757	0	32820	32764	
1758	0	32740	32750	
1759	0	32784	32772	
1760	0	32856	32744	
1761	0	32836	32711	
1762	0	32884	32799	
1763	0	32812	32828	
1764	0	32788	32812	
1765	0	32810	32775	
1766	0	32808	32788	
1767	0	32816	32768	
1768	0	32812	32771	
1769	0	32824	32760	
1770	0	32790	32796	
1771	0	32772	32847	
1772	0	32764	32775	
1773	0	32792	32772	
1774	0	32784	32711	
1775	0	32776	32792	
1776	0	32896	32802	
1777	0	32836	32732	
1778	0	32848	32775	
1779	0	32804	32754	
1780	0	32836	32872	
1781	0	32736	32728	
1782	0	32788	32693	
1783	0	32844	32679	
1784	0	32812	32694	
1785	0	32881	32686	
1786	0	32816	32647	
1787	0	32858	32775	
1788	0	32804	32852	
1789	0	32900	32807	
1790	0	32830	32775	
1791	0	32870	32772	
1792	0	32920	32802	
1793	0	32828	32858	
1794	0	32764	32872	
1795	0	32828	32746	
1796	0	32764	32700	
1797	0	32820	32770	
1798	0	32744	32775	
1799	0	32892	32775	
1800	0	32868	32802	
1801	0	32808	32775	
1802	0	32832	32840	
1803	0	32834	32671	
1804	0	32844	32722	
1805	0	32836	32736	
1806	0	32754	32796	
1807	0	32828	32816	
1808	0	32868	32800	
1809	0	32824	32750	
1810	0	32824	32916	
1811	0	32824	32686	
1812	0	32808	32788	
1813	0	32760	32807	
1814	0	32792	32843	
1815	0	32848	32796	
1816	0	32876	32774	
1817	0	32828	32804	
1818	0	32816	32775	
1819	0	32864	32762	
1820	0	32800	32850	
1821	0	32896	32760	
1822	0	32832	32708	
1823	0	32842	32775	
1824	0	32852	32716	
1825	0	32800	32714	
1826	0	32788	32678	
1827	0	32750	32740	
1828	0	32788	32752	
1829	0	32760	32800	
1830	0	32820	32838	
1831	0	32804	32770	
1832	0	32820	32724	
1833	0	32784	32714	
1834	0	32808	32822	
1835	0	32788	32754	
1836	0	32866	32784	
1837	0	32817	32743	
1838	0	32828	32694	
1839	0	32808	32711	
1840	0	32810	32710	
1841	0	32854	32746	
1842	0	32772	32788	
1843	0	32878	32816	
1844	0	32804	32746	
1845	0	32790	32768	
1846	0	32788	32868	
1847	0	32756	32824	
1848	0	32740	32714	
1849	0	32756	32716	
1850	0	32806	32832	
1851	0	32782	32784	
1852	0	32776	32751	
1853	0	32722	32688	
1854	0	32806	32793	
1855	0	32760	32836	
1856	0	32740	32647	
1857	0	32796	32728	
1858	0	32808	32694	
1859	0	32824	32740	
1860	0	32864	32775	
1861	0	32839	32824	
1862	0	32840	32757	
1863	0	32806	32772	
1864	0	32808	32800	
1865	0	32900	32718	
1866	0	32862	32684	
1867	0	32826	32710	
1868	0	32816	32670	
1869	0	32892	32706	
1870	0	32868	32766	
1871	0	32774	32772	
1872	0	32842	32775	
1873	0	32878	32810	
1874	0	32836	32806	
1875	0	32884	32708	
1876	0	32888	32676	
1877	0	32772	32810	
1878	0	32828	32806	
1879	0	32808	32874	
1880	0	32884	32726	
1881	0	32764	32806	
1882	0	32786	32712	
1883	0	32824	32680	
1884	0	32804	32736	
1885	0	32786	32856	
1886	0	32798	32856	
1887	0	32796	32719	
1888	0	32870	32759	
1889	0	32836	32823	
1890	0	32832	32756	
1891	0	32822	32717	
1892	0	32820	32714	
1893	0	32804	32812	
1894	0	32794	32775	
1895	0	32808	32775	
1896	0	32816	32806	
1897	0	32800	32767	
1898	0	32814	32721	
1899	0	32796	32667	
1900	0	32832	32734	
1901	0	32801	32818	
1902	0	32822	32804	
1903	0	32788	32766	
1904	0	32840	32775	
1905	0	32800	32786	
1906	0	32828	32804	
1907	0	32830	32786	
1908	0	32804	32724	
1909	0	32840	32714	
1910	0	32820	32757	
1911	0	32804	32775	
1912	0	32826	32758	
1913	0	32848	32785	
1914	0	32768	32710	
1915	0	32798	32720	
1916	0	32810	32762	
1917	0	32836	32739	
1918	0	32808	32828	
1919	0	32784	32838	
1920	0	32740	32772	
1921	0	32804	32900	
1922	0	32768	32711	
1923	0	32770	32840	
1924	0	32784	32832	
1925	0	32820	32766	
1926	0	32822	32798	
1927	0	32860	32784	
1928	0	32876	32672	
1929	0	32878	32604	
1930	0	32878	32686	
1931	0	32912	32846	
1932	0	32884	32668	
1933	0	32892	32679	
1934	0	32934	32610	
1935	0	32948	32660	
1936	0	32920	32602	
1937	0	32880	32516	
1938	0	32962	32646	
1939	0	32996	32634	
1940	0	32932	32548	
1941	0	32988	32596	
1942	0	32892	32660	
1943	0	32852	32656	
1944	0	32886	32735	
1945	0	32932	32738	
1946	0	32872	32700	
1947	0	32844	32743	
1948	0	32796	32792	
1949	0	32720	32831	
1950	0	32736	32860	
1951	0	32582	32842	
1952	0	32458	32964	
1953	0	32548	33062	
1954	0	32424	33138	
1955	0	32366	33278	
1956	0	32262	33438	
1957	0	32270	33498	
1958	0	32364	33326	
1959	0	32584	33164	
1960	0	32668	32938	
1961	0	32726	32935	
1962	0	32768	32911	
1963	0	32818	32754	
1964	0	32848	32740	
1965	0	32776	32730	
1966	0	32774	32598	
1967	0	32804	32676	
1968	0	32866	32708	
1969	0	32872	32670	
1970	0	32948	32603	
1971	0	32928	32528	
1972	0	32984	32497	
1973	0	33020	32550	
1974	0	32932	32570	
1975	0	32936	32486	
1976	0	32932	32549	
1977	0	33060	32550	
1978	0	32952	32504	
1979	0	32928	32658	
1980	0	32884	32632	
1981	0	32878	32724	
1982	0	32900	32707	
1983	0	32920	32730	
1984	0	32930	32740	
1985	0	32808	32704	
1986	0	32866	32751	
1987	0	32832	32696	
1988	0	32876	32794	
1989	0	32864	32837	
1990	0	32840	32727	
1991	0	32798	32742	
1992	0	32780	32723	
1993	0	32796	32830	
1994	0	32826	32871	
1995	0	32832	32855	
1996	0	32826	32807	
1997	0	32822	32628	
1998	0	32780	32662	
1999	0	32770	32748	
2000	0	32816	32847	
2001	0	32824	32865	
2002	0	32732	32790	
2003	0	32790	32814	
2004	0	32772	32828	
2005	0	32752	32855	
2006	0	32818	32704	
2007	0	32870	32656	
2008	0	32895	32756	
2009	0	32780	32858	
2010	0	32850	32882	
2011	0	32778	32807	
2012	0	32864	32754	
2013	0	32816	32758	
2014	0	32790	32728	
2015	0	32802	32794	
2016	0	32736	32824	
2017	0	32820	32814	
2018	0	32808	32742	
2019	0	32816	32948	
2020	0	32792	32698	
2021	0	32792	32692	
2022	0	32794	32686	
2023	0	32808	32768	
2024	0	32844	32828	
2025	0	32828	32852	
2026	0	32868	32884	
2027	0	32780	32775	
2028	0	32760	32790	
2029	0	32888	32799	
2030	0	32748	32839	
2031	0	32800	32718	
2032	0	32788	32666	
2033	0	32808	32648	
2034	0	32816	32756	
2035	0	32778	32742	
2036	0	32846	32721	
2037	0	32780	32790	
2038	0	32856	32878	
2039	0	32844	32771	
2040	0	32856	32724	
2041	0	32836	32716	
2042	0	32864	32799	
2043	0	32858	32804	
2044	0	32752	32792	
2045	0	32832	32836	
2046	0	32798	32722	
2047	0	32836	32662	
2048	0	32838	32788	
2049	0	32814	32764	
2050	0	32760	32764	
2051	0	32880	32724	
2052	0	32836	32852	
2053	0	32804	32728	
2054	0	32820	32802	
2055	0	32760	32760	
2056	0	32844	32826	
2057	0	32788	32839	
2058	0	32864	32774	
2059	0	32792	32806	
2060	0	32808	32870	
2061	0	32784	32775	
2062	0	32836	32668	
2063	0	32801	32749	
2064	0	32814	32775	
2065	0	32848	32718	
2066	0	32774	32742	
2067	0	32802	32839	
2068	0	32772	32750	
2069	0	32820	32750	
2070	0	32836	32801	
2071	0	32846	32747	
2072	0	32788	32790	
2073	0	32782	32748	
2074	0	32796	32728	
2075	0	32776	32646	
2076	0	32732	32660	
2077	0	32802	32692	
2078	0	32772	32774	
2079	0	32832	32732	
2080	0	32790	32738	
2081	0	32832	32770	
2082	0	32852	32740	
2083	0	32812	32720	
2084	0	32824	32710	
2085	0	32878	32690	
2086	0	32800	32864	
2087	0	32772	32809	
2088	0	32792	32864	
2089	0	32824	32791	
2090	0	32820	32810	
2091	0	32840	32774	
2092	0	32712	32775	
2093	0	32792	32808	
2094	0	32884	32743	
2095	0	32846	32743	
2096	0	32840	32810	
2097	0	32810	32754	
2098	0	32868	32784	
2099	0	32840	32747	
2100	0	32828	32830	
2101	0	32764	32798	
2102	0	32804	32725	
2103	0	32854	32799	
2104	0	32812	32814	
2105	0	32884	32751	
2106	0	32872	32814	
2107	0	32756	32754	
2108	0	32809	32839	
2109	0	32792	32822	
2110	0	32812	32727	
2111	0	32780	32727	
2112	0	32790	32784	
2113	0	32800	32808	
2114	0	32776	32720	
2115	0	32864	32664	
2116	0	32852	32844	
2117	0	32792	32792	
2118	0	32806	32814	
2119	0	32788	32790	
2120	0	32866	32765	
2121	0	32840	32816	
2122	0	32808	32792	
2123	0	32798	32796	
2124	0	32808	32804	
2125	0	32856	32798	
2126	0	32820	32775	
2127	0	32836	32752	
2128	0	32800	32848	
2129	0	32816	32816	
2130	0	32774	32711	
2131	0	32804	32767	
2132	0	32722	32742	
2133	0	32796	32732	
2134	0	32872	32647	
2135	0	32756	32676	
2136	0	32804	32695	
2137	0	32840	32680	
2138	0	32820	32690	
2139	0	32796	32692	
2140	0	32824	32720	
2141	0	32806	32704	
2142	0	32836	32720	
2143	0	32832	32703	
2144	0	32812	32703	
2145	0	32832	32720	
2146	0	32796	32728	
2147	0	32816	32679	
2148	0	32830	32671	
2149	0	32780	32692	
2150	0	32810	32692	
2151	0	32856	32702	
2152	0	32832	32692	
2153	0	32768	32678	
2154	0	32816	32742	
2155	0	32794	32680	
2156	0	32772	32796	
2157	0	32806	32726	
2158	0	32786	32834	
2159	0	32824	32798	
2160	0	32860	32862	
2161	0	32880	32818	
2162	0	32868	32732	
2163	0	32822	32785	
2164	0	32840	32892	
2165	0	32708	32876	
2166	0	32776	32868	
2167	0	32786	32854	
2168	0	32800	32786	
2169	0	32840	32686	
2170	0	32740	32738	
2171	0	32812	32624	
2172	0	32792	32679	
2173	0	32852	32662	
2174	0	32810	32840	
2175	0	32812	32710	
2176	0	32794	32775	
2177	0	32856	32772	
2178	0	32826	32804	
2179	0	32860	32816	
2180	0	32772	32772	
2181	0	32848	32914	
2182	0	32840	32756	
2183	0	32836	32836	
2184	0	32844	32838	
2185	0	32780	32775	
2186	0	32874	32770	
2187	0	32816	32799	
2188	0	32728	32785	
2189	0	32800	32729	
2190	0	32834	32814	
2191	0	32798	32775	
2192	0	32860	32876	
2193	0	32788	32766	
2194	0	32772	32826	
2195	0	32838	32774	
2196	0	32756	32858	
2197	0	32778	32775	
2198	0	32888	32819	
2199	0	32818	32834	
2200	0	32834	32870	
2201	0	32812	32730	
2202	0	32756	32710	
2203	0	32878	32822	
2204	0	32836	32790	
2205	0	32856	32830	
2206	0	32816	32708	
2207	0	32736	32864	
2208	0	32848	32775	
2209	0	32798	32775	
2210	0	32804	32740	
2211	0	32808	32788	
2212	0	32880	32686	
2213	0	32868	32806	
2214	0	32737	32825	
2215	0	32800	32750	
2216	0	32796	32799	
2217	0	32740	32790	
2218	0	32762	32804	
2219	0	32832	32892	
2220	0	32754	32692	
2221	0	32832	32716	
2222	0	32816	32714	
2223	0	32836	32724	
2224	0	32796	32839	
2225	0	32860	32792	
2226	0	32852	32742	
2227	0	32820	32775	
2228	0	32836	32769	
2229	0	32840	32775	
2230	0	32801	32836	
2231	0	32848	32793	
2232	0	32778	32775	
2233	0	32742	32836	
2234	0	32815	32834	
2235	0	32828	32702	
2236	0	32838	32720	
2237	0	32784	32668	
2238	0	32772	32682	
2239	0	32798	32836	
2240	0	32789	32852	
2241	0	32788	32828	
2242	0	32764	32775	
2243	0	32840	32824	
2244	0	32832	32752	
2245	0	32736	32724	
2246	0	32788	32772	
2247	0	32840	32770	
2248	0	32828	32769	
2249	0	32752	32791	
2250	0	32774	32775	
2251	0	32852	32698	
2252	0	32868	32816	
2253	0	32792	32816	
2254	0	32800	32774	
2255	0	32824	32848	
2256	0	32844	32916	
2257	0	32760	32657	
2258	0	32750	32644	
2259	0	32744	32682	
2260	0	32768	32642	
2261	0	32804	32672	
2262	0	32802	32712	
2263	0	32797	32722	
2264	0	32764	32735	
2265	0	32858	32762	
2266	0	32834	32821	
2267	0	32836	32834	
2268	0	32860	32852	
2269	0	32804	32822	
2270	0	32812	32814	
2271	0	32760	32775	
2272	0	32816	32706	
2273	0	32775	32692	
2274	0	32822	32786	
2275	0	32878	32762	
2276	0	32820	32794	
2277	0	32846	32698	
2278	0	32816	32671	
2279	0	32784	32690	
2280	0	32804	32720	
2281	0	32823	32708	
2282	0	32900	32738	
2283	0	32792	32714	
2284	0	32784	32722	
2285	0	32764	32711	
2286	0	32798	32642	
2287	0	32752	32734	
2288	0	32776	32647	
2289	0	32824	32692	
2290	0	32816	32762	
2291	0	32789	32716	
2292	0	32840	32744	
2293	0	32824	32702	
2294	0	32808	32686	
2295	0	32810	32700	
2296	0	32842	32670	
2297	0	32828	32746	
2298	0	32816	32732	
2299	0	32756	32812	
2300	0	32802	32748	
2301	0	32840	32712	
2302	0	32816	32688	
2303	0	32852	32741	
2304	0	32836	32744	
2305	0	32852	32682	
2306	0	32868	32734	
2307	0	32888	32752	
2308	0	32895	32670	
2309	0	32786	32704	
2310	0	32798	32676	
2311	0	32834	32676	
2312	0	32812	32732	
2313	0	32832	32764	
2314	0	32804	32690	
2315	0	32806	32690	
2316	0	32836	32704	
2317	0	32834	32816	
2318	0	32744	32792	
2319	0	32740	32728	
2320	0	32842	32762	
2321	0	32810	32706	
2322	0	32822	32752	
2323	0	32840	32839	
2324	0	32816	32810	
2325	0	32774	32834	
2326	0	32788	32908	
2327	0	32872	32848	
2328	0	32720	32680	
2329	0	32760	32662	
2330	0	32853	32735	
2331	0	32854	32839	
2332	0	32828	32712	
2333	0	32846	32740	
2334	0	32812	32775	
2335	0	32770	32871	
2336	0	32740	32846	
2337	0	32800	32820	
2338	0	32844	32836	
2339	0	32808	32697	
2340	0	32808	32760	
2341	0	32810	32654	
2342	0	32868	32704	
2343	0	32808	32760	
2344	0	32826	32706	
2345	0	32818	32655	
2346	0	32760	32724	
2347	0	32812	32679	
2348	0	32842	32772	
2349	0	32764	32695	
2350	0	32852	32734	
2351	0	32808	32770	
2352	0	32766	32832	
2353	0	32768	32784	
2354	0	32828	32820	
2355	0	32780	32734	
2356	0	32852	32759	
2357	0	32856	32790	
2358	0	32820	32890	
2359	0	32832	32794	
2360	0	32824	32775	
2361	0	32810	32688	
2362	0	32720	32668	
2363	0	32772	32743	
2364	0	32816	32774	
2365	0	32882	32770	
2366	0	32856	32775	
2367	0	32808	32824	
2368	0	32830	32854	
2369	0	32832	32842	
2370	0	32852	32850	
2371	0	32838	32756	
2372	0	32792	32740	
2373	0	32832	32818	
2374	0	32832	32772	
2375	0	32800	32775	
2376	0	32784	32791	
2377	0	32796	32807	
2378	0	32848	32718	
2379	0	32854	32734	
2380	0	32816	32800	
2381	0	32812	32736	
2382	0	32784	32804	
2383	0	32812	32764	
2384	0	32820	32724	
2385	0	32842	32764	
2386	0	32816	32791	
2387	0	32796	32800	
2388	0	32820	32768	
2389	0	32804	32694	
2390	0	32872	32775	
2391	0	32816	32740	
2392	0	32896	32747	
2393	0	32792	32758	
2394	0	32816	32700	
2395	0	32770	32864	
2396	0	32832	32822	
2397	0	32836	32790	
2398	0	32804	32866	
2399	0	32804	32764	
2400	0	32796	32798	
2401	0	32832	32800	
2402	0	32826	32774	
2403	0	32810	32830	
2404	0	32812	32786	
2405	0	32816	32870	
2406	0	32818	32752	
2407	0	32801	32724	
2408	0	32834	32756	
2409	0	32756	32734	
2410	0	32786	32757	
2411	0	32828	32784	
2412	0	32760	32684	
2413	0	32828	32708	
2414	0	32816	32714	
2415	0	32816	32671	
2416	0	32808	32716	
2417	0	32776	32836	
2418	0	32836	32788	
2419	0	32792	32856	
2420	0	32860	32784	
2421	0	32778	32772	
2422	0	32838	32832	
2423	0	32816	32762	
2424	0	32888	32654	
2425	0	32908	32692	
2426	0	32796	32708	
2427	0	32832	32814	
2428	0	32832	32855	
2429	0	32846	32844	
2430	0	32824	32752	
2431	0	32760	32821	
2432	0	32824	32789	
2433	0	32838	32708	
2434	0	32836	32766	
2435	0	32848	32804	
2436	0	32846	32789	
2437	0	32816	32842	
2438	0	32809	32752	
2439	0	32794	32790	
2440	0	32852	32692	
2441	0	32816	32630	
2442	0	32740	32710	
2443	0	32814	32704	
2444	0	32796	32732	
2445	0	32814	32686	
2446	0	32825	32764	
2447	0	32750	32743	
2448	0	32816	32806	
2449	0	32818	32788	
2450	0	32836	32774	
2451	0	32856	32710	
2452	0	32852	32759	
2453	0	32788	32839	
2454	0	32808	32860	
2455	0	32864	32820	
2456	0	32786	32775	
2457	0	32740	32684	
2458	0	32796	32698	
2459	0	32772	32758	
2460	0	32752	32708	
2461	0	32828	32724	
2462	0	32836	32715	
2463	0	32792	32724	
2464	0	32780	32818	
2465	0	32872	32746	
2466	0	32788	32836	
2467	0	32744	32852	
2468	0	32768	32748	
2469	0	32844	32775	
2470	0	32766	32775	
2471	0	32740	32732	
2472	0	32820	32788	
2473	0	32748	32815	
2474	0	32793	32820	
2475	0	32724	32774	
2476	0	32818	32734	
2477	0	32852	32722	
2478	0	32844	32692	
2479	0	32756	32872	
2480	0	32856	32882	
2481	0	32818	32830	
2482	0	32860	32844	
2483	0	32792	32894	
2484	0	32836	32774	
2485	0	32804	32754	
2486	0	32820	32758	
2487	0	32804	32790	
2488	0	32748	32692	
2489	0	32862	32734	
2490	0	32804	32662	
2491	0	32772	32676	
2492	0	32820	32760	
2493	0	32866	32774	
2494	0	32782	32772	
2495	0	32808	32735	
2496	0	32784	32844	
2497	0	32754	32854	
2498	0	32804	32852	
2499	0	32788	32712	
2500	0	32824	32732	
2501	0	32848	32826	
2502	0	32836	32848	
2503	0	32778	32807	
2504	0	32834	32775	
2505	0	32828	32742	
2506	0	32854	32716	
2507	0	32776	32690	
2508	0	32844	32759	
2509	0	32828	32812	
2510	0	32764	32871	
2511	0	32842	32732	
2512	0	32816	32635	
2513	0	32840	32740	
2514	0	32820	32711	
2515	0	32795	32735	
2516	0	32892	32684	
2517	0	32792	32726	
2518	0	32824	32743	
2519	0	32880	32730	
2520	0	32808	32796	
2521	0	32768	32712	
2522	0	32760	32738	
2523	0	32836	32710	
2524	0	32776	32775	
2525	0	32792	32692	
2526	0	32796	32668	
2527	0	32868	32634	
2528	0	32796	32810	
2529	0	32872	32798	
2530	0	32868	32752	
2531	0	32846	32798	
2532	0	32844	32863	
2533	0	32796	32736	
2534	0	32836	32746	
2535	0	32812	32686	
2536	0	32826	32660	
2537	0	32808	32728	
2538	0	32820	32775	
2539	0	32764	32814	
2540	0	32796	32788	
2541	0	32808	32775	
2542	0	32837	32814	
2543	0	32822	32754	
2544	0	32852	32848	
2545	0	32824	32852	
2546	0	32764	32822	
2547	0	32832	32818	
2548	0	32760	32786	
2549	0	32836	32679	
2550	0	32790	32696	
2551	0	32768	32671	
2552	0	32840	32764	
2553	0	32768	32743	
2554	0	32768	32700	
2555	0	32840	32676	
2556	0	32758	32750	
2557	0	32784	32896	
2558	0	32778	32724	
2559	0	32790	32742	
2560	0	32872	32817	
2561	0	32844	32860	
2562	0	32840	32800	
2563	0	32844	32792	
2564	0	32820	32682	
2565	0	32864	32668	
2566	0	32792	32759	
2567	0	32784	32708	
2568	0	32780	32842	
2569	0	32846	32714	
2570	0	32804	32764	
2571	0	32804	32836	
2572	0	32774	32844	
2573	0	32832	32838	
2574	0	32796	32812	
2575	0	32856	32804	
2576	0	32808	32820	
2577	0	32776	32716	
2578	0	32824	32842	
2579	0	32790	32704	
2580	0	32848	32843	
2581	0	32858	32718	
2582	0	32836	32814	
2583	0	32812	32790	
2584	0	32864	32790	
2585	0	32760	32822	
2586	0	32804	32911	
2587	0	32780	32832	
2588	0	32837	32775	
2589	0	32758	32720	
2590	0	32856	32790	
2591	0	32832	32846	
2592	0	32870	32775	
2593	0	32800	32760	
2594	0	32804	32696	
2595	0	32792	32706	
2596	0	32844	32728	
2597	0	32842	32726	
2598	0	32784	32769	
2599	0	32824	32746	
2600	0	32848	32668	
2601	0	32830	32662	
2602	0	32796	32696	
2603	0	32810	32676	
2604	0	32828	32672	
2605	0	32782	32702	
2606	0	32784	32740	
2607	0	32804	32775	
2608	0	32772	32684	
2609	0	32802	32710	
2610	0	32838	32708	
2611	0	32814	32695	
2612	0	32860	32742	
2613	0	32788	32746	
2614	0	32802	32694	
2615	0	32862	32686	
2616	0	32802	32766	
2617	0	32838	32679	
2618	0	32854	32722	
2619	0	32824	32724	
2620	0	32823	32758	
2621	0	32798	32724	
2622	0	32768	32746	
2623	0	32814	32654	
2624	0	32844	32718	
2625	0	32740	32784	
2626	0	32756	32692	
2627	0	32838	32766	
2628	0	32804	32729	
2629	0	32714	32825	
2630	0	32772	32804	
2631	0	32788	32726	
2632	0	32804	32709	
2633	0	32800	32756	
2634	0	32824	32800	
2635	0	32794	32790	
2636	0	32854	32902	
2637	0	32866	32744	
2638	0	32752	32812	
2639	0	32818	32727	
2640	0	32840	32763	
2641	0	32808	32775	
2642	0	32836	32767	
2643	0	32858	32828	
2644	0	32862	32860	
2645	0	32864	32846	
2646	0	32784	32744	
2647	0	32796	32812	
2648	0	32830	32714	
2649	0	32790	32800	
2650	0	32772	32718	
2651	0	32780	32664	
2652	0	32816	32726	
2653	0	32848	32700	
2654	0	32824	32736	
2655	0	32812	32759	
2656	0	32848	32706	
2657	0	32840	32728	
2658	0	32798	32774	
2659	0	32748	32896	
2660	0	32810	32806	
2661	0	32826	32804	
2662	0	32804	32732	
2663	0	32814	32840	
2664	0	32812	32762	
2665	0	32812	32814	
2666	0	32798	32798	
2667	0	32804	32724	
2668	0	32785	32730	
2669	0	32864	32792	
2670	0	32776	32762	
2671	0	32789	32764	
2672	0	32792	32714	
2673	0	32804	32788	
2674	0	32792	32806	
2675	0	32776	32791	
2676	0	32862	32704	
2677	0	32828	32760	
2678	0	32784	32767	
2679	0	32808	32752	
2680	0	32882	32806	
2681	0	32816	32768	
2682	0	32808	32775	
2683	0	32776	32764	
2684	0	32780	32816	
2685	0	32796	32782	
2686	0	32800	32838	
2687	0	32820	32791	
2688	0	32764	32724	
2689	0	32816	32772	
2690	0	32864	32812	
2691	0	32836	32870	
2692	0	32842	32775	
2693	0	32784	32743	
2694	0	32864	32774	
2695	0	32830	32847	
2696	0	32848	32708	
2697	0	32788	32796	
2698	0	32796	32826	
2699	0	32738	32884	
2700	0	32794	32771	
2701	0	32750	32801	
2702	0	32762	32734	
2703	0	32816	32724	
2704	0	32786	32854	
2705	0	32776	32720	
2706	0	32820	32736	
2707	0	32772	32690	
2708	0	32836	32668	
2709	0	32830	32682	
2710	0	32798	32660	
2711	0	32820	32639	
2712	0	32858	32608	
2713	0	32968	32658	
2714	0	32908	32632	
2715	0	32896	32689	
2716	0	32926	32624	
2717	0	32920	32678	
2718	0	32952	32583	
2719	0	32936	32607	
2720	0	32929	32644	
2721	0	33002	32702	
2722	0	33020	32609	
2723	0	32896	32652	
2724	0	32886	32684	
2725	0	32892	32600	
2726	0	32872	32597	
2727	0	32954	32612	
2728	0	32888	32684	
2729	0	32834	32738	
2730	0	32848	32796	
2731	0	32789	32874	
2732	0	32650	32796	
2733	0	32596	32984	
2734	0	32492	32952	
2735	0	32456	33008	
2736	0	32412	32978	
2737	0	32328	33244	
2738	0	32228	33462	
2739	0	32316	33470	
2740	0	32488	33155	
2741	0	32616	32972	
2742	0	32772	32826	
2743	0	32788	32759	
2744	0	32784	32775	
2745	0	32808	32882	
2746	0	32754	32834	
2747	0	32798	32751	
2748	0	32832	32727	
2749	0	32864	32714	
2750	0	32816	32620	
2751	0	32860	32666	
2752	0	32912	32532	
2753	0	33000	32532	
2754	0	32916	32510	
2755	0	33064	32519	
2756	0	32968	32545	
2757	0	33044	32577	
2758	0	33008	32624	
2759	0	32942	32685	
2760	0	32932	32574	
2761	0	32905	32558	
2762	0	32936	32592	
2763	0	32856	32678	
2764	0	32916	32634	
2765	0	32834	32600	
2766	0	32836	32622	
2767	0	32858	32692	
2768	0	32788	32647	
2769	0	32856	32644	
2770	0	32796	32679	
2771	0	32843	32785	
2772	0	32810	32742	
2773	0	32836	32662	
2774	0	32800	32666	
2775	0	32812	32718	
2776	0	32836	32769	
2777	0	32760	32736	
2778	0	32748	32664	
2779	0	32800	32742	
2780	0	32788	32842	
2781	0	32788	32775	
2782	0	32780	32804	
2783	0	32792	32812	
2784	0	32790	32816	
2785	0	32784	32769	
2786	0	32886	32807	
2787	0	32778	32775	
2788	0	32830	32749	
2789	0	32808	32736	
2790	0	32732	32820	
2791	0	32740	32851	
2792	0	32852	32814	
2793	0	32772	32783	
2794	0	32808	32791	
2795	0	32780	32708	
2796	0	32780	32844	
2797	0	32744	32754	
2798	0	32830	32708	
2799	0	32832	32874	
2800	0	32876	32766	
2801	0	32836	32774	
2802	0	32826	32670	
2803	0	32844	32774	
2804	0	32744	32740	
2805	0	32842	32816	
2806	0	32732	32774	
2807	0	32788	32768	
2808	0	32768	32774	
2809	0	32769	32742	
2810	0	32856	32805	
2811	0	32804	32774	
2812	0	32748	32800	
2813	0	32832	32831	
2814	0	32828	32740	
2815	0	32824	32831	
2816	0	32816	32775	
2817	0	32872	32764	
2818	0	32828	32775	
2819	0	32812	32744	
2820	0	32834	32738	
2821	0	32888	32839	
2822	0	32874	32806	
2823	0	32836	32834	
2824	0	32847	32869	
2825	0	32864	32806	
2826	0	32768	32742	
2827	0	32828	32848	
2828	0	32842	32814	
2829	0	32800	32814	
2830	0	32788	32775	
2831	0	32840	32775	
2832	0	32790	32847	
2833	0	32784	32895	
2834	0	32773	32790	
2835	0	32802	32839	
2836	0	32845	32828	
2837	0	32788	32838	
2838	0	32880	32816	
2839	0	32806	32806	
2840	0	32784	32798	
2841	0	32796	32775	
2842	0	32788	32668	
2843	0	32876	32670	
2844	0	32814	32708	
2845	0	32770	32696	
2846	0	32852	32816	
2847	0	32864	32838	
2848	0	32864	32821	
2849	0	32794	32748	
2850	0	32812	32810	
2851	0	32756	32798	
2852	0	32848	32852	
2853	0	32834	32760	
2854	0	32822	32826	
2855	0	32764	32775	
2856	0	32848	32775	
2857	0	32808	32732	
2858	0	32856	32647	
2859	0	32757	32710	
2860	0	32814	32670	
2861	0	32764	32708	
2862	0	32776	32702	
2863	0	32782	32762	
2864	0	32870	32684	
2865	0	32810	32814	
2866	0	32784	32748	
2867	0	32778	32775	
2868	0	32818	32770	
2869	0	32804	32740	
2870	0	32804	32818	
2871	0	32780	32798	
2872	0	32760	32830	
2873	0	32840	32784	
2874	0	32800	32804	
2875	0	32836	32823	
2876	0	32820	32864	
2877	0	32864	32862	
2878	0	32854	32774	
2879	0	32812	32700	
2880	0	32848	32686	
2881	0	32820	32702	
2882	0	32860	32748	
2883	0	32792	32714	
2884	0	32780	32772	
2885	0	32792	32820	
2886	0	32736	32784	
2887	0	32800	32744	
2888	0	32840	32814	
2889	0	32788	32834	
2890	0	32832	32748	
2891	0	32876	32810	
2892	0	32794	32714	
2893	0	32774	32775	
2894	0	32732	32758	
2895	0	32786	32839	
2896	0	32768	32760	
2897	0	32832	32806	
2898	0	32880	32690	
2899	0	32818	32716	
2900	0	32828	32724	
2901	0	32756	32710	
2902	0	32788	32674	
2903	0	32798	32667	
2904	0	32814	32665	
2905	0	32796	32758	
2906	0	32798	32678	
2907	0	32830	32845	
2908	0	32836	32714	
2909	0	32778	32854	
2910	0	32742	32819	
2911	0	32790	32800	
2912	0	32780	32800	
2913	0	32816	32831	
2914	0	32854	32804	
2915	0	32764	32810	
2916	0	32852	32800	
2917	0	32810	32759	
2918	0	32840	32748	
2919	0	32846	32832	
2920	0	32808	32808	
2921	0	32872	32838	
2922	0	32852	32874	
2923	0	32864	32740	
2924	0	32864	32772	
2925	0	32862	32792	
2926	0	32774	32812	
2927	0	32764	32863	
2928	0	32776	32736	
2929	0	32784	32830	
2930	0	32792	32796	
2931	0	32800	32812	
2932	0	32808	32766	
2933	0	32828	32732	
2934	0	32836	32656	
2935	0	32800	32676	
2936	0	32752	32753	
2937	0	32804	32695	
2938	0	32742	32660	
2939	0	32832	32754	
2940	0	32824	32766	
2941	0	32834	32760	
2942	0	32770	32692	
2943	0	32772	32775	
2944	0	32828	32806	
2945	0	32768	32720	
2946	0	32842	32824	
2947	0	32804	32850	
2948	0	32769	32786	
2949	0	32808	32775	
2950	0	32848	32816	
2951	0	32782	32826	
2952	0	32836	32762	
2953	0	32828	32760	
2954	0	32828	32711	
2955	0	32780	32836	
2956	0	32808	32712	
2957	0	32744	32767	
2958	0	32808	32750	
2959	0	32820	32775	
2960	0	32824	32820	
2961	0	32904	32799	
2962	0	32820	32830	
2963	0	32748	32754	
2964	0	32828	32796	
2965	0	32764	32856	
2966	0	32808	32794	
2967	0	32820	32839	
2968	0	32836	32794	
2969	0	32766	32820	
2970	0	32752	32818	
2971	0	32808	32775	
2972	0	32774	32775	
2973	0	32834	32826	
2974	0	32806	32804	
2975	0	32820	32788	
2976	0	32836	32830	
2977	0	32812	32821	
2978	0	32834	32750	
2979	0	32768	32712	
2980	0	32800	32664	
2981	0	32812	32718	
2982	0	32804	32825	
2983	0	32806	32784	
2984	0	32810	32862	
2985	0	32812	32766	
2986	0	32828	32816	
2987	0	32812	32824	
2988	0	32788	32775	
2989	0	32844	32775	
2990	0	32844	32734	
2991	0	32824	32760	
2992	0	32840	32858	
2993	0	32822	32788	
2994	0	32826	32860	
2995	0	32800	32822	
2996	0	32798	32768	
2997	0	32786	32775	
2998	0	32816	32826	
2999	0	32800	32814	
3000	0	32768	32800	
3001	0	32770	32772	
3002	0	32880	32768	
3003	0	32816	32737	
3004	0	32868	32791	
3005	0	32808	32716	
3006	0	32816	32766	
3007	0	32796	32732	
3008	0	32760	32794	
3009	0	32818	32746	
3010	0	32804	32674	
3011	0	32772	32738	
3012	0	32780	32756	
3013	0	32768	32814	
3014	0	32848	32796	
3015	0	32818	32822	
3016	0	32780	32756	
3017	0	32740	32820	
3018	0	32838	32876	
3019	0	32802	32837	
3020	0	32832	32736	
3021	0	32824	32784	
3022	0	32740	32798	
3023	0	32804	32720	
3024	0	32808	32834	
3025	0	32806	32814	
3026	0	32808	32791	
3027	0	32818	32775	
3028	0	32834	32809	
3029	0	32796	32718	
3030	0	32776	32696	
3031	0	32872	32739	
3032	0	32820	32614	
3033	0	32792	32692	
3034	0	32756	32727	
3035	0	32852	32700	
3036	0	32792	32760	
3037	0	32802	32708	
3038	0	32868	32692	
3039	0	32770	32834	
3040	0	32836	32772	
3041	0	32792	32866	
3042	0	32832	32800	
3043	0	32844	32786	
3044	0	32824	32828	
3045	0	32836	32742	
3046	0	32824	32814	
3047	0	32782	32814	
3048	0	32848	32770	
3049	0	32844	32798	
3050	0	32876	32740	
3051	0	32800	32850	
3052	0	32766	32848	
3053	0	32808	32812	
3054	0	32744	32834	
3055	0	32892	32828	
3056	0	32832	32839	
3057	0	32797	32712	
3058	0	32808	32798	
3059	0	32834	32742	
3060	0	32811	32700	
3061	0	32808	32679	
3062	0	32790	32732	
3063	0	32808	32826	
3064	0	32844	32775	
3065	0	32833	32866	
3066	0	32864	32775	
3067	0	32828	32743	
3068	0	32828	32818	
3069	0	32784	32764	
3070	0	32804	32775	
3071	0	32890	32798	
3072	0	32804	32796	
3073	0	32788	32774	
3074	0	32800	32720	
3075	0	32760	32710	
3076	0	32874	32760	
3077	0	32834	32796	
3078	0	32848	32824	
3079	0	32828	32834	
3080	0	32824	32732	
3081	0	32844	32697	
3082	0	32864	32666	
3083	0	32824	32740	
3084	0	32800	32734	
3085	0	32862	32775	
3086	0	32772	32742	
3087	0	32860	32818	
3088	0	32836	32766	
3089	0	32800	32780	
3090	0	32768	32775	
3091	0	32776	32754	
3092	0	32788	32800	
3093	0	32836	32806	
3094	0	32896	32742	
3095	0	32832	32703	
3096	0	32812	32672	
3097	0	32784	32678	
3098	0	32844	32772	
3099	0	32756	32684	
3100	0	32856	32710	
3101	0	32832	32688	
3102	0	32794	32672	
3103	0	32848	32716	
3104	0	32852	32712	
3105	0	32784	32762	
3106	0	32848	32754	
3107	0	32798	32838	
3108	0	32844	32775	
3109	0	32728	32770	
3110	0	32816	32818	
3111	0	32828	32818	
3112	0	32776	32740	
3113	0	32800	32794	
3114	0	32808	32712	
3115	0	32748	32744	
3116	0	32886	32704	
3117	0	32764	32676	
3118	0	32788	32744	
3119	0	32792	32790	
3120	0	32786	32786	
3121	0	32756	32816	
3122	0	32760	32772	
3123	0	32740	32816	
3124	0	32866	32794	
3125	0	32836	32870	
3126	0	32858	32775	
3127	0	32816	32838	
3128	0	32808	32791	
3129	0	32800	32803	
3130	0	32752	32700	
3131	0	32800	32750	
3132	0	32834	32734	
3133	0	32804	32766	
3134	0	32830	32788	
3135	0	32816	32752	
3136	0	32848	32734	
3137	0	32820	32744	
3138	0	32820	32824	
3139	0	32784	32774	
3140	0	32835	32800	
3141	0	32780	32864	
3142	0	32786	32775	
3143	0	32818	32763	
3144	0	32802	32812	
3145	0	32786	32814	
3146	0	32832	32706	
3147	0	32836	32680	
3148	0	32860	32770	
3149	0	32796	32758	
3150	0	32828	32650	
3151	0	32808	32632	
3152	0	32816	32764	
3153	0	32815	32759	
3154	0	32852	32838	
3155	0	32794	32766	
3156	0	32856	32748	
3157	0	32800	32806	
3158	0	32856	32852	
3159	0	32812	32775	
3160	0	32836	32855	
3161	0	32796	32826	
3162	0	32846	32814	
3163	0	32828	32736	
3164	0	32816	32660	
3165	0	32752	32775	
3166	0	32798	32800	
3167	0	32790	32849	
3168	0	32750	32822	
3169	0	32792	32810	
3170	0	32812	32782	
3171	0	32780	32806	
3172	0	32794	32824	
3173	0	32834	32799	
3174	0	32768	32727	
3175	0	32840	32828	
3176	0	32866	32822	
3177	0	32800	32772	
3178	0	32720	32846	
3179	0	32794	32694	
3180	0	32852	32736	
3181	0	32868	32722	
3182	0	32756	32740	
3183	0	32768	32734	
3184	0	32832	32822	
3185	0	32792	32800	
3186	0	32848	32871	
3187	0	32846	32806	
3188	0	32872	32743	
3189	0	32828	32788	
3190	0	32772	32742	
3191	0	32788	32818	
3192	0	32792	32726	
3193	0	32778	32750	
3194	0	32852	32808	
3195	0	32826	32774	
3196	0	32772	32761	
3197	0	32824	32704	
3198	0	32856	32732	
3199	0	32786	32727	
3200	0	32870	32718	
3201	0	32832	32702	
3202	0	32846	32748	
3203	0	32856	32769	
3204	0	32856	32798	
3205	0	32864	32791	
3206	0	32728	32716	
3207	0	32772	32824	
3208	0	32796	32786	
3209	0	32836	32816	
3210	0	32816	32718	
3211	0	32794	32743	
3212	0	32798	32768	
3213	0	32826	32638	
3214	0	32808	32786	
3215	0	32708	32738	
3216	0	32834	32768	
3217	0	32854	32852	
3218	0	32816	32815	
3219	0	32820	32775	
3220	0	32836	32784	
3221	0	32748	32714	
3222	0	32760	32804	
3223	0	32842	32743	
3224	0	32796	32775	
3225	0	32748	32710	
3226	0	32900	32780	
3227	0	32804	32822	
3228	0	32744	32775	
3229	0	32892	32766	
3230	0	32824	32753	
3231	0	32821	32771	
3232	0	32784	32810	
3233	0	32810	32802	
3234	0	32860	32774	
3235	0	32888	32757	
3236	0	32816	32807	
3237	0	32802	32852	
3238	0	32766	32736	
3239	0	32836	32716	
3240	0	32828	32698	
3241	0	32784	32716	
3242	0	32884	32711	
3243	0	32832	32732	
3244	0	32778	32728	
3245	0	32730	32752	
3246	0	32784	32792	
3247	0	32816	32880	
3248	0	32832	32775	
3249	0	32824	32802	
3250	0	32808	32840	
3251	0	32840	32839	
3252	0	32808	32775	
3253	0	32806	32756	
3254	0	32784	32720	
3255	0	32816	32804	
3256	0	32848	32804	
3257	0	32764	32853	
3258	0	32896	32712	
3259	0	32820	32804	
3260	0	32804	32839	
3261	0	32852	32746	
3262	0	32784	32801	
3263	0	32828	32822	
3264	0	32796	32829	
3265	0	32810	32810	
3266	0	32796	32689	
3267	0	32822	32711	
3268	0	32796	32666	
3269	0	32796	32707	
3270	0	32756	32818	
3271	0	32778	32754	
3272	0	32814	32748	
3273	0	32832	32734	
3274	0	32812	32793	
3275	0	32820	32744	
3276	0	32772	32833	
3277	0	32788	32822	
3278	0	32812	32786	
3279	0	32776	32734	
3280	0	32812	32716	
3281	0	32832	32712	
3282	0	32784	32847	
3283	0	32804	32870	
3284	0	32880	32775	
3285	0	32818	32740	
3286	0	32824	32790	
3287	0	32794	32830	
3288	0	32770	32775	
3289	0	32876	32746	
3290	0	32828	32853	
3291	0	32788	32810	
3292	0	32752	32775	
3293	0	32774	32792	
3294	0	32792	32724	
3295	0	32736	32772	
3296	0	32808	32728	
3297	0	32832	32799	
3298	0	32780	32724	
3299	0	32828	32770	
3300	0	32820	32802	
3301	0	32820	32848	
3302	0	32792	32672	
3303	0	32844	32724	
3304	0	32844	32798	
3305	0	32838	32852	
3306	0	32842	32762	
3307	0	32812	32775	
3308	0	32820	32810	
3309	0	32836	32804	
3310	0	32770	32726	
3311	0	32804	32732	
3312	0	32804	32772	
3313	0	32852	32812	
3314	0	32762	32775	
3315	0	32840	32775	
3316	0	32850	32772	
3317	0	32844	32758	
3318	0	32740	32732	
3319	0	32766	32614	
3320	0	32794	32708	
3321	0	32820	32671	
3322	0	32812	32706	
3323	0	32836	32834	
3324	0	32856	32702	
3325	0	32808	32690	
3326	0	32804	32727	
3327	0	32810	32668	
3328	0	32902	32644	
3329	0	32836	32702	
3330	0	32816	32726	
3331	0	32810	32858	
3332	0	32879	32764	
3333	0	32880	32804	
3334	0	32832	32794	
3335	0	32840	32721	
3336	0	32798	32884	
3337	0	32752	32804	
3338	0	32852	32826	
3339	0	32786	32709	
3340	0	32772	32708	
3341	0	32800	32792	
3342	0	32816	32758	
3343	0	32776	32746	
3344	0	32854	32732	
3345	0	32814	32794	
3346	0	32792	32742	
3347	0	32804	32740	
3348	0	32816	32692	
3349	0	32816	32695	
3350	0	32812	32766	
3351	0	32816	32695	
3352	0	32801	32674	
3353	0	32856	32697	
3354	0	32824	32731	
3355	0	32808	32719	
3356	0	32838	32766	
3357	0	32840	32846	
3358	0	32778	32824	
3359	0	32824	32760	
3360	0	32778	32732	
3361	0	32776	32798	
3362	0	32864	32766	
3363	0	32822	32807	
3364	0	32848	32746	
3365	0	32810	32924	
3366	0	32796	32838	
3367	0	32802	32864	
3368	0	32820	32774	
3369	0	32832	32775	
3370	0	32796	32703	
3371	0	32772	32850	
3372	0	32775	32792	
3373	0	32808	32775	
3374	0	32908	32826	
3375	0	32828	32734	
3376	0	32766	32660	
3377	0	32846	32746	
3378	0	32808	32702	
3379	0	32846	32804	
3380	0	32820	32834	
3381	0	32786	32775	
3382	0	32780	32738	
3383	0	32842	32800	
3384	0	32876	32720	
3385	0	32814	32596	
3386	0	32804	32666	
3387	0	32744	32696	
3388	0	32812	32876	
3389	0	32718	32775	
3390	0	32808	32750	
3391	0	32768	32766	
3392	0	32856	32756	
3393	0	32768	32775	
3394	0	32824	32830	
3395	0	32878	32775	
3396	0	32808	32790	
3397	0	32810	32740	
3398	0	32820	32746	
3399	0	32844	32801	
3400	0	32868	32847	
3401	0	32754	32711	
3402	0	32830	32676	
3403	0	32794	32824	
3404	0	32869	32846	
3405	0	32794	32794	
3406	0	32848	32708	
3407	0	32810	32708	
3408	0	32814	32772	
3409	0	32876	32718	
3410	0	32808	32730	
3411	0	32802	32630	
3412	0	32874	32678	
3413	0	32840	32732	
3414	0	32768	32700	
3415	0	32772	32758	
3416	0	32840	32750	
3417	0	32784	32768	
3418	0	32784	32712	
3419	0	32776	32688	
3420	0	32802	32756	
3421	0	32808	32802	
3422	0	32796	32798	
3423	0	32824	32786	
3424	0	32766	32752	
3425	0	32758	32748	
3426	0	32816	32708	
3427	0	32838	32767	
3428	0	32792	32839	
3429	0	32832	32858	
3430	0	32834	32762	
3431	0	32784	32717	
3432	0	32820	32764	
3433	0	32766	32711	
3434	0	32816	32682	
3435	0	32848	32634	
3436	0	32832	32710	
3437	0	32810	32756	
3438	0	32836	32744	
3439	0	32800	32762	
3440	0	32744	32847	
3441	0	32808	32743	
3442	0	32828	32754	
3443	0	32814	32820	
3444	0	32816	32846	
3445	0	32844	32794	
3446	0	32836	32750	
3447	0	32864	32818	
3448	0	32846	32767	
3449	0	32752	32654	
3450	0	32762	32742	
3451	0	32842	32758	
3452	0	32800	32836	
3453	0	32732	32764	
3454	0	32772	32775	
3455	0	32832	32770	
3456	0	32736	32736	
3457	0	32888	32766	
3458	0	32804	32838	
3459	0	32804	32807	
3460	0	32838	32716	
3461	0	32820	32684	
3462	0	32800	32689	
3463	0	32785	32724	
3464	0	32816	32727	
3465	0	32908	32836	
3466	0	32750	32775	
3467	0	32840	32775	
3468	0	32738	32862	
3469	0	32750	32806	
3470	0	32728	32764	
3471	0	32865	32796	
3472	0	32810	32804	
3473	0	32806	32852	
3474	0	32769	32720	
3475	0	32784	32752	
3476	0	32824	32748	
3477	0	32814	32832	
3478	0	32824	32796	
3479	0	32836	32764	
3480	0	32896	32740	
3481	0	32884	32702	
3482	0	32792	32774	
3483	0	32796	32775	
3484	0	32836	32810	
3485	0	32728	32743	
3486	0	32778	32736	
3487	0	32816	32742	
3488	0	32800	32756	
3489	0	32832	32696	
3490	0	32816	32696	
3491	0	32832	32724	
3492	0	32836	32772	
3493	0	32812	32744	
3494	0	32816	32824	
3495	0	32814	32750	
3496	0	32796	32724	
3497	0	32888	32694	
3498	0	32852	32687	
3499	0	32896	32717	
3500	0	32906	32680	
3501	0	32832	32687	
3502	0	32936	32654	
3503	0	32924	32676	
3504	0	32874	32708	
3505	0	32953	32690	
3506	0	32933	32654	
3507	0	32940	32662	
3508	0	32926	32519	
3509	0	32912	32622	
3510	0	32952	32626	
3511	0	32974	32548	
3512	0	32980	32538	
3513	0	32929	32618	
3514	0	32944	32652	
3515	0	32852	32686	
3516	0	32924	32742	
3517	0	32804	32775	
3518	0	32813	32852	
3519	0	32842	32956	
3520	0	32706	33002	
3521	0	32593	32982	
3522	0	32582	32945	
3523	0	32552	32972	
3524	0	32468	33031	
3525	0	32356	33224	
3526	0	32324	33420	
3527	0	32306	33604	
3528	0	32376	33339	
3529	0	32556	33150	
3530	0	32660	32968	
3531	0	32710	32900	
3532	0	32796	32858	
3533	0	32804	32804	
3534	0	32784	32796	
3535	0	32730	32816	
3536	0	32816	32752	
3537	0	32892	32684	
3538	0	32868	32656	
3539	0	32900	32604	
3540	0	32908	32574	
3541	0	32994	32492	
3542	0	32964	32471	
3543	0	32972	32487	
3544	0	32936	32496	
3545	0	32888	32586	
3546	0	32968	32600	
3547	0	32940	32588	
3548	0	32960	32612	
3549	0	32902	32680	
3550	0	32860	32607	
3551	0	32836	32652	
3552	0	32928	32609	
3553	0	32884	32615	
3554	0	32768	32647	
3555	0	32804	32682	
3556	0	32848	32671	
3557	0	32852	32700	
3558	0	32824	32700	
3559	0	32764	32730	
3560	0	32812	32786	
3561	0	32868	32800	
3562	0	32840	32742	
3563	0	32788	32850	
3564	0	32748	32842	
3565	0	32892	32788	
3566	0	32826	32790	
3567	0	32836	32786	
3568	0	32762	32792	
3569	0	32832	32815	
3570	0	32808	32852	
3571	0	32748	32796	
3572	0	32778	32816	
3573	0	32852	32844	
3574	0	32820	32834	
3575	0	32766	32846	
3576	0	32836	32775	
3577	0	32760	32836	
3578	0	32796	32752	
3579	0	32820	32750	
3580	0	32858	32728	
3581	0	32786	32716	
3582	0	32776	32668	
3583	0	32786	32730	
3584	0	32848	32775	
3585	0	32888	32903	
3586	0	32816	32804	
3587	0	32800	32754	
3588	0	32784	32866	
3589	0	32852	32794	
3590	0	32788	32680	
3591	0	32762	32775	
3592	0	32760	32762	
3593	0	32820	32790	
3594	0	32832	32840	
3595	0	32880	32812	
3596	0	32848	32656	
3597	0	32752	32754	
3598	0	32788	32772	
3599	0	32768	32807	
3600	0	32830	32812	
3601	0	32902	32774	
3602	0	32846	32761	
3603	0	32812	32810	
3604	0	32808	32750	
3605	0	32840	32727	
3606	0	32812	32727	
3607	0	32806	32720	
3608	0	32800	32775	
3609	0	32872	32687	
3610	0	32874	32662	
3611	0	32804	32744	
3612	0	32812	32647	
3613	0	32820	32702	
3614	0	32836	32679	
3615	0	32802	32748	
3616	0	32798	32692	
3617	0	32844	32821	
3618	0	32880	32804	
3619	0	32862	32796	
3620	0	32872	32758	
3621	0	32856	32746	
3622	0	32852	32800	
3623	0	32894	32816	
3624	0	32744	32820	
3625	0	32798	32810	
3626	0	32828	32807	
3627	0	32790	32740	
3628	0	32852	32775	
3629	0	32768	32762	
3630	0	32806	32788	
3631	0	32846	32700	
3632	0	32800	32697	
3633	0	32772	32634	
3634	0	32754	32775	
3635	0	32862	32656	
3636	0	32826	32719	
3637	0	32824	32812	
3638	0	32834	32788	
3639	0	32922	32836	
3640	0	32880	32930	
3641	0	32852	32820	
3642	0	32798	32798	
3643	0	32816	32850	
3644	0	32808	32788	
3645	0	32860	32844	
3646	0	32864	32766	
3647	0	32820	32742	
3648	0	32806	32806	
3649	0	32784	32746	
3650	0	32864	32826	
3651	0	32752	32760	
3652	0	32750	32800	
3653	0	32800	32704	
3654	0	32744	32738	
3655	0	32828	32741	
3656	0	32864	32852	
3657	0	32792	32766	
3658	0	32812	32736	
3659	0	32812	32718	
3660	0	32862	32724	
3661	0	32794	32802	
3662	0	32804	32816	
3663	0	32842	32754	
3664	0	32752	32710	
3665	0	32750	32840	
3666	0	32852	32828	
3667	0	32858	32785	
3668	0	32860	32796	
3669	0	32844	32832	
3670	0	32842	32710	
3671	0	32716	32748	
3672	0	32798	32796	
3673	0	32864	32750	
3674	0	32744	32740	
3675	0	32816	32753	
3676	0	32796	32810	
3677	0	32816	32736	
3678	0	32786	32834	
3679	0	32824	32794	
3680	0	32796	32784	
3681	0	32764	32870	
3682	0	32760	32775	
3683	0	32772	32820	
3684	0	32816	32750	
3685	0	32828	32706	
3686	0	32852	32858	
3687	0	32778	32794	
3688	0	32784	32713	
3689	0	32828	32598	
3690	0	32792	32736	
3691	0	32782	32704	
3692	0	32816	32716	
3693	0	32796	32832	
3694	0	32832	32686	
3695	0	32788	32714	
3696	0	32814	32754	
3697	0	32796	32826	
3698	0	32790	32863	
3699	0	32816	32737	
3700	0	32824	32775	
3701	0	32846	32772	
3702	0	32836	32790	
3703	0	32836	32748	
3704	0	32736	32798	
3705	0	32868	32768	
3706	0	32760	32704	
3707	0	32798	32775	
3708	0	32752	32836	
3709	0	32821	32730	
3710	0	32788	32856	
3711	0	32868	32834	
3712	0	32832	32812	
3713	0	32852	32757	
3714	0	32794	32711	
3715	0	32806	32847	
3716	0	32840	32871	
3717	0	32824	32836	
3718	0	32874	32839	
3719	0	32800	32828	
3720	0	32884	32854	
3721	0	32840	32866	
3722	0	32828	32801	
3723	0	32784	32796	
3724	0	32784	32743	
3725	0	32816	32774	
3726	0	32764	32750	
3727	0	32780	32748	
3728	0	32826	32710	
3729	0	32876	32728	
3730	0	32846	32651	
3731	0	32744	32798	
3732	0	32804	32684	
3733	0	32784	32710	
3734	0	32810	32732	
3735	0	32780	32714	
3736	0	32864	32800	
3737	0	32762	32804	
3738	0	32792	32758	
3739	0	32852	32802	
3740	0	32828	32775	
3741	0	32830	32775	
3742	0	32858	32680	
3743	0	32796	32704	
3744	0	32836	32724	
3745	0	32804	32736	
3746	0	32868	32775	
3747	0	32926	32724	
3748	0	32876	32694	
3749	0	32834	32690	
3750	0	32768	32678	
3751	0	32880	32705	
3752	0	32852	32618	
3753	0	32768	32678	
3754	0	32762	32700	
3755	0	32824	32647	
3756	0	32812	32759	
3757	0	32860	32727	
3758	0	32816	32740	
3759	0	32826	32775	
3760	0	32742	32698	
3761	0	32748	32775	
3762	0	32752	32740	
3763	0	32798	32838	
3764	0	32864	32788	
3765	0	32808	32822	
3766	0	32788	32846	
3767	0	32792	32816	
3768	0	32688	32774	
3769	0	32758	32770	
3770	0	32750	32870	
3771	0	32728	32760	
3772	0	32768	32736	
3773	0	32820	32775	
3774	0	32824	32864	
3775	0	32822	32756	
3776	0	32782	32712	
3777	0	32848	32698	
3778	0	32840	32660	
3779	0	32804	32676	
3780	0	32748	32596	
3781	0	32792	32751	
3782	0	32772	32694	
3783	0	32736	32692	
3784	0	32780	32748	
3785	0	32740	32764	
3786	0	32794	32716	
3787	0	32776	32718	
3788	0	32812	32728	
3789	0	32754	32736	
3790	0	32776	32800	
3791	0	32724	32808	
3792	0	32758	32816	
3793	0	32744	32867	
3794	0	32852	32828	
3795	0	32839	32800	
3796	0	32840	32824	
3797	0	32796	32682	
3798	0	32880	32852	
3799	0	32688	32775	
3800	0	32721	32766	
3801	0	32738	32788	
3802	0	32782	32739	
3803	0	32836	32762	
3804	0	32744	32686	
3805	0	32782	32676	
3806	0	32776	32762	
3807	0	32702	32718	
3808	0	32752	32775	
3809	0	32720	32705	
3810	0	32656	32757	
3811	0	32584	32618	
3812	0	32600	32816	
3813	0	32576	32740	
3814	0	32612	32825	
3815	0	32656	32670	
3816	0	32696	32734	
3817	0	32800	32794	
3818	0	32810	32722	
3819	0	32788	32754	
3820	0	32744	32836	
3821	0	32830	32938	
3822	0	32880	32848	
3823	0	32940	32839	
3824	0	32900	32792	
3825	0	32942	32828	
3826	0	32968	32775	
3827	0	33000	32674	
3828	0	32856	32652	
3829	0	32926	32734	
3830	0	32864	32684	
3831	0	32868	32762	
3832	0	32896	32775	
3833	0	32890	32727	
3834	0	32862	32821	
3835	0	32876	32804	
3836	0	32884	32792	
3837	0	33056	32802	
3838	0	33000	32830	
3839	0	32952	32756	
3840	0	32980	32814	
3841	0	32884	32740	
3842	0	32832	32740	
3843	0	32852	32680	
3844	0	32786	32711	
3845	0	32790	32711	
3846	0	32748	32863	
3847	0	32796	32768	
3848	0	32780	32794	
3849	0	32808	32742	
3850	0	32752	32798	
3851	0	32836	32747	
3852	0	32896	32732	
3853	0	32824	32818	
3854	0	32780	32830	
3855	0	32664	32740	
3856	0	32766	32668	
3857	0	32746	32766	
3858	0	32908	32736	
3859	0	32888	32775	
3860	0	32980	32807	
3861	0	32896	32775	
3862	0	32842	32864	
3863	0	32776	32729	
3864	0	32888	32790	
3865	0	32764	32756	
3866	0	32764	32750	
3867	0	32702	32758	
3868	0	32772	32704	
3869	0	32686	32680	
3870	0	32754	32692	
3871	0	32804	32692	
3872	0	32664	32726	
3873	0	32732	32761	
3874	0	32770	32662	
3875	0	32764	32720	
3876	0	32798	32712	
3877	0	32830	32726	
3878	0	32874	32628	
3879	0	32792	32672	
3880	0	32770	32696	
3881	0	32722	32719	
3882	0	32680	32695	
3883	0	32612	32832	
3884	0	32624	32807	
3885	0	32624	32839	
3886	0	32660	32798	
3887	0	32684	32788	
3888	0	32676	32676	
3889	0	32726	32718	
3890	0	32610	32698	
3891	0	32696	32812	
3892	0	32620	32846	
3893	0	32566	32845	
3894	0	32648	32650	
3895	0	32616	32775	
3896	0	32688	32854	
3897	0	32652	32814	
3898	0	32632	32775	
3899	0	32600	32752	
3900	0	32488	32764	
3901	0	32486	32764	
3902	0	32600	32775	
3903	0	32584	32712	
3904	0	32532	32696	
3905	0	32608	32702	
3906	0	32578	32610	
3907	0	32640	32654	
3908	0	32650	32676	
3909	0	32574	32831	
3910	0	32564	32847	
3911	0	32388	32814	
3912	0	32376	32768	
3913	0	32372	32762	
3914	0	32368	32644	
3915	0	32449	32870	
3916	0	32504	32740	
3917	0	32588	32852	
3918	0	32654	32846	
3919	0	32588	32770	
3920	0	32566	32764	
3921	0	32526	32856	
3922	0	32520	32774	
3923	0	32588	32786	
3924	0	32618	32684	
3925	0	32636	32618	
3926	0	32592	32694	
3927	0	32692	32767	
3928	0	32720	32670	
3929	0	32668	32824	
3930	0	32488	32738	
3931	0	32544	32775	
3932	0	32480	32854	
3933	0	32536	32727	
3934	0	32476	32726	
3935	0	32516	32600	
3936	0	32552	32672	
3937	0	32660	32640	
3938	0	32544	32642	
3939	0	32636	32673	
3940	0	32540	32743	
3941	0	32524	32806	
3942	0	32420	32810	
3943	0	32476	32772	
3944	0	32648	32808	
3945	0	32664	32746	
3946	0	32604	32750	
3947	0	32612	32754	
3948	0	32668	32718	
3949	0	32668	32692	
3950	0	32812	32718	
3951	0	32812	32706	
3952	0	32912	32748	
3953	0	32948	32695	
3954	0	33140	32774	
3955	0	33318	32710	
3956	0	33346	32756	
3957	0	33368	32773	
3958	0	33536	32740	
3959	0	33676	32734	
3960	0	33784	32774	
3961	0	33686	32660	
3962	0	33704	32671	
3963	0	33662	32540	
3964	0	33712	32628	
3965	0	33802	32668	
3966	0	33922	32679	
3967	0	33952	32778	
3968	0	33920	32744	
3969	0	33884	32775	
3970	0	33824	32775	
3971	0	33808	32720	
3972	0	33824	32742	
3973	0	33712	32692	
3974	0	33624	32670	
3975	0	33556	32788	
3976	0	33582	32697	
3977	0	33428	32664	
3978	0	33468	32731	
3979	0	33342	32788	
3980	0	33424	32826	
3981	0	33290	32796	
3982	0	33300	32761	
3983	0	33224	32775	
3984	0	33174	32748	
3985	0	33140	32804	
3986	0	33164	32756	
3987	0	33068	32760	
3988	0	32958	32872	
3989	0	32873	32926	
3990	0	32844	32830	
3991	0	32888	32830	
3992	0	32868	32804	
3993	0	32818	32794	
3994	0	32922	32837	
3995	0	32912	32870	
3996	0	32924	32796	
3997	0	32984	32732	
3998	0	32990	32839	
3999	0	32984	32820	
4000	0	33106	32812	
4001	0	33060	32923	
4002	0	33130	32948	
4003	0	33100	33022	
4004	0	33092	32970	
4005	0	33172	33078	
4006	0	33137	33040	
4007	0	33140	33148	
4008	0	33172	33094	
4009	0	33220	33031	
4010	0	33270	32984	
4011	0	33258	32844	
4012	0	33336	32860	
4013	0	33288	32816	
4014	0	33284	32844	
4015	0	33328	32936	
4016	0	33400	33019	
4017	0	33432	33066	
4018	0	33428	33060	
4019	0	33516	33098	
4020	0	33454	33116	
4021	0	33504	33020	
4022	0	33496	33006	
4023	0	33432	32978	
4024	0	33390	33015	
4025	0	33432	32904	
4026	0	33424	32962	
4027	0	33368	33022	
4028	0	33300	33018	
4029	0	33224	32884	
4030	0	33220	32922	
4031	0	33070	32951	
4032	0	33020	32958	
4033	0	32900	32990	
4034	0	32770	33092	
4035	0	32780	32880	
4036	0	32700	32780	
4037	0	32644	32684	
4038	0	32546	32692	
4039	0	32516	32862	
4040	0	32440	32815	
4041	0	32372	32815	
4042	0	32396	32874	
4043	0	32314	32910	
4044	0	32405	32902	
4045	0	32296	32958	
4046	0	32266	32980	
4047	0	32320	33078	
4048	0	32268	33028	
4049	0	32216	33060	
4050	0	32276	33058	
4051	0	32276	33094	
4052	0	32323	33128	
4053	0	32188	33050	
4054	0	32300	32996	
4055	0	32356	32956	
4056	0	32396	32932	
4057	0	32385	32820	
4058	0	32426	32676	
4059	0	32450	32666	
4060	0	32450	32700	
4061	0	32532	32692	
4062	0	32542	32684	
4063	0	32592	32604	
4064	0	32644	32647	
4065	0	32608	32484	
4066	0	32656	32416	
4067	0	32612	32400	
4068	0	32540	32410	
4069	0	32484	32618	
4070	0	32569	32572	
4071	0	32480	32518	
4072	0	32520	32455	
4073	0	32528	32502	
4074	0	32536	32472	
4075	0	32468	32452	
4076	0	32432	32546	
4077	0	32430	32476	
4078	0	32404	32564	
4079	0	32368	32620	
4080	0	32388	32412	
4081	0	32386	32454	
4082	0	32368	32408	
4083	0	32330	32376	
4084	0	32344	32450	
4085	0	32328	32536	
4086	0	32348	32519	
4087	0	32328	32468	
4088	0	32328	32416	
4089	0	32374	32430	
4090	0	32364	32388	
4091	0	32300	32518	
4092	0	32328	32519	
4093	0	32348	32436	
4094	0	32336	32490	
4095	0	32340	32476	
4096	0	32282	32586	
4097	0	32368	32593	
4098	0	32382	32646	
4099	0	32448	32647	
4100	0	32464	32578	
4101	0	32532	32600	
4102	0	32624	32688	
4103	0	32584	32798	
4104	0	32632	32716	
4105	0	32694	32728	
4106	0	32648	32728	
4107	0	32632	32748	
4108	0	32580	32769	
4109	0	32570	32775	
4110	0	32636	32760	
4111	0	32616	32726	
4112	0	32596	32792	
4113	0	32644	32771	
4114	0	32696	32606	
4115	0	32710	32618	
4116	0	32660	32676	
4117	0	32684	32710	
4118	0	32616	32814	
4119	0	32674	32746	
4120	0	32742	32712	
4121	0	32706	32718	
4122	0	32748	32768	
4123	0	32720	32734	
4124	0	32762	32693	
4125	0	32760	32690	
4126	0	32740	32670	
4127	0	32774	32638	
4128	0	32752	32834	
4129	0	32816	32730	
4130	0	32848	32799	
4131	0	32820	32775	
4132	0	32828	32754	
4133	0	32864	32693	
4134	0	32806	32672	
4135	0	32896	32708	
4136	0	32812	32674	
4137	0	32780	32748	
4138	0	32798	32806	
4139	0	32884	32829	
4140	0	32900	32871	
4141	0	32880	32924	
4142	0	32868	32828	
4143	0	32878	32790	
4144	0	32832	32824	
4145	0	32880	32932	
4146	0	32872	32832	
4147	0	32764	32808	
4148	0	32808	32859	
4149	0	32752	32839	
4150	0	32700	32823	
4151	0	32680	32805	
4152	0	32748	32836	
4153	0	32716	32692	
4154	0	32788	32810	
4155	0	32692	32842	
4156	0	32740	32750	
4157	0	32660	32775	
4158	0	32810	32782	
4159	0	32886	32808	
4160	0	32768	32808	
4161	0	32860	32728	
4162	0	32996	32668	
4163	0	33008	32672	
4164	0	33036	32664	
4165	0	32928	32656	
4166	0	32852	32582	
4167	0	32830	32574	
4168	0	32940	32593	
4169	0	32816	32578	
4170	0	32840	32620	
4171	0	32892	32694	
4172	0	32869	32721	
4173	0	32884	32647	
4174	0	32864	32619	
4175	0	32902	32647	
4176	0	32913	32646	
4177	0	32920	32642	
4178	0	32944	32619	
4179	0	32940	32728	
4180	0	32970	32712	
4181	0	32912	32712	
4182	0	32878	32788	
4183	0	32786	32761	
4184	0	32896	32804	
4185	0	32832	32858	
4186	0	32890	32708	
4187	0	32828	32836	
4188	0	32834	32864	
4189	0	32868	32996	
4190	0	32882	32922	
4191	0	32888	33016	
4192	0	32860	33084	
4193	0	32860	33058	
4194	0	32968	32984	
4195	0	32906	33058	
4196	0	32840	32948	
4197	0	32820	32870	
4198	0	32852	32884	
4199	0	32792	32808	
4200	0	32812	32935	
4201	0	32812	32892	
4202	0	32836	32847	
4203	0	32775	32926	
4204	0	32798	32932	
4205	0	32836	32903	
4206	0	32772	32806	
4207	0	32780	32871	
4208	0	32748	32884	
4209	0	32698	32801	
4210	0	32814	32768	
4211	0	32796	32775	
4212	0	32716	32775	
4213	0	32744	32764	
4214	0	32824	32775	
4215	0	32868	32766	
4216	0	32842	32807	
4217	0	32832	32775	
4218	0	32866	32764	
4219	0	32794	32764	
4220	0	32870	32794	
4221	0	32868	32838	
4222	0	32838	32930	
4223	0	32858	32928	
4224	0	32824	32935	
4225	0	32878	32922	
4226	0	32880	32868	
4227	0	32904	32828	
4228	0	32852	32802	
4229	0	32860	32775	
4230	0	32856	32711	
4231	0	32840	32746	
4232	0	32884	32816	
4233	0	32832	32836	
4234	0	32780	32762	
4235	0	32832	32688	
4236	0	32798	32818	
4237	0	32835	32946	
4238	0	32844	32898	
4239	0	32888	32980	
4240	0	32814	32934	
4241	0	32710	32930	
4242	0	32760	32916	
4243	0	32836	32900	
4244	0	32896	32820	
4245	0	32812	32786	
4246	0	32846	32810	
4247	0	32854	32890	
4248	0	32854	32862	
4249	0	32894	32852	
4250	0	32852	32820	
4251	0	32868	32775	
4252	0	32936	32903	
4253	0	32892	32836	
4254	0	32980	32828	
4255	0	32900	32938	
4256	0	32816	32974	
4257	0	32764	32863	
4258	0	32700	32790	
4259	0	32778	32880	
4260	0	32644	32756	
4261	0	32794	32888	
4262	0	32774	32894	
4263	0	32816	32775	
4264	0	32818	32674	
4265	0	32813	32724	
4266	0	32772	32775	
4267	0	32892	32732	
4268	0	32828	32692	
4269	0	32820	32656	
4270	0	32828	32730	
4271	0	32694	32874	
4272	0	32624	32740	
4273	0	32722	32751	
4274	0	32733	32647	
4275	0	32786	32682	
4276	0	32760	32663	
4277	0	32740	32702	
4278	0	32712	32815	
4279	0	32775	32871	
4280	0	32802	32882	
4281	0	32814	32860	
4282	0	32842	32744	
4283	0	32736	32716	
4284	0	32890	32660	
4285	0	32984	32560	
4286	0	32970	32574	
4287	0	33036	32596	
4288	0	33038	32532	
4289	0	33006	32688	
4290	0	32940	32568	
4291	0	32988	32566	
4292	0	32902	32630	
4293	0	32888	32652	
4294	0	32812	32726	
4295	0	32838	32774	
4296	0	32814	32697	
4297	0	32884	32810	
4298	0	32736	32736	
4299	0	32768	32796	
4300	0	32768	32783	
4301	0	32742	32706	
4302	0	32852	32665	
4303	0	32740	32732	
4304	0	32824	32652	
4305	0	32834	32704	
4306	0	32868	32671	
4307	0	32794	32750	
4308	0	32846	32689	
4309	0	32869	32768	
4310	0	32894	32775	
4311	0	32912	32810	
4312	0	32896	32712	
4313	0	32912	32637	
4314	0	32988	32474	
4315	0	32920	32478	
4316	0	32952	32360	
4317	0	33010	32401	
4318	0	32956	32468	
4319	0	32968	32468	
4320	0	32879	32590	
4321	0	32909	32742	
4322	0	32874	32728	
4323	0	32916	32708	
4324	0	32964	32696	
4325	0	32970	32690	
4326	0	32960	32618	
4327	0	32900	32460	
4328	0	32956	32500	
4329	0	32836	32746	
4330	0	32676	32848	
4331	0	32600	32868	
4332	0	32492	32884	
4333	0	32388	32903	
4334	0	32188	32998	
4335	0	32148	33300	
4336	0	32162	33716	
4337	0	32252	33666	
4338	0	32490	33366	
4339	0	32720	33110	
4340	0	32790	32982	
4341	0	32820	33136	
4342	0	32882	32974	
4343	0	32876	32956	
4344	0	32754	32964	
4345	0	32694	33004	
4346	0	32778	32586	
4347	0	32844	32618	
4348	0	32872	32623	
4349	0	32928	32506	
4350	0	33016	32400	
4351	0	33072	32432	
4352	0	33020	32313	
4353	0	33057	32340	
4354	0	33024	32436	
4355	0	33008	32473	
4356	0	32984	32440	
4357	0	33028	32516	
4358	0	33000	32560	
4359	0	32992	32572	
4360	0	33072	32710	
4361	0	33065	32576	
4362	0	32916	32614	
4363	0	32808	32726	
4364	0	32932	32647	
4365	0	32890	32727	
4366	0	32884	32679	
4367	0	32856	32720	
4368	0	32772	32834	
4369	0	32886	32830	
4370	0	32738	32806	
4371	0	32704	32924	
4372	0	32892	32872	
4373	0	32924	32903	
4374	0	32868	32830	
4375	0	32916	32878	
4376	0	32894	32916	
4377	0	32912	32852	
4378	0	32894	32868	
4379	0	32880	32772	
4380	0	32732	32714	
4381	0	32746	32775	
4382	0	32764	32713	
4383	0	32730	32744	
4384	0	32876	32754	
4385	0	32868	32770	
4386	0	32868	32594	
4387	0	32838	32536	
4388	0	32880	32640	
4389	0	32912	32775	
4390	0	32840	32728	
4391	0	32796	32672	
4392	0	32764	32716	
4393	0	32612	32746	
4394	0	32524	32818	
4395	0	32498	33082	
4396	0	32528	32880	
4397	0	32560	32654	
4398	0	32752	32598	
4399	0	32836	32764	
4400	0	32960	32864	
4401	0	32956	32990	
4402	0	33020	32906	
4403	0	33028	32868	
4404	0	32978	32754	
4405	0	32936	32740	
4406	0	32762	32756	
4407	0	32780	32868	
4408	0	32644	32870	
4409	0	32714	32789	
4410	0	32668	32728	
4411	0	32708	32710	
4412	0	32776	32689	
4413	0	32772	32602	
4414	0	32836	32631	
4415	0	32778	32600	
4416	0	32736	32708	
4417	0	32760	32802	
4418	0	32672	32855	
4419	0	32614	32752	
4420	0	32676	32839	
4421	0	32640	32930	
4422	0	32532	32840	
4423	0	32564	32644	
4424	0	32558	32740	
4425	0	32608	32710	
4426	0	32608	32801	
4427	0	32538	32890	
4428	0	32482	32816	
4429	0	32480	32902	
4430	0	32308	32988	
4431	0	32320	32924	
4432	0	32496	32904	
4433	0	32616	32903	
4434	0	32568	32775	
4435	0	32304	32775	
4436	0	32250	32775	
4437	0	32328	32816	
4438	0	32460	32660	
4439	0	32248	32519	
4440	0	32236	32519	
4441	0	32348	32706	
4442	0	32458	32964	
4443	0	32594	32806	
4444	0	32648	32513	
4445	0	32684	32496	
4446	0	32784	32518	
4447	0	32808	32712	
4448	0	32700	32640	
4449	0	32712	32641	
4450	0	32772	32680	
4451	0	32860	32882	
4452	0	32708	32766	
4453	0	32702	32742	
4454	0	32888	32768	
4455	0	32908	32946	
4456	0	33004	32990	
4457	0	33028	32992	
4458	0	33028	32902	
4459	0	33036	32934	
4460	0	33028	32879	
4461	0	33016	32862	
4462	0	33076	32902	
4463	0	33116	32916	
4464	0	33180	32916	
4465	0	33116	32943	
4466	0	33088	32930	
4467	0	33130	32926	
4468	0	33140	32948	
4469	0	33146	33104	
4470	0	33348	33233	
4471	0	33384	33063	
4472	0	33416	32960	
4473	0	33366	32774	
4474	0	33172	32632	
4475	0	32944	32310	
4476	0	32790	32196	
4477	0	32480	32159	
4478	0	32904	32193	
4479	0	33540	32236	
4480	0	33392	32556	
4481	0	33560	32679	
4482	0	33490	32807	
4483	0	33194	32792	
4484	0	32840	32748	
4485	0	32752	32834	
4486	0	32872	32934	
4487	0	33020	33096	
4488	0	33164	33304	
4489	0	33128	33270	
4490	0	33024	33016	
4491	0	33012	32750	
4492	0	32880	32519	
4493	0	32840	32480	
4494	0	32886	32472	
4495	0	33102	32518	
4496	0	33166	32618	
4497	0	33236	32807	
4498	0	32970	32696	
4499	0	33028	32663	
4500	0	32984	32628	
4501	0	33036	32736	
4502	0	32906	32823	
4503	0	32924	32832	
4504	0	32780	32836	
4505	0	32588	32820	
4506	0	32663	32668	
4507	0	32842	32764	
4508	0	32980	32954	
4509	0	33062	33039	
4510	0	32960	32686	
4511	0	32881	32892	
4512	0	32810	32976	
4513	0	32734	32774	
4514	0	32700	32580	
4515	0	32640	32442	
4516	0	32668	32282	
4517	0	32804	32190	
4518	0	32776	32108	
4519	0	32776	32391	
4520	0	32704	32559	
4521	0	32686	32775	
4522	0	32632	32834	
4523	0	32596	32870	
4524	0	32732	32802	
4525	0	32828	32516	
4526	0	32848	32606	
4527	0	33010	32913	
4528	0	33088	33100	
4529	0	32934	33095	
4530	0	32524	33031	
4531	0	32340	33022	
4532	0	32324	33122	
4533	0	32348	32792	
4534	0	32398	32646	
4535	0	32624	32726	
4536	0	32932	32775	
4537	0	32920	32790	
4538	0	33016	32574	
4539	0	32904	32516	
4540	0	32962	32749	
4541	0	32920	32730	
4542	0	32800	32764	
4543	0	32688	32622	
4544	0	32640	32772	
4545	0	33260	32911	
4546	0	33124	32980	
4547	0	32842	32580	
4548	0	33056	32494	
4549	0	32966	32593	
4550	0	32458	32684	
4551	0	31889	32864	
4552	0	31828	33337	
4553	0	32380	33326	
4554	0	32764	32862	
4555	0	32780	32824	
4556	0	32814	32646	
4557	0	32804	32576	
4558	0	32766	32558	
4559	0	32758	32620	
4560	0	32834	32756	
4561	0	32896	32922	
4562	0	32990	32902	
4563	0	33050	32743	
4564	0	32930	32638	
4565	0	32772	32682	
4566	0	32816	32679	
4567	0	32852	32728	
4568	0	32860	32943	
4569	0	32882	32806	
4570	0	32900	33056	
4571	0	32788	32903	
4572	0	32484	32951	
4573	0	32612	32812	
4574	0	32472	32660	
4575	0	32454	32410	
4576	0	32484	32480	
4577	0	32560	32622	
4578	0	32632	32878	
4579	0	32868	32864	
4580	0	32956	32884	
4581	0	33006	32806	
4582	0	33016	32815	
4583	0	32878	32820	
4584	0	32924	32796	
4585	0	32738	32766	
4586	0	32548	32734	
4587	0	32458	32816	
4588	0	32906	32868	
4589	0	32816	32761	
4590	0	33054	32784	
4591	0	33028	32806	
4592	0	33060	32916	
4593	0	33036	32738	
4594	0	32816	32374	
4595	0	32738	32499	
4596	0	32564	32588	
4597	0	32548	32687	
4598	0	32300	32836	
4599	0	32420	32878	
4600	0	32712	32926	
4601	0	32704	32990	
4602	0	32812	32990	
4603	0	32722	32990	
4604	0	32500	32606	
4605	0	32512	32502	
4606	0	32764	32608	
4607	0	33012	32447	
4608	0	33318	32532	
4609	0	33289	32655	
4610	0	33016	32785	
4611	0	32820	32668	
4612	0	32770	32416	
4613	0	32860	32724	
4614	0	32768	32764	
4615	0	32740	32926	
4616	0	32814	33030	
4617	0	32740	33012	
4618	0	32790	33000	
4619	0	32794	33060	
4620	0	32655	32962	
4621	0	32652	33116	
4622	0	32612	33114	
4623	0	32612	33060	
4624	0	32762	32902	
4625	0	32784	32980	
4626	0	32644	32542	
4627	0	32450	32514	
4628	0	32540	32540	
4629	0	32628	32224	
4630	0	32804	32373	
4631	0	32858	32350	
4632	0	32976	32544	
4633	0	33108	32394	
4634	0	33108	32478	
4635	0	32996	32644	
4636	0	33060	32698	
4637	0	32996	32594	
4638	0	32804	32660	
4639	0	32704	32757	
4640	0	32800	32824	
4641	0	32906	32818	
4642	0	33028	32799	
4643	0	32838	33148	
4644	0	33144	33031	
4645	0	33042	32966	
4646	0	32708	32750	
4647	0	33190	32775	
4648	0	32860	33046	
4649	0	32532	33076	
4650	0	32871	33049	
4651	0	32593	32991	
4652	0	32836	32872	
4653	0	32532	32732	
4654	0	32561	32562	
4655	0	32788	32614	
4656	0	32821	32766	
4657	0	32792	32903	
4658	0	32584	32900	
4659	0	32676	32742	
4660	0	32716	32416	
4661	0	32760	32500	
4662	0	32832	32428	
4663	0	32810	32108	
4664	0	32776	32180	
4665	0	32724	32500	
4666	0	32752	32768	
4667	0	32890	32966	
4668	0	32840	32848	
4669	0	32992	32724	
4670	0	32904	32847	
4671	0	32964	32846	
4672	0	33016	32817	
4673	0	33000	32857	
4674	0	32968	32788	
4675	0	32932	32716	
4676	0	32938	32868	
4677	0	32958	32884	
4678	0	32958	32872	
4679	0	33064	32888	
4680	0	32968	32993	
4681	0	32872	32770	
4682	0	32888	32767	
4683	0	32836	32596	
4684	0	32854	32660	
4685	0	32762	32806	
4686	0	32798	32815	
4687	0	32800	32822	
4688	0	32718	32902	
4689	0	32708	32850	
4690	0	32828	32822	
4691	0	32810	32928	
4692	0	32712	33071	
4693	0	32598	32839	
4694	0	32762	32727	
4695	0	32768	32590	
4696	0	32828	32720	
4697	0	32680	32663	
4698	0	32694	32894	
4699	0	32820	32730	
4700	0	33132	32606	
4701	0	33260	32604	
4702	0	33178	32358	
4703	0	33000	32396	
4704	0	32816	32679	
4705	0	32812	32849	
4706	0	32804	32900	
4707	0	32792	32829	
4708	0	32716	32708	
4709	0	32706	32574	
4710	0	32644	32388	
4711	0	32668	32358	
4712	0	32698	32788	
4713	0	32686	32883	
4714	0	32696	32918	
4715	0	32716	33267	
4716	0	32852	33908	
4717	0	32948	34222	
4718	0	32932	34174	
4719	0	32968	33794	
4720	0	32932	33518	
4721	0	32806	32630	
4722	0	32892	32062	
4723	0	32806	31724	
4724	0	32632	31292	
4725	0	32584	31539	
4726	0	32604	32108	
4727	0	32720	32366	
4728	0	32817	32256	
4729	0	32774	32204	
4730	0	32814	32186	
4731	0	32768	32358	
4732	0	32668	32478	
4733	0	32672	32468	
4734	0	32684	32890	
4735	0	32818	32950	
4736	0	32834	33198	
4737	0	32886	33365	
4738	0	32932	33223	
4739	0	33002	33272	
4740	0	33004	33062	
4741	0	33076	32852	
4742	0	33080	32991	
4743	0	33166	33132	
4744	0	33046	33031	
4745	0	33044	33138	
4746	0	32912	33103	
4747	0	32808	33024	
4748	0	32572	32868	
4749	0	32428	32660	
4750	0	32558	32377	
4751	0	32672	32446	
4752	0	32576	32646	
4753	0	32684	32814	
4754	0	32676	33053	
4755	0	32706	33142	
4756	0	32824	33490	
4757	0	32764	34232	
4758	0	32884	34586	
4759	0	32752	34070	
4760	0	32850	33768	
4761	0	32828	33730	
4762	0	32872	33514	
4763	0	32760	32074	
4764	0	32714	30900	
4765	0	32854	31075	
4766	0	32904	31528	
4767	0	32788	31392	
4768	0	32852	30670	
4769	0	32926	31014	
4770	0	32928	31664	
4771	0	32928	31464	
4772	0	32816	31359	
4773	0	32720	31806	
4774	0	32772	32212	
4775	0	32774	32718	
4776	0	32612	33010	
4777	0	32716	32959	
4778	0	32768	33094	
4779	0	32784	33364	
4780	0	32720	33512	
4781	0	32741	33470	
4782	0	32644	33378	
4783	0	32676	33550	
4784	0	32708	33836	
4785	0	32736	34214	
4786	0	32716	34001	
4787	0	32686	33866	
4788	0	32708	33614	
4789	0	32774	33240	
4790	0	32798	32897	
4791	0	32816	32295	
4792	0	32820	32204	
4793	0	32762	32263	
4794	0	32768	32284	
4795	0	32760	32384	
4796	0	32724	32286	
4797	0	32698	32156	
4798	0	32784	32286	
4799	0	32874	32538	
4800	0	32808	32730	
4801	0	32880	33102	
4802	0	32968	33782	
4803	0	32900	34216	
4804	0	33024	33838	
4805	0	33132	32953	
4806	0	33210	32576	
4807	0	33144	31647	
4808	0	32684	31358	
4809	0	32484	31360	
4810	0	32380	31904	
4811	0	32488	32164	
4812	0	32600	32209	
4813	0	32664	32415	
4814	0	32736	32600	
4815	0	32726	32710	
4816	0	32724	32760	
4817	0	32846	32898	
4818	0	32952	32876	
4819	0	32844	32974	
4820	0	32800	33150	
4821	0	32746	33136	
4822	0	32912	33211	
4823	0	33096	33126	
4824	0	33184	33224	
4825	0	33256	33024	
4826	0	33240	33126	
4827	0	33116	33306	
4828	0	33010	33136	
4829	0	32752	32807	
4830	0	32724	33184	
4831	0	32682	33446	
4832	0	32624	33638	
4833	0	32642	33551	
4834	0	32750	33700	
4835	0	32626	33796	
4836	0	32560	33822	
4837	0	32604	33530	
4838	0	32692	32616	
4839	0	32754	31526	
4840	0	32760	31439	
4841	0	32808	30300	
4842	0	32800	29934	
4843	0	32760	30530	
4844	0	32820	31420	
4845	0	32810	32062	
4846	0	32860	32596	
4847	0	32860	32562	
4848	0	32814	32770	
4849	0	32764	32878	
4850	0	32884	32720	
4851	0	32872	32871	
4852	0	32799	33064	
4853	0	32794	33441	
4854	0	32824	33572	
4855	0	32769	33498	
4856	0	32804	33568	
4857	0	32800	33396	
4858	0	32886	33256	
4859	0	32958	33188	
4860	0	33000	33082	
4861	0	32928	32988	
4862	0	32820	33000	
4863	0	32690	32981	
4864	0	32628	32854	
4865	0	32654	33016	
4866	0	32772	33103	
4867	0	32738	33048	
4868	0	32896	33104	
4869	0	33002	33140	
4870	0	32906	33370	
4871	0	32764	33408	
4872	0	32724	33084	
4873	0	32608	32606	
4874	0	32632	32198	
4875	0	32656	31692	
4876	0	32768	31654	
4877	0	32958	31566	
4878	0	32980	32198	
4879	0	32896	32844	
4880	0	32864	33044	
4881	0	32900	33058	
4882	0	32804	32766	
4883	0	32760	32708	
4884	0	32828	32512	
4885	0	32882	32225	
4886	0	32890	32166	
4887	0	32868	32452	
4888	0	32824	32766	
4889	0	32768	32752	
4890	0	32736	32775	
4891	0	32594	32856	
4892	0	32768	32763	
4893	0	32632	32836	
4894	0	32676	32752	
4895	0	32756	32639	
4896	0	32790	33116	
4897	0	32776	33514	
4898	0	32874	33425	
4899	0	32848	33306	
4900	0	32918	33031	
4901	0	32900	33255	
4902	0	32972	32967	
4903	0	32904	32734	
4904	0	32904	32716	
4905	0	32918	32646	
4906	0	32992	32650	
4907	0	32844	32548	
4908	0	32724	32287	
4909	0	32752	32216	
4910	0	32652	32060	
4911	0	32604	32131	
4912	0	32728	32510	
4913	0	32810	32794	
4914	0	32828	32678	
4915	0	32868	32647	
4916	0	32886	32666	
4917	0	32916	32750	
4918	0	32900	32892	
4919	0	32834	33030	
4920	0	32940	33136	
4921	0	32740	33394	
4922	0	32688	33617	
4923	0	32832	34262	
4924	0	32776	34892	
4925	0	32672	34522	
4926	0	32690	33656	
4927	0	32776	32846	
4928	0	32872	32056	
4929	0	32836	31260	
4930	0	32812	30512	
4931	0	32752	30316	
4932	0	32726	30969	
4933	0	32760	31959	
4934	0	32728	32180	
4935	0	32744	32690	
4936	0	32792	32604	
4937	0	32838	32528	
4938	0	32820	32574	
4939	0	32872	32816	
4940	0	32916	32956	
4941	0	32896	32862	
4942	0	32930	33534	
4943	0	32886	34082	
4944	0	32862	34490	
4945	0	32884	34415	
4946	0	32878	34136	
4947	0	32852	33660	
4948	0	32814	33178	
4949	0	32954	32231	
4950	0	32940	31340	
4951	0	32878	31060	
4952	0	32872	30968	
4953	0	32608	31451	
4954	0	32544	31816	
4955	0	32680	32039	
4956	0	32772	32684	
4957	0	32796	32758	
4958	0	32784	32772	
4959	0	32874	32622	
4960	0	32840	32592	
4961	0	32744	32806	
4962	0	32700	33083	
4963	0	32712	33149	
4964	0	32848	33388	
4965	0	32872	33424	
4966	0	32832	33452	
4967	0	32934	33276	
4968	0	32902	33212	
4969	0	33028	33344	
4970	0	32996	33148	
4971	0	32890	33158	
4972	0	32834	32978	
4973	0	32876	33222	
4974	0	32744	33310	
4975	0	32708	33384	
4976	0	32716	33150	
4977	0	32720	33218	
4978	0	32696	33100	
4979	0	32688	32608	
4980	0	32762	32058	
4981	0	32846	32231	
4982	0	32870	32399	
4983	0	32854	32328	
4984	0	32798	32121	
4985	0	32780	32367	
4986	0	32780	32342	
4987	0	32758	32260	
4988	0	32762	32534	
4989	0	32778	32528	
4990	0	32862	32362	
4991	0	32810	32466	
4992	0	32756	32606	
4993	0	32752	32880	
4994	0	32762	32966	
4995	0	32822	33278	
4996	0	32760	33202	
4997	0	32782	33212	
4998	0	32904	33444	
4999	0	32922	33534	
5000	0	33066	33696	
5001	0	33086	33210	
5002	0	32902	32842	
5003	0	32748	32224	
5004	0	32404	32074	
5005	0	32308	31884	
5006	0	32292	32094	
5007	0	32588	32538	
5008	0	32656	32740	
5009	0	32656	33204	
5010	0	32798	33184	
5011	0	32984	33224	
5012	0	32912	32850	
5013	0	32880	32514	
5014	0	32878	32322	
5015	0	32808	32162	
5016	0	32896	32086	
5017	0	32758	32084	
5018	0	32800	32646	
5019	0	32955	32759	
5020	0	32972	32670	
5021	0	32992	32839	
5022	0	33144	32792	
5023	0	33030	32746	
5024	0	33032	32996	
5025	0	32926	33150	
5026	0	33012	33031	
5027	0	32868	32834	
5028	0	32832	32596	
5029	0	32688	32391	
5030	0	32662	32752	
5031	0	32760	33095	
5032	0	32880	33127	
5033	0	32840	32884	
5034	0	32814	32786	
5035	0	32924	32844	
5036	0	32892	32947	
5037	0	32780	33270	
5038	0	32732	33566	
5039	0	32736	33600	
5040	0	32720	33622	
5041	0	32854	33238	
5042	0	32754	32658	
5043	0	32816	32496	
5044	0	32984	31647	
5045	0	33002	31266	
5046	0	33033	31998	
5047	0	32954	32400	
5048	0	32860	32986	
5049	0	32784	32900	
5050	0	32676	32694	
5051	0	32720	32106	
5052	0	32626	32244	
5053	0	32620	32126	
5054	0	32796	32440	
5055	0	33052	32439	
5056	0	33084	32528	
5057	0	32992	32516	
5058	0	32712	32389	
5059	0	32534	33031	
5060	0	32628	33311	
5061	0	32808	33220	
5062	0	32860	32974	
5063	0	32918	32964	
5064	0	32954	33028	
5065	0	33062	32932	
5066	0	33180	32644	
5067	0	33316	32720	
5068	0	33058	32916	
5069	0	33148	32990	
5070	0	33022	33314	
5071	0	32848	33060	
5072	0	32736	32552	
5073	0	32750	32306	
5074	0	32704	32511	
5075	0	32968	32584	
5076	0	32962	32616	
5077	0	32876	32725	
5078	0	32872	32700	
5079	0	32764	32692	
5080	0	32648	32808	
5081	0	32692	32660	
5082	0	32740	32748	
5083	0	32656	32710	
5084	0	32557	33112	
5085	0	32564	33218	
5086	0	32570	33180	
5087	0	32396	33364	
5088	0	32250	33718	
5089	0	32164	33860	
5090	0	32382	33618	
5091	0	32536	33220	
5092	0	32656	33104	
5093	0	32664	33216	
5094	0	32624	33284	
5095	0	32794	32908	
5096	0	32812	32836	
5097	0	32816	32487	
5098	0	32852	32263	
5099	0	32884	32250	
5100	0	32898	32204	
5101	0	32952	32177	
5102	0	33016	32486	
5103	0	33024	32436	
5104	0	33008	32674	
5105	0	33088	32706	
5106	0	32892	32668	
5107	0	32828	32588	
5108	0	32940	32666	
5109	0	32876	32760	
5110	0	32994	32804	
5111	0	32916	32756	
5112	0	32946	32772	
5113	0	33064	32974	
5114	0	33010	33050	
5115	0	32820	32647	
5116	0	32824	32415	
5117	0	32868	32714	
5118	0	32896	32850	
5119	0	32892	32842	
5120	0	32846	32874	
5121	0	32912	32802	
5122	0	32812	32516	
5123	0	32816	32567	
5124	0	32924	32775	
5125	0	32956	32692	
5126	0	32786	32744	
5127	0	33028	32724	
5128	0	32920	32736	
5129	0	32834	32648	
5130	0	32680	32632	
5131	0	32560	32770	
5132	0	32504	32708	
5133	0	32612	32903	
5134	0	32708	33088	
5135	0	32640	33142	
5136	0	32772	33046	
5137	0	32876	33050	
5138	0	32880	33174	
5139	0	32940	32888	
5140	0	32808	32644	
5141	0	32816	32598	
5142	0	32868	32676	
5143	0	32804	32710	
5144	0	32864	32508	
5145	0	32816	32560	
5146	0	32736	32668	
5147	0	32710	32974	
5148	0	32824	32960	
5149	0	32816	32950	
5150	0	32844	32864	
5151	0	32900	32863	
5152	0	32834	32662	
5153	0	32772	32582	
5154	0	32804	32688	
5155	0	32768	32790	
5156	0	32878	32698	
5157	0	32838	32935	
5158	0	32908	33186	
5159	0	32872	32842	
5160	0	32792	32290	
5161	0	32836	32198	
5162	0	32725	32452	
5163	0	32760	32742	
5164	0	32868	33166	
5165	0	32844	32966	
5166	0	32856	32775	
5167	0	32798	32773	
5168	0	32684	32671	
5169	0	32714	32644	
5170	0	32744	32679	
5171	0	32756	32879	
5172	0	32684	32840	
5173	0	32868	32670	
5174	0	32892	32670	
5175	0	32832	32594	
5176	0	32852	32562	
5177	0	32706	32775	
5178	0	32872	32816	
5179	0	32968	32942	
5180	0	32926	32772	
5181	0	32980	32852	
5182	0	32912	32736	
5183	0	32800	32702	
5184	0	32836	32708	
5185	0	32900	32900	
5186	0	32864	32930	
5187	0	32852	32775	
5188	0	32800	32519	
5189	0	32792	32598	
5190	0	32580	32428	
5191	0	32606	32492	
5192	0	32622	32622	
5193	0	32680	32940	
5194	0	32602	33064	
5195	0	32516	33278	
5196	0	32722	32962	
5197	0	32874	32768	
5198	0	32852	32438	
5199	0	32852	32438	
5200	0	32810	32686	
5201	0	32804	32836	
5202	0	32824	32868	
5203	0	32864	32948	
5204	0	32770	32963	
5205	0	32760	33006	
5206	0	32862	32948	
5207	0	32782	33004	
5208	0	32828	33096	
5209	0	32716	32972	
5210	0	32786	32842	
5211	0	32724	32828	
5212	0	32768	32564	
5213	0	32701	32350	
5214	0	32776	32538	
5215	0	32936	32519	
5216	0	32912	32860	
5217	0	32908	32878	
5218	0	32838	32814	
5219	0	32748	32804	
5220	0	32698	32806	
5221	0	32764	33014	
5222	0	32812	32880	
5223	0	32866	32975	
5224	0	32906	33028	
5225	0	32908	32690	
5226	0	32944	32436	
5227	0	32830	32422	
5228	0	32738	32436	
5229	0	32798	32575	
5230	0	32876	32830	
5231	0	32902	32828	
5232	0	32896	32848	
5233	0	32904	32936	
5234	0	32912	32980	
5235	0	32916	33092	
5236	0	32816	33026	
5237	0	32872	33026	
5238	0	32822	32854	
5239	0	32776	32720	
5240	0	32756	32586	
5241	0	32764	32572	
5242	0	32884	32574	
5243	0	32924	32500	
5244	0	32944	32624	
5245	0	32922	32747	
5246	0	32832	32756	
5247	0	32724	32817	
5248	0	32644	32832	
5249	0	32560	32574	
5250	0	32688	32560	
5251	0	32552	32505	
5252	0	32526	32654	
5253	0	32772	32790	
5254	0	32816	32775	
5255	0	32884	32920	
5256	0	32876	32910	
5257	0	32892	32968	
5258	0	32996	32900	
5259	0	32956	32724	
5260	0	32884	32760	
5261	0	32768	32956	
5262	0	32749	32935	
5263	0	32810	32818	
5264	0	32688	32825	
5265	0	32664	32922	
5266	0	32775	32812	
5267	0	32836	32785	
5268	0	32768	32673	
5269	0	32732	32624	
5270	0	32804	32519	
5271	0	32796	32614	
5272	0	32884	32674	
5273	0	32780	32743	
5274	0	32838	32700	
5275	0	32952	32734	
5276	0	32940	32816	
5277	0	32926	32884	
5278	0	32892	32775	
5279	0	32862	32847	
5280	0	32832	32742	
5281	0	32724	32775	
5282	0	32624	32676	
5283	0	32706	32788	
5284	0	32716	32768	
5285	0	32666	32807	
5286	0	32776	32790	
5287	0	32800	32653	
5288	0	32808	32775	
5289	0	32806	33042	
5290	0	32788	33145	
5291	0	32812	32993	
5292	0	32796	32940	
5293	0	32804	32868	
5294	0	32772	33048	
5295	0	32872	32903	
5296	0	32872	32767	
5297	0	32768	32656	
5298	0	32860	32609	
5299	0	32936	32629	
5300	0	32996	32670	
5301	0	32901	32664	
5302	0	32936	32506	
5303	0	32852	32607	
5304	0	32822	32624	
5305	0	32818	32706	
5306	0	32780	32708	
5307	0	32766	32750	
5308	0	32762	32852	
5309	0	32764	33190	
5310	0	32648	32968	
5311	0	32764	32752	
5312	0	32892	32976	
5313	0	32817	32884	
5314	0	32828	32602	
5315	0	32884	32656	
5316	0	32764	32879	
5317	0	32752	33175	
5318	0	32753	32903	
5319	0	32832	32832	
5320	0	32836	32692	
5321	0	32752	32742	
5322	0	32756	32922	
5323	0	32748	32959	
5324	0	32736	32702	
5325	0	32798	32388	
5326	0	32767	32518	
5327	0	32858	32593	
5328	0	32804	32775	
5329	0	32748	32764	
5330	0	32732	32618	
5331	0	32808	32478	
5332	0	32890	32527	
5333	0	32832	32647	
5334	0	32740	32688	
5335	0	32740	32775	
5336	0	32858	32676	
5337	0	32796	32735	
5338	0	32830	32830	
5339	0	32880	32950	
5340	0	32816	32881	
5341	0	32844	32854	
5342	0	32898	32820	
5343	0	32908	32912	
5344	0	32848	32846	
5345	0	32898	32558	
5346	0	32868	32662	
5347	0	32898	32775	
5348	0	32784	32582	
5349	0	32746	32658	
5350	0	32805	32796	
5351	0	32774	32689	
5352	0	32812	32676	
5353	0	32792	32639	
5354	0	32852	32718	
5355	0	32844	32734	
5356	0	32828	32892	
5357	0	32824	32916	
5358	0	32844	32924	
5359	0	32802	32926	
5360	0	32756	32656	
5361	0	32734	32642	
5362	0	32776	32775	
5363	0	32812	32775	
5364	0	32776	32948	
5365	0	32852	33058	
5366	0	32956	33112	
5367	0	32878	32974	
5368	0	32936	32844	
5369	0	32852	32730	
5370	0	32912	32616	
5371	0	32844	32524	
5372	0	32800	32376	
5373	0	32816	32487	
5374	0	32781	32812	
5375	0	32652	32922	
5376	0	32688	32936	
5377	0	32638	32757	
5378	0	32732	32420	
5379	0	32784	32436	
5380	0	32844	32409	
5381	0	32744	32500	
5382	0	32680	32533	
5383	0	32796	32718	
5384	0	32860	32839	
5385	0	32885	32976	
5386	0	32862	32988	
5387	0	32868	32784	
5388	0	32888	32807	
5389	0	32920	32686	
5390	0	32868	32697	
5391	0	32775	32762	
5392	0	32866	32775	
5393	0	32956	32932	
5394	0	32884	33114	
5395	0	32736	33184	
5396	0	32728	33396	
5397	0	32693	33243	
5398	0	32704	32750	
5399	0	32760	32476	
5400	0	32756	32252	
5401	0	32800	32244	
5402	0	32872	32364	
5403	0	32852	32642	
5404	0	32890	32800	
5405	0	32884	33044	
5406	0	32838	32945	
5407	0	32776	32948	
5408	0	32796	32738	
5409	0	32736	32711	
5410	0	32712	32551	
5411	0	32686	32386	
5412	0	32816	32356	
5413	0	32788	32614	
5414	0	32830	32814	
5415	0	32824	32756	
5416	0	32784	32608	
5417	0	32820	32684	
5418	0	32894	32810	
5419	0	32840	32843	
5420	0	32784	32888	
5421	0	32796	32802	
5422	0	32822	32796	
5423	0	32696	32906	
5424	0	32772	32812	
5425	0	32728	32864	
5426	0	32848	32894	
5427	0	32894	32974	
5428	0	32784	33008	
5429	0	32868	33156	
5430	0	32852	33058	
5431	0	32856	33010	
5432	0	32772	32706	
5433	0	32820	32692	
5434	0	32852	32644	
5435	0	32788	32710	
5436	0	32756	32549	
5437	0	32796	32704	
5438	0	32712	32890	
5439	0	32796	32912	
5440	0	32844	32768	
5441	0	32972	32540	
5442	0	32940	32679	
5443	0	32848	32868	
5444	0	32708	32858	
5445	0	32730	32764	
5446	0	32752	32984	
5447	0	32748	33031	
5448	0	32768	32898	
5449	0	32798	32730	
5450	0	32784	32772	
5451	0	32776	32692	
5452	0	32908	32624	
5453	0	32870	32595	
5454	0	32894	32604	
5455	0	32928	32574	
5456	0	32964	32482	
5457	0	32854	32852	
5458	0	32798	32990	
5459	0	32830	33102	
5460	0	32864	32894	
5461	0	32812	32870	
5462	0	32788	32892	
5463	0	32854	32726	
5464	0	32876	32630	
5465	0	32812	32726	
5466	0	32674	32804	
5467	0	32664	32972	
5468	0	32746	33002	
5469	0	32776	32762	
5470	0	32693	32544	
5471	0	32780	32263	
5472	0	32788	32556	
5473	0	32828	32532	
5474	0	32846	32616	
5475	0	32792	32678	
5476	0	32880	32756	
5477	0	32950	32516	
5478	0	33012	32667	
5479	0	33016	32784	
5480	0	32928	32927	
5481	0	32846	32896	
5482	0	32744	32828	
5483	0	32708	32826	
5484	0	32608	32678	
5485	0	32628	32618	
5486	0	32628	32771	
5487	0	32692	32705	
5488	0	32752	32728	
5489	0	32700	32844	
5490	0	32788	32912	
5491	0	32857	32959	
5492	0	32876	32928	
5493	0	32888	32884	
5494	0	32840	32816	
5495	0	32796	32534	
5496	0	32876	32486	
5497	0	32916	32559	
5498	0	32864	32671	
5499	0	32860	32801	
5500	0	32808	32791	
5501	0	32864	32894	
5502	0	32930	32836	
5503	0	32860	32852	
5504	0	32888	32920	
5505	0	32836	32871	
5506	0	32778	32970	
5507	0	32744	32722	
5508	0	32712	32642	
5509	0	32700	32519	
5510	0	32790	32446	
5511	0	32748	32519	
5512	0	32824	32584	
5513	0	32852	32666	
5514	0	32856	32719	
5515	0	32880	32914	
5516	0	32788	32956	
5517	0	32796	32807	
5518	0	32804	32814	
5519	0	32760	33031	
5520	0	32828	33177	
5521	0	32790	32982	
5522	0	32940	32810	
5523	0	32887	32714	
5524	0	32878	32444	
5525	0	32748	32564	
5526	0	32748	32492	
5527	0	32782	32360	
5528	0	32864	32456	
5529	0	32756	32484	
5530	0	32772	32631	
5531	0	32956	32728	
5532	0	32932	32564	
5533	0	32944	32487	
5534	0	32814	32471	
5535	0	32780	32596	
5536	0	32740	32768	
5537	0	32916	32890	
5538	0	32896	32974	
5539	0	32744	32950	
5540	0	32748	32885	
5541	0	32820	32948	
5542	0	32808	33016	
5543	0	32706	33462	
5544	0	32732	33434	
5545	0	32836	33140	
5546	0	32796	32722	
5547	0	32812	32423	
5548	0	32936	32234	
5549	0	32775	32206	
5550	0	32732	32388	
5551	0	32652	32628	
5552	0	32884	32868	
5553	0	32898	32974	
5554	0	32900	32864	
5555	0	32984	32702	
5556	0	32956	32743	
5557	0	32894	32752	
5558	0	32812	32535	
5559	0	32726	32566	
5560	0	32754	32796	
5561	0	32760	32830	
5562	0	32724	32658	
5563	0	32760	32551	
5564	0	32764	32856	
5565	0	32680	33038	
5566	0	32788	33086	
5567	0	32924	32788	
5568	0	32858	32764	
5569	0	32828	32814	
5570	0	32822	32732	
5571	0	32820	32848	
5572	0	32780	32884	
5573	0	32754	32766	
5574	0	32760	32895	
5575	0	32798	32903	
5576	0	32784	32766	
5577	0	32862	32828	
5578	0	32875	32786	
5579	0	32900	32772	
5580	0	32834	32690	
5581	0	32868	32792	
5582	0	32800	32903	
5583	0	32877	32808	
5584	0	32860	32772	
5585	0	32884	32794	
5586	0	32912	32820	
5587	0	32924	32864	
5588	0	32776	32935	
5589	0	32908	32874	
5590	0	32900	32692	
5591	0	32724	32679	
5592	0	32764	32516	
5593	0	32780	32348	
5594	0	32790	32346	
5595	0	32774	32494	
5596	0	32772	32583	
5597	0	32776	32718	
5598	0	32740	33026	
5599	0	32684	33127	
5600	0	32704	33092	
5601	0	32730	32967	
5602	0	32834	33031	
5603	0	32844	32822	
5604	0	32868	32679	
5605	0	32924	32388	
5606	0	32862	32519	
5607	0	32688	32775	
5608	0	32584	32734	
5609	0	32548	32740	
5610	0	32628	32612	
5611	0	32922	32596	
5612	0	33024	32596	
5613	0	32948	32630	
5614	0	32902	32581	
5615	0	32818	32620	
5616	0	32632	32714	
5617	0	32640	32753	
5618	0	32902	32860	
5619	0	32890	32836	
5620	0	32882	32876	
5621	0	32852	32919	
5622	0	32980	33006	
5623	0	32946	33033	
5624	0	32856	32972	
5625	0	32829	32960	
5626	0	32632	32918	
5627	0	32592	32775	
5628	0	32592	32718	
5629	0	32654	32704	
5630	0	32712	32647	
5631	0	32816	32647	
5632	0	32834	32513	
5633	0	32818	32570	
5634	0	32840	32559	
5635	0	32916	32514	
5636	0	32890	32571	
5637	0	32804	32644	
5638	0	32832	32629	
5639	0	32862	32641	
5640	0	32900	32684	
5641	0	32792	32753	
5642	0	32728	32646	
5643	0	32736	32679	
5644	0	32836	32775	
5645	0	32896	32932	
5646	0	32844	33006	
5647	0	32768	33120	
5648	0	32850	33152	
5649	0	32778	33071	
5650	0	32732	32836	
5651	0	32852	32534	
5652	0	32958	32492	
5653	0	32766	32570	
5654	0	32748	32612	
5655	0	32664	32622	
5656	0	32760	32678	
5657	0	33101	32775	
5658	0	33018	32680	
5659	0	32858	32616	
5660	0	32804	32804	
5661	0	32824	32732	
5662	0	32716	32756	
5663	0	32764	32766	
5664	0	32785	32815	
5665	0	32750	32762	
5666	0	32800	32730	
5667	0	32754	32734	
5668	0	32800	32834	
5669	0	32830	32824	
5670	0	32810	32802	
5671	0	32812	32756	
5672	0	32820	32934	
5673	0	32820	32814	
5674	0	32964	32859	
5675	0	33052	32862	
5676	0	32932	33146	
5677	0	32888	33154	
5678	0	32810	32960	
5679	0	32756	32680	
5680	0	32780	32554	
5681	0	32532	32623	
5682	0	32612	32623	
5683	0	32742	32616	
5684	0	32842	32673	
5685	0	32908	32775	
5686	0	32964	32806	
5687	0	33016	32881	
5688	0	32950	32850	
5689	0	32909	32960	
5690	0	32812	32928	
5691	0	32860	32886	
5692	0	32800	32900	
5693	0	32832	32868	
5694	0	32842	32718	
5695	0	32758	32615	
5696	0	32776	32647	
5697	0	32774	32682	
5698	0	32840	32728	
5699	0	32824	32636	
5700	0	32880	32658	
5701	0	32858	32679	
5702	0	32816	32730	
5703	0	32806	32814	
5704	0	32704	32944	
5705	0	32722	32816	
5706	0	32766	32775	
5707	0	32808	32839	
5708	0	32810	32682	
5709	0	32800	32654	
5710	0	32812	32647	
5711	0	32864	32635	
5712	0	32826	32632	
5713	0	32878	32737	
5714	0	32934	32750	
5715	0	32756	32842	
5716	0	32824	32932	
5717	0	32892	32932	
5718	0	32868	33198	
5719	0	32832	33098	
5720	0	32712	32916	
5721	0	32730	32878	
5722	0	32720	32794	
5723	0	32648	32704	
5724	0	32602	32599	
5725	0	32654	32624	
5726	0	32812	32783	
5727	0	32852	32721	
5728	0	32866	32775	
5729	0	32888	32702	
5730	0	32916	32595	
5731	0	32866	32712	
5732	0	32792	32734	
5733	0	32821	32582	
5734	0	32842	32572	
5735	0	32800	32616	
5736	0	32706	32769	
5737	0	32728	32750	
5738	0	32764	32727	
5739	0	32832	32728	
5740	0	32744	32788	
5741	0	32748	32839	
5742	0	32800	32870	
5743	0	32872	32821	
5744	0	32900	32956	
5745	0	32904	32895	
5746	0	32904	32940	
5747	0	32888	32998	
5748	0	32912	33014	
5749	0	32870	33012	
5750	0	32832	32996	
5751	0	32728	32931	
5752	0	32740	32838	
5753	0	32656	32542	
5754	0	32700	32623	
5755	0	32796	32625	
5756	0	32788	32632	
5757	0	32704	32654	
5758	0	32810	32881	
5759	0	32720	32871	
5760	0	32786	32775	
5761	0	32832	32678	
5762	0	32996	32739	
5763	0	33168	32842	
5764	0	33086	32708	
5765	0	32928	32807	
5766	0	32746	32808	
5767	0	32669	32814	
5768	0	32646	32668	
5769	0	32688	32647	
5770	0	32664	32734	
5771	0	32696	32736	
5772	0	32772	32938	
5773	0	32768	33006	
5774	0	32812	33103	
5775	0	32760	32986	
5776	0	32884	33010	
5777	0	32864	32902	
5778	0	32888	32824	
5779	0	32956	32722	
5780	0	32916	32668	
5781	0	32942	32604	
5782	0	32996	32470	
5783	0	32956	32544	
5784	0	32992	32670	
5785	0	32806	32605	
5786	0	32712	32798	
5787	0	32720	32696	
5788	0	32604	32847	
5789	0	32550	32922	
5790	0	32632	32852	
5791	0	32816	32734	
5792	0	32844	32710	
5793	0	32940	32903	
5794	0	33098	32967	
5795	0	32936	32910	
5796	0	32898	32920	
5797	0	32858	32834	
5798	0	32824	32772	
5799	0	32764	32752	
5800	0	32836	32654	
5801	0	32762	32890	
5802	0	32816	32878	
5803	0	32748	32814	
5804	0	32786	32734	
5805	0	32748	32871	
5806	0	32752	32934	
5807	0	32704	32839	
5808	0	32842	32732	
5809	0	32780	32922	
5810	0	32802	32913	
5811	0	32804	32775	
5812	0	32800	32696	
5813	0	32816	32535	
5814	0	32868	32552	
5815	0	32732	32654	
5816	0	32816	32621	
5817	0	32836	32720	
5818	0	32892	32932	
5819	0	32964	32916	
5820	0	32872	32894	
5821	0	32750	32920	
5822	0	32734	32808	
5823	0	32700	32727	
5824	0	32828	32762	
5825	0	32868	32718	
5826	0	32894	32686	
5827	0	32864	32732	
5828	0	33012	32582	
5829	0	32928	32732	
5830	0	32790	32682	
5831	0	32706	32756	
5832	0	32584	32740	
5833	0	32676	32710	
5834	0	32812	32654	
5835	0	32744	32706	
5836	0	32788	32708	
5837	0	32736	32775	
5838	0	32714	32820	
5839	0	32728	32686	
5840	0	32892	32734	
5841	0	32900	32680	
5842	0	32890	32678	
5843	0	32864	32590	
5844	0	32938	32646	
5845	0	32920	32692	
5846	0	32890	32680	
5847	0	32960	32676	
5848	0	32930	32554	
5849	0	32944	32536	
5850	0	32980	32500	
5851	0	33012	32556	
5852	0	32965	32636	
5853	0	32960	32620	
5854	0	32916	32714	
5855	0	33008	32702	
5856	0	33072	32860	
5857	0	33132	32838	
5858	0	32986	32732	
5859	0	32902	32846	
5860	0	32898	32988	
5861	0	32740	32943	
5862	0	32516	32855	
5863	0	32460	32968	
5864	0	32496	33010	
5865	0	32384	32940	
5866	0	32500	32938	
5867	0	32384	33090	
5868	0	32312	33266	
5869	0	32134	33372	
5870	0	32360	33405	
5871	0	32554	33124	
5872	0	32688	32894	
5873	0	32806	32847	
5874	0	32840	32832	
5875	0	32708	32898	
5876	0	32636	32919	
5877	0	32578	32992	
5878	0	32624	32775	
5879	0	32650	32630	
5880	0	32794	32616	
5881	0	32848	32591	
5882	0	33010	32540	
5883	0	33016	32498	
5884	0	33072	32502	
5885	0	33092	32474	
5886	0	33156	32664	
5887	0	33034	32672	
5888	0	32956	32676	
5889	0	33008	32698	
5890	0	32984	32562	
5891	0	32946	32514	
5892	0	32928	32504	
5893	0	32960	32554	
5894	0	32970	32555	
5895	0	32878	32604	
5896	0	32792	32636	
5897	0	32812	32608	
5898	0	32874	32744	
5899	0	32784	32724	
5900	0	32764	32844	
5901	0	32760	32761	
5902	0	32864	32725	
5903	0	32748	32698	
5904	0	32780	32698	
5905	0	32764	32666	
5906	0	32704	32711	
5907	0	32704	32863	
5908	0	32901	32894	
5909	0	32868	32870	
5910	0	32834	32812	
5911	0	32892	32982	
5912	0	32760	33130	
5913	0	32788	33052	
5914	0	32780	32868	
5915	0	32824	32724	
5916	0	32836	32730	
5917	0	32822	32658	
5918	0	32812	32671	
5919	0	32852	32676	
5920	0	32792	32630	
5921	0	32824	32742	
5922	0	32881	32702	
5923	0	32834	32764	
5924	0	32840	32766	
5925	0	32810	32812	
5926	0	32864	32772	
5927	0	32832	32742	
5928	0	32844	32740	
5929	0	32770	32788	
5930	0	32792	32774	
5931	0	32780	32856	
5932	0	32752	32892	
5933	0	32718	32967	
5934	0	32732	32774	
5935	0	32846	32714	
5936	0	32901	32736	
5937	0	32888	32712	
5938	0	32888	32734	
5939	0	32796	32718	
5940	0	32838	32706	
5941	0	32782	32730	
5942	0	32756	32762	
5943	0	32800	32760	
5944	0	32756	32726	
5945	0	32822	32806	
5946	0	32772	32698	
5947	0	32744	32700	
5948	0	32796	32775	
5949	0	32870	32838	
5950	0	32856	32732	
5951	0	32833	32844	
5952	0	32798	32704	
5953	0	32840	32908	
5954	0	32780	32916	
5955	0	32826	32932	
5956	0	32912	32954	
5957	0	32802	32871	
5958	0	32792	32686	
5959	0	32734	32638	
5960	0	32748	32688	
5961	0	32782	32710	
5962	0	32844	32766	
5963	0	32836	32744	
5964	0	32828	32818	
5965	0	32770	32716	
5966	0	32820	32775	
5967	0	32834	32724	
5968	0	32826	32832	
5969	0	32808	32814	
5970	0	32756	32788	
5971	0	32666	32636	
5972	0	32748	32636	
5973	0	32828	32968	
5974	0	32772	32830	
5975	0	32874	32767	
5976	0	32848	32807	
5977	0	32820	32878	
5978	0	32836	32812	
5979	0	32776	32892	
5980	0	32696	32826	
5981	0	32696	32927	
5982	0	32832	32818	
5983	0	32736	32823	
5984	0	32766	32708	
5985	0	32766	32554	
5986	0	32756	32596	
5987	0	32726	32729	
5988	0	32758	32647	
5989	0	32876	32660	
5990	0	32860	32799	
5991	0	32874	32960	
5992	0	32804	32690	
5993	0	32868	32616	
5994	0	32810	32662	
5995	0	32908	32780	
5996	0	32878	32801	
5997	0	32900	32751	
5998	0	32924	32714	
5999	0	32828	32708	
6000	0	32832	32698	
6001	0	32908	32750	
6002	0	32904	32820	
6003	0	32852	32684	
6004	0	32760	32821	
6005	0	32724	32872	
6006	0	32778	32892	
6007	0	32756	32860	
6008	0	32860	32724	
6009	0	32804	32736	
6010	0	32664	32940	
6011	0	32870	32878	
6012	0	32888	32806	
