# OpenSignals Text File Format. Version 1
# {"00:07:80:8C:0A:39": {"position": 0, "device": "biosignalsplux", "device name": "00:07:80:8C:0A:39", "device connection": "BTH00:07:80:8C:0A:39", "sampling rate": 1000, "resolution": [16, 16], "firmware version": 776, "comments": "", "keywords": "", "mode": 0, "sync interval": 2, "date": "2023-3-17", "time": "11:3:35.450", "channels": [1, 2], "sensor": ["EMG", "EMG"], "label": ["CH1", "CH2"], "column": ["nSeq", "DI", "CH1", "CH2"], "special": [{"SpO2": [80, 40, 5, 4, 3, 3]}, {"SpO2": [80, 40, 5, 4, 3, 3]}, {"SpO2": [80, 40, 5, 4, 3, 3]}, {"SpO2": [80, 40, 5, 4, 3, 3]}, {"SpO2": [80, 40, 5, 4, 3, 3]}, {"SpO2": [80, 40, 5, 4, 3, 3]}, {"SpO2": [80, 40, 5, 4, 3, 3]}, {"SpO2": [80, 40, 5, 4, 3, 3]}], "digital IO": [0, 1], "sleeve color": ["gray", "yellow"], "convertedValues": 0}}
# EndOfHeader
0	0	32828	32823	
1	0	32768	32724	
2	0	32792	32670	
3	0	32804	32850	
4	0	32888	32800	
5	0	32800	32679	
6	0	32856	32862	
7	0	32828	32830	
8	0	32810	32684	
9	0	32800	32842	
10	0	32816	32800	
11	0	32810	32740	
12	0	32824	32719	
13	0	32778	32688	
14	0	32784	32803	
15	0	32820	32775	
16	0	32842	32775	
17	0	32746	32820	
18	0	32824	32743	
19	0	32840	32695	
20	0	32804	32668	
21	0	32774	32825	
22	0	32792	32660	
23	0	32868	32814	
24	0	32848	32838	
25	0	32744	32752	
26	0	32802	32860	
27	0	32852	32759	
28	0	32810	32785	
29	0	32820	32816	
30	0	32816	32887	
31	0	32732	32804	
32	0	32784	32728	
33	0	32774	32852	
34	0	32804	32622	
35	0	32832	32728	
36	0	32798	32715	
37	0	32816	32848	
38	0	32824	32764	
39	0	32828	32740	
40	0	32836	32775	
41	0	32868	32770	
42	0	32804	32689	
43	0	32838	32806	
44	0	32808	32868	
45	0	32780	32759	
46	0	32776	32775	
47	0	32866	32756	
48	0	32832	32704	
49	0	32800	32756	
50	0	32812	32756	
51	0	32848	32810	
52	0	32852	32798	
53	0	32842	32689	
54	0	32794	32727	
55	0	32810	32804	
56	0	32786	32740	
57	0	32780	32698	
58	0	32868	32774	
59	0	32768	32718	
60	0	32815	32760	
61	0	32848	32710	
62	0	32880	32712	
63	0	32788	32768	
64	0	32842	32678	
65	0	32780	32841	
66	0	32840	32759	
67	0	32904	32735	
68	0	32794	32763	
69	0	32778	32746	
70	0	32784	32858	
71	0	32828	32768	
72	0	32796	32720	
73	0	32828	32746	
74	0	32812	32774	
75	0	32814	32722	
76	0	32784	32831	
77	0	32842	32828	
78	0	32756	32660	
79	0	32876	32802	
80	0	32870	32748	
81	0	32820	32702	
82	0	32832	32798	
83	0	32824	32752	
84	0	32736	32710	
85	0	32820	32788	
86	0	32762	32816	
87	0	32816	32627	
88	0	32792	32876	
89	0	32828	32802	
90	0	32858	32737	
91	0	32774	32705	
92	0	32830	32752	
93	0	32846	32698	
94	0	32792	32842	
95	0	32852	32762	
96	0	32872	32772	
97	0	32780	32716	
98	0	32824	32818	
99	0	32816	32848	
100	0	32844	32644	
101	0	32804	32770	
102	0	32832	32775	
103	0	32802	32690	
104	0	32828	32859	
105	0	32768	32810	
106	0	32810	32764	
107	0	32814	32734	
108	0	32804	32734	
109	0	32808	32644	
110	0	32798	32768	
111	0	32876	32807	
112	0	32872	32684	
113	0	32820	32830	
114	0	32781	32724	
115	0	32816	32796	
116	0	32806	32822	
117	0	32830	32824	
118	0	32812	32706	
119	0	32798	32812	
120	0	32800	32772	
121	0	32862	32769	
122	0	32832	32814	
123	0	32828	32775	
124	0	32806	32680	
125	0	32814	32775	
126	0	32800	32836	
127	0	32824	32716	
128	0	32852	32742	
129	0	32820	32807	
130	0	32826	32702	
131	0	32836	32828	
132	0	32742	32794	
133	0	32756	32798	
134	0	32768	32772	
135	0	32764	32839	
136	0	32800	32788	
137	0	32760	32686	
138	0	32890	32775	
139	0	32769	32836	
140	0	32802	32729	
141	0	32746	32705	
142	0	32852	32716	
143	0	32838	32854	
144	0	32774	32716	
145	0	32816	32804	
146	0	32868	32836	
147	0	32824	32751	
148	0	32816	32775	
149	0	32792	32702	
150	0	32808	32764	
151	0	32842	32796	
152	0	32800	32663	
153	0	32782	32728	
154	0	32828	32732	
155	0	32802	32810	
156	0	32786	32818	
157	0	32874	32746	
158	0	32836	32839	
159	0	32822	32860	
160	0	32832	32732	
161	0	32852	32798	
162	0	32800	32752	
163	0	32800	32708	
164	0	32840	32824	
165	0	32772	32838	
166	0	32828	32702	
167	0	32782	32808	
168	0	32772	32839	
169	0	32744	32807	
170	0	32808	32862	
171	0	32742	32742	
172	0	32852	32743	
173	0	32842	32708	
174	0	32844	32807	
175	0	32850	32852	
176	0	32796	32716	
177	0	32784	32692	
178	0	32836	32722	
179	0	32784	32721	
180	0	32806	32711	
181	0	32844	32796	
182	0	32844	32770	
183	0	32804	32800	
184	0	32840	32720	
185	0	32776	32820	
186	0	32760	32892	
187	0	32808	32700	
188	0	32868	32789	
189	0	32836	32810	
190	0	32812	32842	
191	0	32822	32772	
192	0	32840	32647	
193	0	32752	32754	
194	0	32884	32864	
195	0	32858	32751	
196	0	32836	32750	
197	0	32820	32728	
198	0	32870	32772	
199	0	32844	32792	
200	0	32784	32756	
201	0	32786	32775	
202	0	32746	32724	
203	0	32796	32786	
204	0	32834	32871	
205	0	32832	32710	
206	0	32824	32784	
207	0	32800	32686	
208	0	32832	32815	
209	0	32792	32830	
210	0	32852	32706	
211	0	32856	32750	
212	0	32834	32660	
213	0	32816	32874	
214	0	32736	32828	
215	0	32836	32632	
216	0	32812	32814	
217	0	32810	32820	
218	0	32836	32670	
219	0	32788	32806	
220	0	32862	32658	
221	0	32768	32770	
222	0	32793	32702	
223	0	32888	32736	
224	0	32808	32798	
225	0	32832	32832	
226	0	32834	32860	
227	0	32780	32790	
228	0	32770	32786	
229	0	32766	32692	
230	0	32804	32775	
231	0	32824	32711	
232	0	32832	32796	
233	0	32844	32876	
234	0	32834	32743	
235	0	32838	32807	
236	0	32880	32726	
237	0	32852	32847	
238	0	32824	32798	
239	0	32752	32638	
240	0	32780	32836	
241	0	32824	32820	
242	0	32796	32724	
243	0	32800	32772	
244	0	32868	32702	
245	0	32796	32762	
246	0	32822	32892	
247	0	32836	32742	
248	0	32746	32770	
249	0	32736	32660	
250	0	32834	32790	
251	0	32828	32750	
252	0	32832	32756	
253	0	32836	32758	
254	0	32818	32698	
255	0	32832	32795	
256	0	32824	32775	
257	0	32814	32716	
258	0	32828	32948	
259	0	32836	32731	
260	0	32822	32758	
261	0	32828	32688	
262	0	32896	32830	
263	0	32796	32762	
264	0	32784	32730	
265	0	32748	32746	
266	0	32808	32702	
267	0	32810	32816	
268	0	32848	32796	
269	0	32836	32737	
270	0	32808	32807	
271	0	32842	32768	
272	0	32756	32775	
273	0	32780	32820	
274	0	32772	32686	
275	0	32816	32764	
276	0	32842	32676	
277	0	32834	32836	
278	0	32828	32804	
279	0	32785	32740	
280	0	32830	32762	
281	0	32828	32736	
282	0	32818	32848	
283	0	32836	32738	
284	0	32880	32766	
285	0	32764	32791	
286	0	32776	32747	
287	0	32760	32864	
288	0	32820	32772	
289	0	32832	32846	
290	0	32784	32702	
291	0	32800	32730	
292	0	32808	32720	
293	0	32822	32800	
294	0	32816	32798	
295	0	32820	32667	
296	0	32812	32799	
297	0	32744	32752	
298	0	32794	32860	
299	0	32842	32742	
300	0	32816	32702	
301	0	32836	32852	
302	0	32784	32660	
303	0	32760	32726	
304	0	32776	32706	
305	0	32778	32810	
306	0	32792	32768	
307	0	32864	32774	
308	0	32772	32775	
309	0	32832	32683	
310	0	32800	32775	
311	0	32816	32791	
312	0	32750	32738	
313	0	32826	32796	
314	0	32794	32832	
315	0	32782	32748	
316	0	32840	32775	
317	0	32848	32702	
318	0	32842	32769	
319	0	32800	32766	
320	0	32796	32814	
321	0	32796	32758	
322	0	32776	32636	
323	0	32823	32732	
324	0	32860	32680	
325	0	32782	32830	
326	0	32792	32775	
327	0	32828	32660	
328	0	32828	32820	
329	0	32844	32718	
330	0	32864	32842	
331	0	32788	32833	
332	0	32820	32716	
333	0	32810	32800	
334	0	32792	32830	
335	0	32802	32718	
336	0	32770	32758	
337	0	32808	32830	
338	0	32840	32670	
339	0	32860	32760	
340	0	32820	32678	
341	0	32788	32739	
342	0	32804	32754	
343	0	32828	32710	
344	0	32856	32766	
345	0	32794	32880	
346	0	32760	32708	
347	0	32810	32834	
348	0	32800	32812	
349	0	32880	32759	
350	0	32822	32816	
351	0	32794	32734	
352	0	32800	32792	
353	0	32846	32694	
354	0	32812	32703	
355	0	32802	32810	
356	0	32836	32775	
357	0	32876	32806	
358	0	32800	32822	
359	0	32788	32662	
360	0	32804	32784	
361	0	32832	32804	
362	0	32768	32702	
363	0	32784	32818	
364	0	32800	32768	
365	0	32858	32814	
366	0	32788	32820	
367	0	32852	32719	
368	0	32792	32844	
369	0	32816	32775	
370	0	32844	32729	
371	0	32870	32794	
372	0	32740	32738	
373	0	32792	32710	
374	0	32808	32728	
375	0	32808	32736	
376	0	32832	32670	
377	0	32804	32890	
378	0	32856	32828	
379	0	32828	32687	
380	0	32782	32756	
381	0	32844	32798	
382	0	32846	32708	
383	0	32804	32840	
384	0	32808	32756	
385	0	32828	32767	
386	0	32828	32756	
387	0	32776	32700	
388	0	32778	32764	
389	0	32856	32716	
390	0	32810	32775	
391	0	32764	32804	
392	0	32840	32647	
393	0	32786	32737	
394	0	32784	32796	
395	0	32820	32775	
396	0	32804	32762	
397	0	32872	32668	
398	0	32785	32872	
399	0	32788	32746	
400	0	32852	32711	
401	0	32828	32748	
402	0	32836	32836	
403	0	32792	32744	
404	0	32808	32796	
405	0	32804	32798	
406	0	32850	32642	
407	0	32810	32814	
408	0	32796	32831	
409	0	32838	32844	
410	0	32794	32847	
411	0	32828	32724	
412	0	32828	32718	
413	0	32820	32750	
414	0	32784	32708	
415	0	32768	32710	
416	0	32860	32860	
417	0	32802	32839	
418	0	32928	32640	
419	0	32836	32756	
420	0	32828	32688	
421	0	32836	32820	
422	0	32816	32730	
423	0	32804	32708	
424	0	32748	32882	
425	0	32832	32818	
426	0	32874	32679	
427	0	32788	32783	
428	0	32832	32708	
429	0	32784	32762	
430	0	32768	32814	
431	0	32814	32750	
432	0	32816	32738	
433	0	32848	32734	
434	0	32762	32822	
435	0	32836	32834	
436	0	32792	32670	
437	0	32814	32738	
438	0	32784	32736	
439	0	32896	32824	
440	0	32776	32794	
441	0	32798	32732	
442	0	32712	32806	
443	0	32832	32678	
444	0	32804	32758	
445	0	32856	32670	
446	0	32804	32844	
447	0	32852	32762	
448	0	32818	32759	
449	0	32828	32719	
450	0	32776	32764	
451	0	32778	32838	
452	0	32828	32689	
453	0	32836	32752	
454	0	32824	32775	
455	0	32796	32828	
456	0	32846	32647	
457	0	32832	32810	
458	0	32812	32774	
459	0	32824	32775	
460	0	32804	32852	
461	0	32818	32638	
462	0	32824	32716	
463	0	32786	32656	
464	0	32890	32762	
465	0	32748	32618	
466	0	32816	32751	
467	0	32828	32726	
468	0	32820	32752	
469	0	32776	32766	
470	0	32744	32636	
471	0	32748	32746	
472	0	32848	32770	
473	0	32786	32614	
474	0	32696	32686	
475	0	32748	32596	
476	0	32724	32742	
477	0	32784	32700	
478	0	32704	32687	
479	0	32782	32695	
480	0	32782	32662	
481	0	32792	32772	
482	0	32760	32854	
483	0	32785	32623	
484	0	32772	32706	
485	0	32856	32716	
486	0	32792	32886	
487	0	32794	32722	
488	0	32842	32804	
489	0	32838	32827	
490	0	32868	32862	
491	0	32882	32838	
492	0	32872	32922	
493	0	32874	32974	
494	0	32924	32818	
495	0	32970	32930	
496	0	32922	32932	
497	0	32982	32914	
498	0	32902	32880	
499	0	32962	32868	
500	0	32844	32903	
501	0	32886	32774	
502	0	32852	32764	
503	0	32932	32930	
504	0	32840	32874	
505	0	32904	32960	
506	0	32848	32822	
507	0	32830	32831	
508	0	32804	32775	
509	0	32768	32815	
510	0	32778	32775	
511	0	32736	32654	
512	0	32780	32700	
513	0	32748	32606	
514	0	32768	32614	
515	0	32778	32644	
516	0	32730	32664	
517	0	32718	32724	
518	0	32756	32636	
519	0	32724	32690	
520	0	32692	32711	
521	0	32812	32686	
522	0	32784	32702	
523	0	32762	32710	
524	0	32752	32838	
525	0	32784	32852	
526	0	32764	32679	
527	0	32764	32760	
528	0	32828	32756	
529	0	32802	32814	
530	0	32761	32854	
531	0	32804	32801	
532	0	32840	32812	
533	0	32776	32844	
534	0	32832	32775	
535	0	32836	32810	
536	0	32792	32674	
537	0	32836	32774	
538	0	32836	32688	
539	0	32894	32846	
540	0	32840	32748	
541	0	32768	32692	
542	0	32828	32854	
543	0	32792	32823	
544	0	32802	32667	
545	0	32816	32835	
546	0	32856	32821	
547	0	32816	32736	
548	0	32772	32794	
549	0	32836	32696	
550	0	32778	32775	
551	0	32760	32726	
552	0	32804	32882	
553	0	32784	32826	
554	0	32804	32752	
555	0	32760	32727	
556	0	32788	32688	
557	0	32816	32828	
558	0	32776	32780	
559	0	32874	32710	
560	0	32848	32768	
561	0	32810	32753	
562	0	32784	32840	
563	0	32800	32743	
564	0	32784	32682	
565	0	32808	32807	
566	0	32780	32834	
567	0	32860	32842	
568	0	32820	32798	
569	0	32840	32692	
570	0	32810	32764	
571	0	32850	32772	
572	0	32744	32802	
573	0	32776	32832	
574	0	32852	32766	
575	0	32820	32775	
576	0	32820	32707	
577	0	32752	32860	
578	0	32816	32816	
579	0	32804	32696	
580	0	32821	32775	
581	0	32922	32720	
582	0	32832	32676	
583	0	32826	32754	
584	0	32788	32676	
585	0	32802	32820	
586	0	32814	32788	
587	0	32798	32732	
588	0	32778	32766	
589	0	32796	32680	
590	0	32832	32796	
591	0	32814	32704	
592	0	32804	32832	
593	0	32834	32800	
594	0	32812	32798	
595	0	32864	32751	
596	0	32866	32754	
597	0	32778	32726	
598	0	32816	32714	
599	0	32828	32852	
600	0	32792	32808	
601	0	32810	32882	
602	0	32834	32804	
603	0	32768	32662	
604	0	32762	32766	
605	0	32880	32679	
606	0	32820	32798	
607	0	32812	32700	
608	0	32802	32810	
609	0	32864	32770	
610	0	32776	32712	
611	0	32836	32854	
612	0	32812	32718	
613	0	32910	32759	
614	0	32730	32710	
615	0	32828	32746	
616	0	32868	32772	
617	0	32788	32821	
618	0	32796	32660	
619	0	32828	32596	
620	0	32832	32744	
621	0	32828	32860	
622	0	32840	32704	
623	0	32816	32734	
624	0	32792	32743	
625	0	32814	32870	
626	0	32784	32855	
627	0	32816	32698	
628	0	32798	32853	
629	0	32800	32774	
630	0	32844	32832	
631	0	32816	32836	
632	0	32780	32750	
633	0	32792	32758	
634	0	32800	32690	
635	0	32864	32764	
636	0	32832	32770	
637	0	32769	32775	
638	0	32836	32740	
639	0	32856	32682	
640	0	32808	32854	
641	0	32800	32800	
642	0	32796	32705	
643	0	32834	32775	
644	0	32848	32802	
645	0	32784	32628	
646	0	32776	32763	
647	0	32796	32828	
648	0	32808	32722	
649	0	32768	32775	
650	0	32816	32690	
651	0	32772	32838	
652	0	32814	32743	
653	0	32794	32766	
654	0	32812	32826	
655	0	32808	32810	
656	0	32830	32687	
657	0	32862	32646	
658	0	32804	32850	
659	0	32864	32828	
660	0	32796	32706	
661	0	32740	32775	
662	0	32840	32708	
663	0	32880	32740	
664	0	32744	32794	
665	0	32820	32816	
666	0	32774	32839	
667	0	32834	32814	
668	0	32870	32674	
669	0	32776	32670	
670	0	32836	32714	
671	0	32834	32842	
672	0	32800	32800	
673	0	32848	32740	
674	0	32774	32846	
675	0	32836	32816	
676	0	32824	32648	
677	0	32770	32775	
678	0	32805	32772	
679	0	32782	32711	
680	0	32834	32748	
681	0	32754	32718	
682	0	32828	32807	
683	0	32758	32702	
684	0	32768	32876	
685	0	32878	32775	
686	0	32736	32846	
687	0	32816	32814	
688	0	32798	32774	
689	0	32886	32814	
690	0	32810	32729	
691	0	32800	32836	
692	0	32790	32756	
693	0	32830	32811	
694	0	32752	32736	
695	0	32824	32668	
696	0	32860	32849	
697	0	32804	32750	
698	0	32866	32679	
699	0	32786	32730	
700	0	32836	32800	
701	0	32836	32772	
702	0	32796	32801	
703	0	32800	32706	
704	0	32822	32892	
705	0	32820	32686	
706	0	32804	32704	
707	0	32820	32752	
708	0	32788	32772	
709	0	32810	32775	
710	0	32848	32716	
711	0	32840	32775	
712	0	32838	32775	
713	0	32828	32775	
714	0	32806	32775	
715	0	32836	32774	
716	0	32804	32848	
717	0	32804	32798	
718	0	32760	32718	
719	0	32848	32704	
720	0	32740	32670	
721	0	32818	32730	
722	0	32884	32775	
723	0	32832	32772	
724	0	32812	32754	
725	0	32828	32662	
726	0	32876	32764	
727	0	32848	32720	
728	0	32772	32834	
729	0	32808	32810	
730	0	32801	32710	
731	0	32864	32822	
732	0	32794	32808	
733	0	32802	32719	
734	0	32824	32788	
735	0	32752	32814	
736	0	32848	32807	
737	0	32810	32760	
738	0	32816	32775	
739	0	32848	32806	
740	0	32836	32760	
741	0	32804	32820	
742	0	32882	32716	
743	0	32804	32790	
744	0	32784	32818	
745	0	32856	32852	
746	0	32848	32670	
747	0	32816	32812	
748	0	32832	32748	
749	0	32790	32690	
750	0	32788	32752	
751	0	32874	32754	
752	0	32884	32775	
753	0	32820	32775	
754	0	32833	32656	
755	0	32788	32804	
756	0	32816	32902	
757	0	32800	32662	
758	0	32848	32694	
759	0	32796	32768	
760	0	32724	32836	
761	0	32824	32848	
762	0	32784	32806	
763	0	32788	32804	
764	0	32832	32759	
765	0	32828	32698	
766	0	32776	32808	
767	0	32804	32902	
768	0	32772	32732	
769	0	32830	32756	
770	0	32860	32852	
771	0	32760	32747	
772	0	32841	32688	
773	0	32836	32839	
774	0	32798	32844	
775	0	32836	32630	
776	0	32778	32824	
777	0	32838	32686	
778	0	32820	32838	
779	0	32860	32874	
780	0	32868	32678	
781	0	32788	32775	
782	0	32836	32615	
783	0	32770	32847	
784	0	32788	32810	
785	0	32840	32743	
786	0	32832	32746	
787	0	32836	32656	
788	0	32774	32796	
789	0	32812	32734	
790	0	32864	32720	
791	0	32838	32775	
792	0	32756	32678	
793	0	32792	32790	
794	0	32792	32810	
795	0	32752	32746	
796	0	32906	32824	
797	0	32820	32725	
798	0	32902	32836	
799	0	32808	32794	
800	0	32836	32762	
801	0	32732	32774	
802	0	32720	32634	
803	0	32820	32732	
804	0	32844	32690	
805	0	32800	32828	
806	0	32800	32788	
807	0	32784	32836	
808	0	32800	32794	
809	0	32780	32708	
810	0	32794	32788	
811	0	32829	32712	
812	0	32772	32792	
813	0	32866	32775	
814	0	32808	32786	
815	0	32848	32871	
816	0	32812	32801	
817	0	32810	32798	
818	0	32774	32612	
819	0	32860	32752	
820	0	32800	32700	
821	0	32834	32802	
822	0	32736	32800	
823	0	32812	32792	
824	0	32772	32814	
825	0	32852	32775	
826	0	32832	32890	
827	0	32864	32775	
828	0	32748	32730	
829	0	32772	32812	
830	0	32830	32743	
831	0	32852	32730	
832	0	32764	32830	
833	0	32816	32750	
834	0	32800	32796	
835	0	32852	32824	
836	0	32852	32736	
837	0	32804	32736	
838	0	32832	32678	
839	0	32824	32750	
840	0	32762	32752	
841	0	32852	32786	
842	0	32800	32758	
843	0	32852	32748	
844	0	32760	32698	
845	0	32784	32838	
846	0	32820	32874	
847	0	32780	32702	
848	0	32782	32796	
849	0	32820	32743	
850	0	32808	32747	
851	0	32870	32780	
852	0	32790	32692	
853	0	32802	32844	
854	0	32768	32812	
855	0	32848	32703	
856	0	32784	32687	
857	0	32884	32836	
858	0	32812	32758	
859	0	32808	32660	
860	0	32808	32798	
861	0	32836	32718	
862	0	32808	32852	
863	0	32888	32706	
864	0	32792	32775	
865	0	32762	32924	
866	0	32836	32766	
867	0	32760	32772	
868	0	32808	32799	
869	0	32758	32852	
870	0	32746	32688	
871	0	32852	32735	
872	0	32876	32738	
873	0	32828	32775	
874	0	32772	32820	
875	0	32810	32728	
876	0	32810	32884	
877	0	32822	32775	
878	0	32780	32734	
879	0	32828	32816	
880	0	32816	32764	
881	0	32804	32676	
882	0	32772	32731	
883	0	32904	32792	
884	0	32832	32708	
885	0	32790	32847	
886	0	32770	32896	
887	0	32776	32673	
888	0	32816	32775	
889	0	32794	32775	
890	0	32856	32676	
891	0	32744	32740	
892	0	32774	32832	
893	0	32740	32790	
894	0	32753	32810	
895	0	32852	32751	
896	0	32896	32852	
897	0	32870	32664	
898	0	32796	32842	
899	0	32776	32828	
900	0	32850	32687	
901	0	32746	32682	
902	0	32814	32804	
903	0	32770	32766	
904	0	32784	32664	
905	0	32860	32847	
906	0	32832	32860	
907	0	32834	32812	
908	0	32888	32746	
909	0	32748	32808	
910	0	32764	32696	
911	0	32848	32738	
912	0	32764	32668	
913	0	32840	32737	
914	0	32804	32694	
915	0	32786	32775	
916	0	32864	32764	
917	0	32774	32727	
918	0	32804	32830	
919	0	32856	32756	
920	0	32818	32756	
921	0	32792	32710	
922	0	32816	32822	
923	0	32778	32832	
924	0	32824	32770	
925	0	32798	32740	
926	0	32828	32816	
927	0	32808	32854	
928	0	32734	32697	
929	0	32775	32756	
930	0	32790	32784	
931	0	32868	32744	
932	0	32790	32838	
933	0	32772	32671	
934	0	32810	32822	
935	0	32785	32831	
936	0	32832	32706	
937	0	32792	32774	
938	0	32824	32772	
939	0	32848	32634	
940	0	32772	32874	
941	0	32745	32775	
942	0	32856	32705	
943	0	32768	32775	
944	0	32792	32876	
945	0	32772	32740	
946	0	32768	32842	
947	0	32800	32760	
948	0	32808	32740	
949	0	32808	32798	
950	0	32806	32828	
951	0	32778	32696	
952	0	32820	32836	
953	0	32804	32830	
954	0	32820	32714	
955	0	32834	32741	
956	0	32838	32710	
957	0	32812	32816	
958	0	32880	32750	
959	0	32856	32734	
960	0	32800	32775	
961	0	32804	32762	
962	0	32826	32792	
963	0	32810	32772	
964	0	32834	32654	
965	0	32792	32772	
966	0	32744	32836	
967	0	32816	32702	
968	0	32784	32775	
969	0	32754	32790	
970	0	32822	32682	
971	0	32824	32796	
972	0	32852	32768	
973	0	32834	32788	
974	0	32774	32775	
975	0	32794	32807	
976	0	32812	32660	
977	0	32834	32754	
978	0	32826	32718	
979	0	32746	32758	
980	0	32812	32896	
981	0	32812	32764	
982	0	32750	32743	
983	0	32824	32794	
984	0	32792	32794	
985	0	32884	32743	
986	0	32812	32838	
987	0	32792	32854	
988	0	32832	32858	
989	0	32832	32711	
990	0	32806	32839	
991	0	32774	32756	
992	0	32768	32704	
993	0	32886	32775	
994	0	32824	32807	
995	0	32874	32632	
996	0	32868	32775	
997	0	32785	32750	
998	0	32784	32711	
999	0	32834	32775	
1000	0	32832	32662	
1001	0	32794	32799	
1002	0	32828	32784	
1003	0	32852	32676	
1004	0	32816	32762	
1005	0	32776	32810	
1006	0	32826	32704	
1007	0	32808	32823	
1008	0	32868	32770	
1009	0	32832	32750	
1010	0	32792	32871	
1011	0	32806	32688	
1012	0	32794	32828	
1013	0	32778	32724	
1014	0	32804	32796	
1015	0	32816	32867	
1016	0	32800	32698	
1017	0	32852	32865	
1018	0	32780	32858	
1019	0	32770	32734	
1020	0	32844	32762	
1021	0	32780	32692	
1022	0	32824	32758	
1023	0	32760	32775	
1024	0	32788	32626	
1025	0	32834	32686	
1026	0	32804	32774	
1027	0	32828	32832	
1028	0	32782	32838	
1029	0	32775	32672	
1030	0	32778	32784	
1031	0	32844	32736	
1032	0	32824	32834	
1033	0	32852	32868	
1034	0	32814	32764	
1035	0	32836	32796	
1036	0	32816	32788	
1037	0	32824	32636	
1038	0	32888	32775	
1039	0	32768	32788	
1040	0	32820	32822	
1041	0	32852	32762	
1042	0	32794	32670	
1043	0	32828	32722	
1044	0	32800	32788	
1045	0	32860	32696	
1046	0	32784	32768	
1047	0	32898	32759	
1048	0	32816	32804	
1049	0	32828	32759	
1050	0	32768	32676	
1051	0	32784	32820	
1052	0	32872	32678	
1053	0	32818	32798	
1054	0	32816	32839	
1055	0	32816	32796	
1056	0	32814	32846	
1057	0	32774	32592	
1058	0	32816	32768	
1059	0	32788	32766	
1060	0	32792	32744	
1061	0	32832	32791	
1062	0	32804	32820	
1063	0	32756	32704	
1064	0	32850	32804	
1065	0	32858	32826	
1066	0	32808	32752	
1067	0	32748	32775	
1068	0	32796	32778	
1069	0	32856	32751	
1070	0	32796	32738	
1071	0	32810	32744	
1072	0	32832	32775	
1073	0	32818	32868	
1074	0	32778	32756	
1075	0	32832	32710	
1076	0	32852	32724	
1077	0	32775	32742	
1078	0	32832	32700	
1079	0	32814	32807	
1080	0	32816	32798	
1081	0	32792	32726	
1082	0	32836	32790	
1083	0	32828	32674	
1084	0	32808	32836	
1085	0	32820	32766	
1086	0	32776	32878	
1087	0	32804	32808	
1088	0	32836	32679	
1089	0	32836	32812	
1090	0	32820	32710	
1091	0	32820	32702	
1092	0	32728	32751	
1093	0	32878	32828	
1094	0	32846	32790	
1095	0	32788	32850	
1096	0	32858	32916	
1097	0	32864	32756	
1098	0	32804	32788	
1099	0	32806	32688	
1100	0	32838	32818	
1101	0	32832	32736	
1102	0	32792	32734	
1103	0	32812	32828	
1104	0	32840	32724	
1105	0	32806	32759	
1106	0	32798	32660	
1107	0	32790	32756	
1108	0	32838	32767	
1109	0	32800	32840	
1110	0	32820	32720	
1111	0	32762	32768	
1112	0	32824	32831	
1113	0	32764	32684	
1114	0	32768	32704	
1115	0	32846	32719	
1116	0	32820	32883	
1117	0	32816	32775	
1118	0	32832	32664	
1119	0	32868	32786	
1120	0	32808	32847	
1121	0	32832	32680	
1122	0	32836	32712	
1123	0	32832	32654	
1124	0	32848	32886	
1125	0	32784	32860	
1126	0	32772	32712	
1127	0	32830	32734	
1128	0	32742	32750	
1129	0	32820	32818	
1130	0	32788	32872	
1131	0	32832	32832	
1132	0	32840	32775	
1133	0	32808	32662	
1134	0	32782	32775	
1135	0	32766	32856	
1136	0	32784	32704	
1137	0	32854	32734	
1138	0	32840	32654	
1139	0	32738	32775	
1140	0	32792	32726	
1141	0	32834	32824	
1142	0	32812	32798	
1143	0	32818	32716	
1144	0	32832	32758	
1145	0	32846	32746	
1146	0	32868	32854	
1147	0	32852	32830	
1148	0	32752	32680	
1149	0	32802	32775	
1150	0	32778	32766	
1151	0	32812	32694	
1152	0	32828	32866	
1153	0	32820	32740	
1154	0	32807	32775	
1155	0	32810	32698	
1156	0	32856	32668	
1157	0	32794	32766	
1158	0	32892	32853	
1159	0	32820	32746	
1160	0	32800	32839	
1161	0	32880	32854	
1162	0	32744	32728	
1163	0	32716	32788	
1164	0	32808	32774	
1165	0	32796	32622	
1166	0	32844	32768	
1167	0	32746	32752	
1168	0	32824	32768	
1169	0	32900	32738	
1170	0	32844	32698	
1171	0	32856	32859	
1172	0	32848	32727	
1173	0	32754	32804	
1174	0	32820	32804	
1175	0	32832	32732	
1176	0	32847	32794	
1177	0	32832	32801	
1178	0	32832	32700	
1179	0	32808	32758	
1180	0	32848	32790	
1181	0	32798	32768	
1182	0	32816	32807	
1183	0	32840	32679	
1184	0	32794	32764	
1185	0	32860	32734	
1186	0	32818	32762	
1187	0	32888	32754	
1188	0	32784	32708	
1189	0	32800	32860	
1190	0	32796	32863	
1191	0	32832	32712	
1192	0	32808	32820	
1193	0	32836	32705	
1194	0	32774	32792	
1195	0	32776	32806	
1196	0	32784	32775	
1197	0	32792	32806	
1198	0	32816	32852	
1199	0	32852	32708	
1200	0	32834	32762	
1201	0	32832	32727	
1202	0	32816	32775	
1203	0	32842	32798	
1204	0	32832	32839	
1205	0	32820	32766	
1206	0	32814	32720	
1207	0	32788	32696	
1208	0	32828	32692	
1209	0	32872	32772	
1210	0	32832	32826	
1211	0	32760	32800	
1212	0	32792	32775	
1213	0	32744	32819	
1214	0	32760	32806	
1215	0	32828	32702	
1216	0	32814	32820	
1217	0	32801	32746	
1218	0	32820	32828	
1219	0	32824	32728	
1220	0	32856	32706	
1221	0	32804	32710	
1222	0	32868	32832	
1223	0	32858	32732	
1224	0	32844	32766	
1225	0	32892	32784	
1226	0	32808	32720	
1227	0	32856	32828	
1228	0	32792	32740	
1229	0	32780	32735	
1230	0	32806	32736	
1231	0	32868	32704	
1232	0	32820	32801	
1233	0	32820	32816	
1234	0	32778	32679	
1235	0	32818	32702	
1236	0	32804	32692	
1237	0	32816	32878	
1238	0	32853	32888	
1239	0	32840	32664	
1240	0	32840	32822	
1241	0	32832	32684	
1242	0	32808	32760	
1243	0	32806	32800	
1244	0	32752	32848	
1245	0	32840	32810	
1246	0	32826	32728	
1247	0	32812	32820	
1248	0	32810	32700	
1249	0	32760	32752	
1250	0	32769	32702	
1251	0	32772	32708	
1252	0	32770	32714	
1253	0	32828	32775	
1254	0	32826	32662	
1255	0	32798	32775	
1256	0	32812	32726	
1257	0	32884	32796	
1258	0	32788	32775	
1259	0	32838	32702	
1260	0	32838	32772	
1261	0	32786	32687	
1262	0	32764	32711	
1263	0	32742	32775	
1264	0	32820	32852	
1265	0	32796	32870	
1266	0	32772	32644	
1267	0	32775	32712	
1268	0	32860	32673	
1269	0	32794	32748	
1270	0	32775	32820	
1271	0	32752	32835	
1272	0	32810	32900	
1273	0	32838	32867	
1274	0	32792	32914	
1275	0	32756	32838	
1276	0	32788	32886	
1277	0	32828	32770	
1278	0	32872	32831	
1279	0	32774	32734	
1280	0	32810	32752	
1281	0	32810	32668	
1282	0	32788	32720	
1283	0	32790	32736	
1284	0	32880	32804	
1285	0	32820	32792	
1286	0	32824	32826	
1287	0	32752	32767	
1288	0	32780	32679	
1289	0	32804	32728	
1290	0	32718	32678	
1291	0	32866	32775	
1292	0	32824	32662	
1293	0	32818	32714	
1294	0	32858	32772	
1295	0	32840	32800	
1296	0	32832	32663	
1297	0	32822	32760	
1298	0	32856	32742	
1299	0	32816	32760	
1300	0	32848	32666	
1301	0	32826	32710	
1302	0	32872	32696	
1303	0	32760	32664	
1304	0	32858	32752	
1305	0	32778	32614	
1306	0	32852	32744	
1307	0	32849	32686	
1308	0	32892	32775	
1309	0	32884	32751	
1310	0	32700	32666	
1311	0	32688	32768	
1312	0	32618	32656	
1313	0	32604	32775	
1314	0	32642	32725	
1315	0	32680	32903	
1316	0	32672	32820	
1317	0	32720	32734	
1318	0	32810	32710	
1319	0	32744	32721	
1320	0	32784	32647	
1321	0	32764	32647	
1322	0	32840	32596	
1323	0	32890	32720	
1324	0	32854	32822	
1325	0	32960	32934	
1326	0	32820	32966	
1327	0	32834	32838	
1328	0	32876	32836	
1329	0	32820	32700	
1330	0	32912	32922	
1331	0	32958	32894	
1332	0	32884	32864	
1333	0	32940	32964	
1334	0	32916	32884	
1335	0	32898	33030	
1336	0	32976	32998	
1337	0	33028	32870	
1338	0	32892	33024	
1339	0	32870	33050	
1340	0	32804	33017	
1341	0	32780	32950	
1342	0	32774	32814	
1343	0	32756	32818	
1344	0	32802	32682	
1345	0	32816	32878	
1346	0	32798	32740	
1347	0	32841	32644	
1348	0	32852	32612	
1349	0	32828	32494	
1350	0	32832	32620	
1351	0	32804	32682	
1352	0	32728	32828	
1353	0	32660	32708	
1354	0	32682	32788	
1355	0	32744	32740	
1356	0	32716	32588	
1357	0	32736	32636	
1358	0	32768	32794	
1359	0	32764	32662	
1360	0	32840	32636	
1361	0	32834	32672	
1362	0	32800	32784	
1363	0	32824	32750	
1364	0	32900	32630	
1365	0	32912	32792	
1366	0	32840	32900	
1367	0	32772	32726	
1368	0	32804	32822	
1369	0	32868	32832	
1370	0	32950	32805	
1371	0	32916	32820	
1372	0	32870	32816	
1373	0	32798	32696	
1374	0	32780	32724	
1375	0	32712	32632	
1376	0	32638	32726	
1377	0	32616	32834	
1378	0	32620	32678	
1379	0	32648	32874	
1380	0	32610	32775	
1381	0	32648	32660	
1382	0	32702	32866	
1383	0	32762	32876	
1384	0	32736	32674	
1385	0	32804	32844	
1386	0	32812	32901	
1387	0	32888	32653	
1388	0	32916	32790	
1389	0	32878	32710	
1390	0	32822	32724	
1391	0	32869	32710	
1392	0	32836	32586	
1393	0	32896	32710	
1394	0	32878	32698	
1395	0	32922	32654	
1396	0	32896	32732	
1397	0	32792	32736	
1398	0	32900	32688	
1399	0	32922	32742	
1400	0	32836	32756	
1401	0	32858	32668	
1402	0	32828	32724	
1403	0	32842	32924	
1404	0	32808	32996	
1405	0	32816	33070	
1406	0	32792	33058	
1407	0	32677	32882	
1408	0	32784	32770	
1409	0	32800	32846	
1410	0	32714	32814	
1411	0	32848	32839	
1412	0	32778	32742	
1413	0	32884	32736	
1414	0	32848	32880	
1415	0	32872	32775	
1416	0	32820	32784	
1417	0	32824	32832	
1418	0	32820	32806	
1419	0	32788	32734	
1420	0	32832	32799	
1421	0	32892	32654	
1422	0	32874	32638	
1423	0	32784	32696	
1424	0	32828	32614	
1425	0	32866	32682	
1426	0	32772	32612	
1427	0	32844	32642	
1428	0	32828	32630	
1429	0	32796	32636	
1430	0	32888	32736	
1431	0	32882	32834	
1432	0	32866	32678	
1433	0	32816	32733	
1434	0	32842	32766	
1435	0	32792	32759	
1436	0	32672	32686	
1437	0	32754	32678	
1438	0	32676	32854	
1439	0	32716	32903	
1440	0	32828	32854	
1441	0	32796	32847	
1442	0	32752	32903	
1443	0	32860	32790	
1444	0	32816	32806	
1445	0	32816	32814	
1446	0	32828	32740	
1447	0	32886	32683	
1448	0	32824	32702	
1449	0	32888	32604	
1450	0	32884	32762	
1451	0	32832	32734	
1452	0	32792	32723	
1453	0	32850	32885	
1454	0	32844	32938	
1455	0	32848	32770	
1456	0	32826	32752	
1457	0	32808	32807	
1458	0	32849	32705	
1459	0	32888	32774	
1460	0	32792	32783	
1461	0	32824	32722	
1462	0	32932	32711	
1463	0	32868	32733	
1464	0	32714	32815	
1465	0	32814	32796	
1466	0	32892	32756	
1467	0	32796	32807	
1468	0	32790	32688	
1469	0	32770	32830	
1470	0	32812	32666	
1471	0	32802	32690	
1472	0	32736	32750	
1473	0	32784	32796	
1474	0	32824	32792	
1475	0	32904	32964	
1476	0	32880	32854	
1477	0	32908	32976	
1478	0	32728	32882	
1479	0	32684	32951	
1480	0	32664	32791	
1481	0	32696	32690	
1482	0	32730	32657	
1483	0	32720	32634	
1484	0	32764	32775	
1485	0	32852	32804	
1486	0	32840	32684	
1487	0	32916	32775	
1488	0	32936	32709	
1489	0	32864	32762	
1490	0	32836	32609	
1491	0	32860	32714	
1492	0	32908	32764	
1493	0	32864	32640	
1494	0	32898	32692	
1495	0	32758	32760	
1496	0	32706	32854	
1497	0	32712	32830	
1498	0	32730	32870	
1499	0	32770	32902	
1500	0	32762	32742	
1501	0	32804	32679	
1502	0	32752	32629	
1503	0	32836	32759	
1504	0	32834	32775	
1505	0	32856	32770	
1506	0	32846	32722	
1507	0	32836	32810	
1508	0	32810	32760	
1509	0	32874	32631	
1510	0	32886	32818	
1511	0	32810	32731	
1512	0	32716	32750	
1513	0	32783	32775	
1514	0	32836	32732	
1515	0	32834	32790	
1516	0	32800	32802	
1517	0	32852	32775	
1518	0	32804	32812	
1519	0	32828	32876	
1520	0	32752	32746	
1521	0	32848	32820	
1522	0	32772	32796	
1523	0	32776	32788	
1524	0	32810	32825	
1525	0	32748	32706	
1526	0	32818	32752	
1527	0	32798	32753	
1528	0	32796	32774	
1529	0	32798	32775	
1530	0	32830	32802	
1531	0	32796	32766	
1532	0	32816	32714	
1533	0	32866	32706	
1534	0	32784	32670	
1535	0	32736	32720	
1536	0	32834	32780	
1537	0	32912	32711	
1538	0	32804	32770	
1539	0	32864	32788	
1540	0	32796	32850	
1541	0	32804	32871	
1542	0	32820	32834	
1543	0	32738	32734	
1544	0	32756	32732	
1545	0	32792	32918	
1546	0	32806	33014	
1547	0	32898	33064	
1548	0	32824	32890	
1549	0	32798	32992	
1550	0	32784	32856	
1551	0	32906	32828	
1552	0	32872	32775	
1553	0	32743	32646	
1554	0	32862	32766	
1555	0	32808	32775	
1556	0	32808	32740	
1557	0	32836	32696	
1558	0	32800	32692	
1559	0	32758	32758	
1560	0	32752	32618	
1561	0	32768	32726	
1562	0	32784	32674	
1563	0	32832	32679	
1564	0	32868	32775	
1565	0	32910	32754	
1566	0	32880	32766	
1567	0	32926	32740	
1568	0	32870	32550	
1569	0	32844	32616	
1570	0	32892	32732	
1571	0	32814	32799	
1572	0	32684	32938	
1573	0	32718	32805	
1574	0	32736	32828	
1575	0	32752	32706	
1576	0	32820	32939	
1577	0	32724	32966	
1578	0	32797	32690	
1579	0	32840	32820	
1580	0	32860	32732	
1581	0	32814	32775	
1582	0	32852	32750	
1583	0	32888	32775	
1584	0	32832	32830	
1585	0	32896	32638	
1586	0	32870	32704	
1587	0	32848	32647	
1588	0	32772	32876	
1589	0	32828	32839	
1590	0	32816	32670	
1591	0	32782	32813	
1592	0	32836	32742	
1593	0	32856	32822	
1594	0	32864	32858	
1595	0	32832	32650	
1596	0	32878	32790	
1597	0	32846	32818	
1598	0	32825	32670	
1599	0	32832	32836	
1600	0	32876	32680	
1601	0	32898	32756	
1602	0	32924	32810	
1603	0	32904	32726	
1604	0	32848	32764	
1605	0	32788	32686	
1606	0	32704	32795	
1607	0	32660	32706	
1608	0	32634	32734	
1609	0	32560	32718	
1610	0	32724	32678	
1611	0	32768	32771	
1612	0	32867	32834	
1613	0	32880	32724	
1614	0	32888	32682	
1615	0	32920	32828	
1616	0	32748	33044	
1617	0	32800	33076	
1618	0	32784	32887	
1619	0	32830	32914	
1620	0	32820	32820	
1621	0	32808	32702	
1622	0	32832	32686	
1623	0	32842	32662	
1624	0	32948	32767	
1625	0	32849	32846	
1626	0	32796	32702	
1627	0	32756	32742	
1628	0	32860	32881	
1629	0	32814	32830	
1630	0	32810	32844	
1631	0	32804	32740	
1632	0	32724	32820	
1633	0	32822	32796	
1634	0	32792	32838	
1635	0	32846	32794	
1636	0	32806	32750	
1637	0	32810	32774	
1638	0	32772	32558	
1639	0	32896	32640	
1640	0	32744	32594	
1641	0	32810	32712	
1642	0	32870	32760	
1643	0	32778	32655	
1644	0	32704	32710	
1645	0	32868	32774	
1646	0	32852	32786	
1647	0	32808	32682	
1648	0	32928	32770	
1649	0	32784	32784	
1650	0	32794	32704	
1651	0	32782	32775	
1652	0	32812	32706	
1653	0	32760	32799	
1654	0	32868	32804	
1655	0	32816	32656	
1656	0	32796	32538	
1657	0	32912	32618	
1658	0	32904	32730	
1659	0	32872	32835	
1660	0	32800	32732	
1661	0	32842	33016	
1662	0	32740	32902	
1663	0	32736	32966	
1664	0	32796	32920	
1665	0	32732	32822	
1666	0	32752	32809	
1667	0	32768	32838	
1668	0	32720	32896	
1669	0	32748	32795	
1670	0	32840	32704	
1671	0	32830	32710	
1672	0	32814	32612	
1673	0	32836	32734	
1674	0	32872	32818	
1675	0	32844	32710	
1676	0	32878	32760	
1677	0	32916	32654	
1678	0	32832	32704	
1679	0	32800	32752	
1680	0	32772	32710	
1681	0	32720	32740	
1682	0	32708	32702	
1683	0	32762	32766	
1684	0	32786	32814	
1685	0	32892	32668	
1686	0	32928	32774	
1687	0	32970	32664	
1688	0	32878	32878	
1689	0	32864	32886	
1690	0	32864	32908	
1691	0	32804	32928	
1692	0	32752	32928	
1693	0	32688	32870	
1694	0	32766	32788	
1695	0	32788	32714	
1696	0	32772	32628	
1697	0	32870	32792	
1698	0	32814	32828	
1699	0	32836	32660	
1700	0	32768	32754	
1701	0	32682	32761	
1702	0	32732	32792	
1703	0	32836	32790	
1704	0	32924	32728	
1705	0	32960	32775	
1706	0	32908	32704	
1707	0	32858	32838	
1708	0	32836	32796	
1709	0	32780	32716	
1710	0	32828	32775	
1711	0	32752	32666	
1712	0	32721	32788	
1713	0	32854	32916	
1714	0	32836	32644	
1715	0	32840	32794	
1716	0	32760	32764	
1717	0	32852	32670	
1718	0	32834	32708	
1719	0	32826	32775	
1720	0	32764	32721	
1721	0	32784	32742	
1722	0	32816	32654	
1723	0	32848	32720	
1724	0	32756	32645	
1725	0	32764	32886	
1726	0	32738	32830	
1727	0	32704	32684	
1728	0	32716	32772	
1729	0	32774	32556	
1730	0	32804	32714	
1731	0	32880	32788	
1732	0	32853	32722	
1733	0	32844	32899	
1734	0	32818	32852	
1735	0	32844	32814	
1736	0	32774	32834	
1737	0	32828	32920	
1738	0	32816	32910	
1739	0	32824	32836	
1740	0	32860	32775	
1741	0	32823	32655	
1742	0	32868	32808	
1743	0	32910	32839	
1744	0	32892	32657	
1745	0	32840	32808	
1746	0	32808	32704	
1747	0	32788	32732	
1748	0	32866	32718	
1749	0	32864	32638	
1750	0	32840	32762	
1751	0	32719	32814	
1752	0	32800	32736	
1753	0	32752	32775	
1754	0	32610	32740	
1755	0	32576	32727	
1756	0	32676	32702	
1757	0	32814	32618	
1758	0	32912	32604	
1759	0	32816	32655	
1760	0	32712	32730	
1761	0	32776	32703	
1762	0	32778	32856	
1763	0	32958	32731	
1764	0	33004	32958	
1765	0	32968	32938	
1766	0	32944	32958	
1767	0	32902	32926	
1768	0	32894	32695	
1769	0	32920	32746	
1770	0	32816	32672	
1771	0	32840	32654	
1772	0	32736	32762	
1773	0	32820	32810	
1774	0	32798	32728	
1775	0	32745	32820	
1776	0	32704	32816	
1777	0	32784	32844	
1778	0	32800	32788	
1779	0	32786	32826	
1780	0	32756	32775	
1781	0	32696	32792	
1782	0	32756	32828	
1783	0	32800	32804	
1784	0	32796	32600	
1785	0	32856	32647	
1786	0	32856	32775	
1787	0	32768	32670	
1788	0	32742	32791	
1789	0	32804	32676	
1790	0	32792	32799	
1791	0	32868	32824	
1792	0	32792	32678	
1793	0	32820	32695	
1794	0	32798	32702	
1795	0	32890	32772	
1796	0	32890	32855	
1797	0	32852	32728	
1798	0	32886	32740	
1799	0	32808	32768	
1800	0	32802	32788	
1801	0	32748	32897	
1802	0	32732	32727	
1803	0	32776	32860	
1804	0	32868	32664	
1805	0	32918	32800	
1806	0	32828	32726	
1807	0	32830	32686	
1808	0	32804	32740	
1809	0	32796	32864	
1810	0	32776	32844	
1811	0	32748	32678	
1812	0	32792	32690	
1813	0	32880	32775	
1814	0	32816	32743	
1815	0	32806	32652	
1816	0	32816	32692	
1817	0	32810	32838	
1818	0	32764	32692	
1819	0	32782	32752	
1820	0	32762	32828	
1821	0	32815	32808	
1822	0	32840	32688	
1823	0	32868	32706	
1824	0	32816	32775	
1825	0	32782	32896	
1826	0	32848	32766	
1827	0	32758	32724	
1828	0	32816	32784	
1829	0	32876	32754	
1830	0	32826	32850	
1831	0	32832	32818	
1832	0	32782	32743	
1833	0	32796	32798	
1834	0	32852	32739	
1835	0	32810	32772	
1836	0	32830	32798	
1837	0	32836	32798	
1838	0	32876	32746	
1839	0	32792	32606	
1840	0	32810	32724	
1841	0	32808	32830	
1842	0	32752	32774	
1843	0	32840	32838	
1844	0	32812	32732	
1845	0	32868	32826	
1846	0	32842	32839	
1847	0	32842	32698	
1848	0	32796	32832	
1849	0	32876	32762	
1850	0	32816	32694	
1851	0	32916	32766	
1852	0	32830	32708	
1853	0	32808	32772	
1854	0	32860	32876	
1855	0	32828	32754	
1856	0	32800	32831	
1857	0	32868	32704	
1858	0	32810	32838	
1859	0	32866	32871	
1860	0	32824	32690	
1861	0	32820	32714	
1862	0	32778	32742	
1863	0	32848	32774	
1864	0	32756	32810	
1865	0	32772	32773	
1866	0	32760	32782	
1867	0	32842	32839	
1868	0	32740	32716	
1869	0	32826	32775	
1870	0	32796	32839	
1871	0	32808	32712	
1872	0	32844	32748	
1873	0	32874	32706	
1874	0	32744	32798	
1875	0	32786	32672	
1876	0	32828	32686	
1877	0	32760	32750	
1878	0	32846	32775	
1879	0	32852	32666	
1880	0	32832	32880	
1881	0	32896	32861	
1882	0	32836	32876	
1883	0	32768	32820	
1884	0	32775	32732	
1885	0	32792	32848	
1886	0	32688	32732	
1887	0	32868	32743	
1888	0	32792	32736	
1889	0	32828	32674	
1890	0	32872	32712	
1891	0	32904	32683	
1892	0	32940	32692	
1893	0	32868	32874	
1894	0	32856	32727	
1895	0	32814	32652	
1896	0	32770	32596	
1897	0	32736	32860	
1898	0	32708	32834	
1899	0	32728	32900	
1900	0	32744	32855	
1901	0	32770	32720	
1902	0	32832	32772	
1903	0	32796	32720	
1904	0	32842	32797	
1905	0	32796	32730	
1906	0	32752	32700	
1907	0	32852	32823	
1908	0	32874	32775	
1909	0	32876	32860	
1910	0	32908	32834	
1911	0	32820	32827	
1912	0	32848	32775	
1913	0	32816	32662	
1914	0	32788	32750	
1915	0	32764	32550	
1916	0	32836	32678	
1917	0	32814	32754	
1918	0	32800	32743	
1919	0	32696	32756	
1920	0	32832	32715	
1921	0	32820	32770	
1922	0	32794	32756	
1923	0	32866	32902	
1924	0	32902	32854	
1925	0	32840	32732	
1926	0	32858	32812	
1927	0	32788	32792	
1928	0	32796	32867	
1929	0	32740	32839	
1930	0	32756	32848	
1931	0	32744	32748	
1932	0	32760	32724	
1933	0	32700	32786	
1934	0	32892	32679	
1935	0	32838	32676	
1936	0	32816	32684	
1937	0	32816	32634	
1938	0	32888	32800	
1939	0	32876	32820	
1940	0	32796	32725	
1941	0	32876	32748	
1942	0	32876	32668	
1943	0	32828	32676	
1944	0	32816	32838	
1945	0	32840	32724	
1946	0	32836	32950	
1947	0	32800	32852	
1948	0	32848	32823	
1949	0	32840	32788	
1950	0	32836	32846	
1951	0	32772	32872	
1952	0	32744	32775	
1953	0	32752	32632	
1954	0	32764	32826	
1955	0	32900	32808	
1956	0	32808	32678	
1957	0	32812	32840	
1958	0	32774	32724	
1959	0	32844	32775	
1960	0	32832	32654	
1961	0	32894	32732	
1962	0	32822	32678	
1963	0	32752	32775	
1964	0	32792	32828	
1965	0	32780	32772	
1966	0	32788	32774	
1967	0	32796	32694	
1968	0	32788	32804	
1969	0	32844	32752	
1970	0	32872	32820	
1971	0	32980	32775	
1972	0	32860	32689	
1973	0	32858	32714	
1974	0	32844	32678	
1975	0	32852	32770	
1976	0	32750	32746	
1977	0	32608	32897	
1978	0	32516	32884	
1979	0	32638	32806	
1980	0	32798	32756	
1981	0	32932	32599	
1982	0	32912	32716	
1983	0	32852	32694	
1984	0	32688	32714	
1985	0	32668	32727	
1986	0	32694	32711	
1987	0	32814	32744	
1988	0	32864	32679	
1989	0	32846	32730	
1990	0	32768	32828	
1991	0	32798	32762	
1992	0	32764	32928	
1993	0	32912	32847	
1994	0	32988	32794	
1995	0	33002	32734	
1996	0	33014	32756	
1997	0	32912	33085	
1998	0	32888	32898	
1999	0	32784	32784	
2000	0	32744	32678	
2001	0	32716	32594	
2002	0	32696	32678	
2003	0	32646	32800	
2004	0	32580	32742	
2005	0	32474	32942	
2006	0	32620	32897	
2007	0	32820	32934	
2008	0	32988	32916	
2009	0	32948	32758	
2010	0	32820	32727	
2011	0	32860	32798	
2012	0	32928	32706	
2013	0	32954	32838	
2014	0	32918	32887	
2015	0	32940	32799	
2016	0	32936	32828	
2017	0	32948	32704	
2018	0	32846	32646	
2019	0	32780	32734	
2020	0	32840	32721	
2021	0	32784	32590	
2022	0	32737	32708	
2023	0	32808	32830	
2024	0	32876	32775	
2025	0	32788	32760	
2026	0	32722	32750	
2027	0	32737	32839	
2028	0	32802	32660	
2029	0	32844	32699	
2030	0	32806	32799	
2031	0	32752	32772	
2032	0	32798	32756	
2033	0	32830	32772	
2034	0	32828	32738	
2035	0	32856	32915	
2036	0	32856	32842	
2037	0	32846	32660	
2038	0	32792	32756	
2039	0	32808	32690	
2040	0	32820	32775	
2041	0	32792	32816	
2042	0	32876	32688	
2043	0	32836	32720	
2044	0	32718	32720	
2045	0	32760	32679	
2046	0	32844	32698	
2047	0	32820	32790	
2048	0	32752	32652	
2049	0	32756	32712	
2050	0	32746	32770	
2051	0	32728	32775	
2052	0	32720	32876	
2053	0	32796	32928	
2054	0	32853	32775	
2055	0	32806	32766	
2056	0	32828	32672	
2057	0	32952	32636	
2058	0	33008	32696	
2059	0	32824	32732	
2060	0	32814	32884	
2061	0	32804	32889	
2062	0	32944	32718	
2063	0	32962	32678	
2064	0	32924	32618	
2065	0	32876	32736	
2066	0	32816	32854	
2067	0	32672	32722	
2068	0	32456	32932	
2069	0	32164	32958	
2070	0	32324	32828	
2071	0	32746	32911	
2072	0	32920	32760	
2073	0	32844	32558	
2074	0	32904	32476	
2075	0	32906	32358	
2076	0	32836	32548	
2077	0	32824	32647	
2078	0	32764	32804	
2079	0	32900	33006	
2080	0	32887	33044	
2081	0	32932	33162	
2082	0	32936	33062	
2083	0	32892	32934	
2084	0	32870	32994	
2085	0	32901	32846	
2086	0	32938	32970	
2087	0	32956	32968	
2088	0	32944	32764	
2089	0	32916	32756	
2090	0	32876	32672	
2091	0	32856	32686	
2092	0	32828	32647	
2093	0	32848	32548	
2094	0	32856	32680	
2095	0	32864	32632	
2096	0	32808	32658	
2097	0	32764	32704	
2098	0	32748	32660	
2099	0	32816	32736	
2100	0	32784	32686	
2101	0	32740	32772	
2102	0	32748	32750	
2103	0	32740	32710	
2104	0	32624	32764	
2105	0	32686	32775	
2106	0	32728	32892	
2107	0	32740	32764	
2108	0	32800	32660	
2109	0	32856	32770	
2110	0	32890	32748	
2111	0	32862	32688	
2112	0	32892	32796	
2113	0	32852	32838	
2114	0	32850	32775	
2115	0	32818	32724	
2116	0	32776	32654	
2117	0	32814	32810	
2118	0	32870	32878	
2119	0	32876	32694	
2120	0	32848	32770	
2121	0	32892	32794	
2122	0	32834	32775	
2123	0	32870	32822	
2124	0	32848	32775	
2125	0	32660	32728	
2126	0	32820	32725	
2127	0	32668	32786	
2128	0	32740	32679	
2129	0	32724	32852	
2130	0	32670	32810	
2131	0	32674	32652	
2132	0	32780	32668	
2133	0	32856	32588	
2134	0	32868	32474	
2135	0	32758	32504	
2136	0	32776	32636	
2137	0	32816	32775	
2138	0	32785	32850	
2139	0	32748	32700	
2140	0	32792	32740	
2141	0	32802	32839	
2142	0	32850	32912	
2143	0	32864	32796	
2144	0	32894	32928	
2145	0	32779	32838	
2146	0	32704	32758	
2147	0	32776	32775	
2148	0	32782	32698	
2149	0	32678	32594	
2150	0	32772	32578	
2151	0	32834	32578	
2152	0	32764	32564	
2153	0	32646	32598	
2154	0	32540	32764	
2155	0	32604	32999	
2156	0	32748	32822	
2157	0	32900	32842	
2158	0	33110	32990	
2159	0	32984	33118	
2160	0	33036	33028	
2161	0	32932	32966	
2162	0	33008	32964	
2163	0	32992	32960	
2164	0	33060	32934	
2165	0	32974	32982	
2166	0	32932	33108	
2167	0	32916	33079	
2168	0	32876	33048	
2169	0	32934	32950	
2170	0	32952	32898	
2171	0	32916	32762	
2172	0	32896	32750	
2173	0	32886	32622	
2174	0	32822	32628	
2175	0	32815	32540	
2176	0	32800	32704	
2177	0	32648	32687	
2178	0	32528	32686	
2179	0	32576	32624	
2180	0	32712	32580	
2181	0	32792	32570	
2182	0	32744	32630	
2183	0	32769	32490	
2184	0	32760	32561	
2185	0	32766	32684	
2186	0	32752	32596	
2187	0	32688	32604	
2188	0	32640	32676	
2189	0	32704	32734	
2190	0	32844	32837	
2191	0	32804	32890	
2192	0	32798	32876	
2193	0	32848	32934	
2194	0	32852	32870	
2195	0	32930	32856	
2196	0	32936	32868	
2197	0	32880	32734	
2198	0	32848	32810	
2199	0	32872	32878	
2200	0	32776	32609	
2201	0	32794	32728	
2202	0	32788	32762	
2203	0	32796	32631	
2204	0	32956	32756	
2205	0	32848	32830	
2206	0	32756	32698	
2207	0	32846	32794	
2208	0	32724	32697	
2209	0	32784	32838	
2210	0	32832	32756	
2211	0	32838	32705	
2212	0	32892	32807	
2213	0	32878	32703	
2214	0	32858	32700	
2215	0	32766	32798	
2216	0	32660	32840	
2217	0	32708	32682	
2218	0	32664	32790	
2219	0	32746	32774	
2220	0	32796	32768	
2221	0	32868	32886	
2222	0	32834	32740	
2223	0	32876	32700	
2224	0	32808	32812	
2225	0	32862	32772	
2226	0	32876	32743	
2227	0	32818	32798	
2228	0	32764	32791	
2229	0	32810	32834	
2230	0	32782	32726	
2231	0	32836	32732	
2232	0	32808	32732	
2233	0	32832	32714	
2234	0	32868	32796	
2235	0	32876	32724	
2236	0	32834	32764	
2237	0	32912	32684	
2238	0	32828	32836	
2239	0	32774	32800	
2240	0	32638	32748	
2241	0	32640	32737	
2242	0	32644	32736	
2243	0	32708	32846	
2244	0	32784	32720	
2245	0	32872	32742	
2246	0	32854	32774	
2247	0	32836	32694	
2248	0	32876	32850	
2249	0	32920	32862	
2250	0	32826	32684	
2251	0	32926	32898	
2252	0	32885	32879	
2253	0	32906	32838	
2254	0	32842	32784	
2255	0	32874	32708	
2256	0	32908	32709	
2257	0	32912	32792	
2258	0	32894	32796	
2259	0	32928	32762	
2260	0	32808	32759	
2261	0	32775	32956	
2262	0	32716	32836	
2263	0	32632	32802	
2264	0	32540	32822	
2265	0	32724	32629	
2266	0	32751	32642	
2267	0	32820	32594	
2268	0	32708	32722	
2269	0	32726	32830	
2270	0	32674	32760	
2271	0	32696	32908	
2272	0	32808	32742	
2273	0	32896	32743	
2274	0	32904	32830	
2275	0	32936	32726	
2276	0	32910	32798	
2277	0	32892	32848	
2278	0	32852	32724	
2279	0	32892	32759	
2280	0	32874	32772	
2281	0	32930	32832	
2282	0	32792	32682	
2283	0	32800	32634	
2284	0	32775	32714	
2285	0	32824	32671	
2286	0	32804	32847	
2287	0	32816	32896	
2288	0	32792	32764	
2289	0	32804	32876	
2290	0	32836	32814	
2291	0	32864	32740	
2292	0	32772	32855	
2293	0	32796	32682	
2294	0	32772	32756	
2295	0	32720	32700	
2296	0	32788	32921	
2297	0	32804	32866	
2298	0	32836	32660	
2299	0	32768	32730	
2300	0	32768	32580	
2301	0	32816	32786	
2302	0	32812	32782	
2303	0	32864	32650	
2304	0	32798	32697	
2305	0	32844	32708	
2306	0	32772	32806	
2307	0	32776	32718	
2308	0	32698	32738	
2309	0	32756	32827	
2310	0	32768	32832	
2311	0	32814	32786	
2312	0	32828	32762	
2313	0	32780	32790	
2314	0	32846	32755	
2315	0	32832	32767	
2316	0	32844	32788	
2317	0	32778	32871	
2318	0	32812	32814	
2319	0	32812	32732	
2320	0	32792	32828	
2321	0	32884	32694	
2322	0	32768	32860	
2323	0	32788	32788	
2324	0	32788	32687	
2325	0	32804	32704	
2326	0	32864	32890	
2327	0	32828	32794	
2328	0	32780	32794	
2329	0	32814	32762	
2330	0	32806	32796	
2331	0	32948	32742	
2332	0	32912	32752	
2333	0	32884	32758	
2334	0	32776	32754	
2335	0	32756	32766	
2336	0	32732	32758	
2337	0	32580	32766	
2338	0	32584	32854	
2339	0	32762	32686	
2340	0	32820	32732	
2341	0	32868	32646	
2342	0	32786	32806	
2343	0	32656	32746	
2344	0	32810	32862	
2345	0	32676	32917	
2346	0	32816	32810	
2347	0	32832	32793	
2348	0	32988	32692	
2349	0	32932	32839	
2350	0	32874	32737	
2351	0	32804	32800	
2352	0	32832	32759	
2353	0	32818	32760	
2354	0	32786	32870	
2355	0	32848	32768	
2356	0	32860	32762	
2357	0	32876	32775	
2358	0	32820	32594	
2359	0	32830	32724	
2360	0	32728	32839	
2361	0	32796	32812	
2362	0	32866	32732	
2363	0	32842	32728	
2364	0	32832	32628	
2365	0	32908	32593	
2366	0	32776	32816	
2367	0	32704	32856	
2368	0	32692	32676	
2369	0	32840	32848	
2370	0	32836	32852	
2371	0	32760	32742	
2372	0	32752	32888	
2373	0	32794	32798	
2374	0	32790	32948	
2375	0	32832	32903	
2376	0	32836	33031	
2377	0	32864	32874	
2378	0	32904	32756	
2379	0	32760	32663	
2380	0	32756	32625	
2381	0	32726	32722	
2382	0	32716	32602	
2383	0	32738	32650	
2384	0	32808	32775	
2385	0	32840	32676	
2386	0	32948	32913	
2387	0	32880	32888	
2388	0	32844	32730	
2389	0	32838	32732	
2390	0	32816	32724	
2391	0	32840	32834	
2392	0	32828	32922	
2393	0	32770	32775	
2394	0	32769	32798	
2395	0	32866	32756	
2396	0	32864	32764	
2397	0	32824	32761	
2398	0	32736	32634	
2399	0	32758	32808	
2400	0	32800	32668	
2401	0	32804	32580	
2402	0	32858	32748	
2403	0	32852	32704	
2404	0	32840	32804	
2405	0	32836	32822	
2406	0	32824	32790	
2407	0	32848	32811	
2408	0	32804	32832	
2409	0	32864	32926	
2410	0	32804	32936	
2411	0	32828	32896	
2412	0	32732	32924	
2413	0	32836	32754	
2414	0	32866	32868	
2415	0	32828	32735	
2416	0	32770	32710	
2417	0	32828	32678	
2418	0	32808	32610	
2419	0	32702	32775	
2420	0	32696	32930	
2421	0	32766	32918	
2422	0	32770	32775	
2423	0	32870	32738	
2424	0	32968	32800	
2425	0	32928	32678	
2426	0	32848	32699	
2427	0	32832	32794	
2428	0	32838	32720	
2429	0	32792	32708	
2430	0	32732	32814	
2431	0	32822	32775	
2432	0	32847	32775	
2433	0	32806	32750	
2434	0	32870	32708	
2435	0	32916	32706	
2436	0	32864	32719	
2437	0	32890	32730	
2438	0	32878	32732	
2439	0	32878	32672	
2440	0	32840	32820	
2441	0	32762	32784	
2442	0	32712	32874	
2443	0	32584	32864	
2444	0	32712	32704	
2445	0	32762	32812	
2446	0	32804	32790	
2447	0	32784	32744	
2448	0	32756	32836	
2449	0	32720	32828	
2450	0	32774	32815	
2451	0	32796	32766	
2452	0	32812	32738	
2453	0	32884	32817	
2454	0	32848	32726	
2455	0	32832	32840	
2456	0	32814	32766	
2457	0	32890	32676	
2458	0	32820	32650	
2459	0	32900	32614	
2460	0	32916	32680	
2461	0	32852	32743	
2462	0	32828	32712	
2463	0	32864	32730	
2464	0	32742	32682	
2465	0	32704	32886	
2466	0	32736	32750	
2467	0	32760	32884	
2468	0	32726	32828	
2469	0	32812	32684	
2470	0	32804	32766	
2471	0	32752	32804	
2472	0	32822	32881	
2473	0	32830	32848	
2474	0	32840	32802	
2475	0	32896	32858	
2476	0	32842	32742	
2477	0	32808	32748	
2478	0	32852	32676	
2479	0	32868	32699	
2480	0	32881	32628	
2481	0	32906	32663	
2482	0	32872	32700	
2483	0	32840	32727	
2484	0	32880	32724	
2485	0	32852	32736	
2486	0	32828	32977	
2487	0	32680	32932	
2488	0	32648	32860	
2489	0	32624	32775	
2490	0	32746	32788	
2491	0	32840	32888	
2492	0	32814	32838	
2493	0	32832	32614	
2494	0	32880	32580	
2495	0	32882	32647	
2496	0	32786	32846	
2497	0	32798	32760	
2498	0	32784	32604	
2499	0	32836	32586	
2500	0	32922	32503	
2501	0	32876	32591	
2502	0	32840	32712	
2503	0	32874	32830	
2504	0	32832	32926	
2505	0	32852	32900	
2506	0	32832	32890	
2507	0	32782	32956	
2508	0	32776	32774	
2509	0	32832	32800	
2510	0	32824	32994	
2511	0	32740	32879	
2512	0	32714	32822	
2513	0	32700	32725	
2514	0	32746	32784	
2515	0	32822	32800	
2516	0	32824	32696	
2517	0	32900	32910	
2518	0	32792	32919	
2519	0	32964	32842	
2520	0	32814	32736	
2521	0	32836	32759	
2522	0	32784	32566	
2523	0	32778	32382	
2524	0	32770	32362	
2525	0	32744	32436	
2526	0	32816	32608	
2527	0	32824	32730	
2528	0	32864	32948	
2529	0	32832	33179	
2530	0	32954	33132	
2531	0	32852	33002	
2532	0	32744	32860	
2533	0	32704	32974	
2534	0	32652	32772	
2535	0	32736	32595	
2536	0	32796	32772	
2537	0	32844	32750	
2538	0	32844	32660	
2539	0	32808	32824	
2540	0	32810	32839	
2541	0	32826	32725	
2542	0	32802	32656	
2543	0	32816	32756	
2544	0	32772	32775	
2545	0	32880	32756	
2546	0	32830	32606	
2547	0	32732	32758	
2548	0	32712	32822	
2549	0	32756	32756	
2550	0	32912	32807	
2551	0	32932	32790	
2552	0	32936	32624	
2553	0	32908	32805	
2554	0	32774	32772	
2555	0	32808	32628	
2556	0	32828	32770	
2557	0	32896	32803	
2558	0	32858	32728	
2559	0	32792	32808	
2560	0	32844	32679	
2561	0	32834	32799	
2562	0	32800	32772	
2563	0	32834	32662	
2564	0	32748	32840	
2565	0	32820	32944	
2566	0	32836	32790	
2567	0	32820	32811	
2568	0	32788	32732	
2569	0	32788	32853	
2570	0	32716	32814	
2571	0	32692	32708	
2572	0	32660	32769	
2573	0	32808	32662	
2574	0	32936	32788	
2575	0	32906	32670	
2576	0	32878	32692	
2577	0	32880	32839	
2578	0	32863	32847	
2579	0	32860	32716	
2580	0	32870	32775	
2581	0	32798	32806	
2582	0	32788	32712	
2583	0	32794	32796	
2584	0	32812	32895	
2585	0	32772	32742	
2586	0	32834	32748	
2587	0	32852	32734	
2588	0	32800	32762	
2589	0	32776	32724	
2590	0	32892	32794	
2591	0	32904	32775	
2592	0	32882	32606	
2593	0	32878	32752	
2594	0	32832	32706	
2595	0	32816	32719	
2596	0	32828	32812	
2597	0	32694	32834	
2598	0	32605	32743	
2599	0	32656	32834	
2600	0	32673	32806	
2601	0	32706	32708	
2602	0	32942	32800	
2603	0	32820	32772	
2604	0	32864	32756	
2605	0	32832	32732	
2606	0	32784	32738	
2607	0	32836	32862	
2608	0	32778	32886	
2609	0	32848	32710	
2610	0	32792	32724	
2611	0	32820	32772	
2612	0	32908	32794	
2613	0	32812	32794	
2614	0	32848	32828	
2615	0	32876	32930	
2616	0	32882	32962	
2617	0	32868	32830	
2618	0	32810	32814	
2619	0	32952	32774	
2620	0	32814	32540	
2621	0	32856	32679	
2622	0	32738	32654	
2623	0	32788	32764	
2624	0	32774	32690	
2625	0	32768	32640	
2626	0	32744	32814	
2627	0	32802	32796	
2628	0	32844	32870	
2629	0	32804	32805	
2630	0	32816	32808	
2631	0	32790	32712	
2632	0	32714	32932	
2633	0	32728	32912	
2634	0	32696	32674	
2635	0	32712	32807	
2636	0	32802	32754	
2637	0	32784	32716	
2638	0	32888	32774	
2639	0	33024	32822	
2640	0	32900	32658	
2641	0	32938	32764	
2642	0	32732	32775	
2643	0	32760	32790	
2644	0	32778	32914	
2645	0	32768	32856	
2646	0	32650	32816	
2647	0	32724	32866	
2648	0	32744	32840	
2649	0	32772	32684	
2650	0	32864	32638	
2651	0	32902	32584	
2652	0	32904	32610	
2653	0	32924	32724	
2654	0	32788	32807	
2655	0	32752	32754	
2656	0	32828	32794	
2657	0	32864	32775	
2658	0	32870	32716	
2659	0	32850	32727	
2660	0	32764	32775	
2661	0	32920	32826	
2662	0	32894	32708	
2663	0	32816	32790	
2664	0	32884	32775	
2665	0	32906	32775	
2666	0	32874	32698	
2667	0	32902	32671	
2668	0	32824	32766	
2669	0	32800	32852	
2670	0	32616	32814	
2671	0	32644	32790	
2672	0	32650	32871	
2673	0	32796	32768	
2674	0	32892	32831	
2675	0	32888	32830	
2676	0	32864	32752	
2677	0	32776	32772	
2678	0	32814	32872	
2679	0	32832	32638	
2680	0	32886	32759	
2681	0	32868	32752	
2682	0	32860	32774	
2683	0	32808	32775	
2684	0	32820	32732	
2685	0	32886	32638	
2686	0	32808	32872	
2687	0	32788	32842	
2688	0	32798	32662	
2689	0	32820	32852	
2690	0	32902	32738	
2691	0	32764	32732	
2692	0	32832	32802	
2693	0	32804	32713	
2694	0	32780	32760	
2695	0	32744	32703	
2696	0	32800	32798	
2697	0	32748	32821	
2698	0	32816	32722	
2699	0	32800	32799	
2700	0	32788	32759	
2701	0	32742	32682	
2702	0	32740	32790	
2703	0	32756	32807	
2704	0	32790	32796	
2705	0	32800	32820	
2706	0	32864	32828	
2707	0	32908	32800	
2708	0	32780	32721	
2709	0	32860	32812	
2710	0	32776	32766	
2711	0	32744	32716	
2712	0	32868	32864	
2713	0	32836	32890	
2714	0	32832	32728	
2715	0	32836	32772	
2716	0	32828	32852	
2717	0	32842	32791	
2718	0	32762	32828	
2719	0	32804	32772	
2720	0	32826	32688	
2721	0	32792	32808	
2722	0	32844	32722	
2723	0	32834	32657	
2724	0	32800	32800	
2725	0	32878	32631	
2726	0	32884	32754	
2727	0	32934	32742	
2728	0	32848	32724	
2729	0	32784	32811	
2730	0	32684	32798	
2731	0	32692	32843	
2732	0	32591	32764	
2733	0	32646	32808	
2734	0	32746	32761	
2735	0	32840	32642	
2736	0	32822	32799	
2737	0	32892	32754	
2738	0	32918	32706	
2739	0	32916	32758	
2740	0	32856	32768	
2741	0	32786	32836	
2742	0	32892	32743	
2743	0	32872	32838	
2744	0	32836	32800	
2745	0	32818	32666	
2746	0	32760	32828	
2747	0	32808	32848	
2748	0	32840	32656	
2749	0	32794	32774	
2750	0	32784	32863	
2751	0	32852	32592	
2752	0	32780	32823	
2753	0	32804	32774	
2754	0	32846	32614	
2755	0	32820	32825	
2756	0	32832	32858	
2757	0	32756	32806	
2758	0	32708	32994	
2759	0	32754	32796	
2760	0	32848	32810	
2761	0	32836	32706	
2762	0	32808	32743	
2763	0	32828	32746	
2764	0	32804	32660	
2765	0	32804	32742	
2766	0	32928	32740	
2767	0	32824	32928	
2768	0	32816	32742	
2769	0	32772	32752	
2770	0	32804	32774	
2771	0	32706	32775	
2772	0	32784	32775	
2773	0	32870	32796	
2774	0	32816	32734	
2775	0	32796	32696	
2776	0	32832	32762	
2777	0	32880	32839	
2778	0	32840	32810	
2779	0	32856	32752	
2780	0	32736	32622	
2781	0	32800	32750	
2782	0	32782	32844	
2783	0	32784	32820	
2784	0	32832	32647	
2785	0	32794	32844	
2786	0	32720	32652	
2787	0	32732	32775	
2788	0	32768	32726	
2789	0	32770	32775	
2790	0	32836	32790	
2791	0	32822	32700	
2792	0	32816	32876	
2793	0	32764	32750	
2794	0	32780	32724	
2795	0	32824	32660	
2796	0	32866	32775	
2797	0	32782	32774	
2798	0	32784	32753	
2799	0	32824	32775	
2800	0	32873	32868	
2801	0	32832	32804	
2802	0	32864	32851	
2803	0	32881	32860	
2804	0	32856	32775	
2805	0	32906	32671	
2806	0	32870	32620	
2807	0	32864	32638	
2808	0	32764	32658	
2809	0	32736	32832	
2810	0	32608	32849	
2811	0	32640	32774	
2812	0	32782	32868	
2813	0	32852	32848	
2814	0	32830	32676	
2815	0	32796	32735	
2816	0	32832	32758	
2817	0	32860	32647	
2818	0	32910	32801	
2819	0	32896	32894	
2820	0	32808	32704	
2821	0	32880	32823	
2822	0	32868	32724	
2823	0	32792	32711	
2824	0	32744	32866	
2825	0	32864	32942	
2826	0	32808	32814	
2827	0	32788	32842	
2828	0	32832	32690	
2829	0	32864	32774	
2830	0	32824	32674	
2831	0	32834	32822	
2832	0	32824	32766	
2833	0	32864	32607	
2834	0	32860	32838	
2835	0	32896	32734	
2836	0	32764	32743	
2837	0	32778	32718	
2838	0	32788	32772	
2839	0	32752	32680	
2840	0	32840	32748	
2841	0	32816	32858	
2842	0	32846	32886	
2843	0	32760	32838	
2844	0	32696	32875	
2845	0	32836	32826	
2846	0	32780	32772	
2847	0	32712	32853	
2848	0	32746	32832	
2849	0	32824	32668	
2850	0	32756	32772	
2851	0	32844	32772	
2852	0	32732	32664	
2853	0	32776	32804	
2854	0	32832	32684	
2855	0	32858	32806	
2856	0	32880	32672	
2857	0	32832	32775	
2858	0	32830	32823	
2859	0	32836	32708	
2860	0	32932	32634	
2861	0	32924	32674	
2862	0	32806	32706	
2863	0	32766	32628	
2864	0	32840	32762	
2865	0	32784	32767	
2866	0	32852	32886	
2867	0	32868	32775	
2868	0	32824	32806	
2869	0	32916	32652	
2870	0	32814	32807	
2871	0	32852	32810	
2872	0	32822	32732	
2873	0	32844	32884	
2874	0	32812	32768	
2875	0	32804	32718	
2876	0	32820	32768	
2877	0	32800	32740	
2878	0	32868	32734	
2879	0	32816	32578	
2880	0	32772	32738	
2881	0	32890	32816	
2882	0	32800	32674	
2883	0	32740	32782	
2884	0	32782	32887	
2885	0	32792	32796	
2886	0	32844	32836	
2887	0	32774	32826	
2888	0	32844	32684	
2889	0	32756	32775	
2890	0	32868	32898	
2891	0	32812	32820	
2892	0	32848	32876	
2893	0	32852	32775	
2894	0	32780	32774	
2895	0	32762	32618	
2896	0	32808	32775	
2897	0	32815	32824	
2898	0	32810	32708	
2899	0	32836	32743	
2900	0	32800	32766	
2901	0	32732	32771	
2902	0	32772	32568	
2903	0	32820	32721	
2904	0	32844	32678	
2905	0	32812	32772	
2906	0	32860	32704	
2907	0	32802	32822	
2908	0	32752	32806	
2909	0	32856	32698	
2910	0	32836	32896	
2911	0	32734	32818	
2912	0	32734	32743	
2913	0	32710	32800	
2914	0	32688	32866	
2915	0	32764	32774	
2916	0	32790	32772	
2917	0	32868	32742	
2918	0	32894	32742	
2919	0	32884	32798	
2920	0	32864	32742	
2921	0	32800	32768	
2922	0	32852	32852	
2923	0	32820	32796	
2924	0	32836	32748	
2925	0	32836	32868	
2926	0	32824	32647	
2927	0	32808	32772	
2928	0	32830	32697	
2929	0	32812	32646	
2930	0	32840	32775	
2931	0	32768	32722	
2932	0	32780	32724	
2933	0	32768	32766	
2934	0	32728	32769	
2935	0	32748	32754	
2936	0	32780	32615	
2937	0	32770	32702	
2938	0	32824	32672	
2939	0	32844	32638	
2940	0	32776	32676	
2941	0	32720	32800	
2942	0	32780	32722	
2943	0	32738	32782	
2944	0	32686	32775	
2945	0	32700	32708	
2946	0	32708	32855	
2947	0	32712	32736	
2948	0	32708	32612	
2949	0	32716	32775	
2950	0	32740	32820	
2951	0	32856	32694	
2952	0	32880	32915	
2953	0	32824	32870	
2954	0	32906	32870	
2955	0	32884	32791	
2956	0	32840	32834	
2957	0	32874	32948	
2958	0	32936	32828	
2959	0	32944	32902	
2960	0	32928	32934	
2961	0	32910	32878	
2962	0	32972	32884	
2963	0	32964	32844	
2964	0	32950	32743	
2965	0	32876	32848	
2966	0	32876	32822	
2967	0	32856	32934	
2968	0	32852	32862	
2969	0	32926	32814	
2970	0	32832	32996	
2971	0	32830	32862	
2972	0	32872	32880	
2973	0	32808	32668	
2974	0	32792	32775	
2975	0	32842	32743	
2976	0	32778	32640	
2977	0	32740	32839	
2978	0	32812	32642	
2979	0	32775	32620	
2980	0	32754	32592	
2981	0	32779	32702	
2982	0	32720	32708	
2983	0	32820	32662	
2984	0	32764	32756	
2985	0	32792	32868	
2986	0	32788	32732	
2987	0	32824	32775	
2988	0	32772	32733	
2989	0	32718	32647	
2990	0	32816	32647	
2991	0	32704	32680	
2992	0	32802	32728	
2993	0	32786	32809	
2994	0	32856	32684	
2995	0	32888	32775	
2996	0	32878	32784	
2997	0	32942	32734	
2998	0	32897	32855	
2999	0	32836	32796	
3000	0	32764	32808	
3001	0	32756	32734	
3002	0	32724	32647	
3003	0	32672	32775	
3004	0	32744	32696	
3005	0	32752	32800	
3006	0	32752	32788	
3007	0	32798	32824	
3008	0	32830	32832	
3009	0	32804	32898	
3010	0	32823	32863	
3011	0	32808	32734	
3012	0	32772	32686	
3013	0	32764	32736	
3014	0	32750	32854	
3015	0	32784	32815	
3016	0	32756	32626	
3017	0	32820	32732	
3018	0	32852	32774	
3019	0	32868	32746	
3020	0	32872	32716	
3021	0	32880	32718	
3022	0	32848	32801	
3023	0	32828	32807	
3024	0	32852	32762	
3025	0	32854	32746	
3026	0	32788	32768	
3027	0	32816	32798	
3028	0	32880	32736	
3029	0	32770	32775	
3030	0	32772	32735	
3031	0	32780	32812	
3032	0	32732	32791	
3033	0	32752	32766	
3034	0	32708	32796	
3035	0	32738	32847	
3036	0	32798	32756	
3037	0	32830	32806	
3038	0	32800	32807	
3039	0	32808	32684	
3040	0	32832	32772	
3041	0	32872	32740	
3042	0	32822	32736	
3043	0	32852	32858	
3044	0	32810	32940	
3045	0	32808	32878	
3046	0	32786	32908	
3047	0	32868	32900	
3048	0	32862	32784	
3049	0	32862	32903	
3050	0	32862	32719	
3051	0	32840	32572	
3052	0	32820	32694	
3053	0	32788	32652	
3054	0	32790	32614	
3055	0	32744	32622	
3056	0	32788	32638	
3057	0	32794	32580	
3058	0	32742	32662	
3059	0	32784	32718	
3060	0	32800	32623	
3061	0	32798	32750	
3062	0	32818	32774	
3063	0	32806	32622	
3064	0	32792	32836	
3065	0	32858	32852	
3066	0	32832	32775	
3067	0	32832	32758	
3068	0	32788	32775	
3069	0	32852	32788	
3070	0	32790	32738	
3071	0	32824	32732	
3072	0	32870	32814	
3073	0	32852	32884	
3074	0	32880	32874	
3075	0	32788	32852	
3076	0	32850	32757	
3077	0	32836	32842	
3078	0	32816	32736	
3079	0	32782	32804	
3080	0	32865	32842	
3081	0	32778	32742	
3082	0	32836	32796	
3083	0	32832	32751	
3084	0	32824	32806	
3085	0	32792	32772	
3086	0	32784	32874	
3087	0	32800	32762	
3088	0	32724	32730	
3089	0	32732	32775	
3090	0	32796	32700	
3091	0	32788	32790	
3092	0	32902	32750	
3093	0	32850	32648	
3094	0	32960	32844	
3095	0	32944	32688	
3096	0	32932	32807	
3097	0	32852	32774	
3098	0	32874	32686	
3099	0	32756	32775	
3100	0	32760	32752	
3101	0	32800	32793	
3102	0	32680	32686	
3103	0	32700	32922	
3104	0	32744	32808	
3105	0	32762	32748	
3106	0	32810	32784	
3107	0	32816	32750	
3108	0	32908	32698	
3109	0	32842	32775	
3110	0	32856	32656	
3111	0	32784	32712	
3112	0	32796	32832	
3113	0	32772	32791	
3114	0	32784	32640	
3115	0	32876	32592	
3116	0	32880	32724	
3117	0	32800	32688	
3118	0	32802	32646	
3119	0	32812	32662	
3120	0	33000	32734	
3121	0	32944	32820	
3122	0	33050	32838	
3123	0	32974	32737	
3124	0	32772	32948	
3125	0	32788	32962	
3126	0	32736	32884	
3127	0	32580	33084	
3128	0	32636	32944	
3129	0	32528	33080	
3130	0	32640	32978	
3131	0	32626	32795	
3132	0	32700	32700	
3133	0	32744	32593	
3134	0	32816	32644	
3135	0	32916	32631	
3136	0	32964	32564	
3137	0	32984	32671	
3138	0	32834	32732	
3139	0	32848	32599	
3140	0	32818	32634	
3141	0	32872	32656	
3142	0	32816	32773	
3143	0	32842	32828	
3144	0	32896	32792	
3145	0	32900	32818	
3146	0	32788	32733	
3147	0	32810	32870	
3148	0	32816	32910	
3149	0	32816	32743	
3150	0	32868	32724	
3151	0	32924	32743	
3152	0	32910	32696	
3153	0	32892	32744	
3154	0	32828	32748	
3155	0	32788	32714	
3156	0	32744	32802	
3157	0	32678	32817	
3158	0	32648	32932	
3159	0	32656	32908	
3160	0	32696	32868	
3161	0	32944	32775	
3162	0	32934	32654	
3163	0	32922	32774	
3164	0	32862	32786	
3165	0	32864	32810	
3166	0	32736	32690	
3167	0	32785	32660	
3168	0	32806	32728	
3169	0	32784	32762	
3170	0	32808	32682	
3171	0	32870	32820	
3172	0	32828	32740	
3173	0	32800	32740	
3174	0	32836	32714	
3175	0	32868	32692	
3176	0	32858	32711	
3177	0	32892	32647	
3178	0	32820	32724	
3179	0	32800	32722	
3180	0	32752	32862	
3181	0	32708	32871	
3182	0	32726	32864	
3183	0	32794	32866	
3184	0	32820	32903	
3185	0	32864	32817	
3186	0	32848	32756	
3187	0	32798	32561	
3188	0	32760	32818	
3189	0	32770	32702	
3190	0	32732	32618	
3191	0	32812	32474	
3192	0	32820	32516	
3193	0	32840	32512	
3194	0	32872	32512	
3195	0	32832	32752	
3196	0	32788	32948	
3197	0	32798	33038	
3198	0	32820	33087	
3199	0	32849	32908	
3200	0	32908	32922	
3201	0	32898	32822	
3202	0	32860	32846	
3203	0	32788	32774	
3204	0	32850	32888	
3205	0	32920	32798	
3206	0	32782	32928	
3207	0	32748	33174	
3208	0	32828	33127	
3209	0	32752	32951	
3210	0	32610	32871	
3211	0	32656	32615	
3212	0	32782	32596	
3213	0	32752	32610	
3214	0	32768	32545	
3215	0	32820	32708	
3216	0	32783	32775	
3217	0	32746	32638	
3218	0	32784	32660	
3219	0	32828	32558	
3220	0	32960	32686	
3221	0	32976	32664	
3222	0	33016	32722	
3223	0	32838	32752	
3224	0	32864	32676	
3225	0	32852	32800	
3226	0	32804	32864	
3227	0	32792	32934	
3228	0	32696	32910	
3229	0	32776	32775	
3230	0	32798	32838	
3231	0	32798	32724	
3232	0	32720	32798	
3233	0	32610	32792	
3234	0	32752	32652	
3235	0	32804	32702	
3236	0	32840	32647	
3237	0	32844	32686	
3238	0	32892	32730	
3239	0	32852	32932	
3240	0	32810	32828	
3241	0	32836	32644	
3242	0	32900	32647	
3243	0	32956	32750	
3244	0	32860	32775	
3245	0	32992	32806	
3246	0	32928	32726	
3247	0	32884	32834	
3248	0	32798	32794	
3249	0	32844	32711	
3250	0	32818	32844	
3251	0	32768	32790	
3252	0	32768	32775	
3253	0	32868	32775	
3254	0	32820	32686	
3255	0	32788	32815	
3256	0	32704	32766	
3257	0	32736	32706	
3258	0	32656	32826	
3259	0	32660	32718	
3260	0	32708	32720	
3261	0	32824	32748	
3262	0	32808	32654	
3263	0	32800	32902	
3264	0	32862	32850	
3265	0	32850	32710	
3266	0	32816	32826	
3267	0	32834	32762	
3268	0	32848	32732	
3269	0	32808	32760	
3270	0	32900	32832	
3271	0	32774	32846	
3272	0	32832	32744	
3273	0	32764	32639	
3274	0	32878	32760	
3275	0	32848	32733	
3276	0	32800	32750	
3277	0	32838	32775	
3278	0	32830	32790	
3279	0	32796	32846	
3280	0	32808	32794	
3281	0	32729	32772	
3282	0	32828	32724	
3283	0	32762	32830	
3284	0	32798	32788	
3285	0	32824	32870	
3286	0	32818	32822	
3287	0	32788	32756	
3288	0	32824	32750	
3289	0	32816	32772	
3290	0	32854	32818	
3291	0	32864	32775	
3292	0	32860	32775	
3293	0	32826	32775	
3294	0	32852	32668	
3295	0	32832	32690	
3296	0	32884	32678	
3297	0	32756	32794	
3298	0	32718	32732	
3299	0	32828	32570	
3300	0	32724	32718	
3301	0	32726	32700	
3302	0	32784	32792	
3303	0	32820	32816	
3304	0	32896	32888	
3305	0	32774	32872	
3306	0	32812	32758	
3307	0	32710	32691	
3308	0	32721	32748	
3309	0	32888	32770	
3310	0	33028	32799	
3311	0	32928	32767	
3312	0	32768	32864	
3313	0	32752	32818	
3314	0	32792	32708	
3315	0	32776	32796	
3316	0	32876	32704	
3317	0	32832	32808	
3318	0	32788	32826	
3319	0	32844	32798	
3320	0	32868	32758	
3321	0	32848	32820	
3322	0	32824	32668	
3323	0	32825	32775	
3324	0	32798	32862	
3325	0	32760	32686	
3326	0	32826	32726	
3327	0	32840	32682	
3328	0	32884	32748	
3329	0	32836	32826	
3330	0	32764	32830	
3331	0	32826	32842	
3332	0	32840	32775	
3333	0	32788	32823	
3334	0	32808	32815	
3335	0	32824	32920	
3336	0	32854	32896	
3337	0	32824	32775	
3338	0	32844	32719	
3339	0	32854	32715	
3340	0	32840	32812	
3341	0	32770	32746	
3342	0	32800	32804	
3343	0	32736	32808	
3344	0	32822	32714	
3345	0	32808	32738	
3346	0	32784	32721	
3347	0	32816	32742	
3348	0	32804	32663	
3349	0	32864	32792	
3350	0	32834	32772	
3351	0	32784	32826	
3352	0	32856	32816	
3353	0	32824	32742	
3354	0	32780	32870	
3355	0	32841	32711	
3356	0	32794	32847	
3357	0	32778	32716	
3358	0	32762	32843	
3359	0	32824	32742	
3360	0	32884	32788	
3361	0	32864	32700	
3362	0	32780	32810	
3363	0	32772	32703	
3364	0	32864	32854	
3365	0	32836	32736	
3366	0	32816	32746	
3367	0	32820	32791	
3368	0	32812	32734	
3369	0	32748	32762	
3370	0	32728	32844	
3371	0	32764	32718	
3372	0	32868	32751	
3373	0	32804	32714	
3374	0	32888	32910	
3375	0	32836	32878	
3376	0	32844	32718	
3377	0	32922	32762	
3378	0	32810	32770	
3379	0	32860	32722	
3380	0	32796	32818	
3381	0	32708	32728	
3382	0	32652	32775	
3383	0	32668	32868	
3384	0	32638	32615	
3385	0	32740	32686	
3386	0	32908	32592	
3387	0	32852	32674	
3388	0	32814	32624	
3389	0	32814	32855	
3390	0	32868	32810	
3391	0	32892	32763	
3392	0	32932	32738	
3393	0	32924	32711	
3394	0	32936	32775	
3395	0	32860	32840	
3396	0	32822	32742	
3397	0	32802	32823	
3398	0	32730	32938	
3399	0	32686	33048	
3400	0	32726	32871	
3401	0	32680	32590	
3402	0	32748	32632	
3403	0	32736	32676	
3404	0	32744	32606	
3405	0	32804	32724	
3406	0	32884	32582	
3407	0	32848	32791	
3408	0	32832	32666	
3409	0	32832	32720	
3410	0	32874	32752	
3411	0	32842	32784	
3412	0	32824	32816	
3413	0	32740	32839	
3414	0	32730	32902	
3415	0	32744	32884	
3416	0	32792	32706	
3417	0	32832	32782	
3418	0	32840	32804	
3419	0	32816	32806	
3420	0	32898	32794	
3421	0	32856	32710	
3422	0	32896	32740	
3423	0	32860	32756	
3424	0	32848	32810	
3425	0	32844	32775	
3426	0	32780	32706	
3427	0	32792	32775	
3428	0	32800	32828	
3429	0	32824	32698	
3430	0	32824	32714	
3431	0	32852	32761	
3432	0	32746	32814	
3433	0	32812	32764	
3434	0	32864	32698	
3435	0	32852	32873	
3436	0	32848	32830	
3437	0	32801	32708	
3438	0	32876	32810	
3439	0	32852	32714	
3440	0	32734	32798	
3441	0	32724	32826	
3442	0	32796	32758	
3443	0	32744	32816	
3444	0	32792	32876	
3445	0	32864	32852	
3446	0	32808	32822	
3447	0	32800	32722	
3448	0	32836	32743	
3449	0	32804	32784	
3450	0	32748	32722	
3451	0	32720	32697	
3452	0	32808	32736	
3453	0	32848	32805	
3454	0	32894	32794	
3455	0	32804	32658	
3456	0	32890	32712	
3457	0	32888	32743	
3458	0	32932	32775	
3459	0	32808	32775	
3460	0	32760	32794	
3461	0	32808	32768	
3462	0	32816	32676	
3463	0	32746	32860	
3464	0	32772	32767	
3465	0	32804	32848	
3466	0	32770	32742	
3467	0	32772	32686	
3468	0	32756	32804	
3469	0	32808	32692	
3470	0	32770	32775	
3471	0	32851	32790	
3472	0	32818	32716	
3473	0	32796	32788	
3474	0	32808	32808	
3475	0	32872	32833	
3476	0	32800	32820	
3477	0	32776	32790	
3478	0	32740	32719	
3479	0	32774	32674	
3480	0	32856	32690	
3481	0	32800	32826	
3482	0	32878	32754	
3483	0	32825	32638	
3484	0	32750	32711	
3485	0	32736	32775	
3486	0	32836	32742	
3487	0	32864	32764	
3488	0	32818	32750	
3489	0	32764	32742	
3490	0	32754	32788	
3491	0	32804	32670	
3492	0	32840	32748	
3493	0	32804	32762	
3494	0	32764	32750	
3495	0	32804	32868	
3496	0	32806	32862	
3497	0	32840	32896	
3498	0	32800	32795	
3499	0	32822	32920	
3500	0	32906	32772	
3501	0	32812	32638	
3502	0	32844	32662	
3503	0	32784	32508	
3504	0	32852	32800	
3505	0	32784	32678	
3506	0	32738	32712	
3507	0	32800	32839	
3508	0	32736	32775	
3509	0	32864	32775	
3510	0	32834	32786	
3511	0	32800	32753	
3512	0	32764	32772	
3513	0	32852	32692	
3514	0	32961	32796	
3515	0	32934	32775	
3516	0	32740	32750	
3517	0	32862	32602	
3518	0	32812	32790	
3519	0	32792	32848	
3520	0	32872	32736	
3521	0	32848	32790	
3522	0	32806	32752	
3523	0	32784	32728	
3524	0	32804	32824	
3525	0	32864	32676	
3526	0	32824	32838	
3527	0	32850	32884	
3528	0	32842	32724	
3529	0	32896	32785	
3530	0	32832	32798	
3531	0	32752	32660	
3532	0	32816	32768	
3533	0	32824	32770	
3534	0	32788	32852	
3535	0	32806	32832	
3536	0	32912	32692	
3537	0	32896	32774	
3538	0	32836	32752	
3539	0	32834	32810	
3540	0	32840	32792	
3541	0	32772	32772	
3542	0	32844	32806	
3543	0	32832	32672	
3544	0	32764	32806	
3545	0	32868	32830	
3546	0	32796	32760	
3547	0	32706	32816	
3548	0	32740	32718	
3549	0	32860	32815	
3550	0	32912	32744	
3551	0	32824	32683	
3552	0	32820	32718	
3553	0	32887	32774	
3554	0	32828	32682	
3555	0	32828	32774	
3556	0	32804	32832	
3557	0	32860	32715	
3558	0	32856	32884	
3559	0	32764	32884	
3560	0	32725	32760	
3561	0	32782	32743	
3562	0	32754	32730	
3563	0	32772	32812	
3564	0	32770	32686	
3565	0	32832	32770	
3566	0	32848	32746	
3567	0	32852	32648	
3568	0	32844	32670	
3569	0	32822	32640	
3570	0	32792	32788	
3571	0	32868	32711	
3572	0	32836	32714	
3573	0	32864	32812	
3574	0	32792	32708	
3575	0	32788	32812	
3576	0	32858	32884	
3577	0	32888	32892	
3578	0	32796	32928	
3579	0	32820	32876	
3580	0	32817	32707	
3581	0	32808	32866	
3582	0	32776	32722	
3583	0	32676	32938	
3584	0	32740	32844	
3585	0	32714	32762	
3586	0	32820	32807	
3587	0	32802	32766	
3588	0	32812	32820	
3589	0	32812	32708	
3590	0	32792	32692	
3591	0	32848	32612	
3592	0	32864	32620	
3593	0	32802	32700	
3594	0	32752	32718	
3595	0	32930	32758	
3596	0	32866	32806	
3597	0	32784	32678	
3598	0	32892	32770	
3599	0	32824	32926	
3600	0	32800	32860	
3601	0	32798	32836	
3602	0	32800	32678	
3603	0	32800	32644	
3604	0	32864	32590	
3605	0	32794	32700	
3606	0	32864	32742	
3607	0	32880	32916	
3608	0	32824	32742	
3609	0	32774	32820	
3610	0	32852	32750	
3611	0	32770	32646	
3612	0	32798	32688	
3613	0	32772	32775	
3614	0	32834	32775	
3615	0	32860	32832	
3616	0	32878	32820	
3617	0	32792	32826	
3618	0	32804	32742	
3619	0	32760	32814	
3620	0	32838	32744	
3621	0	32820	32736	
3622	0	32784	32682	
3623	0	32782	32658	
3624	0	32834	32808	
3625	0	32860	32759	
3626	0	32824	32780	
3627	0	32848	32714	
3628	0	32832	32808	
3629	0	32860	32763	
3630	0	32784	32772	
3631	0	32780	32752	
3632	0	32838	32799	
3633	0	32798	32704	
3634	0	32770	32820	
3635	0	32816	32849	
3636	0	32816	32769	
3637	0	32858	32775	
3638	0	32910	32759	
3639	0	32752	32742	
3640	0	32820	32804	
3641	0	32824	32684	
3642	0	32744	32738	
3643	0	32856	32775	
3644	0	32756	32824	
3645	0	32852	32865	
3646	0	32776	32680	
3647	0	32778	32724	
3648	0	32864	32792	
3649	0	32798	32708	
3650	0	32800	32764	
3651	0	32856	32826	
3652	0	32856	32797	
3653	0	32812	32734	
3654	0	32806	32791	
3655	0	32844	32706	
3656	0	32782	32774	
3657	0	32744	32743	
3658	0	32820	32818	
3659	0	32816	32732	
3660	0	32844	32680	
3661	0	32784	32886	
3662	0	32736	32800	
3663	0	32868	32668	
3664	0	32784	32762	
3665	0	32824	32800	
3666	0	32832	32672	
3667	0	32820	32798	
3668	0	32788	32772	
3669	0	32800	32772	
3670	0	32770	32755	
3671	0	32812	32752	
3672	0	32762	32742	
3673	0	32820	32824	
3674	0	32872	32769	
3675	0	32822	32775	
3676	0	32802	32723	
3677	0	32768	32836	
3678	0	32816	32834	
3679	0	32820	32644	
3680	0	32870	32820	
3681	0	32816	32774	
3682	0	32842	32892	
3683	0	32796	32742	
3684	0	32810	32743	
3685	0	32830	32631	
3686	0	32825	32772	
3687	0	32776	32737	
3688	0	32820	32846	
3689	0	32822	32825	
3690	0	32842	32630	
3691	0	32798	32792	
3692	0	32764	32798	
3693	0	32808	32704	
3694	0	32808	32686	
3695	0	32808	32686	
3696	0	32822	32726	
3697	0	32816	32838	
3698	0	32806	32832	
3699	0	32808	32802	
3700	0	32848	32682	
3701	0	32858	32768	
3702	0	32808	32846	
3703	0	32816	32804	
3704	0	32832	32846	
3705	0	32804	32820	
3706	0	32884	32736	
3707	0	32808	32810	
3708	0	32814	32766	
3709	0	32852	32856	
3710	0	32836	32775	
3711	0	32802	32810	
3712	0	32840	32750	
3713	0	32780	32766	
3714	0	32816	32815	
3715	0	32824	32718	
3716	0	32818	32775	
3717	0	32748	32760	
3718	0	32740	32696	
3719	0	32832	32807	
3720	0	32804	32644	
3721	0	32816	32738	
3722	0	32764	32720	
3723	0	32724	32652	
3724	0	32834	32775	
3725	0	32744	32770	
3726	0	32782	32678	
3727	0	32800	32720	
3728	0	32792	32721	
3729	0	32768	32642	
3730	0	32780	32714	
3731	0	32778	32688	
3732	0	32736	32734	
3733	0	32750	32772	
3734	0	32732	32602	
3735	0	32770	32754	
3736	0	32760	32775	
3737	0	32746	32700	
3738	0	32810	32842	
3739	0	32816	32720	
3740	0	32844	32858	
3741	0	32800	32848	
3742	0	32866	32824	
3743	0	32842	32838	
3744	0	32878	32828	
3745	0	32808	33002	
3746	0	32906	33018	
3747	0	32929	32750	
3748	0	33040	32934	
3749	0	33040	32942	
3750	0	32984	32955	
3751	0	32910	32953	
3752	0	32888	32880	
3753	0	32920	32775	
3754	0	32828	32852	
3755	0	32822	32816	
3756	0	32900	32903	
3757	0	32860	32806	
3758	0	32824	32946	
3759	0	32802	32886	
3760	0	32816	32734	
3761	0	32740	32775	
3762	0	32784	32764	
3763	0	32736	32644	
3764	0	32716	32678	
3765	0	32768	32692	
3766	0	32768	32508	
3767	0	32788	32660	
3768	0	32748	32490	
3769	0	32816	32646	
3770	0	32756	32624	
3771	0	32728	32519	
3772	0	32742	32642	
3773	0	32840	32756	
3774	0	32758	32812	
3775	0	32776	32904	
3776	0	32760	32714	
3777	0	32796	32864	
3778	0	32808	32808	
3779	0	32788	32881	
3780	0	32766	32963	
3781	0	32868	32968	
3782	0	32854	32852	
3783	0	32822	32563	
3784	0	32788	32524	
3785	0	32868	32532	
3786	0	32796	32654	
3787	0	32788	32638	
3788	0	32752	32766	
3789	0	32798	32682	
3790	0	32796	32754	
3791	0	32770	32830	
3792	0	32888	32816	
3793	0	32776	32964	
3794	0	32780	32984	
3795	0	32800	32934	
3796	0	32804	32915	
3797	0	32792	32773	
3798	0	32798	32743	
3799	0	32778	32870	
3800	0	32780	32637	
3801	0	32836	32736	
3802	0	32832	32792	
3803	0	32818	32896	
3804	0	32820	32774	
3805	0	32802	32838	
3806	0	32852	32926	
3807	0	32858	32942	
3808	0	32808	32831	
3809	0	32932	32818	
3810	0	32798	32828	
3811	0	32816	32636	
3812	0	32864	32694	
3813	0	32828	32696	
3814	0	32790	32690	
3815	0	32752	32756	
3816	0	32740	32612	
3817	0	32832	32735	
3818	0	32812	32710	
3819	0	32786	32772	
3820	0	32770	32746	
3821	0	32744	32784	
3822	0	32932	32800	
3823	0	32728	32674	
3824	0	32834	32630	
3825	0	32784	32772	
3826	0	32798	32820	
3827	0	32740	32792	
3828	0	32808	32666	
3829	0	32800	32830	
3830	0	32836	32914	
3831	0	32852	32824	
3832	0	32816	32738	
3833	0	32828	32624	
3834	0	32808	32654	
3835	0	32820	32740	
3836	0	32802	32670	
3837	0	32816	32820	
3838	0	32834	32804	
3839	0	32788	32926	
3840	0	32820	32774	
3841	0	32800	32710	
3842	0	32760	32828	
3843	0	32816	32692	
3844	0	32840	32788	
3845	0	32840	32964	
3846	0	32818	32892	
3847	0	32816	32775	
3848	0	32850	32748	
3849	0	32824	32740	
3850	0	32804	32743	
3851	0	32768	32768	
3852	0	32804	32839	
3853	0	32828	32799	
3854	0	32862	32695	
3855	0	32772	32825	
3856	0	32808	32728	
3857	0	32860	32822	
3858	0	32804	32720	
3859	0	32818	32683	
3860	0	32804	32696	
3861	0	32820	32814	
3862	0	32844	32856	
3863	0	32784	32775	
3864	0	32816	32763	
3865	0	32844	32722	
3866	0	32778	32834	
3867	0	32762	32696	
3868	0	32808	32619	
3869	0	32774	32720	
3870	0	32838	32647	
3871	0	32758	32775	
3872	0	32780	32828	
3873	0	32768	32856	
3874	0	32868	32866	
3875	0	32864	32740	
3876	0	32800	32806	
3877	0	32788	32792	
3878	0	32760	32764	
3879	0	32852	32746	
3880	0	32880	32744	
3881	0	32832	32782	
3882	0	32832	32728	
3883	0	32758	32722	
3884	0	32740	32716	
3885	0	32798	32672	
3886	0	32798	32870	
3887	0	32764	32826	
3888	0	32814	32775	
3889	0	32806	32752	
3890	0	32812	32790	
3891	0	32804	32666	
3892	0	32814	32868	
3893	0	32764	32850	
3894	0	32784	32775	
3895	0	32776	32718	
3896	0	32848	32674	
3897	0	32824	32917	
3898	0	32890	32895	
3899	0	32804	32695	
3900	0	32852	32770	
3901	0	32790	32790	
3902	0	32826	32872	
3903	0	32834	32738	
3904	0	32864	32656	
3905	0	32850	32860	
3906	0	32816	32822	
3907	0	32748	32874	
3908	0	32832	32830	
3909	0	32826	32688	
3910	0	32842	32772	
3911	0	32798	32756	
3912	0	32782	32822	
3913	0	32808	32716	
3914	0	32864	32618	
3915	0	32756	32748	
3916	0	32840	32802	
3917	0	32836	32750	
3918	0	32860	32807	
3919	0	32764	32514	
3920	0	32816	32786	
3921	0	32812	32812	
3922	0	32888	32692	
3923	0	32780	32729	
3924	0	32763	32766	
3925	0	32796	32708	
3926	0	32740	32821	
3927	0	32764	32754	
3928	0	32810	32768	
3929	0	32756	32806	
3930	0	32880	32806	
3931	0	32872	32743	
3932	0	32906	32844	
3933	0	32896	32758	
3934	0	32810	32698	
3935	0	32804	32774	
3936	0	32878	32636	
3937	0	32824	32768	
3938	0	32810	32758	
3939	0	32864	32800	
3940	0	32808	32772	
3941	0	32858	32738	
3942	0	32760	32630	
3943	0	32800	32740	
3944	0	32772	32774	
3945	0	32844	32792	
3946	0	32744	32806	
3947	0	32824	32742	
3948	0	32804	32630	
3949	0	32812	32764	
3950	0	32800	32890	
3951	0	32814	32730	
3952	0	32824	32854	
3953	0	32824	32818	
3954	0	32800	32762	
3955	0	32782	32716	
3956	0	32826	32708	
3957	0	32780	32679	
3958	0	32824	32828	
3959	0	32852	32828	
3960	0	32788	32727	
3961	0	32800	32796	
3962	0	32760	32688	
3963	0	32820	32798	
3964	0	32860	32634	
3965	0	32868	32726	
3966	0	32844	32644	
3967	0	32854	32712	
3968	0	32830	32696	
3969	0	32784	32756	
3970	0	32824	32740	
3971	0	32764	32775	
3972	0	32856	32742	
3973	0	32832	32736	
3974	0	32852	32840	
3975	0	32798	32770	
3976	0	32808	32884	
3977	0	32824	32986	
3978	0	32868	32938	
3979	0	32864	32983	
3980	0	32832	32852	
3981	0	32776	32865	
3982	0	32808	32764	
3983	0	32804	32790	
3984	0	32815	32764	
3985	0	32780	32700	
3986	0	32864	32671	
3987	0	32866	32661	
3988	0	32772	32686	
3989	0	32824	32678	
3990	0	32880	32686	
3991	0	32740	32702	
3992	0	32828	32660	
3993	0	32832	32598	
3994	0	32816	32519	
3995	0	32796	32702	
3996	0	32830	32684	
3997	0	32824	32775	
3998	0	32816	32838	
3999	0	32808	32839	
4000	0	32844	32944	
4001	0	32812	32962	
4002	0	32774	32903	
4003	0	32818	32892	
4004	0	32804	32850	
4005	0	32822	32810	
4006	0	32792	32807	
4007	0	32824	32807	
4008	0	32856	32753	
4009	0	32832	32746	
4010	0	32810	32721	
4011	0	32820	32684	
4012	0	32858	32647	
4013	0	32817	32798	
4014	0	32816	32684	
4015	0	32752	32810	
4016	0	32812	32742	
4017	0	32788	32723	
4018	0	32840	32854	
4019	0	32772	32774	
4020	0	32804	32838	
4021	0	32812	32827	
4022	0	32834	32676	
4023	0	32808	32814	
4024	0	32802	32842	
4025	0	32724	32852	
4026	0	32848	32698	
4027	0	32780	32646	
4028	0	32792	32620	
4029	0	32808	32638	
4030	0	32832	32694	
4031	0	32772	32766	
4032	0	32840	32792	
4033	0	32820	32910	
4034	0	32818	32668	
4035	0	32844	32839	
4036	0	32790	32730	
4037	0	32776	32791	
4038	0	32790	32742	
4039	0	32820	32752	
4040	0	32826	32775	
4041	0	32840	32692	
4042	0	32800	32668	
4043	0	32772	32774	
4044	0	32836	32770	
4045	0	32806	32734	
4046	0	32788	32807	
4047	0	32812	32804	
4048	0	32764	32671	
4049	0	32820	32793	
4050	0	32820	32823	
4051	0	32850	32775	
4052	0	32832	32756	
4053	0	32776	32871	
4054	0	32768	32622	
4055	0	32808	32711	
4056	0	32798	32758	
4057	0	32848	32775	
4058	0	32848	32740	
4059	0	32840	32831	
4060	0	32844	32964	
4061	0	32772	32846	
4062	0	32814	32678	
4063	0	32752	32726	
4064	0	32774	32736	
4065	0	32808	32874	
4066	0	32864	32868	
4067	0	32810	32880	
4068	0	32752	32844	
4069	0	32764	32772	
4070	0	32780	32862	
4071	0	32790	32838	
4072	0	32832	32842	
4073	0	32792	32916	
4074	0	32744	32894	
4075	0	32786	32764	
4076	0	32712	32628	
4077	0	32832	32724	
4078	0	32808	32775	
4079	0	32796	32700	
4080	0	32808	32758	
4081	0	32816	32742	
4082	0	32914	32568	
4083	0	32790	32775	
4084	0	32876	32711	
4085	0	32804	32662	
4086	0	32870	32764	
4087	0	32793	32650	
4088	0	32800	32775	
4089	0	32816	32588	
4090	0	32796	32604	
4091	0	32848	32767	
4092	0	32810	32743	
4093	0	32848	32920	
4094	0	32762	32918	
4095	0	32760	32886	
4096	0	32810	32868	
4097	0	32810	32702	
4098	0	32774	32715	
4099	0	32828	32638	
4100	0	32824	32684	
4101	0	32806	32734	
4102	0	32788	32775	
4103	0	32808	32789	
4104	0	32816	32751	
4105	0	32825	32863	
4106	0	32832	32774	
4107	0	32844	32772	
4108	0	32816	32874	
4109	0	32836	32839	
4110	0	32820	32715	
4111	0	32846	32770	
4112	0	32756	32660	
4113	0	32826	32844	
4114	0	32870	32870	
4115	0	32864	32847	
4116	0	32822	32898	
4117	0	32892	32722	
4118	0	32794	32438	
4119	0	32768	32710	
4120	0	32828	32587	
4121	0	32812	32644	
4122	0	32850	32655	
4123	0	32896	32734	
4124	0	32816	32752	
4125	0	32788	32824	
4126	0	32804	32971	
4127	0	32756	32903	
4128	0	32786	32830	
4129	0	32800	32862	
4130	0	32826	32812	
4131	0	32748	32742	
4132	0	32836	32756	
4133	0	32868	32734	
4134	0	32804	32764	
4135	0	32808	32834	
4136	0	32830	32852	
4137	0	32852	32792	
4138	0	32830	32632	
4139	0	32820	32775	
4140	0	32808	32812	
4141	0	32772	32702	
4142	0	32852	32682	
4143	0	32882	32706	
4144	0	32826	32766	
4145	0	32866	32798	
4146	0	32824	32756	
4147	0	32890	32820	
4148	0	32792	32864	
4149	0	32788	32614	
4150	0	32808	32742	
4151	0	32792	32711	
4152	0	32804	32728	
4153	0	32826	32737	
4154	0	32812	32702	
4155	0	32760	32847	
4156	0	32768	32844	
4157	0	32828	32590	
4158	0	32836	32679	
4159	0	32798	32574	
4160	0	32752	32282	
4161	0	32782	32175	
4162	0	32788	32354	
4163	0	32782	32711	
4164	0	32750	32946	
4165	0	32820	33090	
4166	0	32798	33246	
4167	0	32836	33332	
4168	0	32828	33158	
4169	0	32890	33123	
4170	0	32810	33188	
4171	0	32860	33226	
4172	0	32796	33127	
4173	0	32796	32954	
4174	0	32762	32794	
4175	0	32814	32550	
4176	0	32752	32336	
4177	0	32864	32299	
4178	0	32820	32610	
4179	0	32834	32530	
4180	0	32872	32468	
4181	0	32820	32592	
4182	0	32814	32512	
4183	0	32800	32743	
4184	0	32848	32446	
4185	0	32802	32226	
4186	0	32810	32423	
4187	0	32800	32480	
4188	0	32810	32655	
4189	0	32904	32869	
4190	0	32702	33239	
4191	0	32800	33654	
4192	0	32934	33568	
4193	0	32776	33254	
4194	0	32918	33130	
4195	0	32868	33284	
4196	0	32844	32982	
4197	0	32796	32894	
4198	0	32774	32760	
4199	0	32786	32526	
4200	0	32774	32283	
4201	0	32789	32380	
4202	0	32864	32390	
4203	0	32804	32343	
4204	0	32864	32551	
4205	0	32812	32598	
4206	0	32810	32762	
4207	0	32800	32766	
4208	0	32864	32928	
4209	0	32792	32984	
4210	0	32876	32760	
4211	0	32774	32624	
4212	0	32800	32631	
4213	0	32680	32679	
4214	0	32804	32812	
4215	0	32814	32843	
4216	0	32794	32903	
4217	0	32836	32974	
4218	0	32808	32964	
4219	0	32804	32718	
4220	0	32800	32620	
4221	0	32812	32608	
4222	0	32816	32644	
4223	0	32881	32508	
4224	0	32884	32686	
4225	0	32862	32746	
4226	0	32848	32756	
4227	0	32812	32583	
4228	0	32812	32647	
4229	0	32872	32557	
4230	0	32844	32679	
4231	0	32812	32908	
4232	0	32832	32762	
4233	0	32746	32673	
4234	0	32764	32775	
4235	0	32804	32871	
4236	0	32824	32719	
4237	0	32832	32872	
4238	0	32802	32772	
4239	0	32814	32874	
4240	0	32782	32852	
4241	0	32804	32910	
4242	0	32832	32990	
4243	0	32786	32784	
4244	0	32768	32750	
4245	0	32826	32710	
4246	0	32770	32775	
4247	0	32768	32620	
4248	0	32784	32702	
4249	0	32780	32700	
4250	0	32760	32710	
4251	0	32696	32682	
4252	0	32774	32796	
4253	0	32804	32767	
4254	0	32808	32844	
4255	0	32804	32710	
4256	0	32812	32894	
4257	0	32849	32942	
4258	0	32844	32936	
4259	0	32880	32490	
4260	0	32920	32437	
4261	0	32852	32490	
4262	0	32812	32662	
4263	0	32852	32646	
4264	0	32744	32443	
4265	0	32660	32258	
4266	0	32704	32306	
4267	0	32794	32578	
4268	0	32804	32590	
4269	0	32879	32940	
4270	0	32748	33226	
4271	0	32744	33463	
4272	0	32860	33159	
4273	0	32800	32990	
4274	0	32804	32775	
4275	0	32817	32802	
4276	0	32864	33056	
4277	0	32848	32850	
4278	0	32840	32964	
4279	0	32824	33222	
4280	0	32872	33056	
4281	0	32808	32870	
4282	0	32790	32856	
4283	0	32800	33062	
4284	0	32864	32890	
4285	0	32814	32784	
4286	0	32774	32856	
4287	0	32756	32578	
4288	0	32852	32548	
4289	0	32890	32324	
4290	0	32924	32207	
4291	0	32760	32151	
4292	0	32832	32119	
4293	0	32886	32360	
4294	0	32855	32180	
4295	0	32816	31916	
4296	0	32804	32354	
4297	0	32818	32890	
4298	0	32790	33178	
4299	0	32764	33476	
4300	0	32779	33658	
4301	0	32714	33478	
4302	0	32654	33468	
4303	0	32700	33438	
4304	0	32736	33324	
4305	0	32712	33114	
4306	0	32812	33020	
4307	0	32870	32830	
4308	0	32876	32831	
4309	0	32828	32760	
4310	0	32872	32700	
4311	0	32836	32636	
4312	0	32856	32391	
4313	0	32902	32378	
4314	0	32948	32352	
4315	0	32897	32624	
4316	0	32886	32836	
4317	0	32904	32824	
4318	0	32874	32603	
4319	0	32892	32570	
4320	0	32800	32743	
4321	0	32874	32728	
4322	0	32860	32618	
4323	0	32868	32665	
4324	0	32900	32637	
4325	0	32704	32620	
4326	0	32810	32702	
4327	0	32730	32798	
4328	0	32740	32830	
4329	0	32710	32672	
4330	0	32780	32710	
4331	0	32740	32742	
4332	0	32716	32749	
4333	0	32728	32807	
4334	0	32680	32670	
4335	0	32898	32807	
4336	0	32914	32702	
4337	0	32806	32807	
4338	0	32724	32751	
4339	0	32836	32814	
4340	0	32884	32752	
4341	0	32976	32775	
4342	0	32888	32764	
4343	0	32804	32812	
4344	0	32836	32814	
4345	0	32708	32775	
4346	0	32712	32836	
4347	0	32860	32959	
4348	0	32810	32868	
4349	0	32837	32760	
4350	0	32844	32847	
4351	0	32868	32644	
4352	0	32878	32780	
4353	0	32888	32756	
4354	0	32808	32828	
4355	0	32896	32735	
4356	0	32775	32762	
4357	0	32804	32700	
4358	0	32782	32858	
4359	0	32778	32758	
4360	0	32688	32870	
4361	0	32804	32689	
4362	0	32852	32756	
4363	0	32828	32694	
4364	0	32716	32710	
4365	0	32748	32876	
4366	0	32800	32940	
4367	0	32738	32932	
4368	0	32744	32816	
4369	0	32760	32758	
4370	0	32888	32399	
4371	0	32791	32615	
4372	0	32852	32700	
4373	0	32832	33014	
4374	0	32804	32870	
4375	0	32759	32812	
4376	0	32732	32700	
4377	0	32832	32812	
4378	0	32784	32876	
4379	0	32804	32732	
4380	0	32832	32584	
4381	0	32792	32740	
4382	0	32846	32724	
4383	0	32892	32832	
4384	0	32876	32760	
4385	0	32868	32732	
4386	0	32808	32810	
4387	0	32800	32775	
4388	0	32800	32809	
4389	0	32808	32834	
4390	0	32816	32720	
4391	0	32752	32506	
4392	0	32802	32926	
4393	0	32792	33132	
4394	0	32816	32664	
4395	0	32844	32611	
4396	0	32824	32556	
4397	0	32810	32367	
4398	0	32854	32368	
4399	0	32860	32696	
4400	0	32770	32854	
4401	0	32764	32922	
4402	0	32866	33031	
4403	0	32840	32842	
4404	0	32820	33065	
4405	0	32830	32754	
4406	0	32792	32688	
4407	0	32888	33024	
4408	0	32800	33100	
4409	0	32816	33086	
4410	0	32758	33014	
4411	0	32816	32804	
4412	0	32850	32619	
4413	0	32812	32695	
4414	0	32768	32620	
4415	0	32848	32495	
4416	0	32800	32560	
4417	0	32826	32656	
4418	0	32820	32564	
4419	0	32708	32670	
4420	0	32898	32663	
4421	0	32836	32696	
4422	0	32820	32738	
4423	0	32810	32822	
4424	0	32758	32712	
4425	0	32840	32828	
4426	0	32836	32756	
4427	0	32858	32716	
4428	0	32904	32862	
4429	0	32816	32798	
4430	0	32784	32830	
4431	0	32910	32818	
4432	0	32816	32772	
4433	0	32712	32702	
4434	0	32830	32828	
4435	0	32802	32834	
4436	0	32944	32757	
4437	0	32806	32878	
4438	0	32774	32820	
4439	0	32768	32646	
4440	0	32856	32804	
4441	0	32856	32790	
4442	0	32864	32676	
4443	0	32840	32768	
4444	0	32796	32810	
4445	0	32910	32632	
4446	0	32788	32788	
4447	0	32760	32803	
4448	0	32772	32762	
4449	0	32772	32734	
4450	0	32775	32686	
4451	0	32772	32806	
4452	0	32784	32674	
4453	0	32864	32711	
4454	0	32808	32694	
4455	0	32748	32576	
4456	0	32724	32748	
4457	0	32816	32720	
4458	0	32800	32672	
4459	0	32732	32686	
4460	0	32684	32670	
4461	0	32694	32648	
4462	0	32778	32746	
4463	0	32688	32743	
4464	0	32724	32794	
4465	0	32818	32694	
4466	0	32952	32916	
4467	0	32833	32848	
4468	0	32884	32772	
4469	0	32853	32839	
4470	0	32874	32823	
4471	0	32846	32975	
4472	0	32884	32994	
4473	0	32920	32903	
4474	0	32888	32934	
4475	0	32880	33111	
4476	0	32958	33082	
4477	0	32940	33074	
4478	0	32876	33038	
4479	0	32888	33102	
4480	0	32856	32795	
4481	0	32908	32480	
4482	0	32834	32070	
4483	0	32812	32430	
4484	0	32924	32940	
4485	0	32888	32972	
4486	0	32840	33116	
4487	0	32782	32746	
4488	0	32804	32844	
4489	0	32764	32666	
4490	0	32748	32499	
4491	0	32776	32583	
4492	0	32832	32676	
4493	0	32768	32987	
4494	0	32720	32830	
4495	0	32780	32688	
4496	0	32752	32686	
4497	0	32820	32586	
4498	0	32748	32684	
4499	0	32822	32642	
4500	0	32808	32536	
4501	0	32692	32734	
4502	0	32790	32876	
4503	0	32748	32960	
4504	0	32732	33022	
4505	0	32770	32798	
4506	0	32746	32866	
4507	0	32742	32812	
4508	0	32742	32854	
4509	0	32788	32872	
4510	0	32772	32654	
4511	0	32772	32670	
4512	0	32766	32742	
4513	0	32894	32640	
4514	0	32878	32700	
4515	0	32872	32612	
4516	0	32864	32775	
4517	0	32928	32660	
4518	0	32796	32736	
4519	0	32840	32726	
4520	0	32856	32775	
4521	0	32818	32798	
4522	0	32904	32698	
4523	0	32794	32743	
4524	0	32778	32728	
4525	0	32750	32742	
4526	0	32780	32767	
4527	0	32796	32695	
4528	0	32784	32734	
4529	0	32840	32820	
4530	0	32830	32690	
4531	0	32820	32807	
4532	0	32824	32760	
4533	0	32826	32769	
4534	0	32824	32822	
4535	0	32788	32770	
4536	0	32860	32768	
4537	0	32804	32750	
4538	0	32793	32775	
4539	0	32820	32678	
4540	0	32814	32826	
4541	0	32844	32842	
4542	0	32896	32732	
4543	0	32826	32806	
4544	0	32784	32680	
4545	0	32820	32807	
4546	0	32772	32721	
4547	0	32794	32732	
4548	0	32840	32884	
4549	0	32816	32830	
4550	0	32770	32636	
4551	0	32828	32770	
4552	0	32808	32821	
4553	0	32782	32775	
4554	0	32808	32768	
4555	0	32788	32626	
4556	0	32798	32694	
4557	0	32836	32686	
4558	0	32812	32886	
4559	0	32828	32836	
4560	0	32836	32735	
4561	0	32896	32737	
4562	0	32850	32720	
4563	0	32764	32806	
4564	0	32810	32839	
4565	0	32792	32878	
4566	0	32792	32855	
4567	0	32874	32718	
4568	0	32784	32846	
4569	0	32780	32782	
4570	0	32790	32839	
4571	0	32880	32839	
4572	0	32740	32774	
4573	0	32820	32852	
4574	0	32812	32743	
4575	0	32793	32836	
4576	0	32844	32682	
4577	0	32898	32741	
4578	0	32784	32636	
4579	0	32844	32504	
4580	0	32838	32758	
4581	0	32812	32674	
4582	0	32824	32554	
4583	0	32742	32656	
4584	0	32820	32960	
4585	0	32824	33200	
4586	0	32872	33068	
4587	0	32826	33004	
4588	0	32788	32848	
4589	0	32760	32430	
4590	0	32788	32545	
4591	0	32798	32586	
4592	0	32884	32564	
4593	0	32740	32695	
4594	0	32772	32836	
4595	0	32708	33004	
4596	0	32760	32916	
4597	0	32836	32914	
4598	0	32826	32927	
4599	0	32784	32880	
4600	0	32816	32839	
4601	0	32818	32828	
4602	0	32804	32814	
4603	0	32804	32844	
4604	0	32804	32852	
4605	0	32752	32743	
4606	0	32670	32698	
4607	0	32770	32674	
4608	0	32932	32664	
4609	0	32938	32584	
4610	0	32778	32698	
4611	0	32744	32721	
4612	0	32764	32744	
4613	0	32988	32820	
4614	0	33164	32674	
4615	0	32936	32750	
4616	0	32804	32674	
4617	0	32784	32832	
4618	0	32688	32836	
4619	0	32784	32720	
4620	0	32856	32820	
4621	0	32760	32764	
4622	0	32714	32698	
4623	0	32821	32715	
4624	0	32868	32634	
4625	0	32748	32718	
4626	0	32820	32714	
4627	0	32800	32702	
4628	0	32718	32726	
4629	0	32800	32604	
4630	0	32816	32800	
4631	0	32782	32716	
4632	0	32844	32920	
4633	0	32792	32807	
4634	0	32796	32729	
4635	0	32860	32766	
4636	0	32812	32692	
4637	0	32840	32722	
4638	0	32816	32796	
4639	0	32760	32788	
4640	0	32822	32742	
4641	0	32834	32794	
4642	0	32844	32890	
4643	0	32872	32764	
4644	0	32816	32790	
4645	0	32816	32798	
4646	0	32832	32878	
4647	0	32808	33024	
4648	0	32798	32902	
4649	0	32896	32756	
4650	0	32756	32732	
4651	0	32808	32676	
4652	0	32820	32678	
4653	0	32764	32583	
4654	0	32764	32672	
4655	0	32862	32639	
4656	0	32774	32736	
4657	0	32760	32816	
4658	0	32856	32690	
4659	0	32802	32712	
4660	0	32842	32775	
4661	0	32776	32770	
4662	0	32832	32846	
4663	0	32762	32702	
4664	0	32798	32802	
4665	0	32775	32732	
4666	0	32832	32820	
4667	0	32816	32814	
4668	0	32772	32922	
4669	0	32826	32862	
4670	0	32826	32730	
4671	0	32824	32814	
4672	0	32810	32750	
4673	0	32852	32849	
4674	0	32872	32775	
4675	0	32820	32706	
4676	0	32801	32862	
4677	0	32800	32751	
4678	0	32836	32804	
4679	0	32764	32774	
4680	0	32864	32700	
4681	0	32832	32788	
4682	0	32756	32754	
4683	0	32804	32730	
4684	0	32740	32734	
4685	0	32840	32716	
4686	0	32772	32825	
4687	0	32792	32792	
4688	0	32830	32724	
4689	0	32844	32807	
4690	0	32796	32756	
4691	0	32744	32746	
4692	0	32800	32756	
4693	0	32812	32862	
4694	0	32804	32834	
4695	0	32762	32832	
4696	0	32848	32775	
4697	0	32788	32698	
4698	0	32884	32770	
4699	0	32804	32762	
4700	0	32808	32815	
4701	0	32820	32760	
4702	0	32864	32604	
4703	0	32808	32622	
4704	0	32838	32823	
4705	0	32766	32800	
4706	0	32808	32793	
4707	0	32804	32620	
4708	0	32850	32838	
4709	0	32792	32762	
4710	0	32772	32842	
4711	0	32856	32830	
4712	0	32776	32720	
4713	0	32884	32764	
4714	0	32840	32740	
4715	0	32844	32775	
4716	0	32764	32844	
4717	0	32912	32775	
4718	0	32824	32752	
4719	0	32836	32736	
4720	0	32864	32800	
4721	0	32764	32750	
4722	0	32800	32892	
4723	0	32732	32862	
4724	0	32774	32658	
4725	0	32822	32866	
4726	0	32826	32954	
4727	0	32844	32882	
4728	0	32728	32816	
4729	0	32853	32628	
4730	0	32802	32682	
4731	0	32786	32656	
4732	0	32774	32775	
4733	0	32784	32804	
4734	0	32764	32872	
4735	0	32792	32775	
4736	0	32780	32775	
4737	0	32784	32806	
4738	0	32844	32682	
4739	0	32878	32764	
4740	0	32964	32711	
4741	0	32832	32744	
4742	0	32812	32775	
4743	0	32780	32756	
4744	0	32860	32732	
4745	0	32832	32801	
4746	0	32804	32834	
4747	0	32792	32702	
4748	0	32780	32705	
4749	0	32816	32671	
4750	0	32780	32858	
4751	0	32842	32775	
4752	0	32820	32863	
4753	0	32824	32826	
4754	0	32802	32698	
4755	0	32780	32756	
4756	0	32848	32758	
4757	0	32788	32806	
4758	0	32824	32775	
4759	0	32836	32852	
4760	0	32792	32870	
4761	0	32852	32770	
4762	0	32864	32842	
4763	0	32844	32836	
4764	0	32786	32959	
4765	0	32768	32838	
4766	0	32844	32548	
4767	0	32826	32628	
4768	0	32800	32687	
4769	0	32850	32679	
4770	0	32840	32814	
4771	0	32790	32830	
4772	0	32794	32754	
4773	0	32800	32694	
4774	0	32774	32774	
4775	0	32740	32678	
4776	0	32776	32799	
4777	0	32782	32828	
4778	0	32808	32775	
4779	0	32800	32860	
4780	0	32840	32774	
4781	0	32756	32770	
4782	0	32800	32716	
4783	0	32820	32756	
4784	0	32808	32737	
4785	0	32808	32832	
4786	0	32804	32794	
4787	0	32840	32625	
4788	0	32802	32838	
4789	0	32878	32818	
4790	0	32872	32830	
4791	0	32846	32758	
4792	0	32816	32884	
4793	0	32844	32830	
4794	0	32888	33018	
4795	0	32712	32823	
4796	0	32876	32750	
4797	0	32856	32660	
4798	0	32820	32748	
4799	0	32878	32798	
4800	0	32852	32756	
4801	0	32760	32749	
4802	0	32744	32660	
4803	0	32808	32766	
4804	0	32800	32666	
4805	0	32828	32738	
4806	0	32820	32746	
4807	0	32800	32847	
4808	0	32832	32818	
4809	0	32820	32775	
4810	0	32888	32766	
4811	0	32780	32692	
4812	0	32802	32727	
4813	0	32772	32640	
4814	0	32794	32606	
4815	0	32884	32630	
4816	0	32804	32620	
4817	0	32848	32814	
4818	0	32820	32775	
4819	0	32834	32758	
4820	0	32818	32736	
4821	0	32840	32700	
4822	0	32820	32744	
4823	0	32828	32839	
4824	0	32798	32848	
4825	0	32832	32820	
4826	0	32754	32718	
4827	0	32612	32867	
4828	0	32740	32694	
4829	0	32846	32768	
4830	0	33044	32792	
4831	0	32924	32834	
4832	0	32868	32706	
4833	0	32844	32876	
4834	0	32792	32673	
4835	0	32830	32758	
4836	0	32800	32733	
4837	0	32800	32820	
4838	0	32774	32758	
4839	0	32796	32834	
4840	0	32768	32852	
4841	0	32784	32712	
4842	0	32848	32772	
4843	0	32840	32724	
4844	0	32842	32770	
4845	0	32876	32828	
4846	0	32804	32775	
4847	0	32790	32742	
4848	0	32792	32687	
4849	0	32798	32806	
4850	0	32868	32775	
4851	0	32852	32772	
4852	0	32784	32706	
4853	0	32736	32828	
4854	0	32812	32752	
4855	0	32776	32884	
4856	0	32796	32775	
4857	0	32810	32734	
4858	0	32818	32820	
4859	0	32836	32846	
4860	0	32831	32839	
4861	0	32808	32714	
4862	0	32820	32758	
4863	0	32846	32774	
4864	0	32784	32820	
4865	0	32836	32866	
4866	0	32804	33010	
4867	0	32842	32784	
4868	0	32798	32624	
4869	0	32786	32588	
4870	0	32769	32664	
4871	0	32794	32762	
4872	0	32832	32812	
4873	0	32816	32810	
4874	0	32792	32838	
4875	0	32792	32824	
4876	0	32810	32824	
4877	0	32864	32696	
4878	0	32862	32784	
4879	0	32768	32692	
4880	0	32860	32748	
4881	0	32820	32836	
4882	0	32792	32840	
4883	0	32784	32774	
4884	0	32896	32705	
4885	0	32832	32562	
4886	0	32792	32542	
4887	0	32758	32548	
4888	0	32764	32848	
4889	0	32782	32748	
4890	0	32762	32702	
4891	0	32766	32742	
4892	0	32788	32720	
4893	0	32844	32712	
4894	0	32832	32628	
4895	0	32858	32808	
4896	0	32808	32876	
4897	0	32816	32844	
4898	0	32816	32682	
4899	0	32820	32876	
4900	0	32824	32956	
4901	0	32772	32873	
4902	0	32748	32936	
4903	0	32816	32930	
4904	0	32837	32986	
4905	0	32844	32996	
4906	0	32772	32878	
4907	0	32788	32708	
4908	0	32792	32590	
4909	0	32797	32662	
4910	0	32744	32543	
4911	0	32780	32607	
4912	0	32798	32572	
4913	0	32760	32647	
4914	0	32784	32662	
4915	0	32848	32822	
4916	0	32762	32654	
4917	0	32832	32752	
4918	0	32760	32910	
4919	0	32840	32900	
4920	0	32872	32625	
4921	0	32840	32519	
4922	0	32768	32260	
4923	0	32812	32348	
4924	0	32830	32680	
4925	0	32764	32924	
4926	0	32778	33119	
4927	0	32812	33356	
4928	0	32814	33274	
4929	0	32776	33131	
4930	0	32788	32980	
4931	0	32786	32884	
4932	0	32800	32764	
4933	0	32864	32775	
4934	0	32924	32833	
4935	0	32872	32647	
4936	0	32802	32702	
4937	0	32784	32644	
4938	0	32872	32746	
4939	0	32848	32676	
4940	0	32824	32666	
4941	0	32856	32702	
4942	0	32840	32734	
4943	0	32792	32660	
4944	0	32812	32620	
4945	0	32796	32751	
4946	0	32848	32676	
4947	0	32924	32694	
4948	0	32822	32683	
4949	0	32836	32711	
4950	0	32884	32609	
4951	0	32680	32709	
4952	0	32486	32724	
4953	0	32512	32724	
4954	0	32593	32770	
4955	0	32778	32822	
4956	0	32824	32762	
4957	0	32856	32679	
4958	0	32860	32828	
4959	0	32856	32818	
4960	0	32903	32796	
4961	0	32852	32800	
4962	0	32902	32971	
4963	0	32888	32886	
4964	0	32908	32948	
4965	0	32956	32927	
4966	0	32924	32872	
4967	0	32864	32711	
4968	0	32882	32692	
4969	0	32944	32694	
4970	0	32952	32828	
4971	0	32898	32935	
4972	0	32836	32954	
4973	0	32756	32759	
4974	0	32862	32478	
4975	0	32828	32561	
4976	0	32796	32807	
4977	0	32824	32934	
4978	0	32724	32756	
4979	0	32762	33040	
4980	0	32788	32918	
4981	0	32848	32636	
4982	0	32754	32276	
4983	0	32716	31856	
4984	0	32770	32062	
4985	0	32712	32472	
4986	0	32868	32680	
4987	0	32684	33022	
4988	0	32772	32946	
4989	0	32732	33020	
4990	0	32748	32876	
4991	0	32804	32994	
4992	0	32852	33210	
4993	0	32808	33264	
4994	0	32808	33090	
4995	0	32746	33159	
4996	0	32824	33223	
4997	0	32910	33322	
4998	0	32792	33208	
4999	0	32880	33126	
5000	0	32832	32970	
5001	0	32894	33031	
5002	0	32910	33062	
5003	0	32837	32534	
5004	0	32784	31902	
5005	0	32752	31803	
5006	0	32712	32291	
5007	0	32712	32575	
5008	0	32682	32519	
5009	0	32720	32514	
5010	0	32664	32828	
5011	0	32710	32650	
5012	0	32802	32768	
5013	0	32876	32625	
5014	0	32788	32758	
5015	0	32766	32618	
5016	0	32672	32590	
5017	0	32660	32626	
5018	0	32692	32746	
5019	0	32674	32736	
5020	0	32836	32549	
5021	0	32838	32630	
5022	0	32914	32560	
5023	0	32970	32336	
5024	0	32940	32551	
5025	0	33006	32988	
5026	0	32924	33088	
5027	0	32980	33260	
5028	0	32916	33356	
5029	0	32918	33144	
5030	0	32924	33170	
5031	0	32906	33122	
5032	0	32818	33159	
5033	0	32804	32892	
5034	0	32760	32852	
5035	0	32726	32694	
5036	0	32674	32734	
5037	0	32742	32700	
5038	0	32620	32454	
5039	0	32544	32284	
5040	0	32586	32306	
5041	0	32622	32385	
5042	0	32736	32684	
5043	0	32812	32583	
5044	0	32942	32892	
5045	0	32900	33064	
5046	0	32928	32846	
5047	0	32866	32948	
5048	0	32894	32836	
5049	0	32884	33022	
5050	0	32938	33066	
5051	0	32862	32892	
5052	0	32926	33018	
5053	0	32900	32988	
5054	0	32984	32812	
5055	0	32928	32608	
5056	0	32970	32738	
5057	0	32960	32487	
5058	0	33024	32326	
5059	0	32996	32676	
5060	0	33044	32606	
5061	0	33072	32366	
5062	0	32974	32415	
5063	0	32802	32790	
5064	0	32736	32967	
5065	0	32852	32558	
5066	0	32738	32440	
5067	0	32640	32839	
5068	0	32552	32598	
5069	0	32655	32810	
5070	0	32676	33313	
5071	0	32744	33348	
5072	0	32822	32830	
5073	0	32788	32844	
5074	0	32808	32740	
5075	0	32756	32770	
5076	0	32608	33244	
5077	0	32656	33244	
5078	0	32572	33196	
5079	0	32652	33061	
5080	0	32650	33086	
5081	0	32736	33214	
5082	0	32780	33024	
5083	0	32836	32572	
5084	0	32772	32404	
5085	0	32724	32453	
5086	0	32808	32190	
5087	0	32728	32084	
5088	0	32748	32282	
5089	0	32752	32372	
5090	0	32836	32790	
5091	0	32844	33142	
5092	0	32896	33180	
5093	0	32902	32954	
5094	0	32896	32338	
5095	0	32896	32621	
5096	0	32944	32914	
5097	0	32960	33174	
5098	0	32788	32494	
5099	0	32744	31883	
5100	0	32676	32068	
5101	0	32620	32132	
5102	0	32608	32094	
5103	0	32714	32566	
5104	0	32812	33136	
5105	0	32796	33367	
5106	0	32712	33368	
5107	0	32746	33287	
5108	0	32774	33046	
5109	0	32678	33159	
5110	0	32536	32754	
5111	0	32472	32692	
5112	0	32646	32708	
5113	0	32672	32330	
5114	0	32656	32464	
5115	0	32674	32678	
5116	0	32752	32870	
5117	0	32826	32775	
5118	0	32954	32940	
5119	0	33148	33134	
5120	0	33236	32955	
5121	0	33276	32918	
5122	0	33224	32852	
5123	0	33188	32775	
5124	0	33080	32914	
5125	0	32926	32930	
5126	0	32960	32467	
5127	0	32881	32263	
5128	0	32880	32330	
5129	0	32981	32469	
5130	0	32998	32742	
5131	0	33020	33044	
5132	0	32960	32992	
5133	0	32702	33206	
5134	0	32596	33387	
5135	0	32512	33238	
5136	0	32540	33070	
5137	0	32536	32478	
5138	0	32438	32052	
5139	0	32144	31988	
5140	0	32284	31938	
5141	0	32468	32182	
5142	0	32648	32758	
5143	0	32968	33148	
5144	0	32980	33140	
5145	0	33173	33486	
5146	0	33336	33663	
5147	0	33308	33620	
5148	0	33416	32948	
5149	0	33116	32860	
5150	0	33138	32736	
5151	0	33208	32852	
5152	0	33140	32764	
5153	0	33232	32994	
5154	0	33344	32980	
5155	0	33228	32911	
5156	0	33064	32705	
5157	0	32900	32710	
5158	0	32888	32372	
5159	0	32808	32711	
5160	0	32728	32962	
5161	0	32732	32491	
5162	0	32612	32030	
5163	0	32332	31238	
5164	0	32126	32236	
5165	0	32104	32450	
5166	0	32144	32518	
5167	0	32228	32868	
5168	0	32380	32464	
5169	0	32476	32583	
5170	0	32552	32263	
5171	0	32684	32132	
5172	0	32674	32263	
5173	0	32776	32678	
5174	0	32710	32604	
5175	0	32786	32896	
5176	0	32944	33396	
5177	0	33010	32970	
5178	0	32976	33515	
5179	0	32822	33650	
5180	0	32524	33724	
5181	0	32570	33856	
5182	0	32772	33498	
5183	0	32748	33412	
5184	0	32964	33158	
5185	0	32976	33292	
5186	0	33076	33842	
5187	0	33086	33407	
5188	0	33040	31610	
5189	0	32984	30470	
5190	0	32838	30792	
5191	0	32736	31770	
5192	0	32672	31748	
5193	0	32454	30876	
5194	0	32312	31210	
5195	0	32346	32388	
5196	0	32196	33102	
5197	0	32002	33834	
5198	0	32020	34392	
5199	0	32400	35046	
5200	0	32736	35223	
5201	0	32912	34773	
5202	0	33032	34284	
5203	0	33218	33284	
5204	0	33336	33556	
5205	0	33350	32984	
5206	0	33332	32123	
5207	0	33156	31274	
5208	0	33228	31508	
5209	0	33409	31846	
5210	0	33508	32078	
5211	0	33612	32647	
5212	0	33684	32743	
5213	0	33632	32870	
5214	0	33500	32748	
5215	0	33400	32536	
5216	0	33364	32250	
5217	0	33070	31832	
5218	0	32664	32028	
5219	0	32544	31708	
5220	0	32298	31222	
5221	0	32106	32071	
5222	0	32076	32302	
5223	0	32196	32156	
5224	0	32408	32162	
5225	0	32632	33058	
5226	0	32692	33674	
5227	0	32736	34935	
5228	0	32692	35206	
5229	0	32620	34606	
5230	0	32652	33798	
5231	0	32804	33503	
5232	0	32817	33080	
5233	0	32942	32916	
5234	0	33164	33436	
5235	0	32948	33118	
5236	0	32948	31896	
5237	0	32952	31879	
5238	0	32816	32139	
5239	0	32736	32228	
5240	0	32628	32199	
5241	0	32512	32172	
5242	0	32688	32220	
5243	0	32878	32644	
5244	0	32884	32600	
5245	0	32736	31162	
5246	0	32616	31451	
5247	0	32700	31408	
5248	0	32776	31608	
5249	0	32650	32727	
5250	0	32540	32775	
5251	0	32316	33520	
5252	0	32320	34884	
5253	0	32478	35016	
5254	0	32788	33838	
5255	0	32914	33146	
5256	0	32840	33362	
5257	0	32928	33280	
5258	0	32918	33732	
5259	0	32992	33239	
5260	0	33136	32903	
5261	0	33132	33152	
5262	0	32868	33163	
5263	0	32704	32720	
5264	0	32840	32436	
5265	0	32932	32022	
5266	0	32832	31052	
5267	0	32816	32222	
5268	0	32708	32391	
5269	0	32684	31738	
5270	0	32712	32248	
5271	0	32722	32148	
5272	0	32840	32802	
5273	0	32762	32849	
5274	0	32834	32790	
5275	0	32868	33168	
5276	0	32746	33707	
5277	0	32800	33480	
5278	0	32802	32487	
5279	0	32660	32714	
5280	0	32696	32182	
5281	0	32658	31588	
5282	0	32530	29966	
5283	0	32652	31444	
5284	0	32704	32513	
5285	0	32884	33172	
5286	0	32960	33776	
5287	0	32962	34768	
5288	0	32924	34950	
5289	0	32992	34594	
5290	0	32842	34151	
5291	0	32868	33612	
5292	0	32736	33324	
5293	0	32548	32722	
5294	0	32490	31908	
5295	0	32292	31548	
5296	0	32482	31490	
5297	0	32558	31798	
5298	0	32672	31079	
5299	0	32824	31470	
5300	0	32976	31239	
5301	0	32810	32188	
5302	0	32932	32940	
5303	0	33220	33820	
5304	0	33288	34228	
5305	0	33330	33790	
5306	0	33170	33444	
5307	0	32940	33008	
5308	0	32800	31614	
5309	0	32700	31790	
5310	0	32772	32532	
5311	0	33050	33262	
5312	0	33296	33888	
5313	0	33428	33745	
5314	0	33628	34276	
5315	0	33610	34412	
5316	0	33544	34054	
5317	0	33406	33740	
5318	0	33404	33092	
5319	0	33016	32552	
5320	0	32852	31848	
5321	0	32644	31860	
5322	0	32548	31852	
5323	0	32462	31250	
5324	0	32240	32103	
5325	0	32406	31804	
5326	0	32464	32098	
5327	0	32448	32620	
5328	0	32364	33204	
5329	0	32252	32212	
5330	0	32330	31396	
5331	0	32376	31200	
5332	0	32378	30580	
5333	0	32132	31424	
5334	0	32216	32143	
5335	0	32376	32620	
5336	0	32406	33948	
5337	0	32404	35282	
5338	0	32526	36424	
5339	0	32844	36172	
5340	0	32936	35028	
5341	0	33028	33938	
5342	0	33136	33280	
5343	0	33188	33018	
5344	0	32968	32762	
5345	0	33004	32680	
5346	0	33188	32156	
5347	0	33190	31942	
5348	0	33052	31858	
5349	0	33016	31972	
5350	0	32884	32022	
5351	0	32762	31980	
5352	0	32776	32084	
5353	0	32912	31916	
5354	0	32880	31792	
5355	0	32844	31622	
5356	0	32796	31823	
5357	0	32800	31814	
5358	0	32862	31676	
5359	0	32802	33260	
5360	0	32772	33798	
5361	0	32697	33968	
5362	0	32660	33543	
5363	0	32730	33460	
5364	0	32652	33271	
5365	0	32526	32374	
5366	0	32622	32986	
5367	0	32560	33466	
5368	0	32522	32950	
5369	0	32736	33156	
5370	0	33028	33076	
5371	0	33160	32620	
5372	0	33360	32406	
5373	0	33180	32958	
5374	0	33048	32108	
5375	0	32775	32531	
5376	0	32784	32340	
5377	0	32676	32372	
5378	0	32662	32372	
5379	0	32740	32806	
5380	0	32706	33520	
5381	0	32696	32576	
5382	0	32868	32196	
5383	0	32876	31528	
5384	0	32752	31099	
5385	0	32484	31258	
5386	0	32216	31726	
5387	0	32474	33264	
5388	0	32892	33964	
5389	0	33160	35120	
5390	0	33312	35814	
5391	0	33504	35802	
5392	0	33416	34790	
5393	0	33240	33376	
5394	0	33060	32838	
5395	0	32922	32537	
5396	0	32828	32444	
5397	0	32790	32160	
5398	0	32776	31902	
5399	0	32652	32102	
5400	0	32510	31036	
5401	0	32412	31216	
5402	0	32504	30700	
5403	0	32494	31412	
5404	0	32636	31942	
5405	0	32872	33414	
5406	0	32904	33835	
5407	0	32920	33564	
5408	0	33000	33470	
5409	0	33316	32960	
5410	0	33210	33100	
5411	0	33110	33256	
5412	0	33014	33458	
5413	0	32976	33615	
5414	0	32964	32711	
5415	0	32912	33022	
5416	0	32786	32010	
5417	0	32672	31943	
5418	0	32672	31969	
5419	0	32638	32082	
5420	0	32678	32540	
5421	0	32760	33070	
5422	0	32692	32644	
5423	0	32616	32544	
5424	0	32578	32998	
5425	0	32624	32678	
5426	0	32580	32990	
5427	0	32512	32560	
5428	0	32484	33036	
5429	0	32608	33430	
5430	0	32740	33948	
5431	0	32780	34094	
5432	0	32896	34006	
5433	0	32948	33026	
5434	0	32668	32068	
5435	0	32688	31716	
5436	0	32780	31505	
5437	0	32760	30678	
5438	0	32316	30556	
5439	0	32260	29998	
5440	0	32337	30806	
5441	0	32542	32620	
5442	0	32824	34632	
5443	0	32926	35540	
5444	0	33146	35466	
5445	0	33184	35648	
5446	0	33360	35270	
5447	0	33456	34540	
5448	0	33456	32930	
5449	0	33433	32026	
5450	0	33412	31224	
5451	0	33356	30762	
5452	0	33220	30622	
5453	0	32994	30735	
5454	0	32912	31196	
5455	0	32744	31912	
5456	0	32446	33490	
5457	0	32578	33502	
5458	0	32582	34020	
5459	0	32587	34200	
5460	0	32654	33940	
5461	0	32670	33486	
5462	0	32692	33198	
5463	0	32704	32736	
5464	0	32564	31572	
5465	0	32592	32035	
5466	0	32596	31588	
5467	0	32554	31708	
5468	0	32712	31446	
5469	0	32832	32263	
5470	0	32756	32247	
5471	0	32800	33172	
5472	0	32862	34118	
5473	0	32874	33696	
5474	0	32832	34534	
5475	0	32852	33670	
5476	0	32604	32960	
5477	0	32602	32156	
5478	0	32688	32066	
5479	0	32776	32772	
5480	0	32888	32286	
5481	0	32964	32855	
5482	0	32935	32810	
5483	0	32964	32863	
5484	0	32912	32574	
5485	0	32779	32890	
5486	0	32880	33004	
5487	0	32874	33376	
5488	0	32794	32796	
5489	0	32978	32714	
5490	0	32956	33240	
5491	0	32880	32919	
5492	0	32832	32950	
5493	0	32810	32958	
5494	0	32884	32702	
5495	0	32666	32812	
5496	0	32748	33063	
5497	0	32828	32456	
5498	0	32972	32090	
5499	0	32752	32068	
5500	0	32682	32198	
5501	0	32444	32574	
5502	0	32364	32262	
5503	0	32498	32943	
5504	0	32660	32312	
5505	0	32976	32848	
5506	0	33336	32786	
5507	0	33328	33006	
5508	0	33292	33196	
5509	0	33288	32480	
5510	0	33220	31847	
5511	0	33280	33671	
5512	0	33100	34014	
5513	0	32952	32366	
5514	0	32724	31042	
5515	0	32682	30802	
5516	0	32446	32152	
5517	0	32736	33644	
5518	0	32840	35054	
5519	0	32668	35044	
5520	0	32602	35304	
5521	0	32442	34870	
5522	0	32804	34212	
5523	0	32872	34300	
5524	0	32800	31297	
5525	0	32632	30806	
5526	0	32752	31623	
5527	0	32504	31210	
5528	0	32644	31239	
5529	0	32792	31410	
5530	0	32678	32536	
5531	0	32772	32764	
5532	0	32682	33384	
5533	0	32696	33531	
5534	0	32736	33514	
5535	0	32804	33590	
5536	0	32880	33752	
5537	0	32826	32470	
5538	0	32882	31936	
5539	0	32740	31492	
5540	0	32732	31742	
5541	0	32584	31778	
5542	0	32656	31908	
5543	0	32780	32446	
5544	0	32952	33356	
5545	0	32896	33116	
5546	0	32840	33020	
5547	0	32902	31852	
5548	0	32838	31168	
5549	0	32808	32492	
5550	0	32604	31832	
5551	0	32604	33194	
5552	0	32676	34454	
5553	0	32754	34296	
5554	0	32778	34823	
5555	0	32736	34230	
5556	0	32748	33702	
5557	0	32548	32984	
5558	0	32458	32718	
5559	0	32732	33252	
5560	0	32904	33002	
5561	0	33116	33247	
5562	0	33284	32500	
5563	0	33272	32488	
5564	0	33406	31722	
5565	0	33372	31926	
5566	0	33308	32294	
5567	0	33316	31904	
5568	0	33124	32039	
5569	0	32990	32052	
5570	0	32832	32146	
5571	0	32760	32327	
5572	0	32772	32952	
5573	0	32728	32782	
5574	0	32558	32496	
5575	0	32356	32740	
5576	0	32348	32388	
5577	0	32448	33136	
5578	0	32398	32560	
5579	0	32336	32244	
5580	0	32436	34380	
5581	0	32628	34090	
5582	0	32892	31694	
5583	0	32784	33038	
5584	0	32954	33111	
5585	0	33034	31978	
5586	0	33044	33956	
5587	0	33150	34020	
5588	0	33338	34208	
5589	0	33480	34145	
5590	0	33328	33546	
5591	0	33044	32487	
5592	0	32954	32112	
5593	0	32866	31868	
5594	0	32896	31860	
5595	0	32890	31521	
5596	0	32800	31552	
5597	0	32952	31927	
5598	0	32690	32472	
5599	0	32392	32020	
5600	0	32514	31930	
5601	0	32468	32174	
5602	0	32396	32572	
5603	0	32576	32373	
5604	0	32616	31216	
5605	0	32618	32354	
5606	0	32732	33172	
5607	0	32694	33652	
5608	0	32676	34622	
5609	0	32632	32248	
5610	0	32576	32682	
5611	0	32464	31425	
5612	0	32452	31879	
5613	0	32616	32462	
5614	0	32732	33838	
5615	0	32908	34244	
5616	0	33116	33264	
5617	0	33024	32490	
5618	0	32892	32548	
5619	0	32876	32446	
5620	0	33122	32162	
5621	0	33164	33136	
5622	0	33060	33255	
5623	0	33092	33192	
5624	0	32940	33306	
5625	0	32696	33006	
5626	0	32656	33702	
5627	0	32802	32816	
5628	0	32808	31974	
5629	0	32732	31822	
5630	0	32817	31942	
5631	0	32836	31893	
5632	0	32972	32466	
5633	0	32960	33856	
5634	0	32808	34488	
5635	0	32596	32384	
5636	0	32316	31662	
5637	0	32220	30712	
5638	0	32320	31150	
5639	0	32420	31678	
5640	0	32412	32538	
5641	0	32614	34988	
5642	0	32648	35318	
5643	0	33072	35748	
5644	0	33222	36098	
5645	0	33274	34850	
5646	0	33298	32930	
5647	0	33244	31727	
5648	0	33178	31488	
5649	0	33102	31591	
5650	0	33160	32480	
5651	0	33080	32502	
5652	0	33064	33486	
5653	0	33016	32314	
5654	0	33028	30908	
5655	0	33056	31975	
5656	0	32980	33454	
5657	0	32884	32434	
5658	0	32826	33191	
5659	0	32722	32807	
5660	0	32828	32928	
5661	0	32734	33908	
5662	0	32468	34372	
5663	0	32520	33478	
5664	0	32500	32834	
5665	0	32416	32742	
5666	0	32512	32510	
5667	0	32600	32660	
5668	0	32442	32084	
5669	0	32470	31818	
5670	0	32574	31612	
5671	0	32644	32116	
5672	0	32956	32462	
5673	0	32884	32186	
5674	0	32824	32184	
5675	0	33028	32995	
5676	0	33020	33298	
5677	0	33124	33377	
5678	0	33124	33388	
5679	0	33024	33238	
5680	0	32992	33159	
5681	0	32814	32966	
5682	0	32880	32738	
5683	0	32960	32602	
5684	0	32964	32538	
5685	0	32764	31402	
5686	0	32732	32068	
5687	0	32720	31847	
5688	0	32600	31158	
5689	0	32556	30890	
5690	0	32782	31050	
5691	0	32598	32384	
5692	0	32735	33287	
5693	0	32864	34324	
5694	0	32732	36492	
5695	0	32660	36326	
5696	0	32764	34759	
5697	0	32728	32900	
5698	0	32652	33584	
5699	0	32864	33018	
5700	0	32936	32260	
5701	0	32944	32458	
5702	0	32834	31542	
5703	0	32808	30486	
5704	0	32484	29292	
5705	0	32620	30238	
5706	0	32888	31064	
5707	0	33016	31640	
5708	0	33052	31638	
5709	0	32950	31934	
5710	0	32784	32700	
5711	0	32836	34260	
5712	0	33034	34658	
5713	0	32864	33864	
5714	0	32660	32068	
5715	0	32468	26628	
5716	0	32576	24548	
5717	0	32682	29154	
5718	0	32456	32284	
5719	0	32493	33848	
5720	0	32660	34036	
5721	0	32764	34888	
5722	0	32934	35568	
5723	0	33032	36320	
5724	0	33172	36096	
5725	0	33152	34820	
5726	0	32992	34414	
5727	0	32936	34916	
5728	0	33004	34239	
5729	0	32994	34340	
5730	0	33091	34662	
5731	0	33244	34564	
5732	0	33120	34844	
5733	0	32853	33924	
5734	0	32660	33494	
5735	0	32976	33226	
5736	0	33006	33480	
5737	0	32938	33316	
5738	0	32844	33270	
5739	0	32956	32632	
5740	0	32946	31407	
5741	0	32869	31254	
5742	0	32688	31404	
5743	0	32416	32180	
5744	0	32336	32666	
5745	0	32482	33140	
5746	0	32550	33671	
5747	0	32530	33272	
5748	0	32688	32786	
5749	0	32724	32972	
5750	0	32548	33164	
5751	0	32628	32767	
5752	0	32580	32668	
5753	0	32698	32775	
5754	0	32744	32554	
5755	0	32948	32466	
5756	0	32868	32050	
5757	0	32938	31591	
5758	0	33032	32220	
5759	0	33098	30990	
5760	0	32988	31759	
5761	0	32862	32172	
5762	0	32812	32246	
5763	0	32722	33022	
5764	0	32680	33306	
5765	0	32740	33794	
5766	0	32828	33155	
5767	0	32852	33108	
5768	0	32844	33530	
5769	0	32876	33098	
5770	0	32984	32951	
5771	0	32953	32950	
5772	0	32744	32832	
5773	0	32700	32256	
5774	0	32722	31654	
5775	0	32726	30718	
5776	0	32750	32048	
5777	0	32754	32792	
5778	0	32774	34368	
5779	0	32560	33799	
5780	0	32718	32548	
5781	0	32758	32674	
5782	0	32928	33732	
5783	0	32928	33834	
5784	0	32994	33890	
5785	0	32942	34114	
5786	0	33004	33497	
5787	0	32786	33062	
5788	0	32670	33006	
5789	0	32848	32342	
5790	0	32896	31736	
5791	0	32641	31018	
5792	0	32660	32414	
5793	0	32746	32292	
5794	0	32924	32642	
5795	0	33166	33446	
5796	0	33074	33962	
5797	0	32910	33799	
5798	0	32858	32999	
5799	0	32970	32716	
5800	0	32852	32732	
5801	0	32706	32130	
5802	0	32760	32532	
5803	0	32900	32286	
5804	0	32856	32258	
5805	0	32732	32318	
5806	0	32756	32484	
5807	0	32706	31806	
5808	0	32769	32442	
5809	0	32856	32672	
5810	0	32702	31936	
5811	0	32912	32324	
5812	0	32742	32114	
5813	0	32778	32391	
5814	0	32630	32576	
5815	0	32696	32766	
5816	0	32842	33414	
5817	0	32720	33554	
5818	0	32652	33688	
5819	0	32783	33324	
5820	0	32986	33102	
5821	0	33024	33711	
5822	0	32964	33318	
5823	0	32816	32332	
5824	0	32748	32711	
5825	0	32892	32922	
5826	0	32862	32671	
5827	0	32878	33082	
5828	0	32812	32644	
5829	0	32614	32556	
5830	0	32584	32366	
5831	0	32584	32254	
5832	0	32990	31871	
5833	0	32914	32312	
5834	0	32798	32116	
5835	0	32744	33026	
5836	0	32744	33100	
5837	0	33016	33751	
5838	0	32940	32342	
5839	0	32740	32932	
5840	0	32800	32663	
5841	0	32908	33346	
5842	0	32945	33644	
5843	0	33008	33826	
5844	0	32868	33080	
5845	0	32933	33060	
5846	0	32852	32729	
5847	0	32824	32956	
5848	0	32808	32756	
5849	0	32696	32870	
5850	0	32500	32684	
5851	0	32546	32920	
5852	0	32934	33059	
5853	0	32780	32642	
5854	0	32696	33264	
5855	0	32890	33010	
5856	0	32852	31234	
5857	0	32806	32159	
5858	0	32712	32122	
5859	0	32704	32279	
5860	0	32756	32534	
5861	0	32724	32736	
5862	0	32800	33252	
5863	0	32984	33198	
5864	0	32888	33384	
5865	0	32656	32440	
5866	0	32680	32324	
5867	0	32886	32856	
5868	0	32836	31904	
5869	0	32650	31954	
5870	0	32744	32174	
5871	0	32772	32774	
5872	0	32704	32864	
5873	0	32728	32510	
5874	0	32700	33128	
5875	0	32836	33696	
5876	0	32926	33448	
5877	0	32874	32928	
5878	0	32714	32913	
5879	0	32712	32921	
5880	0	32712	32884	
5881	0	32756	32138	
5882	0	32754	32257	
5883	0	32840	32552	
5884	0	32920	32788	
5885	0	33152	32786	
5886	0	32926	32956	
5887	0	32696	32956	
5888	0	32850	32598	
5889	0	32820	32843	
5890	0	32902	32482	
5891	0	32948	32248	
5892	0	33178	32223	
5893	0	33072	32684	
5894	0	33028	33232	
5895	0	33100	32958	
5896	0	33056	32539	
5897	0	33048	32880	
5898	0	32912	32666	
5899	0	32816	32662	
5900	0	32700	32894	
5901	0	32586	33062	
5902	0	32736	33046	
5903	0	32776	33264	
5904	0	32792	33114	
5905	0	32488	33184	
5906	0	32464	33057	
5907	0	32568	33018	
5908	0	32680	32686	
5909	0	32736	32318	
5910	0	32924	32263	
5911	0	33020	32487	
5912	0	33136	32426	
5913	0	33052	32418	
5914	0	32860	32576	
5915	0	32648	32775	
5916	0	32704	32834	
5917	0	32846	32843	
5918	0	32860	32858	
5919	0	32778	32774	
5920	0	32776	33110	
5921	0	32884	32679	
5922	0	32856	32394	
5923	0	32642	32488	
5924	0	32834	33120	
5925	0	32930	32372	
5926	0	32716	32994	
5927	0	32416	33313	
5928	0	32602	32862	
5929	0	32610	32436	
5930	0	32760	32742	
5931	0	32852	32816	
5932	0	32912	32788	
5933	0	33030	33256	
5934	0	32842	32934	
5935	0	32772	33250	
5936	0	32870	33636	
5937	0	32884	32337	
5938	0	32840	31562	
5939	0	32744	32288	
5940	0	32880	32903	
5941	0	33094	32296	
5942	0	33104	32234	
5943	0	32880	32789	
5944	0	32722	32944	
5945	0	32592	32678	
5946	0	32652	32754	
5947	0	32626	32475	
5948	0	32618	32586	
5949	0	32692	32586	
5950	0	32636	32398	
5951	0	32792	32420	
5952	0	32878	32548	
5953	0	33114	32278	
5954	0	33008	32488	
5955	0	32838	32698	
5956	0	33026	33400	
5957	0	32872	33242	
5958	0	32684	33350	
5959	0	32836	33126	
5960	0	32804	32952	
5961	0	32732	33050	
5962	0	32528	33124	
5963	0	32657	31878	
5964	0	32832	31900	
5965	0	32874	32472	
5966	0	32750	33030	
5967	0	32748	33194	
5968	0	32874	33124	
5969	0	32908	32909	
5970	0	32944	32860	
5971	0	32962	32572	
5972	0	32892	32638	
5973	0	32816	32888	
5974	0	32804	32448	
5975	0	32880	32536	
5976	0	32922	32658	
5977	0	32884	32580	
5978	0	32772	32489	
5979	0	32644	32588	
5980	0	32704	32564	
5981	0	32768	32695	
5982	0	32750	32740	
5983	0	32880	32942	
5984	0	32804	32814	
5985	0	32740	32836	
5986	0	32830	32790	
5987	0	32896	32890	
5988	0	32904	32864	
5989	0	33038	32656	
5990	0	32849	32490	
5991	0	32784	32731	
5992	0	33012	32720	
5993	0	33014	32999	
5994	0	32725	33024	
5995	0	32636	33304	
5996	0	32656	32719	
5997	0	32886	32154	
5998	0	33088	32544	
5999	0	32904	33055	
6000	0	32668	33063	
6001	0	32590	33004	
6002	0	32673	33099	
6003	0	32686	32738	
6004	0	32852	32280	
6005	0	33086	32463	
6006	0	32740	32910	
6007	0	32676	32612	
6008	0	32776	32874	
6009	0	32938	32706	
6010	0	32892	33114	
6011	0	32894	32711	
6012	0	32852	32844	
