# OpenSignals Text File Format. Version 1
# {"00:07:80:8C:0A:39": {"position": 0, "device": "biosignalsplux", "device name": "00:07:80:8C:0A:39", "device connection": "BTH00:07:80:8C:0A:39", "sampling rate": 1000, "resolution": [16, 16], "firmware version": 776, "comments": "", "keywords": "", "mode": 0, "sync interval": 2, "date": "2023-3-19", "time": "11:25:19.29", "channels": [1, 2], "sensor": ["EMG", "EMG"], "label": ["CH1", "CH2"], "column": ["nSeq", "DI", "CH1", "CH2"], "special": [{"SpO2": [80, 40, 5, 4, 3, 3]}, {"SpO2": [80, 40, 5, 4, 3, 3]}, {"SpO2": [80, 40, 5, 4, 3, 3]}, {"SpO2": [80, 40, 5, 4, 3, 3]}, {"SpO2": [80, 40, 5, 4, 3, 3]}, {"SpO2": [80, 40, 5, 4, 3, 3]}, {"SpO2": [80, 40, 5, 4, 3, 3]}, {"SpO2": [80, 40, 5, 4, 3, 3]}], "digital IO": [0, 1], "sleeve color": ["gray", "yellow"], "convertedValues": 0}}
# EndOfHeader
0	0	32812	32826	
1	0	32824	32730	
2	0	32788	32807	
3	0	32804	32690	
4	0	32800	32764	
5	0	32796	32752	
6	0	32814	32876	
7	0	32776	32732	
8	0	32872	32812	
9	0	32788	32711	
10	0	32804	32748	
11	0	32876	32718	
12	0	32788	32770	
13	0	32828	32676	
14	0	32814	32804	
15	0	32844	32761	
16	0	32832	32784	
17	0	32768	32760	
18	0	32820	32772	
19	0	32796	32724	
20	0	32828	32720	
21	0	32852	32750	
22	0	32788	32804	
23	0	32812	32822	
24	0	32792	32764	
25	0	32764	32670	
26	0	32808	32903	
27	0	32800	32798	
28	0	32788	32830	
29	0	32846	32727	
30	0	32849	32726	
31	0	32738	32852	
32	0	32753	32720	
33	0	32884	32800	
34	0	32806	32748	
35	0	32842	32700	
36	0	32772	32830	
37	0	32790	32734	
38	0	32804	32808	
39	0	32784	32678	
40	0	32782	32654	
41	0	32808	32716	
42	0	32818	32836	
43	0	32836	32794	
44	0	32808	32844	
45	0	32840	32749	
46	0	32844	32622	
47	0	32854	32716	
48	0	32826	32706	
49	0	32812	32775	
50	0	32780	32746	
51	0	32748	32738	
52	0	32800	32700	
53	0	32820	32716	
54	0	32782	32774	
55	0	32744	32792	
56	0	32894	32830	
57	0	32824	32676	
58	0	32848	32748	
59	0	32761	32748	
60	0	32816	32750	
61	0	32786	32836	
62	0	32852	32806	
63	0	32784	32684	
64	0	32876	32900	
65	0	32826	32743	
66	0	32784	32775	
67	0	32772	32775	
68	0	32808	32706	
69	0	32804	32744	
70	0	32772	32750	
71	0	32776	32864	
72	0	32808	32646	
73	0	32786	32806	
74	0	32748	32820	
75	0	32776	32792	
76	0	32824	32721	
77	0	32872	32724	
78	0	32864	32860	
79	0	32812	32782	
80	0	32822	32834	
81	0	32882	32772	
82	0	32798	32726	
83	0	32824	32903	
84	0	32852	32775	
85	0	32828	32724	
86	0	32832	32753	
87	0	32816	32822	
88	0	32800	32732	
89	0	32768	32764	
90	0	32798	32694	
91	0	32884	32816	
92	0	32764	32816	
93	0	32824	32726	
94	0	32756	32727	
95	0	32892	32806	
96	0	32804	32794	
97	0	32794	32700	
98	0	32776	32646	
99	0	32780	32740	
100	0	32788	32894	
101	0	32788	32852	
102	0	32858	32793	
103	0	32742	32684	
104	0	32820	32735	
105	0	32834	32844	
106	0	32888	32775	
107	0	32821	32668	
108	0	32769	32720	
109	0	32832	32814	
110	0	32738	32756	
111	0	32870	32810	
112	0	32812	32720	
113	0	32796	32766	
114	0	32810	32896	
115	0	32762	32788	
116	0	32804	32704	
117	0	32794	32726	
118	0	32860	32704	
119	0	32836	32866	
120	0	32864	32774	
121	0	32836	32836	
122	0	32842	32790	
123	0	32832	32775	
124	0	32838	32692	
125	0	32788	32712	
126	0	32796	32828	
127	0	32782	32752	
128	0	32860	32772	
129	0	32808	32736	
130	0	32787	32750	
131	0	32764	32839	
132	0	32732	32832	
133	0	32874	32731	
134	0	32852	32740	
135	0	32824	32726	
136	0	32792	32838	
137	0	32768	32786	
138	0	32872	32768	
139	0	32840	32820	
140	0	32792	32734	
141	0	32894	32657	
142	0	32840	32714	
143	0	32804	32791	
144	0	32808	32796	
145	0	32834	32799	
146	0	32836	32804	
147	0	32834	32711	
148	0	32780	32788	
149	0	32848	32750	
150	0	32768	32827	
151	0	32780	32756	
152	0	32764	32680	
153	0	32806	32706	
154	0	32864	32772	
155	0	32792	32730	
156	0	32744	32694	
157	0	32776	32788	
158	0	32772	32796	
159	0	32816	32702	
160	0	32776	32854	
161	0	32852	32822	
162	0	32788	32804	
163	0	32849	32740	
164	0	32800	32757	
165	0	32868	32746	
166	0	32788	32810	
167	0	32804	32775	
168	0	32824	32683	
169	0	32840	32926	
170	0	32792	32692	
171	0	32840	32710	
172	0	32814	32807	
173	0	32822	32824	
174	0	32878	32775	
175	0	32788	32724	
176	0	32844	32750	
177	0	32768	32756	
178	0	32792	32807	
179	0	32814	32774	
180	0	32847	32806	
181	0	32836	32772	
182	0	32828	32790	
183	0	32774	32716	
184	0	32800	32678	
185	0	32812	32836	
186	0	32810	32775	
187	0	32808	32756	
188	0	32768	32862	
189	0	32848	32726	
190	0	32824	32775	
191	0	32808	32748	
192	0	32768	32763	
193	0	32808	32686	
194	0	32784	32698	
195	0	32832	32724	
196	0	32898	32856	
197	0	32808	32762	
198	0	32800	32806	
199	0	32852	32759	
200	0	32772	32711	
201	0	32812	32786	
202	0	32794	32792	
203	0	32824	32714	
204	0	32832	32742	
205	0	32800	32668	
206	0	32788	32783	
207	0	32796	32888	
208	0	32812	32775	
209	0	32852	32802	
210	0	32814	32652	
211	0	32820	32790	
212	0	32822	32863	
213	0	32780	32758	
214	0	32772	32774	
215	0	32768	32736	
216	0	32768	32656	
217	0	32810	32791	
218	0	32816	32846	
219	0	32781	32803	
220	0	32852	32836	
221	0	32772	32756	
222	0	32804	32689	
223	0	32880	32687	
224	0	32860	32817	
225	0	32812	32775	
226	0	32796	32800	
227	0	32816	32640	
228	0	32818	32760	
229	0	32860	32764	
230	0	32808	32748	
231	0	32804	32847	
232	0	32870	32726	
233	0	32784	32672	
234	0	32804	32734	
235	0	32816	32828	
236	0	32784	32756	
237	0	32820	32786	
238	0	32760	32734	
239	0	32802	32798	
240	0	32802	32744	
241	0	32800	32814	
242	0	32828	32702	
243	0	32816	32775	
244	0	32782	32772	
245	0	32846	32820	
246	0	32738	32811	
247	0	32804	32772	
248	0	32864	32726	
249	0	32849	32812	
250	0	32840	32802	
251	0	32800	32846	
252	0	32860	32799	
253	0	32780	32706	
254	0	32770	32775	
255	0	32782	32732	
256	0	32800	32738	
257	0	32828	32794	
258	0	32868	32756	
259	0	32808	32788	
260	0	32810	32757	
261	0	32832	32708	
262	0	32804	32802	
263	0	32874	32775	
264	0	32866	32880	
265	0	32784	32796	
266	0	32802	32655	
267	0	32738	32871	
268	0	32820	32827	
269	0	32808	32818	
270	0	32786	32628	
271	0	32834	32737	
272	0	32812	32870	
273	0	32774	32734	
274	0	32814	32726	
275	0	32834	32796	
276	0	32856	32734	
277	0	32808	32670	
278	0	32816	32828	
279	0	32834	32811	
280	0	32794	32742	
281	0	32800	32807	
282	0	32804	32724	
283	0	32762	32692	
284	0	32836	32906	
285	0	32800	32838	
286	0	32810	32741	
287	0	32770	32750	
288	0	32788	32738	
289	0	32764	32726	
290	0	32814	32725	
291	0	32812	32738	
292	0	32844	32738	
293	0	32864	32794	
294	0	32740	32726	
295	0	32826	32662	
296	0	32788	32788	
297	0	32806	32846	
298	0	32824	32804	
299	0	32790	32775	
300	0	32884	32732	
301	0	32796	32798	
302	0	32792	32799	
303	0	32834	32853	
304	0	32832	32708	
305	0	32756	32726	
306	0	32836	32815	
307	0	32824	32762	
308	0	32774	32802	
309	0	32768	32758	
310	0	32788	32816	
311	0	32760	32736	
312	0	32768	32828	
313	0	32812	32734	
314	0	32826	32728	
315	0	32792	32775	
316	0	32838	32796	
317	0	32910	32708	
318	0	32856	32687	
319	0	32792	32874	
320	0	32782	32737	
321	0	32709	32798	
322	0	32796	32676	
323	0	32804	32740	
324	0	32808	32804	
325	0	32868	32788	
326	0	32844	32820	
327	0	32824	32678	
328	0	32792	32734	
329	0	32809	32817	
330	0	32852	32762	
331	0	32838	32775	
332	0	32832	32830	
333	0	32804	32715	
334	0	32772	32766	
335	0	32780	32871	
336	0	32788	32770	
337	0	32822	32760	
338	0	32874	32758	
339	0	32798	32704	
340	0	32752	32788	
341	0	32812	32880	
342	0	32832	32738	
343	0	32800	32686	
344	0	32816	32756	
345	0	32822	32775	
346	0	32872	32790	
347	0	32800	32802	
348	0	32864	32775	
349	0	32858	32775	
350	0	32790	32820	
351	0	32852	32687	
352	0	32808	32726	
353	0	32792	32692	
354	0	32832	32684	
355	0	32814	32846	
356	0	32791	32788	
357	0	32872	32738	
358	0	32836	32828	
359	0	32828	32818	
360	0	32782	32692	
361	0	32860	32725	
362	0	32748	32884	
363	0	32780	32870	
364	0	32796	32742	
365	0	32844	32754	
366	0	32792	32787	
367	0	32778	32806	
368	0	32856	32754	
369	0	32778	32740	
370	0	32848	32806	
371	0	32882	32746	
372	0	32836	32654	
373	0	32818	32786	
374	0	32804	32728	
375	0	32810	32775	
376	0	32800	32752	
377	0	32822	32764	
378	0	32818	32876	
379	0	32836	32812	
380	0	32848	32740	
381	0	32738	32775	
382	0	32846	32810	
383	0	32812	32820	
384	0	32746	32710	
385	0	32784	32714	
386	0	32868	32784	
387	0	32820	32760	
388	0	32816	32788	
389	0	32802	32644	
390	0	32804	32862	
391	0	32856	32768	
392	0	32816	32788	
393	0	32844	32726	
394	0	32902	32620	
395	0	32888	32711	
396	0	32904	32608	
397	0	32892	32646	
398	0	32932	32656	
399	0	32904	32548	
400	0	32904	32640	
401	0	32996	32644	
402	0	32964	32603	
403	0	32970	32666	
404	0	32912	32562	
405	0	32936	32590	
406	0	32910	32670	
407	0	32932	32654	
408	0	32876	32679	
409	0	32864	32656	
410	0	32870	32662	
411	0	32824	32816	
412	0	32824	32723	
413	0	32724	32799	
414	0	32676	32934	
415	0	32658	32974	
416	0	32520	32966	
417	0	32544	32995	
418	0	32486	33234	
419	0	32452	33440	
420	0	32308	33504	
421	0	32312	33512	
422	0	32460	33310	
423	0	32620	32992	
424	0	32783	33010	
425	0	32760	32916	
426	0	32796	32888	
427	0	32716	32884	
428	0	32776	32884	
429	0	32698	32772	
430	0	32812	32670	
431	0	32783	32632	
432	0	32868	32684	
433	0	32918	32581	
434	0	32944	32528	
435	0	32966	32546	
436	0	33008	32455	
437	0	32984	32402	
438	0	33020	32358	
439	0	33000	32478	
440	0	32920	32538	
441	0	32884	32610	
442	0	32928	32568	
443	0	32956	32775	
444	0	32916	32670	
445	0	32896	32704	
446	0	32868	32724	
447	0	32800	32725	
448	0	32876	32750	
449	0	32880	32728	
450	0	32888	32702	
451	0	32910	32726	
452	0	32820	32652	
453	0	32816	32708	
454	0	32834	32826	
455	0	32920	32772	
456	0	32796	32792	
457	0	32816	32756	
458	0	32732	32800	
459	0	32828	32821	
460	0	32802	32743	
461	0	32816	32759	
462	0	32816	32764	
463	0	32778	32874	
464	0	32774	32794	
465	0	32778	32794	
466	0	32760	32842	
467	0	32800	32822	
468	0	32772	32748	
469	0	32838	32654	
470	0	32798	32726	
471	0	32808	32750	
472	0	32758	32792	
473	0	32750	32820	
474	0	32816	32744	
475	0	32824	32836	
476	0	32836	32726	
477	0	32792	32706	
478	0	32826	32696	
479	0	32796	32752	
480	0	32812	32775	
481	0	32738	32660	
482	0	32772	32894	
483	0	32826	32828	
484	0	32842	32702	
485	0	32844	32740	
486	0	32724	32770	
487	0	32792	32712	
488	0	32832	32841	
489	0	32852	32836	
490	0	32806	32720	
491	0	32808	32655	
492	0	32812	32814	
493	0	32846	32775	
494	0	32784	32800	
495	0	32820	32746	
496	0	32840	32872	
497	0	32762	32698	
498	0	32792	32735	
499	0	32800	32792	
500	0	32844	32822	
501	0	32775	32742	
502	0	32792	32792	
503	0	32812	32719	
504	0	32828	32708	
505	0	32772	32665	
506	0	32810	32900	
507	0	32806	32802	
508	0	32840	32790	
509	0	32848	32820	
510	0	32780	32756	
511	0	32712	32724	
512	0	32850	32807	
513	0	32792	32796	
514	0	32824	32816	
515	0	32772	32792	
516	0	32788	32888	
517	0	32841	32708	
518	0	32836	32788	
519	0	32824	32775	
520	0	32864	32711	
521	0	32836	32742	
522	0	32740	32775	
523	0	32848	32750	
524	0	32830	32860	
525	0	32792	32748	
526	0	32762	32708	
527	0	32834	32767	
528	0	32838	32804	
529	0	32802	32722	
530	0	32808	32768	
531	0	32881	32738	
532	0	32808	32668	
533	0	32788	32662	
534	0	32820	32794	
535	0	32754	32774	
536	0	32780	32727	
537	0	32792	32748	
538	0	32804	32806	
539	0	32786	32836	
540	0	32848	32902	
541	0	32788	32714	
542	0	32864	32684	
543	0	32850	32759	
544	0	32836	32748	
545	0	32774	32718	
546	0	32828	32804	
547	0	32772	32822	
548	0	32804	32796	
549	0	32886	32728	
550	0	32856	32732	
551	0	32864	32808	
552	0	32784	32804	
553	0	32836	32736	
554	0	32816	32742	
555	0	32808	32728	
556	0	32784	32886	
557	0	32786	32760	
558	0	32872	32800	
559	0	32804	32795	
560	0	32814	32792	
561	0	32846	32800	
562	0	32784	32678	
563	0	32758	32680	
564	0	32842	32800	
565	0	32792	32826	
566	0	32800	32775	
567	0	32804	32839	
568	0	32828	32741	
569	0	32876	32818	
570	0	32746	32754	
571	0	32820	32710	
572	0	32808	32775	
573	0	32804	32767	
574	0	32840	32775	
575	0	32808	32712	
576	0	32752	32711	
577	0	32830	32806	
578	0	32824	32768	
579	0	32808	32834	
580	0	32832	32743	
581	0	32830	32660	
582	0	32816	32775	
583	0	32806	32832	
584	0	32832	32730	
585	0	32848	32860	
586	0	32848	32775	
587	0	32778	32700	
588	0	32812	32703	
589	0	32858	32780	
590	0	32838	32775	
591	0	32780	32768	
592	0	32800	32794	
593	0	32878	32802	
594	0	32848	32766	
595	0	32860	32654	
596	0	32770	32688	
597	0	32796	32902	
598	0	32852	32844	
599	0	32794	32756	
600	0	32798	32856	
601	0	32814	32824	
602	0	32852	32709	
603	0	32812	32748	
604	0	32822	32818	
605	0	32854	32775	
606	0	32800	32760	
607	0	32812	32844	
608	0	32768	32734	
609	0	32788	32807	
610	0	32820	32750	
611	0	32720	32718	
612	0	32878	32682	
613	0	32784	32812	
614	0	32798	32738	
615	0	32804	32750	
616	0	32856	32872	
617	0	32880	32800	
618	0	32834	32774	
619	0	32806	32872	
620	0	32836	32804	
621	0	32828	32814	
622	0	32772	32742	
623	0	32752	32682	
624	0	32836	32720	
625	0	32796	32775	
626	0	32866	32783	
627	0	32748	32775	
628	0	32878	32670	
629	0	32808	32713	
630	0	32838	32756	
631	0	32814	32838	
632	0	32856	32732	
633	0	32828	32730	
634	0	32844	32706	
635	0	32774	32772	
636	0	32776	32810	
637	0	32830	32804	
638	0	32768	32788	
639	0	32856	32720	
640	0	32836	32762	
641	0	32856	32790	
642	0	32820	32804	
643	0	32750	32775	
644	0	32758	32706	
645	0	32804	32692	
646	0	32812	32842	
647	0	32836	32748	
648	0	32790	32775	
649	0	32776	32689	
650	0	32790	32770	
651	0	32872	32830	
652	0	32828	32698	
653	0	32788	32762	
654	0	32804	32780	
655	0	32860	32710	
656	0	32816	32718	
657	0	32808	32850	
658	0	32802	32764	
659	0	32820	32806	
660	0	32792	32804	
661	0	32812	32692	
662	0	32796	32740	
663	0	32792	32850	
664	0	32728	32784	
665	0	32782	32788	
666	0	32828	32738	
667	0	32774	32839	
668	0	32732	32832	
669	0	32856	32825	
670	0	32776	32646	
671	0	32908	32752	
672	0	32860	32700	
673	0	32814	32860	
674	0	32804	32828	
675	0	32792	32800	
676	0	32752	32664	
677	0	32768	32818	
678	0	32828	32709	
679	0	32802	32754	
680	0	32836	32750	
681	0	32730	32810	
682	0	32828	32775	
683	0	32810	32847	
684	0	32808	32700	
685	0	32828	32700	
686	0	32800	32682	
687	0	32886	32792	
688	0	32796	32686	
689	0	32760	32688	
690	0	32820	32868	
691	0	32802	32816	
692	0	32794	32775	
693	0	32846	32838	
694	0	32808	32762	
695	0	32808	32806	
696	0	32836	32816	
697	0	32816	32751	
698	0	32816	32746	
699	0	32836	32726	
700	0	32812	32824	
701	0	32816	32766	
702	0	32792	32740	
703	0	32786	32814	
704	0	32828	32796	
705	0	32788	32743	
706	0	32892	32694	
707	0	32804	32930	
708	0	32808	32862	
709	0	32824	32752	
710	0	32788	32836	
711	0	32820	32775	
712	0	32768	32720	
713	0	32748	32752	
714	0	32804	32719	
715	0	32848	32695	
716	0	32802	32646	
717	0	32816	32876	
718	0	32800	32757	
719	0	32848	32775	
720	0	32810	32840	
721	0	32814	32721	
722	0	32800	32697	
723	0	32761	32658	
724	0	32816	32818	
725	0	32780	32882	
726	0	32840	32874	
727	0	32832	32826	
728	0	32786	32754	
729	0	32832	32730	
730	0	32784	32842	
731	0	32812	32824	
732	0	32872	32730	
733	0	32814	32726	
734	0	32812	32839	
735	0	32808	32631	
736	0	32812	32647	
737	0	32788	32736	
738	0	32816	32750	
739	0	32826	32852	
740	0	32840	32820	
741	0	32784	32734	
742	0	32810	32692	
743	0	32836	32790	
744	0	32862	32810	
745	0	32818	32840	
746	0	32812	32818	
747	0	32852	32852	
748	0	32772	32766	
749	0	32874	32729	
750	0	32804	32679	
751	0	32868	32702	
752	0	32812	32826	
753	0	32768	32796	
754	0	32878	32775	
755	0	32754	32756	
756	0	32772	32652	
757	0	32880	32686	
758	0	32844	32668	
759	0	32782	32822	
760	0	32812	32844	
761	0	32842	32716	
762	0	32790	32788	
763	0	32890	32828	
764	0	32898	32802	
765	0	32886	32732	
766	0	32808	32748	
767	0	32812	32719	
768	0	32836	32710	
769	0	32840	32684	
770	0	32772	32816	
771	0	32868	32756	
772	0	32784	32775	
773	0	32800	32846	
774	0	32804	32775	
775	0	32806	32722	
776	0	32810	32724	
777	0	32820	32674	
778	0	32848	32807	
779	0	32810	32782	
780	0	32812	32870	
781	0	32828	32758	
782	0	32796	32832	
783	0	32756	32852	
784	0	32816	32744	
785	0	32884	32734	
786	0	32801	32708	
787	0	32784	32644	
788	0	32824	32732	
789	0	32792	32792	
790	0	32844	32775	
791	0	32796	32695	
792	0	32785	32775	
793	0	32768	32695	
794	0	32844	32710	
795	0	32808	32751	
796	0	32826	32816	
797	0	32906	32750	
798	0	32792	32799	
799	0	32868	32756	
800	0	32804	32764	
801	0	32876	32756	
802	0	32776	32796	
803	0	32760	32838	
804	0	32840	32746	
805	0	32808	32808	
806	0	32784	32784	
807	0	32769	32624	
808	0	32810	32668	
809	0	32864	32782	
810	0	32808	32810	
811	0	32820	32775	
812	0	32784	32725	
813	0	32768	32708	
814	0	32884	32775	
815	0	32832	32732	
816	0	32800	32775	
817	0	32792	32712	
818	0	32840	32640	
819	0	32810	32774	
820	0	32746	32743	
821	0	32834	32852	
822	0	32712	32775	
823	0	32794	32730	
824	0	32916	32724	
825	0	32816	32816	
826	0	32841	32725	
827	0	32772	32772	
828	0	32804	32728	
829	0	32824	32788	
830	0	32828	32804	
831	0	32788	32734	
832	0	32798	32842	
833	0	32852	32764	
834	0	32752	32674	
835	0	32854	32832	
836	0	32822	32775	
837	0	32768	32640	
838	0	32800	32738	
839	0	32792	32800	
840	0	32824	32676	
841	0	32872	32744	
842	0	32860	32856	
843	0	32848	32836	
844	0	32820	32798	
845	0	32748	32712	
846	0	32852	32709	
847	0	32790	32732	
848	0	32792	32756	
849	0	32849	32734	
850	0	32748	32783	
851	0	32776	32699	
852	0	32758	32734	
853	0	32776	32870	
854	0	32808	32824	
855	0	32804	32715	
856	0	32812	32740	
857	0	32924	32766	
858	0	32812	32775	
859	0	32840	32682	
860	0	32790	32807	
861	0	32860	32824	
862	0	32810	32774	
863	0	32766	32670	
864	0	32804	32756	
865	0	32814	32903	
866	0	32801	32760	
867	0	32762	32770	
868	0	32780	32680	
869	0	32836	32701	
870	0	32828	32839	
871	0	32798	32775	
872	0	32796	32772	
873	0	32756	32720	
874	0	32830	32674	
875	0	32832	32688	
876	0	32864	32772	
877	0	32844	32760	
878	0	32816	32820	
879	0	32824	32794	
880	0	32833	32692	
881	0	32768	32836	
882	0	32824	32775	
883	0	32784	32906	
884	0	32824	32732	
885	0	32796	32762	
886	0	32776	32838	
887	0	32868	32754	
888	0	32806	32789	
889	0	32805	32862	
890	0	32784	32752	
891	0	32848	32696	
892	0	32784	32830	
893	0	32796	32794	
894	0	32836	32830	
895	0	32886	32798	
896	0	32858	32770	
897	0	32792	32678	
898	0	32846	32854	
899	0	32756	32796	
900	0	32796	32831	
901	0	32810	32788	
902	0	32760	32670	
903	0	32832	32732	
904	0	32834	32774	
905	0	32804	32800	
906	0	32846	32846	
907	0	32832	32769	
908	0	32804	32670	
909	0	32840	32730	
910	0	32844	32723	
911	0	32868	32844	
912	0	32828	32692	
913	0	32788	32672	
914	0	32842	32799	
915	0	32856	32816	
916	0	32828	32724	
917	0	32852	32824	
918	0	32790	32736	
919	0	32840	32846	
920	0	32844	32696	
921	0	32820	32654	
922	0	32816	32852	
923	0	32754	32741	
924	0	32780	32839	
925	0	32802	32762	
926	0	32784	32696	
927	0	32784	32740	
928	0	32816	32740	
929	0	32792	32759	
930	0	32830	32668	
931	0	32852	32710	
932	0	32764	32850	
933	0	32840	32766	
934	0	32906	32838	
935	0	32844	32854	
936	0	32794	32704	
937	0	32828	32703	
938	0	32848	32812	
939	0	32808	32808	
940	0	32808	32748	
941	0	32864	32660	
942	0	32780	32846	
943	0	32804	32820	
944	0	32788	32793	
945	0	32848	32772	
946	0	32756	32668	
947	0	32796	32718	
948	0	32824	32740	
949	0	32778	32754	
950	0	32804	32769	
951	0	32830	32666	
952	0	32810	32664	
953	0	32792	32824	
954	0	32816	32798	
955	0	32802	32775	
956	0	32798	32806	
957	0	32790	32758	
958	0	32752	32716	
959	0	32840	32688	
960	0	32816	32830	
961	0	32844	32788	
962	0	32814	32758	
963	0	32834	32806	
964	0	32824	32804	
965	0	32736	32727	
966	0	32816	32684	
967	0	32852	32708	
968	0	32824	32772	
969	0	32788	32750	
970	0	32822	32898	
971	0	32770	32838	
972	0	32820	32703	
973	0	32808	32708	
974	0	32828	32710	
975	0	32730	32775	
976	0	32808	32874	
977	0	32808	32806	
978	0	32836	32770	
979	0	32845	32879	
980	0	32808	32762	
981	0	32880	32723	
982	0	32792	32711	
983	0	32780	32746	
984	0	32849	32812	
985	0	32812	32852	
986	0	32808	32758	
987	0	32776	32796	
988	0	32808	32844	
989	0	32792	32756	
990	0	32836	32807	
991	0	32775	32644	
992	0	32794	32679	
993	0	32826	32738	
994	0	32808	32775	
995	0	32814	32760	
996	0	32820	32726	
997	0	32802	32812	
998	0	32824	32726	
999	0	32788	32844	
1000	0	32736	32801	
1001	0	32824	32722	
1002	0	32796	32825	
1003	0	32856	32686	
1004	0	32904	32679	
1005	0	32804	32821	
1006	0	32816	32756	
1007	0	32772	32852	
1008	0	32816	32876	
1009	0	32800	32728	
1010	0	32836	32732	
1011	0	32812	32738	
1012	0	32812	32775	
1013	0	32758	32664	
1014	0	32818	32802	
1015	0	32856	32823	
1016	0	32772	32788	
1017	0	32838	32718	
1018	0	32832	32772	
1019	0	32808	32716	
1020	0	32780	32718	
1021	0	32780	32730	
1022	0	32788	32826	
1023	0	32756	32748	
1024	0	32800	32716	
1025	0	32792	32816	
1026	0	32820	32772	
1027	0	32836	32706	
1028	0	32860	32692	
1029	0	32840	32803	
1030	0	32903	32751	
1031	0	32804	32772	
1032	0	32836	32759	
1033	0	32826	32886	
1034	0	32900	32680	
1035	0	32844	32740	
1036	0	32786	32712	
1037	0	32861	32752	
1038	0	32820	32716	
1039	0	32826	32840	
1040	0	32856	32852	
1041	0	32848	32764	
1042	0	32836	32704	
1043	0	32846	32774	
1044	0	32842	32694	
1045	0	32768	32834	
1046	0	32748	32832	
1047	0	32792	32766	
1048	0	32768	32774	
1049	0	32800	32816	
1050	0	32794	32798	
1051	0	32800	32752	
1052	0	32760	32716	
1053	0	32852	32658	
1054	0	32802	32729	
1055	0	32768	32881	
1056	0	32852	32758	
1057	0	32778	32752	
1058	0	32810	32774	
1059	0	32810	32820	
1060	0	32852	32688	
1061	0	32798	32744	
1062	0	32780	32758	
1063	0	32826	32806	
1064	0	32836	32656	
1065	0	32812	32798	
1066	0	32804	32734	
1067	0	32804	32774	
1068	0	32780	32715	
1069	0	32756	32696	
1070	0	32736	32864	
1071	0	32804	32775	
1072	0	32832	32816	
1073	0	32916	32792	
1074	0	32828	32728	
1075	0	32804	32760	
1076	0	32872	32806	
1077	0	32856	32756	
1078	0	32836	32807	
1079	0	32872	32758	
1080	0	32820	32712	
1081	0	32832	32808	
1082	0	32816	32796	
1083	0	32816	32788	
1084	0	32800	32753	
1085	0	32774	32772	
1086	0	32828	32810	
1087	0	32816	32774	
1088	0	32828	32724	
1089	0	32776	32716	
1090	0	32752	32688	
1091	0	32752	32706	
1092	0	32844	32700	
1093	0	32802	32830	
1094	0	32762	32786	
1095	0	32776	32800	
1096	0	32770	32814	
1097	0	32860	32784	
1098	0	32828	32840	
1099	0	32836	32770	
1100	0	32800	32725	
1101	0	32868	32654	
1102	0	32820	32724	
1103	0	32808	32775	
1104	0	32752	32818	
1105	0	32798	32750	
1106	0	32826	32740	
1107	0	32744	32792	
1108	0	32784	32732	
1109	0	32876	32698	
1110	0	32756	32728	
1111	0	32880	32728	
1112	0	32716	32788	
1113	0	32844	32756	
1114	0	32800	32814	
1115	0	32744	32790	
1116	0	32804	32788	
1117	0	32840	32804	
1118	0	32796	32812	
1119	0	32784	32775	
1120	0	32824	32756	
1121	0	32776	32720	
1122	0	32878	32850	
1123	0	32850	32806	
1124	0	32872	32775	
1125	0	32820	32800	
1126	0	32836	32775	
1127	0	32808	32696	
1128	0	32756	32819	
1129	0	32816	32744	
1130	0	32864	32762	
1131	0	32856	32732	
1132	0	32796	32647	
1133	0	32764	32636	
1134	0	32796	32676	
1135	0	32764	32822	
1136	0	32888	32739	
1137	0	32720	32765	
1138	0	32812	32822	
1139	0	32808	32769	
1140	0	32896	32870	
1141	0	32828	32835	
1142	0	32884	32838	
1143	0	32740	32828	
1144	0	32780	32796	
1145	0	32836	32647	
1146	0	32866	32734	
1147	0	32802	32849	
1148	0	32828	32810	
1149	0	32806	32807	
1150	0	32820	32816	
1151	0	32816	32775	
1152	0	32764	32666	
1153	0	32800	32716	
1154	0	32756	32760	
1155	0	32736	32750	
1156	0	32884	32769	
1157	0	32860	32705	
1158	0	32752	32666	
1159	0	32774	32775	
1160	0	32808	32796	
1161	0	32848	32804	
1162	0	32820	32806	
1163	0	32784	32664	
1164	0	32788	32708	
1165	0	32852	32799	
1166	0	32868	32756	
1167	0	32832	32798	
1168	0	32836	32844	
1169	0	32870	32742	
1170	0	32772	32679	
1171	0	32804	32802	
1172	0	32801	32872	
1173	0	32720	32742	
1174	0	32808	32772	
1175	0	32832	32794	
1176	0	32844	32642	
1177	0	32732	32668	
1178	0	32804	32730	
1179	0	32828	32834	
1180	0	32832	32790	
1181	0	32824	32734	
1182	0	32796	32870	
1183	0	32808	32775	
1184	0	32804	32728	
1185	0	32808	32688	
1186	0	32768	32816	
1187	0	32780	32832	
1188	0	32836	32743	
1189	0	32820	32712	
1190	0	32864	32807	
1191	0	32870	32732	
1192	0	32810	32785	
1193	0	32870	32924	
1194	0	32812	32775	
1195	0	32840	32674	
1196	0	32808	32678	
1197	0	32756	32775	
1198	0	32832	32790	
1199	0	32798	32798	
1200	0	32784	32764	
1201	0	32784	32756	
1202	0	32772	32708	
1203	0	32820	32687	
1204	0	32830	32784	
1205	0	32810	32838	
1206	0	32824	32725	
1207	0	32898	32706	
1208	0	32810	32704	
1209	0	32820	32818	
1210	0	32804	32775	
1211	0	32826	32822	
1212	0	32792	32754	
1213	0	32868	32808	
1214	0	32844	32734	
1215	0	32804	32826	
1216	0	32856	32748	
1217	0	32764	32742	
1218	0	32780	32850	
1219	0	32818	32758	
1220	0	32786	32748	
1221	0	32834	32647	
1222	0	32792	32703	
1223	0	32802	32768	
1224	0	32788	32788	
1225	0	32780	32840	
1226	0	32832	32786	
1227	0	32820	32766	
1228	0	32762	32654	
1229	0	32788	32678	
1230	0	32816	32774	
1231	0	32832	32744	
1232	0	32770	32746	
1233	0	32840	32775	
1234	0	32802	32742	
1235	0	32856	32678	
1236	0	32860	32719	
1237	0	32844	32775	
1238	0	32816	32730	
1239	0	32844	32748	
1240	0	32816	32697	
1241	0	32808	32766	
1242	0	32772	32756	
1243	0	32822	32828	
1244	0	32836	32718	
1245	0	32776	32871	
1246	0	32792	32790	
1247	0	32820	32702	
1248	0	32869	32816	
1249	0	32792	32756	
1250	0	32816	32756	
1251	0	32828	32775	
1252	0	32824	32804	
1253	0	32836	32774	
1254	0	32823	32770	
1255	0	32824	32696	
1256	0	32766	32748	
1257	0	32856	32775	
1258	0	32784	32774	
1259	0	32820	32820	
1260	0	32812	32664	
1261	0	32780	32711	
1262	0	32772	32775	
1263	0	32848	32834	
1264	0	32812	32748	
1265	0	32784	32736	
1266	0	32856	32654	
1267	0	32782	32712	
1268	0	32802	32784	
1269	0	32838	32775	
1270	0	32748	32848	
1271	0	32752	32714	
1272	0	32772	32710	
1273	0	32808	32804	
1274	0	32800	32766	
1275	0	32762	32823	
1276	0	32834	32722	
1277	0	32808	32762	
1278	0	32792	32870	
1279	0	32892	32807	
1280	0	32808	32752	
1281	0	32824	32672	
1282	0	32780	32767	
1283	0	32872	32766	
1284	0	32842	32774	
1285	0	32766	32690	
1286	0	32818	32772	
1287	0	32780	32798	
1288	0	32808	32818	
1289	0	32740	32840	
1290	0	32816	32740	
1291	0	32788	32875	
1292	0	32820	32775	
1293	0	32824	32831	
1294	0	32890	32854	
1295	0	32844	32758	
1296	0	32888	32760	
1297	0	32760	32839	
1298	0	32830	32788	
1299	0	32796	32884	
1300	0	32752	32740	
1301	0	32798	32684	
1302	0	32788	32804	
1303	0	32798	32756	
1304	0	32868	32678	
1305	0	32770	32769	
1306	0	32852	32618	
1307	0	32832	32684	
1308	0	32876	32750	
1309	0	32848	32744	
1310	0	32878	32698	
1311	0	32876	32640	
1312	0	32872	32604	
1313	0	32862	32704	
1314	0	32960	32641	
1315	0	32932	32615	
1316	0	32930	32666	
1317	0	32940	32580	
1318	0	32998	32580	
1319	0	32984	32553	
1320	0	32880	32640	
1321	0	32960	32746	
1322	0	32900	32618	
1323	0	32936	32624	
1324	0	32830	32708	
1325	0	32882	32743	
1326	0	32884	32748	
1327	0	32844	32654	
1328	0	32816	32881	
1329	0	32692	32903	
1330	0	32648	32948	
1331	0	32630	33002	
1332	0	32542	32945	
1333	0	32504	33063	
1334	0	32446	33200	
1335	0	32432	33322	
1336	0	32282	33736	
1337	0	32409	33378	
1338	0	32600	33276	
1339	0	32656	33018	
1340	0	32700	32976	
1341	0	32708	32838	
1342	0	32768	32728	
1343	0	32812	32924	
1344	0	32814	32846	
1345	0	32752	32764	
1346	0	32836	32791	
1347	0	32888	32615	
1348	0	32878	32592	
1349	0	32868	32608	
1350	0	32952	32500	
1351	0	32940	32544	
1352	0	32994	32511	
1353	0	32994	32506	
1354	0	32900	32596	
1355	0	32988	32560	
1356	0	32960	32592	
1357	0	32988	32614	
1358	0	32956	32519	
1359	0	32929	32575	
1360	0	32900	32751	
1361	0	32914	32664	
1362	0	32897	32718	
1363	0	32852	32732	
1364	0	32836	32622	
1365	0	32780	32705	
1366	0	32824	32775	
1367	0	32890	32695	
1368	0	32796	32767	
1369	0	32786	32746	
1370	0	32808	32732	
1371	0	32834	32732	
1372	0	32702	32834	
1373	0	32858	32756	
1374	0	32794	32768	
1375	0	32705	32806	
1376	0	32800	32736	
1377	0	32828	32692	
1378	0	32856	32810	
1379	0	32824	32822	
1380	0	32760	32768	
1381	0	32876	32775	
1382	0	32764	32676	
1383	0	32820	32884	
1384	0	32772	32752	
1385	0	32832	32816	
1386	0	32776	32764	
1387	0	32774	32692	
1388	0	32764	32864	
1389	0	32808	32840	
1390	0	32796	32746	
1391	0	32706	32839	
1392	0	32780	32720	
1393	0	32812	32670	
1394	0	32796	32760	
1395	0	32824	32805	
1396	0	32892	32882	
1397	0	32812	32767	
1398	0	32817	32738	
1399	0	32868	32788	
1400	0	32816	32781	
1401	0	32804	32862	
1402	0	32820	32766	
1403	0	32788	32725	
1404	0	32774	32838	
1405	0	32816	32755	
1406	0	32790	32829	
1407	0	32788	32772	
1408	0	32858	32794	
1409	0	32832	32807	
1410	0	32804	32652	
1411	0	32792	32764	
1412	0	32756	32641	
1413	0	32842	32769	
1414	0	32872	32774	
1415	0	32780	32684	
1416	0	32790	32743	
1417	0	32824	32775	
1418	0	32772	32708	
1419	0	32792	32828	
1420	0	32790	32790	
1421	0	32904	32774	
1422	0	32816	32842	
1423	0	32800	32710	
1424	0	32826	32644	
1425	0	32766	32854	
1426	0	32756	32846	
1427	0	32775	32750	
1428	0	32732	32762	
1429	0	32850	32721	
1430	0	32854	32786	
1431	0	32786	32775	
1432	0	32828	32772	
1433	0	32844	32716	
1434	0	32800	32704	
1435	0	32776	32810	
1436	0	32820	32716	
1437	0	32740	32794	
1438	0	32802	32863	
1439	0	32802	32812	
1440	0	32782	32742	
1441	0	32762	32709	
1442	0	32888	32756	
1443	0	32814	32792	
1444	0	32722	32775	
1445	0	32732	32758	
1446	0	32744	32714	
1447	0	32836	32824	
1448	0	32848	32838	
1449	0	32792	32847	
1450	0	32820	32810	
1451	0	32808	32696	
1452	0	32744	32666	
1453	0	32842	32694	
1454	0	32820	32858	
1455	0	32826	32756	
1456	0	32814	32738	
1457	0	32753	32688	
1458	0	32792	32750	
1459	0	32776	32792	
1460	0	32808	32662	
1461	0	32834	32762	
1462	0	32808	32784	
1463	0	32764	32700	
1464	0	32796	32746	
1465	0	32764	32868	
1466	0	32808	32770	
1467	0	32838	32770	
1468	0	32804	32695	
1469	0	32796	32806	
1470	0	32840	32740	
1471	0	32822	32818	
1472	0	32766	32764	
1473	0	32792	32721	
1474	0	32832	32762	
1475	0	32844	32820	
1476	0	32808	32830	
1477	0	32858	32625	
1478	0	32828	32812	
1479	0	32820	32794	
1480	0	32838	32750	
1481	0	32808	32726	
1482	0	32760	32723	
1483	0	32832	32826	
1484	0	32856	32804	
1485	0	32780	32871	
1486	0	32760	32775	
1487	0	32788	32636	
1488	0	32820	32751	
1489	0	32800	32736	
1490	0	32794	32772	
1491	0	32744	32836	
1492	0	32826	32668	
1493	0	32836	32738	
1494	0	32836	32868	
1495	0	32812	32814	
1496	0	32800	32786	
1497	0	32836	32849	
1498	0	32792	32726	
1499	0	32798	32678	
1500	0	32856	32828	
1501	0	32820	32772	
1502	0	32784	32814	
1503	0	32868	32725	
1504	0	32772	32702	
1505	0	32740	32800	
1506	0	32838	32752	
1507	0	32756	32764	
1508	0	32730	32680	
1509	0	32764	32740	
1510	0	32750	32807	
1511	0	32784	32738	
1512	0	32716	32750	
1513	0	32694	32762	
1514	0	32742	32644	
1515	0	32816	32768	
1516	0	32798	32794	
1517	0	32792	32782	
1518	0	32866	32796	
1519	0	32884	32770	
1520	0	32868	32768	
1521	0	32940	32784	
1522	0	32848	32694	
1523	0	32808	32824	
1524	0	32928	32822	
1525	0	32876	32664	
1526	0	32872	32738	
1527	0	32893	32744	
1528	0	32800	32756	
1529	0	32890	32794	
1530	0	32880	32815	
1531	0	32868	32712	
1532	0	32888	32721	
1533	0	32884	32726	
1534	0	32866	32782	
1535	0	32848	32876	
1536	0	32844	32710	
1537	0	32804	32724	
1538	0	32856	32871	
1539	0	32906	32807	
1540	0	32888	32746	
1541	0	32802	32686	
1542	0	32832	32679	
1543	0	32852	32810	
1544	0	32776	32771	
1545	0	32778	32740	
1546	0	32793	32806	
1547	0	32840	32786	
1548	0	32860	32664	
1549	0	32808	32694	
1550	0	32841	32856	
1551	0	32868	32824	
1552	0	32872	32764	
1553	0	32788	32788	
1554	0	32822	32764	
1555	0	32876	32775	
1556	0	32846	32682	
1557	0	32880	32698	
1558	0	32880	32714	
1559	0	32936	32810	
1560	0	32920	32755	
1561	0	32872	32796	
1562	0	32920	32816	
1563	0	32880	32682	
1564	0	32810	32692	
1565	0	32796	32692	
1566	0	32776	32812	
1567	0	32821	32764	
1568	0	32798	32764	
1569	0	32752	32823	
1570	0	32770	32775	
1571	0	32812	32746	
1572	0	32750	32638	
1573	0	32776	32679	
1574	0	32802	32814	
1575	0	32846	32808	
1576	0	32756	32789	
1577	0	32796	32750	
1578	0	32824	32834	
1579	0	32922	32775	
1580	0	32848	32655	
1581	0	32810	32721	
1582	0	32894	32903	
1583	0	32872	32816	
1584	0	32904	32902	
1585	0	32812	32770	
1586	0	32788	32764	
1587	0	32806	32839	
1588	0	32762	32754	
1589	0	32804	32758	
1590	0	32760	32691	
1591	0	32750	32732	
1592	0	32858	32825	
1593	0	32788	32724	
1594	0	32772	32763	
1595	0	32809	32756	
1596	0	32748	32764	
1597	0	32834	32838	
1598	0	32856	32796	
1599	0	32836	32768	
1600	0	32868	32815	
1601	0	32852	32800	
1602	0	32840	32775	
1603	0	32816	32798	
1604	0	32798	32806	
1605	0	32774	32753	
1606	0	32856	32759	
1607	0	32800	32807	
1608	0	32842	32767	
1609	0	32908	32700	
1610	0	32792	32684	
1611	0	32861	32622	
1612	0	32808	32712	
1613	0	32758	32689	
1614	0	32756	32813	
1615	0	32792	32734	
1616	0	32788	32774	
1617	0	32794	32742	
1618	0	32828	32820	
1619	0	32780	32711	
1620	0	32764	32774	
1621	0	32794	32708	
1622	0	32878	32712	
1623	0	32812	32799	
1624	0	32740	32742	
1625	0	32816	32830	
1626	0	32804	32788	
1627	0	32801	32716	
1628	0	32768	32704	
1629	0	32778	32836	
1630	0	32760	32804	
1631	0	32804	32764	
1632	0	32816	32826	
1633	0	32746	32834	
1634	0	32705	32696	
1635	0	32768	32769	
1636	0	32746	32708	
1637	0	32776	32740	
1638	0	32796	32711	
1639	0	32808	32772	
1640	0	32866	32892	
1641	0	32920	32868	
1642	0	32856	32868	
1643	0	32812	32736	
1644	0	32796	32769	
1645	0	32888	32719	
1646	0	32872	32790	
1647	0	32908	32825	
1648	0	32880	32768	
1649	0	32866	32817	
1650	0	32812	32812	
1651	0	32728	32708	
1652	0	32844	32674	
1653	0	32708	32646	
1654	0	32712	32648	
1655	0	32784	32620	
1656	0	32640	32870	
1657	0	32708	32850	
1658	0	32698	32732	
1659	0	32698	32771	
1660	0	32712	32868	
1661	0	32728	32844	
1662	0	32728	32775	
1663	0	32728	32814	
1664	0	32692	32704	
1665	0	32768	32834	
1666	0	32800	32753	
1667	0	32764	32708	
1668	0	32720	32732	
1669	0	32774	32724	
1670	0	32872	32775	
1671	0	32800	32774	
1672	0	32768	32775	
1673	0	32820	32724	
1674	0	32794	32672	
1675	0	32812	32676	
1676	0	32784	32800	
1677	0	32812	32816	
1678	0	32836	32837	
1679	0	32836	32696	
1680	0	32784	32816	
1681	0	32856	32689	
1682	0	32808	32692	
1683	0	32810	32810	
1684	0	32836	32734	
1685	0	32842	32710	
1686	0	32826	32774	
1687	0	32849	32700	
1688	0	32832	32666	
1689	0	32884	32628	
1690	0	32808	32636	
1691	0	32822	32734	
1692	0	32684	32710	
1693	0	32798	32630	
1694	0	32824	32718	
1695	0	32754	32722	
1696	0	32760	32647	
1697	0	32674	32628	
1698	0	32804	32630	
1699	0	32674	32756	
1700	0	32830	32862	
1701	0	32752	32770	
1702	0	32804	32720	
1703	0	32796	32791	
1704	0	32744	32792	
1705	0	32732	32732	
1706	0	32784	32628	
1707	0	32768	32640	
1708	0	32714	32734	
1709	0	32836	32796	
1710	0	32782	32822	
1711	0	32688	32710	
1712	0	32726	32630	
1713	0	32814	32874	
1714	0	32784	32814	
1715	0	32836	32822	
1716	0	32764	32706	
1717	0	32746	32774	
1718	0	32800	32820	
1719	0	32742	32738	
1720	0	32798	32670	
1721	0	32772	32660	
1722	0	32888	32811	
1723	0	32818	32743	
1724	0	32792	32766	
1725	0	32820	32710	
1726	0	32760	32854	
1727	0	32756	32798	
1728	0	32772	32794	
1729	0	32830	32760	
1730	0	32840	32848	
1731	0	32836	32647	
1732	0	32758	32694	
1733	0	32754	32771	
1734	0	32784	32764	
1735	0	32826	32760	
1736	0	32748	32690	
1737	0	32802	32824	
1738	0	32682	32807	
1739	0	32720	32762	
1740	0	32664	32723	
1741	0	32738	32924	
1742	0	32780	32826	
1743	0	32794	32848	
1744	0	32776	32728	
1745	0	32800	32752	
1746	0	32796	32892	
1747	0	32840	32852	
1748	0	32880	32824	
1749	0	32898	32768	
1750	0	32902	32876	
1751	0	32836	32816	
1752	0	32918	32775	
1753	0	32896	32920	
1754	0	32852	32784	
1755	0	32862	32880	
1756	0	32828	32775	
1757	0	32768	32732	
1758	0	32840	32890	
1759	0	32828	32879	
1760	0	32862	32932	
1761	0	33008	32806	
1762	0	32932	32897	
1763	0	32900	32806	
1764	0	32968	32944	
1765	0	32820	32744	
1766	0	32792	32902	
1767	0	32908	32852	
1768	0	32900	32823	
1769	0	32816	32704	
1770	0	32852	32872	
1771	0	32808	32810	
1772	0	32784	32858	
1773	0	32848	32752	
1774	0	32816	32822	
1775	0	32842	32740	
1776	0	32820	32864	
1777	0	32872	32854	
1778	0	32848	32706	
1779	0	32808	32876	
1780	0	32784	32836	
1781	0	32814	32862	
1782	0	32806	32798	
1783	0	32896	32740	
1784	0	32878	32794	
1785	0	32892	32775	
1786	0	32886	32836	
1787	0	32860	32660	
1788	0	32870	32732	
1789	0	32876	32906	
1790	0	32896	32751	
1791	0	32848	32759	
1792	0	32808	32804	
1793	0	32800	32656	
1794	0	32824	32864	
1795	0	32840	32822	
1796	0	32908	32814	
1797	0	32898	32762	
1798	0	32850	32709	
1799	0	32885	32692	
1800	0	32932	32848	
1801	0	32910	32736	
1802	0	32938	32807	
1803	0	32884	32668	
1804	0	32868	32887	
1805	0	32872	32775	
1806	0	32874	32828	
1807	0	32776	32830	
1808	0	32834	32740	
1809	0	32812	32832	
1810	0	32762	32766	
1811	0	32790	32831	
1812	0	32824	32647	
1813	0	32868	32846	
1814	0	32896	32832	
1815	0	32864	32823	
1816	0	32817	32775	
1817	0	32854	32808	
1818	0	32772	32804	
1819	0	32804	32775	
1820	0	32756	32810	
1821	0	32740	32697	
1822	0	32800	32688	
1823	0	32754	32784	
1824	0	32839	32794	
1825	0	32838	32775	
1826	0	32808	32866	
1827	0	32768	32791	
1828	0	32772	32755	
1829	0	32772	32856	
1830	0	32748	32894	
1831	0	32846	32700	
1832	0	32840	32775	
1833	0	32760	32846	
1834	0	32736	32678	
1835	0	32714	32692	
1836	0	32674	32790	
1837	0	32740	32775	
1838	0	32712	32725	
1839	0	32732	32716	
1840	0	32774	32800	
1841	0	32804	32728	
1842	0	32808	32822	
1843	0	32824	32760	
1844	0	32848	32745	
1845	0	32852	32810	
1846	0	32964	32714	
1847	0	32868	32874	
1848	0	32864	32828	
1849	0	32784	32775	
1850	0	32748	32654	
1851	0	32788	32768	
1852	0	32852	32816	
1853	0	32884	32856	
1854	0	32810	32746	
1855	0	32884	32652	
1856	0	32900	32786	
1857	0	32788	32801	
1858	0	32900	32814	
1859	0	32884	32698	
1860	0	32880	32740	
1861	0	32860	32764	
1862	0	32872	32812	
1863	0	32848	32668	
1864	0	32832	32692	
1865	0	32968	32844	
1866	0	32880	32750	
1867	0	32868	32796	
1868	0	32902	32708	
1869	0	32906	32712	
1870	0	32908	32672	
1871	0	32896	32830	
1872	0	32826	32647	
1873	0	32774	32687	
1874	0	32792	32854	
1875	0	32792	32838	
1876	0	32832	32814	
1877	0	32788	32676	
1878	0	32864	32794	
1879	0	32788	32664	
1880	0	32678	32771	
1881	0	32756	32681	
1882	0	32752	32647	
1883	0	32770	32800	
1884	0	32754	32719	
1885	0	32776	32822	
1886	0	32796	32752	
1887	0	32840	32663	
1888	0	32812	32796	
1889	0	32852	32766	
1890	0	32816	32696	
1891	0	32828	32670	
1892	0	32878	32808	
1893	0	32808	32740	
1894	0	32812	32824	
1895	0	32802	32736	
1896	0	32782	32839	
1897	0	32752	32671	
1898	0	32808	32808	
1899	0	32834	32647	
1900	0	32860	32730	
1901	0	32928	32810	
1902	0	32776	32760	
1903	0	32884	32842	
1904	0	32778	32775	
1905	0	32788	32804	
1906	0	32828	32708	
1907	0	32864	32708	
1908	0	32868	32692	
1909	0	32800	32700	
1910	0	32832	32768	
1911	0	32736	32720	
1912	0	32730	32832	
1913	0	32760	32706	
1914	0	32758	32692	
1915	0	32830	32726	
1916	0	32748	32742	
1917	0	32798	32714	
1918	0	32698	32719	
1919	0	32766	32742	
1920	0	32790	32736	
1921	0	32788	32794	
1922	0	32784	32838	
1923	0	32806	32775	
1924	0	32844	32722	
1925	0	32906	32760	
1926	0	32834	32647	
1927	0	32828	32662	
1928	0	32868	32742	
1929	0	32856	32831	
1930	0	32918	32722	
1931	0	32852	32756	
1932	0	32938	32796	
1933	0	32938	32672	
1934	0	32960	32732	
1935	0	33016	32800	
1936	0	32992	32718	
1937	0	33020	32788	
1938	0	32976	32738	
1939	0	33012	32704	
1940	0	32956	32858	
1941	0	33040	32790	
1942	0	32960	32770	
1943	0	33008	32838	
1944	0	33054	32684	
1945	0	33070	32684	
1946	0	32976	32762	
1947	0	32918	32682	
1948	0	32938	32756	
1949	0	32840	32810	
1950	0	32856	32662	
1951	0	32812	32618	
1952	0	32796	32746	
1953	0	32812	32798	
1954	0	32780	32814	
1955	0	32696	32732	
1956	0	32760	32748	
1957	0	32757	32772	
1958	0	32820	32722	
1959	0	32808	32798	
1960	0	32804	32736	
1961	0	32798	32753	
1962	0	32748	32810	
1963	0	32834	32702	
1964	0	32720	32708	
1965	0	32752	32860	
1966	0	32790	32775	
1967	0	32760	32818	
1968	0	32806	32764	
1969	0	32716	32710	
1970	0	32744	32678	
1971	0	32660	32860	
1972	0	32692	32828	
1973	0	32804	32870	
1974	0	32724	32756	
1975	0	32772	32880	
1976	0	32789	32654	
1977	0	32812	32647	
1978	0	32760	32738	
1979	0	32756	32860	
1980	0	32734	32860	
1981	0	32776	32708	
1982	0	32772	32762	
1983	0	32734	32815	
1984	0	32784	32688	
1985	0	32768	32728	
1986	0	32746	32847	
1987	0	32800	32786	
1988	0	32743	32700	
1989	0	32754	32756	
1990	0	32752	32756	
1991	0	32680	32846	
1992	0	32728	32807	
1993	0	32728	32796	
1994	0	32712	32690	
1995	0	32720	32726	
1996	0	32858	32723	
1997	0	32824	32810	
1998	0	32800	32754	
1999	0	32772	32830	
2000	0	32768	32772	
2001	0	32744	32753	
2002	0	32772	32696	
2003	0	32694	32784	
2004	0	32732	32843	
2005	0	32744	32784	
2006	0	32816	32774	
2007	0	32760	32718	
2008	0	32768	32820	
2009	0	32740	32806	
2010	0	32654	32679	
2011	0	32780	32602	
2012	0	32834	32861	
2013	0	32836	32736	
2014	0	32806	32898	
2015	0	32808	32792	
2016	0	32798	32775	
2017	0	32728	32689	
2018	0	32704	32894	
2019	0	32760	32796	
2020	0	32794	32750	
2021	0	32740	32766	
2022	0	32744	32775	
2023	0	32824	32730	
2024	0	32800	32610	
2025	0	32828	32652	
2026	0	32696	32723	
2027	0	32792	32728	
2028	0	32752	32768	
2029	0	32756	32764	
2030	0	32768	32789	
2031	0	32740	32756	
2032	0	32816	32798	
2033	0	32780	32722	
2034	0	32704	32683	
2035	0	32792	32690	
2036	0	32826	32762	
2037	0	32756	32752	
2038	0	32776	32758	
2039	0	32778	32788	
2040	0	32790	32810	
2041	0	32780	32732	
2042	0	32800	32746	
2043	0	32713	32868	
2044	0	32764	32857	
2045	0	32796	32786	
2046	0	32808	32766	
2047	0	32782	32842	
2048	0	32890	32756	
2049	0	32844	32700	
2050	0	32730	32647	
2051	0	32736	32710	
2052	0	32784	32804	
2053	0	32800	32824	
2054	0	32710	32750	
2055	0	32824	32750	
2056	0	32738	32748	
2057	0	32848	32810	
2058	0	32818	32862	
2059	0	32856	32698	
2060	0	32880	32705	
2061	0	32974	32870	
2062	0	32920	32772	
2063	0	32868	32786	
2064	0	32820	32800	
2065	0	32832	32774	
2066	0	32856	32600	
2067	0	32714	32684	
2068	0	32752	32874	
2069	0	32856	32760	
2070	0	32842	32680	
2071	0	32686	32748	
2072	0	32700	32764	
2073	0	32742	32871	
2074	0	32728	32766	
2075	0	32744	32743	
2076	0	32808	32736	
2077	0	32836	32682	
2078	0	32768	32662	
2079	0	32756	32636	
2080	0	32784	32835	
2081	0	32824	32800	
2082	0	32744	32761	
2083	0	32816	32774	
2084	0	32776	32815	
2085	0	32828	32696	
2086	0	32784	32686	
2087	0	32746	32624	
2088	0	32812	32732	
2089	0	32802	32748	
2090	0	32804	32764	
2091	0	32810	32836	
2092	0	32784	32774	
2093	0	32860	32823	
2094	0	32828	32670	
2095	0	32888	32692	
2096	0	32850	32775	
2097	0	32856	32718	
2098	0	32784	32894	
2099	0	32698	32722	
2100	0	32744	32734	
2101	0	32768	32682	
2102	0	32752	32770	
2103	0	32802	32868	
2104	0	32824	32774	
2105	0	32780	32820	
2106	0	32812	32704	
2107	0	32778	32656	
2108	0	32844	32682	
2109	0	32812	32847	
2110	0	32840	32775	
2111	0	32821	32718	
2112	0	32836	32699	
2113	0	32772	32710	
2114	0	32830	32775	
2115	0	32856	32766	
2116	0	32812	32775	
2117	0	32792	32832	
2118	0	32760	32788	
2119	0	32832	32650	
2120	0	32812	32700	
2121	0	32748	32716	
2122	0	32824	32808	
2123	0	32772	32812	
2124	0	32824	32660	
2125	0	32820	32774	
2126	0	32856	32760	
2127	0	32828	32775	
2128	0	32880	32834	
2129	0	32744	32710	
2130	0	32832	32716	
2131	0	32860	32678	
2132	0	32846	32812	
2133	0	32764	32804	
2134	0	32852	32770	
2135	0	32740	32806	
2136	0	32768	32814	
2137	0	32792	32682	
2138	0	32786	32751	
2139	0	32766	32658	
2140	0	32788	32816	
2141	0	32778	32844	
2142	0	32816	32830	
2143	0	32756	32793	
2144	0	32822	32812	
2145	0	32852	32868	
2146	0	32808	32835	
2147	0	32687	32684	
2148	0	32720	32711	
2149	0	32836	32724	
2150	0	32782	32681	
2151	0	32816	32791	
2152	0	32782	32810	
2153	0	32740	32756	
2154	0	32768	32748	
2155	0	32840	32824	
2156	0	32832	32762	
2157	0	32840	32686	
2158	0	32832	32737	
2159	0	32820	32702	
2160	0	32826	32804	
2161	0	32836	32772	
2162	0	32844	32834	
2163	0	32816	32806	
2164	0	32836	32820	
2165	0	32822	32800	
2166	0	32788	32743	
2167	0	32804	32718	
2168	0	32772	32815	
2169	0	32760	32810	
2170	0	32782	32732	
2171	0	32748	32742	
2172	0	32808	32774	
2173	0	32762	32768	
2174	0	32832	32653	
2175	0	32802	32696	
2176	0	32784	32832	
2177	0	32796	32824	
2178	0	32824	32756	
2179	0	32806	32822	
2180	0	32804	32800	
2181	0	32856	32725	
2182	0	32844	32772	
2183	0	32836	32651	
2184	0	32788	32860	
2185	0	32804	32744	
2186	0	32828	32774	
2187	0	32917	32702	
2188	0	32816	32748	
2189	0	32840	32654	
2190	0	32848	32724	
2191	0	32856	32674	
2192	0	32940	32647	
2193	0	32900	32692	
2194	0	32958	32600	
2195	0	32952	32536	
2196	0	33032	32556	
2197	0	33032	32564	
2198	0	33020	32614	
2199	0	32926	32598	
2200	0	32914	32718	
2201	0	32874	32656	
2202	0	32852	32622	
2203	0	32888	32774	
2204	0	32912	32722	
2205	0	32916	32656	
2206	0	32908	32647	
2207	0	32806	32716	
2208	0	32814	32866	
2209	0	32748	32904	
2210	0	32650	33044	
2211	0	32588	32974	
2212	0	32530	32910	
2213	0	32488	33104	
2214	0	32516	33242	
2215	0	32288	33520	
2216	0	32260	33628	
2217	0	32368	33356	
2218	0	32528	33182	
2219	0	32648	33047	
2220	0	32702	32903	
2221	0	32604	32884	
2222	0	32752	32892	
2223	0	32678	32952	
2224	0	32740	32896	
2225	0	32748	32764	
2226	0	32816	32666	
2227	0	32884	32572	
2228	0	32920	32554	
2229	0	32896	32598	
2230	0	32880	32494	
2231	0	32948	32453	
2232	0	33088	32554	
2233	0	33024	32497	
2234	0	33036	32448	
2235	0	32952	32452	
2236	0	32948	32554	
2237	0	32992	32650	
2238	0	32878	32647	
2239	0	32834	32644	
2240	0	32952	32542	
2241	0	32992	32634	
2242	0	32944	32689	
2243	0	32896	32716	
2244	0	32878	32732	
2245	0	32870	32766	
2246	0	32876	32710	
2247	0	32924	32628	
2248	0	32892	32663	
2249	0	32932	32791	
2250	0	32784	32754	
2251	0	32756	32836	
2252	0	32752	32864	
2253	0	32708	32738	
2254	0	32786	32734	
2255	0	32792	32858	
2256	0	32788	32858	
2257	0	32828	32742	
2258	0	32816	32784	
2259	0	32836	32700	
2260	0	32794	32772	
2261	0	32720	32868	
2262	0	32808	32808	
2263	0	32716	32870	
2264	0	32772	32710	
2265	0	32760	32858	
2266	0	32837	32800	
2267	0	32788	32826	
2268	0	32800	32786	
2269	0	32756	32720	
2270	0	32812	32718	
2271	0	32804	32836	
2272	0	32804	32786	
2273	0	32812	32802	
2274	0	32812	32762	
2275	0	32796	32682	
2276	0	32848	32812	
2277	0	32772	32736	
2278	0	32848	32743	
2279	0	32780	32690	
2280	0	32808	32711	
2281	0	32817	32884	
2282	0	32860	32700	
2283	0	32808	32912	
2284	0	32882	32678	
2285	0	32916	32715	
2286	0	32828	32830	
2287	0	32840	32860	
2288	0	32830	32770	
2289	0	32794	32741	
2290	0	32712	32718	
2291	0	32812	32838	
2292	0	32730	32689	
2293	0	32716	32679	
2294	0	32680	32836	
2295	0	32840	32807	
2296	0	32866	32697	
2297	0	32772	32791	
2298	0	32774	32775	
2299	0	32834	32790	
2300	0	32836	32700	
2301	0	32876	32742	
2302	0	32932	32854	
2303	0	33032	32732	
2304	0	32940	32740	
2305	0	32936	32820	
2306	0	32882	32724	
2307	0	32796	32740	
2308	0	32756	32744	
2309	0	32836	32814	
2310	0	32768	32828	
2311	0	32714	32728	
2312	0	32840	32654	
2313	0	32734	32849	
2314	0	32784	32732	
2315	0	32786	32721	
2316	0	32778	32835	
2317	0	32736	32677	
2318	0	32768	32764	
2319	0	32756	32775	
2320	0	32806	32784	
2321	0	32860	32788	
2322	0	32870	32770	
2323	0	32804	32772	
2324	0	32820	32775	
2325	0	32894	32846	
2326	0	32768	32688	
2327	0	32864	32841	
2328	0	32864	32838	
2329	0	32840	32824	
2330	0	32828	32740	
2331	0	32800	32630	
2332	0	32832	32788	
2333	0	32728	32892	
2334	0	32856	32766	
2335	0	32816	32820	
2336	0	32832	32832	
2337	0	32888	32772	
2338	0	32804	32830	
2339	0	32772	32700	
2340	0	32792	32720	
2341	0	32748	32728	
2342	0	32794	32830	
2343	0	32804	32706	
2344	0	32772	32718	
2345	0	32800	32723	
2346	0	32732	32648	
2347	0	32796	32736	
2348	0	32762	32750	
2349	0	32832	32759	
2350	0	32892	32714	
2351	0	32842	32692	
2352	0	32832	32708	
2353	0	32776	32756	
2354	0	32846	32788	
2355	0	32854	32806	
2356	0	32880	32702	
2357	0	32916	32810	
2358	0	32960	32828	
2359	0	32836	32687	
2360	0	32836	32692	
2361	0	32736	32743	
2362	0	32682	32838	
2363	0	32772	32734	
2364	0	32740	32760	
2365	0	32840	32898	
2366	0	32836	32704	
2367	0	32804	32804	
2368	0	32812	32740	
2369	0	32868	32775	
2370	0	32808	32736	
2371	0	32800	32750	
2372	0	32802	32852	
2373	0	32862	32764	
2374	0	32768	32608	
2375	0	32816	32696	
2376	0	32866	32748	
2377	0	32778	32680	
2378	0	32798	32740	
2379	0	32776	32788	
2380	0	32772	32775	
2381	0	32772	32792	
2382	0	32837	32775	
2383	0	32778	32872	
2384	0	32820	32838	
2385	0	32872	32672	
2386	0	32784	32658	
2387	0	32840	32820	
2388	0	32826	32760	
2389	0	32746	32770	
2390	0	32775	32718	
2391	0	32762	32772	
2392	0	32748	32814	
2393	0	32800	32770	
2394	0	32856	32700	
2395	0	32786	32702	
2396	0	32788	32660	
2397	0	32784	32834	
2398	0	32736	32796	
2399	0	32812	32828	
2400	0	32843	32804	
2401	0	32844	32822	
2402	0	32866	32722	
2403	0	32848	32775	
2404	0	32828	32702	
2405	0	32804	32738	
2406	0	32808	32888	
2407	0	32778	32804	
2408	0	32818	32790	
2409	0	32872	32807	
2410	0	32841	32756	
2411	0	32840	32839	
2412	0	32804	32775	
2413	0	32826	32804	
2414	0	32802	32775	
2415	0	32784	32833	
2416	0	32700	32807	
2417	0	32728	32797	
2418	0	32836	32695	
2419	0	32816	32688	
2420	0	32808	32870	
2421	0	32910	32784	
2422	0	32820	32775	
2423	0	32804	32839	
2424	0	32839	32710	
2425	0	32810	32836	
2426	0	32802	32724	
2427	0	32846	32716	
2428	0	32802	32678	
2429	0	32760	32737	
2430	0	32772	32807	
2431	0	32826	32838	
2432	0	32872	32876	
2433	0	32860	32806	
2434	0	32744	32800	
2435	0	32736	32821	
2436	0	32770	32775	
2437	0	32806	32830	
2438	0	32828	32734	
2439	0	32836	32734	
2440	0	32844	32687	
2441	0	32788	32734	
2442	0	32788	32660	
2443	0	32832	32659	
2444	0	32832	32703	
2445	0	32776	32908	
2446	0	32828	32775	
2447	0	32860	32789	
2448	0	32740	32830	
2449	0	32866	32775	
2450	0	32846	32720	
2451	0	32828	32740	
2452	0	32804	32816	
2453	0	32796	32768	
2454	0	32804	32825	
2455	0	32876	32775	
2456	0	32820	32720	
2457	0	32812	32772	
2458	0	32816	32895	
2459	0	32782	32807	
2460	0	32760	32762	
2461	0	32820	32742	
2462	0	32768	32808	
2463	0	32842	32751	
2464	0	32838	32775	
2465	0	32772	32756	
2466	0	32816	32760	
2467	0	32888	32812	
2468	0	32872	32760	
2469	0	32844	32668	
2470	0	32820	32628	
2471	0	32836	32804	
2472	0	32842	32775	
2473	0	32798	32830	
2474	0	32886	32775	
2475	0	32754	32865	
2476	0	32842	32839	
2477	0	32810	32852	
2478	0	32768	32764	
2479	0	32760	32770	
2480	0	32760	32775	
2481	0	32820	32790	
2482	0	32800	32810	
2483	0	32760	32838	
2484	0	32778	32798	
2485	0	32832	32772	
2486	0	32812	32822	
2487	0	32776	32780	
2488	0	32822	32789	
2489	0	32812	32855	
2490	0	32756	32876	
2491	0	32770	32828	
2492	0	32852	32731	
2493	0	32902	32718	
2494	0	32820	32764	
2495	0	32784	32680	
2496	0	32677	32742	
2497	0	32738	32686	
2498	0	32828	32710	
2499	0	32868	32794	
2500	0	32856	32838	
2501	0	32772	32796	
2502	0	32792	32804	
2503	0	32860	32724	
2504	0	32816	32836	
2505	0	32818	32775	
2506	0	32858	32796	
2507	0	32764	32738	
2508	0	32868	32868	
2509	0	32828	32796	
2510	0	32880	32830	
2511	0	32832	32756	
2512	0	32852	32680	
2513	0	32808	32788	
2514	0	32808	32668	
2515	0	32780	32743	
2516	0	32832	32734	
2517	0	32836	32770	
2518	0	32780	32722	
2519	0	32840	32852	
2520	0	32784	32758	
2521	0	32852	32806	
2522	0	32804	32644	
2523	0	32778	32702	
2524	0	32856	32783	
2525	0	32782	32775	
2526	0	32856	32775	
2527	0	32772	32796	
2528	0	32842	32747	
2529	0	32768	32854	
2530	0	32768	32666	
2531	0	32780	32647	
2532	0	32844	32764	
2533	0	32770	32820	
2534	0	32812	32828	
2535	0	32832	32775	
2536	0	32760	32775	
2537	0	32764	32754	
2538	0	32772	32759	
2539	0	32740	32732	
2540	0	32772	32713	
2541	0	32824	32822	
2542	0	32836	32702	
2543	0	32868	32762	
2544	0	32870	32688	
2545	0	32836	32792	
2546	0	32898	32775	
2547	0	32885	32870	
2548	0	32900	32898	
2549	0	32824	32760	
2550	0	32792	32792	
2551	0	32790	32764	
2552	0	32796	32744	
2553	0	32784	32775	
2554	0	32716	32774	
2555	0	32752	32647	
2556	0	32776	32774	
2557	0	32806	32662	
2558	0	32852	32772	
2559	0	32780	32804	
2560	0	32818	32832	
2561	0	32868	32810	
2562	0	32900	32870	
2563	0	32900	32706	
2564	0	32822	32706	
2565	0	32784	32690	
2566	0	32836	32870	
2567	0	32808	32754	
2568	0	32738	32732	
2569	0	32772	32852	
2570	0	32772	32722	
2571	0	32720	32684	
2572	0	32800	32654	
2573	0	32800	32663	
2574	0	32752	32823	
2575	0	32780	32848	
2576	0	32850	32812	
2577	0	32832	32786	
2578	0	32824	32760	
2579	0	32872	32815	
2580	0	32856	32868	
2581	0	32872	32788	
2582	0	32808	32726	
2583	0	32820	32686	
2584	0	32740	32784	
2585	0	32748	32831	
2586	0	32776	32775	
2587	0	32708	32756	
2588	0	32762	32804	
2589	0	32800	32771	
2590	0	32918	32747	
2591	0	32906	32654	
2592	0	32848	32692	
2593	0	32812	32752	
2594	0	32820	32821	
2595	0	32804	32880	
2596	0	32870	32774	
2597	0	32852	32724	
2598	0	32790	32806	
2599	0	32768	32793	
2600	0	32828	32678	
2601	0	32878	32636	
2602	0	32906	32879	
2603	0	32856	32984	
2604	0	32864	32818	
2605	0	32784	32839	
2606	0	32776	32750	
2607	0	32740	32642	
2608	0	32782	32635	
2609	0	32729	32756	
2610	0	32784	32711	
2611	0	32796	32770	
2612	0	32852	32768	
2613	0	32816	32696	
2614	0	32792	32792	
2615	0	32800	32743	
2616	0	32804	32618	
2617	0	32808	32762	
2618	0	32800	32894	
2619	0	32763	32838	
2620	0	32752	32876	
2621	0	32760	32866	
2622	0	32720	32767	
2623	0	32784	32698	
2624	0	32768	32775	
2625	0	32808	32761	
2626	0	32840	32775	
2627	0	32840	32724	
2628	0	32850	32734	
2629	0	32840	32714	
2630	0	32846	32676	
2631	0	32862	32830	
2632	0	32852	32886	
2633	0	32860	32785	
2634	0	32892	32792	
2635	0	32944	32742	
2636	0	32964	32764	
2637	0	32824	32854	
2638	0	32824	32740	
2639	0	32810	32815	
2640	0	32824	32660	
2641	0	32768	32756	
2642	0	32800	32684	
2643	0	32762	32836	
2644	0	32740	32830	
2645	0	32784	32775	
2646	0	32824	32746	
2647	0	32796	32686	
2648	0	32804	32702	
2649	0	32776	32828	
2650	0	32760	32775	
2651	0	32778	32839	
2652	0	32856	32742	
2653	0	32894	32698	
2654	0	32908	32742	
2655	0	32924	32691	
2656	0	32840	32704	
2657	0	32744	32822	
2658	0	32784	32744	
2659	0	32792	32936	
2660	0	32788	32958	
2661	0	32840	32775	
2662	0	32844	32758	
2663	0	32868	32750	
2664	0	32772	32764	
2665	0	32888	32738	
2666	0	32840	32768	
2667	0	32860	32746	
2668	0	32932	32761	
2669	0	32908	32725	
2670	0	32772	32774	
2671	0	32692	32712	
2672	0	32752	32722	
2673	0	32812	32694	
2674	0	32848	32668	
2675	0	32788	32748	
2676	0	32782	32803	
2677	0	32844	32886	
2678	0	32884	32839	
2679	0	32842	32753	
2680	0	32844	32846	
2681	0	32698	32775	
2682	0	32728	32670	
2683	0	32704	32726	
2684	0	32768	32730	
2685	0	32756	32840	
2686	0	32668	32656	
2687	0	32800	32775	
2688	0	32744	32848	
2689	0	32764	32840	
2690	0	32824	32838	
2691	0	32846	32868	
2692	0	32796	32814	
2693	0	32888	32704	
2694	0	32996	32647	
2695	0	32962	32619	
2696	0	32756	32686	
2697	0	32756	32782	
2698	0	32772	32706	
2699	0	32804	32810	
2700	0	32804	32775	
2701	0	32892	32744	
2702	0	32848	32840	
2703	0	32928	32878	
2704	0	32801	32724	
2705	0	32732	32694	
2706	0	32750	32618	
2707	0	32720	32634	
2708	0	32764	32702	
2709	0	32762	32714	
2710	0	32852	32870	
2711	0	32782	32760	
2712	0	32832	32800	
2713	0	32756	32775	
2714	0	32888	32775	
2715	0	32832	32775	
2716	0	32770	32820	
2717	0	32924	32738	
2718	0	32848	32970	
2719	0	32848	32719	
2720	0	32696	32708	
2721	0	32810	32834	
2722	0	32880	32868	
2723	0	32848	32824	
2724	0	32820	32724	
2725	0	32856	32638	
2726	0	32916	32594	
2727	0	32892	32767	
2728	0	32956	32700	
2729	0	32932	32810	
2730	0	32732	32687	
2731	0	32720	32596	
2732	0	32624	32775	
2733	0	32652	32896	
2734	0	32724	32968	
2735	0	32824	32880	
2736	0	32740	32822	
2737	0	32714	32716	
2738	0	32708	32596	
2739	0	32702	32486	
2740	0	32772	32622	
2741	0	32784	32700	
2742	0	32878	32640	
2743	0	32864	32636	
2744	0	32862	32908	
2745	0	32772	32948	
2746	0	32684	32910	
2747	0	32900	32876	
2748	0	33028	32826	
2749	0	32892	32720	
2750	0	32790	32775	
2751	0	32752	32774	
2752	0	32748	32724	
2753	0	32696	32798	
2754	0	32754	32752	
2755	0	32804	32736	
2756	0	32810	32855	
2757	0	32879	32916	
2758	0	32932	32842	
2759	0	32884	32693	
2760	0	32802	32775	
2761	0	32816	32700	
2762	0	32900	32676	
2763	0	32906	32667	
2764	0	32904	32752	
2765	0	32840	32816	
2766	0	32712	32721	
2767	0	32686	32887	
2768	0	32624	32900	
2769	0	32668	32794	
2770	0	32756	32680	
2771	0	32812	32682	
2772	0	32906	32750	
2773	0	32864	32879	
2774	0	32768	32791	
2775	0	32708	32758	
2776	0	32724	32804	
2777	0	32846	32816	
2778	0	32759	32819	
2779	0	32754	32768	
2780	0	32730	32806	
2781	0	32764	32732	
2782	0	32814	32775	
2783	0	32884	32806	
2784	0	32912	32775	
2785	0	32858	32836	
2786	0	32812	32758	
2787	0	32832	32728	
2788	0	32786	32775	
2789	0	32836	32678	
2790	0	32980	32759	
2791	0	33096	32700	
2792	0	32968	32860	
2793	0	32836	33006	
2794	0	32774	32836	
2795	0	32712	32698	
2796	0	32662	32700	
2797	0	32716	32688	
2798	0	32810	32720	
2799	0	32712	32825	
2800	0	32748	32886	
2801	0	32788	32820	
2802	0	32908	32916	
2803	0	33092	32720	
2804	0	32998	32462	
2805	0	32824	32670	
2806	0	32718	32700	
2807	0	32754	32740	
2808	0	32764	32644	
2809	0	32754	32588	
2810	0	32772	32728	
2811	0	32728	32798	
2812	0	32832	32916	
2813	0	32708	32892	
2814	0	32676	32742	
2815	0	32858	32694	
2816	0	32732	32814	
2817	0	32752	32768	
2818	0	32668	32748	
2819	0	32664	32720	
2820	0	32868	32879	
2821	0	33082	32705	
2822	0	33088	32698	
2823	0	32908	32775	
2824	0	32720	32740	
2825	0	32770	32700	
2826	0	32902	32800	
2827	0	32860	32756	
2828	0	32796	32806	
2829	0	32736	32824	
2830	0	32756	32881	
2831	0	32754	32639	
2832	0	32618	32678	
2833	0	32800	32728	
2834	0	32740	32767	
2835	0	32784	32740	
2836	0	32770	32810	
2837	0	32792	32718	
2838	0	32912	32842	
2839	0	33000	32847	
2840	0	33062	32694	
2841	0	33006	32726	
2842	0	32834	32862	
2843	0	32654	32751	
2844	0	32614	32622	
2845	0	32542	32580	
2846	0	32830	32744	
2847	0	33094	32870	
2848	0	32932	32885	
2849	0	32640	32839	
2850	0	32728	32772	
2851	0	32642	32676	
2852	0	32678	32756	
2853	0	32736	32680	
2854	0	32896	32700	
2855	0	32880	32646	
2856	0	32816	32714	
2857	0	32848	32750	
2858	0	32888	32868	
2859	0	32760	32775	
2860	0	32876	32868	
2861	0	32756	32871	
2862	0	32754	32788	
2863	0	32704	32724	
2864	0	32900	32638	
2865	0	32848	32711	
2866	0	32876	32756	
2867	0	32796	32758	
2868	0	32824	32600	
2869	0	32780	32734	
2870	0	32822	33006	
2871	0	32764	33056	
2872	0	32796	32954	
2873	0	32772	32619	
2874	0	32860	32530	
2875	0	32844	32591	
2876	0	32702	32688	
2877	0	32676	32790	
2878	0	32656	32742	
2879	0	32692	32769	
2880	0	32514	32918	
2881	0	32688	32802	
2882	0	33254	32824	
2883	0	33450	32930	
2884	0	33126	32676	
2885	0	32992	32743	
2886	0	32840	32724	
2887	0	32622	32692	
2888	0	32652	32731	
2889	0	32648	32870	
2890	0	32668	32774	
2891	0	32772	32712	
2892	0	32852	32768	
2893	0	32612	32732	
2894	0	32740	32900	
2895	0	32864	32790	
2896	0	32864	32660	
2897	0	32748	32702	
2898	0	32720	32775	
2899	0	32834	32615	
2900	0	33030	32743	
2901	0	32972	32958	
2902	0	33110	32903	
2903	0	32980	32839	
2904	0	32724	32890	
2905	0	32636	32850	
2906	0	32458	32830	
2907	0	32557	32918	
2908	0	32750	32598	
2909	0	32784	32608	
2910	0	32828	32462	
2911	0	32844	32680	
2912	0	32932	32624	
2913	0	32936	32763	
2914	0	32815	32916	
2915	0	32446	32906	
2916	0	33032	32824	
2917	0	33552	32796	
2918	0	33102	32436	
2919	0	32928	32548	
2920	0	32640	32838	
2921	0	32566	32832	
2922	0	32692	32900	
2923	0	32801	32864	
2924	0	33092	32846	
2925	0	32964	32644	
2926	0	32644	32768	
2927	0	32618	32868	
2928	0	32806	32831	
2929	0	32768	32658	
2930	0	32666	32562	
2931	0	32440	32826	
2932	0	32462	32868	
2933	0	32466	32998	
2934	0	32896	32968	
2935	0	33310	32974	
2936	0	33188	32884	
2937	0	33064	32854	
2938	0	33160	32775	
2939	0	32992	32391	
2940	0	32812	32454	
2941	0	32704	32808	
2942	0	32606	32959	
2943	0	32544	32903	
2944	0	32532	32826	
2945	0	32734	32660	
2946	0	32688	32650	
2947	0	32688	32730	
2948	0	32860	32500	
2949	0	32824	32742	
2950	0	32709	32860	
2951	0	32932	32696	
2952	0	32876	32566	
2953	0	32800	32342	
2954	0	32716	32806	
2955	0	32842	33050	
2956	0	32775	32908	
2957	0	32824	32890	
2958	0	32802	32612	
2959	0	32964	32646	
2960	0	33138	32686	
2961	0	32768	32654	
2962	0	32684	32527	
2963	0	32580	33016	
2964	0	32846	32972	
2965	0	32928	32950	
2966	0	32764	32876	
2967	0	32832	32839	
2968	0	32782	32592	
2969	0	32574	32714	
2970	0	32616	32800	
2971	0	32610	32946	
2972	0	32704	32695	
2973	0	32702	32860	
2974	0	32804	32794	
2975	0	33294	32942	
2976	0	33370	32926	
2977	0	32992	32606	
2978	0	33008	32152	
2979	0	32824	32283	
2980	0	32608	32724	
2981	0	32416	32784	
2982	0	32572	33031	
2983	0	32842	33080	
2984	0	32788	32800	
2985	0	32812	32676	
2986	0	32800	32950	
2987	0	32894	32938	
2988	0	32654	32852	
2989	0	32452	32724	
2990	0	32544	32528	
2991	0	33244	32508	
2992	0	33892	32903	
2993	0	33236	33023	
2994	0	32896	32808	
2995	0	32804	32774	
2996	0	32864	32574	
2997	0	32976	32411	
2998	0	32696	32372	
2999	0	32500	32466	
3000	0	32474	32702	
3001	0	32472	33052	
3002	0	32504	33156	
3003	0	32740	33444	
3004	0	32760	33074	
3005	0	32664	32583	
3006	0	32798	32391	
3007	0	32956	32602	
3008	0	32976	32935	
3009	0	33224	32694	
3010	0	33252	32512	
3011	0	32992	32880	
3012	0	32816	32732	
3013	0	32798	32479	
3014	0	32728	32716	
3015	0	32632	32967	
3016	0	32474	32622	
3017	0	32120	32332	
3018	0	32164	32580	
3019	0	32776	33080	
3020	0	33070	33205	
3021	0	32954	33087	
3022	0	33078	32814	
3023	0	33468	32766	
3024	0	33690	32882	
3025	0	33351	32808	
3026	0	32894	32704	
3027	0	32508	32874	
3028	0	32454	33264	
3029	0	32504	33028	
3030	0	32464	32935	
3031	0	32752	32460	
3032	0	32754	32281	
3033	0	32668	32118	
3034	0	32556	32391	
3035	0	32708	32430	
3036	0	32740	33024	
3037	0	32932	33159	
3038	0	32982	33268	
3039	0	32932	32614	
3040	0	32944	32656	
3041	0	32768	32820	
3042	0	32540	32775	
3043	0	32476	32864	
3044	0	32708	32751	
3045	0	33016	32532	
3046	0	32998	32608	
3047	0	32932	32918	
3048	0	32856	32978	
3049	0	32460	32998	
3050	0	32368	32894	
3051	0	32906	32936	
3052	0	33298	32650	
3053	0	33118	32148	
3054	0	32716	32334	
3055	0	32976	32647	
3056	0	33150	32671	
3057	0	32890	32696	
3058	0	33120	33223	
3059	0	33169	32928	
3060	0	32784	32708	
3061	0	32304	33188	
3062	0	32180	33287	
3063	0	32448	33172	
3064	0	32950	33038	
3065	0	33288	32800	
3066	0	33224	32550	
3067	0	32984	32185	
3068	0	32752	32310	
3069	0	32974	32480	
3070	0	32732	32526	
3071	0	32480	32540	
3072	0	32660	33022	
3073	0	32628	33016	
3074	0	32310	33154	
3075	0	32546	32938	
3076	0	32912	32350	
3077	0	32878	32360	
3078	0	32676	32438	
3079	0	32676	32140	
3080	0	32748	32719	
3081	0	32768	32676	
3082	0	33034	32424	
3083	0	33352	32504	
3084	0	33408	32568	
3085	0	33416	32519	
3086	0	33444	33104	
3087	0	33400	32844	
3088	0	32921	32624	
3089	0	32634	32882	
3090	0	32488	32887	
3091	0	32434	33224	
3092	0	32212	33232	
3093	0	32346	33159	
3094	0	32580	32876	
3095	0	32784	32502	
3096	0	32846	33142	
3097	0	32656	33062	
3098	0	32522	33192	
3099	0	32486	34044	
3100	0	32296	33918	
3101	0	32156	33862	
3102	0	32164	33089	
3103	0	32304	32488	
3104	0	32688	32570	
3105	0	32716	32448	
3106	0	32889	32572	
3107	0	33308	33030	
3108	0	33578	32864	
3109	0	32960	32945	
3110	0	32486	33031	
3111	0	32740	32544	
3112	0	32704	32263	
3113	0	33028	31898	
3114	0	32946	32145	
3115	0	32614	32338	
3116	0	32544	31836	
3117	0	32956	32572	
3118	0	33544	33007	
3119	0	33810	33784	
3120	0	33628	33546	
3121	0	33088	32374	
3122	0	32956	31856	
3123	0	32630	32623	
3124	0	32512	32404	
3125	0	32804	32135	
3126	0	32892	32391	
3127	0	32994	32738	
3128	0	32588	33064	
3129	0	32328	33284	
3130	0	32090	32964	
3131	0	32056	32558	
3132	0	32452	32766	
3133	0	32668	33084	
3134	0	32670	33088	
3135	0	32544	32404	
3136	0	32534	32172	
3137	0	32440	32598	
3138	0	32540	32391	
3139	0	33058	32382	
3140	0	33616	33098	
3141	0	33368	33768	
3142	0	33482	33534	
3143	0	33884	33452	
3144	0	33708	33031	
3145	0	33304	32438	
3146	0	32878	31894	
3147	0	32422	32476	
3148	0	31998	32519	
3149	0	31652	32334	
3150	0	31728	33368	
3151	0	32044	34567	
3152	0	32652	34146	
3153	0	32952	32646	
3154	0	33460	31252	
3155	0	33152	30424	
3156	0	32828	30470	
3157	0	32440	32342	
3158	0	33096	33744	
3159	0	33184	34846	
3160	0	32892	33414	
3161	0	32846	32056	
3162	0	32924	32068	
3163	0	33136	33186	
3164	0	32990	33274	
3165	0	32972	32636	
3166	0	32758	32786	
3167	0	32556	32852	
3168	0	32545	33420	
3169	0	32564	32430	
3170	0	32868	32680	
3171	0	32744	32338	
3172	0	32712	32500	
3173	0	32922	32712	
3174	0	32988	33031	
3175	0	33572	33492	
3176	0	34198	32359	
3177	0	33542	32200	
3178	0	32964	33924	
3179	0	32766	34092	
3180	0	32592	34234	
3181	0	32348	30968	
3182	0	32542	29316	
3183	0	32680	32080	
3184	0	32556	34590	
3185	0	32494	33222	
3186	0	32616	32135	
3187	0	32608	33268	
3188	0	32448	33712	
3189	0	32218	34172	
3190	0	32216	32940	
3191	0	32052	33372	
3192	0	32980	32252	
3193	0	33470	31074	
3194	0	33684	29436	
3195	0	33460	31348	
3196	0	33212	35444	
3197	0	33080	37200	
3198	0	32896	36124	
3199	0	33360	31508	
3200	0	33708	29392	
3201	0	32984	30104	
3202	0	32406	33208	
3203	0	31892	33258	
3204	0	31624	31244	
3205	0	31540	32423	
3206	0	31820	33968	
3207	0	32792	32930	
3208	0	33524	30464	
3209	0	33472	29998	
3210	0	33000	34406	
3211	0	32714	35632	
3212	0	32192	33242	
3213	0	32424	31278	
3214	0	32288	29890	
3215	0	32404	33608	
3216	0	32886	35458	
3217	0	32932	35230	
3218	0	33116	33857	
3219	0	33200	32872	
3220	0	33184	32466	
3221	0	32880	32794	
3222	0	32864	32513	
3223	0	32568	31986	
3224	0	32564	31972	
3225	0	33012	32391	
3226	0	32694	32647	
3227	0	32736	32924	
3228	0	32976	33054	
3229	0	33272	33128	
3230	0	33618	32594	
3231	0	33240	32474	
3232	0	33348	32468	
3233	0	33632	32951	
3234	0	33480	33056	
3235	0	32974	33142	
3236	0	32432	32431	
3237	0	32176	32327	
3238	0	32080	32774	
3239	0	32420	32582	
3240	0	33018	32735	
3241	0	32984	32874	
3242	0	32588	32838	
3243	0	32494	32684	
3244	0	32476	32318	
3245	0	32224	32876	
3246	0	32372	32690	
3247	0	33020	32824	
3248	0	33032	32854	
3249	0	33076	33060	
3250	0	32934	33538	
3251	0	32888	33430	
3252	0	32892	33127	
3253	0	33042	32658	
3254	0	32814	32756	
3255	0	32527	33064	
3256	0	32368	33319	
3257	0	32506	30976	
3258	0	32620	31298	
3259	0	33278	33392	
3260	0	33705	34231	
3261	0	33058	33058	
3262	0	33002	31311	
3263	0	32868	30727	
3264	0	32544	31630	
3265	0	32584	33108	
3266	0	32708	33552	
3267	0	32500	33442	
3268	0	32288	33194	
3269	0	32668	33284	
3270	0	32468	33378	
3271	0	32386	32672	
3272	0	32804	31766	
3273	0	33044	32056	
3274	0	33156	33285	
3275	0	33024	33950	
3276	0	33264	33169	
3277	0	33624	33000	
3278	0	33232	33482	
3279	0	32566	33514	
3280	0	32692	34408	
3281	0	33088	32714	
3282	0	33416	30750	
3283	0	33904	30574	
3284	0	33624	31318	
3285	0	32640	32318	
3286	0	32162	33463	
3287	0	32064	33364	
3288	0	31788	32926	
3289	0	32006	32935	
3290	0	32380	31760	
3291	0	32356	32200	
3292	0	32688	33224	
3293	0	33020	33850	
3294	0	32900	34144	
3295	0	32924	34536	
3296	0	32976	34268	
3297	0	32806	33592	
3298	0	32636	31544	
3299	0	32706	31086	
3300	0	32934	31575	
3301	0	32812	32463	
3302	0	32752	32518	
3303	0	32992	32448	
3304	0	32940	32652	
3305	0	32726	32775	
3306	0	32676	32924	
3307	0	32556	32506	
3308	0	32790	32374	
3309	0	32756	32735	
3310	0	32260	33488	
3311	0	32760	33340	
3312	0	33356	33255	
3313	0	33196	30772	
3314	0	33546	32362	
3315	0	33096	32684	
3316	0	32848	32974	
3317	0	32754	33031	
3318	0	32940	33372	
3319	0	32646	32704	
3320	0	32384	32919	
3321	0	32658	32992	
3322	0	33188	32957	
3323	0	32840	32956	
3324	0	33074	32903	
3325	0	33236	33044	
3326	0	33070	32727	
3327	0	32904	33212	
3328	0	32596	32980	
3329	0	32524	33220	
3330	0	32284	33566	
3331	0	32038	33136	
3332	0	32068	32775	
3333	0	32258	32056	
3334	0	31992	32247	
3335	0	32124	32038	
3336	0	33204	32388	
3337	0	32858	32490	
3338	0	32308	32037	
3339	0	33298	32879	
3340	0	33874	32718	
3341	0	34008	33708	
3342	0	33804	33136	
3343	0	33180	32519	
3344	0	32732	32110	
3345	0	32324	31495	
3346	0	32488	32812	
3347	0	32524	32822	
3348	0	32144	32556	
3349	0	32030	33264	
3350	0	31568	33815	
3351	0	31746	33668	
3352	0	32586	32164	
3353	0	32668	31119	
3354	0	33436	32436	
3355	0	34006	33478	
3356	0	33652	34232	
3357	0	33512	33287	
3358	0	33216	30552	
3359	0	33058	31495	
3360	0	32782	33936	
3361	0	32728	34080	
3362	0	33682	33304	
3363	0	34224	32382	
3364	0	34136	32000	
3365	0	33888	32196	
3366	0	32642	32860	
3367	0	32018	32496	
3368	0	31822	32292	
3369	0	31548	32860	
3370	0	31904	33287	
3371	0	31984	33124	
3372	0	32700	32962	
3373	0	33098	32672	
3374	0	32892	32680	
3375	0	33040	32832	
3376	0	32786	33112	
3377	0	32292	32998	
3378	0	32176	32862	
3379	0	32692	32746	
3380	0	33024	32594	
3381	0	33002	32556	
3382	0	32294	32588	
3383	0	32952	32864	
3384	0	32940	32838	
3385	0	33228	32412	
3386	0	33088	32290	
3387	0	33060	32512	
3388	0	33476	33106	
3389	0	33370	32872	
3390	0	33372	32644	
3391	0	33344	32878	
3392	0	32746	32418	
3393	0	32208	32732	
3394	0	32082	33368	
3395	0	31888	33646	
3396	0	32466	32934	
3397	0	33434	32782	
3398	0	33182	32330	
3399	0	33016	32647	
3400	0	33312	33720	
3401	0	33124	33516	
3402	0	32632	32746	
3403	0	32548	32212	
3404	0	32024	32436	
3405	0	31758	32698	
3406	0	32380	32712	
3407	0	32820	32226	
3408	0	33322	32836	
3409	0	33432	32839	
3410	0	33232	32440	
3411	0	33688	32852	
3412	0	34104	32967	
3413	0	33444	32580	
3414	0	33292	32060	
3415	0	33320	32302	
3416	0	33018	32764	
3417	0	33328	32742	
3418	0	33390	32791	
3419	0	33180	32928	
3420	0	32388	32992	
3421	0	31908	32814	
3422	0	31796	32758	
3423	0	31212	32534	
3424	0	31584	32468	
3425	0	31774	33658	
3426	0	32596	33123	
3427	0	32404	32864	
3428	0	31618	33246	
3429	0	31440	33040	
3430	0	31706	33218	
3431	0	32568	32272	
3432	0	32940	31815	
3433	0	32868	31276	
3434	0	32892	32448	
3435	0	32816	32867	
3436	0	33468	32998	
3437	0	34684	32852	
3438	0	34552	32911	
3439	0	34552	33028	
3440	0	33796	32432	
3441	0	33316	32920	
3442	0	33156	33624	
3443	0	33098	33374	
3444	0	33412	33322	
3445	0	33606	33154	
3446	0	33604	32438	
3447	0	33736	32113	
3448	0	33916	32656	
3449	0	34180	33176	
3450	0	34592	32938	
3451	0	33893	32760	
3452	0	32438	31542	
3453	0	30520	32176	
3454	0	29528	33054	
3455	0	28904	33118	
3456	0	29632	32474	
3457	0	30248	31990	
3458	0	30764	32679	
3459	0	31470	33170	
3460	0	31140	32802	
3461	0	31344	32490	
3462	0	31808	33356	
3463	0	32430	33588	
3464	0	32930	34631	
3465	0	33012	33346	
3466	0	34136	31600	
3467	0	34746	32404	
3468	0	34368	34823	
3469	0	34420	32100	
3470	0	34740	30848	
3471	0	34982	31540	
3472	0	34972	32582	
3473	0	34736	33066	
3474	0	34016	32542	
3475	0	33186	32582	
3476	0	32416	32574	
3477	0	31776	32628	
3478	0	31696	32647	
3479	0	32068	32724	
3480	0	32028	32610	
3481	0	31832	32999	
3482	0	32124	33102	
3483	0	32072	32934	
3484	0	32144	33066	
3485	0	32352	33312	
3486	0	32748	33472	
3487	0	32544	33044	
3488	0	32116	32836	
3489	0	31664	32864	
3490	0	33076	32542	
3491	0	35120	32404	
3492	0	34628	32336	
3493	0	34380	32570	
3494	0	33472	32780	
3495	0	33028	31956	
3496	0	32560	32374	
3497	0	32356	32592	
3498	0	32552	32753	
3499	0	33376	33246	
3500	0	33848	33063	
3501	0	33712	32794	
3502	0	33352	32583	
3503	0	32784	32751	
3504	0	32238	32596	
3505	0	31780	32318	
3506	0	32368	32536	
3507	0	33244	32724	
3508	0	33126	32710	
3509	0	32508	32612	
3510	0	31960	32727	
3511	0	31960	32745	
3512	0	31940	32744	
3513	0	31836	32972	
3514	0	32000	33084	
3515	0	32216	33372	
3516	0	32632	33344	
3517	0	33172	33588	
3518	0	33390	32996	
3519	0	33220	32828	
3520	0	32928	32582	
3521	0	32054	32900	
3522	0	31360	33560	
3523	0	31524	32994	
3524	0	32074	32228	
3525	0	32603	31854	
3526	0	33728	31830	
3527	0	34144	32288	
3528	0	33712	32580	
3529	0	33056	32362	
3530	0	33232	32391	
3531	0	33652	32512	
3532	0	33780	32644	
3533	0	33300	32854	
3534	0	32800	33180	
3535	0	33060	32928	
3536	0	33340	32718	
3537	0	33076	32647	
3538	0	32884	32664	
3539	0	32596	32647	
3540	0	32532	32759	
3541	0	32912	32834	
3542	0	32672	32712	
3543	0	32308	33031	
3544	0	32081	32920	
3545	0	32094	33016	
3546	0	32166	32788	
3547	0	32020	32554	
3548	0	32438	32548	
3549	0	33002	32830	
3550	0	34036	32764	
3551	0	34790	32752	
3552	0	34780	32934	
3553	0	33924	32974	
3554	0	32740	32798	
3555	0	31848	32606	
3556	0	32084	32535	
3557	0	31760	32578	
3558	0	31528	32480	
3559	0	31900	32462	
3560	0	32124	32590	
3561	0	32428	32748	
3562	0	32476	32900	
3563	0	32644	32988	
3564	0	33632	33040	
3565	0	34130	33236	
3566	0	34084	33440	
3567	0	33520	33216	
3568	0	33918	33050	
3569	0	33905	32954	
3570	0	33380	32886	
3571	0	33924	32652	
3572	0	35988	32254	
3573	0	35514	32724	
3574	0	33300	32972	
3575	0	32172	32994	
3576	0	31328	32319	
3577	0	29812	32658	
3578	0	28404	32666	
3579	0	28036	32508	
3580	0	28228	32242	
3581	0	28992	32670	
3582	0	29730	32462	
3583	0	30648	31994	
3584	0	31830	32399	
3585	0	32924	32138	
3586	0	33680	32410	
3587	0	34416	33030	
3588	0	34952	33038	
3589	0	35014	33672	
3590	0	34968	34228	
3591	0	35204	33862	
3592	0	34136	33022	
3593	0	33602	32427	
3594	0	34106	32936	
3595	0	35808	32732	
3596	0	35552	33064	
3597	0	35392	33216	
3598	0	34548	32898	
3599	0	32912	32330	
3600	0	31980	32494	
3601	0	31876	32746	
3602	0	31916	32592	
3603	0	32016	32598	
3604	0	31776	32570	
3605	0	31780	32518	
3606	0	31942	32744	
3607	0	31636	32830	
3608	0	31806	32618	
3609	0	31992	32622	
3610	0	32228	32754	
3611	0	32624	33068	
3612	0	32692	33024	
3613	0	32900	33120	
3614	0	32828	32996	
3615	0	32728	32624	
3616	0	32708	32250	
3617	0	32896	32007	
3618	0	33758	32336	
3619	0	34208	32868	
3620	0	33860	32678	
3621	0	33760	32766	
3622	0	33952	32772	
3623	0	33850	32806	
3624	0	33429	32730	
3625	0	32612	32845	
3626	0	31596	32519	
3627	0	31914	32746	
3628	0	31776	32880	
3629	0	31460	32692	
3630	0	32304	32684	
3631	0	32448	32614	
3632	0	32624	32824	
3633	0	33144	32879	
3634	0	33476	32862	
3635	0	33304	32920	
3636	0	32912	32951	
3637	0	32764	32790	
3638	0	32728	32446	
3639	0	32716	32706	
3640	0	32606	32966	
3641	0	33348	32766	
3642	0	34266	32638	
3643	0	34372	32706	
3644	0	33508	32512	
3645	0	32996	32756	
3646	0	31892	32844	
3647	0	31652	32758	
3648	0	31122	32790	
3649	0	31002	32686	
3650	0	31798	33363	
3651	0	31168	33284	
3652	0	31906	33078	
3653	0	32496	32796	
3654	0	32290	32658	
3655	0	32282	32248	
3656	0	32538	33164	
3657	0	32804	33447	
3658	0	33004	32900	
3659	0	33580	31788	
3660	0	33588	32228	
3661	0	33660	33152	
3662	0	33836	33060	
3663	0	34096	32404	
3664	0	33452	32320	
3665	0	33116	32584	
3666	0	33144	32696	
3667	0	33856	32822	
3668	0	32952	32900	
3669	0	32392	32892	
3670	0	32518	32943	
3671	0	32406	32742	
3672	0	32394	32775	
3673	0	32428	32460	
3674	0	32864	32894	
3675	0	32964	32816	
3676	0	33300	32731	
3677	0	33258	32705	
3678	0	33560	32790	
3679	0	34496	32908	
3680	0	35120	33108	
3681	0	34908	32578	
3682	0	34380	32492	
3683	0	33280	32944	
3684	0	32348	33238	
3685	0	32212	33220	
3686	0	31112	32992	
3687	0	29580	32980	
3688	0	29288	32444	
3689	0	29696	32376	
3690	0	30786	32374	
3691	0	31589	32551	
3692	0	32892	32734	
3693	0	33092	32604	
3694	0	32900	32670	
3695	0	32912	32764	
3696	0	32912	32748	
3697	0	33330	32799	
3698	0	32774	32636	
3699	0	32928	32536	
3700	0	33144	32854	
3701	0	33612	32632	
3702	0	34952	32702	
3703	0	35542	32752	
3704	0	35322	32562	
3705	0	34696	32326	
3706	0	33490	32824	
3707	0	32428	32968	
3708	0	31868	32898	
3709	0	31594	32856	
3710	0	31688	32872	
3711	0	32260	33201	
3712	0	32720	32986	
3713	0	32999	32999	
3714	0	32368	32988	
3715	0	31980	32644	
3716	0	32214	32294	
3717	0	31688	32312	
3718	0	31652	32902	
3719	0	31250	32856	
3720	0	31666	32500	
3721	0	32382	32416	
3722	0	32460	32452	
3723	0	32580	32698	
3724	0	32490	32674	
3725	0	32372	32708	
3726	0	33286	32607	
3727	0	33900	32914	
3728	0	33472	32975	
3729	0	33572	32926	
3730	0	34396	33022	
3731	0	34172	33208	
3732	0	33528	33038	
3733	0	33284	32660	
3734	0	33596	32519	
3735	0	33292	32752	
3736	0	33408	33210	
3737	0	33738	33118	
3738	0	33680	32718	
3739	0	33032	32655	
3740	0	32226	32608	
3741	0	31786	32552	
3742	0	31396	32652	
3743	0	31738	32742	
3744	0	32504	32796	
3745	0	33576	32626	
3746	0	33684	32688	
3747	0	33034	32830	
3748	0	32352	32972	
3749	0	32016	32788	
3750	0	31752	32730	
3751	0	32032	32720	
3752	0	31998	32626	
3753	0	32028	32391	
3754	0	32704	32609	
3755	0	32660	32934	
3756	0	32676	32764	
3757	0	33236	32804	
3758	0	33944	32927	
3759	0	33936	32870	
3760	0	33932	32686	
3761	0	34690	32814	
3762	0	35358	32888	
3763	0	34806	32586	
3764	0	34224	32255	
3765	0	33828	32554	
3766	0	32556	33006	
3767	0	31584	33031	
3768	0	30640	33031	
3769	0	30600	32900	
3770	0	30372	32775	
3771	0	30260	32871	
3772	0	31020	32863	
3773	0	31004	32696	
3774	0	30964	32602	
3775	0	31672	32740	
3776	0	32492	32660	
3777	0	33102	32582	
3778	0	33454	32628	
3779	0	33728	32422	
3780	0	33896	32932	
3781	0	33944	33158	
3782	0	33786	33114	
3783	0	33762	32787	
3784	0	33884	32502	
3785	0	33998	32622	
3786	0	33880	32798	
3787	0	33770	32420	
3788	0	33200	32775	
3789	0	33156	32898	
3790	0	32724	32774	
3791	0	32248	32840	
3792	0	32196	32676	
3793	0	32345	32583	
3794	0	32414	32774	
3795	0	32569	32815	
3796	0	32900	32838	
3797	0	32796	32898	
3798	0	32724	33022	
3799	0	33104	32576	
3800	0	33348	32480	
3801	0	33458	32464	
3802	0	33438	32968	
3803	0	33816	32916	
3804	0	33294	32699	
3805	0	32788	32540	
3806	0	32596	32623	
3807	0	32046	33042	
3808	0	31622	33054	
3809	0	31816	32764	
3810	0	32242	32696	
3811	0	32172	32838	
3812	0	32062	32687	
3813	0	32068	32636	
3814	0	32040	32662	
3815	0	32416	32550	
3816	0	32598	32686	
3817	0	32580	32836	
3818	0	32792	32900	
3819	0	32896	32744	
3820	0	32926	32902	
3821	0	33382	32513	
3822	0	34104	32664	
3823	0	34264	32734	
3824	0	34404	32716	
3825	0	34730	32743	
3826	0	34494	32616	
3827	0	33832	33076	
3828	0	32584	33235	
3829	0	31500	32960	
3830	0	30344	32868	
3831	0	30032	32704	
3832	0	31172	32766	
3833	0	31588	32711	
3834	0	32878	32720	
3835	0	33260	32726	
3836	0	32796	32480	
3837	0	33404	32764	
3838	0	34134	32657	
3839	0	33560	32954	
3840	0	33204	32696	
3841	0	33006	32855	
3842	0	32616	32358	
3843	0	32052	32494	
3844	0	31812	33030	
3845	0	31776	33316	
3846	0	31898	33404	
3847	0	32284	32762	
3848	0	32708	32462	
3849	0	33492	32518	
3850	0	33800	32554	
3851	0	33160	32519	
3852	0	33232	32376	
3853	0	33016	32536	
3854	0	32952	32887	
3855	0	33364	32918	
3856	0	33752	32992	
3857	0	33948	32968	
3858	0	33710	32790	
3859	0	33720	32772	
3860	0	33358	32870	
3861	0	32868	32674	
3862	0	32448	32740	
3863	0	32340	32812	
3864	0	32662	32706	
3865	0	32256	32858	
3866	0	31964	32732	
3867	0	31792	32718	
3868	0	31919	32850	
3869	0	32218	32756	
3870	0	32420	32684	
3871	0	32448	32678	
3872	0	32472	32690	
3873	0	32226	33088	
3874	0	32570	33250	
3875	0	33072	32502	
3876	0	33072	32148	
3877	0	32968	32760	
3878	0	33672	32720	
3879	0	34224	32935	
3880	0	33928	33056	
3881	0	33676	33120	
3882	0	33368	32512	
3883	0	33086	32500	
3884	0	33756	32686	
3885	0	33288	32730	
3886	0	32768	32844	
3887	0	32428	33016	
3888	0	31650	33126	
3889	0	31718	32934	
3890	0	31596	32615	
3891	0	31602	32718	
3892	0	31764	32568	
3893	0	32968	32602	
3894	0	33364	32762	
3895	0	33050	32692	
3896	0	32696	32686	
3897	0	32608	32746	
3898	0	32192	32887	
3899	0	32384	32806	
3900	0	32688	32628	
3901	0	32684	32802	
3902	0	32676	32722	
3903	0	32836	32742	
3904	0	32808	32548	
3905	0	33320	32690	
3906	0	33420	32775	
3907	0	33080	32764	
3908	0	32842	32812	
3909	0	32852	32881	
3910	0	32752	32732	
3911	0	32696	32620	
3912	0	33200	32759	
3913	0	33276	32872	
3914	0	33018	32852	
3915	0	33120	32670	
3916	0	33260	32704	
3917	0	33668	32260	
3918	0	33836	32236	
3919	0	33920	32748	
3920	0	33614	33064	
3921	0	33528	32624	
3922	0	33304	32551	
3923	0	32433	32532	
3924	0	32222	32580	
3925	0	32204	32356	
3926	0	32161	32402	
3927	0	31564	33044	
3928	0	31474	32808	
3929	0	32078	32758	
3930	0	32544	32980	
3931	0	32716	32894	
3932	0	33700	32946	
3933	0	33676	32966	
3934	0	33368	32898	
3935	0	33190	32956	
3936	0	32952	33063	
3937	0	31992	33028	
3938	0	31384	33527	
3939	0	31484	33726	
3940	0	31596	33386	
3941	0	31892	33164	
3942	0	32524	33016	
3943	0	32968	32800	
3944	0	33094	32972	
3945	0	33568	32928	
3946	0	33592	32664	
3947	0	33232	32919	
3948	0	33252	32872	
3949	0	33068	32718	
3950	0	32906	32913	
3951	0	33104	32714	
3952	0	33288	32508	
3953	0	32960	32530	
3954	0	32640	32480	
3955	0	32549	32532	
3956	0	32664	32396	
3957	0	32948	32416	
3958	0	32775	32514	
3959	0	32500	32450	
3960	0	33064	32442	
3961	0	32988	32452	
3962	0	32764	32590	
3963	0	33422	32798	
3964	0	33956	32638	
3965	0	33336	32601	
3966	0	32528	32812	
3967	0	31920	32839	
3968	0	31572	32502	
3969	0	31688	32551	
3970	0	32036	32712	
3971	0	32420	32602	
3972	0	32712	32702	
3973	0	32960	32804	
3974	0	33028	32871	
3975	0	33100	32766	
3976	0	33080	32800	
3977	0	33028	32887	
3978	0	33188	32722	
3979	0	33504	32654	
3980	0	33172	32726	
3981	0	33260	32892	
3982	0	33320	33010	
3983	0	33120	33026	
3984	0	33056	32846	
3985	0	32938	32451	
3986	0	33198	32430	
3987	0	33708	32550	
3988	0	33372	32761	
3989	0	32832	32682	
3990	0	32412	32950	
3991	0	32440	32886	
3992	0	32618	33008	
3993	0	32262	33052	
3994	0	32168	32932	
3995	0	32410	32774	
3996	0	32044	32708	
3997	0	31728	32664	
3998	0	31564	32711	
3999	0	31606	32840	
4000	0	31920	32814	
4001	0	32342	32814	
4002	0	32914	32695	
4003	0	33100	32546	
4004	0	33444	32508	
4005	0	33482	32660	
4006	0	33296	32696	
4007	0	33344	33022	
4008	0	33418	32743	
4009	0	33268	32999	
4010	0	32976	33071	
4011	0	32942	32639	
4012	0	32698	32788	
4013	0	32944	32828	
4014	0	33232	32572	
4015	0	33624	32884	
4016	0	33574	32550	
4017	0	34306	32519	
4018	0	33224	32808	
4019	0	32700	32790	
4020	0	32108	32956	
4021	0	31660	32896	
4022	0	31784	32983	
4023	0	31633	32704	
4024	0	31534	32428	
4025	0	31854	32927	
4026	0	32782	32665	
4027	0	33120	32618	
4028	0	33432	32831	
4029	0	33544	32996	
4030	0	33428	33180	
4031	0	33340	32658	
4032	0	33284	32500	
4033	0	32864	32636	
4034	0	32708	32718	
4035	0	32740	32790	
4036	0	33004	32775	
4037	0	33048	32812	
4038	0	32996	32687	
4039	0	32936	32702	
4040	0	32868	32620	
4041	0	32792	32708	
4042	0	32618	32743	
4043	0	32556	32775	
4044	0	32454	32760	
4045	0	32564	32678	
4046	0	33028	32719	
4047	0	32746	32838	
4048	0	32900	32894	
4049	0	33440	32760	
4050	0	33738	32764	
4051	0	33454	32600	
4052	0	33184	32822	
4053	0	32610	32764	
4054	0	31936	32756	
4055	0	31884	32775	
4056	0	31800	32618	
4057	0	31572	32838	
4058	0	32158	32726	
4059	0	32888	32590	
4060	0	33208	32578	
4061	0	33408	32748	
4062	0	33336	32872	
4063	0	33116	32852	
4064	0	32680	32743	
4065	0	32636	32696	
4066	0	32840	32612	
4067	0	33080	32692	
4068	0	32836	32926	
4069	0	32868	32976	
4070	0	32936	32882	
4071	0	32720	32786	
4072	0	32616	32822	
4073	0	32658	32680	
4074	0	32828	32448	
4075	0	33060	32588	
4076	0	33024	32846	
4077	0	32816	32814	
4078	0	32790	32866	
4079	0	32832	32878	
4080	0	32780	32766	
4081	0	32854	32679	
4082	0	32764	32830	
4083	0	32756	32800	
4084	0	32608	32804	
4085	0	32560	32620	
4086	0	32706	32810	
4087	0	32796	32800	
4088	0	32884	32720	
4089	0	32884	32660	
4090	0	33044	32670	
4091	0	33180	32816	
4092	0	33276	32768	
4093	0	32988	32775	
4094	0	32728	32724	
4095	0	32798	32750	
4096	0	32678	32742	
4097	0	32757	32766	
4098	0	32964	32682	
4099	0	32752	32786	
4100	0	32512	32963	
4101	0	32580	32876	
4102	0	33514	32762	
4103	0	33396	32903	
4104	0	33864	32800	
4105	0	34610	32756	
4106	0	34184	32696	
4107	0	33196	32650	
4108	0	32396	32775	
4109	0	31536	32644	
4110	0	30490	32754	
4111	0	30468	32647	
4112	0	31200	32640	
4113	0	31262	32566	
4114	0	32240	32745	
4115	0	33196	32820	
4116	0	33472	32800	
4117	0	33368	32848	
4118	0	33464	32716	
4119	0	33534	32724	
4120	0	33402	32780	
4121	0	33164	32827	
4122	0	32952	32870	
4123	0	33004	32664	
4124	0	32852	32609	
4125	0	32800	32820	
4126	0	32748	32962	
4127	0	32816	32876	
4128	0	32812	32796	
4129	0	32846	32871	
4130	0	32902	32846	
4131	0	32842	32814	
4132	0	32812	32716	
4133	0	32918	32771	
4134	0	32836	32729	
4135	0	32908	32826	
4136	0	32884	32960	
4137	0	32836	32928	
4138	0	32812	32807	
4139	0	32770	32752	
4140	0	32834	32652	
4141	0	32764	32350	
4142	0	32836	32480	
4143	0	32808	32754	
4144	0	32756	32730	
4145	0	32676	32714	
4146	0	32668	32636	
4147	0	32708	32647	
4148	0	32738	32822	
4149	0	32770	32871	
4150	0	33092	32942	
4151	0	33180	32671	
4152	0	33038	32684	
4153	0	32774	32855	
4154	0	32714	32842	
4155	0	32756	32812	
4156	0	32708	32620	
4157	0	32662	32614	
4158	0	32716	32740	
4159	0	32756	32732	
4160	0	32740	32700	
4161	0	32812	32942	
4162	0	32778	32744	
4163	0	32876	32734	
4164	0	32768	32700	
4165	0	32688	32598	
4166	0	32794	32848	
4167	0	32784	32760	
4168	0	32690	32730	
4169	0	32984	32724	
4170	0	32912	32712	
4171	0	32932	32494	
4172	0	32984	32728	
4173	0	32998	32837	
4174	0	32806	33044	
4175	0	32580	32796	
4176	0	32464	32768	
4177	0	32504	32876	
4178	0	32614	32730	
4179	0	32885	32726	
4180	0	33156	32734	
4181	0	33020	32826	
4182	0	32924	32756	
4183	0	32904	32820	
4184	0	32938	32662	
4185	0	33148	32724	
4186	0	33288	32647	
4187	0	33592	32767	
4188	0	33564	32775	
4189	0	33114	32722	
4190	0	32352	32775	
4191	0	32004	32772	
4192	0	32041	32706	
4193	0	32208	32616	
4194	0	32260	32761	
4195	0	32492	32775	
4196	0	32444	32783	
4197	0	32128	32804	
4198	0	32384	32758	
4199	0	32672	32849	
4200	0	32820	32796	
4201	0	32674	32832	
4202	0	32810	32735	
4203	0	32966	32558	
4204	0	33100	32623	
4205	0	33056	32692	
4206	0	32762	32812	
4207	0	32652	32658	
4208	0	32716	32598	
4209	0	32912	32660	
4210	0	33124	32860	
4211	0	33300	32831	
4212	0	33154	32868	
4213	0	33216	32950	
4214	0	33240	32868	
4215	0	32900	32764	
4216	0	32794	32713	
4217	0	32810	32868	
4218	0	32842	32854	
4219	0	32800	32748	
4220	0	33000	32660	
4221	0	33072	32922	
4222	0	32994	32822	
4223	0	33122	32826	
4224	0	33270	32828	
4225	0	32964	32686	
4226	0	32784	32704	
4227	0	32572	32634	
4228	0	32160	32620	
4229	0	31850	32624	
4230	0	32220	32764	
4231	0	32232	32628	
4232	0	32220	32764	
4233	0	32676	32678	
4234	0	32918	32810	
4235	0	32794	32740	
4236	0	32816	32738	
4237	0	32752	32746	
4238	0	32892	32670	
4239	0	33208	32518	
4240	0	33132	32504	
4241	0	33056	32544	
4242	0	33000	32558	
4243	0	32896	32646	
4244	0	32836	32774	
4245	0	32678	32666	
4246	0	32928	32670	
4247	0	32998	32756	
4248	0	32692	32772	
4249	0	32524	32915	
4250	0	32882	32692	
4251	0	33448	32871	
4252	0	33420	32794	
4253	0	32822	32900	
4254	0	32746	32839	
4255	0	32640	32854	
4256	0	32620	32716	
4257	0	32702	32820	
4258	0	32764	32858	
4259	0	32744	32748	
4260	0	32672	32775	
4261	0	32724	32764	
4262	0	32898	32866	
4263	0	32954	32720	
4264	0	32816	32910	
4265	0	32808	32871	
4266	0	32984	32782	
4267	0	32888	32884	
4268	0	32944	32888	
4269	0	32868	32948	
4270	0	32740	32900	
4271	0	32546	32930	
4272	0	32448	33058	
4273	0	32488	33048	
4274	0	32620	32826	
4275	0	32796	32865	
4276	0	32810	32930	
4277	0	32904	32879	
4278	0	32772	32838	
4279	0	32832	32734	
4280	0	32828	32869	
4281	0	32914	32775	
4282	0	32824	32865	
4283	0	32908	32796	
4284	0	32878	32775	
4285	0	32808	32756	
4286	0	32944	32646	
4287	0	32933	32694	
4288	0	32940	32806	
4289	0	32750	32772	
4290	0	32658	32956	
4291	0	32696	32860	
4292	0	32740	33012	
4293	0	32888	32966	
4294	0	33200	32752	
4295	0	33102	32748	
4296	0	32856	32500	
4297	0	32576	32598	
4298	0	32796	32620	
4299	0	33088	32686	
4300	0	32752	32800	
4301	0	33028	32744	
4302	0	33038	32839	
4303	0	32636	32750	
4304	0	32508	32930	
4305	0	32600	32943	
4306	0	32276	32788	
4307	0	32136	32678	
4308	0	32284	32742	
4309	0	32876	32844	
4310	0	33056	32761	
4311	0	32836	32790	
4312	0	32862	32928	
4313	0	32936	32848	
4314	0	33208	32884	
4315	0	33152	32742	
4316	0	32976	32814	
4317	0	32840	32814	
4318	0	32886	32828	
4319	0	32876	32918	
4320	0	32724	32708	
4321	0	32676	32868	
4322	0	32574	32785	
4323	0	32498	32815	
4324	0	32998	32775	
4325	0	33444	32791	
4326	0	33648	32868	
4327	0	33680	32810	
4328	0	33520	32716	
4329	0	33332	32638	
4330	0	33064	32590	
4331	0	32476	32551	
4332	0	32076	32428	
4333	0	31774	32505	
4334	0	31862	32662	
4335	0	32022	32775	
4336	0	32144	32516	
4337	0	32256	32604	
4338	0	32432	32806	
4339	0	32768	32711	
4340	0	32750	32732	
4341	0	32848	32830	
4342	0	32908	32756	
4343	0	32942	32840	
4344	0	33244	32912	
4345	0	33256	32928	
4346	0	32930	32746	
4347	0	32892	32817	
4348	0	32924	32630	
4349	0	33032	32590	
4350	0	33252	32615	
4351	0	33396	32758	
4352	0	33072	32848	
4353	0	32938	32775	
4354	0	32684	32951	
4355	0	32760	33044	
4356	0	32673	33060	
4357	0	32718	32859	
4358	0	32656	32750	
4359	0	32692	32617	
4360	0	32728	32587	
4361	0	32720	32660	
4362	0	32832	32854	
4363	0	32744	32871	
4364	0	32937	32711	
4365	0	32744	32762	
4366	0	32768	32834	
4367	0	32794	32900	
4368	0	32944	32764	
4369	0	32908	32732	
4370	0	32850	32862	
4371	0	32752	32838	
4372	0	32850	32743	
4373	0	32876	32720	
4374	0	32880	32860	
4375	0	32896	32808	
4376	0	32872	32756	
4377	0	32790	32822	
4378	0	32664	32792	
4379	0	32676	32724	
4380	0	32754	32614	
4381	0	32892	32615	
4382	0	33008	32720	
4383	0	32848	32704	
4384	0	32744	32814	
4385	0	32830	32732	
4386	0	32866	32742	
4387	0	32996	32830	
4388	0	32894	32882	
4389	0	32656	32824	
4390	0	32692	32871	
4391	0	32564	32818	
4392	0	32504	32816	
4393	0	32418	32816	
4394	0	32708	32620	
4395	0	32828	32748	
4396	0	32856	32692	
4397	0	32956	32814	
4398	0	32826	32774	
4399	0	32840	32724	
4400	0	32924	32714	
4401	0	32780	32686	
4402	0	32620	32775	
4403	0	32660	32753	
4404	0	32760	32726	
4405	0	32808	32734	
4406	0	32840	32658	
4407	0	32872	32706	
4408	0	32820	32837	
4409	0	32960	32647	
4410	0	33136	32656	
4411	0	33088	32594	
4412	0	33044	32519	
4413	0	32968	32678	
4414	0	32792	32868	
4415	0	32548	32754	
4416	0	32390	32710	
4417	0	32596	32812	
4418	0	32696	32940	
4419	0	32705	32884	
4420	0	32806	32869	
4421	0	33052	32758	
4422	0	33176	32716	
4423	0	33028	32858	
4424	0	32800	32655	
4425	0	32562	32774	
4426	0	32648	32678	
4427	0	32624	32620	
4428	0	32426	32844	
4429	0	32516	32730	
4430	0	32712	32754	
4431	0	32748	32678	
4432	0	32780	32714	
4433	0	32854	32790	
4434	0	32948	32772	
4435	0	33108	32730	
4436	0	33160	32670	
4437	0	33156	32868	
4438	0	32972	32902	
4439	0	32930	32814	
4440	0	33046	32884	
4441	0	32728	32812	
4442	0	32600	32692	
4443	0	32512	32774	
4444	0	32532	32788	
4445	0	32656	32959	
4446	0	32676	32926	
4447	0	32694	32744	
4448	0	32734	32868	
4449	0	32960	32480	
4450	0	32906	32519	
4451	0	32816	32700	
4452	0	32990	32686	
4453	0	32952	32884	
4454	0	32880	32870	
4455	0	33016	32860	
4456	0	32888	32668	
4457	0	33062	32824	
4458	0	33066	32844	
4459	0	32948	32716	
4460	0	33164	32788	
4461	0	33200	32680	
4462	0	33340	32684	
4463	0	33380	32860	
4464	0	32944	32842	
4465	0	32692	32804	
4466	0	32476	32698	
4467	0	31970	32775	
4468	0	31808	32664	
4469	0	31996	32863	
4470	0	32292	32834	
4471	0	32530	32600	
4472	0	32586	32676	
4473	0	32672	32694	
4474	0	32664	32694	
4475	0	32936	32764	
4476	0	32904	32840	
4477	0	33064	32774	
4478	0	33132	32864	
4479	0	33116	32790	
4480	0	32940	32710	
4481	0	32884	32494	
4482	0	32816	32640	
4483	0	32806	32704	
4484	0	32842	32876	
4485	0	32936	32842	
4486	0	33082	32807	
4487	0	33130	32834	
4488	0	32988	32806	
4489	0	32976	32582	
4490	0	32922	32768	
4491	0	32848	32748	
4492	0	32766	32694	
4493	0	32844	32642	
4494	0	32730	32864	
4495	0	32784	32900	
4496	0	32716	32638	
4497	0	32728	32586	
4498	0	32748	32678	
4499	0	32752	32817	
4500	0	32884	32799	
4501	0	32884	32698	
4502	0	32884	32775	
4503	0	32748	32728	
4504	0	32758	32686	
4505	0	32712	32718	
4506	0	32692	32743	
4507	0	32898	32892	
4508	0	33012	32900	
4509	0	32936	32922	
4510	0	32972	32852	
4511	0	32960	32772	
4512	0	32864	32631	
4513	0	32782	32742	
4514	0	32661	32695	
4515	0	32692	32820	
4516	0	32752	32875	
4517	0	32752	32868	
4518	0	32612	32716	
4519	0	32566	32674	
4520	0	32616	32752	
4521	0	32728	32830	
4522	0	32616	32843	
4523	0	32764	32736	
4524	0	32958	32927	
4525	0	32906	32766	
4526	0	32936	32692	
4527	0	32972	32660	
4528	0	32994	32742	
4529	0	32944	32864	
4530	0	32991	32788	
4531	0	32792	32926	
4532	0	32750	32756	
4533	0	32660	32679	
4534	0	32758	32602	
4535	0	32864	32582	
4536	0	32871	32736	
4537	0	32832	32612	
4538	0	32692	32820	
4539	0	32668	32930	
4540	0	32544	32791	
4541	0	32772	32756	
4542	0	32810	32826	
4543	0	32752	32836	
4544	0	32836	32802	
4545	0	32980	32832	
4546	0	32880	32743	
4547	0	32957	32652	
4548	0	32956	32775	
4549	0	32956	32766	
4550	0	32800	32702	
4551	0	32864	32736	
4552	0	32736	32700	
4553	0	32597	32934	
4554	0	32732	32775	
4555	0	32772	32830	
4556	0	32984	32682	
4557	0	33102	32710	
4558	0	33156	32826	
4559	0	32780	32775	
4560	0	32634	32616	
4561	0	32622	32654	
4562	0	32686	32792	
4563	0	32720	32878	
4564	0	32634	32886	
4565	0	32692	32716	
4566	0	32752	32710	
4567	0	32746	32882	
4568	0	32746	32788	
4569	0	32845	32855	
4570	0	33056	32866	
4571	0	32992	32766	
4572	0	32990	32823	
4573	0	32862	32728	
4574	0	32744	32720	
4575	0	32610	32629	
4576	0	32672	32775	
4577	0	32628	32992	
4578	0	32880	32940	
4579	0	32934	32766	
4580	0	32816	32647	
4581	0	32872	32588	
4582	0	32870	32519	
4583	0	32800	32607	
4584	0	32900	32810	
4585	0	32988	32728	
4586	0	32776	32896	
4587	0	32752	32743	
4588	0	32700	32798	
4589	0	32818	32590	
4590	0	32900	32874	
4591	0	32900	32844	
4592	0	32980	32686	
4593	0	32872	32758	
4594	0	32840	32726	
4595	0	32848	32874	
4596	0	32720	32892	
4597	0	32702	32620	
4598	0	32924	32654	
4599	0	33028	32766	
4600	0	33064	32788	
4601	0	33112	32868	
4602	0	32998	32802	
4603	0	32970	32839	
4604	0	33012	32692	
4605	0	32992	32628	
4606	0	32886	32698	
4607	0	32452	32806	
4608	0	32116	32736	
4609	0	32068	32830	
4610	0	31912	32838	
4611	0	31944	32703	
4612	0	32100	32903	
4613	0	32356	32775	
4614	0	32532	32902	
4615	0	32836	32830	
4616	0	32924	32818	
4617	0	32968	32742	
4618	0	32968	32738	
4619	0	33150	32736	
4620	0	33438	32694	
4621	0	33352	32694	
4622	0	33300	32848	
4623	0	33188	32770	
4624	0	33104	32672	
4625	0	33064	32743	
4626	0	32992	32740	
4627	0	32938	32830	
4628	0	32820	32686	
4629	0	32696	32786	
4630	0	32726	32817	
4631	0	32744	32904	
4632	0	32836	32771	
4633	0	32844	32687	
4634	0	32642	32760	
4635	0	32716	32630	
4636	0	32736	32692	
4637	0	32680	32766	
4638	0	32652	32820	
4639	0	32836	32740	
4640	0	32952	32844	
4641	0	32772	32680	
4642	0	32780	32760	
4643	0	32746	32836	
4644	0	32916	32800	
4645	0	32988	32764	
4646	0	32872	32800	
4647	0	32818	32682	
4648	0	32710	32802	
4649	0	32705	32756	
4650	0	32832	32913	
4651	0	32924	32792	
4652	0	32836	32761	
4653	0	32958	32908	
4654	0	32976	32774	
4655	0	32896	32798	
4656	0	33006	32772	
4657	0	32804	32840	
4658	0	32734	32725	
4659	0	32666	32796	
4660	0	32600	32736	
4661	0	32728	32740	
4662	0	32592	32704	
4663	0	32660	32736	
4664	0	32584	32746	
4665	0	32612	32636	
4666	0	32736	32751	
4667	0	32696	32864	
4668	0	32786	32676	
4669	0	32894	32852	
4670	0	32866	32906	
4671	0	32878	32642	
4672	0	32908	32727	
4673	0	32758	32764	
4674	0	32852	32908	
4675	0	32954	32652	
4676	0	32910	32794	
4677	0	32948	32798	
4678	0	32876	32602	
4679	0	32805	32896	
4680	0	32836	32854	
4681	0	32988	32924	
4682	0	32976	32718	
4683	0	32864	32798	
4684	0	32922	32663	
4685	0	32724	32682	
4686	0	32732	32599	
4687	0	32652	32689	
4688	0	32612	32647	
4689	0	32704	32746	
4690	0	32926	32716	
4691	0	32942	32756	
4692	0	33168	32734	
4693	0	33198	32674	
4694	0	33226	32870	
4695	0	32936	33029	
4696	0	32574	32932	
4697	0	32304	32704	
4698	0	32316	32788	
4699	0	32406	32804	
4700	0	32472	32712	
4701	0	32674	32666	
4702	0	32712	32598	
4703	0	32792	32704	
4704	0	32686	32874	
4705	0	32806	32839	
4706	0	32848	32842	
4707	0	32852	32684	
4708	0	32856	32670	
4709	0	32906	32640	
4710	0	32952	32830	
4711	0	33077	32727	
4712	0	32936	32740	
4713	0	33060	32832	
4714	0	32992	32574	
4715	0	33092	32812	
4716	0	32890	32688	
4717	0	32850	32698	
4718	0	32808	32700	
4719	0	32728	32838	
4720	0	32808	32756	
4721	0	32804	32772	
4722	0	32694	32719	
4723	0	32700	32814	
4724	0	32896	32804	
4725	0	32778	32896	
4726	0	32664	32743	
4727	0	32704	32760	
4728	0	32700	32876	
4729	0	32748	32808	
4730	0	32730	32825	
4731	0	32770	32718	
4732	0	32960	32722	
4733	0	32946	32840	
4734	0	32938	32736	
4735	0	32728	32811	
4736	0	32744	32794	
4737	0	32728	32807	
4738	0	32752	32774	
4739	0	32960	32725	
4740	0	32788	32774	
4741	0	32820	32706	
4742	0	32708	32558	
4743	0	32784	32736	
4744	0	32844	32836	
4745	0	32820	32770	
4746	0	32900	32532	
4747	0	32936	32612	
4748	0	32972	32770	
4749	0	33126	32736	
4750	0	32984	32724	
4751	0	32984	32553	
4752	0	32956	32482	
4753	0	32840	32666	
4754	0	32770	32654	
4755	0	32728	32500	
4756	0	32744	32668	
4757	0	32756	32622	
4758	0	32786	32632	
4759	0	32844	32580	
4760	0	32772	32569	
4761	0	32856	32644	
4762	0	32838	32752	
4763	0	32959	32742	
4764	0	32932	32786	
4765	0	32896	32944	
4766	0	32800	33060	
4767	0	32900	32984	
4768	0	32834	33230	
4769	0	32572	33274	
4770	0	32244	33463	
4771	0	32044	33518	
4772	0	32240	33543	
4773	0	32272	33272	
4774	0	32330	33156	
4775	0	32584	32940	
4776	0	32488	33044	
4777	0	32580	32998	
4778	0	32644	32650	
4779	0	32678	32692	
4780	0	32912	32644	
4781	0	33136	32826	
4782	0	33328	32602	
4783	0	33036	32654	
4784	0	33172	32492	
4785	0	33352	32511	
4786	0	33256	32407	
4787	0	33128	32416	
4788	0	33122	32447	
4789	0	32902	32518	
4790	0	32812	32590	
4791	0	32720	32652	
4792	0	32736	32447	
4793	0	32576	32567	
4794	0	32118	32752	
4795	0	32068	32867	
4796	0	32224	32711	
4797	0	32396	32647	
4798	0	32382	32728	
4799	0	32632	32696	
4800	0	33010	32672	
4801	0	32940	32664	
4802	0	32936	32774	
4803	0	33124	32737	
4804	0	33118	32844	
4805	0	33128	32828	
4806	0	33208	32800	
4807	0	33248	32732	
4808	0	33232	32849	
4809	0	33116	32650	
4810	0	33018	32934	
4811	0	33002	32746	
4812	0	32886	32716	
4813	0	32784	32808	
4814	0	32780	32756	
4815	0	32760	32772	
4816	0	32730	32816	
4817	0	32794	32743	
4818	0	32738	32838	
4819	0	32768	32772	
4820	0	32856	32676	
4821	0	32800	32808	
4822	0	32824	32832	
4823	0	32708	32774	
4824	0	32796	32609	
4825	0	32734	32842	
4826	0	32800	32900	
4827	0	32856	32842	
4828	0	32728	32822	
4829	0	32730	32750	
4830	0	32620	32756	
4831	0	32948	32736	
4832	0	32874	32702	
4833	0	32716	32764	
4834	0	32818	32696	
4835	0	32878	32807	
4836	0	32894	32640	
4837	0	32848	32820	
4838	0	32860	32769	
4839	0	32718	32818	
4840	0	32700	32754	
4841	0	32632	32802	
4842	0	32734	32912	
4843	0	32864	32774	
4844	0	32860	32654	
4845	0	32840	32734	
4846	0	32792	32748	
4847	0	32836	32774	
4848	0	32798	32756	
4849	0	32812	32752	
4850	0	32794	32870	
4851	0	32798	32824	
4852	0	32772	32820	
4853	0	32830	32774	
4854	0	32872	32668	
4855	0	32800	32832	
4856	0	32848	32943	
4857	0	32892	32732	
4858	0	32868	32590	
4859	0	32740	32516	
4860	0	32700	32636	
4861	0	32782	32820	
4862	0	32774	32694	
4863	0	32644	32744	
4864	0	32596	32743	
4865	0	32736	32664	
4866	0	32862	32716	
4867	0	32952	32724	
4868	0	32876	32867	
4869	0	32858	32834	
4870	0	32752	32734	
4871	0	32852	32824	
4872	0	32770	32798	
4873	0	32934	32910	
4874	0	32992	32836	
4875	0	33044	32872	
4876	0	32896	32830	
4877	0	32870	32704	
4878	0	32830	32866	
4879	0	32910	32810	
4880	0	32868	32642	
4881	0	32756	32618	
4882	0	32700	32752	
4883	0	32736	32708	
4884	0	32732	32792	
4885	0	32704	32636	
4886	0	32704	32686	
4887	0	32762	32686	
4888	0	32820	32834	
4889	0	32740	32790	
4890	0	32776	32828	
4891	0	32996	32846	
4892	0	32948	32709	
4893	0	32874	32732	
4894	0	32764	32930	
4895	0	32784	32958	
4896	0	32834	32916	
4897	0	32970	32948	
4898	0	32896	32647	
4899	0	32700	32732	
4900	0	32708	32726	
4901	0	32750	32864	
4902	0	32776	32775	
4903	0	32750	32722	
4904	0	32676	32714	
4905	0	32632	32716	
4906	0	32700	32815	
4907	0	32740	32748	
4908	0	32734	32623	
4909	0	33052	32644	
4910	0	32924	32662	
4911	0	32694	32735	
4912	0	32792	32676	
4913	0	32896	32794	
4914	0	33008	32716	
4915	0	32840	32862	
4916	0	32904	32696	
4917	0	32952	32714	
4918	0	32842	32808	
4919	0	32812	32804	
4920	0	32804	32862	
4921	0	32830	32672	
4922	0	32808	32726	
4923	0	32908	32854	
4924	0	32908	32662	
4925	0	32668	32836	
4926	0	32644	32919	
4927	0	32598	32913	
4928	0	32636	32822	
4929	0	32740	32678	
4930	0	32576	32680	
4931	0	32660	32630	
4932	0	32708	32652	
4933	0	32798	32630	
4934	0	32888	32846	
4935	0	32856	32832	
4936	0	32928	32618	
4937	0	32880	32716	
4938	0	32878	32714	
4939	0	32784	32695	
4940	0	32708	32654	
4941	0	32612	32620	
4942	0	32716	32742	
4943	0	32808	32720	
4944	0	32922	32712	
4945	0	32946	32650	
4946	0	32992	32822	
4947	0	32946	32820	
4948	0	32956	33031	
4949	0	33000	32849	
4950	0	32936	32956	
4951	0	33010	32897	
4952	0	32942	32775	
4953	0	32912	32740	
4954	0	32738	32724	
4955	0	32676	32854	
4956	0	32628	32704	
4957	0	32549	32732	
4958	0	32726	32790	
4959	0	32844	32700	
4960	0	32688	32688	
4961	0	32602	32734	
4962	0	32656	32774	
4963	0	32766	32809	
4964	0	32772	32834	
4965	0	32740	32626	
4966	0	32774	32694	
4967	0	32852	32679	
4968	0	32964	32864	
4969	0	33030	32740	
4970	0	33084	32636	
4971	0	32822	32647	
4972	0	32702	32662	
4973	0	32752	32724	
4974	0	32826	32814	
4975	0	32924	32846	
4976	0	32822	32722	
4977	0	32896	32878	
4978	0	32962	32834	
4979	0	32841	32926	
4980	0	32860	32751	
4981	0	32932	32854	
4982	0	32912	32753	
4983	0	32920	32618	
4984	0	32904	32716	
4985	0	32856	32756	
4986	0	32732	32753	
4987	0	32716	32738	
4988	0	32852	32676	
4989	0	32800	32655	
4990	0	32836	32706	
4991	0	32732	32660	
4992	0	32960	32826	
4993	0	33016	32812	
4994	0	32788	32724	
4995	0	32618	32924	
4996	0	32596	32862	
4997	0	32542	32840	
4998	0	32610	32672	
4999	0	32808	32698	
5000	0	32744	32916	
5001	0	32646	32775	
5002	0	32519	32833	
5003	0	32716	32796	
5004	0	32944	32756	
5005	0	32768	32742	
5006	0	32788	32696	
5007	0	32766	32738	
5008	0	32754	32718	
5009	0	32848	32764	
5010	0	32886	32807	
5011	0	32900	32847	
5012	0	32916	32721	
5013	0	33016	32903	
5014	0	33140	32720	
5015	0	33026	32711	
5016	0	33062	32711	
5017	0	33044	32655	
5018	0	32906	32794	
5019	0	32800	32775	
5020	0	32474	32714	
5021	0	32372	32600	
5022	0	32304	32775	
5023	0	32428	32744	
5024	0	32736	32839	
5025	0	32768	32810	
5026	0	32924	32838	
5027	0	33032	32903	
5028	0	33112	32758	
5029	0	33032	32820	
5030	0	32944	33024	
5031	0	32856	32828	
5032	0	32832	32766	
5033	0	32804	32668	
5034	0	32824	32676	
5035	0	32706	32620	
5036	0	32778	32642	
5037	0	32728	32720	
5038	0	32736	32652	
5039	0	32864	32714	
5040	0	32940	32712	
5041	0	32998	32856	
5042	0	32964	32926	
5043	0	33020	32996	
5044	0	32908	32884	
5045	0	32968	32822	
5046	0	32812	32839	
5047	0	32624	32671	
5048	0	32546	32775	
5049	0	32614	32672	
5050	0	32672	32934	
5051	0	32624	32966	
5052	0	32650	32743	
5053	0	32944	32702	
5054	0	33028	32654	
5055	0	32822	32774	
5056	0	32840	32700	
5057	0	32852	32642	
5058	0	32940	32690	
5059	0	32924	32870	
5060	0	32772	32753	
5061	0	32757	32816	
5062	0	33004	32734	
5063	0	33074	32630	
5064	0	32868	32774	
5065	0	32628	32678	
5066	0	32460	32656	
5067	0	32502	32736	
5068	0	32532	32640	
5069	0	32712	32740	
5070	0	32748	32820	
5071	0	32692	32943	
5072	0	32874	32820	
5073	0	32940	32922	
5074	0	32968	32806	
5075	0	32900	32830	
5076	0	32952	32802	
5077	0	32922	32702	
5078	0	32828	32674	
5079	0	32892	32750	
5080	0	32872	32682	
5081	0	32852	32804	
5082	0	32860	32766	
5083	0	32848	32855	
5084	0	32862	32775	
5085	0	32686	32820	
5086	0	32696	32730	
5087	0	32636	32538	
5088	0	32698	32633	
5089	0	32872	32770	
5090	0	32890	32788	
5091	0	32992	32814	
5092	0	32988	32652	
5093	0	32816	32871	
5094	0	32728	32750	
5095	0	32736	32700	
5096	0	32816	32742	
5097	0	32920	32752	
5098	0	32828	32712	
5099	0	32862	32780	
5100	0	32932	32711	
5101	0	32982	32838	
5102	0	32838	32810	
5103	0	32666	32782	
5104	0	32640	32692	
5105	0	32834	32916	
5106	0	32736	32774	
5107	0	32698	32856	
5108	0	32640	32636	
5109	0	32616	32700	
5110	0	32644	32660	
5111	0	32640	32756	
5112	0	32674	32672	
5113	0	32840	32808	
5114	0	32940	32910	
5115	0	32862	32897	
5116	0	32764	32732	
5117	0	32850	32697	
5118	0	32932	32647	
5119	0	32932	32696	
5120	0	32682	32619	
5121	0	32728	32644	
5122	0	32880	32822	
5123	0	33092	32903	
5124	0	33068	32732	
5125	0	33072	33090	
5126	0	33012	32702	
5127	0	33037	32790	
5128	0	33054	32876	
5129	0	32920	32736	
5130	0	32728	32660	
5131	0	32576	32711	
5132	0	32632	32800	
5133	0	32704	32752	
5134	0	32708	32686	
5135	0	32850	32652	
5136	0	32964	32794	
5137	0	32936	32754	
5138	0	32938	32672	
5139	0	32790	32724	
5140	0	32704	32708	
5141	0	32644	32727	
5142	0	32576	32756	
5143	0	32584	32810	
5144	0	32568	32775	
5145	0	32616	32738	
5146	0	32680	32730	
5147	0	32660	32834	
5148	0	32648	32764	
5149	0	32820	32888	
5150	0	32858	32774	
5151	0	32856	32794	
5152	0	32836	32816	
5153	0	32974	32756	
5154	0	32968	32679	
5155	0	32998	32582	
5156	0	32962	32614	
5157	0	33022	32766	
5158	0	32926	32775	
5159	0	32888	32646	
5160	0	32768	32564	
5161	0	32836	32696	
5162	0	32822	32718	
5163	0	32534	32746	
5164	0	32682	32775	
5165	0	32980	32783	
5166	0	32998	32936	
5167	0	33204	33030	
5168	0	33152	33038	
5169	0	32948	32862	
5170	0	32832	32968	
5171	0	32578	32760	
5172	0	32584	32798	
5173	0	32674	32913	
5174	0	32544	32822	
5175	0	32462	32587	
5176	0	32500	32660	
5177	0	32640	32594	
5178	0	32792	32724	
5179	0	32874	32810	
5180	0	32870	32754	
5181	0	32840	32680	
5182	0	32792	32632	
5183	0	32810	32720	
5184	0	32906	32871	
5185	0	32922	32710	
5186	0	32912	32736	
5187	0	32872	32704	
5188	0	32864	32820	
5189	0	32848	32770	
5190	0	32828	32744	
5191	0	32832	32788	
5192	0	32900	32742	
5193	0	32964	32775	
5194	0	32816	32802	
5195	0	32858	32812	
5196	0	32776	32698	
5197	0	32610	32826	
5198	0	32616	32771	
5199	0	32632	32807	
5200	0	32868	32856	
5201	0	33060	32708	
5202	0	33024	32889	
5203	0	32824	32775	
5204	0	32792	32688	
5205	0	32662	32634	
5206	0	32584	32716	
5207	0	32688	32842	
5208	0	32784	32647	
5209	0	32744	32775	
5210	0	32744	32799	
5211	0	32776	32662	
5212	0	32792	32814	
5213	0	32872	32775	
5214	0	32860	32736	
5215	0	32904	32775	
5216	0	33182	32839	
5217	0	33264	32728	
5218	0	32872	32628	
5219	0	32812	32588	
5220	0	32736	32660	
5221	0	32620	32748	
5222	0	32484	32704	
5223	0	32470	32800	
5224	0	32616	32693	
5225	0	32700	32916	
5226	0	32900	33008	
5227	0	33172	33031	
5228	0	33048	32900	
5229	0	33012	32792	
5230	0	32964	32852	
5231	0	32926	32730	
5232	0	32884	32791	
5233	0	32892	32810	
5234	0	32656	32698	
5235	0	32644	32676	
5236	0	32644	32731	
5237	0	32724	32894	
5238	0	32732	32684	
5239	0	32768	32692	
5240	0	32792	32727	
5241	0	32824	32614	
5242	0	32872	32703	
5243	0	32866	32834	
5244	0	32864	32826	
5245	0	32934	32820	
5246	0	32856	32534	
5247	0	32704	32518	
5248	0	32658	32808	
5249	0	32592	32836	
5250	0	32724	32876	
5251	0	32768	32608	
5252	0	32864	32722	
5253	0	32858	32926	
5254	0	32832	32794	
5255	0	32864	32772	
5256	0	32692	32756	
5257	0	32788	32600	
5258	0	32820	32640	
5259	0	32804	32760	
5260	0	32838	32762	
5261	0	32888	32736	
5262	0	32844	32710	
5263	0	32952	32679	
5264	0	32960	32775	
5265	0	32928	32770	
5266	0	32958	32834	
5267	0	32976	32800	
5268	0	32812	32842	
5269	0	32736	32718	
5270	0	32752	32766	
5271	0	32570	32772	
5272	0	32632	32686	
5273	0	32688	32903	
5274	0	32736	32790	
5275	0	32816	32812	
5276	0	32640	32794	
5277	0	32644	32656	
5278	0	32728	32720	
5279	0	32747	32844	
5280	0	32748	32596	
5281	0	32748	32788	
5282	0	32764	32647	
5283	0	32948	32618	
5284	0	33130	32801	
5285	0	33166	32848	
5286	0	33162	32852	
5287	0	33060	32810	
5288	0	33016	32916	
5289	0	32856	32768	
5290	0	32760	32748	
5291	0	32668	32626	
5292	0	32548	32704	
5293	0	32616	32744	
5294	0	32736	32748	
5295	0	32834	32680	
5296	0	32804	32748	
5297	0	33088	32792	
5298	0	33068	32807	
5299	0	32764	32812	
5300	0	32704	32722	
5301	0	32720	32758	
5302	0	32820	32711	
5303	0	32856	32710	
5304	0	32744	32692	
5305	0	32752	32690	
5306	0	32792	32810	
5307	0	32704	32775	
5308	0	32760	32916	
5309	0	32846	32679	
5310	0	32902	32682	
5311	0	32874	32863	
5312	0	32712	32768	
5313	0	32736	32847	
5314	0	32810	32636	
5315	0	32884	32836	
5316	0	32844	32734	
5317	0	32936	32730	
5318	0	32864	32820	
5319	0	32840	32646	
5320	0	32800	32764	
5321	0	32884	32696	
5322	0	32874	32704	
5323	0	32822	32678	
5324	0	32740	32727	
5325	0	32716	32881	
5326	0	32628	32834	
5327	0	32624	32894	
5328	0	32628	32808	
5329	0	32578	32714	
5330	0	32716	32856	
5331	0	32744	32838	
5332	0	32840	32792	
5333	0	32904	32750	
5334	0	32970	32647	
5335	0	32964	32745	
5336	0	33072	32708	
5337	0	33262	32920	
5338	0	33076	32658	
5339	0	32850	32650	
5340	0	32822	32708	
5341	0	32704	32794	
5342	0	32714	32728	
5343	0	32738	32720	
5344	0	32704	32592	
5345	0	32840	32736	
5346	0	32872	32774	
5347	0	32900	32866	
5348	0	32824	32824	
5349	0	32800	32882	
5350	0	32774	32879	
5351	0	32728	32775	
5352	0	32684	32807	
5353	0	32816	32788	
5354	0	32892	32705	
5355	0	33008	32690	
5356	0	32800	32716	
5357	0	32768	32704	
5358	0	32784	32653	
5359	0	32810	32792	
5360	0	32672	32772	
5361	0	32622	32807	
5362	0	32664	32796	
5363	0	32828	32774	
5364	0	32652	32694	
5365	0	32572	32732	
5366	0	32720	32858	
5367	0	32712	32972	
5368	0	32820	32638	
5369	0	32846	32742	
5370	0	32850	32826	
5371	0	32888	32896	
5372	0	32942	32720	
5373	0	32882	32736	
5374	0	32956	32817	
5375	0	32970	32775	
5376	0	32994	32742	
5377	0	32938	32708	
5378	0	32926	32750	
5379	0	32852	32696	
5380	0	32738	32636	
5381	0	32792	32744	
5382	0	32770	32708	
5383	0	32750	32804	
5384	0	32676	32750	
5385	0	32732	32800	
5386	0	32692	32736	
5387	0	32794	32710	
5388	0	32780	32710	
5389	0	32764	32812	
5390	0	32668	32694	
5391	0	32620	32846	
5392	0	32664	32794	
5393	0	32668	32593	
5394	0	32628	32684	
5395	0	32852	32678	
5396	0	32892	32668	
5397	0	32984	32892	
5398	0	33026	32798	
5399	0	33008	32832	
5400	0	33010	32864	
5401	0	33160	32902	
5402	0	33038	32806	
5403	0	33088	32858	
5404	0	32930	32713	
5405	0	32998	32716	
5406	0	32880	32718	
5407	0	32794	32871	
5408	0	32730	32846	
5409	0	32704	32770	
5410	0	32952	32726	
5411	0	32766	32836	
5412	0	32714	32820	
5413	0	32564	32686	
5414	0	32560	32820	
5415	0	32604	32711	
5416	0	32704	32775	
5417	0	32856	32775	
5418	0	32788	32736	
5419	0	32816	32720	
5420	0	32928	32846	
5421	0	32824	32786	
5422	0	32824	32840	
5423	0	32776	32655	
5424	0	32760	32800	
5425	0	32768	32766	
5426	0	32826	32826	
5427	0	32868	32824	
5428	0	32844	32767	
5429	0	32732	32764	
5430	0	32802	32752	
5431	0	32752	32678	
5432	0	32668	32670	
5433	0	32618	32646	
5434	0	32596	32659	
5435	0	32740	32750	
5436	0	32848	32764	
5437	0	32942	32854	
5438	0	33108	32880	
5439	0	33084	32938	
5440	0	33222	32804	
5441	0	33132	32794	
5442	0	33088	32766	
5443	0	32940	32636	
5444	0	32868	32664	
5445	0	32752	32514	
5446	0	32640	32798	
5447	0	32548	32876	
5448	0	32552	32882	
5449	0	32460	32900	
5450	0	32632	32817	
5451	0	32688	32710	
5452	0	32756	32602	
5453	0	32796	32660	
5454	0	32872	32836	
5455	0	32820	32884	
5456	0	32906	32775	
5457	0	32828	32852	
5458	0	32724	32716	
5459	0	32796	32596	
5460	0	32890	32678	
5461	0	32880	32719	
5462	0	32776	32788	
5463	0	32960	32854	
5464	0	32864	32748	
5465	0	32884	32724	
5466	0	32778	32830	
5467	0	32812	32772	
5468	0	32896	32644	
5469	0	32916	32798	
5470	0	32812	32654	
5471	0	32824	32756	
5472	0	32888	32836	
5473	0	32888	32866	
5474	0	32868	32830	
5475	0	32760	32846	
5476	0	32724	32808	
5477	0	32716	32772	
5478	0	32728	32698	
5479	0	32692	32804	
5480	0	32704	32775	
5481	0	32676	32714	
5482	0	32708	32828	
5483	0	32814	32810	
5484	0	32834	32804	
5485	0	32821	32622	
5486	0	32764	32838	
5487	0	32696	32724	
5488	0	32708	32679	
5489	0	32736	32756	
5490	0	32776	32710	
5491	0	32708	32646	
5492	0	32828	32882	
5493	0	33142	32774	
5494	0	33102	32775	
5495	0	32964	32878	
5496	0	32881	32760	
5497	0	32894	32856	
5498	0	32888	32673	
5499	0	32860	32844	
5500	0	32816	32751	
5501	0	32830	32706	
5502	0	32830	32836	
5503	0	32688	32840	
5504	0	32750	32802	
5505	0	32802	32790	
5506	0	32816	32702	
5507	0	32844	32837	
5508	0	32818	32742	
5509	0	32714	32738	
5510	0	32772	32798	
5511	0	32820	32766	
5512	0	32820	32772	
5513	0	32864	32834	
5514	0	32800	32766	
5515	0	32804	32700	
5516	0	32762	32728	
5517	0	32772	32775	
5518	0	32808	32640	
5519	0	32784	32679	
5520	0	32774	32676	
5521	0	32776	32718	
5522	0	32756	32614	
5523	0	32700	32864	
5524	0	32796	32871	
5525	0	32834	32852	
5526	0	32886	32823	
5527	0	32824	32828	
5528	0	32810	32760	
5529	0	32840	32664	
5530	0	32720	32610	
5531	0	32756	32612	
5532	0	32718	32638	
5533	0	32718	32728	
5534	0	32742	32732	
5535	0	32784	32878	
5536	0	32788	32788	
5537	0	32784	32804	
5538	0	32848	32788	
5539	0	32900	32766	
5540	0	32992	32680	
5541	0	32980	32902	
5542	0	33064	32862	
5543	0	33002	32804	
5544	0	33008	32800	
5545	0	33026	32810	
5546	0	33008	32756	
5547	0	32804	32775	
5548	0	32764	32684	
5549	0	32624	32732	
5550	0	32660	32766	
5551	0	32638	32774	
5552	0	32632	32768	
5553	0	32684	32775	
5554	0	32664	32726	
5555	0	32668	32895	
5556	0	32712	32775	
5557	0	32658	32752	
5558	0	32788	32628	
5559	0	32836	32676	
5560	0	32868	32825	
5561	0	32896	32710	
5562	0	32874	32676	
5563	0	32952	32582	
5564	0	32984	32634	
5565	0	32964	32684	
5566	0	32862	32714	
5567	0	32796	32576	
5568	0	32808	32831	
5569	0	32800	32652	
5570	0	32888	32746	
5571	0	32962	32640	
5572	0	32936	32670	
5573	0	33028	32714	
5574	0	33028	32799	
5575	0	33100	32708	
5576	0	33040	32708	
5577	0	33004	32807	
5578	0	32998	32725	
5579	0	32980	32724	
5580	0	32932	32708	
5581	0	32892	32540	
5582	0	32828	32646	
5583	0	32800	32734	
5584	0	32712	32698	
5585	0	32600	32838	
5586	0	32576	32968	
5587	0	32372	33020	
5588	0	32354	32980	
5589	0	32252	33127	
5590	0	32232	33368	
5591	0	32220	33450	
5592	0	32300	33380	
5593	0	32460	33252	
5594	0	32610	32948	
5595	0	32720	32844	
5596	0	32740	32866	
5597	0	32804	32838	
5598	0	32728	32930	
5599	0	32846	32864	
5600	0	32820	32718	
5601	0	32838	32690	
5602	0	32920	32612	
5603	0	32864	32598	
5604	0	32916	32586	
5605	0	32988	32543	
5606	0	33124	32504	
5607	0	33092	32519	
5608	0	33096	32644	
5609	0	33052	32678	
5610	0	32940	32692	
5611	0	32936	32572	
5612	0	32884	32580	
5613	0	32842	32586	
5614	0	32840	32551	
5615	0	32804	32488	
5616	0	32730	32766	
5617	0	32852	32732	
5618	0	32874	32707	
5619	0	32964	32726	
5620	0	32924	32610	
5621	0	32906	32775	
5622	0	32896	32719	
5623	0	32858	32742	
5624	0	32718	32678	
5625	0	32810	32639	
5626	0	32892	32679	
5627	0	32872	32743	
5628	0	32696	32789	
5629	0	32754	32671	
5630	0	32846	32886	
5631	0	32772	32736	
5632	0	32844	32884	
5633	0	32837	32743	
5634	0	32868	32775	
5635	0	32820	32790	
5636	0	32812	32775	
5637	0	32768	32702	
5638	0	32876	32878	
5639	0	32836	32775	
5640	0	32864	32816	
5641	0	32732	32678	
5642	0	32704	32748	
5643	0	32712	32722	
5644	0	32720	32775	
5645	0	32698	32688	
5646	0	32668	32856	
5647	0	32660	32902	
5648	0	32840	32838	
5649	0	32888	32802	
5650	0	32972	32990	
5651	0	32916	32858	
5652	0	32992	32800	
5653	0	32925	32678	
5654	0	32880	32680	
5655	0	32792	32820	
5656	0	32848	32716	
5657	0	32808	32724	
5658	0	32788	32670	
5659	0	32784	32726	
5660	0	32704	32775	
5661	0	32752	32678	
5662	0	32748	32723	
5663	0	32848	32869	
5664	0	32914	32784	
5665	0	32872	32772	
5666	0	32808	32750	
5667	0	32774	32868	
5668	0	32794	32754	
5669	0	32754	32694	
5670	0	32812	32814	
5671	0	32728	32770	
5672	0	32788	32900	
5673	0	32816	32724	
5674	0	32916	32656	
5675	0	32792	32751	
5676	0	32834	32686	
5677	0	32844	32808	
5678	0	32820	32640	
5679	0	32800	32839	
5680	0	32828	32864	
5681	0	32724	32724	
5682	0	32670	32682	
5683	0	32772	32850	
5684	0	32712	32838	
5685	0	32808	32812	
5686	0	32942	32709	
5687	0	32860	32752	
5688	0	32810	32748	
5689	0	32816	32775	
5690	0	32804	32772	
5691	0	32832	32734	
5692	0	32820	32794	
5693	0	32860	32707	
5694	0	32836	32748	
5695	0	32858	32618	
5696	0	32820	32711	
5697	0	32760	32774	
5698	0	32792	32806	
5699	0	32766	32658	
5700	0	32732	32704	
5701	0	32676	32862	
5702	0	32832	32775	
5703	0	32814	32730	
5704	0	32862	32738	
5705	0	32846	32736	
5706	0	32732	32744	
5707	0	32710	32764	
5708	0	32542	32789	
5709	0	32554	32774	
5710	0	32604	32756	
5711	0	32622	32802	
5712	0	32828	32935	
5713	0	32892	32871	
5714	0	32978	32847	
5715	0	33166	32724	
5716	0	33128	32769	
5717	0	33214	32866	
5718	0	33252	32872	
5719	0	33084	32782	
5720	0	32908	32750	
5721	0	32852	32759	
5722	0	32768	32700	
5723	0	32780	32728	
5724	0	32654	32728	
5725	0	32586	32708	
5726	0	32666	32847	
5727	0	32660	32824	
5728	0	32648	32647	
5729	0	32704	32636	
5730	0	32762	32775	
5731	0	32760	32750	
5732	0	32812	32755	
5733	0	32748	32720	
5734	0	32816	32840	
5735	0	32808	32842	
5736	0	32696	32732	
5737	0	32716	32710	
5738	0	32740	32823	
5739	0	32756	32716	
5740	0	32778	32924	
5741	0	32954	32916	
5742	0	33044	32935	
5743	0	32900	32775	
5744	0	32804	32596	
5745	0	32816	32679	
5746	0	32836	32724	
5747	0	32846	32716	
5748	0	32794	32710	
5749	0	32836	32806	
5750	0	32794	32788	
5751	0	32772	32746	
5752	0	32748	32762	
5753	0	32854	32798	
5754	0	32848	32708	
5755	0	32748	32710	
5756	0	32762	32775	
5757	0	32776	32775	
5758	0	32896	32640	
5759	0	32900	32711	
5760	0	32800	32840	
5761	0	32810	32788	
5762	0	32868	32838	
5763	0	32810	32768	
5764	0	32856	32816	
5765	0	32848	32894	
5766	0	32844	32846	
5767	0	32780	32864	
5768	0	32832	32796	
5769	0	32808	32718	
5770	0	32764	32626	
5771	0	32744	32719	
5772	0	32712	32775	
5773	0	32742	32834	
5774	0	32696	32736	
5775	0	32690	32730	
5776	0	32812	32842	
5777	0	32856	32758	
5778	0	32900	32807	
5779	0	32977	32764	
5780	0	32932	32748	
5781	0	32876	32752	
5782	0	32788	32795	
5783	0	32768	32748	
5784	0	32808	32716	
5785	0	32756	32703	
5786	0	32872	32764	
5787	0	32796	32852	
5788	0	32784	32806	
5789	0	32868	32876	
5790	0	32844	32794	
5791	0	32888	32756	
5792	0	32890	32710	
5793	0	32962	32806	
5794	0	32822	32746	
5795	0	32754	32768	
5796	0	32798	32775	
5797	0	32748	32716	
5798	0	32784	32625	
5799	0	32736	32624	
5800	0	32672	32662	
5801	0	32664	32655	
5802	0	32700	32688	
5803	0	32654	32804	
5804	0	32700	32798	
5805	0	32676	32722	
5806	0	32814	32764	
5807	0	32900	32884	
5808	0	33052	32854	
5809	0	33098	32952	
5810	0	33146	32844	
5811	0	33040	32674	
5812	0	32984	32732	
5813	0	32964	32876	
5814	0	32924	32856	
5815	0	32854	32775	
5816	0	32816	32608	
5817	0	32724	32688	
5818	0	32722	32730	
5819	0	32672	32775	
5820	0	32692	32886	
5821	0	32740	32764	
5822	0	32760	32852	
5823	0	32700	32732	
5824	0	32753	32646	
5825	0	32780	32655	
5826	0	32796	32760	
5827	0	32660	32760	
5828	0	32636	32684	
5829	0	32734	32608	
5830	0	32740	32804	
5831	0	32790	32730	
5832	0	32862	32840	
5833	0	32848	32772	
5834	0	32900	32668	
5835	0	32850	32720	
5836	0	32952	32782	
5837	0	32930	32775	
5838	0	32796	32726	
5839	0	32744	32804	
5840	0	32782	32719	
5841	0	32804	32728	
5842	0	32752	32766	
5843	0	32688	32804	
5844	0	32800	32784	
5845	0	32810	32768	
5846	0	32752	32821	
5847	0	32872	32775	
5848	0	32982	32856	
5849	0	32954	32810	
5850	0	32894	32784	
5851	0	32840	32676	
5852	0	32864	32720	
5853	0	32814	32760	
5854	0	32802	32700	
5855	0	32700	32770	
5856	0	32740	32826	
5857	0	32862	32865	
5858	0	32818	32766	
5859	0	32736	32816	
5860	0	32888	32790	
5861	0	32914	32770	
5862	0	32832	32726	
5863	0	32758	32756	
5864	0	32780	32632	
5865	0	32628	32720	
5866	0	32656	32743	
5867	0	32538	32670	
5868	0	32600	32802	
5869	0	32752	32812	
5870	0	32892	32824	
5871	0	32968	32895	
5872	0	32884	32860	
5873	0	32734	32736	
5874	0	32842	32942	
5875	0	32808	32849	
5876	0	32766	32771	
5877	0	32788	32740	
5878	0	32834	32646	
5879	0	32942	32640	
5880	0	32932	32775	
5881	0	32818	32724	
5882	0	32798	32796	
5883	0	32824	32677	
5884	0	32744	32610	
5885	0	32692	32700	
5886	0	32850	32838	
5887	0	32778	32847	
5888	0	32716	32748	
5889	0	32792	32760	
5890	0	32756	32848	
5891	0	32768	32714	
5892	0	32832	32630	
5893	0	32816	32789	
5894	0	32784	32804	
5895	0	32808	32818	
5896	0	32852	32758	
5897	0	32776	32711	
5898	0	32816	32711	
5899	0	32844	32670	
5900	0	32814	32768	
5901	0	32792	32750	
5902	0	32828	32718	
5903	0	32782	32678	
5904	0	32856	32700	
5905	0	32812	32816	
5906	0	32872	32744	
5907	0	32960	32775	
5908	0	32876	32805	
5909	0	32908	32812	
5910	0	33012	32804	
5911	0	32890	32918	
5912	0	32900	32846	
5913	0	32872	32828	
5914	0	32838	32766	
5915	0	32858	32738	
5916	0	32758	32756	
5917	0	32708	32849	
5918	0	32738	32706	
5919	0	32680	32650	
5920	0	32660	32666	
5921	0	32816	32660	
5922	0	32800	32874	
5923	0	32740	32788	
5924	0	32816	32794	
5925	0	32788	32734	
5926	0	32718	32736	
5927	0	32748	32674	
5928	0	32836	32704	
5929	0	32820	32748	
5930	0	32838	32704	
5931	0	32858	32712	
5932	0	32828	32802	
5933	0	32828	32772	
5934	0	32842	32775	
5935	0	32932	32771	
5936	0	32942	32644	
5937	0	32956	32660	
5938	0	32876	32815	
5939	0	32754	32758	
5940	0	32734	32711	
5941	0	32712	32874	
5942	0	32641	32768	
5943	0	32752	32676	
5944	0	32788	32756	
5945	0	32788	32758	
5946	0	32744	32903	
5947	0	32806	32732	
5948	0	32836	32824	
5949	0	32814	32814	
5950	0	32912	32844	
5951	0	32854	32692	
5952	0	32842	32640	
5953	0	32824	32696	
5954	0	32816	32788	
5955	0	32832	32735	
5956	0	32822	32664	
5957	0	32764	32791	
5958	0	32768	32770	
5959	0	32736	32640	
5960	0	32744	32663	
5961	0	32785	32711	
5962	0	32820	32720	
5963	0	32844	32826	
5964	0	32944	32892	
5965	0	32910	32804	
5966	0	32948	32772	
5967	0	32852	32860	
5968	0	32880	32860	
5969	0	32904	32862	
5970	0	32876	32784	
5971	0	32794	32790	
5972	0	32784	32834	
5973	0	32772	32748	
5974	0	32672	32574	
5975	0	32558	32670	
5976	0	32544	32708	
5977	0	32496	32775	
5978	0	32630	32660	
5979	0	32744	32708	
5980	0	32902	32711	
5981	0	32922	32687	
5982	0	32900	32664	
5983	0	32986	32802	
5984	0	32996	32819	
5985	0	33018	32860	
5986	0	32972	32810	
5987	0	32878	32768	
5988	0	32838	32716	
5989	0	32738	32786	
5990	0	32756	32844	
5991	0	32725	32862	
5992	0	32740	32740	
5993	0	32732	32644	
5994	0	32810	32862	
5995	0	32792	32782	
5996	0	32740	32695	
5997	0	32802	32686	
5998	0	32820	32788	
5999	0	32816	32766	
6000	0	32788	32732	
6001	0	32836	32732	
6002	0	32808	32803	
6003	0	32868	32847	
6004	0	32784	32676	
6005	0	32784	32774	
6006	0	32820	32864	
6007	0	32816	32687	
6008	0	32706	32855	
6009	0	32802	32811	
6010	0	32784	32774	
6011	0	32804	32775	
6012	0	32816	32732	
