# OpenSignals Text File Format. Version 1
# {"00:07:80:8C:0A:39": {"position": 0, "device": "biosignalsplux", "device name": "00:07:80:8C:0A:39", "device connection": "BTH00:07:80:8C:0A:39", "sampling rate": 1000, "resolution": [16, 16], "firmware version": 776, "comments": "", "keywords": "", "mode": 0, "sync interval": 2, "date": "2023-3-20", "time": "10:42:53.579", "channels": [1, 2], "sensor": ["EMG", "EMG"], "label": ["CH1", "CH2"], "column": ["nSeq", "DI", "CH1", "CH2"], "special": [{"SpO2": [80, 40, 5, 4, 3, 3]}, {"SpO2": [80, 40, 5, 4, 3, 3]}, {"SpO2": [80, 40, 5, 4, 3, 3]}, {"SpO2": [80, 40, 5, 4, 3, 3]}, {"SpO2": [80, 40, 5, 4, 3, 3]}, {"SpO2": [80, 40, 5, 4, 3, 3]}, {"SpO2": [80, 40, 5, 4, 3, 3]}, {"SpO2": [80, 40, 5, 4, 3, 3]}], "digital IO": [0, 1], "sleeve color": ["gray", "yellow"], "convertedValues": 0}}
# EndOfHeader
0	0	32852	32722	
1	0	32848	32772	
2	0	32884	32742	
3	0	32900	32826	
4	0	32808	32666	
5	0	32845	32668	
6	0	32860	32722	
7	0	32832	32816	
8	0	32832	32700	
9	0	32864	32730	
10	0	32860	32792	
11	0	32780	32806	
12	0	32824	32722	
13	0	32792	32775	
14	0	32832	32725	
15	0	32804	32762	
16	0	32828	32696	
17	0	32844	32836	
18	0	32736	32818	
19	0	32868	32750	
20	0	32789	32887	
21	0	32770	32643	
22	0	32748	32732	
23	0	32832	32706	
24	0	32740	32810	
25	0	32816	32660	
26	0	32800	32794	
27	0	32848	32804	
28	0	32780	32857	
29	0	32764	32720	
30	0	32736	32846	
31	0	32784	32866	
32	0	32784	32740	
33	0	32776	32826	
34	0	32778	32816	
35	0	32836	32857	
36	0	32814	32718	
37	0	32770	32775	
38	0	32804	32746	
39	0	32816	32737	
40	0	32840	32840	
41	0	32780	32738	
42	0	32816	32848	
43	0	32804	32838	
44	0	32798	32754	
45	0	32842	32806	
46	0	32768	32882	
47	0	32848	32821	
48	0	32880	32796	
49	0	32824	32696	
50	0	32838	32830	
51	0	32772	32806	
52	0	32764	32806	
53	0	32786	32756	
54	0	32772	32811	
55	0	32920	32814	
56	0	32836	32818	
57	0	32804	32722	
58	0	32732	32746	
59	0	32832	32827	
60	0	32792	32814	
61	0	32852	32658	
62	0	32836	32732	
63	0	32804	32750	
64	0	32792	32762	
65	0	32796	32720	
66	0	32784	32840	
67	0	32824	32754	
68	0	32788	32827	
69	0	32784	32753	
70	0	32736	32802	
71	0	32808	32736	
72	0	32832	32713	
73	0	32826	32696	
74	0	32796	32794	
75	0	32840	32775	
76	0	32840	32748	
77	0	32808	32666	
78	0	32848	32852	
79	0	32844	32812	
80	0	32790	32839	
81	0	32888	32738	
82	0	32854	32692	
83	0	32788	32832	
84	0	32762	32804	
85	0	32778	32647	
86	0	32788	32666	
87	0	32816	32775	
88	0	32780	32774	
89	0	32796	32882	
90	0	32848	32736	
91	0	32768	32700	
92	0	32804	32821	
93	0	32796	32784	
94	0	32812	32712	
95	0	32788	32684	
96	0	32756	32895	
97	0	32766	32790	
98	0	32842	32842	
99	0	32818	32746	
100	0	32804	32836	
101	0	32864	32800	
102	0	32832	32839	
103	0	32860	32748	
104	0	32846	32769	
105	0	32768	32732	
106	0	32832	32798	
107	0	32886	32700	
108	0	32800	32818	
109	0	32848	32727	
110	0	32794	32864	
111	0	32712	32684	
112	0	32824	32725	
113	0	32824	32886	
114	0	32804	32756	
115	0	32888	32868	
116	0	32868	32690	
117	0	32769	32792	
118	0	32820	32732	
119	0	32768	32796	
120	0	32820	32742	
121	0	32788	32820	
122	0	32820	32728	
123	0	32834	32816	
124	0	32832	32612	
125	0	32862	32774	
126	0	32842	32807	
127	0	32840	32818	
128	0	32836	32718	
129	0	32836	32697	
130	0	32758	32806	
131	0	32788	32775	
132	0	32752	32657	
133	0	32772	32672	
134	0	32924	32857	
135	0	32852	32838	
136	0	32840	32694	
137	0	32796	32721	
138	0	32834	32875	
139	0	32816	32814	
140	0	32848	32828	
141	0	32816	32730	
142	0	32796	32758	
143	0	32868	32749	
144	0	32846	32743	
145	0	32836	32758	
146	0	32826	32775	
147	0	32814	32874	
148	0	32786	32671	
149	0	32820	32794	
150	0	32820	32746	
151	0	32800	32855	
152	0	32784	32775	
153	0	32788	32732	
154	0	32808	32680	
155	0	32816	32756	
156	0	32780	32708	
157	0	32838	32792	
158	0	32858	32714	
159	0	32836	32673	
160	0	32858	32784	
161	0	32842	32710	
162	0	32770	32805	
163	0	32775	32664	
164	0	32820	32766	
165	0	32812	32748	
166	0	32769	32775	
167	0	32836	32738	
168	0	32820	32748	
169	0	32790	32750	
170	0	32824	32788	
171	0	32788	32760	
172	0	32794	32680	
173	0	32832	32775	
174	0	32850	32824	
175	0	32842	32912	
176	0	32844	32775	
177	0	32810	32718	
178	0	32830	32814	
179	0	32846	32700	
180	0	32768	32805	
181	0	32744	32696	
182	0	32864	32810	
183	0	32758	32828	
184	0	32848	32732	
185	0	32824	32844	
186	0	32842	32672	
187	0	32828	32704	
188	0	32828	32926	
189	0	32820	32758	
190	0	32760	32754	
191	0	32824	32682	
192	0	32796	32757	
193	0	32796	32756	
194	0	32746	32864	
195	0	32900	32770	
196	0	32878	32788	
197	0	32888	32804	
198	0	32860	32836	
199	0	32828	32662	
200	0	32824	32775	
201	0	32778	32764	
202	0	32798	32759	
203	0	32856	32794	
204	0	32810	32770	
205	0	32766	32794	
206	0	32762	32751	
207	0	32820	32735	
208	0	32784	32655	
209	0	32776	32810	
210	0	32836	32844	
211	0	32784	32708	
212	0	32808	32814	
213	0	32732	32831	
214	0	32814	32720	
215	0	32812	32767	
216	0	32830	32775	
217	0	32852	32691	
218	0	32828	32814	
219	0	32780	32830	
220	0	32848	32830	
221	0	32856	32620	
222	0	32860	32804	
223	0	32788	32792	
224	0	32806	32850	
225	0	32836	32754	
226	0	32794	32820	
227	0	32864	32847	
228	0	32832	32826	
229	0	32808	32640	
230	0	32810	32818	
231	0	32798	32750	
232	0	32754	32788	
233	0	32734	32754	
234	0	32790	32770	
235	0	32776	32796	
236	0	32784	32756	
237	0	32844	32764	
238	0	32864	32754	
239	0	32782	32788	
240	0	32816	32754	
241	0	32856	32812	
242	0	32768	32814	
243	0	32778	32724	
244	0	32806	32746	
245	0	32804	32725	
246	0	32772	32864	
247	0	32888	32743	
248	0	32840	32791	
249	0	32804	32770	
250	0	32748	32822	
251	0	32756	32741	
252	0	32792	32764	
253	0	32832	32812	
254	0	32794	32694	
255	0	32842	32764	
256	0	32828	32794	
257	0	32816	32732	
258	0	32796	32840	
259	0	32836	32771	
260	0	32828	32862	
261	0	32830	32790	
262	0	32826	32830	
263	0	32824	32814	
264	0	32764	32700	
265	0	32792	32814	
266	0	32794	32852	
267	0	32792	32684	
268	0	32824	32756	
269	0	32838	32772	
270	0	32784	32775	
271	0	32772	32696	
272	0	32848	32752	
273	0	32775	32775	
274	0	32836	32676	
275	0	32860	32748	
276	0	32808	32796	
277	0	32820	32716	
278	0	32856	32775	
279	0	32776	32807	
280	0	32798	32660	
281	0	32832	32860	
282	0	32868	32703	
283	0	32808	32833	
284	0	32754	32760	
285	0	32796	32770	
286	0	32852	32772	
287	0	32840	32760	
288	0	32800	32807	
289	0	32828	32696	
290	0	32832	32908	
291	0	32798	32825	
292	0	32748	32680	
293	0	32752	32811	
294	0	32812	32854	
295	0	32834	32706	
296	0	32796	32690	
297	0	32842	32830	
298	0	32828	32858	
299	0	32832	32716	
300	0	32826	32692	
301	0	32804	32770	
302	0	32816	32796	
303	0	32828	32772	
304	0	32810	32786	
305	0	32820	32741	
306	0	32848	32847	
307	0	32780	32720	
308	0	32792	32775	
309	0	32828	32741	
310	0	32832	32726	
311	0	32804	32724	
312	0	32916	32806	
313	0	32858	32842	
314	0	32808	32726	
315	0	32824	32706	
316	0	32770	32694	
317	0	32805	32670	
318	0	32858	32766	
319	0	32780	32742	
320	0	32820	32734	
321	0	32834	32775	
322	0	32794	32775	
323	0	32840	32792	
324	0	32792	32708	
325	0	32822	32708	
326	0	32822	32760	
327	0	32764	32817	
328	0	32800	32839	
329	0	32792	32706	
330	0	32814	32768	
331	0	32806	32775	
332	0	32880	32754	
333	0	32756	32707	
334	0	32832	32774	
335	0	32862	32729	
336	0	32816	32716	
337	0	32890	32766	
338	0	32746	32792	
339	0	32810	32770	
340	0	32826	32812	
341	0	32804	32724	
342	0	32785	32656	
343	0	32768	32769	
344	0	32868	32812	
345	0	32856	32807	
346	0	32768	32747	
347	0	32834	32804	
348	0	32862	32881	
349	0	32760	32700	
350	0	32836	32798	
351	0	32780	32746	
352	0	32808	32734	
353	0	32754	32742	
354	0	32808	32820	
355	0	32808	32838	
356	0	32834	32712	
357	0	32844	32822	
358	0	32848	32832	
359	0	32884	32706	
360	0	32844	32734	
361	0	32846	32724	
362	0	32808	32808	
363	0	32772	32720	
364	0	32810	32734	
365	0	32740	32824	
366	0	32784	32682	
367	0	32834	32767	
368	0	32816	32790	
369	0	32820	32714	
370	0	32858	32711	
371	0	32824	32770	
372	0	32826	32758	
373	0	32720	32683	
374	0	32756	32839	
375	0	32796	32705	
376	0	32860	32800	
377	0	32868	32693	
378	0	32836	32702	
379	0	32872	32821	
380	0	32896	32774	
381	0	32792	32784	
382	0	32834	32692	
383	0	32794	32872	
384	0	32820	32768	
385	0	32788	32674	
386	0	32822	32842	
387	0	32788	32700	
388	0	32736	32703	
389	0	32792	32814	
390	0	32856	32738	
391	0	32769	32862	
392	0	32804	32732	
393	0	32808	32734	
394	0	32872	32798	
395	0	32826	32750	
396	0	32832	32743	
397	0	32804	32718	
398	0	32816	32854	
399	0	32864	32772	
400	0	32828	32690	
401	0	32834	32766	
402	0	32800	32792	
403	0	32836	32802	
404	0	32824	32736	
405	0	32810	32820	
406	0	32816	32824	
407	0	32832	32692	
408	0	32832	32775	
409	0	32766	32790	
410	0	32812	32696	
411	0	32796	32878	
412	0	32800	32830	
413	0	32830	32864	
414	0	32816	32712	
415	0	32804	32814	
416	0	32842	32820	
417	0	32820	32808	
418	0	32868	32724	
419	0	32808	32870	
420	0	32792	32727	
421	0	32860	32743	
422	0	32800	32666	
423	0	32772	32786	
424	0	32816	32810	
425	0	32828	32753	
426	0	32772	32732	
427	0	32816	32814	
428	0	32870	32676	
429	0	32794	32774	
430	0	32800	32820	
431	0	32792	32634	
432	0	32826	32910	
433	0	32846	32839	
434	0	32796	32656	
435	0	32846	32788	
436	0	32816	32767	
437	0	32804	32832	
438	0	32754	32680	
439	0	32782	32744	
440	0	32824	32808	
441	0	32808	32725	
442	0	32848	32850	
443	0	32868	32840	
444	0	32836	32644	
445	0	32848	32771	
446	0	32800	32714	
447	0	32834	32807	
448	0	32808	32704	
449	0	32750	32832	
450	0	32820	32756	
451	0	32776	32706	
452	0	32796	32740	
453	0	32825	32736	
454	0	32800	32775	
455	0	32826	32786	
456	0	32844	32800	
457	0	32772	32874	
458	0	32816	32634	
459	0	32800	32790	
460	0	32872	32821	
461	0	32780	32762	
462	0	32816	32775	
463	0	32778	32792	
464	0	32772	32836	
465	0	32852	32711	
466	0	32758	32839	
467	0	32812	32802	
468	0	32810	32808	
469	0	32804	32696	
470	0	32768	32775	
471	0	32802	32800	
472	0	32820	32834	
473	0	32764	32762	
474	0	32928	32756	
475	0	32836	32744	
476	0	32820	32710	
477	0	32776	32743	
478	0	32742	32698	
479	0	32750	32823	
480	0	32760	32852	
481	0	32836	32702	
482	0	32814	32792	
483	0	32834	32698	
484	0	32820	32820	
485	0	32820	32714	
486	0	32756	32792	
487	0	32822	32803	
488	0	32836	32678	
489	0	32792	32612	
490	0	32764	32738	
491	0	32794	32826	
492	0	32818	32746	
493	0	32864	32839	
494	0	32868	32764	
495	0	32836	32692	
496	0	32800	32822	
497	0	32760	32792	
498	0	32784	32810	
499	0	32820	32708	
500	0	32808	32774	
501	0	32792	32845	
502	0	32786	32622	
503	0	32816	32804	
504	0	32786	32866	
505	0	32814	32718	
506	0	32808	32802	
507	0	32804	32860	
508	0	32804	32746	
509	0	32768	32798	
510	0	32784	32775	
511	0	32748	32806	
512	0	32802	32718	
513	0	32844	32831	
514	0	32788	32794	
515	0	32832	32647	
516	0	32840	32646	
517	0	32860	32839	
518	0	32770	32807	
519	0	32816	32686	
520	0	32838	32830	
521	0	32824	32826	
522	0	32808	32791	
523	0	32764	32604	
524	0	32784	32842	
525	0	32816	32794	
526	0	32818	32758	
527	0	32864	32764	
528	0	32856	32798	
529	0	32800	32760	
530	0	32836	32723	
531	0	32764	32664	
532	0	32808	32830	
533	0	32808	32775	
534	0	32764	32696	
535	0	32836	32736	
536	0	32824	32792	
537	0	32840	32775	
538	0	32868	32842	
539	0	32792	32676	
540	0	32884	32794	
541	0	32756	32790	
542	0	32776	32810	
543	0	32852	32732	
544	0	32808	32775	
545	0	32806	32772	
546	0	32742	32772	
547	0	32820	32708	
548	0	32816	32748	
549	0	32852	32854	
550	0	32796	32790	
551	0	32840	32734	
552	0	32878	32798	
553	0	32804	32735	
554	0	32832	32698	
555	0	32828	32676	
556	0	32812	32775	
557	0	32820	32740	
558	0	32804	32744	
559	0	32790	32696	
560	0	32784	32760	
561	0	32829	32796	
562	0	32732	32784	
563	0	32788	32828	
564	0	32768	32806	
565	0	32768	32788	
566	0	32772	32884	
567	0	32816	32794	
568	0	32852	32802	
569	0	32884	32676	
570	0	32736	32762	
571	0	32796	32804	
572	0	32804	32784	
573	0	32828	32672	
574	0	32838	32832	
575	0	32816	32840	
576	0	32778	32762	
577	0	32862	32708	
578	0	32804	32770	
579	0	32810	32788	
580	0	32832	32775	
581	0	32948	32711	
582	0	32776	32746	
583	0	32757	32862	
584	0	32788	32842	
585	0	32842	32640	
586	0	32822	32872	
587	0	32828	32690	
588	0	32872	32820	
589	0	32810	32710	
590	0	32760	32829	
591	0	32800	32809	
592	0	32892	32847	
593	0	32848	32756	
594	0	32810	32696	
595	0	32820	32860	
596	0	32802	32686	
597	0	32852	32772	
598	0	32784	32711	
599	0	32820	32772	
600	0	32872	32772	
601	0	32784	32758	
602	0	32804	32700	
603	0	32800	32764	
604	0	32848	32764	
605	0	32840	32642	
606	0	32764	32840	
607	0	32818	32775	
608	0	32798	32846	
609	0	32798	32720	
610	0	32836	32818	
611	0	32778	32769	
612	0	32784	32746	
613	0	32756	32772	
614	0	32828	32736	
615	0	32768	32775	
616	0	32792	32724	
617	0	32824	32932	
618	0	32804	32742	
619	0	32824	32807	
620	0	32820	32688	
621	0	32864	32804	
622	0	32740	32748	
623	0	32792	32766	
624	0	32824	32714	
625	0	32808	32806	
626	0	32800	32730	
627	0	32764	32842	
628	0	32828	32668	
629	0	32876	32814	
630	0	32782	32754	
631	0	32820	32838	
632	0	32834	32702	
633	0	32754	32695	
634	0	32796	32758	
635	0	32872	32820	
636	0	32808	32726	
637	0	32844	32734	
638	0	32844	32810	
639	0	32796	32770	
640	0	32798	32698	
641	0	32852	32732	
642	0	32816	32806	
643	0	32772	32792	
644	0	32808	32798	
645	0	32864	32642	
646	0	32780	32774	
647	0	32808	32807	
648	0	32826	32774	
649	0	32804	32668	
650	0	32808	32818	
651	0	32812	32775	
652	0	32792	32842	
653	0	32736	32730	
654	0	32834	32820	
655	0	32800	32788	
656	0	32780	32720	
657	0	32802	32728	
658	0	32784	32764	
659	0	32816	32775	
660	0	32818	32655	
661	0	32872	32818	
662	0	32800	32775	
663	0	32828	32708	
664	0	32848	32794	
665	0	32852	32752	
666	0	32808	32680	
667	0	32796	32671	
668	0	32854	32720	
669	0	32787	32832	
670	0	32832	32774	
671	0	32802	32842	
672	0	32796	32769	
673	0	32888	32802	
674	0	32816	32727	
675	0	32776	32714	
676	0	32748	32730	
677	0	32780	32807	
678	0	32864	32760	
679	0	32780	32706	
680	0	32770	32852	
681	0	32820	32768	
682	0	32860	32832	
683	0	32860	32794	
684	0	32812	32725	
685	0	32796	32684	
686	0	32834	32726	
687	0	32904	32794	
688	0	32840	32838	
689	0	32868	32844	
690	0	32744	32732	
691	0	32774	32719	
692	0	32824	32670	
693	0	32844	32862	
694	0	32818	32844	
695	0	32826	32692	
696	0	32812	32816	
697	0	32800	32825	
698	0	32786	32681	
699	0	32772	32775	
700	0	32852	32668	
701	0	32840	32700	
702	0	32808	32839	
703	0	32815	32740	
704	0	32810	32869	
705	0	32792	32840	
706	0	32820	32692	
707	0	32820	32756	
708	0	32848	32834	
709	0	32768	32674	
710	0	32758	32839	
711	0	32748	32850	
712	0	32828	32710	
713	0	32814	32775	
714	0	32822	32742	
715	0	32804	32746	
716	0	32802	32823	
717	0	32856	32796	
718	0	32790	32772	
719	0	32800	32800	
720	0	32838	32704	
721	0	32820	32816	
722	0	32776	32812	
723	0	32798	32748	
724	0	32844	32668	
725	0	32750	32764	
726	0	32788	32800	
727	0	32826	32784	
728	0	32836	32746	
729	0	32800	32798	
730	0	32772	32693	
731	0	32844	32774	
732	0	32804	32764	
733	0	32804	32735	
734	0	32840	32700	
735	0	32814	32768	
736	0	32856	32762	
737	0	32736	32688	
738	0	32814	32788	
739	0	32736	32775	
740	0	32778	32702	
741	0	32760	32828	
742	0	32896	32798	
743	0	32862	32732	
744	0	32788	32698	
745	0	32836	32706	
746	0	32760	32754	
747	0	32828	32690	
748	0	32824	32810	
749	0	32828	32715	
750	0	32784	32809	
751	0	32866	32740	
752	0	32834	32853	
753	0	32806	32711	
754	0	32824	32775	
755	0	32884	32786	
756	0	32820	32699	
757	0	32808	32817	
758	0	32812	32764	
759	0	32776	32710	
760	0	32816	32822	
761	0	32808	32770	
762	0	32720	32836	
763	0	32800	32766	
764	0	32782	32768	
765	0	32812	32786	
766	0	32840	32714	
767	0	32802	32729	
768	0	32800	32788	
769	0	32780	32798	
770	0	32806	32690	
771	0	32844	32823	
772	0	32750	32775	
773	0	32808	32737	
774	0	32812	32884	
775	0	32804	32656	
776	0	32876	32730	
777	0	32812	32768	
778	0	32788	32804	
779	0	32844	32752	
780	0	32834	32684	
781	0	32816	32775	
782	0	32752	32823	
783	0	32881	32732	
784	0	32794	32766	
785	0	32812	32824	
786	0	32832	32732	
787	0	32782	32870	
788	0	32810	32743	
789	0	32824	32786	
790	0	32768	32664	
791	0	32808	32843	
792	0	32784	32750	
793	0	32860	32796	
794	0	32844	32724	
795	0	32852	32796	
796	0	32788	32781	
797	0	32848	32828	
798	0	32836	32668	
799	0	32775	32738	
800	0	32756	32726	
801	0	32836	32816	
802	0	32816	32718	
803	0	32834	32764	
804	0	32858	32808	
805	0	32800	32838	
806	0	32854	32770	
807	0	32802	32642	
808	0	32840	32754	
809	0	32736	32752	
810	0	32832	32751	
811	0	32828	32753	
812	0	32824	32840	
813	0	32756	32796	
814	0	32800	32672	
815	0	32816	32879	
816	0	32804	32821	
817	0	32804	32718	
818	0	32864	32760	
819	0	32872	32828	
820	0	32792	32870	
821	0	32868	32676	
822	0	32792	32800	
823	0	32800	32790	
824	0	32832	32684	
825	0	32852	32726	
826	0	32792	32786	
827	0	32808	32775	
828	0	32816	32670	
829	0	32854	32788	
830	0	32840	32740	
831	0	32896	32844	
832	0	32832	32775	
833	0	32784	32852	
834	0	32788	32792	
835	0	32808	32766	
836	0	32769	32700	
837	0	32790	32828	
838	0	32756	32732	
839	0	32808	32654	
840	0	32814	32730	
841	0	32796	32775	
842	0	32800	32831	
843	0	32804	32788	
844	0	32788	32792	
845	0	32820	32768	
846	0	32842	32853	
847	0	32816	32690	
848	0	32840	32792	
849	0	32780	32738	
850	0	32804	32834	
851	0	32794	32680	
852	0	32828	32760	
853	0	32844	32770	
854	0	32792	32832	
855	0	32792	32742	
856	0	32824	32800	
857	0	32752	32775	
858	0	32800	32812	
859	0	32856	32712	
860	0	32736	32664	
861	0	32858	32775	
862	0	32816	32912	
863	0	32858	32732	
864	0	32784	32775	
865	0	32888	32880	
866	0	32804	32748	
867	0	32848	32668	
868	0	32832	32794	
869	0	32816	32755	
870	0	32744	32775	
871	0	32780	32790	
872	0	32808	32856	
873	0	32864	32754	
874	0	32884	32807	
875	0	32836	32694	
876	0	32844	32812	
877	0	32780	32737	
878	0	32826	32759	
879	0	32878	32770	
880	0	32786	32686	
881	0	32762	32828	
882	0	32792	32715	
883	0	32789	32784	
884	0	32780	32902	
885	0	32796	32724	
886	0	32812	32850	
887	0	32800	32752	
888	0	32864	32822	
889	0	32812	32794	
890	0	32860	32775	
891	0	32808	32775	
892	0	32788	32710	
893	0	32866	32788	
894	0	32806	32834	
895	0	32796	32724	
896	0	32816	32756	
897	0	32824	32718	
898	0	32772	32796	
899	0	32824	32836	
900	0	32804	32850	
901	0	32852	32682	
902	0	32764	32748	
903	0	32775	32740	
904	0	32842	32812	
905	0	32818	32662	
906	0	32788	32792	
907	0	32832	32752	
908	0	32806	32764	
909	0	32792	32686	
910	0	32804	32806	
911	0	32768	32746	
912	0	32760	32878	
913	0	32802	32738	
914	0	32840	32836	
915	0	32832	32823	
916	0	32800	32706	
917	0	32770	32732	
918	0	32840	32786	
919	0	32864	32772	
920	0	32892	32775	
921	0	32878	32650	
922	0	32840	32732	
923	0	32856	32718	
924	0	32856	32830	
925	0	32848	32606	
926	0	32884	32626	
927	0	32876	32743	
928	0	32776	32676	
929	0	32808	32660	
930	0	32904	32646	
931	0	32860	32650	
932	0	32880	32647	
933	0	32864	32711	
934	0	32908	32660	
935	0	32884	32646	
936	0	32873	32711	
937	0	32912	32586	
938	0	32852	32612	
939	0	32900	32742	
940	0	32890	32671	
941	0	32864	32639	
942	0	32837	32836	
943	0	32824	32793	
944	0	32860	32867	
945	0	32776	32844	
946	0	32816	32940	
947	0	32760	32928	
948	0	32640	32966	
949	0	32630	33060	
950	0	32652	33082	
951	0	32664	32988	
952	0	32690	33076	
953	0	32740	33072	
954	0	32688	33031	
955	0	32572	33024	
956	0	32644	33022	
957	0	32668	32972	
958	0	32624	33004	
959	0	32630	33058	
960	0	32610	33022	
961	0	32656	33078	
962	0	32656	32902	
963	0	32684	33015	
964	0	32722	32824	
965	0	32862	32611	
966	0	32860	32714	
967	0	32924	32558	
968	0	32922	32438	
969	0	32928	32572	
970	0	32919	32542	
971	0	32900	32580	
972	0	32920	32495	
973	0	32938	32498	
974	0	32940	32637	
975	0	32906	32612	
976	0	32834	32564	
977	0	32858	32708	
978	0	32917	32684	
979	0	32868	32678	
980	0	32908	32664	
981	0	32834	32807	
982	0	32860	32824	
983	0	32780	32679	
984	0	32844	32762	
985	0	32828	32852	
986	0	32816	32772	
987	0	32832	32704	
988	0	32784	32775	
989	0	32740	32780	
990	0	32766	32808	
991	0	32804	32759	
992	0	32754	32662	
993	0	32818	32788	
994	0	32816	32718	
995	0	32876	32719	
996	0	32860	32679	
997	0	32816	32814	
998	0	32812	32775	
999	0	32794	32788	
1000	0	32764	32708	
1001	0	32832	32704	
1002	0	32820	32866	
1003	0	32846	32724	
1004	0	32796	32752	
1005	0	32852	32734	
1006	0	32830	32821	
1007	0	32788	32774	
1008	0	32810	32766	
1009	0	32854	32717	
1010	0	32764	32868	
1011	0	32832	32700	
1012	0	32804	32900	
1013	0	32868	32596	
1014	0	32852	32839	
1015	0	32832	32746	
1016	0	32812	32772	
1017	0	32828	32703	
1018	0	32824	32766	
1019	0	32872	32772	
1020	0	32898	32848	
1021	0	32804	32742	
1022	0	32834	32748	
1023	0	32868	32738	
1024	0	32840	32660	
1025	0	32912	32727	
1026	0	32808	32841	
1027	0	32840	32828	
1028	0	32808	32682	
1029	0	32864	32712	
1030	0	32880	32711	
1031	0	32868	32720	
1032	0	32885	32679	
1033	0	32794	32766	
1034	0	32820	32775	
1035	0	32778	32824	
1036	0	32836	32682	
1037	0	32852	32728	
1038	0	32864	32750	
1039	0	32840	32670	
1040	0	32874	32757	
1041	0	32884	32792	
1042	0	32764	32846	
1043	0	32775	32735	
1044	0	32800	32772	
1045	0	32810	32684	
1046	0	32824	32738	
1047	0	32814	32668	
1048	0	32804	32836	
1049	0	32740	32756	
1050	0	32768	32691	
1051	0	32800	32838	
1052	0	32788	32752	
1053	0	32816	32775	
1054	0	32800	32692	
1055	0	32832	32764	
1056	0	32774	32826	
1057	0	32728	32884	
1058	0	32772	32672	
1059	0	32847	32820	
1060	0	32768	32761	
1061	0	32792	32820	
1062	0	32792	32746	
1063	0	32828	32863	
1064	0	32830	32820	
1065	0	32812	32718	
1066	0	32782	32700	
1067	0	32778	32812	
1068	0	32844	32801	
1069	0	32748	32856	
1070	0	32778	32758	
1071	0	32828	32860	
1072	0	32816	32758	
1073	0	32808	32705	
1074	0	32846	32854	
1075	0	32796	32812	
1076	0	32852	32738	
1077	0	32788	32750	
1078	0	32820	32798	
1079	0	32812	32838	
1080	0	32789	32708	
1081	0	32816	32775	
1082	0	32796	32774	
1083	0	32876	32808	
1084	0	32816	32656	
1085	0	32812	32791	
1086	0	32840	32774	
1087	0	32820	32824	
1088	0	32788	32750	
1089	0	32744	32775	
1090	0	32768	32732	
1091	0	32793	32856	
1092	0	32852	32686	
1093	0	32756	32823	
1094	0	32808	32786	
1095	0	32834	32726	
1096	0	32800	32820	
1097	0	32816	32804	
1098	0	32792	32775	
1099	0	32769	32732	
1100	0	32806	32759	
1101	0	32816	32726	
1102	0	32852	32686	
1103	0	32810	32775	
1104	0	32804	32796	
1105	0	32840	32743	
1106	0	32784	32666	
1107	0	32746	32718	
1108	0	32796	32678	
1109	0	32888	32798	
1110	0	32808	32840	
1111	0	32853	32676	
1112	0	32794	32810	
1113	0	32752	32762	
1114	0	32808	32807	
1115	0	32866	32756	
1116	0	32824	32798	
1117	0	32846	32800	
1118	0	32844	32736	
1119	0	32858	32818	
1120	0	32780	32678	
1121	0	32860	32720	
1122	0	32804	32724	
1123	0	32660	32740	
1124	0	32804	32751	
1125	0	32794	32756	
1126	0	32832	32830	
1127	0	32822	32748	
1128	0	32800	32741	
1129	0	32816	32796	
1130	0	32796	32734	
1131	0	32808	32832	
1132	0	32788	32676	
1133	0	32822	32775	
1134	0	32848	32728	
1135	0	32832	32846	
1136	0	32788	32682	
1137	0	32832	32683	
1138	0	32816	32800	
1139	0	32828	32818	
1140	0	32856	32708	
1141	0	32784	32749	
1142	0	32792	32752	
1143	0	32832	32852	
1144	0	32848	32698	
1145	0	32772	32828	
1146	0	32768	32794	
1147	0	32792	32732	
1148	0	32752	32694	
1149	0	32783	32712	
1150	0	32796	32715	
1151	0	32752	32815	
1152	0	32820	32836	
1153	0	32744	32720	
1154	0	32846	32775	
1155	0	32820	32668	
1156	0	32838	32843	
1157	0	32848	32705	
1158	0	32808	32748	
1159	0	32844	32756	
1160	0	32848	32871	
1161	0	32836	32775	
1162	0	32820	32764	
1163	0	32846	32775	
1164	0	32768	32770	
1165	0	32822	32790	
1166	0	32880	32662	
1167	0	32775	32862	
1168	0	32808	32822	
1169	0	32800	32710	
1170	0	32850	32700	
1171	0	32824	32818	
1172	0	32796	32848	
1173	0	32808	32706	
1174	0	32840	32732	
1175	0	32848	32746	
1176	0	32800	32850	
1177	0	32824	32656	
1178	0	32876	32830	
1179	0	32792	32774	
1180	0	32832	32662	
1181	0	32774	32796	
1182	0	32832	32786	
1183	0	32788	32775	
1184	0	32772	32732	
1185	0	32830	32814	
1186	0	32784	32807	
1187	0	32808	32697	
1188	0	32816	32775	
1189	0	32788	32794	
1190	0	32748	32728	
1191	0	32868	32708	
1192	0	32818	32799	
1193	0	32804	32820	
1194	0	32836	32788	
1195	0	32848	32688	
1196	0	32840	32814	
1197	0	32876	32760	
1198	0	32740	32734	
1199	0	32832	32692	
1200	0	32848	32774	
1201	0	32764	32839	
1202	0	32836	32636	
1203	0	32814	32772	
1204	0	32816	32766	
1205	0	32856	32828	
1206	0	32804	32742	
1207	0	32856	32871	
1208	0	32816	32838	
1209	0	32812	32752	
1210	0	32832	32812	
1211	0	32816	32730	
1212	0	32728	32736	
1213	0	32832	32708	
1214	0	32796	32830	
1215	0	32828	32775	
1216	0	32746	32804	
1217	0	32794	32828	
1218	0	32836	32758	
1219	0	32806	32710	
1220	0	32816	32762	
1221	0	32774	32750	
1222	0	32874	32806	
1223	0	32764	32732	
1224	0	32748	32824	
1225	0	32812	32814	
1226	0	32816	32708	
1227	0	32846	32812	
1228	0	32780	32828	
1229	0	32772	32774	
1230	0	32802	32770	
1231	0	32794	32820	
1232	0	32778	32775	
1233	0	32788	32679	
1234	0	32822	32788	
1235	0	32816	32758	
1236	0	32820	32726	
1237	0	32836	32794	
1238	0	32836	32710	
1239	0	32796	32746	
1240	0	32856	32900	
1241	0	32844	32689	
1242	0	32822	32758	
1243	0	32824	32802	
1244	0	32788	32888	
1245	0	32728	32735	
1246	0	32808	32799	
1247	0	32812	32742	
1248	0	32822	32801	
1249	0	32808	32647	
1250	0	32774	32864	
1251	0	32748	32775	
1252	0	32816	32900	
1253	0	32780	32704	
1254	0	32824	32768	
1255	0	32860	32764	
1256	0	32832	32826	
1257	0	32890	32744	
1258	0	32764	32798	
1259	0	32770	32855	
1260	0	32832	32700	
1261	0	32826	32770	
1262	0	32808	32815	
1263	0	32800	32852	
1264	0	32812	32676	
1265	0	32772	32764	
1266	0	32844	32747	
1267	0	32748	32716	
1268	0	32830	32774	
1269	0	32820	32762	
1270	0	32784	32884	
1271	0	32796	32647	
1272	0	32802	32810	
1273	0	32834	32792	
1274	0	32852	32772	
1275	0	32864	32742	
1276	0	32836	32736	
1277	0	32856	32842	
1278	0	32834	32826	
1279	0	32768	32878	
1280	0	32761	32746	
1281	0	32800	32658	
1282	0	32792	32732	
1283	0	32824	32808	
1284	0	32826	32766	
1285	0	32858	32774	
1286	0	32832	32732	
1287	0	32775	32738	
1288	0	32752	32694	
1289	0	32776	32672	
1290	0	32784	32884	
1291	0	32728	32818	
1292	0	32834	32644	
1293	0	32888	32824	
1294	0	32840	32832	
1295	0	32818	32894	
1296	0	32872	32625	
1297	0	32772	32774	
1298	0	32848	32894	
1299	0	32826	32688	
1300	0	32904	32718	
1301	0	32816	32728	
1302	0	32800	32748	
1303	0	32756	32682	
1304	0	32804	32750	
1305	0	32796	32746	
1306	0	32812	32748	
1307	0	32788	32668	
1308	0	32788	32806	
1309	0	32774	32790	
1310	0	32844	32750	
1311	0	32808	32844	
1312	0	32824	32774	
1313	0	32880	32712	
1314	0	32840	32775	
1315	0	32832	32706	
1316	0	32832	32678	
1317	0	32840	32794	
1318	0	32792	32836	
1319	0	32800	32678	
1320	0	32808	32761	
1321	0	32826	32832	
1322	0	32836	32720	
1323	0	32780	32716	
1324	0	32732	32796	
1325	0	32830	32724	
1326	0	32824	32772	
1327	0	32824	32742	
1328	0	32864	32769	
1329	0	32804	32766	
1330	0	32736	32703	
1331	0	32802	32668	
1332	0	32836	32804	
1333	0	32758	32766	
1334	0	32836	32870	
1335	0	32772	32620	
1336	0	32833	32839	
1337	0	32844	32767	
1338	0	32820	32736	
1339	0	32888	32666	
1340	0	32872	32759	
1341	0	32780	32794	
1342	0	32826	32734	
1343	0	32832	32755	
1344	0	32796	32752	
1345	0	32738	32816	
1346	0	32804	32768	
1347	0	32828	32750	
1348	0	32808	32798	
1349	0	32752	32792	
1350	0	32808	32708	
1351	0	32808	32697	
1352	0	32804	32807	
1353	0	32792	32793	
1354	0	32856	32812	
1355	0	32804	32696	
1356	0	32824	32744	
1357	0	32834	32764	
1358	0	32812	32764	
1359	0	32800	32828	
1360	0	32808	32790	
1361	0	32816	32790	
1362	0	32844	32775	
1363	0	32806	32724	
1364	0	32796	32764	
1365	0	32788	32748	
1366	0	32792	32722	
1367	0	32744	32676	
1368	0	32780	32820	
1369	0	32800	32719	
1370	0	32760	32827	
1371	0	32801	32740	
1372	0	32900	32728	
1373	0	32828	32786	
1374	0	32828	32676	
1375	0	32820	32788	
1376	0	32852	32798	
1377	0	32832	32814	
1378	0	32796	32670	
1379	0	32814	32744	
1380	0	32872	32775	
1381	0	32830	32758	
1382	0	32740	32652	
1383	0	32834	32786	
1384	0	32804	32745	
1385	0	32804	32838	
1386	0	32798	32698	
1387	0	32820	32820	
1388	0	32808	32806	
1389	0	32870	32788	
1390	0	32732	32646	
1391	0	32826	32807	
1392	0	32802	32769	
1393	0	32824	32798	
1394	0	32752	32775	
1395	0	32852	32692	
1396	0	32828	32845	
1397	0	32798	32756	
1398	0	32856	32831	
1399	0	32764	32748	
1400	0	32794	32856	
1401	0	32846	32860	
1402	0	32892	32726	
1403	0	32804	32775	
1404	0	32768	32774	
1405	0	32826	32754	
1406	0	32778	32670	
1407	0	32874	32884	
1408	0	32840	32706	
1409	0	32816	32812	
1410	0	32772	32752	
1411	0	32846	32804	
1412	0	32812	32792	
1413	0	32858	32711	
1414	0	32750	32791	
1415	0	32868	32800	
1416	0	32776	32850	
1417	0	32812	32746	
1418	0	32776	32764	
1419	0	32830	32835	
1420	0	32856	32612	
1421	0	32788	32746	
1422	0	32804	32760	
1423	0	32784	32807	
1424	0	32824	32746	
1425	0	32866	32761	
1426	0	32820	32821	
1427	0	32828	32703	
1428	0	32808	32824	
1429	0	32830	32860	
1430	0	32812	32740	
1431	0	32814	32764	
1432	0	32828	32758	
1433	0	32840	32744	
1434	0	32844	32754	
1435	0	32800	32831	
1436	0	32804	32724	
1437	0	32792	32736	
1438	0	32786	32734	
1439	0	32830	32810	
1440	0	32792	32791	
1441	0	32868	32812	
1442	0	32828	32647	
1443	0	32818	32878	
1444	0	32810	32774	
1445	0	32852	32806	
1446	0	32784	32690	
1447	0	32768	32766	
1448	0	32828	32775	
1449	0	32796	32700	
1450	0	32780	32799	
1451	0	32816	32750	
1452	0	32820	32821	
1453	0	32792	32698	
1454	0	32874	32810	
1455	0	32846	32839	
1456	0	32816	32801	
1457	0	32858	32774	
1458	0	32860	32694	
1459	0	32830	32704	
1460	0	32772	32796	
1461	0	32800	32732	
1462	0	32836	32718	
1463	0	32756	32751	
1464	0	32800	32714	
1465	0	32834	32793	
1466	0	32860	32724	
1467	0	32834	32862	
1468	0	32808	32734	
1469	0	32818	32767	
1470	0	32816	32804	
1471	0	32852	32788	
1472	0	32810	32694	
1473	0	32814	32854	
1474	0	32780	32798	
1475	0	32860	32612	
1476	0	32812	32791	
1477	0	32792	32792	
1478	0	32808	32670	
1479	0	32816	32812	
1480	0	32800	32728	
1481	0	32796	32708	
1482	0	32868	32680	
1483	0	32792	32738	
1484	0	32792	32814	
1485	0	32840	32728	
1486	0	32828	32782	
1487	0	32770	32832	
1488	0	32760	32743	
1489	0	32800	32766	
1490	0	32872	32806	
1491	0	32798	32684	
1492	0	32828	32766	
1493	0	32792	32799	
1494	0	32768	32702	
1495	0	32808	32823	
1496	0	32808	32766	
1497	0	32880	32721	
1498	0	32854	32854	
1499	0	32800	32817	
1500	0	32796	32716	
1501	0	32760	32812	
1502	0	32784	32784	
1503	0	32816	32714	
1504	0	32802	32775	
1505	0	32828	32706	
1506	0	32798	32832	
1507	0	32748	32722	
1508	0	32820	32792	
1509	0	32714	32724	
1510	0	32764	32762	
1511	0	32804	32834	
1512	0	32850	32844	
1513	0	32852	32694	
1514	0	32800	32788	
1515	0	32800	32839	
1516	0	32852	32722	
1517	0	32860	32828	
1518	0	32832	32836	
1519	0	32800	32747	
1520	0	32824	32762	
1521	0	32844	32714	
1522	0	32836	32775	
1523	0	32790	32775	
1524	0	32836	32706	
1525	0	32776	32836	
1526	0	32796	32790	
1527	0	32822	32710	
1528	0	32822	32857	
1529	0	32760	32812	
1530	0	32774	32660	
1531	0	32846	32743	
1532	0	32864	32850	
1533	0	32872	32720	
1534	0	32762	32850	
1535	0	32792	32860	
1536	0	32746	32677	
1537	0	32852	32774	
1538	0	32832	32769	
1539	0	32804	32764	
1540	0	32764	32786	
1541	0	32775	32672	
1542	0	32736	32788	
1543	0	32828	32826	
1544	0	32832	32684	
1545	0	32858	32759	
1546	0	32870	32752	
1547	0	32796	32838	
1548	0	32840	32742	
1549	0	32796	32742	
1550	0	32816	32800	
1551	0	32792	32734	
1552	0	32836	32871	
1553	0	32820	32760	
1554	0	32852	32724	
1555	0	32832	32830	
1556	0	32800	32814	
1557	0	32828	32714	
1558	0	32844	32775	
1559	0	32824	32748	
1560	0	32822	32759	
1561	0	32812	32712	
1562	0	32774	32839	
1563	0	32752	32720	
1564	0	32808	32825	
1565	0	32788	32826	
1566	0	32820	32692	
1567	0	32836	32728	
1568	0	32814	32746	
1569	0	32762	32760	
1570	0	32802	32775	
1571	0	32832	32720	
1572	0	32792	32862	
1573	0	32842	32744	
1574	0	32764	32647	
1575	0	32786	32836	
1576	0	32808	32732	
1577	0	32836	32762	
1578	0	32840	32814	
1579	0	32792	32786	
1580	0	32824	32726	
1581	0	32844	32795	
1582	0	32768	32834	
1583	0	32776	32712	
1584	0	32804	32772	
1585	0	32826	32766	
1586	0	32824	32762	
1587	0	32808	32804	
1588	0	32796	32719	
1589	0	32816	32719	
1590	0	32826	32852	
1591	0	32828	32798	
1592	0	32844	32664	
1593	0	32852	32830	
1594	0	32832	32804	
1595	0	32790	32743	
1596	0	32810	32810	
1597	0	32864	32759	
1598	0	32856	32818	
1599	0	32824	32802	
1600	0	32784	32688	
1601	0	32844	32768	
1602	0	32750	32762	
1603	0	32848	32700	
1604	0	32812	32770	
1605	0	32840	32686	
1606	0	32788	32846	
1607	0	32852	32708	
1608	0	32780	32850	
1609	0	32756	32712	
1610	0	32836	32848	
1611	0	32796	32830	
1612	0	32796	32728	
1613	0	32772	32758	
1614	0	32840	32714	
1615	0	32862	32766	
1616	0	32826	32871	
1617	0	32832	32832	
1618	0	32837	32798	
1619	0	32806	32678	
1620	0	32760	32799	
1621	0	32826	32802	
1622	0	32792	32910	
1623	0	32824	32746	
1624	0	32808	32832	
1625	0	32846	32688	
1626	0	32842	32744	
1627	0	32816	32742	
1628	0	32808	32858	
1629	0	32760	32671	
1630	0	32826	32820	
1631	0	32842	32732	
1632	0	32848	32802	
1633	0	32832	32802	
1634	0	32788	32767	
1635	0	32826	32822	
1636	0	32844	32736	
1637	0	32816	32791	
1638	0	32840	32750	
1639	0	32934	32720	
1640	0	32788	32722	
1641	0	32870	32703	
1642	0	32816	32822	
1643	0	32772	32746	
1644	0	32792	32700	
1645	0	32858	32634	
1646	0	32768	32764	
1647	0	32772	32792	
1648	0	32808	32818	
1649	0	32776	32775	
1650	0	32876	32794	
1651	0	32810	32816	
1652	0	32856	32704	
1653	0	32844	32772	
1654	0	32888	32728	
1655	0	32846	32838	
1656	0	32802	32660	
1657	0	32776	32772	
1658	0	32834	32757	
1659	0	32884	32668	
1660	0	32802	32768	
1661	0	32768	32818	
1662	0	32832	32836	
1663	0	32784	32769	
1664	0	32776	32704	
1665	0	32874	32727	
1666	0	32824	32839	
1667	0	32824	32770	
1668	0	32834	32678	
1669	0	32788	32756	
1670	0	32900	32812	
1671	0	32774	32751	
1672	0	32786	32839	
1673	0	32780	32800	
1674	0	32856	32678	
1675	0	32858	32804	
1676	0	32842	32806	
1677	0	32844	32714	
1678	0	32804	32769	
1679	0	32746	32775	
1680	0	32860	32711	
1681	0	32776	32748	
1682	0	32802	32820	
1683	0	32816	32839	
1684	0	32836	32732	
1685	0	32790	32872	
1686	0	32824	32775	
1687	0	32824	32790	
1688	0	32774	32700	
1689	0	32838	32818	
1690	0	32834	32759	
1691	0	32830	32692	
1692	0	32772	32747	
1693	0	32852	32822	
1694	0	32776	32743	
1695	0	32808	32700	
1696	0	32808	32806	
1697	0	32816	32775	
1698	0	32812	32838	
1699	0	32802	32702	
1700	0	32816	32775	
1701	0	32742	32820	
1702	0	32816	32839	
1703	0	32860	32728	
1704	0	32828	32790	
1705	0	32780	32754	
1706	0	32792	32766	
1707	0	32820	32827	
1708	0	32846	32768	
1709	0	32790	32772	
1710	0	32844	32828	
1711	0	32816	32798	
1712	0	32824	32748	
1713	0	32808	32756	
1714	0	32804	32738	
1715	0	32860	32699	
1716	0	32836	32738	
1717	0	32776	32807	
1718	0	32792	32679	
1719	0	32808	32830	
1720	0	32792	32814	
1721	0	32864	32668	
1722	0	32776	32796	
1723	0	32740	32822	
1724	0	32776	32730	
1725	0	32792	32837	
1726	0	32814	32808	
1727	0	32830	32690	
1728	0	32782	32769	
1729	0	32792	32732	
1730	0	32820	32805	
1731	0	32864	32802	
1732	0	32784	32687	
1733	0	32760	32735	
1734	0	32840	32796	
1735	0	32832	32756	
1736	0	32784	32769	
1737	0	32772	32708	
1738	0	32816	32798	
1739	0	32774	32772	
1740	0	32788	32711	
1741	0	32832	32794	
1742	0	32846	32796	
1743	0	32842	32802	
1744	0	32804	32844	
1745	0	32852	32742	
1746	0	32794	32756	
1747	0	32832	32704	
1748	0	32752	32836	
1749	0	32796	32871	
1750	0	32800	32798	
1751	0	32774	32755	
1752	0	32848	32680	
1753	0	32828	32697	
1754	0	32794	32708	
1755	0	32840	32852	
1756	0	32804	32680	
1757	0	32804	32844	
1758	0	32796	32754	
1759	0	32808	32748	
1760	0	32824	32730	
1761	0	32812	32768	
1762	0	32828	32838	
1763	0	32746	32690	
1764	0	32784	32722	
1765	0	32860	32810	
1766	0	32806	32786	
1767	0	32804	32832	
1768	0	32868	32680	
1769	0	32796	32824	
1770	0	32788	32800	
1771	0	32742	32678	
1772	0	32840	32804	
1773	0	32788	32800	
1774	0	32836	32756	
1775	0	32872	32736	
1776	0	32836	32703	
1777	0	32774	32730	
1778	0	32848	32832	
1779	0	32802	32748	
1780	0	32804	32678	
1781	0	32848	32876	
1782	0	32794	32774	
1783	0	32836	32740	
1784	0	32798	32786	
1785	0	32844	32760	
1786	0	32844	32839	
1787	0	32780	32724	
1788	0	32830	32840	
1789	0	32788	32726	
1790	0	32756	32642	
1791	0	32816	32800	
1792	0	32820	32736	
1793	0	32808	32708	
1794	0	32862	32705	
1795	0	32792	32710	
1796	0	32741	32872	
1797	0	32878	32756	
1798	0	32846	32818	
1799	0	32772	32752	
1800	0	32858	32760	
1801	0	32848	32775	
1802	0	32780	32768	
1803	0	32816	32738	
1804	0	32808	32752	
1805	0	32783	32790	
1806	0	32784	32775	
1807	0	32768	32734	
1808	0	32736	32692	
1809	0	32808	32775	
1810	0	32802	32775	
1811	0	32840	32785	
1812	0	32834	32796	
1813	0	32804	32775	
1814	0	32880	32788	
1815	0	32908	32762	
1816	0	32852	32788	
1817	0	32816	32775	
1818	0	32832	32692	
1819	0	32836	32867	
1820	0	32808	32664	
1821	0	32844	32775	
1822	0	32820	32826	
1823	0	32824	32708	
1824	0	32792	32774	
1825	0	32820	32804	
1826	0	32816	32684	
1827	0	32820	32820	
1828	0	32740	32796	
1829	0	32792	32728	
1830	0	32784	32798	
1831	0	32822	32812	
1832	0	32800	32674	
1833	0	32812	32750	
1834	0	32796	32772	
1835	0	32832	32668	
1836	0	32790	32732	
1837	0	32804	32807	
1838	0	32840	32775	
1839	0	32810	32848	
1840	0	32768	32743	
1841	0	32776	32758	
1842	0	32788	32856	
1843	0	32808	32773	
1844	0	32820	32728	
1845	0	32844	32814	
1846	0	32808	32716	
1847	0	32784	32888	
1848	0	32761	32674	
1849	0	32808	32857	
1850	0	32804	32786	
1851	0	32852	32663	
1852	0	32834	32708	
1853	0	32816	32761	
1854	0	32824	32722	
1855	0	32836	32840	
1856	0	32752	32879	
1857	0	32776	32628	
1858	0	32806	32850	
1859	0	32842	32824	
1860	0	32826	32676	
1861	0	32848	32764	
1862	0	32828	32696	
1863	0	32812	32820	
1864	0	32810	32862	
1865	0	32844	32766	
1866	0	32776	32806	
1867	0	32840	32789	
1868	0	32838	32689	
1869	0	32756	32708	
1870	0	32790	32808	
1871	0	32766	32724	
1872	0	32846	32814	
1873	0	32848	32806	
1874	0	32816	32612	
1875	0	32862	32768	
1876	0	32780	32816	
1877	0	32828	32704	
1878	0	32802	32799	
1879	0	32864	32772	
1880	0	32808	32756	
1881	0	32842	32734	
1882	0	32756	32782	
1883	0	32814	32692	
1884	0	32804	32932	
1885	0	32840	32774	
1886	0	32802	32750	
1887	0	32812	32817	
1888	0	32788	32692	
1889	0	32815	32804	
1890	0	32816	32790	
1891	0	32816	32766	
1892	0	32768	32892	
1893	0	32804	32775	
1894	0	32828	32639	
1895	0	32880	32788	
1896	0	32768	32775	
1897	0	32864	32670	
1898	0	32836	32858	
1899	0	32798	32810	
1900	0	32804	32804	
1901	0	32848	32702	
1902	0	32788	32840	
1903	0	32788	32771	
1904	0	32812	32688	
1905	0	32752	32684	
1906	0	32864	32743	
1907	0	32820	32751	
1908	0	32748	32798	
1909	0	32840	32864	
1910	0	32812	32732	
1911	0	32862	32720	
1912	0	32844	32704	
1913	0	32784	32759	
1914	0	32800	32836	
1915	0	32836	32704	
1916	0	32834	32742	
1917	0	32786	32744	
1918	0	32804	32773	
1919	0	32832	32832	
1920	0	32872	32688	
1921	0	32828	32698	
1922	0	32824	32865	
1923	0	32828	32804	
1924	0	32816	32853	
1925	0	32852	32708	
1926	0	32816	32746	
1927	0	32740	32799	
1928	0	32864	32788	
1929	0	32836	32710	
1930	0	32752	32791	
1931	0	32828	32828	
1932	0	32824	32774	
1933	0	32828	32796	
1934	0	32870	32701	
1935	0	32760	32750	
1936	0	32800	32804	
1937	0	32812	32882	
1938	0	32832	32711	
1939	0	32848	32722	
1940	0	32828	32644	
1941	0	32832	32794	
1942	0	32768	32782	
1943	0	32769	32807	
1944	0	32824	32829	
1945	0	32748	32724	
1946	0	32796	32775	
1947	0	32774	32775	
1948	0	32820	32746	
1949	0	32814	32769	
1950	0	32832	32837	
1951	0	32864	32772	
1952	0	32878	32846	
1953	0	32798	32742	
1954	0	32804	32708	
1955	0	32816	32772	
1956	0	32844	32796	
1957	0	32764	32684	
1958	0	32794	32698	
1959	0	32820	32788	
1960	0	32840	32748	
1961	0	32800	32712	
1962	0	32792	32775	
1963	0	32840	32764	
1964	0	32808	32751	
1965	0	32816	32732	
1966	0	32776	32732	
1967	0	32796	32706	
1968	0	32770	32823	
1969	0	32824	32754	
1970	0	32800	32804	
1971	0	32812	32770	
1972	0	32820	32692	
1973	0	32868	32847	
1974	0	32742	32838	
1975	0	32852	32839	
1976	0	32824	32704	
1977	0	32800	32804	
1978	0	32880	32816	
1979	0	32808	32812	
1980	0	32762	32811	
1981	0	32768	32660	
1982	0	32824	32788	
1983	0	32802	32740	
1984	0	32820	32798	
1985	0	32820	32708	
1986	0	32788	32694	
1987	0	32812	32750	
1988	0	32804	32743	
1989	0	32794	32868	
1990	0	32812	32670	
1991	0	32808	32860	
1992	0	32756	32807	
1993	0	32810	32818	
1994	0	32862	32718	
1995	0	32777	32830	
1996	0	32865	32796	
1997	0	32834	32827	
1998	0	32824	32680	
1999	0	32816	32736	
2000	0	32918	32752	
2001	0	32862	32694	
2002	0	32836	32671	
2003	0	32820	32640	
2004	0	32864	32670	
2005	0	32844	32712	
2006	0	32876	32604	
2007	0	32868	32668	
2008	0	32788	32708	
2009	0	32866	32642	
2010	0	32916	32662	
2011	0	32844	32718	
2012	0	32838	32679	
2013	0	32876	32697	
2014	0	32898	32678	
2015	0	32948	32724	
2016	0	32904	32786	
2017	0	32832	32646	
2018	0	32820	32662	
2019	0	32836	32682	
2020	0	32896	32726	
2021	0	32868	32672	
2022	0	32884	32734	
2023	0	32834	32812	
2024	0	32788	32891	
2025	0	32750	32858	
2026	0	32708	32984	
2027	0	32652	32940	
2028	0	32708	33054	
2029	0	32616	32950	
2030	0	32744	33000	
2031	0	32684	33076	
2032	0	32634	33063	
2033	0	32740	33048	
2034	0	32640	33084	
2035	0	32696	33014	
2036	0	32648	32944	
2037	0	32636	32962	
2038	0	32644	33055	
2039	0	32676	33031	
2040	0	32604	32998	
2041	0	32644	32977	
2042	0	32676	33074	
2043	0	32726	32830	
2044	0	32788	32743	
2045	0	32878	32537	
2046	0	32896	32534	
2047	0	32916	32486	
2048	0	32984	32551	
2049	0	32944	32476	
2050	0	32852	32480	
2051	0	32920	32608	
2052	0	32968	32546	
2053	0	32900	32620	
2054	0	32900	32559	
2055	0	32948	32530	
2056	0	32880	32732	
2057	0	32960	32696	
2058	0	32862	32758	
2059	0	32776	32724	
2060	0	32808	32744	
2061	0	32856	32820	
2062	0	32804	32775	
2063	0	32812	32782	
2064	0	32820	32660	
2065	0	32768	32696	
2066	0	32796	32855	
2067	0	32736	32794	
2068	0	32768	32722	
2069	0	32844	32815	
2070	0	32828	32736	
2071	0	32808	32807	
2072	0	32832	32820	
2073	0	32800	32660	
2074	0	32884	32775	
2075	0	32816	32762	
2076	0	32808	32914	
2077	0	32898	32704	
2078	0	32786	32759	
2079	0	32764	32816	
2080	0	32832	32704	
2081	0	32808	32775	
2082	0	32804	32724	
2083	0	32852	32756	
2084	0	32776	32876	
2085	0	32826	32698	
2086	0	32780	32800	
2087	0	32802	32775	
2088	0	32814	32871	
2089	0	32806	32702	
2090	0	32900	32864	
2091	0	32824	32806	
2092	0	32888	32752	
2093	0	32776	32750	
2094	0	32786	32748	
2095	0	32836	32712	
2096	0	32852	32806	
2097	0	32866	32724	
2098	0	32842	32727	
2099	0	32852	32826	
2100	0	32894	32772	
2101	0	32853	32720	
2102	0	32800	32716	
2103	0	32864	32768	
2104	0	32828	32766	
2105	0	32804	32828	
2106	0	32848	32638	
2107	0	32800	32744	
2108	0	32780	32752	
2109	0	32812	32734	
2110	0	32846	32654	
2111	0	32902	32710	
2112	0	32824	32808	
2113	0	32840	32622	
2114	0	32840	32793	
2115	0	32864	32766	
2116	0	32798	32742	
2117	0	32882	32734	
2118	0	32834	32810	
2119	0	32804	32729	
2120	0	32798	32812	
2121	0	32804	32756	
2122	0	32844	32720	
2123	0	32800	32708	
2124	0	32759	32768	
2125	0	32796	32815	
2126	0	32872	32752	
2127	0	32764	32622	
2128	0	32762	32874	
2129	0	32787	32772	
2130	0	32788	32804	
2131	0	32780	32749	
2132	0	32740	32772	
2133	0	32814	32856	
2134	0	32788	32768	
2135	0	32838	32810	
2136	0	32778	32756	
2137	0	32844	32654	
2138	0	32868	32853	
2139	0	32775	32820	
2140	0	32789	32674	
2141	0	32836	32849	
2142	0	32808	32764	
2143	0	32768	32704	
2144	0	32802	32822	
2145	0	32808	32822	
2146	0	32792	32660	
2147	0	32840	32786	
2148	0	32776	32769	
2149	0	32756	32740	
2150	0	32740	32802	
2151	0	32816	32758	
2152	0	32824	32800	
2153	0	32896	32772	
2154	0	32840	32832	
2155	0	32848	32860	
2156	0	32788	32728	
2157	0	32820	32692	
2158	0	32864	32734	
2159	0	32824	32796	
2160	0	32775	32704	
2161	0	32806	32847	
2162	0	32752	32786	
2163	0	32824	32719	
2164	0	32800	32743	
2165	0	32842	32742	
2166	0	32848	32828	
2167	0	32766	32676	
2168	0	32816	32799	
2169	0	32814	32842	
2170	0	32804	32828	
2171	0	32852	32710	
2172	0	32848	32775	
2173	0	32832	32760	
2174	0	32736	32798	
2175	0	32822	32724	
2176	0	32852	32786	
2177	0	32848	32775	
2178	0	32816	32694	
2179	0	32836	32760	
2180	0	32772	32806	
2181	0	32830	32826	
2182	0	32818	32711	
2183	0	32820	32796	
2184	0	32836	32770	
2185	0	32824	32774	
2186	0	32782	32700	
2187	0	32844	32711	
2188	0	32780	32764	
2189	0	32754	32791	
2190	0	32894	32678	
2191	0	32776	32756	
2192	0	32832	32774	
2193	0	32796	32766	
2194	0	32810	32696	
2195	0	32812	32802	
2196	0	32808	32764	
2197	0	32774	32834	
2198	0	32776	32738	
2199	0	32860	32758	
2200	0	32872	32804	
2201	0	32788	32728	
2202	0	32786	32786	
2203	0	32752	32750	
2204	0	32840	32710	
2205	0	32841	32838	
2206	0	32824	32805	
2207	0	32828	32742	
2208	0	32796	32792	
2209	0	32816	32805	
2210	0	32808	32740	
2211	0	32798	32810	
2212	0	32916	32750	
2213	0	32800	32735	
2214	0	32812	32836	
2215	0	32856	32775	
2216	0	32846	32754	
2217	0	32830	32879	
2218	0	32816	32747	
2219	0	32832	32822	
2220	0	32762	32718	
2221	0	32822	32808	
2222	0	32732	32752	
2223	0	32856	32680	
2224	0	32780	32806	
2225	0	32832	32828	
2226	0	32766	32663	
2227	0	32812	32874	
2228	0	32796	32800	
2229	0	32816	32746	
2230	0	32784	32790	
2231	0	32866	32860	
2232	0	32816	32774	
2233	0	32776	32760	
2234	0	32820	32806	
2235	0	32836	32698	
2236	0	32824	32736	
2237	0	32812	32816	
2238	0	32842	32687	
2239	0	32788	32800	
2240	0	32844	32728	
2241	0	32844	32769	
2242	0	32812	32764	
2243	0	32834	32810	
2244	0	32744	32886	
2245	0	32816	32687	
2246	0	32876	32806	
2247	0	32772	32764	
2248	0	32882	32768	
2249	0	32828	32844	
2250	0	32832	32814	
2251	0	32836	32678	
2252	0	32748	32772	
2253	0	32720	32746	
2254	0	32860	32720	
2255	0	32810	32754	
2256	0	32844	32822	
2257	0	32840	32768	
2258	0	32758	32678	
2259	0	32828	32839	
2260	0	32812	32830	
2261	0	32842	32834	
2262	0	32828	32708	
2263	0	32822	32816	
2264	0	32802	32890	
2265	0	32784	32902	
2266	0	32780	32725	
2267	0	32736	32804	
2268	0	32820	32742	
2269	0	32836	32798	
2270	0	32818	32742	
2271	0	32828	32758	
2272	0	32800	32747	
2273	0	32796	32802	
2274	0	32808	32743	
2275	0	32804	32775	
2276	0	32880	32692	
2277	0	32830	32802	
2278	0	32888	32834	
2279	0	32764	32626	
2280	0	32842	32802	
2281	0	32832	32762	
2282	0	32772	32678	
2283	0	32774	32775	
2284	0	32820	32775	
2285	0	32798	32784	
2286	0	32784	32708	
2287	0	32820	32775	
2288	0	32764	32812	
2289	0	32840	32700	
2290	0	32792	32836	
2291	0	32832	32807	
2292	0	32836	32724	
2293	0	32832	32798	
2294	0	32796	32728	
2295	0	32782	32804	
2296	0	32828	32729	
2297	0	32824	32799	
2298	0	32836	32724	
2299	0	32820	32758	
2300	0	32724	32894	
2301	0	32756	32850	
2302	0	32816	32695	
2303	0	32824	32772	
2304	0	32788	32874	
2305	0	32793	32682	
2306	0	32754	32722	
2307	0	32828	32855	
2308	0	32836	32719	
2309	0	32794	32718	
2310	0	32847	32821	
2311	0	32804	32868	
2312	0	32814	32799	
2313	0	32842	32752	
2314	0	32823	32788	
2315	0	32796	32640	
2316	0	32832	32804	
2317	0	32872	32890	
2318	0	32898	32711	
2319	0	32824	32759	
2320	0	32766	32676	
2321	0	32852	32886	
2322	0	32796	32764	
2323	0	32840	32762	
2324	0	32772	32672	
2325	0	32780	32807	
2326	0	32854	32822	
2327	0	32826	32720	
2328	0	32774	32890	
2329	0	32768	32852	
2330	0	32798	32764	
2331	0	32802	32720	
2332	0	32740	32871	
2333	0	32848	32710	
2334	0	32824	32852	
2335	0	32782	32690	
2336	0	32816	32750	
2337	0	32856	32768	
2338	0	32764	32792	
2339	0	32826	32692	
2340	0	32798	32890	
2341	0	32752	32790	
2342	0	32860	32662	
2343	0	32808	32734	
2344	0	32880	32834	
2345	0	32844	32862	
2346	0	32796	32715	
2347	0	32756	32742	
2348	0	32850	32870	
2349	0	32856	32694	
2350	0	32746	32812	
2351	0	32764	32788	
2352	0	32720	32775	
2353	0	32816	32728	
2354	0	32820	32807	
2355	0	32804	32804	
2356	0	32796	32769	
2357	0	32924	32721	
2358	0	32800	32808	
2359	0	32864	32735	
2360	0	32748	32802	
2361	0	32775	32703	
2362	0	32760	32775	
2363	0	32828	32848	
2364	0	32812	32802	
2365	0	32744	32679	
2366	0	32784	32766	
2367	0	32789	32748	
2368	0	32830	32855	
2369	0	32774	32710	
2370	0	32804	32743	
2371	0	32865	32820	
2372	0	32814	32764	
2373	0	32828	32724	
2374	0	32856	32882	
2375	0	32800	32775	
2376	0	32832	32750	
2377	0	32828	32746	
2378	0	32802	32830	
2379	0	32830	32762	
2380	0	32776	32817	
2381	0	32820	32775	
2382	0	32814	32690	
2383	0	32800	32796	
2384	0	32820	32863	
2385	0	32800	32766	
2386	0	32780	32772	
2387	0	32840	32756	
2388	0	32840	32704	
2389	0	32852	32747	
2390	0	32768	32814	
2391	0	32882	32759	
2392	0	32844	32658	
2393	0	32808	32775	
2394	0	32806	32814	
2395	0	32784	32892	
2396	0	32864	32754	
2397	0	32810	32810	
2398	0	32808	32844	
2399	0	32856	32692	
2400	0	32792	32654	
2401	0	32858	32750	
2402	0	32792	32775	
2403	0	32748	32737	
2404	0	32830	32733	
2405	0	32856	32713	
2406	0	32784	32838	
2407	0	32804	32879	
2408	0	32794	32786	
2409	0	32824	32807	
2410	0	32844	32807	
2411	0	32828	32668	
2412	0	32816	32806	
2413	0	32804	32704	
2414	0	32836	32774	
2415	0	32800	32663	
2416	0	32834	32758	
2417	0	32736	32794	
2418	0	32792	32794	
2419	0	32884	32647	
2420	0	32820	32882	
2421	0	32752	32794	
2422	0	32796	32735	
2423	0	32808	32759	
2424	0	32856	32768	
2425	0	32844	32724	
2426	0	32778	32716	
2427	0	32804	32646	
2428	0	32830	32740	
2429	0	32876	32852	
2430	0	32798	32838	
2431	0	32782	32888	
2432	0	32836	32684	
2433	0	32852	32762	
2434	0	32800	32718	
2435	0	32804	32798	
2436	0	32836	32707	
2437	0	32766	32804	
2438	0	32808	32772	
2439	0	32836	32674	
2440	0	32772	32828	
2441	0	32874	32704	
2442	0	32788	32868	
2443	0	32836	32838	
2444	0	32750	32712	
2445	0	32812	32727	
2446	0	32790	32760	
2447	0	32834	32862	
2448	0	32808	32636	
2449	0	32824	32879	
2450	0	32848	32832	
2451	0	32780	32790	
2452	0	32796	32766	
2453	0	32780	32866	
2454	0	32824	32762	
2455	0	32728	32690	
2456	0	32832	32664	
2457	0	32768	32883	
2458	0	32928	32793	
2459	0	32774	32816	
2460	0	32782	32752	
2461	0	32844	32636	
2462	0	32808	32796	
2463	0	32802	32750	
2464	0	32812	32710	
2465	0	32784	32766	
2466	0	32800	32652	
2467	0	32725	32796	
2468	0	32788	32856	
2469	0	32808	32759	
2470	0	32872	32753	
2471	0	32816	32718	
2472	0	32824	32831	
2473	0	32816	32724	
2474	0	32878	32820	
2475	0	32824	32736	
2476	0	32828	32847	
2477	0	32802	32807	
2478	0	32800	32712	
2479	0	32824	32743	
2480	0	32794	32806	
2481	0	32800	32798	
2482	0	32792	32730	
2483	0	32800	32734	
2484	0	32854	32822	
2485	0	32822	32740	
2486	0	32832	32710	
2487	0	32840	32804	
2488	0	32780	32698	
2489	0	32820	32824	
2490	0	32810	32669	
2491	0	32796	32838	
2492	0	32808	32812	
2493	0	32836	32772	
2494	0	32840	32728	
2495	0	32836	32800	
2496	0	32814	32772	
2497	0	32844	32886	
2498	0	32804	32764	
2499	0	32784	32774	
2500	0	32856	32798	
2501	0	32796	32775	
2502	0	32828	32700	
2503	0	32792	32718	
2504	0	32804	32734	
2505	0	32740	32814	
2506	0	32772	32712	
2507	0	32848	32740	
2508	0	32808	32836	
2509	0	32788	32716	
2510	0	32764	32830	
2511	0	32790	32702	
2512	0	32808	32807	
2513	0	32832	32752	
2514	0	32839	32843	
2515	0	32860	32750	
2516	0	32844	32794	
2517	0	32818	32756	
2518	0	32834	32771	
2519	0	32852	32726	
2520	0	32770	32775	
2521	0	32810	32766	
2522	0	32780	32808	
2523	0	32832	32718	
2524	0	32852	32705	
2525	0	32820	32839	
2526	0	32768	32714	
2527	0	32812	32772	
2528	0	32854	32734	
2529	0	32864	32706	
2530	0	32780	32812	
2531	0	32820	32760	
2532	0	32808	32831	
2533	0	32760	32644	
2534	0	32816	32892	
2535	0	32772	32740	
2536	0	32918	32758	
2537	0	32820	32732	
2538	0	32860	32842	
2539	0	32834	32774	
2540	0	32832	32768	
2541	0	32828	32734	
2542	0	32834	32749	
2543	0	32792	32732	
2544	0	32768	32726	
2545	0	32820	32775	
2546	0	32754	32886	
2547	0	32820	32647	
2548	0	32796	32878	
2549	0	32788	32748	
2550	0	32820	32873	
2551	0	32808	32706	
2552	0	32760	32796	
2553	0	32852	32758	
2554	0	32812	32736	
2555	0	32760	32736	
2556	0	32812	32788	
2557	0	32832	32830	
2558	0	32796	32647	
2559	0	32834	32775	
2560	0	32830	32764	
2561	0	32800	32740	
2562	0	32804	32728	
2563	0	32836	32734	
2564	0	32792	32775	
2565	0	32820	32871	
2566	0	32836	32714	
2567	0	32784	32796	
2568	0	32816	32886	
2569	0	32808	32750	
2570	0	32810	32830	
2571	0	32842	32722	
2572	0	32814	32785	
2573	0	32782	32799	
2574	0	32816	32766	
2575	0	32780	32736	
2576	0	32852	32820	
2577	0	32776	32796	
2578	0	32800	32727	
2579	0	32840	32687	
2580	0	32784	32660	
2581	0	32852	32774	
2582	0	32836	32816	
2583	0	32781	32798	
2584	0	32856	32832	
2585	0	32832	32731	
2586	0	32780	32774	
2587	0	32860	32802	
2588	0	32768	32704	
2589	0	32844	32762	
2590	0	32816	32824	
2591	0	32818	32710	
2592	0	32804	32728	
2593	0	32746	32788	
2594	0	32858	32709	
2595	0	32836	32752	
2596	0	32830	32826	
2597	0	32812	32712	
2598	0	32836	32793	
2599	0	32776	32764	
2600	0	32868	32774	
2601	0	32796	32698	
2602	0	32806	32838	
2603	0	32846	32884	
2604	0	32884	32740	
2605	0	32802	32775	
2606	0	32844	32744	
2607	0	32768	32806	
2608	0	32786	32692	
2609	0	32804	32871	
2610	0	32816	32794	
2611	0	32836	32756	
2612	0	32864	32748	
2613	0	32792	32738	
2614	0	32776	32806	
2615	0	32772	32698	
2616	0	32842	32738	
2617	0	32894	32828	
2618	0	32780	32738	
2619	0	32848	32626	
2620	0	32774	32774	
2621	0	32744	32822	
2622	0	32856	32863	
2623	0	32848	32717	
2624	0	32760	32860	
2625	0	32838	32858	
2626	0	32849	32697	
2627	0	32804	32772	
2628	0	32764	32775	
2629	0	32772	32868	
2630	0	32804	32726	
2631	0	32756	32664	
2632	0	32880	32818	
2633	0	32884	32740	
2634	0	32770	32804	
2635	0	32760	32727	
2636	0	32832	32711	
2637	0	32820	32828	
2638	0	32808	32840	
2639	0	32840	32756	
2640	0	32838	32744	
2641	0	32892	32702	
2642	0	32798	32748	
2643	0	32808	32812	
2644	0	32804	32858	
2645	0	32812	32652	
2646	0	32736	32863	
2647	0	32756	32746	
2648	0	32734	32810	
2649	0	32850	32704	
2650	0	32792	32795	
2651	0	32844	32839	
2652	0	32788	32830	
2653	0	32832	32718	
2654	0	32772	32874	
2655	0	32810	32744	
2656	0	32808	32830	
2657	0	32816	32671	
2658	0	32828	32722	
2659	0	32812	32796	
2660	0	32814	32834	
2661	0	32744	32724	
2662	0	32776	32706	
2663	0	32842	32832	
2664	0	32792	32732	
2665	0	32836	32790	
2666	0	32744	32649	
2667	0	32824	32766	
2668	0	32796	32796	
2669	0	32728	32786	
2670	0	32800	32810	
2671	0	32822	32711	
2672	0	32820	32725	
2673	0	32796	32824	
2674	0	32824	32774	
2675	0	32784	32769	
2676	0	32836	32801	
2677	0	32844	32748	
2678	0	32816	32834	
2679	0	32848	32756	
2680	0	32776	32738	
2681	0	32854	32814	
2682	0	32844	32818	
2683	0	32812	32695	
2684	0	32824	32784	
2685	0	32774	32810	
2686	0	32788	32737	
2687	0	32808	32784	
2688	0	32892	32716	
2689	0	32796	32832	
2690	0	32824	32758	
2691	0	32848	32848	
2692	0	32780	32745	
2693	0	32796	32838	
2694	0	32804	32676	
2695	0	32852	32775	
2696	0	32764	32660	
2697	0	32854	32772	
2698	0	32792	32798	
2699	0	32800	32676	
2700	0	32768	32775	
2701	0	32814	32847	
2702	0	32808	32702	
2703	0	32754	32750	
2704	0	32826	32844	
2705	0	32836	32752	
2706	0	32774	32754	
2707	0	32776	32768	
2708	0	32768	32718	
2709	0	32884	32880	
2710	0	32812	32684	
2711	0	32792	32750	
2712	0	32812	32906	
2713	0	32802	32766	
2714	0	32848	32924	
2715	0	32824	32792	
2716	0	32852	32689	
2717	0	32784	32794	
2718	0	32804	32834	
2719	0	32852	32679	
2720	0	32800	32775	
2721	0	32788	32756	
2722	0	32776	32814	
2723	0	32852	32708	
2724	0	32864	32787	
2725	0	32778	32714	
2726	0	32864	32798	
2727	0	32800	32746	
2728	0	32788	32839	
2729	0	32780	32712	
2730	0	32800	32764	
2731	0	32868	32788	
2732	0	32836	32775	
2733	0	32810	32802	
2734	0	32816	32724	
2735	0	32860	32895	
2736	0	32770	32764	
2737	0	32775	32762	
2738	0	32876	32674	
2739	0	32794	32879	
2740	0	32816	32775	
2741	0	32784	32724	
2742	0	32834	32706	
2743	0	32818	32792	
2744	0	32824	32839	
2745	0	32834	32740	
2746	0	32772	32740	
2747	0	32880	32720	
2748	0	32832	32684	
2749	0	32838	32748	
2750	0	32804	32736	
2751	0	32812	32692	
2752	0	32750	32814	
2753	0	32890	32774	
2754	0	32844	32756	
2755	0	32814	32762	
2756	0	32812	32772	
2757	0	32756	32834	
2758	0	32812	32652	
2759	0	32736	32860	
2760	0	32780	32770	
2761	0	32822	32774	
2762	0	32824	32718	
2763	0	32808	32792	
2764	0	32876	32775	
2765	0	32776	32760	
2766	0	32764	32698	
2767	0	32808	32748	
2768	0	32832	32642	
2769	0	32780	32786	
2770	0	32773	32760	
2771	0	32834	32862	
2772	0	32836	32810	
2773	0	32874	32743	
2774	0	32812	32798	
2775	0	32808	32818	
2776	0	32786	32748	
2777	0	32816	32804	
2778	0	32750	32752	
2779	0	32814	32708	
2780	0	32796	32706	
2781	0	32792	32870	
2782	0	32828	32811	
2783	0	32808	32671	
2784	0	32792	32775	
2785	0	32840	32802	
2786	0	32852	32732	
2787	0	32816	32842	
2788	0	32840	32788	
2789	0	32862	32854	
2790	0	32820	32760	
2791	0	32808	32748	
2792	0	32752	32894	
2793	0	32850	32766	
2794	0	32856	32775	
2795	0	32780	32663	
2796	0	32900	32804	
2797	0	32816	32816	
2798	0	32808	32694	
2799	0	32810	32810	
2800	0	32792	32822	
2801	0	32820	32725	
2802	0	32756	32727	
2803	0	32824	32824	
2804	0	32828	32774	
2805	0	32822	32775	
2806	0	32736	32768	
2807	0	32820	32624	
2808	0	32804	32822	
2809	0	32776	32804	
2810	0	32788	32754	
2811	0	32850	32742	
2812	0	32856	32832	
2813	0	32832	32788	
2814	0	32776	32744	
2815	0	32828	32832	
2816	0	32768	32659	
2817	0	32752	32660	
2818	0	32828	32736	
2819	0	32818	32850	
2820	0	32828	32816	
2821	0	32818	32726	
2822	0	32828	32718	
2823	0	32768	32768	
2824	0	32764	32784	
2825	0	32760	32852	
2826	0	32820	32740	
2827	0	32804	32807	
2828	0	32814	32775	
2829	0	32808	32719	
2830	0	32860	32814	
2831	0	32832	32775	
2832	0	32814	32758	
2833	0	32808	32766	
2834	0	32828	32740	
2835	0	32828	32810	
2836	0	32814	32718	
2837	0	32836	32706	
2838	0	32744	32775	
2839	0	32828	32756	
2840	0	32857	32775	
2841	0	32798	32722	
2842	0	32906	32720	
2843	0	32800	32836	
2844	0	32804	32775	
2845	0	32828	32774	
2846	0	32774	32834	
2847	0	32816	32774	
2848	0	32876	32812	
2849	0	32784	32834	
2850	0	32780	32768	
2851	0	32798	32901	
2852	0	32828	32694	
2853	0	32864	32742	
2854	0	32840	32775	
2855	0	32848	32826	
2856	0	32820	32693	
2857	0	32772	32750	
2858	0	32728	32775	
2859	0	32840	32790	
2860	0	32780	32773	
2861	0	32754	32700	
2862	0	32820	32726	
2863	0	32840	32830	
2864	0	32820	32672	
2865	0	32862	32816	
2866	0	32804	32664	
2867	0	32748	32728	
2868	0	32862	32797	
2869	0	32738	32764	
2870	0	32775	32789	
2871	0	32860	32700	
2872	0	32872	32775	
2873	0	32856	32924	
2874	0	32814	32670	
2875	0	32756	32801	
2876	0	32798	32780	
2877	0	32778	32754	
2878	0	32802	32791	
2879	0	32794	32862	
2880	0	32794	32818	
2881	0	32824	32802	
2882	0	32792	32681	
2883	0	32774	32792	
2884	0	32836	32798	
2885	0	32842	32834	
2886	0	32832	32630	
2887	0	32750	32770	
2888	0	32866	32743	
2889	0	32836	32836	
2890	0	32856	32715	
2891	0	32776	32839	
2892	0	32825	32800	
2893	0	32848	32762	
2894	0	32880	32806	
2895	0	32824	32800	
2896	0	32828	32805	
2897	0	32778	32742	
2898	0	32832	32775	
2899	0	32812	32772	
2900	0	32800	32702	
2901	0	32848	32775	
2902	0	32780	32747	
2903	0	32756	32710	
2904	0	32821	32720	
2905	0	32768	32702	
2906	0	32784	32756	
2907	0	32796	32756	
2908	0	32872	32775	
2909	0	32824	32730	
2910	0	32828	32838	
2911	0	32814	32676	
2912	0	32776	32810	
2913	0	32810	32742	
2914	0	32868	32868	
2915	0	32792	32743	
2916	0	32812	32812	
2917	0	32816	32775	
2918	0	32792	32740	
2919	0	32828	32824	
2920	0	32826	32862	
2921	0	32716	32680	
2922	0	32838	32758	
2923	0	32832	32824	
2924	0	32846	32842	
2925	0	32812	32629	
2926	0	32764	32772	
2927	0	32790	32726	
2928	0	32818	32815	
2929	0	32778	32698	
2930	0	32864	32850	
2931	0	32820	32784	
2932	0	32858	32650	
2933	0	32840	32764	
2934	0	32816	32799	
2935	0	32852	32730	
2936	0	32798	32703	
2937	0	32804	32738	
2938	0	32816	32771	
2939	0	32784	32803	
2940	0	32846	32814	
2941	0	32832	32774	
2942	0	32812	32726	
2943	0	32834	32687	
2944	0	32780	32821	
2945	0	32804	32814	
2946	0	32812	32716	
2947	0	32796	32792	
2948	0	32824	32790	
2949	0	32742	32844	
2950	0	32816	32740	
2951	0	32852	32714	
2952	0	32816	32756	
2953	0	32816	32784	
2954	0	32800	32736	
2955	0	32788	32698	
2956	0	32808	32772	
2957	0	32836	32822	
2958	0	32928	32711	
2959	0	32830	32862	
2960	0	32734	32775	
2961	0	32736	32743	
2962	0	32760	32775	
2963	0	32884	32716	
2964	0	32826	32824	
2965	0	32844	32762	
2966	0	32848	32807	
2967	0	32824	32800	
2968	0	32784	32836	
2969	0	32880	32750	
2970	0	32828	32860	
2971	0	32870	32736	
2972	0	32714	32749	
2973	0	32820	32800	
2974	0	32804	32742	
2975	0	32816	32775	
2976	0	32772	32650	
2977	0	32828	32730	
2978	0	32832	32820	
2979	0	32792	32775	
2980	0	32764	32743	
2981	0	32788	32754	
2982	0	32778	32782	
2983	0	32864	32758	
2984	0	32784	32742	
2985	0	32788	32742	
2986	0	32752	32814	
2987	0	32849	32862	
2988	0	32784	32828	
2989	0	32844	32664	
2990	0	32844	32644	
2991	0	32852	32786	
2992	0	32832	32775	
2993	0	32784	32702	
2994	0	32740	32730	
2995	0	32820	32724	
2996	0	32852	32738	
2997	0	32804	32710	
2998	0	32836	32762	
2999	0	32768	32740	
3000	0	32820	32704	
3001	0	32872	32794	
3002	0	32752	32711	
3003	0	32836	32734	
3004	0	32836	32784	
3005	0	32796	32852	
3006	0	32841	32766	
3007	0	32780	32704	
3008	0	32784	32802	
3009	0	32784	32839	
3010	0	32878	32770	
3011	0	32814	32734	
3012	0	32756	32854	
3013	0	32744	32767	
3014	0	32824	32798	
3015	0	32800	32738	
3016	0	32776	32754	
3017	0	32824	32735	
3018	0	32768	32815	
3019	0	32852	32708	
3020	0	32760	32840	
3021	0	32818	32792	
3022	0	32778	32688	
3023	0	32774	32800	
3024	0	32804	32852	
3025	0	32816	32846	
3026	0	32776	32740	
3027	0	32866	32800	
3028	0	32832	32782	
3029	0	32771	32711	
3030	0	32798	32816	
3031	0	32804	32832	
3032	0	32778	32734	
3033	0	32913	32792	
3034	0	32904	32792	
3035	0	32764	32727	
3036	0	32764	32660	
3037	0	32782	32710	
3038	0	32900	32812	
3039	0	32784	32715	
3040	0	32844	32684	
3041	0	32750	32808	
3042	0	32776	32712	
3043	0	32844	32664	
3044	0	32887	32820	
3045	0	32792	32711	
3046	0	32782	32834	
3047	0	32824	32718	
3048	0	32812	32854	
3049	0	32834	32794	
3050	0	32778	32736	
3051	0	32840	32798	
3052	0	32828	32839	
3053	0	32788	32734	
3054	0	32806	32760	
3055	0	32844	32786	
3056	0	32832	32805	
3057	0	32836	32692	
3058	0	32800	32810	
3059	0	32778	32734	
3060	0	32804	32688	
3061	0	32824	32821	
3062	0	32804	32798	
3063	0	32744	32656	
3064	0	32862	32839	
3065	0	32816	32762	
3066	0	32742	32714	
3067	0	32856	32838	
3068	0	32792	32792	
3069	0	32785	32618	
3070	0	32804	32858	
3071	0	32880	32797	
3072	0	32852	32743	
3073	0	32782	32812	
3074	0	32760	32858	
3075	0	32810	32775	
3076	0	32866	32770	
3077	0	32850	32724	
3078	0	32788	32844	
3079	0	32844	32786	
3080	0	32756	32692	
3081	0	32760	32858	
3082	0	32812	32790	
3083	0	32792	32816	
3084	0	32800	32706	
3085	0	32812	32855	
3086	0	32840	32774	
3087	0	32788	32808	
3088	0	32824	32659	
3089	0	32847	32830	
3090	0	32838	32764	
3091	0	32884	32641	
3092	0	32900	32672	
3093	0	32862	32678	
3094	0	32916	32650	
3095	0	32866	32612	
3096	0	32852	32688	
3097	0	32880	32606	
3098	0	32838	32775	
3099	0	32912	32734	
3100	0	32836	32590	
3101	0	32880	32618	
3102	0	32892	32678	
3103	0	32834	32708	
3104	0	32852	32574	
3105	0	32844	32680	
3106	0	32876	32686	
3107	0	32948	32634	
3108	0	32842	32775	
3109	0	32876	32748	
3110	0	32804	32586	
3111	0	32908	32766	
3112	0	32856	32802	
3113	0	32868	32750	
3114	0	32822	32903	
3115	0	32812	32943	
3116	0	32640	32889	
3117	0	32724	33031	
3118	0	32724	33024	
3119	0	32672	32930	
3120	0	32680	33044	
3121	0	32764	32983	
3122	0	32636	33070	
3123	0	32686	32986	
3124	0	32656	33060	
3125	0	32672	33092	
3126	0	32608	32951	
3127	0	32596	33096	
3128	0	32668	32971	
3129	0	32612	33088	
3130	0	32612	33017	
3131	0	32652	33008	
3132	0	32722	33078	
3133	0	32766	32940	
3134	0	32724	32854	
3135	0	32808	32634	
3136	0	32870	32642	
3137	0	32956	32490	
3138	0	32884	32494	
3139	0	32880	32452	
3140	0	32924	32575	
3141	0	32956	32465	
3142	0	32896	32562	
3143	0	32938	32500	
3144	0	32936	32583	
3145	0	32884	32528	
3146	0	32906	32655	
3147	0	32842	32740	
3148	0	32892	32708	
3149	0	32816	32788	
3150	0	32818	32759	
3151	0	32792	32700	
3152	0	32836	32790	
3153	0	32864	32746	
3154	0	32786	32733	
3155	0	32812	32768	
3156	0	32840	32764	
3157	0	32744	32775	
3158	0	32844	32800	
3159	0	32860	32843	
3160	0	32820	32879	
3161	0	32790	32732	
3162	0	32888	32736	
3163	0	32840	32775	
3164	0	32850	32734	
3165	0	32804	32679	
3166	0	32824	32818	
3167	0	32822	32767	
3168	0	32752	32746	
3169	0	32810	32756	
3170	0	32804	32768	
3171	0	32836	32860	
3172	0	32804	32789	
3173	0	32784	32720	
3174	0	32868	32796	
3175	0	32804	32780	
3176	0	32870	32687	
3177	0	32853	32796	
3178	0	32788	32812	
3179	0	32880	32688	
3180	0	32772	32812	
3181	0	32818	32775	
3182	0	32813	32708	
3183	0	32784	32750	
3184	0	32884	32753	
3185	0	32836	32835	
3186	0	32850	32692	
3187	0	32872	32766	
3188	0	32836	32802	
3189	0	32832	32674	
3190	0	32852	32806	
3191	0	32872	32775	
3192	0	32892	32708	
3193	0	32842	32792	
3194	0	32804	32762	
3195	0	32868	32692	
3196	0	32870	32862	
3197	0	32844	32647	
3198	0	32842	32814	
3199	0	32790	32647	
3200	0	32812	32775	
3201	0	32844	32719	
3202	0	32788	32775	
3203	0	32868	32668	
3204	0	32798	32760	
3205	0	32808	32800	
3206	0	32854	32832	
3207	0	32852	32664	
3208	0	32744	32798	
3209	0	32848	32711	
3210	0	32878	32834	
3211	0	32776	32725	
3212	0	32804	32791	
3213	0	32860	32772	
3214	0	32796	32688	
3215	0	32888	32775	
3216	0	32792	32788	
3217	0	32768	32788	
3218	0	32804	32690	
3219	0	32796	32830	
3220	0	32768	32791	
3221	0	32732	32708	
3222	0	32836	32801	
3223	0	32764	32790	
3224	0	32788	32666	
3225	0	32742	32882	
3226	0	32788	32750	
3227	0	32800	32808	
3228	0	32850	32820	
3229	0	32790	32790	
3230	0	32848	32775	
3231	0	32808	32720	
3232	0	32854	32814	
3233	0	32772	32802	
3234	0	32776	32732	
3235	0	32800	32868	
3236	0	32854	32772	
3237	0	32744	32688	
3238	0	32864	32884	
3239	0	32770	32868	
3240	0	32808	32720	
3241	0	32848	32723	
3242	0	32776	32760	
3243	0	32772	32836	
3244	0	32788	32768	
3245	0	32870	32838	
3246	0	32814	32820	
3247	0	32808	32678	
3248	0	32728	32738	
3249	0	32808	32796	
3250	0	32820	32732	
3251	0	32816	32930	
3252	0	32782	32774	
3253	0	32776	32726	
3254	0	32792	32795	
3255	0	32820	32831	
3256	0	32904	32806	
3257	0	32760	32694	
3258	0	32774	32870	
3259	0	32802	32826	
3260	0	32808	32704	
3261	0	32784	32775	
3262	0	32816	32750	
3263	0	32866	32686	
3264	0	32844	32742	
3265	0	32770	32799	
3266	0	32748	32760	
3267	0	32808	32807	
3268	0	32744	32740	
3269	0	32730	32841	
3270	0	32852	32714	
3271	0	32884	32762	
3272	0	32804	32822	
3273	0	32800	32644	
3274	0	32724	32804	
3275	0	32868	32828	
3276	0	32808	32680	
3277	0	32760	32823	
3278	0	32848	32854	
3279	0	32848	32807	
3280	0	32852	32814	
3281	0	32812	32707	
3282	0	32852	32775	
3283	0	32810	32838	
3284	0	32848	32706	
3285	0	32836	32823	
3286	0	32800	32746	
3287	0	32884	32703	
3288	0	32785	32758	
3289	0	32774	32838	
3290	0	32760	32775	
3291	0	32772	32704	
3292	0	32856	32710	
3293	0	32792	32834	
3294	0	32798	32698	
3295	0	32796	32760	
3296	0	32808	32814	
3297	0	32836	32786	
3298	0	32810	32772	
3299	0	32762	32692	
3300	0	32832	32757	
3301	0	32800	32682	
3302	0	32808	32756	
3303	0	32846	32804	
3304	0	32834	32744	
3305	0	32828	32879	
3306	0	32802	32789	
3307	0	32852	32772	
3308	0	32804	32791	
3309	0	32756	32679	
3310	0	32800	32728	
3311	0	32828	32732	
3312	0	32768	32800	
3313	0	32820	32721	
3314	0	32800	32804	
3315	0	32844	32708	
3316	0	32828	32768	
3317	0	32784	32716	
3318	0	32784	32764	
3319	0	32775	32646	
3320	0	32832	32870	
3321	0	32876	32832	
3322	0	32748	32728	
3323	0	32788	32844	
3324	0	32846	32790	
3325	0	32794	32710	
3326	0	32860	32780	
3327	0	32784	32774	
3328	0	32768	32678	
3329	0	32884	32672	
3330	0	32872	32780	
3331	0	32832	32724	
3332	0	32824	32764	
3333	0	32800	32701	
3334	0	32824	32764	
3335	0	32816	32775	
3336	0	32786	32772	
3337	0	32818	32775	
3338	0	32770	32784	
3339	0	32810	32791	
3340	0	32842	32766	
3341	0	32808	32742	
3342	0	32788	32748	
3343	0	32792	32806	
3344	0	32854	32822	
3345	0	32788	32702	
3346	0	32820	32752	
3347	0	32876	32775	
3348	0	32840	32756	
3349	0	32800	32706	
3350	0	32832	32821	
3351	0	32764	32910	
3352	0	32888	32716	
3353	0	32786	32775	
3354	0	32840	32752	
3355	0	32800	32798	
3356	0	32808	32673	
3357	0	32836	32814	
3358	0	32788	32760	
3359	0	32796	32676	
3360	0	32854	32698	
3361	0	32804	32798	
3362	0	32816	32759	
3363	0	32798	32724	
3364	0	32836	32758	
3365	0	32836	32876	
3366	0	32780	32850	
3367	0	32800	32702	
3368	0	32818	32726	
3369	0	32824	32775	
3370	0	32762	32626	
3371	0	32782	32828	
3372	0	32792	32820	
3373	0	32856	32752	
3374	0	32860	32798	
3375	0	32858	32826	
3376	0	32876	32646	
3377	0	32800	32767	
3378	0	32800	32738	
3379	0	32822	32818	
3380	0	32792	32751	
3381	0	32844	32726	
3382	0	32776	32827	
3383	0	32791	32750	
3384	0	32800	32824	
3385	0	32720	32802	
3386	0	32816	32736	
3387	0	32844	32826	
3388	0	32796	32762	
3389	0	32798	32720	
3390	0	32802	32849	
3391	0	32824	32750	
3392	0	32804	32719	
3393	0	32800	32835	
3394	0	32900	32769	
3395	0	32804	32746	
3396	0	32790	32772	
3397	0	32796	32812	
3398	0	32796	32698	
3399	0	32792	32775	
3400	0	32832	32807	
3401	0	32806	32811	
3402	0	32804	32686	
3403	0	32810	32810	
3404	0	32728	32820	
3405	0	32840	32794	
3406	0	32767	32820	
3407	0	32756	32834	
3408	0	32822	32766	
3409	0	32804	32756	
3410	0	32836	32764	
3411	0	32794	32647	
3412	0	32804	32828	
3413	0	32820	32816	
3414	0	32816	32775	
3415	0	32876	32674	
3416	0	32816	32844	
3417	0	32828	32722	
3418	0	32736	32714	
3419	0	32878	32788	
3420	0	32888	32775	
3421	0	32846	32741	
3422	0	32856	32806	
3423	0	32854	32716	
3424	0	32788	32732	
3425	0	32786	32812	
3426	0	32840	32780	
3427	0	32804	32856	
3428	0	32768	32704	
3429	0	32800	32808	
3430	0	32736	32734	
3431	0	32744	32836	
3432	0	32800	32670	
3433	0	32784	32740	
3434	0	32800	32852	
3435	0	32820	32772	
3436	0	32764	32711	
3437	0	32796	32775	
3438	0	32798	32834	
3439	0	32824	32766	
3440	0	32876	32722	
3441	0	32818	32775	
3442	0	32828	32684	
3443	0	32792	32748	
3444	0	32808	32659	
3445	0	32816	32767	
3446	0	32806	32764	
3447	0	32866	32702	
3448	0	32832	32688	
3449	0	32800	32792	
3450	0	32808	32766	
3451	0	32788	32802	
3452	0	32746	32775	
3453	0	32848	32849	
3454	0	32814	32790	
3455	0	32884	32740	
3456	0	32836	32742	
3457	0	32864	32775	
3458	0	32856	32804	
3459	0	32760	32748	
3460	0	32834	32714	
3461	0	32760	32788	
3462	0	32824	32802	
3463	0	32824	32676	
3464	0	32804	32770	
3465	0	32789	32748	
3466	0	32804	32796	
3467	0	32824	32710	
3468	0	32752	32750	
3469	0	32772	32748	
3470	0	32792	32794	
3471	0	32814	32788	
3472	0	32816	32770	
3473	0	32836	32823	
3474	0	32880	32603	
3475	0	32832	32834	
3476	0	32770	32775	
3477	0	32844	32720	
3478	0	32796	32726	
3479	0	32804	32809	
3480	0	32862	32764	
3481	0	32832	32644	
3482	0	32816	32788	
3483	0	32828	32824	
3484	0	32762	32774	
3485	0	32760	32775	
3486	0	32800	32755	
3487	0	32836	32806	
3488	0	32760	32670	
3489	0	32800	32766	
3490	0	32862	32764	
3491	0	32856	32774	
3492	0	32850	32711	
3493	0	32794	32712	
3494	0	32852	32766	
3495	0	32840	32790	
3496	0	32812	32742	
3497	0	32846	32668	
3498	0	32752	32820	
3499	0	32864	32808	
3500	0	32848	32724	
3501	0	32780	32826	
3502	0	32834	32752	
3503	0	32796	32854	
3504	0	32848	32682	
3505	0	32804	32842	
3506	0	32764	32769	
3507	0	32834	32876	
3508	0	32789	32684	
3509	0	32830	32674	
3510	0	32794	32758	
3511	0	32790	32856	
3512	0	32810	32676	
3513	0	32896	32718	
3514	0	32772	32822	
3515	0	32820	32700	
3516	0	32828	32758	
3517	0	32796	32726	
3518	0	32840	32812	
3519	0	32808	32743	
3520	0	32820	32692	
3521	0	32766	32774	
3522	0	32840	32830	
3523	0	32832	32869	
3524	0	32800	32758	
3525	0	32768	32888	
3526	0	32842	32764	
3527	0	32784	32798	
3528	0	32804	32690	
3529	0	32876	32722	
3530	0	32798	32879	
3531	0	32858	32726	
3532	0	32844	32684	
3533	0	32804	32820	
3534	0	32796	32775	
3535	0	32794	32598	
3536	0	32828	32710	
3537	0	32800	32756	
3538	0	32764	32822	
3539	0	32816	32744	
3540	0	32820	32796	
3541	0	32840	32764	
3542	0	32832	32842	
3543	0	32770	32724	
3544	0	32756	32828	
3545	0	32792	32775	
3546	0	32808	32682	
3547	0	32834	32752	
3548	0	32808	32748	
3549	0	32836	32820	
3550	0	32788	32775	
3551	0	32828	32726	
3552	0	32804	32794	
3553	0	32820	32750	
3554	0	32854	32728	
3555	0	32828	32657	
3556	0	32828	32834	
3557	0	32832	32752	
3558	0	32782	32736	
3559	0	32908	32816	
3560	0	32832	32758	
3561	0	32812	32830	
3562	0	32824	32738	
3563	0	32828	32846	
3564	0	32784	32734	
3565	0	32780	32746	
3566	0	32792	32865	
3567	0	32808	32808	
3568	0	32802	32694	
3569	0	32832	32909	
3570	0	32820	32910	
3571	0	32804	32716	
3572	0	32842	32822	
3573	0	32804	32798	
3574	0	32815	32764	
3575	0	32730	32706	
3576	0	32837	32816	
3577	0	32840	32793	
3578	0	32834	32687	
3579	0	32816	32838	
3580	0	32796	32839	
3581	0	32770	32736	
3582	0	32708	32788	
3583	0	32816	32696	
3584	0	32768	32828	
3585	0	32780	32815	
3586	0	32774	32819	
3587	0	32857	32729	
3588	0	32842	32836	
3589	0	32817	32710	
3590	0	32848	32775	
3591	0	32836	32730	
3592	0	32752	32716	
3593	0	32830	32766	
3594	0	32812	32807	
3595	0	32836	32658	
3596	0	32816	32766	
3597	0	32846	32800	
3598	0	32798	32708	
3599	0	32804	32786	
3600	0	32814	32772	
3601	0	32816	32730	
3602	0	32818	32714	
3603	0	32780	32756	
3604	0	32728	32769	
3605	0	32810	32738	
3606	0	32732	32702	
3607	0	32774	32808	
3608	0	32808	32731	
3609	0	32786	32836	
3610	0	32830	32871	
3611	0	32854	32774	
3612	0	32904	32754	
3613	0	32860	32716	
3614	0	32812	32775	
3615	0	32842	32704	
3616	0	32836	32766	
3617	0	32852	32748	
3618	0	32754	32734	
3619	0	32730	32775	
3620	0	32792	32820	
3621	0	32792	32858	
3622	0	32836	32692	
3623	0	32860	32830	
3624	0	32798	32892	
3625	0	32800	32798	
3626	0	32768	32669	
3627	0	32810	32693	
3628	0	32772	32775	
3629	0	32870	32703	
3630	0	32824	32775	
3631	0	32838	32823	
3632	0	32806	32842	
3633	0	32768	32684	
3634	0	32802	32855	
3635	0	32824	32754	
3636	0	32808	32646	
3637	0	32772	32742	
3638	0	32796	32752	
3639	0	32826	32680	
3640	0	32832	32770	
3641	0	32774	32826	
3642	0	32834	32828	
3643	0	32840	32744	
3644	0	32844	32796	
3645	0	32848	32772	
3646	0	32804	32775	
3647	0	32808	32666	
3648	0	32820	32875	
3649	0	32830	32830	
3650	0	32804	32700	
3651	0	32876	32775	
3652	0	32834	32771	
3653	0	32804	32691	
3654	0	32832	32900	
3655	0	32792	32759	
3656	0	32810	32804	
3657	0	32804	32722	
3658	0	32712	32822	
3659	0	32805	32736	
3660	0	32828	32832	
3661	0	32800	32738	
3662	0	32764	32750	
3663	0	32804	32740	
3664	0	32776	32865	
3665	0	32788	32714	
3666	0	32744	32814	
3667	0	32816	32796	
3668	0	32868	32756	
3669	0	32852	32654	
3670	0	32892	32868	
3671	0	32840	32772	
3672	0	32862	32711	
3673	0	32822	32700	
3674	0	32780	32862	
3675	0	32846	32808	
3676	0	32796	32775	
3677	0	32724	32786	
3678	0	32814	32738	
3679	0	32840	32822	
3680	0	32826	32694	
3681	0	32820	32812	
3682	0	32836	32818	
3683	0	32850	32762	
3684	0	32754	32775	
3685	0	32852	32864	
3686	0	32778	32788	
3687	0	32760	32752	
3688	0	32836	32788	
3689	0	32816	32678	
3690	0	32800	32903	
3691	0	32800	32760	
3692	0	32840	32830	
3693	0	32874	32684	
3694	0	32796	32844	
3695	0	32816	32784	
3696	0	32836	32704	
3697	0	32762	32746	
3698	0	32806	32754	
3699	0	32760	32856	
3700	0	32796	32780	
3701	0	32800	32848	
3702	0	32814	32750	
3703	0	32800	32766	
3704	0	32817	32676	
3705	0	32812	32804	
3706	0	32804	32714	
3707	0	32848	32684	
3708	0	32774	32683	
3709	0	32802	32775	
3710	0	32864	32812	
3711	0	32876	32720	
3712	0	32852	32764	
3713	0	32848	32829	
3714	0	32868	32843	
3715	0	32780	32706	
3716	0	32832	32716	
3717	0	32856	32774	
3718	0	32804	32732	
3719	0	32770	32680	
3720	0	32868	32775	
3721	0	32736	32752	
3722	0	32784	32740	
3723	0	32818	32716	
3724	0	32808	32816	
3725	0	32796	32855	
3726	0	32800	32740	
3727	0	32748	32820	
3728	0	32842	32730	
3729	0	32844	32730	
3730	0	32816	32771	
3731	0	32842	32790	
3732	0	32826	32808	
3733	0	32776	32756	
3734	0	32804	32775	
3735	0	32878	32792	
3736	0	32872	32710	
3737	0	32830	32758	
3738	0	32804	32862	
3739	0	32774	32704	
3740	0	32858	32792	
3741	0	32812	32798	
3742	0	32848	32695	
3743	0	32788	32814	
3744	0	32792	32857	
3745	0	32808	32764	
3746	0	32756	32720	
3747	0	32806	32692	
3748	0	32792	32792	
3749	0	32820	32832	
3750	0	32852	32684	
3751	0	32884	32771	
3752	0	32786	32655	
3753	0	32840	32839	
3754	0	32776	32884	
3755	0	32774	32775	
3756	0	32848	32844	
3757	0	32832	32790	
3758	0	32828	32710	
3759	0	32768	32734	
3760	0	32756	32826	
3761	0	32708	32711	
3762	0	32828	32802	
3763	0	32834	32772	
3764	0	32740	32692	
3765	0	32820	32740	
3766	0	32774	32798	
3767	0	32828	32775	
3768	0	32912	32730	
3769	0	32848	32775	
3770	0	32844	32868	
3771	0	32760	32656	
3772	0	32828	32854	
3773	0	32798	32775	
3774	0	32756	32642	
3775	0	32850	32816	
3776	0	32808	32830	
3777	0	32786	32710	
3778	0	32864	32800	
3779	0	32828	32788	
3780	0	32816	32698	
3781	0	32788	32791	
3782	0	32780	32864	
3783	0	32812	32750	
3784	0	32724	32834	
3785	0	32772	32746	
3786	0	32848	32764	
3787	0	32752	32775	
3788	0	32826	32756	
3789	0	32820	32775	
3790	0	32804	32754	
3791	0	32844	32832	
3792	0	32832	32794	
3793	0	32804	32790	
3794	0	32842	32769	
3795	0	32876	32775	
3796	0	32770	32702	
3797	0	32836	32743	
3798	0	32814	32746	
3799	0	32804	32796	
3800	0	32800	32712	
3801	0	32814	32716	
3802	0	32816	32764	
3803	0	32840	32816	
3804	0	32832	32704	
3805	0	32781	32816	
3806	0	32804	32756	
3807	0	32836	32743	
3808	0	32688	32839	
3809	0	32874	32784	
3810	0	32836	32676	
3811	0	32840	32828	
3812	0	32812	32730	
3813	0	32838	32760	
3814	0	32820	32724	
3815	0	32832	32810	
3816	0	32800	32807	
3817	0	32872	32738	
3818	0	32808	32836	
3819	0	32732	32775	
3820	0	32805	32699	
3821	0	32748	32775	
3822	0	32736	32682	
3823	0	32724	32712	
3824	0	32792	32774	
3825	0	32788	32731	
3826	0	32808	32692	
3827	0	32858	32796	
3828	0	32868	32775	
3829	0	32842	32836	
3830	0	32822	32710	
3831	0	32852	32831	
3832	0	32832	32828	
3833	0	32768	32763	
3834	0	32826	32729	
3835	0	32788	32830	
3836	0	32801	32775	
3837	0	32784	32870	
3838	0	32856	32740	
3839	0	32786	32789	
3840	0	32744	32751	
3841	0	32842	32726	
3842	0	32808	32684	
3843	0	32772	32762	
3844	0	32820	32676	
3845	0	32796	32709	
3846	0	32846	32736	
3847	0	32824	32846	
3848	0	32836	32784	
3849	0	32840	32788	
3850	0	32870	32752	
3851	0	32834	32828	
3852	0	32846	32670	
3853	0	32789	32732	
3854	0	32780	32711	
3855	0	32860	32766	
3856	0	32770	32744	
3857	0	32760	32698	
3858	0	32796	32775	
3859	0	32824	32775	
3860	0	32764	32830	
3861	0	32828	32757	
3862	0	32824	32746	
3863	0	32800	32782	
3864	0	32798	32716	
3865	0	32802	32658	
3866	0	32832	32832	
3867	0	32870	32816	
3868	0	32826	32735	
3869	0	32852	32712	
3870	0	32796	32775	
3871	0	32796	32788	
3872	0	32844	32770	
3873	0	32814	32846	
3874	0	32734	32828	
3875	0	32768	32730	
3876	0	32830	32802	
3877	0	32884	32807	
3878	0	32834	32743	
3879	0	32932	32854	
3880	0	32856	32736	
3881	0	32804	32673	
3882	0	32784	32748	
3883	0	32732	32804	
3884	0	32784	32740	
3885	0	32778	32769	
3886	0	32792	32733	
3887	0	32780	32708	
3888	0	32812	32753	
3889	0	32768	32706	
3890	0	32740	32762	
3891	0	32872	32775	
3892	0	32798	32648	
3893	0	32818	32782	
3894	0	32816	32812	
3895	0	32794	32703	
3896	0	32888	32745	
3897	0	32880	32794	
3898	0	32912	32644	
3899	0	32852	32775	
3900	0	32780	32756	
3901	0	32796	32682	
3902	0	32860	32752	
3903	0	32816	32834	
3904	0	32788	32836	
3905	0	32812	32760	
3906	0	32808	32802	
3907	0	32884	32739	
3908	0	32872	32750	
3909	0	32924	32870	
3910	0	32774	32848	
3911	0	32736	32839	
3912	0	32703	32742	
3913	0	32746	32774	
3914	0	32772	32678	
3915	0	32778	32775	
3916	0	32780	32768	
3917	0	32832	32792	
3918	0	32788	32706	
3919	0	32824	32775	
3920	0	32806	32863	
3921	0	32712	32712	
3922	0	32768	32870	
3923	0	32720	32788	
3924	0	32764	32628	
3925	0	32828	32752	
3926	0	32858	32740	
3927	0	32892	32686	
3928	0	32844	32713	
3929	0	32844	32800	
3930	0	32844	32838	
3931	0	32798	32716	
3932	0	32808	32726	
3933	0	32892	32812	
3934	0	32832	32772	
3935	0	32852	32775	
3936	0	32828	32720	
3937	0	32840	32807	
3938	0	32752	32702	
3939	0	32772	32832	
3940	0	32760	32775	
3941	0	32834	32823	
3942	0	32840	32738	
3943	0	32820	32754	
3944	0	32852	32769	
3945	0	32848	32714	
3946	0	32772	32879	
3947	0	32788	32754	
3948	0	32652	32660	
3949	0	32680	32800	
3950	0	32812	32820	
3951	0	32920	32750	
3952	0	32922	32808	
3953	0	32980	32661	
3954	0	32880	32720	
3955	0	32756	32728	
3956	0	32750	32883	
3957	0	32756	32615	
3958	0	32804	32817	
3959	0	32832	32804	
3960	0	32860	32688	
3961	0	32902	32764	
3962	0	32750	32696	
3963	0	32704	32658	
3964	0	32720	32796	
3965	0	32704	32816	
3966	0	32820	32864	
3967	0	32908	32736	
3968	0	32940	32839	
3969	0	32842	32876	
3970	0	32738	32690	
3971	0	32668	32775	
3972	0	32812	32766	
3973	0	32894	32665	
3974	0	32778	32769	
3975	0	32784	32812	
3976	0	32856	32704	
3977	0	32742	32702	
3978	0	32792	32688	
3979	0	32780	32718	
3980	0	32804	32836	
3981	0	32888	32638	
3982	0	32788	32745	
3983	0	32740	32788	
3984	0	32668	32670	
3985	0	32740	32832	
3986	0	32792	32807	
3987	0	32872	32839	
3988	0	32884	32654	
3989	0	32840	32847	
3990	0	32896	32790	
3991	0	32948	32722	
3992	0	32838	32705	
3993	0	32862	32914	
3994	0	32784	32882	
3995	0	32900	32708	
3996	0	32880	32662	
3997	0	32832	32744	
3998	0	32828	32745	
3999	0	32720	32710	
4000	0	32670	32737	
4001	0	32556	32768	
4002	0	32552	32814	
4003	0	32758	32730	
4004	0	32820	32732	
4005	0	32792	32696	
4006	0	32948	32808	
4007	0	32968	32746	
4008	0	32864	32711	
4009	0	32776	32800	
4010	0	32904	32818	
4011	0	32788	32726	
4012	0	32820	32822	
4013	0	32736	32775	
4014	0	32792	32854	
4015	0	32740	32744	
4016	0	32740	32816	
4017	0	32750	32784	
4018	0	32852	32682	
4019	0	32794	32740	
4020	0	32852	32746	
4021	0	32920	32698	
4022	0	32782	32704	
4023	0	32856	32742	
4024	0	32832	32746	
4025	0	32876	32740	
4026	0	32786	32752	
4027	0	32768	32752	
4028	0	32756	32734	
4029	0	32828	32756	
4030	0	32834	32880	
4031	0	32800	32826	
4032	0	32774	32756	
4033	0	32708	32811	
4034	0	32728	32714	
4035	0	32860	32903	
4036	0	32836	32700	
4037	0	32868	32844	
4038	0	32916	32738	
4039	0	32884	32718	
4040	0	32884	32644	
4041	0	32854	32790	
4042	0	32800	32735	
4043	0	32880	32775	
4044	0	32810	32750	
4045	0	32856	32884	
4046	0	32862	32806	
4047	0	32856	32764	
4048	0	32844	32692	
4049	0	32832	32864	
4050	0	32818	32768	
4051	0	32832	32711	
4052	0	32688	32638	
4053	0	32676	32760	
4054	0	32597	32832	
4055	0	32642	32792	
4056	0	32734	32756	
4057	0	32792	32740	
4058	0	32752	32751	
4059	0	32784	32788	
4060	0	32772	32753	
4061	0	32720	32868	
4062	0	32854	32721	
4063	0	32932	32754	
4064	0	32926	32812	
4065	0	32900	32784	
4066	0	32905	32732	
4067	0	32954	32694	
4068	0	32838	32730	
4069	0	32924	32849	
4070	0	32950	32814	
4071	0	32908	32810	
4072	0	32830	32738	
4073	0	32756	32744	
4074	0	32688	32800	
4075	0	32812	32686	
4076	0	32860	32768	
4077	0	32764	32734	
4078	0	32560	32758	
4079	0	32570	32540	
4080	0	32590	32710	
4081	0	32612	32702	
4082	0	32910	32626	
4083	0	32952	32636	
4084	0	32952	32496	
4085	0	33024	32684	
4086	0	32854	32728	
4087	0	32980	32656	
4088	0	32924	32594	
4089	0	32988	32647	
4090	0	32920	32672	
4091	0	32938	32657	
4092	0	32820	32697	
4093	0	32882	32728	
4094	0	32864	32722	
4095	0	32830	32688	
4096	0	32846	32600	
4097	0	32834	32775	
4098	0	32780	32796	
4099	0	32812	32892	
4100	0	32879	32758	
4101	0	32822	32872	
4102	0	32740	32984	
4103	0	32768	32946	
4104	0	32744	32932	
4105	0	32746	33028	
4106	0	32748	33052	
4107	0	32712	33090	
4108	0	32642	33098	
4109	0	32620	33050	
4110	0	32584	32935	
4111	0	32686	33094	
4112	0	32658	33006	
4113	0	32630	33014	
4114	0	32680	33070	
4115	0	32692	33064	
4116	0	32777	33073	
4117	0	32784	33070	
4118	0	32716	32892	
4119	0	32634	32927	
4120	0	32776	32903	
4121	0	32848	32596	
4122	0	32810	32572	
4123	0	32776	32500	
4124	0	32730	32506	
4125	0	32758	32412	
4126	0	32881	32576	
4127	0	32824	32486	
4128	0	32904	32566	
4129	0	32944	32406	
4130	0	32932	32572	
4131	0	32876	32588	
4132	0	32852	32647	
4133	0	32876	32584	
4134	0	32908	32671	
4135	0	32964	32798	
4136	0	32918	32708	
4137	0	32940	32795	
4138	0	32972	32816	
4139	0	32922	32775	
4140	0	32854	32786	
4141	0	32742	32868	
4142	0	32710	32716	
4143	0	32592	32812	
4144	0	32628	32830	
4145	0	32696	32740	
4146	0	32842	32732	
4147	0	32848	32658	
4148	0	32876	32772	
4149	0	32906	32692	
4150	0	32872	32816	
4151	0	32948	32700	
4152	0	32912	32728	
4153	0	32802	32847	
4154	0	32798	32710	
4155	0	32756	32775	
4156	0	32696	32708	
4157	0	32712	32686	
4158	0	32762	32696	
4159	0	32776	32774	
4160	0	32948	32730	
4161	0	32904	32750	
4162	0	32900	32752	
4163	0	32842	32797	
4164	0	32794	32806	
4165	0	32762	32661	
4166	0	32732	32849	
4167	0	32808	32759	
4168	0	32900	32855	
4169	0	32984	32783	
4170	0	32900	32766	
4171	0	32896	32840	
4172	0	32834	32760	
4173	0	32808	32714	
4174	0	32706	32730	
4175	0	32808	32775	
4176	0	32848	32704	
4177	0	32940	32802	
4178	0	32932	32638	
4179	0	32924	32644	
4180	0	32874	32822	
4181	0	32876	32727	
4182	0	32760	32771	
4183	0	32690	32876	
4184	0	32648	32694	
4185	0	32738	32711	
4186	0	32768	32788	
4187	0	32828	32766	
4188	0	32886	32718	
4189	0	32896	32660	
4190	0	32864	32719	
4191	0	32920	32856	
4192	0	32974	32588	
4193	0	32828	32792	
4194	0	32832	32820	
4195	0	32700	32640	
4196	0	32834	32698	
4197	0	32788	32860	
4198	0	32828	32889	
4199	0	32830	32764	
4200	0	32816	32739	
4201	0	32812	32822	
4202	0	32860	32751	
4203	0	32852	32854	
4204	0	32832	32730	
4205	0	32828	32796	
4206	0	32816	32804	
4207	0	32810	32790	
4208	0	32792	32762	
4209	0	32714	32764	
4210	0	32816	32775	
4211	0	32848	32672	
4212	0	32664	32903	
4213	0	32712	32834	
4214	0	32704	32866	
4215	0	32832	32796	
4216	0	32776	32665	
4217	0	32736	32770	
4218	0	32828	32724	
4219	0	32872	32744	
4220	0	32800	32666	
4221	0	32740	32740	
4222	0	32666	32830	
4223	0	32756	32786	
4224	0	32766	32912	
4225	0	32860	32852	
4226	0	32906	32706	
4227	0	32906	32760	
4228	0	32962	32775	
4229	0	32976	32794	
4230	0	32942	32736	
4231	0	32988	32846	
4232	0	32860	32838	
4233	0	32772	32770	
4234	0	32790	32742	
4235	0	32780	32724	
4236	0	32792	32700	
4237	0	32722	32726	
4238	0	32852	32835	
4239	0	32832	32715	
4240	0	32756	32863	
4241	0	32640	32866	
4242	0	32560	32808	
4243	0	32612	32763	
4244	0	32742	32798	
4245	0	32760	32717	
4246	0	32792	32687	
4247	0	32764	32628	
4248	0	32744	32711	
4249	0	32840	32728	
4250	0	32874	32820	
4251	0	32936	32737	
4252	0	32924	32718	
4253	0	32940	32715	
4254	0	32880	32865	
4255	0	32868	32746	
4256	0	32868	32823	
4257	0	32900	32788	
4258	0	32776	32692	
4259	0	32916	32621	
4260	0	32906	32748	
4261	0	32964	32730	
4262	0	32990	32743	
4263	0	32916	32636	
4264	0	32722	32746	
4265	0	32592	32822	
4266	0	32728	32839	
4267	0	32900	32784	
4268	0	32988	32916	
4269	0	32804	32811	
4270	0	32673	32902	
4271	0	32680	32670	
4272	0	32596	32816	
4273	0	32446	32695	
4274	0	32332	32618	
4275	0	32452	32660	
4276	0	32572	32868	
4277	0	32698	32726	
4278	0	32784	32750	
4279	0	32901	32598	
4280	0	33008	32698	
4281	0	32956	32816	
4282	0	32908	32742	
4283	0	32960	32774	
4284	0	33016	32831	
4285	0	32904	32754	
4286	0	32972	32757	
4287	0	32964	32770	
4288	0	32972	32839	
4289	0	32852	32894	
4290	0	32772	32740	
4291	0	32800	32716	
4292	0	32900	32775	
4293	0	32844	32792	
4294	0	32868	32647	
4295	0	32896	32647	
4296	0	32714	32694	
4297	0	32760	32703	
4298	0	32960	32711	
4299	0	33036	32730	
4300	0	33108	32792	
4301	0	32972	32770	
4302	0	32956	32686	
4303	0	32662	32774	
4304	0	32800	32762	
4305	0	32712	32655	
4306	0	32588	32886	
4307	0	32668	32824	
4308	0	32528	32856	
4309	0	32430	32604	
4310	0	32378	32860	
4311	0	32696	32716	
4312	0	32876	32838	
4313	0	33000	32790	
4314	0	32900	32824	
4315	0	32808	32940	
4316	0	32872	32804	
4317	0	32848	32726	
4318	0	33092	32674	
4319	0	33100	32711	
4320	0	33092	32710	
4321	0	33044	32700	
4322	0	32868	32700	
4323	0	32656	32827	
4324	0	32460	32839	
4325	0	32608	32786	
4326	0	32742	32788	
4327	0	32596	32784	
4328	0	32600	32774	
4329	0	32874	32734	
4330	0	33002	32772	
4331	0	32928	32810	
4332	0	32852	32746	
4333	0	32609	32780	
4334	0	32728	32766	
4335	0	32594	32839	
4336	0	32878	32804	
4337	0	32828	32876	
4338	0	32770	32796	
4339	0	33212	32832	
4340	0	33112	32956	
4341	0	32810	32808	
4342	0	32714	32765	
4343	0	32634	32812	
4344	0	32860	32852	
4345	0	33102	32708	
4346	0	33200	32762	
4347	0	33028	32775	
4348	0	32886	32788	
4349	0	32688	32768	
4350	0	32712	32775	
4351	0	32816	32910	
4352	0	32790	32731	
4353	0	32396	32887	
4354	0	32392	32716	
4355	0	32444	32783	
4356	0	32672	32768	
4357	0	32548	32818	
4358	0	32434	32770	
4359	0	32588	32756	
4360	0	32508	32724	
4361	0	32948	32744	
4362	0	33136	32802	
4363	0	33168	32798	
4364	0	33120	32764	
4365	0	33192	32920	
4366	0	32808	32775	
4367	0	32908	32788	
4368	0	33184	32806	
4369	0	33000	32806	
4370	0	33044	32788	
4371	0	32921	32670	
4372	0	32876	32806	
4373	0	32980	32810	
4374	0	33436	32666	
4375	0	33272	32760	
4376	0	32928	32750	
4377	0	32440	32696	
4378	0	32160	32670	
4379	0	32228	32710	
4380	0	31620	32828	
4381	0	31520	32834	
4382	0	31932	32868	
4383	0	32192	32800	
4384	0	32724	32871	
4385	0	33132	32750	
4386	0	33422	32818	
4387	0	33276	32751	
4388	0	33394	32945	
4389	0	33360	32960	
4390	0	33152	32869	
4391	0	32962	32830	
4392	0	32976	32736	
4393	0	33024	32850	
4394	0	32812	32814	
4395	0	32690	32820	
4396	0	32512	32752	
4397	0	32406	32788	
4398	0	32504	32774	
4399	0	32668	32870	
4400	0	32984	32846	
4401	0	33380	32764	
4402	0	33688	32744	
4403	0	33328	32671	
4404	0	33084	32620	
4405	0	33030	32702	
4406	0	32736	32746	
4407	0	32664	32856	
4408	0	32544	32903	
4409	0	32474	32746	
4410	0	32632	32788	
4411	0	32512	32948	
4412	0	32524	32820	
4413	0	32504	32966	
4414	0	32956	32604	
4415	0	32638	32714	
4416	0	32648	32663	
4417	0	32880	32496	
4418	0	32700	32604	
4419	0	32228	32884	
4420	0	32212	32962	
4421	0	32474	32882	
4422	0	32588	32970	
4423	0	33188	32944	
4424	0	32950	32724	
4425	0	32960	32788	
4426	0	33226	32750	
4427	0	33372	32828	
4428	0	33156	32660	
4429	0	33088	32775	
4430	0	33178	32736	
4431	0	33066	32820	
4432	0	32608	32792	
4433	0	32808	32724	
4434	0	32936	32726	
4435	0	33064	32647	
4436	0	32894	32800	
4437	0	32986	32708	
4438	0	33048	32684	
4439	0	32464	32638	
4440	0	32042	32647	
4441	0	31980	32558	
4442	0	32756	32624	
4443	0	33196	32664	
4444	0	33252	32548	
4445	0	32946	32456	
4446	0	33120	32535	
4447	0	32900	32774	
4448	0	32446	32960	
4449	0	32724	33057	
4450	0	32916	32946	
4451	0	32852	32920	
4452	0	32400	32874	
4453	0	32512	32927	
4454	0	32496	32775	
4455	0	32804	32832	
4456	0	33130	32721	
4457	0	33520	32786	
4458	0	33644	32572	
4459	0	33752	32463	
4460	0	33312	32400	
4461	0	32932	32476	
4462	0	32660	32676	
4463	0	32432	32546	
4464	0	32124	32580	
4465	0	32032	32550	
4466	0	31688	32704	
4467	0	31214	32644	
4468	0	31880	32570	
4469	0	33096	32708	
4470	0	32866	32620	
4471	0	33308	32854	
4472	0	33944	33106	
4473	0	34984	32944	
4474	0	36210	32860	
4475	0	35204	32631	
4476	0	33652	32580	
4477	0	32488	32726	
4478	0	31872	32794	
4479	0	30956	33116	
4480	0	29758	33390	
4481	0	30420	33250	
4482	0	31194	33031	
4483	0	31378	33052	
4484	0	33530	32696	
4485	0	33528	32710	
4486	0	33058	32740	
4487	0	33457	32795	
4488	0	33744	32516	
4489	0	33398	32376	
4490	0	33628	32278	
4491	0	33512	32312	
4492	0	34166	32284	
4493	0	34476	32519	
4494	0	33444	32736	
4495	0	32696	32876	
4496	0	31102	32936	
4497	0	31992	32903	
4498	0	33433	32678	
4499	0	33920	33132	
4500	0	34108	35076	
4501	0	31460	35312	
4502	0	32348	34140	
4503	0	34620	32902	
4504	0	34384	31928	
4505	0	31422	31060	
4506	0	30064	30864	
4507	0	29090	30376	
4508	0	28652	30400	
4509	0	28846	30785	
4510	0	30496	31736	
4511	0	32980	32196	
4512	0	34428	32686	
4513	0	34344	33022	
4514	0	34074	32928	
4515	0	33314	33031	
4516	0	32986	32799	
4517	0	34124	32980	
4518	0	34252	32985	
4519	0	34944	33142	
4520	0	34950	33684	
4521	0	35048	33852	
4522	0	34732	33652	
4523	0	34204	33323	
4524	0	33496	33194	
4525	0	32612	32878	
4526	0	31910	32763	
4527	0	31662	32936	
4528	0	31556	32804	
4529	0	30632	33082	
4530	0	30218	32982	
4531	0	31260	32860	
4532	0	32890	32992	
4533	0	33568	32568	
4534	0	33074	32427	
4535	0	32554	32511	
4536	0	32968	32630	
4537	0	33649	32790	
4538	0	34212	32696	
4539	0	34278	32954	
4540	0	34532	32916	
4541	0	34232	32794	
4542	0	33960	33150	
4543	0	32992	33100	
4544	0	31494	33012	
4545	0	30694	33076	
4546	0	30448	32862	
4547	0	31408	32525	
4548	0	32224	32298	
4549	0	33380	32184	
4550	0	33608	32180	
4551	0	33572	32431	
4552	0	33798	32824	
4553	0	33322	33000	
4554	0	32660	32821	
4555	0	31956	32772	
4556	0	32204	32824	
4557	0	32526	32676	
4558	0	32372	32692	
4559	0	32336	32872	
4560	0	33152	33344	
4561	0	33670	33582	
4562	0	34408	33460	
4563	0	33830	32920	
4564	0	34040	32932	
4565	0	34000	32737	
4566	0	32012	32460	
4567	0	31884	32340	
4568	0	31392	32844	
4569	0	32016	33158	
4570	0	31932	33384	
4571	0	31472	33244	
4572	0	31308	33064	
4573	0	31806	32730	
4574	0	32790	32370	
4575	0	33537	32096	
4576	0	33926	31892	
4577	0	33508	31816	
4578	0	33258	32399	
4579	0	33108	32770	
4580	0	33252	33192	
4581	0	33490	33070	
4582	0	33168	32480	
4583	0	33456	32292	
4584	0	33024	32204	
4585	0	31304	32042	
4586	0	31164	32111	
4587	0	31948	31990	
4588	0	32604	32438	
4589	0	33144	33126	
4590	0	33454	33471	
4591	0	33134	33324	
4592	0	33136	33296	
4593	0	33340	33254	
4594	0	33358	33960	
4595	0	33212	33684	
4596	0	32950	33116	
4597	0	32940	32626	
4598	0	32724	32708	
4599	0	32356	32690	
4600	0	32356	32366	
4601	0	32210	32112	
4602	0	32820	31763	
4603	0	32996	32024	
4604	0	33018	32343	
4605	0	33196	32798	
4606	0	32964	32972	
4607	0	33204	32986	
4608	0	33706	33148	
4609	0	33664	33322	
4610	0	33192	33238	
4611	0	32564	33340	
4612	0	31756	33286	
4613	0	31052	33238	
4614	0	30956	33012	
4615	0	32572	33084	
4616	0	33220	33488	
4617	0	32924	33399	
4618	0	32928	32906	
4619	0	33254	32548	
4620	0	32840	32364	
4621	0	32916	32822	
4622	0	32876	32650	
4623	0	32929	32436	
4624	0	33252	32342	
4625	0	32900	32084	
4626	0	32632	32547	
4627	0	32930	32889	
4628	0	33060	32775	
4629	0	32732	32847	
4630	0	32596	32808	
4631	0	32692	32824	
4632	0	32834	33274	
4633	0	32886	33286	
4634	0	33200	33140	
4635	0	33292	32938	
4636	0	33458	32512	
4637	0	33220	32263	
4638	0	32526	32668	
4639	0	32420	32416	
4640	0	32236	32362	
4641	0	31668	32330	
4642	0	32014	32340	
4643	0	32696	32446	
4644	0	32878	32820	
4645	0	33360	32619	
4646	0	33072	32706	
4647	0	33364	32550	
4648	0	33704	32986	
4649	0	33620	32810	
4650	0	32540	32632	
4651	0	31740	32691	
4652	0	31960	33031	
4653	0	32826	33132	
4654	0	32928	33182	
4655	0	32716	33252	
4656	0	33120	33384	
4657	0	33158	34262	
4658	0	32964	33722	
4659	0	33136	32884	
4660	0	33130	32130	
4661	0	32584	31608	
4662	0	31988	31320	
4663	0	31914	31126	
4664	0	32714	30818	
4665	0	32948	30922	
4666	0	32986	31288	
4667	0	32964	31864	
4668	0	33040	33062	
4669	0	32724	33718	
4670	0	32544	34040	
4671	0	32768	34648	
4672	0	33116	35550	
4673	0	33008	35204	
4674	0	33000	34266	
4675	0	32922	33796	
4676	0	32788	32882	
4677	0	32960	32020	
4678	0	33016	31734	
4679	0	33372	31120	
4680	0	32972	30846	
4681	0	32680	31348	
4682	0	32316	31974	
4683	0	32280	32294	
4684	0	32608	32970	
4685	0	32912	33244	
4686	0	32974	33431	
4687	0	32770	33638	
4688	0	32712	33680	
4689	0	32676	33191	
4690	0	32760	33041	
4691	0	33032	32686	
4692	0	32976	32599	
4693	0	32567	32519	
4694	0	32496	32710	
4695	0	32616	33312	
4696	0	32896	33276	
4697	0	32860	33407	
4698	0	32916	33414	
4699	0	32928	33328	
4700	0	33128	32816	
4701	0	32800	32566	
4702	0	32424	32372	
4703	0	32622	32409	
4704	0	32616	32647	
4705	0	32437	32724	
4706	0	32644	33031	
4707	0	32748	33020	
4708	0	32840	32808	
4709	0	33228	32437	
4710	0	33176	32786	
4711	0	33148	32812	
4712	0	33202	32888	
4713	0	33032	32942	
4714	0	32796	33172	
4715	0	32754	33300	
4716	0	32653	33152	
4717	0	32644	32775	
4718	0	32792	32288	
4719	0	32914	31952	
4720	0	32868	31676	
4721	0	32560	31710	
4722	0	32592	31642	
4723	0	32608	32070	
4724	0	32608	32384	
4725	0	32740	32950	
4726	0	33024	33452	
4727	0	33200	33668	
4728	0	32848	33721	
4729	0	32668	33638	
4730	0	32900	32972	
4731	0	32868	32831	
4732	0	33032	32770	
4733	0	33064	32609	
4734	0	32644	32567	
4735	0	32884	32356	
4736	0	32424	32193	
4737	0	32398	32192	
4738	0	32680	32500	
4739	0	32784	32672	
4740	0	33164	32884	
4741	0	32778	32815	
4742	0	32612	32935	
4743	0	32798	32916	
4744	0	32844	32985	
4745	0	33012	32796	
4746	0	33382	32810	
4747	0	33258	33040	
4748	0	32746	33186	
4749	0	32778	32938	
4750	0	32494	32596	
4751	0	31988	32390	
4752	0	32408	32524	
4753	0	32272	32478	
4754	0	32522	32444	
4755	0	32736	32228	
4756	0	33256	32602	
4757	0	33300	32828	
4758	0	33440	33100	
4759	0	33652	33184	
4760	0	33248	33106	
4761	0	32732	32929	
4762	0	32640	32858	
4763	0	32460	32758	
4764	0	32364	33680	
4765	0	32724	33488	
4766	0	32812	33092	
4767	0	32844	32697	
4768	0	32772	32698	
4769	0	32288	32084	
4770	0	32456	31623	
4771	0	32862	31246	
4772	0	32986	30950	
4773	0	33060	30780	
4774	0	32850	31004	
4775	0	33136	31602	
4776	0	32988	31782	
4777	0	33104	32333	
4778	0	33084	32844	
4779	0	33138	33126	
4780	0	32804	33180	
4781	0	32676	33211	
4782	0	32716	33421	
4783	0	32696	33462	
4784	0	32644	33282	
4785	0	32908	33310	
4786	0	32740	33062	
4787	0	33008	33414	
4788	0	33284	33268	
4789	0	33456	33125	
4790	0	33000	33158	
4791	0	32536	33360	
4792	0	32356	33412	
4793	0	32818	33340	
4794	0	32932	33272	
4795	0	32524	33126	
4796	0	32284	33072	
4797	0	32344	32556	
4798	0	32642	32312	
4799	0	32716	32261	
4800	0	32994	32207	
4801	0	32752	32582	
4802	0	32712	32988	
4803	0	33132	33233	
4804	0	33156	33386	
4805	0	32852	33044	
4806	0	32878	32938	
4807	0	32980	32744	
4808	0	32900	32442	
4809	0	32868	31876	
4810	0	32688	31726	
4811	0	32548	32344	
4812	0	32692	32700	
4813	0	32812	32692	
4814	0	32854	32658	
4815	0	32920	33162	
4816	0	33032	33296	
4817	0	33200	33140	
4818	0	33194	33196	
4819	0	32978	33056	
4820	0	32752	33815	
4821	0	32256	34684	
4822	0	32218	34092	
4823	0	32204	33382	
4824	0	32312	32180	
4825	0	32856	31414	
4826	0	33124	30960	
4827	0	33084	30668	
4828	0	32948	30364	
4829	0	33042	30702	
4830	0	32864	31086	
4831	0	32880	32274	
4832	0	32834	33300	
4833	0	32638	33732	
4834	0	32642	33818	
4835	0	32720	33734	
4836	0	32904	33472	
4837	0	33004	33360	
4838	0	32744	33264	
4839	0	32548	33090	
4840	0	32656	33620	
4841	0	32758	33570	
4842	0	32804	33372	
4843	0	32896	33234	
4844	0	32852	33031	
4845	0	33000	33022	
4846	0	33018	33159	
4847	0	32556	32422	
4848	0	33188	32340	
4849	0	32998	32442	
4850	0	32520	32340	
4851	0	32486	32487	
4852	0	32722	32876	
4853	0	32824	33154	
4854	0	32900	33218	
4855	0	33184	33094	
4856	0	32838	33057	
4857	0	32806	32784	
4858	0	32646	32743	
4859	0	32848	32920	
4860	0	33050	32645	
4861	0	32878	32654	
4862	0	32616	32616	
4863	0	32740	32439	
4864	0	32676	32534	
4865	0	32716	32679	
4866	0	32610	32474	
4867	0	32840	32474	
4868	0	33076	32510	
4869	0	32972	32628	
4870	0	32790	32662	
4871	0	32612	32775	
4872	0	32740	32791	
4873	0	32856	32940	
4874	0	32906	32538	
4875	0	32868	32404	
4876	0	32982	32678	
4877	0	33054	32786	
4878	0	33092	32908	
4879	0	33034	32952	
4880	0	32480	33324	
4881	0	32796	33132	
4882	0	32602	33072	
4883	0	32404	32736	
4884	0	32568	32628	
4885	0	32632	32490	
4886	0	32524	32566	
4887	0	32726	32372	
4888	0	33192	32640	
4889	0	33240	32832	
4890	0	33098	32922	
4891	0	32804	32914	
4892	0	32608	32744	
4893	0	32766	32536	
4894	0	32872	32486	
4895	0	32896	32357	
4896	0	32732	32696	
4897	0	32428	32693	
4898	0	32536	32874	
4899	0	32776	33018	
4900	0	32920	33088	
4901	0	33004	33307	
4902	0	32956	33351	
4903	0	32910	33068	
4904	0	32804	32718	
4905	0	32552	32727	
4906	0	32810	33744	
4907	0	32963	33554	
4908	0	32924	32812	
4909	0	32980	32226	
4910	0	32876	31570	
4911	0	32628	31494	
4912	0	32672	31551	
4913	0	32552	31640	
4914	0	32692	31876	
4915	0	32600	32092	
4916	0	32682	32540	
4917	0	32925	33189	
4918	0	33552	33448	
4919	0	33304	33992	
4920	0	32848	33762	
4921	0	32544	33886	
4922	0	32338	33671	
4923	0	32362	33056	
4924	0	32934	32992	
4925	0	33100	33044	
4926	0	33274	32764	
4927	0	33320	32300	
4928	0	33038	32346	
4929	0	32656	32278	
4930	0	32400	32647	
4931	0	32346	33063	
4932	0	32506	32568	
4933	0	32688	32594	
4934	0	32484	32487	
4935	0	32652	32500	
4936	0	33105	32573	
4937	0	33100	32660	
4938	0	33122	32654	
4939	0	33062	32455	
4940	0	32470	32284	
4941	0	32930	33166	
4942	0	32994	34182	
4943	0	33160	34430	
4944	0	32828	33780	
4945	0	32624	33178	
4946	0	33078	32380	
4947	0	33144	32086	
4948	0	32576	31751	
4949	0	32568	31574	
4950	0	32440	31748	
4951	0	31488	31584	
4952	0	32362	31446	
4953	0	33212	32000	
4954	0	33208	32768	
4955	0	33344	33273	
4956	0	33112	33356	
4957	0	32704	33191	
4958	0	32700	33377	
4959	0	32764	33188	
4960	0	32864	33191	
4961	0	32968	32922	
4962	0	32728	32934	
4963	0	32784	33028	
4964	0	32706	33036	
4965	0	32732	32990	
4966	0	32868	32982	
4967	0	33058	32940	
4968	0	33148	32774	
4969	0	32736	32704	
4970	0	32856	32875	
4971	0	32672	32822	
4972	0	32320	32644	
4973	0	32316	32564	
4974	0	32324	32368	
4975	0	33032	32324	
4976	0	32482	32639	
4977	0	32664	32716	
4978	0	32540	33040	
4979	0	32856	33332	
4980	0	33684	33620	
4981	0	32924	33383	
4982	0	33172	33488	
4983	0	33512	33522	
4984	0	33296	33440	
4985	0	32226	33242	
4986	0	32012	33342	
4987	0	32396	32726	
4988	0	32821	32276	
4989	0	32260	31430	
4990	0	31430	31022	
4991	0	32212	30831	
4992	0	32678	30964	
4993	0	33092	30918	
4994	0	33391	31490	
4995	0	33242	32582	
4996	0	33104	33362	
4997	0	32778	34272	
4998	0	32816	34854	
4999	0	32988	34900	
5000	0	33054	34650	
5001	0	32604	33730	
5002	0	32388	33090	
5003	0	32736	32391	
5004	0	32972	31948	
5005	0	33292	31634	
5006	0	33240	31024	
5007	0	33292	31174	
5008	0	32284	31670	
5009	0	31908	32030	
5010	0	32484	32838	
5011	0	32906	33415	
5012	0	32980	33534	
5013	0	32784	33812	
5014	0	32648	33786	
5015	0	32834	33252	
5016	0	33124	32684	
5017	0	33024	32260	
5018	0	33220	31889	
5019	0	33764	31830	
5020	0	33160	32151	
5021	0	32764	32364	
5022	0	32312	32775	
5023	0	31876	33256	
5024	0	32276	33578	
5025	0	32764	33518	
5026	0	32736	33340	
5027	0	32556	32900	
5028	0	32618	32775	
5029	0	32912	32449	
5030	0	32948	32263	
5031	0	33096	32093	
5032	0	33048	32488	
5033	0	32736	32759	
5034	0	32937	32738	
5035	0	33028	32740	
5036	0	32956	32743	
5037	0	32952	33367	
5038	0	32592	33794	
5039	0	32628	33774	
5040	0	31988	33863	
5041	0	32290	34166	
5042	0	32500	34496	
5043	0	32500	34136	
5044	0	32880	33500	
5045	0	32532	32494	
5046	0	33034	31672	
5047	0	33204	31274	
5048	0	33080	31230	
5049	0	32802	30983	
5050	0	32432	31097	
5051	0	32576	31678	
5052	0	33086	32216	
5053	0	33310	32584	
5054	0	33224	32814	
5055	0	33012	33206	
5056	0	32880	33324	
5057	0	32976	32708	
5058	0	33088	32481	
5059	0	32898	32390	
5060	0	32391	32319	
5061	0	32292	32544	
5062	0	32416	32834	
5063	0	32660	32766	
5064	0	32764	32741	
5065	0	32752	33116	
5066	0	32980	33776	
5067	0	33172	34420	
5068	0	33968	34190	
5069	0	33900	33700	
5070	0	33388	34542	
5071	0	33156	34656	
5072	0	32764	33510	
5073	0	32049	32771	
5074	0	32356	31705	
5075	0	32970	31422	
5076	0	32748	30786	
5077	0	31678	30340	
5078	0	31765	30273	
5079	0	32224	30880	
5080	0	31972	32068	
5081	0	32292	32758	
5082	0	33184	33175	
5083	0	33620	33224	
5084	0	33596	32952	
5085	0	33538	33220	
5086	0	33208	33540	
5087	0	32868	34192	
5088	0	32484	34018	
5089	0	32776	33690	
5090	0	32888	33265	
5091	0	33274	32984	
5092	0	33412	33060	
5093	0	33700	32734	
5094	0	32332	32698	
5095	0	31612	32750	
5096	0	32676	32862	
5097	0	33092	33220	
5098	0	33032	32958	
5099	0	33304	33166	
5100	0	33334	32896	
5101	0	33120	33012	
5102	0	32954	32560	
5103	0	32792	32572	
5104	0	32588	32812	
5105	0	32521	32774	
5106	0	32714	32774	
5107	0	32790	32750	
5108	0	32852	32692	
5109	0	32968	32600	
5110	0	32766	32529	
5111	0	32540	32656	
5112	0	32848	32540	
5113	0	33150	32492	
5114	0	33278	32647	
5115	0	33036	32716	
5116	0	32952	32664	
5117	0	32732	32855	
5118	0	32576	32804	
5119	0	32228	32642	
5120	0	32344	32694	
5121	0	32846	33118	
5122	0	32968	32959	
5123	0	32900	32916	
5124	0	32802	32730	
5125	0	32632	32739	
5126	0	32466	32572	
5127	0	32712	32326	
5128	0	32876	32327	
5129	0	32700	32276	
5130	0	32596	32222	
5131	0	32908	32440	
5132	0	33456	32826	
5133	0	33940	33134	
5134	0	34160	33522	
5135	0	33008	33564	
5136	0	32426	33254	
5137	0	32484	32764	
5138	0	31860	32699	
5139	0	32212	32796	
5140	0	32832	32590	
5141	0	33134	32383	
5142	0	33492	32103	
5143	0	33228	31992	
5144	0	33674	32361	
5145	0	33252	32430	
5146	0	32836	32924	
5147	0	32446	33000	
5148	0	32488	32743	
5149	0	32956	33140	
5150	0	32888	33492	
5151	0	32908	33202	
5152	0	32881	32704	
5153	0	32778	32492	
5154	0	32676	32567	
5155	0	32849	32610	
5156	0	33200	32884	
5157	0	32944	33100	
5158	0	32598	32881	
5159	0	32516	32846	
5160	0	32730	32666	
5161	0	32888	32508	
5162	0	32836	32710	
5163	0	32752	32439	
5164	0	32932	32486	
5165	0	32708	32608	
5166	0	32410	32876	
5167	0	33326	33300	
5168	0	33248	33372	
5169	0	32398	33214	
5170	0	32334	32956	
5171	0	32528	32650	
5172	0	32424	32542	
5173	0	32852	32644	
5174	0	33066	32647	
5175	0	32956	32721	
5176	0	32928	32890	
5177	0	32524	33320	
5178	0	32417	33296	
5179	0	32344	33383	
5180	0	33060	33052	
5181	0	33626	32376	
5182	0	33472	31633	
5183	0	33184	31714	
5184	0	33132	32004	
5185	0	33140	32300	
5186	0	32888	32519	
5187	0	32992	32672	
5188	0	33030	32960	
5189	0	32789	33064	
5190	0	31594	32984	
5191	0	31728	33070	
5192	0	31988	32836	
5193	0	33012	32839	
5194	0	32846	32665	
5195	0	32632	32772	
5196	0	32804	32512	
5197	0	33196	32556	
5198	0	33160	32556	
5199	0	32890	32632	
5200	0	32912	32672	
5201	0	32732	32650	
5202	0	32288	32730	
5203	0	32486	32774	
5204	0	32624	32744	
5205	0	32844	32784	
5206	0	33072	32976	
5207	0	33120	33121	
5208	0	32872	33133	
5209	0	32668	33104	
5210	0	32688	32998	
5211	0	32872	32935	
5212	0	32712	32775	
5213	0	32748	32844	
5214	0	32902	32720	
5215	0	32696	32714	
5216	0	32832	32550	
5217	0	33072	32624	
5218	0	32968	32680	
5219	0	33000	32740	
5220	0	33132	32766	
5221	0	33072	32842	
5222	0	32849	33022	
5223	0	32569	32804	
5224	0	32384	32756	
5225	0	32788	32716	
5226	0	32728	32280	
5227	0	32520	32361	
5228	0	32424	32516	
5229	0	32718	32647	
5230	0	33114	33074	
5231	0	33132	33306	
5232	0	32836	33084	
5233	0	32656	33198	
5234	0	32552	32997	
5235	0	32552	32556	
5236	0	33056	32484	
5237	0	33188	32648	
5238	0	33124	32940	
5239	0	33216	32972	
5240	0	33160	32992	
5241	0	32864	32704	
5242	0	32280	32359	
5243	0	32368	32292	
5244	0	32122	32116	
5245	0	32676	31964	
5246	0	32958	31882	
5247	0	33032	32376	
5248	0	33302	32830	
5249	0	32894	33226	
5250	0	32804	33543	
5251	0	32988	33506	
5252	0	33010	33178	
5253	0	33028	32850	
5254	0	32621	33313	
5255	0	32830	33952	
5256	0	32768	33766	
5257	0	32722	33303	
5258	0	32836	32612	
5259	0	32960	31908	
5260	0	32780	31582	
5261	0	32812	31348	
5262	0	32772	31718	
5263	0	32592	31822	
5264	0	32392	31998	
5265	0	32630	32514	
5266	0	32574	32934	
5267	0	32792	33150	
5268	0	32730	33116	
5269	0	32820	33248	
5270	0	32916	33359	
5271	0	32832	33212	
5272	0	32742	33116	
5273	0	32927	32999	
5274	0	33110	32896	
5275	0	33228	32903	
5276	0	33068	32872	
5277	0	32852	32860	
5278	0	32744	32884	
5279	0	32820	32859	
5280	0	32788	32718	
5281	0	32714	32870	
5282	0	32668	32868	
5283	0	32890	32958	
5284	0	32792	33047	
5285	0	32752	33031	
5286	0	32732	32901	
5287	0	32688	32812	
5288	0	32824	32660	
5289	0	32661	32836	
5290	0	32780	32764	
5291	0	32764	32616	
5292	0	32732	32654	
5293	0	32776	32538	
5294	0	32728	32558	
5295	0	32712	32750	
5296	0	32762	32718	
5297	0	32804	32647	
5298	0	32866	32707	
5299	0	32832	32798	
5300	0	32772	32834	
5301	0	32860	32895	
5302	0	32860	32940	
5303	0	32784	32951	
5304	0	32784	32828	
5305	0	32772	32752	
5306	0	32816	32704	
5307	0	32716	32638	
5308	0	32800	32812	
5309	0	32684	32806	
5310	0	32704	33103	
5311	0	32752	33084	
5312	0	32828	32936	
5313	0	32808	32580	
5314	0	32720	32452	
5315	0	32816	32436	
5316	0	32848	32486	
5317	0	32881	32382	
5318	0	32930	32418	
5319	0	32828	32702	
5320	0	32922	32808	
5321	0	32796	32758	
5322	0	32706	32846	
5323	0	32680	32820	
5324	0	32714	32816	
5325	0	32873	32679	
5326	0	32852	32790	
5327	0	32824	32740	
5328	0	32816	32618	
5329	0	32828	32775	
5330	0	32884	32807	
5331	0	32732	32764	
5332	0	32824	32744	
5333	0	32824	32730	
5334	0	32794	32704	
5335	0	32824	32775	
5336	0	32900	32839	
5337	0	32804	33022	
5338	0	32844	32950	
5339	0	32824	32971	
5340	0	32800	32834	
5341	0	32800	32676	
5342	0	32736	32782	
5343	0	32897	32700	
5344	0	33000	32644	
5345	0	32776	32772	
5346	0	32774	32712	
5347	0	32796	32710	
5348	0	32814	32876	
5349	0	32806	33006	
5350	0	32774	32711	
5351	0	32796	32838	
5352	0	32832	32964	
5353	0	32742	32932	
5354	0	32704	32936	
5355	0	32838	32852	
5356	0	32888	32814	
5357	0	32804	32694	
5358	0	32816	32764	
5359	0	32872	32730	
5360	0	32912	32853	
5361	0	32836	32838	
5362	0	32748	32554	
5363	0	32758	32680	
5364	0	32704	32782	
5365	0	32776	32607	
5366	0	32732	32756	
5367	0	32864	32775	
5368	0	32804	32628	
5369	0	32764	32700	
5370	0	32912	32836	
5371	0	32912	32880	
5372	0	32700	32817	
5373	0	32704	32788	
5374	0	32802	32774	
5375	0	32848	32775	
5376	0	32856	32854	
5377	0	32892	32786	
5378	0	32792	32737	
5379	0	32860	32871	
5380	0	32812	32800	
5381	0	32836	32870	
5382	0	32844	32848	
5383	0	32822	32844	
5384	0	32800	32804	
5385	0	32768	32903	
5386	0	32800	32707	
5387	0	32878	32672	
5388	0	32902	32752	
5389	0	32846	32785	
5390	0	32858	32668	
5391	0	32746	32836	
5392	0	32768	32964	
5393	0	32770	32732	
5394	0	32768	32786	
5395	0	32816	32743	
5396	0	32844	32726	
5397	0	32888	32368	
5398	0	32940	32202	
5399	0	32896	32360	
5400	0	32852	32652	
5401	0	32916	32894	
5402	0	32764	33248	
5403	0	32804	33010	
5404	0	32844	32924	
5405	0	32734	33068	
5406	0	32748	32796	
5407	0	32814	32662	
5408	0	32914	32718	
5409	0	32836	32756	
5410	0	32764	32692	
5411	0	32848	32586	
5412	0	32812	32562	
5413	0	32802	32874	
5414	0	32836	32674	
5415	0	32784	32612	
5416	0	32764	32746	
5417	0	32774	32628	
5418	0	32836	32755	
5419	0	32988	32812	
5420	0	32962	32817	
5421	0	32796	32828	
5422	0	32736	32814	
5423	0	32768	33076	
5424	0	32852	33078	
5425	0	32872	32718	
5426	0	32708	32564	
5427	0	32750	32594	
5428	0	32738	32558	
5429	0	32744	32736	
5430	0	32764	32888	
5431	0	32796	32984	
5432	0	32812	33146	
5433	0	32682	32882	
5434	0	32668	32738	
5435	0	32668	32828	
5436	0	32788	32774	
5437	0	32828	32783	
5438	0	32852	32804	
5439	0	32920	32556	
5440	0	32904	32536	
5441	0	32876	32615	
5442	0	32848	32506	
5443	0	32844	32564	
5444	0	32796	32574	
5445	0	32754	32775	
5446	0	32748	32878	
5447	0	32802	32734	
5448	0	32728	32872	
5449	0	32768	32871	
5450	0	32926	32792	
5451	0	32928	32814	
5452	0	32984	32798	
5453	0	32932	32865	
5454	0	32944	32656	
5455	0	32964	32774	
5456	0	32872	32849	
5457	0	32832	32860	
5458	0	32744	32870	
5459	0	32776	32898	
5460	0	32776	32693	
5461	0	32800	32590	
5462	0	32854	32360	
5463	0	32744	32543	
5464	0	32724	32620	
5465	0	32748	32614	
5466	0	32764	32710	
5467	0	32788	32871	
5468	0	32816	32956	
5469	0	32720	32949	
5470	0	32824	32856	
5471	0	32798	32784	
5472	0	32828	32452	
5473	0	32804	32279	
5474	0	32768	32152	
5475	0	32786	32263	
5476	0	32782	32644	
5477	0	32782	32894	
5478	0	32864	33012	
5479	0	32852	33073	
5480	0	32916	33010	
5481	0	32914	32840	
5482	0	32836	32892	
5483	0	32828	32862	
5484	0	32778	32888	
5485	0	32848	32926	
5486	0	32808	32771	
5487	0	32732	32753	
5488	0	32728	32608	
5489	0	32800	32652	
5490	0	32802	32560	
5491	0	32704	32976	
5492	0	32736	33028	
5493	0	32844	32999	
5494	0	32852	32995	
5495	0	32900	32938	
5496	0	32900	32844	
5497	0	32838	32807	
5498	0	32784	32768	
5499	0	32766	32650	
5500	0	32796	32698	
5501	0	32736	32551	
5502	0	32724	32614	
5503	0	32828	32643	
5504	0	32838	32595	
5505	0	32798	32632	
5506	0	32802	32720	
5507	0	32772	32722	
5508	0	32748	32823	
5509	0	32778	33043	
5510	0	32784	32872	
5511	0	32748	32735	
5512	0	32750	32714	
5513	0	32756	32614	
5514	0	32778	32628	
5515	0	32828	32612	
5516	0	32756	32550	
5517	0	32834	32760	
5518	0	32740	33031	
5519	0	32782	32910	
5520	0	32784	32768	
5521	0	32752	33072	
5522	0	32764	33236	
5523	0	32868	33430	
5524	0	32760	33176	
5525	0	32780	32870	
5526	0	32816	32580	
5527	0	32886	32572	
5528	0	32744	32430	
5529	0	32860	32391	
5530	0	32852	32088	
5531	0	32864	32174	
5532	0	32948	32468	
5533	0	32894	32746	
5534	0	32828	33026	
5535	0	32841	33014	
5536	0	32826	32957	
5537	0	32864	32900	
5538	0	32868	32834	
5539	0	32852	32742	
5540	0	32838	33132	
5541	0	32812	33112	
5542	0	32760	32838	
5543	0	32836	32884	
5544	0	32820	32748	
5545	0	32864	32908	
5546	0	32784	32548	
5547	0	32792	32479	
5548	0	32892	32660	
5549	0	32852	32722	
5550	0	32836	32583	
5551	0	32780	32628	
5552	0	32770	32694	
5553	0	32758	32674	
5554	0	32808	32724	
5555	0	32760	33096	
5556	0	32798	33068	
5557	0	32772	32982	
5558	0	32800	32730	
5559	0	32680	32708	
5560	0	32772	32750	
5561	0	32760	32747	
5562	0	32708	32730	
5563	0	32772	32708	
5564	0	32774	32924	
5565	0	32824	33060	
5566	0	32789	33058	
5567	0	32810	33071	
5568	0	32816	32949	
5569	0	32920	32730	
5570	0	32748	32348	
5571	0	32788	32284	
5572	0	32832	32230	
5573	0	32824	32288	
5574	0	32900	32592	
5575	0	32870	32666	
5576	0	32888	32726	
5577	0	32920	33094	
5578	0	32888	32938	
5579	0	32926	32740	
5580	0	32874	32978	
5581	0	32904	32948	
5582	0	32862	33243	
5583	0	32740	32988	
5584	0	32816	33076	
5585	0	32768	33156	
5586	0	32744	33318	
5587	0	32832	33103	
5588	0	32744	32888	
5589	0	32816	32679	
5590	0	32724	32180	
5591	0	32700	31964	
5592	0	32740	32000	
5593	0	32846	32348	
5594	0	32836	32916	
5595	0	32848	32839	
5596	0	32810	32952	
5597	0	32748	33018	
5598	0	32800	33150	
5599	0	32848	32974	
5600	0	32896	32974	
5601	0	32814	33111	
5602	0	32840	32919	
5603	0	32826	32820	
5604	0	32874	32644	
5605	0	32904	32838	
5606	0	32888	32791	
5607	0	32848	32870	
5608	0	32746	32332	
5609	0	32678	32088	
5610	0	32770	32110	
5611	0	32721	32418	
5612	0	32812	32770	
5613	0	32896	32962	
5614	0	32834	32887	
5615	0	32890	32952	
5616	0	32900	33058	
5617	0	32866	33094	
5618	0	32896	33020	
5619	0	32822	32682	
5620	0	32872	32678	
5621	0	32792	32790	
5622	0	32720	32775	
5623	0	32738	32808	
5624	0	32730	32834	
5625	0	32770	32628	
5626	0	32840	32592	
5627	0	32828	32900	
5628	0	32818	32871	
5629	0	32872	32642	
5630	0	32814	32754	
5631	0	32776	32660	
5632	0	32768	32768	
5633	0	32648	32716	
5634	0	32678	32572	
5635	0	32794	32835	
5636	0	32788	32822	
5637	0	32896	32654	
5638	0	32862	32620	
5639	0	33008	32624	
5640	0	32936	32551	
5641	0	32864	32604	
5642	0	32860	33044	
5643	0	32828	33668	
5644	0	32906	33704	
5645	0	32828	33626	
5646	0	32846	33280	
5647	0	32690	32804	
5648	0	32708	31910	
5649	0	32704	31482	
5650	0	32804	31220	
5651	0	32772	31876	
5652	0	32816	32488	
5653	0	32800	33102	
5654	0	32808	33232	
5655	0	32864	33356	
5656	0	32932	33158	
5657	0	32788	33070	
5658	0	32880	33220	
5659	0	32816	33194	
5660	0	32778	33022	
5661	0	32800	32844	
5662	0	32879	32796	
5663	0	32920	32796	
5664	0	32856	32692	
5665	0	32770	32396	
5666	0	32772	32379	
5667	0	32904	32600	
5668	0	32724	32696	
5669	0	32820	32606	
5670	0	32804	32642	
5671	0	32772	32828	
5672	0	32764	32450	
5673	0	32736	32554	
5674	0	32792	32775	
5675	0	32746	32756	
5676	0	32788	32791	
5677	0	32834	33140	
5678	0	32842	33580	
5679	0	32844	33380	
5680	0	32892	33121	
5681	0	32808	32871	
5682	0	32872	32282	
5683	0	32874	32164	
5684	0	32924	31776	
5685	0	32807	31859	
5686	0	32716	32092	
5687	0	32682	32606	
5688	0	32676	33016	
5689	0	32793	33098	
5690	0	32792	33194	
5691	0	32898	33412	
5692	0	32924	33588	
5693	0	32908	33409	
5694	0	32752	33048	
5695	0	32816	32998	
5696	0	32932	32772	
5697	0	32832	32806	
5698	0	32812	32639	
5699	0	32832	32386	
5700	0	32802	32132	
5701	0	32824	32032	
5702	0	32836	32414	
5703	0	32772	32676	
5704	0	32828	32958	
5705	0	32786	33162	
5706	0	32746	33504	
5707	0	32700	33412	
5708	0	32778	33031	
5709	0	32756	32468	
5710	0	32788	32024	
5711	0	32736	31804	
5712	0	32772	31877	
5713	0	32816	32343	
5714	0	32776	32196	
5715	0	32772	32300	
5716	0	32754	32775	
5717	0	32756	33272	
5718	0	32890	33282	
5719	0	32868	33271	
5720	0	32796	32884	
5721	0	32680	32761	
5722	0	32684	33180	
5723	0	32756	32916	
5724	0	32762	32972	
5725	0	32960	32964	
5726	0	33104	33070	
5727	0	32958	32953	
5728	0	32992	33223	
5729	0	32933	33210	
5730	0	32780	32958	
5731	0	32688	32892	
5732	0	32730	32828	
5733	0	32728	32512	
5734	0	32788	32496	
5735	0	32856	32622	
5736	0	32900	32750	
5737	0	32818	32730	
5738	0	32884	32704	
5739	0	32896	32836	
5740	0	32948	32775	
5741	0	32800	32820	
5742	0	32724	32846	
5743	0	32792	33024	
5744	0	32792	33000	
5745	0	32776	32952	
5746	0	32692	32852	
5747	0	32660	32980	
5748	0	32660	33297	
5749	0	32738	33024	
5750	0	32848	32868	
5751	0	32804	32238	
5752	0	32900	31584	
5753	0	32908	31036	
5754	0	32844	31266	
5755	0	32744	31894	
5756	0	32760	32630	
5757	0	32772	33278	
5758	0	32836	33287	
5759	0	32804	33534	
5760	0	32844	33860	
5761	0	32892	33540	
5762	0	32800	33274	
5763	0	32820	33044	
5764	0	32740	33014	
5765	0	32818	32750	
5766	0	32804	32748	
5767	0	32746	32528	
5768	0	32668	32680	
5769	0	32778	32644	
5770	0	32778	32871	
5771	0	32808	32996	
5772	0	32828	33031	
5773	0	32868	32942	
5774	0	32798	32775	
5775	0	32764	32618	
5776	0	32832	32503	
5777	0	32876	32643	
5778	0	32867	32538	
5779	0	32876	32337	
5780	0	32903	32568	
5781	0	32840	32528	
5782	0	32812	32707	
5783	0	32840	32892	
5784	0	32816	32839	
5785	0	32768	32864	
5786	0	32752	32888	
5787	0	32805	33334	
5788	0	32884	33484	
5789	0	32752	33223	
5790	0	32740	32692	
5791	0	32720	32471	
5792	0	32714	32166	
5793	0	32848	32111	
5794	0	32810	32493	
5795	0	32748	32864	
5796	0	32832	33208	
5797	0	32756	33367	
5798	0	32868	33684	
5799	0	32854	33568	
5800	0	32810	33238	
5801	0	32788	33018	
5802	0	32792	32312	
5803	0	32718	32066	
5804	0	32788	31416	
5805	0	32852	30956	
5806	0	32888	31561	
5807	0	32988	32263	
5808	0	33000	32552	
5809	0	32896	32754	
5810	0	32844	33060	
5811	0	32764	33159	
5812	0	32760	33342	
5813	0	32680	33302	
5814	0	32724	33319	
5815	0	32760	33238	
5816	0	32800	33016	
5817	0	32916	32908	
5818	0	32970	32852	
5819	0	32948	32806	
5820	0	32804	32688	
5821	0	32832	32775	
5822	0	32832	32615	
5823	0	32888	32772	
5824	0	32772	32908	
5825	0	32774	33004	
5826	0	32764	32761	
5827	0	32804	32810	
5828	0	32846	32708	
5829	0	32824	32678	
5830	0	32828	32670	
5831	0	32804	32548	
5832	0	32877	32716	
5833	0	32806	32644	
5834	0	32804	32660	
5835	0	32828	32583	
5836	0	32724	32496	
5837	0	32716	32612	
5838	0	32692	32694	
5839	0	32656	32631	
5840	0	32756	32743	
5841	0	32753	32818	
5842	0	32832	32784	
5843	0	32858	32835	
5844	0	32826	32752	
5845	0	32807	33056	
5846	0	32888	33096	
5847	0	32854	32994	
5848	0	32936	32864	
5849	0	32910	32652	
5850	0	32890	32652	
5851	0	32763	32772	
5852	0	32772	32794	
5853	0	32816	32790	
5854	0	32780	32436	
5855	0	32844	32519	
5856	0	32840	32216	
5857	0	32800	31934	
5858	0	32804	31744	
5859	0	32816	32126	
5860	0	32868	32662	
5861	0	32848	33236	
5862	0	32904	33146	
5863	0	32820	33158	
5864	0	32750	33150	
5865	0	32694	32839	
5866	0	32758	33012	
5867	0	32764	32902	
5868	0	32778	33022	
5869	0	32810	33124	
5870	0	32848	33104	
5871	0	32910	32884	
5872	0	32860	32615	
5873	0	32792	32674	
5874	0	32782	32626	
5875	0	32794	32486	
5876	0	32760	32428	
5877	0	32756	32800	
5878	0	32632	32775	
5879	0	32732	32816	
5880	0	32628	32740	
5881	0	32724	32551	
5882	0	32724	32676	
5883	0	32906	32614	
5884	0	32928	32508	
5885	0	32936	32642	
5886	0	32964	32852	
5887	0	32984	32818	
5888	0	32952	32495	
5889	0	32954	32772	
5890	0	32948	32888	
5891	0	32920	32914	
5892	0	32940	32532	
5893	0	32910	32504	
5894	0	32868	32740	
5895	0	32756	32816	
5896	0	32698	32925	
5897	0	32823	33382	
5898	0	32700	33314	
5899	0	32718	33151	
5900	0	32748	32928	
5901	0	32732	32836	
5902	0	32764	32876	
5903	0	32864	32992	
5904	0	32816	33172	
5905	0	32734	33124	
5906	0	32692	33220	
5907	0	32796	33132	
5908	0	32716	32986	
5909	0	32776	32470	
5910	0	32852	31969	
5911	0	32828	31300	
5912	0	32828	31428	
5913	0	32800	31446	
5914	0	32894	31687	
5915	0	32836	32343	
5916	0	32980	32796	
5917	0	32970	33254	
5918	0	32904	33594	
5919	0	32800	33346	
5920	0	32664	33202	
5921	0	32664	32864	
5922	0	32704	32945	
5923	0	32762	32594	
5924	0	32784	32575	
5925	0	32878	32484	
5926	0	32880	32644	
5927	0	32996	32846	
5928	0	32984	33096	
5929	0	32916	32967	
5930	0	32752	32534	
5931	0	32760	32532	
5932	0	32808	32584	
5933	0	32916	32902	
5934	0	33032	33004	
5935	0	33088	32726	
5936	0	33218	33026	
5937	0	33176	32708	
5938	0	33070	32454	
5939	0	32748	32468	
5940	0	32668	32742	
5941	0	32524	32632	
5942	0	32486	32716	
5943	0	32450	32967	
5944	0	32408	33063	
5945	0	32436	32956	
5946	0	32632	32796	
5947	0	32674	32988	
5948	0	32798	33206	
5949	0	32760	33138	
5950	0	32714	33172	
5951	0	32860	33118	
5952	0	32728	33009	
5953	0	32692	33039	
5954	0	32716	33024	
5955	0	32744	33140	
5956	0	32736	32974	
5957	0	32700	33148	
5958	0	32732	33103	
5959	0	32728	32836	
5960	0	32728	32512	
5961	0	32714	32526	
5962	0	32724	32358	
5963	0	32881	32276	
5964	0	32884	32354	
5965	0	32864	32292	
5966	0	32840	32482	
5967	0	32824	32694	
5968	0	32852	32694	
5969	0	32808	32775	
5970	0	32872	32700	
5971	0	32811	32682	
5972	0	32874	32662	
5973	0	32732	32668	
5974	0	32828	32484	
5975	0	32896	32699	
5976	0	32936	32853	
5977	0	32960	33085	
5978	0	32912	33049	
5979	0	32908	33300	
5980	0	32794	33320	
5981	0	32810	33082	
5982	0	32772	32686	
5983	0	32856	32844	
5984	0	32868	32494	
5985	0	32824	32654	
5986	0	32840	32408	
5987	0	32736	32208	
5988	0	32768	32145	
5989	0	32796	32124	
5990	0	32796	32330	
5991	0	32824	32440	
5992	0	32708	32663	
5993	0	32732	33151	
5994	0	32760	33114	
5995	0	32752	33018	
5996	0	32724	33086	
5997	0	32752	33112	
5998	0	32860	32934	
5999	0	32904	32934	
6000	0	32844	32956	
6001	0	32938	32706	
6002	0	33000	32478	
6003	0	33042	32280	
6004	0	32868	32378	
6005	0	32752	32438	
6006	0	32816	32170	
6007	0	32628	32278	
6008	0	32720	32620	
6009	0	32600	32945	
6010	0	32672	33364	
6011	0	32840	33388	
6012	0	32860	33350	
