# OpenSignals Text File Format. Version 1
# {"00:07:80:8C:0A:39": {"position": 0, "device": "biosignalsplux", "device name": "00:07:80:8C:0A:39", "device connection": "BTH00:07:80:8C:0A:39", "sampling rate": 1000, "resolution": [16, 16], "firmware version": 776, "comments": "", "keywords": "", "mode": 0, "sync interval": 2, "date": "2023-3-17", "time": "15:16:32.280", "channels": [1, 2], "sensor": ["EMG", "EMG"], "label": ["CH1", "CH2"], "column": ["nSeq", "DI", "CH1", "CH2"], "special": [{"SpO2": [80, 40, 5, 4, 3, 3]}, {"SpO2": [80, 40, 5, 4, 3, 3]}, {"SpO2": [80, 40, 5, 4, 3, 3]}, {"SpO2": [80, 40, 5, 4, 3, 3]}, {"SpO2": [80, 40, 5, 4, 3, 3]}, {"SpO2": [80, 40, 5, 4, 3, 3]}, {"SpO2": [80, 40, 5, 4, 3, 3]}, {"SpO2": [80, 40, 5, 4, 3, 3]}], "digital IO": [0, 1], "sleeve color": ["gray", "yellow"], "convertedValues": 0}}
# EndOfHeader
0	0	32792	32738	
1	0	32800	32704	
2	0	32820	32740	
3	0	32870	32804	
4	0	32818	32796	
5	0	32784	32842	
6	0	32764	32838	
7	0	32828	32664	
8	0	32834	32772	
9	0	32832	32807	
10	0	32774	32784	
11	0	32800	32706	
12	0	32788	32822	
13	0	32796	32808	
14	0	32806	32756	
15	0	32790	32756	
16	0	32804	32670	
17	0	32816	32836	
18	0	32800	32880	
19	0	32750	32793	
20	0	32828	32857	
21	0	32818	32734	
22	0	32864	32820	
23	0	32734	32668	
24	0	32808	32808	
25	0	32794	32834	
26	0	32858	32751	
27	0	32842	32800	
28	0	32836	32710	
29	0	32828	32774	
30	0	32772	32692	
31	0	32816	32814	
32	0	32884	32882	
33	0	32746	32712	
34	0	32864	32770	
35	0	32766	32708	
36	0	32792	32733	
37	0	32852	32856	
38	0	32812	32730	
39	0	32844	32724	
40	0	32828	32888	
41	0	32780	32799	
42	0	32844	32818	
43	0	32825	32707	
44	0	32788	32784	
45	0	32832	32868	
46	0	32772	32732	
47	0	32814	32759	
48	0	32780	32758	
49	0	32752	32796	
50	0	32862	32768	
51	0	32828	32710	
52	0	32784	32774	
53	0	32788	32719	
54	0	32788	32796	
55	0	32856	32834	
56	0	32812	32726	
57	0	32844	32775	
58	0	32792	32700	
59	0	32788	32816	
60	0	32776	32788	
61	0	32856	32684	
62	0	32808	32792	
63	0	32836	32724	
64	0	32866	32807	
65	0	32752	32756	
66	0	32878	32750	
67	0	32788	32796	
68	0	32794	32775	
69	0	32826	32794	
70	0	32830	32796	
71	0	32858	32710	
72	0	32788	32768	
73	0	32798	32804	
74	0	32800	32750	
75	0	32798	32798	
76	0	32856	32822	
77	0	32812	32772	
78	0	32820	32775	
79	0	32874	32684	
80	0	32740	32775	
81	0	32788	32832	
82	0	32872	32754	
83	0	32810	32740	
84	0	32836	32708	
85	0	32762	32806	
86	0	32828	32774	
87	0	32848	32740	
88	0	32752	32724	
89	0	32828	32838	
90	0	32772	32732	
91	0	32756	32870	
92	0	32808	32748	
93	0	32872	32815	
94	0	32798	32762	
95	0	32860	32839	
96	0	32756	32794	
97	0	32760	32748	
98	0	32824	32790	
99	0	32812	32644	
100	0	32836	32720	
101	0	32852	32632	
102	0	32826	32774	
103	0	32814	32844	
104	0	32840	32790	
105	0	32860	32852	
106	0	32836	32768	
107	0	32840	32830	
108	0	32884	32710	
109	0	32804	32834	
110	0	32838	32700	
111	0	32794	32799	
112	0	32872	32775	
113	0	32774	32680	
114	0	32808	32735	
115	0	32840	32782	
116	0	32796	32770	
117	0	32736	32742	
118	0	32828	32723	
119	0	32872	32775	
120	0	32850	32767	
121	0	32762	32686	
122	0	32752	32822	
123	0	32842	32806	
124	0	32780	32684	
125	0	32864	32814	
126	0	32776	32822	
127	0	32810	32711	
128	0	32804	32734	
129	0	32792	32823	
130	0	32836	32712	
131	0	32798	32786	
132	0	32764	32775	
133	0	32810	32716	
134	0	32812	32794	
135	0	32856	32788	
136	0	32798	32684	
137	0	32732	32764	
138	0	32798	32760	
139	0	32776	32720	
140	0	32852	32804	
141	0	32800	32836	
142	0	32784	32730	
143	0	32748	32772	
144	0	32878	32834	
145	0	32796	32724	
146	0	32780	32742	
147	0	32888	32748	
148	0	32810	32820	
149	0	32812	32768	
150	0	32808	32731	
151	0	32844	32762	
152	0	32794	32696	
153	0	32836	32864	
154	0	32804	32890	
155	0	32800	32812	
156	0	32816	32775	
157	0	32824	32644	
158	0	32818	32788	
159	0	32792	32732	
160	0	32770	32792	
161	0	32832	32808	
162	0	32740	32664	
163	0	32816	32816	
164	0	32820	32775	
165	0	32796	32668	
166	0	32836	32725	
167	0	32832	32775	
168	0	32816	32848	
169	0	32808	32812	
170	0	32792	32730	
171	0	32780	32762	
172	0	32800	32716	
173	0	32820	32775	
174	0	32845	32770	
175	0	32820	32684	
176	0	32824	32822	
177	0	32798	32710	
178	0	32878	32884	
179	0	32844	32800	
180	0	32789	32696	
181	0	32866	32806	
182	0	32820	32820	
183	0	32794	32858	
184	0	32800	32810	
185	0	32842	32712	
186	0	32848	32769	
187	0	32800	32710	
188	0	32820	32750	
189	0	32840	32775	
190	0	32836	32807	
191	0	32846	32824	
192	0	32872	32784	
193	0	32804	32732	
194	0	32770	32724	
195	0	32804	32742	
196	0	32820	32769	
197	0	32808	32764	
198	0	32878	32679	
199	0	32792	32782	
200	0	32817	32867	
201	0	32848	32792	
202	0	32860	32838	
203	0	32804	32704	
204	0	32756	32745	
205	0	32780	32686	
206	0	32828	32822	
207	0	32822	32891	
208	0	32774	32770	
209	0	32842	32772	
210	0	32860	32720	
211	0	32838	32862	
212	0	32848	32775	
213	0	32786	32738	
214	0	32804	32730	
215	0	32834	32724	
216	0	32788	32820	
217	0	32850	32866	
218	0	32764	32704	
219	0	32812	32792	
220	0	32798	32832	
221	0	32808	32686	
222	0	32800	32812	
223	0	32826	32790	
224	0	32818	32798	
225	0	32820	32804	
226	0	32814	32732	
227	0	32768	32775	
228	0	32888	32794	
229	0	32820	32759	
230	0	32820	32810	
231	0	32802	32734	
232	0	32846	32736	
233	0	32860	32816	
234	0	32750	32796	
235	0	32792	32708	
236	0	32828	32705	
237	0	32748	32742	
238	0	32820	32794	
239	0	32792	32724	
240	0	32764	32766	
241	0	32804	32716	
242	0	32836	32860	
243	0	32840	32662	
244	0	32812	32844	
245	0	32828	32708	
246	0	32834	32748	
247	0	32826	32710	
248	0	32782	32743	
249	0	32852	32694	
250	0	32848	32880	
251	0	32836	32812	
252	0	32808	32836	
253	0	32924	32812	
254	0	32824	32796	
255	0	32812	32740	
256	0	32792	32692	
257	0	32812	32750	
258	0	32744	32644	
259	0	32828	32826	
260	0	32774	32710	
261	0	32840	32860	
262	0	32864	32796	
263	0	32802	32814	
264	0	32784	32726	
265	0	32720	32775	
266	0	32732	32854	
267	0	32864	32774	
268	0	32804	32842	
269	0	32816	32798	
270	0	32780	32766	
271	0	32754	32822	
272	0	32792	32888	
273	0	32844	32860	
274	0	32854	32761	
275	0	32764	32718	
276	0	32790	32754	
277	0	32816	32632	
278	0	32886	32772	
279	0	32820	32844	
280	0	32828	32796	
281	0	32794	32746	
282	0	32806	32704	
283	0	32822	32794	
284	0	32842	32839	
285	0	32872	32679	
286	0	32874	32764	
287	0	32858	32712	
288	0	32774	32786	
289	0	32760	32748	
290	0	32708	32815	
291	0	32868	32740	
292	0	32820	32702	
293	0	32784	32738	
294	0	32828	32828	
295	0	32890	32686	
296	0	32792	32800	
297	0	32748	32876	
298	0	32766	32748	
299	0	32800	32826	
300	0	32846	32774	
301	0	32848	32708	
302	0	32840	32888	
303	0	32826	32796	
304	0	32844	32743	
305	0	32808	32816	
306	0	32840	32800	
307	0	32804	32666	
308	0	32775	32799	
309	0	32744	32732	
310	0	32774	32656	
311	0	32870	32866	
312	0	32850	32832	
313	0	32808	32775	
314	0	32806	32823	
315	0	32860	32718	
316	0	32820	32790	
317	0	32760	32838	
318	0	32832	32812	
319	0	32826	32800	
320	0	32808	32726	
321	0	32812	32758	
322	0	32866	32690	
323	0	32826	32720	
324	0	32792	32704	
325	0	32858	32862	
326	0	32780	32750	
327	0	32840	32726	
328	0	32800	32801	
329	0	32778	32698	
330	0	32814	32746	
331	0	32768	32807	
332	0	32844	32754	
333	0	32764	32730	
334	0	32844	32758	
335	0	32853	32756	
336	0	32784	32792	
337	0	32775	32702	
338	0	32748	32814	
339	0	32864	32692	
340	0	32826	32826	
341	0	32808	32844	
342	0	32816	32766	
343	0	32840	32760	
344	0	32814	32768	
345	0	32824	32759	
346	0	32838	32724	
347	0	32834	32788	
348	0	32846	32756	
349	0	32830	32839	
350	0	32820	32718	
351	0	32814	32823	
352	0	32876	32686	
353	0	32796	32823	
354	0	32824	32655	
355	0	32818	32808	
356	0	32762	32794	
357	0	32792	32839	
358	0	32798	32863	
359	0	32838	32822	
360	0	32788	32856	
361	0	32804	32775	
362	0	32854	32726	
363	0	32836	32758	
364	0	32801	32828	
365	0	32808	32862	
366	0	32806	32764	
367	0	32824	32769	
368	0	32820	32748	
369	0	32876	32794	
370	0	32800	32752	
371	0	32762	32742	
372	0	32746	32775	
373	0	32840	32738	
374	0	32792	32768	
375	0	32796	32688	
376	0	32809	32798	
377	0	32820	32800	
378	0	32832	32775	
379	0	32852	32772	
380	0	32844	32762	
381	0	32760	32806	
382	0	32818	32839	
383	0	32884	32783	
384	0	32824	32818	
385	0	32928	32788	
386	0	32850	32878	
387	0	32940	32786	
388	0	32842	32934	
389	0	32826	32892	
390	0	32872	32734	
391	0	32866	32756	
392	0	32714	32714	
393	0	32710	32711	
394	0	32676	32680	
395	0	32670	32607	
396	0	32704	32658	
397	0	32676	32440	
398	0	32736	32468	
399	0	32636	32394	
400	0	32588	32500	
401	0	32688	32551	
402	0	32752	32690	
403	0	32752	32775	
404	0	32822	32786	
405	0	32808	32801	
406	0	32864	32836	
407	0	32852	32918	
408	0	32852	32858	
409	0	32812	32772	
410	0	32846	32920	
411	0	32848	32832	
412	0	32888	32910	
413	0	32944	32980	
414	0	32888	32894	
415	0	32864	32900	
416	0	32890	32842	
417	0	32832	32879	
418	0	32846	32800	
419	0	32896	32797	
420	0	32834	32710	
421	0	32898	32775	
422	0	32860	32812	
423	0	32900	32800	
424	0	32838	32832	
425	0	32852	32788	
426	0	32780	32866	
427	0	32816	32647	
428	0	32752	32796	
429	0	32808	32647	
430	0	32784	32775	
431	0	32804	32760	
432	0	32814	32870	
433	0	32788	32756	
434	0	32736	32712	
435	0	32798	32829	
436	0	32854	32804	
437	0	32796	32794	
438	0	32792	32868	
439	0	32776	32748	
440	0	32800	32802	
441	0	32774	32720	
442	0	32872	32770	
443	0	32830	32852	
444	0	32836	32816	
445	0	32790	32764	
446	0	32762	32718	
447	0	32800	32738	
448	0	32768	32736	
449	0	32800	32836	
450	0	32830	32839	
451	0	32868	32821	
452	0	32798	32820	
453	0	32808	32896	
454	0	32854	32657	
455	0	32816	32700	
456	0	32792	32818	
457	0	32796	32722	
458	0	32801	32734	
459	0	32804	32784	
460	0	32834	32807	
461	0	32852	32775	
462	0	32816	32775	
463	0	32768	32808	
464	0	32776	32664	
465	0	32818	32760	
466	0	32798	32775	
467	0	32818	32728	
468	0	32822	32790	
469	0	32812	32692	
470	0	32804	32807	
471	0	32812	32740	
472	0	32856	32615	
473	0	32828	32808	
474	0	32832	32660	
475	0	32776	32894	
476	0	32882	32800	
477	0	32802	32796	
478	0	32912	32775	
479	0	32784	32806	
480	0	32842	32836	
481	0	32868	32758	
482	0	32792	32722	
483	0	32794	32808	
484	0	32800	32753	
485	0	32796	32652	
486	0	32808	32794	
487	0	32808	32764	
488	0	32806	32700	
489	0	32790	32818	
490	0	32784	32794	
491	0	32824	32844	
492	0	32774	32774	
493	0	32872	32726	
494	0	32830	32746	
495	0	32820	32708	
496	0	32868	32640	
497	0	32888	32788	
498	0	32774	32782	
499	0	32784	32692	
500	0	32852	32764	
501	0	32775	32775	
502	0	32808	32666	
503	0	32846	32824	
504	0	32868	32880	
505	0	32816	32696	
506	0	32784	32748	
507	0	32824	32848	
508	0	32772	32670	
509	0	32804	32775	
510	0	32828	32775	
511	0	32818	32732	
512	0	32760	32782	
513	0	32896	32775	
514	0	32796	32662	
515	0	32788	32801	
516	0	32844	32710	
517	0	32820	32736	
518	0	32808	32718	
519	0	32836	32762	
520	0	32772	32796	
521	0	32782	32626	
522	0	32865	32892	
523	0	32768	32794	
524	0	32810	32728	
525	0	32812	32758	
526	0	32788	32748	
527	0	32816	32792	
528	0	32804	32740	
529	0	32788	32726	
530	0	32846	32690	
531	0	32808	32806	
532	0	32780	32814	
533	0	32812	32842	
534	0	32757	32744	
535	0	32810	32834	
536	0	32780	32766	
537	0	32768	32820	
538	0	32852	32774	
539	0	32866	32690	
540	0	32772	32704	
541	0	32820	32812	
542	0	32800	32816	
543	0	32800	32791	
544	0	32860	32660	
545	0	32824	32786	
546	0	32770	32688	
547	0	32788	32812	
548	0	32816	32764	
549	0	32842	32818	
550	0	32768	32750	
551	0	32842	32750	
552	0	32776	32804	
553	0	32762	32774	
554	0	32768	32764	
555	0	32788	32678	
556	0	32858	32814	
557	0	32804	32774	
558	0	32840	32696	
559	0	32874	32830	
560	0	32770	32772	
561	0	32784	32748	
562	0	32728	32775	
563	0	32774	32844	
564	0	32836	32706	
565	0	32848	32744	
566	0	32802	32690	
567	0	32862	32812	
568	0	32844	32798	
569	0	32816	32807	
570	0	32836	32794	
571	0	32814	32874	
572	0	32812	32876	
573	0	32802	32652	
574	0	32805	32748	
575	0	32792	32804	
576	0	32824	32775	
577	0	32804	32676	
578	0	32812	32798	
579	0	32860	32775	
580	0	32820	32775	
581	0	32744	32826	
582	0	32788	32732	
583	0	32796	32794	
584	0	32832	32710	
585	0	32876	32790	
586	0	32852	32810	
587	0	32826	32746	
588	0	32804	32775	
589	0	32760	32726	
590	0	32802	32755	
591	0	32868	32836	
592	0	32817	32740	
593	0	32754	32765	
594	0	32720	32712	
595	0	32816	32828	
596	0	32846	32708	
597	0	32852	32698	
598	0	32784	32692	
599	0	32760	32836	
600	0	32808	32692	
601	0	32816	32712	
602	0	32796	32818	
603	0	32848	32750	
604	0	32796	32807	
605	0	32826	32670	
606	0	32800	32916	
607	0	32762	32714	
608	0	32722	32886	
609	0	32812	32689	
610	0	32804	32700	
611	0	32872	32756	
612	0	32818	32810	
613	0	32810	32808	
614	0	32858	32644	
615	0	32760	32836	
616	0	32858	32744	
617	0	32788	32754	
618	0	32822	32775	
619	0	32786	32753	
620	0	32846	32720	
621	0	32688	32790	
622	0	32802	32775	
623	0	32830	32676	
624	0	32742	32902	
625	0	32784	32775	
626	0	32808	32892	
627	0	32790	32728	
628	0	32812	32650	
629	0	32832	32812	
630	0	32846	32760	
631	0	32840	32839	
632	0	32764	32654	
633	0	32850	32716	
634	0	32820	32796	
635	0	32838	32775	
636	0	32752	32784	
637	0	32810	32808	
638	0	32748	32671	
639	0	32816	32732	
640	0	32804	32736	
641	0	32834	32767	
642	0	32830	32710	
643	0	32804	32702	
644	0	32792	32874	
645	0	32724	32716	
646	0	32814	32792	
647	0	32816	32762	
648	0	32764	32660	
649	0	32824	32796	
650	0	32892	32806	
651	0	32844	32766	
652	0	32772	32768	
653	0	32768	32666	
654	0	32832	32734	
655	0	32810	32748	
656	0	32844	32824	
657	0	32742	32750	
658	0	32892	32888	
659	0	32842	32695	
660	0	32764	32817	
661	0	32744	32738	
662	0	32798	32784	
663	0	32812	32775	
664	0	32840	32858	
665	0	32880	32737	
666	0	32814	32736	
667	0	32788	32792	
668	0	32880	32804	
669	0	32832	32852	
670	0	32808	32756	
671	0	32824	32730	
672	0	32808	32850	
673	0	32878	32738	
674	0	32804	32817	
675	0	32838	32707	
676	0	32808	32893	
677	0	32788	32738	
678	0	32852	32844	
679	0	32800	32675	
680	0	32804	32716	
681	0	32824	32796	
682	0	32808	32794	
683	0	32814	32775	
684	0	32820	32829	
685	0	32744	32756	
686	0	32896	32788	
687	0	32796	32768	
688	0	32820	32775	
689	0	32818	32695	
690	0	32742	32660	
691	0	32848	32802	
692	0	32804	32838	
693	0	32788	32834	
694	0	32822	32775	
695	0	32790	32730	
696	0	32832	32895	
697	0	32784	32864	
698	0	32884	32750	
699	0	32794	32806	
700	0	32828	32794	
701	0	32804	32693	
702	0	32824	32684	
703	0	32778	32772	
704	0	32816	32756	
705	0	32824	32762	
706	0	32784	32687	
707	0	32766	32658	
708	0	32800	32676	
709	0	32800	32687	
710	0	32806	32718	
711	0	32796	32781	
712	0	32752	32682	
713	0	32788	32815	
714	0	32846	32775	
715	0	32856	32734	
716	0	32774	32775	
717	0	32850	32740	
718	0	32832	32842	
719	0	32856	32760	
720	0	32832	32812	
721	0	32746	32782	
722	0	32800	32708	
723	0	32816	32774	
724	0	32828	32710	
725	0	32830	32838	
726	0	32796	32788	
727	0	32818	32832	
728	0	32840	32806	
729	0	32804	32654	
730	0	32728	32766	
731	0	32804	32792	
732	0	32824	32828	
733	0	32868	32684	
734	0	32860	32870	
735	0	32800	32846	
736	0	32816	32775	
737	0	32800	32846	
738	0	32847	32774	
739	0	32790	32772	
740	0	32810	32756	
741	0	32800	32810	
742	0	32796	32622	
743	0	32746	32774	
744	0	32832	32730	
745	0	32829	32770	
746	0	32884	32838	
747	0	32800	32704	
748	0	32780	32692	
749	0	32784	32929	
750	0	32790	32838	
751	0	32760	32804	
752	0	32768	32704	
753	0	32796	32744	
754	0	32856	32854	
755	0	32822	32668	
756	0	32774	32736	
757	0	32814	32739	
758	0	32812	32737	
759	0	32864	32774	
760	0	32804	32866	
761	0	32800	32810	
762	0	32884	32775	
763	0	32816	32775	
764	0	32794	32710	
765	0	32824	32800	
766	0	32838	32754	
767	0	32824	32839	
768	0	32800	32842	
769	0	32828	32833	
770	0	32836	32823	
771	0	32840	32748	
772	0	32860	32736	
773	0	32748	32724	
774	0	32784	32775	
775	0	32820	32702	
776	0	32832	32827	
777	0	32866	32794	
778	0	32776	32678	
779	0	32714	32732	
780	0	32896	32702	
781	0	32806	32832	
782	0	32824	32842	
783	0	32816	32688	
784	0	32832	32782	
785	0	32788	32835	
786	0	32786	32772	
787	0	32820	32684	
788	0	32836	32740	
789	0	32832	32791	
790	0	32776	32830	
791	0	32860	32725	
792	0	32776	32802	
793	0	32782	32689	
794	0	32748	32820	
795	0	32842	32742	
796	0	32794	32746	
797	0	32852	32798	
798	0	32820	32724	
799	0	32820	32788	
800	0	32808	32678	
801	0	32800	32808	
802	0	32838	32860	
803	0	32784	32830	
804	0	32836	32768	
805	0	32864	32756	
806	0	32820	32772	
807	0	32836	32694	
808	0	32806	32752	
809	0	32788	32736	
810	0	32764	32858	
811	0	32820	32830	
812	0	32854	32758	
813	0	32756	32703	
814	0	32876	32670	
815	0	32800	32842	
816	0	32844	32798	
817	0	32844	32690	
818	0	32834	32828	
819	0	32804	32692	
820	0	32800	32800	
821	0	32886	32846	
822	0	32876	32686	
823	0	32796	32807	
824	0	32790	32694	
825	0	32752	32759	
826	0	32780	32771	
827	0	32804	32664	
828	0	32820	32775	
829	0	32820	32846	
830	0	32812	32738	
831	0	32784	32788	
832	0	32852	32838	
833	0	32812	32736	
834	0	32822	32742	
835	0	32772	32682	
836	0	32836	32886	
837	0	32816	32764	
838	0	32838	32748	
839	0	32856	32783	
840	0	32844	32807	
841	0	32900	32702	
842	0	32808	32826	
843	0	32824	32758	
844	0	32832	32752	
845	0	32804	32852	
846	0	32824	32848	
847	0	32824	32772	
848	0	32764	32790	
849	0	32820	32839	
850	0	32768	32788	
851	0	32816	32802	
852	0	32775	32825	
853	0	32824	32775	
854	0	32792	32775	
855	0	32816	32684	
856	0	32817	32770	
857	0	32790	32894	
858	0	32802	32668	
859	0	32840	32879	
860	0	32826	32759	
861	0	32844	32828	
862	0	32828	32775	
863	0	32780	32700	
864	0	32800	32868	
865	0	32796	32864	
866	0	32804	32754	
867	0	32806	32762	
868	0	32816	32804	
869	0	32808	32750	
870	0	32788	32760	
871	0	32874	32720	
872	0	32852	32772	
873	0	32740	32839	
874	0	32818	32775	
875	0	32798	32759	
876	0	32796	32821	
877	0	32816	32892	
878	0	32804	32832	
879	0	32832	32664	
880	0	32821	32742	
881	0	32804	32712	
882	0	32798	32858	
883	0	32802	32807	
884	0	32796	32668	
885	0	32812	32742	
886	0	32862	32711	
887	0	32848	32864	
888	0	32820	32827	
889	0	32840	32719	
890	0	32810	32816	
891	0	32806	32784	
892	0	32794	32704	
893	0	32816	32792	
894	0	32808	32814	
895	0	32820	32796	
896	0	32812	32743	
897	0	32730	32750	
898	0	32784	32816	
899	0	32820	32694	
900	0	32894	32742	
901	0	32844	32678	
902	0	32840	32722	
903	0	32816	32753	
904	0	32786	32788	
905	0	32788	32852	
906	0	32840	32727	
907	0	32772	32796	
908	0	32808	32702	
909	0	32826	32750	
910	0	32832	32860	
911	0	32800	32728	
912	0	32842	32794	
913	0	32845	32729	
914	0	32816	32711	
915	0	32832	32738	
916	0	32832	32720	
917	0	32832	32648	
918	0	32784	32772	
919	0	32862	32844	
920	0	32846	32790	
921	0	32816	32746	
922	0	32824	32762	
923	0	32810	32775	
924	0	32806	32702	
925	0	32828	32742	
926	0	32790	32800	
927	0	32786	32814	
928	0	32796	32720	
929	0	32814	32756	
930	0	32828	32683	
931	0	32830	32768	
932	0	32808	32878	
933	0	32812	32786	
934	0	32844	32786	
935	0	32812	32676	
936	0	32788	32823	
937	0	32812	32806	
938	0	32764	32697	
939	0	32884	32816	
940	0	32842	32826	
941	0	32802	32687	
942	0	32828	32775	
943	0	32814	32824	
944	0	32768	32682	
945	0	32756	32826	
946	0	32805	32822	
947	0	32722	32625	
948	0	32804	32846	
949	0	32840	32846	
950	0	32804	32734	
951	0	32784	32844	
952	0	32804	32692	
953	0	32804	32646	
954	0	32784	32748	
955	0	32836	32783	
956	0	32774	32751	
957	0	32800	32835	
958	0	32792	32839	
959	0	32832	32738	
960	0	32834	32748	
961	0	32808	32834	
962	0	32852	32714	
963	0	32838	32812	
964	0	32804	32807	
965	0	32812	32660	
966	0	32838	32804	
967	0	32840	32818	
968	0	32764	32730	
969	0	32832	32844	
970	0	32844	32820	
971	0	32816	32686	
972	0	32740	32734	
973	0	32824	32794	
974	0	32860	32724	
975	0	32868	32822	
976	0	32822	32680	
977	0	32820	32786	
978	0	32810	32772	
979	0	32820	32693	
980	0	32752	32788	
981	0	32808	32810	
982	0	32860	32775	
983	0	32824	32814	
984	0	32792	32658	
985	0	32760	32816	
986	0	32788	32878	
987	0	32762	32766	
988	0	32798	32862	
989	0	32872	32703	
990	0	32808	32836	
991	0	32794	32748	
992	0	32802	32698	
993	0	32812	32742	
994	0	32834	32746	
995	0	32770	32848	
996	0	32780	32738	
997	0	32836	32644	
998	0	32872	32724	
999	0	32820	32684	
1000	0	32784	32822	
1001	0	32824	32830	
1002	0	32790	32656	
1003	0	32792	32767	
1004	0	32860	32738	
1005	0	32852	32802	
1006	0	32816	32790	
1007	0	32816	32744	
1008	0	32878	32774	
1009	0	32849	32775	
1010	0	32812	32682	
1011	0	32832	32770	
1012	0	32796	32756	
1013	0	32842	32836	
1014	0	32838	32720	
1015	0	32804	32658	
1016	0	32868	32815	
1017	0	32814	32818	
1018	0	32788	32768	
1019	0	32788	32791	
1020	0	32816	32712	
1021	0	32824	32839	
1022	0	32828	32794	
1023	0	32780	32742	
1024	0	32792	32754	
1025	0	32788	32726	
1026	0	32828	32774	
1027	0	32772	32865	
1028	0	32808	32766	
1029	0	32779	32812	
1030	0	32832	32742	
1031	0	32782	32682	
1032	0	32830	32722	
1033	0	32782	32666	
1034	0	32804	32800	
1035	0	32836	32844	
1036	0	32804	32762	
1037	0	32834	32742	
1038	0	32852	32690	
1039	0	32844	32775	
1040	0	32740	32712	
1041	0	32860	32790	
1042	0	32826	32728	
1043	0	32814	32816	
1044	0	32736	32888	
1045	0	32800	32756	
1046	0	32808	32828	
1047	0	32836	32710	
1048	0	32796	32766	
1049	0	32804	32752	
1050	0	32856	32798	
1051	0	32800	32808	
1052	0	32816	32804	
1053	0	32800	32820	
1054	0	32832	32775	
1055	0	32848	32856	
1056	0	32844	32716	
1057	0	32768	32686	
1058	0	32840	32743	
1059	0	32744	32688	
1060	0	32880	32734	
1061	0	32786	32775	
1062	0	32750	32804	
1063	0	32772	32750	
1064	0	32787	32866	
1065	0	32800	32682	
1066	0	32812	32736	
1067	0	32856	32718	
1068	0	32876	32807	
1069	0	32780	32812	
1070	0	32872	32775	
1071	0	32808	32775	
1072	0	32792	32756	
1073	0	32842	32794	
1074	0	32830	32818	
1075	0	32848	32750	
1076	0	32824	32802	
1077	0	32810	32752	
1078	0	32824	32821	
1079	0	32788	32662	
1080	0	32788	32824	
1081	0	32836	32889	
1082	0	32794	32646	
1083	0	32806	32750	
1084	0	32764	32838	
1085	0	32844	32816	
1086	0	32800	32760	
1087	0	32826	32700	
1088	0	32828	32758	
1089	0	32824	32762	
1090	0	32848	32823	
1091	0	32812	32808	
1092	0	32768	32724	
1093	0	32824	32730	
1094	0	32776	32694	
1095	0	32772	32828	
1096	0	32808	32862	
1097	0	32864	32871	
1098	0	32794	32810	
1099	0	32804	32732	
1100	0	32742	32820	
1101	0	32804	32772	
1102	0	32810	32768	
1103	0	32780	32714	
1104	0	32838	32766	
1105	0	32744	32688	
1106	0	32796	32798	
1107	0	32872	32766	
1108	0	32754	32792	
1109	0	32802	32752	
1110	0	32740	32644	
1111	0	32882	32788	
1112	0	32840	32746	
1113	0	32868	32762	
1114	0	32830	32774	
1115	0	32804	32695	
1116	0	32784	32815	
1117	0	32840	32752	
1118	0	32820	32896	
1119	0	32768	32884	
1120	0	32864	32650	
1121	0	32820	32814	
1122	0	32774	32678	
1123	0	32844	32859	
1124	0	32842	32836	
1125	0	32792	32756	
1126	0	32816	32812	
1127	0	32824	32688	
1128	0	32806	32806	
1129	0	32798	32839	
1130	0	32794	32775	
1131	0	32816	32788	
1132	0	32796	32775	
1133	0	32782	32751	
1134	0	32830	32679	
1135	0	32880	32846	
1136	0	32770	32844	
1137	0	32892	32688	
1138	0	32852	32790	
1139	0	32798	32748	
1140	0	32816	32738	
1141	0	32810	32722	
1142	0	32812	32820	
1143	0	32798	32842	
1144	0	32791	32679	
1145	0	32814	32872	
1146	0	32832	32806	
1147	0	32825	32788	
1148	0	32824	32871	
1149	0	32840	32814	
1150	0	32838	32866	
1151	0	32860	32956	
1152	0	32808	32814	
1153	0	32892	32814	
1154	0	32876	32830	
1155	0	32874	32866	
1156	0	32816	32764	
1157	0	32696	32628	
1158	0	32724	32559	
1159	0	32672	32495	
1160	0	32636	32478	
1161	0	32736	32560	
1162	0	32660	32524	
1163	0	32726	32358	
1164	0	32610	32484	
1165	0	32728	32512	
1166	0	32752	32698	
1167	0	32782	32726	
1168	0	32760	32704	
1169	0	32796	32836	
1170	0	32832	32799	
1171	0	32832	32856	
1172	0	32822	32918	
1173	0	32822	32775	
1174	0	32782	32942	
1175	0	32820	32887	
1176	0	32888	32913	
1177	0	32954	32856	
1178	0	32900	32750	
1179	0	32962	32934	
1180	0	32888	32884	
1181	0	32852	32842	
1182	0	32852	32775	
1183	0	32896	32878	
1184	0	32824	32883	
1185	0	32876	32807	
1186	0	32878	32816	
1187	0	32864	32896	
1188	0	32862	32710	
1189	0	32842	32770	
1190	0	32860	32775	
1191	0	32804	32810	
1192	0	32832	32774	
1193	0	32810	32644	
1194	0	32864	32743	
1195	0	32800	32832	
1196	0	32828	32679	
1197	0	32844	32743	
1198	0	32786	32682	
1199	0	32716	32687	
1200	0	32750	32654	
1201	0	32776	32716	
1202	0	32748	32804	
1203	0	32760	32740	
1204	0	32758	32746	
1205	0	32828	32738	
1206	0	32816	32792	
1207	0	32742	32719	
1208	0	32802	32806	
1209	0	32864	32874	
1210	0	32806	32716	
1211	0	32828	32790	
1212	0	32816	32750	
1213	0	32808	32785	
1214	0	32834	32708	
1215	0	32752	32772	
1216	0	32802	32680	
1217	0	32808	32796	
1218	0	32832	32860	
1219	0	32788	32790	
1220	0	32804	32807	
1221	0	32828	32724	
1222	0	32864	32775	
1223	0	32836	32716	
1224	0	32836	32775	
1225	0	32884	32686	
1226	0	32768	32764	
1227	0	32780	32844	
1228	0	32746	32858	
1229	0	32796	32775	
1230	0	32858	32632	
1231	0	32792	32860	
1232	0	32858	32844	
1233	0	32838	32764	
1234	0	32864	32872	
1235	0	32800	32788	
1236	0	32880	32812	
1237	0	32808	32708	
1238	0	32766	32794	
1239	0	32834	32712	
1240	0	32812	32804	
1241	0	32788	32804	
1242	0	32840	32816	
1243	0	32770	32862	
1244	0	32852	32804	
1245	0	32856	32804	
1246	0	32760	32696	
1247	0	32794	32756	
1248	0	32818	32666	
1249	0	32848	32794	
1250	0	32788	32823	
1251	0	32800	32775	
1252	0	32767	32794	
1253	0	32828	32647	
1254	0	32870	32836	
1255	0	32816	32732	
1256	0	32824	32844	
1257	0	32798	32839	
1258	0	32796	32766	
1259	0	32830	32750	
1260	0	32788	32684	
1261	0	32840	32774	
1262	0	32812	32806	
1263	0	32784	32711	
1264	0	32832	32725	
1265	0	32844	32686	
1266	0	32768	32834	
1267	0	32828	32844	
1268	0	32768	32690	
1269	0	32840	32774	
1270	0	32766	32774	
1271	0	32810	32863	
1272	0	32768	32754	
1273	0	32806	32824	
1274	0	32774	32786	
1275	0	32804	32732	
1276	0	32858	32792	
1277	0	32792	32746	
1278	0	32809	32816	
1279	0	32796	32692	
1280	0	32854	32804	
1281	0	32832	32832	
1282	0	32808	32888	
1283	0	32858	32894	
1284	0	32796	32770	
1285	0	32768	32754	
1286	0	32756	32688	
1287	0	32792	32764	
1288	0	32778	32640	
1289	0	32814	32844	
1290	0	32836	32878	
1291	0	32838	32758	
1292	0	32856	32844	
1293	0	32794	32732	
1294	0	32836	32750	
1295	0	32856	32695	
1296	0	32800	32775	
1297	0	32770	32754	
1298	0	32810	32708	
1299	0	32832	32738	
1300	0	32754	32775	
1301	0	32776	32858	
1302	0	32846	32728	
1303	0	32816	32762	
1304	0	32848	32800	
1305	0	32852	32692	
1306	0	32822	32810	
1307	0	32778	32775	
1308	0	32804	32828	
1309	0	32848	32788	
1310	0	32810	32763	
1311	0	32770	32772	
1312	0	32832	32730	
1313	0	32844	32718	
1314	0	32824	32710	
1315	0	32828	32817	
1316	0	32804	32816	
1317	0	32846	32770	
1318	0	32818	32821	
1319	0	32808	32775	
1320	0	32748	32799	
1321	0	32780	32680	
1322	0	32860	32734	
1323	0	32784	32722	
1324	0	32788	32766	
1325	0	32856	32670	
1326	0	32790	32847	
1327	0	32832	32872	
1328	0	32824	32792	
1329	0	32812	32852	
1330	0	32744	32752	
1331	0	32864	32807	
1332	0	32792	32674	
1333	0	32816	32775	
1334	0	32860	32722	
1335	0	32800	32738	
1336	0	32828	32702	
1337	0	32848	32858	
1338	0	32820	32749	
1339	0	32848	32775	
1340	0	32808	32800	
1341	0	32758	32771	
1342	0	32824	32766	
1343	0	32804	32682	
1344	0	32800	32834	
1345	0	32820	32875	
1346	0	32820	32834	
1347	0	32820	32772	
1348	0	32864	32706	
1349	0	32776	32740	
1350	0	32812	32740	
1351	0	32816	32775	
1352	0	32778	32820	
1353	0	32872	32732	
1354	0	32772	32907	
1355	0	32732	32752	
1356	0	32838	32660	
1357	0	32838	32750	
1358	0	32864	32682	
1359	0	32778	32790	
1360	0	32856	32810	
1361	0	32816	32738	
1362	0	32800	32758	
1363	0	32864	32788	
1364	0	32748	32754	
1365	0	32820	32792	
1366	0	32798	32719	
1367	0	32740	32885	
1368	0	32810	32756	
1369	0	32810	32712	
1370	0	32868	32775	
1371	0	32804	32774	
1372	0	32828	32720	
1373	0	32820	32862	
1374	0	32801	32904	
1375	0	32772	32736	
1376	0	32770	32780	
1377	0	32846	32734	
1378	0	32794	32817	
1379	0	32844	32762	
1380	0	32866	32678	
1381	0	32936	32846	
1382	0	32808	32834	
1383	0	32810	32796	
1384	0	32772	32814	
1385	0	32878	32670	
1386	0	32788	32839	
1387	0	32821	32702	
1388	0	32808	32815	
1389	0	32834	32848	
1390	0	32824	32739	
1391	0	32780	32764	
1392	0	32802	32704	
1393	0	32800	32820	
1394	0	32752	32788	
1395	0	32782	32734	
1396	0	32788	32696	
1397	0	32820	32742	
1398	0	32824	32794	
1399	0	32832	32770	
1400	0	32752	32799	
1401	0	32804	32743	
1402	0	32769	32692	
1403	0	32838	32815	
1404	0	32752	32760	
1405	0	32848	32652	
1406	0	32844	32740	
1407	0	32866	32810	
1408	0	32792	32850	
1409	0	32817	32800	
1410	0	32822	32764	
1411	0	32832	32751	
1412	0	32768	32668	
1413	0	32756	32814	
1414	0	32808	32852	
1415	0	32736	32760	
1416	0	32804	32775	
1417	0	32798	32750	
1418	0	32848	32808	
1419	0	32762	32711	
1420	0	32772	32756	
1421	0	32796	32616	
1422	0	32800	32698	
1423	0	32782	32702	
1424	0	32824	32808	
1425	0	32774	32796	
1426	0	32904	32834	
1427	0	32808	32764	
1428	0	32772	32794	
1429	0	32800	32864	
1430	0	32774	32746	
1431	0	32834	32815	
1432	0	32826	32836	
1433	0	32804	32856	
1434	0	32802	32774	
1435	0	32820	32822	
1436	0	32858	32734	
1437	0	32820	32751	
1438	0	32820	32760	
1439	0	32830	32775	
1440	0	32830	32800	
1441	0	32820	32750	
1442	0	32812	32775	
1443	0	32826	32759	
1444	0	32808	32756	
1445	0	32768	32628	
1446	0	32736	32746	
1447	0	32876	32728	
1448	0	32852	32770	
1449	0	32808	32760	
1450	0	32878	32794	
1451	0	32776	32714	
1452	0	32800	32789	
1453	0	32824	32766	
1454	0	32828	32756	
1455	0	32814	32705	
1456	0	32840	32775	
1457	0	32822	32688	
1458	0	32826	32829	
1459	0	32840	32871	
1460	0	32800	32720	
1461	0	32848	32828	
1462	0	32796	32844	
1463	0	32818	32823	
1464	0	32740	32838	
1465	0	32754	32766	
1466	0	32878	32860	
1467	0	32852	32828	
1468	0	32802	32742	
1469	0	32784	32688	
1470	0	32842	32698	
1471	0	32784	32852	
1472	0	32796	32870	
1473	0	32821	32740	
1474	0	32832	32738	
1475	0	32801	32908	
1476	0	32868	32812	
1477	0	32764	32740	
1478	0	32744	32710	
1479	0	32804	32742	
1480	0	32832	32888	
1481	0	32772	32842	
1482	0	32804	32788	
1483	0	32812	32730	
1484	0	32820	32824	
1485	0	32812	32708	
1486	0	32814	32784	
1487	0	32804	32800	
1488	0	32824	32727	
1489	0	32804	32746	
1490	0	32827	32752	
1491	0	32848	32830	
1492	0	32804	32716	
1493	0	32788	32734	
1494	0	32806	32720	
1495	0	32844	32686	
1496	0	32796	32799	
1497	0	32836	32828	
1498	0	32836	32774	
1499	0	32906	32868	
1500	0	32844	32824	
1501	0	32840	32720	
1502	0	32762	32744	
1503	0	32746	32756	
1504	0	32846	32774	
1505	0	32792	32820	
1506	0	32878	32744	
1507	0	32852	32820	
1508	0	32806	32796	
1509	0	32728	32722	
1510	0	32848	32846	
1511	0	32782	32754	
1512	0	32804	32775	
1513	0	32780	32839	
1514	0	32820	32734	
1515	0	32792	32700	
1516	0	32838	32816	
1517	0	32740	32798	
1518	0	32804	32694	
1519	0	32852	32772	
1520	0	32788	32742	
1521	0	32774	32760	
1522	0	32792	32700	
1523	0	32810	32814	
1524	0	32798	32800	
1525	0	32858	32828	
1526	0	32876	32735	
1527	0	32772	32693	
1528	0	32750	32734	
1529	0	32840	32824	
1530	0	32860	32718	
1531	0	32836	32721	
1532	0	32810	32692	
1533	0	32792	32784	
1534	0	32844	32844	
1535	0	32858	32704	
1536	0	32840	32759	
1537	0	32800	32670	
1538	0	32864	32810	
1539	0	32878	32807	
1540	0	32800	32716	
1541	0	32814	32775	
1542	0	32820	32716	
1543	0	32848	32788	
1544	0	32830	32698	
1545	0	32752	32772	
1546	0	32740	32775	
1547	0	32860	32750	
1548	0	32832	32704	
1549	0	32732	32702	
1550	0	32868	32794	
1551	0	32844	32754	
1552	0	32852	32775	
1553	0	32748	32834	
1554	0	32852	32756	
1555	0	32804	32751	
1556	0	32826	32711	
1557	0	32792	32792	
1558	0	32840	32840	
1559	0	32838	32807	
1560	0	32812	32752	
1561	0	32730	32790	
1562	0	32884	32804	
1563	0	32852	32730	
1564	0	32792	32758	
1565	0	32808	32727	
1566	0	32852	32820	
1567	0	32788	32824	
1568	0	32758	32774	
1569	0	32804	32764	
1570	0	32778	32672	
1571	0	32844	32792	
1572	0	32780	32702	
1573	0	32852	32924	
1574	0	32822	32854	
1575	0	32852	32670	
1576	0	32816	32775	
1577	0	32812	32863	
1578	0	32794	32818	
1579	0	32832	32786	
1580	0	32810	32702	
1581	0	32780	32791	
1582	0	32816	32756	
1583	0	32816	32832	
1584	0	32808	32772	
1585	0	32816	32846	
1586	0	32874	32808	
1587	0	32796	32686	
1588	0	32748	32756	
1589	0	32833	32768	
1590	0	32804	32810	
1591	0	32840	32820	
1592	0	32816	32625	
1593	0	32820	32726	
1594	0	32802	32740	
1595	0	32834	32752	
1596	0	32772	32711	
1597	0	32778	32812	
1598	0	32796	32775	
1599	0	32808	32752	
1600	0	32780	32774	
1601	0	32820	32676	
1602	0	32862	32790	
1603	0	32852	32775	
1604	0	32868	32664	
1605	0	32784	32802	
1606	0	32784	32764	
1607	0	32856	32775	
1608	0	32796	32743	
1609	0	32734	32762	
1610	0	32810	32810	
1611	0	32752	32828	
1612	0	32804	32758	
1613	0	32804	32742	
1614	0	32772	32786	
1615	0	32744	32698	
1616	0	32826	32822	
1617	0	32820	32794	
1618	0	32762	32890	
1619	0	32802	32842	
1620	0	32858	32712	
1621	0	32892	32740	
1622	0	32844	32792	
1623	0	32752	32672	
1624	0	32824	32711	
1625	0	32780	32840	
1626	0	32766	32750	
1627	0	32838	32756	
1628	0	32808	32856	
1629	0	32824	32775	
1630	0	32820	32828	
1631	0	32808	32696	
1632	0	32836	32750	
1633	0	32824	32724	
1634	0	32836	32810	
1635	0	32860	32823	
1636	0	32840	32688	
1637	0	32828	32854	
1638	0	32804	32670	
1639	0	32802	32810	
1640	0	32800	32804	
1641	0	32838	32863	
1642	0	32820	32815	
1643	0	32772	32814	
1644	0	32826	32804	
1645	0	32836	32743	
1646	0	32756	32732	
1647	0	32874	32674	
1648	0	32834	32750	
1649	0	32784	32636	
1650	0	32774	32774	
1651	0	32788	32903	
1652	0	32880	32730	
1653	0	32800	32711	
1654	0	32784	32634	
1655	0	32840	32812	
1656	0	32800	32830	
1657	0	32832	32656	
1658	0	32844	32764	
1659	0	32822	32676	
1660	0	32812	32844	
1661	0	32820	32792	
1662	0	32788	32760	
1663	0	32764	32784	
1664	0	32758	32732	
1665	0	32824	32828	
1666	0	32832	32760	
1667	0	32794	32804	
1668	0	32826	32750	
1669	0	32796	32594	
1670	0	32788	32775	
1671	0	32816	32724	
1672	0	32852	32838	
1673	0	32844	32758	
1674	0	32808	32772	
1675	0	32800	32804	
1676	0	32810	32640	
1677	0	32784	32768	
1678	0	32836	32768	
1679	0	32776	32832	
1680	0	32830	32855	
1681	0	32786	32740	
1682	0	32836	32772	
1683	0	32768	32798	
1684	0	32864	32743	
1685	0	32802	32794	
1686	0	32804	32726	
1687	0	32774	32772	
1688	0	32780	32828	
1689	0	32842	32759	
1690	0	32846	32764	
1691	0	32812	32692	
1692	0	32818	32692	
1693	0	32764	32666	
1694	0	32834	32820	
1695	0	32788	32775	
1696	0	32878	32694	
1697	0	32752	32775	
1698	0	32762	32743	
1699	0	32832	32804	
1700	0	32812	32766	
1701	0	32906	32743	
1702	0	32784	32819	
1703	0	32804	32798	
1704	0	32788	32727	
1705	0	32808	32743	
1706	0	32814	32727	
1707	0	32868	32789	
1708	0	32836	32742	
1709	0	32824	32700	
1710	0	32828	32863	
1711	0	32808	32775	
1712	0	32778	32775	
1713	0	32858	32704	
1714	0	32800	32692	
1715	0	32820	32798	
1716	0	32804	32644	
1717	0	32800	32798	
1718	0	32814	32858	
1719	0	32862	32698	
1720	0	32804	32818	
1721	0	32822	32758	
1722	0	32854	32815	
1723	0	32800	32748	
1724	0	32840	32702	
1725	0	32832	32848	
1726	0	32804	32760	
1727	0	32816	32830	
1728	0	32798	32766	
1729	0	32818	32739	
1730	0	32772	32734	
1731	0	32828	32708	
1732	0	32833	32839	
1733	0	32864	32872	
1734	0	32812	32774	
1735	0	32789	32828	
1736	0	32764	32694	
1737	0	32804	32806	
1738	0	32796	32804	
1739	0	32842	32668	
1740	0	32790	32775	
1741	0	32816	32764	
1742	0	32808	32775	
1743	0	32857	32702	
1744	0	32818	32716	
1745	0	32828	32718	
1746	0	32748	32670	
1747	0	32894	32788	
1748	0	32820	32744	
1749	0	32836	32754	
1750	0	32852	32732	
1751	0	32808	32814	
1752	0	32780	32855	
1753	0	32798	32768	
1754	0	32778	32692	
1755	0	32882	32748	
1756	0	32770	32810	
1757	0	32822	32784	
1758	0	32856	32736	
1759	0	32860	32740	
1760	0	32826	32710	
1761	0	32828	32807	
1762	0	32836	32768	
1763	0	32826	32825	
1764	0	32802	32775	
1765	0	32812	32698	
1766	0	32778	32800	
1767	0	32760	32792	
1768	0	32788	32790	
1769	0	32818	32792	
1770	0	32772	32715	
1771	0	32820	32702	
1772	0	32812	32754	
1773	0	32832	32756	
1774	0	32726	32740	
1775	0	32792	32678	
1776	0	32776	32866	
1777	0	32848	32775	
1778	0	32824	32728	
1779	0	32790	32862	
1780	0	32800	32728	
1781	0	32800	32662	
1782	0	32840	32807	
1783	0	32784	32775	
1784	0	32752	32810	
1785	0	32854	32698	
1786	0	32816	32752	
1787	0	32802	32732	
1788	0	32828	32856	
1789	0	32870	32736	
1790	0	32804	32738	
1791	0	32752	32844	
1792	0	32834	32796	
1793	0	32780	32764	
1794	0	32812	32720	
1795	0	32784	32759	
1796	0	32816	32708	
1797	0	32816	32714	
1798	0	32776	32718	
1799	0	32820	32822	
1800	0	32866	32786	
1801	0	32836	32818	
1802	0	32820	32858	
1803	0	32856	32728	
1804	0	32808	32832	
1805	0	32852	32680	
1806	0	32802	32742	
1807	0	32862	32786	
1808	0	32848	32734	
1809	0	32794	32756	
1810	0	32814	32751	
1811	0	32788	32794	
1812	0	32804	32654	
1813	0	32836	32766	
1814	0	32816	32812	
1815	0	32840	32775	
1816	0	32768	32775	
1817	0	32832	32822	
1818	0	32820	32838	
1819	0	32780	32716	
1820	0	32820	32766	
1821	0	32790	32716	
1822	0	32804	32894	
1823	0	32856	32792	
1824	0	32804	32644	
1825	0	32808	32796	
1826	0	32804	32742	
1827	0	32848	32812	
1828	0	32872	32879	
1829	0	32828	32724	
1830	0	32864	32824	
1831	0	32800	32839	
1832	0	32812	32674	
1833	0	32796	32762	
1834	0	32740	32668	
1835	0	32824	32754	
1836	0	32762	32762	
1837	0	32844	32706	
1838	0	32834	32766	
1839	0	32800	32705	
1840	0	32816	32790	
1841	0	32818	32752	
1842	0	32822	32756	
1843	0	32804	32868	
1844	0	32804	32766	
1845	0	32824	32815	
1846	0	32880	32844	
1847	0	32816	32748	
1848	0	32828	32766	
1849	0	32848	32830	
1850	0	32748	32730	
1851	0	32762	32826	
1852	0	32808	32756	
1853	0	32870	32724	
1854	0	32816	32743	
1855	0	32804	32716	
1856	0	32812	32724	
1857	0	32832	32830	
1858	0	32808	32728	
1859	0	32864	32697	
1860	0	32800	32804	
1861	0	32798	32756	
1862	0	32848	32714	
1863	0	32772	32692	
1864	0	32780	32848	
1865	0	32836	32802	
1866	0	32804	32695	
1867	0	32788	32716	
1868	0	32836	32775	
1869	0	32788	32726	
1870	0	32802	32846	
1871	0	32788	32853	
1872	0	32840	32775	
1873	0	32868	32775	
1874	0	32872	32858	
1875	0	32820	32804	
1876	0	32860	32796	
1877	0	32784	32736	
1878	0	32810	32812	
1879	0	32804	32794	
1880	0	32874	32673	
1881	0	32816	32792	
1882	0	32814	32686	
1883	0	32818	32840	
1884	0	32788	32775	
1885	0	32846	32836	
1886	0	32864	32854	
1887	0	32798	32801	
1888	0	32848	32795	
1889	0	32824	32872	
1890	0	32808	32822	
1891	0	32836	32838	
1892	0	32928	32922	
1893	0	32868	32884	
1894	0	32876	32851	
1895	0	32826	32791	
1896	0	32840	32892	
1897	0	32836	32863	
1898	0	32762	32688	
1899	0	32732	32760	
1900	0	32682	32764	
1901	0	32696	32582	
1902	0	32702	32604	
1903	0	32680	32434	
1904	0	32688	32502	
1905	0	32638	32479	
1906	0	32668	32422	
1907	0	32666	32478	
1908	0	32720	32580	
1909	0	32814	32748	
1910	0	32822	32927	
1911	0	32814	32775	
1912	0	32828	32820	
1913	0	32814	32902	
1914	0	32806	32814	
1915	0	32814	32910	
1916	0	32800	32742	
1917	0	32868	32818	
1918	0	32858	32896	
1919	0	32880	32832	
1920	0	32840	32962	
1921	0	32918	32922	
1922	0	32890	32839	
1923	0	32868	32898	
1924	0	32878	32932	
1925	0	32834	32854	
1926	0	32882	32790	
1927	0	32836	32798	
1928	0	32846	32846	
1929	0	32840	32840	
1930	0	32792	32823	
1931	0	32800	32856	
1932	0	32828	32844	
1933	0	32894	32744	
1934	0	32784	32660	
1935	0	32886	32868	
1936	0	32832	32668	
1937	0	32818	32800	
1938	0	32792	32755	
1939	0	32846	32718	
1940	0	32780	32647	
1941	0	32744	32692	
1942	0	32692	32802	
1943	0	32824	32818	
1944	0	32872	32682	
1945	0	32820	32734	
1946	0	32788	32743	
1947	0	32738	32808	
1948	0	32836	32806	
1949	0	32810	32679	
1950	0	32832	32767	
1951	0	32792	32620	
1952	0	32794	32802	
1953	0	32832	32870	
1954	0	32757	32796	
1955	0	32812	32735	
1956	0	32834	32750	
1957	0	32840	32770	
1958	0	32746	32676	
1959	0	32804	32756	
1960	0	32842	32770	
1961	0	32808	32810	
1962	0	32864	32840	
1963	0	32804	32775	
1964	0	32780	32806	
1965	0	32778	32732	
1966	0	32836	32758	
1967	0	32888	32764	
1968	0	32820	32788	
1969	0	32782	32816	
1970	0	32796	32750	
1971	0	32810	32799	
1972	0	32856	32730	
1973	0	32868	32856	
1974	0	32778	32932	
1975	0	32810	32736	
1976	0	32836	32775	
1977	0	32822	32758	
1978	0	32760	32754	
1979	0	32822	32724	
1980	0	32812	32790	
1981	0	32796	32790	
1982	0	32824	32754	
1983	0	32868	32833	
1984	0	32852	32646	
1985	0	32788	32807	
1986	0	32842	32684	
1987	0	32758	32744	
1988	0	32824	32710	
1989	0	32802	32775	
1990	0	32810	32738	
1991	0	32896	32724	
1992	0	32816	32768	
1993	0	32846	32775	
1994	0	32814	32810	
1995	0	32804	32838	
1996	0	32804	32822	
1997	0	32810	32742	
1998	0	32812	32790	
1999	0	32784	32738	
2000	0	32846	32796	
2001	0	32802	32898	
2002	0	32800	32826	
2003	0	32884	32722	
2004	0	32794	32726	
2005	0	32732	32766	
2006	0	32820	32642	
2007	0	32806	32790	
2008	0	32824	32764	
2009	0	32812	32801	
2010	0	32764	32775	
2011	0	32866	32676	
2012	0	32772	32800	
2013	0	32778	32835	
2014	0	32828	32796	
2015	0	32810	32751	
2016	0	32858	32775	
2017	0	32832	32743	
2018	0	32772	32860	
2019	0	32766	32734	
2020	0	32858	32775	
2021	0	32794	32748	
2022	0	32832	32772	
2023	0	32800	32786	
2024	0	32824	32726	
2025	0	32850	32830	
2026	0	32848	32740	
2027	0	32832	32794	
2028	0	32824	32795	
2029	0	32810	32839	
2030	0	32864	32799	
2031	0	32788	32764	
2032	0	32784	32822	
2033	0	32810	32662	
2034	0	32832	32743	
2035	0	32782	32732	
2036	0	32780	32760	
2037	0	32776	32760	
2038	0	32840	32750	
2039	0	32828	32853	
2040	0	32822	32902	
2041	0	32780	32694	
2042	0	32850	32804	
2043	0	32864	32828	
2044	0	32834	32736	
2045	0	32844	32790	
2046	0	32764	32888	
2047	0	32806	32750	
2048	0	32768	32800	
2049	0	32816	32812	
2050	0	32758	32798	
2051	0	32816	32708	
2052	0	32762	32654	
2053	0	32748	32764	
2054	0	32852	32792	
2055	0	32820	32750	
2056	0	32832	32714	
2057	0	32821	32768	
2058	0	32852	32756	
2059	0	32786	32760	
2060	0	32848	32794	
2061	0	32816	32834	
2062	0	32832	32704	
2063	0	32852	32806	
2064	0	32858	32775	
2065	0	32830	32744	
2066	0	32748	32769	
2067	0	32800	32752	
2068	0	32852	32830	
2069	0	32748	32766	
2070	0	32752	32678	
2071	0	32728	32798	
2072	0	32792	32802	
2073	0	32866	32775	
2074	0	32760	32808	
2075	0	32816	32719	
2076	0	32838	32852	
2077	0	32844	32678	
2078	0	32884	32775	
2079	0	32772	32666	
2080	0	32788	32812	
2081	0	32864	32696	
2082	0	32836	32816	
2083	0	32816	32760	
2084	0	32832	32727	
2085	0	32800	32748	
2086	0	32716	32792	
2087	0	32820	32756	
2088	0	32778	32792	
2089	0	32728	32670	
2090	0	32782	32775	
2091	0	32774	32694	
2092	0	32880	32822	
2093	0	32784	32816	
2094	0	32916	32716	
2095	0	32898	32708	
2096	0	32838	32718	
2097	0	32790	32838	
2098	0	32768	32810	
2099	0	32768	32724	
2100	0	32814	32799	
2101	0	32856	32753	
2102	0	32840	32775	
2103	0	32740	32830	
2104	0	32724	32750	
2105	0	32816	32742	
2106	0	32834	32742	
2107	0	32772	32742	
2108	0	32840	32700	
2109	0	32804	32754	
2110	0	32838	32748	
2111	0	32832	32839	
2112	0	32868	32810	
2113	0	32766	32734	
2114	0	32748	32812	
2115	0	32826	32746	
2116	0	32776	32791	
2117	0	32772	32686	
2118	0	32764	32798	
2119	0	32844	32850	
2120	0	32812	32692	
2121	0	32760	32742	
2122	0	32804	32670	
2123	0	32800	32844	
2124	0	32738	32791	
2125	0	32848	32692	
2126	0	32868	32775	
2127	0	32858	32664	
2128	0	32832	32770	
2129	0	32772	32756	
2130	0	32836	32866	
2131	0	32780	32775	
2132	0	32728	32810	
2133	0	32849	32836	
2134	0	32810	32820	
2135	0	32838	32790	
2136	0	32818	32730	
2137	0	32760	32680	
2138	0	32868	32702	
2139	0	32788	32831	
2140	0	32810	32789	
2141	0	32806	32768	
2142	0	32822	32811	
2143	0	32828	32730	
2144	0	32854	32820	
2145	0	32816	32712	
2146	0	32780	32848	
2147	0	32744	32770	
2148	0	32880	32736	
2149	0	32852	32812	
2150	0	32818	32692	
2151	0	32820	32836	
2152	0	32796	32812	
2153	0	32810	32775	
2154	0	32728	32714	
2155	0	32836	32662	
2156	0	32806	32748	
2157	0	32834	32724	
2158	0	32776	32748	
2159	0	32854	32752	
2160	0	32890	32792	
2161	0	32892	32846	
2162	0	32840	32807	
2163	0	32834	32724	
2164	0	32784	32634	
2165	0	32828	32764	
2166	0	32768	32862	
2167	0	32740	32775	
2168	0	32796	32775	
2169	0	32796	32804	
2170	0	32836	32775	
2171	0	32832	32698	
2172	0	32798	32860	
2173	0	32804	32832	
2174	0	32762	32692	
2175	0	32768	32746	
2176	0	32784	32847	
2177	0	32908	32748	
2178	0	32808	32746	
2179	0	32800	32825	
2180	0	32876	32711	
2181	0	32912	32750	
2182	0	32886	32838	
2183	0	32772	32693	
2184	0	32744	32748	
2185	0	32782	32756	
2186	0	32784	32830	
2187	0	32764	32882	
2188	0	32744	32784	
2189	0	32848	32736	
2190	0	32788	32620	
2191	0	32744	32701	
2192	0	32798	32762	
2193	0	32934	32730	
2194	0	32874	32719	
2195	0	32822	32714	
2196	0	32852	32664	
2197	0	32876	32708	
2198	0	32892	32760	
2199	0	32880	32834	
2200	0	32812	32870	
2201	0	32844	32839	
2202	0	32842	32838	
2203	0	32772	32666	
2204	0	32730	32774	
2205	0	32770	32826	
2206	0	32770	32694	
2207	0	32874	32792	
2208	0	32850	32720	
2209	0	32810	32838	
2210	0	32772	32796	
2211	0	32870	32752	
2212	0	32804	32814	
2213	0	32768	32774	
2214	0	32748	32720	
2215	0	32792	32708	
2216	0	32736	32796	
2217	0	32806	32900	
2218	0	32832	32792	
2219	0	32774	32807	
2220	0	32774	32724	
2221	0	32836	32772	
2222	0	32832	32646	
2223	0	32820	32698	
2224	0	32752	32708	
2225	0	32836	32750	
2226	0	32764	32766	
2227	0	32882	32743	
2228	0	32849	32852	
2229	0	32824	32820	
2230	0	32865	32836	
2231	0	32846	32884	
2232	0	32810	32748	
2233	0	32736	32784	
2234	0	32832	32652	
2235	0	32800	32680	
2236	0	32846	32874	
2237	0	32760	32775	
2238	0	32840	32794	
2239	0	32824	32686	
2240	0	32836	32810	
2241	0	32804	32766	
2242	0	32792	32775	
2243	0	32808	32775	
2244	0	32780	32711	
2245	0	32804	32814	
2246	0	32852	32775	
2247	0	32768	32775	
2248	0	32790	32892	
2249	0	32858	32722	
2250	0	32764	32721	
2251	0	32836	32708	
2252	0	32756	32806	
2253	0	32838	32712	
2254	0	32860	32676	
2255	0	32824	32753	
2256	0	32808	32775	
2257	0	32794	32792	
2258	0	32832	32900	
2259	0	32804	32660	
2260	0	32840	32868	
2261	0	32860	32830	
2262	0	32768	32736	
2263	0	32844	32775	
2264	0	32826	32788	
2265	0	32788	32846	
2266	0	32858	32839	
2267	0	32852	32710	
2268	0	32828	32775	
2269	0	32754	32756	
2270	0	32802	32672	
2271	0	32756	32719	
2272	0	32724	32726	
2273	0	32836	32752	
2274	0	32908	32742	
2275	0	32868	32682	
2276	0	32784	32828	
2277	0	32816	32824	
2278	0	32844	32718	
2279	0	32844	32756	
2280	0	32810	32856	
2281	0	32884	32724	
2282	0	32844	32736	
2283	0	32864	32638	
2284	0	32824	32826	
2285	0	32832	32772	
2286	0	32888	32694	
2287	0	32710	32764	
2288	0	32708	32862	
2289	0	32744	32698	
2290	0	32712	32820	
2291	0	32836	32674	
2292	0	32736	32775	
2293	0	32840	32854	
2294	0	32916	32758	
2295	0	32866	32735	
2296	0	32820	32746	
2297	0	32794	32700	
2298	0	32868	32842	
2299	0	32800	32744	
2300	0	32798	32820	
2301	0	32840	32792	
2302	0	32780	32924	
2303	0	32772	32818	
2304	0	32688	32712	
2305	0	32808	32852	
2306	0	32824	32676	
2307	0	32898	32812	
2308	0	32832	32772	
2309	0	32840	32772	
2310	0	32760	32824	
2311	0	32788	32722	
2312	0	32736	32748	
2313	0	32722	32718	
2314	0	32756	32710	
2315	0	32790	32720	
2316	0	32788	32746	
2317	0	32800	32740	
2318	0	32844	32844	
2319	0	32892	32740	
2320	0	32880	32807	
2321	0	32940	32775	
2322	0	33016	32876	
2323	0	32928	32784	
2324	0	32848	32742	
2325	0	32816	32760	
2326	0	32768	32764	
2327	0	32800	32758	
2328	0	32796	32687	
2329	0	32752	32636	
2330	0	32812	32630	
2331	0	32737	32716	
2332	0	32784	32830	
2333	0	32840	32788	
2334	0	32850	32802	
2335	0	32866	32903	
2336	0	32856	32830	
2337	0	32748	32820	
2338	0	32812	32852	
2339	0	32772	32860	
2340	0	32760	32690	
2341	0	32772	32884	
2342	0	32774	32855	
2343	0	32832	32892	
2344	0	32868	32794	
2345	0	32712	32880	
2346	0	32768	32798	
2347	0	32712	32818	
2348	0	32780	32810	
2349	0	32832	32758	
2350	0	32738	32756	
2351	0	32816	32688	
2352	0	32876	32750	
2353	0	32812	32708	
2354	0	32849	32732	
2355	0	32850	32686	
2356	0	32782	32758	
2357	0	32758	32704	
2358	0	32836	32732	
2359	0	32810	32654	
2360	0	32816	32770	
2361	0	32802	32644	
2362	0	32870	32792	
2363	0	32828	32732	
2364	0	32796	32748	
2365	0	32872	32747	
2366	0	32904	32772	
2367	0	32908	32710	
2368	0	32836	32864	
2369	0	32868	32756	
2370	0	32846	32822	
2371	0	32796	32706	
2372	0	32824	32754	
2373	0	32892	32742	
2374	0	32854	32852	
2375	0	32764	32871	
2376	0	32794	32756	
2377	0	32820	32762	
2378	0	32840	32654	
2379	0	32840	32698	
2380	0	32816	32700	
2381	0	32752	32775	
2382	0	32852	32734	
2383	0	32824	32836	
2384	0	32788	32766	
2385	0	32672	32696	
2386	0	32728	32812	
2387	0	32774	32678	
2388	0	32782	32820	
2389	0	32864	32724	
2390	0	32776	32766	
2391	0	32764	32820	
2392	0	32900	32828	
2393	0	32724	32732	
2394	0	32704	32654	
2395	0	32832	32647	
2396	0	32916	32830	
2397	0	32826	32679	
2398	0	32868	32798	
2399	0	32784	32814	
2400	0	32676	32870	
2401	0	32808	32775	
2402	0	32832	32775	
2403	0	32924	32707	
2404	0	32874	32688	
2405	0	33008	32884	
2406	0	32938	32674	
2407	0	32886	32678	
2408	0	32888	32718	
2409	0	32849	32836	
2410	0	32892	32828	
2411	0	32734	32688	
2412	0	32740	32766	
2413	0	32788	32826	
2414	0	32732	32828	
2415	0	32760	32894	
2416	0	32752	32858	
2417	0	32804	32902	
2418	0	32740	32754	
2419	0	32824	32850	
2420	0	32812	32804	
2421	0	32860	32742	
2422	0	32702	32775	
2423	0	32804	32608	
2424	0	32788	32740	
2425	0	32806	32846	
2426	0	32792	32708	
2427	0	32804	32746	
2428	0	32880	32679	
2429	0	32814	32732	
2430	0	32780	32784	
2431	0	32772	32604	
2432	0	32772	32641	
2433	0	32734	32570	
2434	0	32732	32734	
2435	0	32818	32776	
2436	0	32772	32801	
2437	0	32910	32886	
2438	0	32918	32766	
2439	0	32920	32768	
2440	0	32880	32711	
2441	0	32944	32858	
2442	0	32892	32650	
2443	0	32912	32775	
2444	0	32884	32820	
2445	0	32728	32734	
2446	0	32696	32782	
2447	0	32724	32652	
2448	0	32752	32752	
2449	0	32768	32712	
2450	0	32834	32684	
2451	0	32794	32759	
2452	0	32764	32775	
2453	0	32864	32822	
2454	0	32796	32688	
2455	0	32712	32590	
2456	0	32816	32679	
2457	0	32856	32744	
2458	0	32716	32830	
2459	0	32780	32847	
2460	0	32790	32746	
2461	0	32736	32775	
2462	0	32806	32698	
2463	0	32928	32714	
2464	0	32888	32775	
2465	0	32832	32846	
2466	0	32724	32820	
2467	0	32760	32736	
2468	0	32880	32839	
2469	0	32818	32790	
2470	0	32830	32852	
2471	0	32844	32742	
2472	0	32740	32884	
2473	0	32836	32820	
2474	0	32786	32774	
2475	0	32798	32792	
2476	0	32796	32644	
2477	0	32828	32814	
2478	0	32806	32891	
2479	0	32652	32743	
2480	0	32856	32756	
2481	0	32904	32694	
2482	0	32860	32775	
2483	0	32860	32860	
2484	0	33000	32796	
2485	0	32884	32839	
2486	0	32708	32732	
2487	0	32828	32842	
2488	0	32752	32743	
2489	0	32784	32676	
2490	0	32738	32712	
2491	0	32812	32660	
2492	0	32890	32759	
2493	0	32878	32710	
2494	0	32796	32590	
2495	0	32790	32662	
2496	0	32834	32686	
2497	0	32756	32700	
2498	0	32742	32775	
2499	0	32770	32822	
2500	0	32900	32840	
2501	0	32852	33031	
2502	0	33002	32896	
2503	0	32988	32998	
2504	0	32972	32794	
2505	0	32814	32856	
2506	0	32680	32912	
2507	0	32758	32716	
2508	0	32796	32772	
2509	0	32730	32612	
2510	0	32522	32598	
2511	0	32624	32688	
2512	0	32606	32676	
2513	0	32572	32600	
2514	0	32540	32754	
2515	0	32580	32748	
2516	0	32694	32831	
2517	0	32784	32964	
2518	0	33108	32900	
2519	0	33220	32768	
2520	0	33164	32804	
2521	0	33140	32862	
2522	0	33030	32746	
2523	0	33000	32824	
2524	0	32990	32766	
2525	0	32852	32670	
2526	0	32832	32732	
2527	0	32775	32806	
2528	0	32644	32636	
2529	0	32740	32786	
2530	0	32824	32808	
2531	0	32792	32691	
2532	0	32754	32748	
2533	0	32806	32692	
2534	0	32768	32719	
2535	0	32782	32792	
2536	0	32784	32736	
2537	0	32796	32612	
2538	0	32880	32474	
2539	0	32792	32743	
2540	0	32768	32716	
2541	0	32816	32742	
2542	0	32742	32804	
2543	0	32792	32678	
2544	0	32740	32966	
2545	0	32780	32928	
2546	0	32816	32754	
2547	0	32826	32692	
2548	0	32884	32742	
2549	0	32786	32839	
2550	0	32788	32862	
2551	0	32832	32839	
2552	0	32786	32948	
2553	0	32844	32812	
2554	0	32846	32865	
2555	0	32802	32874	
2556	0	32984	32839	
2557	0	32868	32860	
2558	0	32734	32850	
2559	0	32736	32814	
2560	0	32712	32650	
2561	0	32788	32766	
2562	0	32734	32742	
2563	0	32784	32718	
2564	0	32838	32604	
2565	0	32908	32604	
2566	0	32800	32740	
2567	0	32732	32710	
2568	0	32856	32694	
2569	0	32744	32790	
2570	0	32784	32769	
2571	0	32900	32614	
2572	0	33040	32871	
2573	0	33044	32852	
2574	0	32884	32690	
2575	0	32846	32775	
2576	0	32958	32868	
2577	0	32922	32874	
2578	0	32666	32879	
2579	0	32832	32775	
2580	0	32828	32858	
2581	0	32752	32839	
2582	0	32648	32838	
2583	0	32518	32852	
2584	0	32468	32672	
2585	0	32648	32844	
2586	0	32834	32740	
2587	0	32798	32814	
2588	0	32798	32870	
2589	0	32926	32770	
2590	0	32940	32822	
2591	0	32916	32742	
2592	0	32984	32775	
2593	0	32874	32702	
2594	0	32960	32588	
2595	0	32782	32746	
2596	0	32644	32678	
2597	0	32706	32548	
2598	0	32868	32734	
2599	0	32864	32810	
2600	0	32846	32898	
2601	0	33004	32924	
2602	0	32840	32712	
2603	0	32712	32696	
2604	0	32732	32638	
2605	0	32612	32612	
2606	0	32602	32560	
2607	0	32582	32506	
2608	0	32590	32688	
2609	0	32794	32903	
2610	0	32901	32868	
2611	0	32992	32976	
2612	0	32924	32879	
2613	0	32886	32986	
2614	0	33004	32966	
2615	0	33236	32900	
2616	0	33188	32972	
2617	0	32968	32836	
2618	0	32854	32917	
2619	0	32912	32992	
2620	0	32720	32978	
2621	0	32724	32864	
2622	0	32740	32711	
2623	0	32710	32732	
2624	0	32702	32570	
2625	0	32608	32418	
2626	0	32650	32532	
2627	0	32750	32444	
2628	0	32724	32366	
2629	0	32600	32444	
2630	0	32694	32332	
2631	0	32652	32436	
2632	0	32686	32550	
2633	0	32612	32728	
2634	0	32744	32876	
2635	0	32848	32891	
2636	0	32824	32870	
2637	0	32838	32788	
2638	0	32844	32736	
2639	0	32874	32758	
2640	0	32792	32704	
2641	0	32762	32764	
2642	0	32954	32832	
2643	0	32900	32940	
2644	0	32862	33063	
2645	0	32952	32992	
2646	0	32836	33127	
2647	0	32760	33014	
2648	0	32930	32920	
2649	0	32924	32744	
2650	0	32908	32802	
2651	0	32956	32828	
2652	0	32832	32876	
2653	0	32860	32850	
2654	0	32768	32808	
2655	0	32790	32855	
2656	0	32776	32896	
2657	0	32850	32784	
2658	0	32854	32820	
2659	0	32912	32580	
2660	0	32816	32596	
2661	0	32772	32620	
2662	0	32768	32510	
2663	0	32660	32499	
2664	0	32624	32596	
2665	0	32784	32682	
2666	0	32678	32800	
2667	0	32612	32738	
2668	0	32760	32839	
2669	0	32876	32858	
2670	0	32940	32848	
2671	0	32924	32942	
2672	0	33096	32900	
2673	0	32912	32760	
2674	0	32880	32880	
2675	0	32812	32775	
2676	0	32828	32804	
2677	0	32700	32874	
2678	0	32500	32854	
2679	0	32564	32748	
2680	0	32740	32836	
2681	0	32774	32676	
2682	0	32744	32670	
2683	0	32816	32576	
2684	0	32832	32630	
2685	0	32886	32566	
2686	0	32744	32623	
2687	0	32774	32514	
2688	0	32740	32710	
2689	0	32860	32700	
2690	0	32916	32880	
2691	0	33160	32911	
2692	0	33180	32967	
2693	0	32968	32948	
2694	0	32764	32870	
2695	0	32596	32750	
2696	0	32510	32711	
2697	0	32652	32746	
2698	0	32636	32838	
2699	0	32640	32743	
2700	0	32660	32644	
2701	0	32904	32540	
2702	0	33072	32682	
2703	0	33072	32658	
2704	0	33124	32492	
2705	0	33096	32430	
2706	0	32968	32674	
2707	0	32706	32718	
2708	0	32640	32871	
2709	0	32556	32930	
2710	0	32492	33068	
2711	0	32760	33114	
2712	0	32796	33219	
2713	0	32804	33124	
2714	0	32728	32903	
2715	0	32808	32880	
2716	0	32968	33031	
2717	0	32732	32903	
2718	0	32738	32876	
2719	0	32788	32786	
2720	0	32656	32928	
2721	0	32480	32824	
2722	0	32644	32602	
2723	0	32678	32676	
2724	0	32762	32504	
2725	0	32716	32567	
2726	0	32866	32484	
2727	0	32862	32372	
2728	0	32912	32695	
2729	0	32892	32722	
2730	0	32960	32839	
2731	0	32892	32710	
2732	0	32980	32740	
2733	0	33280	32508	
2734	0	33128	32564	
2735	0	33040	32728	
2736	0	32662	32694	
2737	0	32736	32626	
2738	0	32792	32775	
2739	0	32972	32775	
2740	0	32668	32830	
2741	0	32544	32863	
2742	0	32676	33055	
2743	0	32840	33094	
2744	0	32714	33200	
2745	0	32824	33208	
2746	0	32832	33063	
2747	0	32812	32918	
2748	0	32752	32831	
2749	0	32882	32804	
2750	0	32865	32706	
2751	0	32826	32756	
2752	0	32888	32660	
2753	0	32882	32758	
2754	0	32840	32824	
2755	0	32766	32990	
2756	0	32828	32900	
2757	0	32860	32810	
2758	0	32870	32842	
2759	0	32680	32606	
2760	0	32676	32432	
2761	0	32816	32582	
2762	0	32888	32494	
2763	0	32902	32580	
2764	0	32868	32565	
2765	0	32848	32618	
2766	0	32646	32543	
2767	0	32610	32580	
2768	0	32530	32791	
2769	0	32484	32812	
2770	0	32756	32814	
2771	0	32996	32834	
2772	0	33038	32900	
2773	0	33138	32914	
2774	0	32898	32828	
2775	0	32846	32580	
2776	0	32932	32608	
2777	0	32820	32506	
2778	0	32700	32660	
2779	0	32788	32782	
2780	0	32756	32954	
2781	0	32836	32888	
2782	0	32818	32942	
2783	0	32700	32792	
2784	0	32606	32926	
2785	0	32836	32834	
2786	0	32798	32746	
2787	0	33076	32846	
2788	0	33060	32726	
2789	0	32980	32844	
2790	0	33228	32954	
2791	0	32981	33019	
2792	0	32820	32990	
2793	0	32904	32870	
2794	0	32860	32704	
2795	0	32658	32538	
2796	0	32416	32644	
2797	0	32352	32482	
2798	0	32322	32608	
2799	0	32513	32439	
2800	0	32836	32438	
2801	0	32864	32377	
2802	0	32996	32512	
2803	0	33044	32892	
2804	0	32932	33055	
2805	0	33156	33156	
2806	0	33060	33100	
2807	0	32908	33064	
2808	0	32872	32888	
2809	0	32832	32690	
2810	0	32776	32464	
2811	0	32812	32740	
2812	0	32800	32580	
2813	0	32850	32326	
2814	0	32936	32263	
2815	0	32672	32344	
2816	0	32764	32668	
2817	0	32570	32828	
2818	0	32512	33173	
2819	0	32408	33160	
2820	0	32453	33430	
2821	0	32724	33571	
2822	0	32934	33486	
2823	0	33168	33086	
2824	0	33204	32944	
2825	0	33186	32965	
2826	0	32992	32775	
2827	0	32900	32674	
2828	0	32784	32519	
2829	0	32794	32690	
2830	0	32750	32692	
2831	0	32896	32670	
2832	0	32900	32636	
2833	0	32736	32622	
2834	0	32724	32552	
2835	0	32872	32588	
2836	0	32834	32538	
2837	0	32900	32506	
2838	0	32580	32458	
2839	0	32209	32640	
2840	0	32448	32563	
2841	0	32652	32484	
2842	0	32780	32522	
2843	0	33164	32516	
2844	0	33024	32734	
2845	0	33012	32885	
2846	0	33172	32976	
2847	0	33106	32938	
2848	0	32772	33012	
2849	0	32624	32674	
2850	0	32760	32580	
2851	0	32790	32753	
2852	0	32520	32870	
2853	0	32524	32874	
2854	0	32860	32633	
2855	0	32928	32900	
2856	0	32748	33054	
2857	0	32830	32817	
2858	0	32720	32814	
2859	0	32726	32810	
2860	0	33012	32944	
2861	0	33016	32892	
2862	0	32930	32886	
2863	0	33002	32775	
2864	0	32984	32640	
2865	0	32878	32630	
2866	0	32684	32430	
2867	0	33072	32166	
2868	0	32824	32220	
2869	0	32832	32615	
2870	0	32916	32540	
2871	0	32582	32452	
2872	0	32416	32686	
2873	0	32446	33182	
2874	0	32532	33212	
2875	0	32640	33662	
2876	0	32658	33752	
2877	0	32816	33454	
2878	0	32880	33238	
2879	0	32856	32918	
2880	0	32992	32802	
2881	0	33192	32790	
2882	0	32896	32920	
2883	0	32788	32791	
2884	0	32774	32727	
2885	0	33088	32926	
2886	0	32970	32600	
2887	0	32724	32344	
2888	0	32644	32320	
2889	0	32529	32414	
2890	0	32476	32448	
2891	0	32678	32682	
2892	0	33128	32775	
2893	0	32856	32590	
2894	0	33156	32680	
2895	0	33140	32620	
2896	0	33060	32639	
2897	0	32842	32870	
2898	0	32924	32775	
2899	0	32768	32650	
2900	0	32644	32786	
2901	0	32652	32618	
2902	0	32576	32495	
2903	0	32917	32514	
2904	0	33248	32633	
2905	0	33140	32751	
2906	0	32844	32748	
2907	0	32724	32784	
2908	0	32656	33042	
2909	0	32822	33286	
2910	0	32752	33224	
2911	0	32764	33083	
2912	0	32760	33023	
2913	0	32812	32828	
2914	0	32960	32752	
2915	0	32906	32596	
2916	0	32856	32558	
2917	0	32904	32614	
2918	0	32544	32583	
2919	0	32568	32709	
2920	0	32846	32730	
2921	0	32800	32775	
2922	0	32504	32824	
2923	0	32336	32692	
2924	0	32674	32694	
2925	0	32836	32792	
2926	0	32854	32703	
2927	0	32772	32654	
2928	0	32992	32642	
2929	0	32652	32450	
2930	0	32346	32616	
2931	0	32864	32738	
2932	0	33000	32856	
2933	0	33324	33116	
2934	0	33412	32836	
2935	0	33544	32687	
2936	0	32624	32706	
2937	0	32236	32623	
2938	0	31912	32450	
2939	0	31904	32464	
2940	0	32140	32634	
2941	0	32484	32562	
2942	0	32874	32602	
2943	0	33418	32903	
2944	0	33486	32916	
2945	0	33556	33240	
2946	0	33730	33066	
2947	0	33296	32980	
2948	0	32752	33287	
2949	0	33220	33504	
2950	0	33092	33160	
2951	0	32840	32860	
2952	0	32576	32680	
2953	0	32336	32658	
2954	0	32080	32774	
2955	0	32052	32976	
2956	0	32966	33114	
2957	0	33018	33086	
2958	0	32776	33201	
2959	0	33034	33078	
2960	0	32984	32931	
2961	0	32488	32556	
2962	0	32180	32263	
2963	0	32380	32188	
2964	0	32882	32226	
2965	0	32748	32192	
2966	0	33016	32147	
2967	0	33248	32388	
2968	0	32890	32646	
2969	0	32600	32784	
2970	0	32686	32760	
2971	0	32988	32932	
2972	0	32868	32824	
2973	0	32948	32878	
2974	0	33150	32828	
2975	0	33312	32820	
2976	0	33252	32839	
2977	0	33056	32908	
2978	0	32912	32832	
2979	0	32612	32708	
2980	0	32752	32642	
2981	0	32872	32502	
2982	0	32640	32426	
2983	0	32492	32598	
2984	0	32204	32524	
2985	0	32968	32823	
2986	0	33248	33010	
2987	0	32648	33286	
2988	0	32436	33412	
2989	0	32288	33351	
2990	0	32328	33024	
2991	0	32586	32976	
2992	0	32953	32586	
2993	0	32913	32448	
2994	0	32724	32210	
2995	0	33220	32344	
2996	0	33134	32199	
2997	0	32854	32430	
2998	0	32800	32670	
2999	0	32924	32838	
3000	0	33364	33010	
3001	0	33248	32967	
3002	0	33080	33206	
3003	0	32940	33226	
3004	0	32556	32855	
3005	0	32622	32804	
3006	0	32372	32878	
3007	0	32508	33132	
3008	0	32572	33138	
3009	0	32514	33046	
3010	0	32714	32924	
3011	0	32548	32672	
3012	0	33076	32424	
3013	0	32748	32199	
3014	0	33136	32135	
3015	0	33236	32018	
3016	0	32664	32112	
3017	0	32734	32372	
3018	0	33428	32652	
3019	0	33826	32756	
3020	0	33384	33042	
3021	0	32344	33224	
3022	0	31848	33538	
3023	0	31232	33428	
3024	0	31060	33088	
3025	0	32220	32752	
3026	0	33036	32711	
3027	0	33348	32560	
3028	0	33336	32340	
3029	0	33614	32364	
3030	0	33768	32358	
3031	0	33776	32748	
3032	0	33556	32769	
3033	0	33466	32644	
3034	0	33124	32647	
3035	0	33096	33026	
3036	0	32414	33220	
3037	0	32132	33166	
3038	0	32200	33154	
3039	0	32412	33238	
3040	0	32448	33136	
3041	0	31848	33076	
3042	0	31870	32810	
3043	0	32156	32640	
3044	0	32120	32228	
3045	0	32160	32310	
3046	0	32468	32358	
3047	0	33428	32480	
3048	0	33770	32237	
3049	0	33712	31990	
3050	0	33666	32444	
3051	0	33826	32622	
3052	0	33316	32604	
3053	0	33332	32758	
3054	0	32752	33104	
3055	0	32340	33060	
3056	0	32812	32918	
3057	0	32910	32828	
3058	0	32792	33041	
3059	0	32924	33329	
3060	0	32734	33136	
3061	0	32536	33031	
3062	0	32660	33082	
3063	0	32784	33004	
3064	0	32800	32794	
3065	0	32916	32743	
3066	0	32716	32670	
3067	0	32452	32793	
3068	0	32246	32766	
3069	0	33112	32998	
3070	0	32970	32838	
3071	0	32680	32676	
3072	0	32660	32348	
3073	0	33188	32164	
3074	0	32240	32068	
3075	0	32184	32003	
3076	0	32056	32294	
3077	0	31852	32588	
3078	0	32132	32236	
3079	0	32182	32228	
3080	0	32688	32464	
3081	0	33546	32748	
3082	0	33936	32774	
3083	0	33922	32960	
3084	0	33924	32921	
3085	0	33628	33006	
3086	0	33312	33072	
3087	0	33020	33386	
3088	0	32908	33650	
3089	0	32754	33438	
3090	0	32752	33246	
3091	0	32552	33460	
3092	0	32396	33415	
3093	0	32628	32962	
3094	0	32692	32800	
3095	0	32632	32743	
3096	0	32922	32932	
3097	0	32996	32655	
3098	0	33096	32551	
3099	0	32884	32624	
3100	0	32952	32590	
3101	0	32746	32584	
3102	0	32244	32348	
3103	0	31896	32625	
3104	0	32400	32767	
3105	0	32668	32876	
3106	0	32600	32656	
3107	0	32380	32468	
3108	0	32218	32420	
3109	0	32118	32792	
3110	0	32412	32742	
3111	0	33108	32408	
3112	0	33444	32200	
3113	0	33632	32103	
3114	0	33352	32322	
3115	0	33404	32426	
3116	0	33004	32880	
3117	0	33074	33158	
3118	0	33200	33258	
3119	0	32936	33303	
3120	0	32760	33360	
3121	0	33036	33542	
3122	0	33176	33294	
3123	0	33192	32990	
3124	0	33360	32775	
3125	0	32672	32484	
3126	0	31912	32552	
3127	0	31712	32660	
3128	0	31660	32650	
3129	0	31938	32550	
3130	0	32992	32374	
3131	0	32992	32306	
3132	0	33596	32224	
3133	0	33118	32442	
3134	0	32760	32494	
3135	0	33176	32791	
3136	0	33112	32974	
3137	0	32998	33047	
3138	0	32528	33090	
3139	0	32104	33252	
3140	0	32138	33218	
3141	0	32746	32838	
3142	0	33372	32486	
3143	0	33077	32618	
3144	0	33306	32492	
3145	0	33400	32474	
3146	0	33488	32694	
3147	0	32948	33110	
3148	0	32476	33018	
3149	0	32310	33002	
3150	0	32756	33040	
3151	0	32854	33136	
3152	0	33004	33028	
3153	0	33284	32812	
3154	0	33252	32788	
3155	0	32784	32546	
3156	0	32472	32740	
3157	0	31502	33002	
3158	0	31556	32630	
3159	0	32432	32468	
3160	0	33060	32372	
3161	0	33424	32569	
3162	0	33834	32362	
3163	0	33892	32320	
3164	0	33100	32308	
3165	0	32522	32156	
3166	0	32736	32220	
3167	0	32348	32540	
3168	0	32408	32794	
3169	0	32432	32786	
3170	0	32804	32946	
3171	0	32760	33095	
3172	0	33084	33178	
3173	0	32856	33150	
3174	0	32986	33596	
3175	0	33256	33798	
3176	0	33172	33798	
3177	0	32806	33703	
3178	0	32736	33308	
3179	0	32652	33272	
3180	0	32820	32980	
3181	0	32710	32656	
3182	0	32356	32416	
3183	0	32920	32312	
3184	0	33584	32238	
3185	0	33336	32036	
3186	0	33044	32103	
3187	0	32768	32310	
3188	0	32160	32399	
3189	0	31872	32540	
3190	0	32490	32634	
3191	0	32814	32684	
3192	0	32680	32618	
3193	0	32780	32150	
3194	0	32994	31952	
3195	0	32660	32111	
3196	0	33140	32531	
3197	0	32752	32846	
3198	0	32922	33028	
3199	0	32916	33000	
3200	0	32774	33004	
3201	0	33264	33280	
3202	0	33004	33174	
3203	0	33150	33350	
3204	0	32944	33124	
3205	0	32906	33184	
3206	0	32830	33456	
3207	0	32732	33280	
3208	0	32324	33260	
3209	0	32160	33162	
3210	0	32544	32816	
3211	0	32761	32652	
3212	0	33044	32693	
3213	0	32840	32682	
3214	0	32896	32600	
3215	0	33326	32178	
3216	0	33024	32004	
3217	0	33012	32376	
3218	0	32820	32580	
3219	0	32396	32672	
3220	0	32766	32950	
3221	0	32626	33024	
3222	0	32560	32756	
3223	0	32720	32504	
3224	0	32690	32570	
3225	0	32960	32642	
3226	0	32928	32832	
3227	0	32884	32960	
3228	0	32916	32935	
3229	0	32976	32944	
3230	0	33286	32775	
3231	0	32836	32638	
3232	0	32564	32646	
3233	0	32880	32481	
3234	0	32778	32604	
3235	0	33284	32660	
3236	0	33198	33016	
3237	0	33072	32802	
3238	0	31908	32884	
3239	0	31700	33130	
3240	0	32534	33008	
3241	0	32568	32726	
3242	0	33232	32760	
3243	0	32812	32586	
3244	0	32532	32582	
3245	0	32596	32694	
3246	0	33116	32826	
3247	0	33896	32872	
3248	0	33896	33018	
3249	0	33730	33410	
3250	0	33024	33402	
3251	0	32946	33151	
3252	0	32908	33098	
3253	0	32956	33086	
3254	0	32494	32774	
3255	0	32440	32743	
3256	0	32090	32729	
3257	0	32200	32842	
3258	0	32394	32644	
3259	0	31914	32158	
3260	0	32350	32098	
3261	0	32212	31974	
3262	0	32808	32348	
3263	0	33600	32476	
3264	0	33648	32482	
3265	0	33500	32976	
3266	0	33768	32954	
3267	0	33526	32710	
3268	0	32622	32992	
3269	0	32078	32774	
3270	0	31642	32434	
3271	0	31836	32644	
3272	0	32354	32524	
3273	0	32808	32550	
3274	0	33424	32784	
3275	0	33700	33014	
3276	0	33554	33004	
3277	0	33216	32640	
3278	0	32042	32546	
3279	0	31532	33031	
3280	0	31492	33031	
3281	0	31996	32807	
3282	0	33096	32298	
3283	0	33384	32263	
3284	0	33476	32688	
3285	0	33808	32794	
3286	0	33580	32704	
3287	0	33342	32932	
3288	0	33132	33318	
3289	0	32836	33160	
3290	0	32556	33158	
3291	0	32476	33354	
3292	0	33062	33088	
3293	0	32796	32692	
3294	0	32414	32206	
3295	0	33348	31932	
3296	0	33328	32314	
3297	0	32930	32596	
3298	0	32746	32519	
3299	0	32772	32518	
3300	0	32242	32768	
3301	0	32344	32834	
3302	0	32768	32832	
3303	0	33132	32682	
3304	0	32304	32543	
3305	0	31838	32866	
3306	0	31832	33178	
3307	0	33100	33432	
3308	0	32772	33602	
3309	0	33282	33428	
3310	0	33352	33208	
3311	0	33044	33080	
3312	0	32964	32884	
3313	0	32332	33031	
3314	0	32180	33198	
3315	0	32016	33063	
3316	0	33184	33188	
3317	0	33368	32712	
3318	0	33354	32368	
3319	0	32928	32082	
3320	0	33056	32232	
3321	0	33904	32095	
3322	0	33656	32378	
3323	0	32821	32280	
3324	0	32516	32831	
3325	0	32184	32868	
3326	0	31828	33180	
3327	0	33032	33316	
3328	0	33756	32972	
3329	0	33306	32532	
3330	0	32836	32518	
3331	0	33060	32218	
3332	0	32824	32748	
3333	0	32328	33000	
3334	0	32334	32852	
3335	0	32322	33304	
3336	0	32580	33399	
3337	0	32602	33508	
3338	0	32444	33570	
3339	0	32748	33312	
3340	0	32812	32924	
3341	0	32824	32478	
3342	0	32780	32218	
3343	0	32648	31764	
3344	0	32452	31806	
3345	0	32496	32202	
3346	0	32639	32288	
3347	0	32868	32750	
3348	0	32700	32822	
3349	0	32724	33152	
3350	0	32868	32964	
3351	0	32808	32764	
3352	0	33480	32822	
3353	0	33136	32664	
3354	0	32648	32583	
3355	0	31998	32178	
3356	0	32056	32172	
3357	0	31692	32806	
3358	0	32636	33030	
3359	0	33588	33084	
3360	0	34112	33276	
3361	0	33632	33480	
3362	0	33290	32884	
3363	0	33054	32680	
3364	0	32892	33016	
3365	0	32436	33068	
3366	0	32612	33004	
3367	0	33000	32962	
3368	0	33200	32722	
3369	0	33144	32714	
3370	0	32820	32664	
3371	0	32504	32740	
3372	0	32736	32572	
3373	0	32832	32382	
3374	0	32732	32228	
3375	0	32636	32322	
3376	0	32698	32446	
3377	0	32692	32450	
3378	0	32814	32629	
3379	0	32656	32556	
3380	0	32772	32752	
3381	0	33276	32858	
3382	0	32924	32896	
3383	0	33088	32934	
3384	0	32876	33046	
3385	0	32528	32712	
3386	0	32364	32852	
3387	0	32345	32834	
3388	0	32832	32542	
3389	0	33066	32273	
3390	0	33372	32572	
3391	0	33430	32706	
3392	0	33076	32732	
3393	0	32878	32796	
3394	0	32664	33216	
3395	0	33094	33287	
3396	0	32620	32856	
3397	0	32398	32592	
3398	0	32588	32436	
3399	0	32688	32583	
3400	0	32274	32576	
3401	0	32632	32730	
3402	0	33388	32834	
3403	0	33036	33092	
3404	0	33000	33030	
3405	0	32758	33060	
3406	0	32486	33287	
3407	0	32462	32960	
3408	0	32858	32566	
3409	0	32860	32370	
3410	0	32742	32542	
3411	0	32864	32580	
3412	0	33000	32618	
3413	0	33050	32715	
3414	0	32748	32932	
3415	0	32674	32671	
3416	0	32816	32746	
3417	0	32752	32560	
3418	0	32636	32636	
3419	0	32622	32910	
3420	0	32844	32762	
3421	0	33104	32690	
3422	0	32842	32704	
3423	0	32744	32438	
3424	0	32706	32172	
3425	0	32625	32487	
3426	0	32480	32722	
3427	0	32964	32316	
3428	0	32976	32880	
3429	0	32972	33042	
3430	0	32980	32835	
3431	0	32956	32663	
3432	0	32780	32498	
3433	0	32948	32476	
3434	0	32943	32384	
3435	0	32696	32092	
3436	0	32556	32022	
3437	0	32560	32254	
3438	0	32874	32802	
3439	0	33124	33252	
3440	0	33128	33224	
3441	0	32720	33152	
3442	0	32508	33294	
3443	0	31796	33488	
3444	0	32608	33188	
3445	0	32674	32770	
3446	0	32724	32282	
3447	0	32976	32116	
3448	0	32774	32474	
3449	0	32628	32706	
3450	0	32936	32756	
3451	0	33332	32868	
3452	0	32932	32924	
3453	0	32774	32909	
3454	0	32620	32770	
3455	0	32552	32774	
3456	0	32872	32896	
3457	0	33028	32926	
3458	0	32664	32774	
3459	0	32762	32700	
3460	0	32812	32838	
3461	0	32830	32698	
3462	0	32768	32816	
3463	0	32840	32863	
3464	0	32844	32796	
3465	0	32976	32964	
3466	0	33156	32886	
3467	0	33076	32996	
3468	0	33248	32852	
3469	0	33016	32832	
3470	0	32860	32430	
3471	0	32802	32320	
3472	0	32610	32362	
3473	0	32524	32486	
3474	0	32992	32792	
3475	0	33040	32732	
3476	0	32852	32961	
3477	0	32824	32952	
3478	0	32936	33362	
3479	0	32796	33543	
3480	0	32732	33572	
3481	0	32776	33430	
3482	0	32674	33351	
3483	0	32688	33287	
3484	0	32670	33364	
3485	0	32760	33146	
3486	0	32794	33156	
3487	0	32724	33052	
3488	0	32900	32924	
3489	0	33060	32880	
3490	0	32954	32986	
3491	0	32888	33223	
3492	0	32880	33182	
3493	0	32832	32966	
3494	0	32800	33100	
3495	0	33048	33031	
3496	0	33146	32602	
3497	0	33184	32594	
3498	0	33232	32551	
3499	0	33096	32576	
3500	0	32992	32484	
3501	0	33032	32391	
3502	0	33280	32274	
3503	0	32798	32260	
3504	0	33008	31916	
3505	0	32984	32226	
3506	0	32996	32391	
3507	0	33066	32564	
3508	0	33552	32724	
3509	0	33298	32852	
3510	0	33040	32846	
3511	0	33178	32996	
3512	0	33190	33148	
3513	0	33156	33170	
3514	0	33156	33132	
3515	0	33194	33194	
3516	0	33174	32890	
3517	0	33260	32918	
3518	0	33200	32870	
3519	0	33184	32612	
3520	0	33178	32210	
3521	0	33034	32298	
3522	0	33082	32722	
3523	0	32929	32744	
3524	0	32872	32632	
3525	0	32714	32746	
3526	0	32960	32718	
3527	0	33130	32674	
3528	0	33150	32238	
3529	0	33530	32286	
3530	0	33362	32358	
3531	0	32864	32444	
3532	0	32400	32898	
3533	0	32868	33050	
3534	0	33252	33042	
3535	0	33344	32914	
3536	0	33528	32579	
3537	0	33828	32854	
3538	0	33896	33159	
3539	0	33552	32876	
3540	0	33224	32450	
3541	0	32932	32335	
3542	0	32472	32466	
3543	0	32256	32572	
3544	0	32036	32921	
3545	0	31900	33319	
3546	0	31684	33242	
3547	0	31430	33074	
3548	0	31444	33268	
3549	0	31426	33264	
3550	0	31525	32998	
3551	0	31676	32950	
3552	0	31804	32954	
3553	0	31798	33159	
3554	0	31804	33186	
3555	0	31820	32856	
3556	0	31882	32608	
3557	0	31898	32688	
3558	0	31874	32638	
3559	0	31568	32420	
3560	0	31658	32438	
3561	0	31780	32274	
3562	0	31800	32352	
3563	0	31980	32404	
3564	0	32126	32676	
3565	0	32404	32647	
3566	0	32484	32807	
3567	0	32501	32664	
3568	0	32460	32688	
3569	0	32870	32556	
3570	0	32628	32446	
3571	0	32502	32555	
3572	0	32666	32479	
3573	0	32698	32775	
3574	0	32904	33146	
3575	0	32936	32855	
3576	0	33328	33260	
3577	0	32608	33220	
3578	0	32210	33002	
3579	0	32272	32628	
3580	0	32226	32450	
3581	0	32784	32574	
3582	0	33064	32832	
3583	0	32856	32636	
3584	0	32848	32940	
3585	0	32736	33020	
3586	0	32888	32662	
3587	0	33168	32310	
3588	0	33196	32540	
3589	0	33172	32855	
3590	0	33244	33202	
3591	0	33268	33332	
3592	0	33150	33220	
3593	0	32996	33140	
3594	0	32956	32940	
3595	0	33120	32824	
3596	0	33096	32734	
3597	0	33092	32656	
3598	0	32960	32706	
3599	0	32996	32828	
3600	0	32864	32600	
3601	0	32880	32408	
3602	0	32990	32359	
3603	0	32884	32486	
3604	0	32864	32572	
3605	0	32724	32582	
3606	0	32652	32596	
3607	0	32764	32692	
3608	0	32928	32762	
3609	0	32836	32820	
3610	0	32862	32532	
3611	0	33146	32422	
3612	0	32872	32519	
3613	0	32848	32892	
3614	0	32944	32502	
3615	0	32914	32654	
3616	0	32742	32647	
3617	0	32756	32406	
3618	0	32774	32506	
3619	0	32828	32535	
3620	0	32786	32674	
3621	0	32732	32832	
3622	0	32920	32880	
3623	0	32928	32836	
3624	0	32944	32550	
3625	0	32868	32542	
3626	0	32764	32666	
3627	0	32800	32820	
3628	0	32790	33011	
3629	0	32788	33031	
3630	0	32824	32856	
3631	0	32788	32862	
3632	0	33016	32814	
3633	0	32944	32970	
3634	0	32928	32876	
3635	0	32878	32916	
3636	0	32676	32719	
3637	0	32968	32824	
3638	0	32996	32618	
3639	0	33060	32664	
3640	0	33100	32676	
3641	0	32936	32846	
3642	0	33004	32870	
3643	0	32962	32559	
3644	0	32648	32727	
3645	0	32276	32940	
3646	0	32548	32946	
3647	0	32976	33212	
3648	0	32928	32866	
3649	0	33116	32417	
3650	0	32960	32074	
3651	0	32662	32338	
3652	0	32784	32458	
3653	0	32880	32965	
3654	0	32800	33068	
3655	0	33000	32830	
3656	0	32928	33200	
3657	0	32968	32980	
3658	0	33074	32898	
3659	0	33032	32775	
3660	0	33066	32698	
3661	0	33030	32596	
3662	0	33032	32564	
3663	0	33020	32572	
3664	0	33038	32486	
3665	0	32980	32598	
3666	0	32914	32695	
3667	0	33024	32647	
3668	0	32896	32718	
3669	0	32998	32710	
3670	0	32888	32718	
3671	0	32868	32775	
3672	0	32628	33086	
3673	0	32780	32998	
3674	0	33244	32440	
3675	0	33270	32302	
3676	0	33018	32412	
3677	0	32914	32311	
3678	0	32792	32546	
3679	0	32508	32558	
3680	0	32468	32934	
3681	0	32916	32838	
3682	0	33080	33124	
3683	0	33168	33060	
3684	0	33216	32935	
3685	0	33184	33308	
3686	0	33148	33287	
3687	0	33088	33126	
3688	0	32774	33244	
3689	0	32524	33230	
3690	0	32476	33123	
3691	0	32612	32915	
3692	0	32884	32748	
3693	0	32880	32640	
3694	0	32896	32690	
3695	0	32796	32746	
3696	0	32796	32514	
3697	0	32748	32560	
3698	0	32668	32452	
3699	0	32672	32632	
3700	0	32702	32708	
3701	0	32608	32618	
3702	0	32930	32758	
3703	0	33034	32814	
3704	0	32964	32766	
3705	0	32812	32848	
3706	0	32652	32691	
3707	0	32604	32726	
3708	0	32420	32775	
3709	0	32532	32708	
3710	0	32432	32711	
3711	0	32724	32834	
3712	0	32742	32820	
3713	0	32600	32860	
3714	0	32500	32852	
3715	0	32828	32726	
3716	0	32856	32906	
3717	0	32900	32996	
3718	0	32868	33010	
3719	0	32864	32952	
3720	0	32868	33016	
3721	0	32752	33079	
3722	0	32708	32944	
3723	0	32668	32848	
3724	0	32708	32804	
3725	0	32766	32534	
3726	0	32686	32592	
3727	0	32766	32583	
3728	0	32816	32774	
3729	0	32796	33176	
3730	0	32728	32910	
3731	0	32786	32944	
3732	0	32737	32704	
3733	0	32672	32832	
3734	0	32720	32940	
3735	0	32646	32932	
3736	0	32712	33004	
3737	0	32640	32846	
3738	0	32686	32860	
3739	0	32624	32734	
3740	0	32680	32775	
3741	0	32634	32788	
3742	0	32632	32646	
3743	0	32548	32790	
3744	0	32624	32734	
3745	0	32644	32766	
3746	0	32840	32628	
3747	0	32592	32612	
3748	0	32802	32500	
3749	0	32932	32570	
3750	0	32732	32622	
3751	0	32752	32756	
3752	0	32976	32519	
3753	0	33138	32214	
3754	0	33382	32228	
3755	0	33104	32440	
3756	0	32830	32638	
3757	0	32864	32903	
3758	0	32648	33100	
3759	0	32928	32982	
3760	0	33080	32959	
3761	0	33112	33098	
3762	0	33008	33020	
3763	0	32942	32958	
3764	0	32924	32934	
3765	0	32824	32890	
3766	0	32980	32672	
3767	0	33092	32800	
3768	0	33104	32668	
3769	0	33082	32626	
3770	0	33056	32606	
3771	0	32960	32630	
3772	0	33032	32604	
3773	0	32981	32676	
3774	0	33029	32682	
3775	0	32986	32754	
3776	0	33060	32924	
3777	0	33216	32980	
3778	0	33184	33196	
3779	0	33072	33478	
3780	0	32992	33362	
3781	0	33044	33375	
3782	0	32954	33302	
3783	0	32836	33058	
3784	0	32724	33134	
3785	0	32752	32992	
3786	0	32726	32824	
3787	0	32620	32670	
3788	0	32596	32664	
3789	0	32508	32646	
3790	0	32596	32584	
3791	0	32676	32604	
3792	0	32616	32516	
3793	0	32680	32612	
3794	0	32576	32632	
3795	0	32650	32434	
3796	0	32524	32618	
3797	0	32624	32622	
3798	0	32640	32660	
3799	0	32748	32826	
3800	0	32870	32716	
3801	0	32813	32628	
3802	0	32764	32737	
3803	0	32728	32870	
3804	0	32760	32786	
3805	0	32772	32866	
3806	0	32772	32900	
3807	0	32880	32875	
3808	0	32732	32852	
3809	0	32660	32844	
3810	0	32658	32991	
3811	0	32570	32926	
3812	0	32494	33063	
3813	0	32482	32968	
3814	0	32524	32692	
3815	0	32636	32822	
3816	0	32744	33102	
3817	0	32584	33206	
3818	0	32668	32974	
3819	0	32666	32870	
3820	0	32706	32736	
3821	0	33008	32724	
3822	0	32704	32602	
3823	0	32602	32647	
3824	0	32652	32590	
3825	0	32652	32572	
3826	0	32692	32596	
3827	0	32748	32534	
3828	0	33044	32537	
3829	0	33010	32539	
3830	0	32772	32550	
3831	0	32756	32690	
3832	0	32824	32808	
3833	0	32756	32876	
3834	0	32744	32775	
3835	0	32668	32828	
3836	0	32644	32768	
3837	0	32778	33014	
3838	0	32874	32988	
3839	0	32852	32803	
3840	0	32840	32790	
3841	0	32792	32758	
3842	0	32821	32476	
3843	0	32942	32734	
3844	0	32992	32654	
3845	0	32768	32658	
3846	0	32772	32720	
3847	0	32788	32823	
3848	0	32744	32942	
3849	0	32726	32960	
3850	0	32824	32894	
3851	0	32896	32878	
3852	0	32810	32665	
3853	0	32824	32608	
3854	0	32742	32728	
3855	0	32762	32464	
3856	0	32804	32332	
3857	0	32848	32218	
3858	0	32864	32126	
3859	0	32848	32180	
3860	0	32810	32282	
3861	0	32816	32234	
3862	0	32792	32496	
3863	0	32868	32618	
3864	0	32938	32478	
3865	0	32922	32592	
3866	0	32956	32479	
3867	0	32948	32462	
3868	0	32910	32654	
3869	0	32872	32634	
3870	0	32824	32726	
3871	0	32834	32806	
3872	0	32928	32910	
3873	0	32910	33008	
3874	0	32882	32788	
3875	0	32984	32964	
3876	0	32800	32818	
3877	0	32822	32596	
3878	0	32790	32712	
3879	0	32880	32980	
3880	0	32896	33026	
3881	0	32908	32850	
3882	0	32872	32866	
3883	0	32904	32823	
3884	0	32958	32759	
3885	0	32966	32870	
3886	0	32916	32892	
3887	0	32824	32774	
3888	0	32729	32857	
3889	0	32760	32724	
3890	0	32780	32820	
3891	0	32876	32775	
3892	0	32849	32698	
3893	0	32868	32820	
3894	0	32806	32988	
3895	0	32854	32770	
3896	0	32764	32972	
3897	0	32768	32948	
3898	0	32834	32671	
3899	0	32882	32692	
3900	0	32882	32819	
3901	0	32865	32760	
3902	0	32988	32614	
3903	0	32740	32600	
3904	0	32648	32622	
3905	0	32528	32632	
3906	0	32672	32494	
3907	0	32780	32536	
3908	0	32752	32492	
3909	0	32706	32591	
3910	0	32740	32640	
3911	0	32824	32596	
3912	0	32792	32807	
3913	0	32968	32750	
3914	0	32920	32726	
3915	0	32792	32830	
3916	0	32744	32847	
3917	0	32716	32896	
3918	0	32940	32822	
3919	0	32938	32740	
3920	0	32936	32828	
3921	0	32948	32854	
3922	0	32858	32672	
3923	0	32892	32798	
3924	0	32890	32910	
3925	0	32870	32838	
3926	0	32820	32825	
3927	0	32758	32910	
3928	0	32760	32876	
3929	0	32768	32934	
3930	0	32778	32948	
3931	0	32832	32876	
3932	0	32772	33052	
3933	0	32836	32980	
3934	0	32832	33012	
3935	0	32888	32896	
3936	0	32792	32943	
3937	0	32754	32912	
3938	0	32848	32810	
3939	0	32918	32708	
3940	0	32770	32775	
3941	0	32880	32716	
3942	0	32784	32798	
3943	0	32934	32764	
3944	0	32918	32636	
3945	0	32832	32748	
3946	0	32620	32790	
3947	0	32728	32636	
3948	0	32800	32766	
3949	0	32900	32839	
3950	0	32992	32818	
3951	0	32872	32751	
3952	0	32840	32708	
3953	0	32801	32806	
3954	0	32632	32886	
3955	0	32792	32792	
3956	0	32820	32834	
3957	0	32852	32732	
3958	0	32880	32878	
3959	0	32784	32864	
3960	0	32740	32886	
3961	0	32754	32912	
3962	0	32672	32838	
3963	0	32744	32870	
3964	0	32780	32752	
3965	0	32818	32790	
3966	0	32854	32650	
3967	0	32904	32807	
3968	0	32874	32772	
3969	0	32896	32879	
3970	0	32936	32760	
3971	0	32940	32834	
3972	0	32988	32914	
3973	0	32688	32834	
3974	0	32672	32903	
3975	0	32632	32888	
3976	0	32686	32808	
3977	0	32686	32679	
3978	0	32842	32844	
3979	0	32740	32748	
3980	0	32702	32888	
3981	0	32682	32866	
3982	0	32804	32924	
3983	0	32858	32932	
3984	0	32872	32896	
3985	0	33024	33006	
3986	0	32860	33056	
3987	0	32864	33046	
3988	0	32740	32864	
3989	0	32682	32842	
3990	0	32602	32890	
3991	0	32682	32804	
3992	0	32622	32866	
3993	0	32692	32740	
3994	0	32968	32664	
3995	0	32996	32704	
3996	0	33048	32564	
3997	0	32936	32754	
3998	0	32976	32688	
3999	0	32884	32588	
4000	0	32708	32628	
4001	0	32764	32534	
4002	0	32812	32607	
4003	0	32738	32592	
4004	0	32810	32699	
4005	0	32810	32594	
4006	0	32824	32742	
4007	0	32796	32670	
4008	0	32910	32812	
4009	0	32810	32794	
4010	0	32760	32848	
4011	0	32676	32903	
4012	0	32740	32882	
4013	0	32760	32902	
4014	0	32844	32775	
4015	0	32796	32900	
4016	0	32888	32820	
4017	0	32812	32823	
4018	0	32744	32774	
4019	0	32772	32821	
4020	0	32676	32748	
4021	0	32676	32873	
4022	0	32806	32847	
4023	0	32876	32834	
4024	0	32846	32858	
4025	0	32968	32652	
4026	0	32832	32756	
4027	0	32876	32775	
4028	0	32936	32808	
4029	0	32874	32743	
4030	0	32828	32704	
4031	0	32808	32750	
4032	0	32792	32598	
4033	0	32830	32712	
4034	0	32774	32644	
4035	0	32820	32410	
4036	0	32778	32506	
4037	0	32706	32498	
4038	0	32598	32204	
4039	0	32600	32167	
4040	0	32775	32254	
4041	0	32804	32218	
4042	0	32742	32236	
4043	0	32784	32179	
4044	0	32808	32368	
4045	0	32816	32560	
4046	0	32894	32598	
4047	0	32888	32852	
4048	0	32748	32930	
4049	0	32790	32856	
4050	0	32820	32958	
4051	0	32764	32927	
4052	0	32794	32794	
4053	0	32960	32908	
4054	0	32948	32999	
4055	0	32940	32952	
4056	0	32980	32902	
4057	0	32934	32798	
4058	0	32804	32848	
4059	0	32828	32760	
4060	0	32656	32699	
4061	0	32732	32804	
4062	0	32817	32812	
4063	0	32908	32682	
4064	0	33036	32778	
4065	0	32992	32740	
4066	0	32892	32812	
4067	0	32852	32766	
4068	0	32800	32718	
4069	0	32732	32808	
4070	0	32874	32864	
4071	0	32668	32775	
4072	0	32716	32740	
4073	0	32692	32656	
4074	0	32788	32770	
4075	0	32756	32678	
4076	0	32840	32684	
4077	0	32822	32668	
4078	0	32820	32766	
4079	0	32920	32708	
4080	0	32764	32884	
4081	0	32828	32854	
4082	0	32864	32954	
4083	0	32674	32885	
4084	0	32544	32768	
4085	0	32596	33074	
4086	0	32540	32971	
4087	0	32632	33100	
4088	0	32821	32809	
4089	0	32728	32804	
4090	0	32764	32790	
4091	0	32860	32862	
4092	0	32900	32846	
4093	0	32888	32903	
4094	0	32820	32775	
4095	0	32834	32792	
4096	0	32854	32804	
4097	0	32890	32654	
4098	0	32840	32808	
4099	0	32820	32748	
4100	0	32880	32874	
4101	0	32784	32698	
4102	0	32810	32738	
4103	0	32840	32847	
4104	0	32808	32764	
4105	0	32760	32848	
4106	0	32772	32810	
4107	0	32792	32892	
4108	0	32832	32826	
4109	0	32880	32924	
4110	0	32936	32913	
4111	0	32836	32892	
4112	0	32720	32757	
4113	0	32762	32735	
4114	0	32752	32740	
4115	0	32804	32652	
4116	0	32836	32775	
4117	0	32794	32630	
4118	0	32792	32578	
4119	0	32656	32692	
4120	0	32596	32615	
4121	0	32586	32636	
4122	0	32639	32726	
4123	0	32712	32706	
4124	0	32928	32708	
4125	0	32856	32770	
4126	0	32842	32798	
4127	0	32766	32870	
4128	0	32852	32880	
4129	0	32892	32736	
4130	0	32928	32820	
4131	0	32820	32798	
4132	0	32940	32918	
4133	0	32888	32860	
4134	0	32936	32803	
4135	0	32812	32856	
4136	0	32814	32860	
4137	0	32784	32718	
4138	0	32802	32818	
4139	0	32784	32887	
4140	0	32666	32978	
4141	0	32718	32964	
4142	0	32728	32860	
4143	0	32854	32887	
4144	0	32838	32852	
4145	0	32890	32874	
4146	0	32832	32822	
4147	0	32814	32774	
4148	0	32684	32799	
4149	0	32748	32684	
4150	0	32734	32822	
4151	0	32772	32706	
4152	0	32848	32836	
4153	0	32860	32796	
4154	0	32858	32756	
4155	0	32906	32702	
4156	0	32810	32744	
4157	0	32796	32614	
4158	0	32764	32711	
4159	0	32848	32598	
4160	0	32856	32796	
4161	0	32839	32820	
4162	0	32920	32700	
4163	0	33016	32738	
4164	0	32980	32690	
4165	0	32906	32722	
4166	0	32852	32775	
4167	0	32804	32710	
4168	0	32894	32664	
4169	0	32944	32736	
4170	0	32964	32644	
4171	0	32876	32807	
4172	0	32804	32766	
4173	0	32760	32830	
4174	0	32664	32802	
4175	0	32590	32788	
4176	0	32554	33002	
4177	0	32692	32962	
4178	0	32748	32870	
4179	0	32860	32931	
4180	0	32822	32930	
4181	0	32976	32680	
4182	0	32934	32860	
4183	0	32856	32796	
4184	0	32846	32647	
4185	0	32706	32770	
4186	0	32668	32814	
4187	0	32616	32668	
4188	0	32652	32774	
4189	0	32688	32726	
4190	0	32616	32855	
4191	0	32676	32804	
4192	0	32748	32698	
4193	0	32912	32758	
4194	0	32776	32775	
4195	0	32792	32756	
4196	0	32766	32807	
4197	0	32912	32725	
4198	0	33034	32790	
4199	0	33054	32839	
4200	0	32916	32892	
4201	0	32824	32810	
4202	0	32816	32852	
4203	0	32772	32760	
4204	0	32716	32750	
4205	0	32694	32918	
4206	0	32596	32808	
4207	0	32630	32938	
4208	0	32609	32934	
4209	0	32662	32874	
4210	0	32574	32718	
4211	0	32624	32722	
4212	0	32782	32826	
4213	0	32774	32868	
4214	0	32844	32743	
4215	0	32862	32796	
4216	0	32880	32903	
4217	0	32900	32710	
4218	0	33044	32798	
4219	0	33032	32895	
4220	0	33013	32865	
4221	0	32972	32877	
4222	0	32936	32775	
4223	0	32854	32884	
4224	0	32750	32762	
4225	0	32756	32775	
4226	0	32764	32742	
4227	0	32682	32775	
4228	0	32741	32823	
4229	0	32772	32698	
4230	0	32775	32816	
4231	0	32600	32770	
4232	0	32652	32952	
4233	0	32712	32881	
4234	0	32674	32644	
4235	0	32810	32708	
4236	0	32766	32640	
4237	0	32724	32430	
4238	0	32764	32602	
4239	0	32768	32536	
4240	0	32730	32603	
4241	0	32778	32700	
4242	0	32852	32490	
4243	0	32843	32678	
4244	0	32832	32740	
4245	0	32866	32744	
4246	0	32906	32662	
4247	0	32860	32674	
4248	0	32816	32748	
4249	0	32820	32864	
4250	0	32816	32896	
4251	0	32898	32871	
4252	0	32820	32754	
4253	0	32824	32716	
4254	0	32868	32738	
4255	0	32828	32727	
4256	0	32798	32752	
4257	0	32820	32720	
4258	0	32840	32884	
4259	0	32824	32775	
4260	0	32906	32628	
4261	0	32816	32740	
4262	0	32748	32696	
4263	0	32824	32740	
4264	0	32856	32794	
4265	0	32852	32704	
4266	0	32852	32860	
4267	0	32810	32744	
4268	0	32849	32839	
4269	0	32864	32804	
4270	0	32824	32902	
4271	0	32788	32839	
4272	0	32856	32679	
4273	0	32860	32798	
4274	0	32826	32732	
4275	0	32775	32806	
4276	0	32828	32818	
4277	0	32876	32806	
4278	0	32864	32772	
4279	0	32890	32714	
4280	0	32898	32556	
4281	0	32820	32724	
4282	0	32852	32762	
4283	0	32812	32766	
4284	0	32760	32826	
4285	0	32738	32775	
4286	0	32824	32838	
4287	0	32894	32864	
4288	0	32856	32724	
4289	0	32852	32812	
4290	0	32864	32808	
4291	0	32740	32656	
4292	0	32782	32692	
4293	0	32798	32734	
4294	0	32862	32719	
4295	0	32888	32720	
4296	0	32872	32695	
4297	0	32874	32695	
4298	0	32928	32844	
4299	0	32840	32775	
4300	0	32824	32850	
4301	0	32856	32832	
4302	0	32852	32792	
4303	0	32810	32676	
4304	0	32848	32720	
4305	0	32816	32768	
4306	0	32884	32835	
4307	0	32828	32740	
4308	0	32944	32876	
4309	0	32896	32739	
4310	0	32900	32788	
4311	0	32884	32592	
4312	0	32878	32684	
4313	0	32840	32792	
4314	0	32752	32790	
4315	0	32776	32756	
4316	0	32764	32750	
4317	0	32672	32720	
4318	0	32804	32768	
4319	0	32944	32775	
4320	0	33002	32626	
4321	0	33153	32740	
4322	0	33008	32736	
4323	0	32880	32838	
4324	0	32800	32720	
4325	0	32620	32828	
4326	0	32610	32696	
4327	0	32520	32834	
4328	0	32466	32738	
4329	0	32610	32810	
4330	0	32641	32766	
4331	0	32716	32823	
4332	0	32788	32728	
4333	0	32932	32772	
4334	0	32948	32832	
4335	0	32920	32732	
4336	0	32896	32740	
4337	0	32924	32802	
4338	0	32850	32842	
4339	0	32848	32884	
4340	0	32876	32775	
4341	0	32836	32850	
4342	0	32868	32812	
4343	0	32840	32881	
4344	0	32856	32812	
4345	0	32962	32702	
4346	0	32948	32798	
4347	0	32868	32686	
4348	0	32774	32800	
4349	0	32740	32618	
4350	0	32776	32648	
4351	0	32788	32775	
4352	0	32860	32738	
4353	0	32804	32676	
4354	0	32838	32767	
4355	0	32840	32678	
4356	0	32872	32702	
4357	0	32894	32802	
4358	0	32850	32830	
4359	0	32872	32854	
4360	0	32800	32786	
4361	0	32816	32672	
4362	0	32794	32838	
4363	0	32792	32719	
4364	0	32804	32775	
4365	0	32816	32804	
4366	0	32804	32657	
4367	0	32896	32798	
4368	0	32844	32823	
4369	0	32768	32775	
4370	0	32744	32814	
4371	0	32880	32806	
4372	0	32810	32652	
4373	0	32824	32772	
4374	0	32880	32930	
4375	0	32772	32886	
4376	0	32830	32852	
4377	0	32858	32934	
4378	0	32767	32754	
4379	0	32804	32775	
4380	0	32792	32835	
4381	0	32842	32865	
4382	0	32868	32816	
4383	0	32900	32864	
4384	0	32880	32810	
4385	0	32968	32929	
4386	0	32962	32830	
4387	0	32856	32865	
4388	0	32834	32775	
4389	0	32780	32920	
4390	0	32778	32796	
4391	0	32744	32814	
4392	0	32784	32770	
4393	0	32858	32705	
4394	0	32756	32816	
4395	0	32880	32864	
4396	0	32880	32775	
4397	0	32856	32746	
4398	0	32924	32726	
4399	0	32912	32970	
4400	0	32842	32794	
4401	0	32944	32798	
4402	0	32960	32808	
4403	0	32878	32758	
4404	0	32892	32888	
4405	0	32816	32816	
4406	0	32920	32798	
4407	0	32852	32715	
4408	0	32900	32768	
4409	0	32796	32829	
4410	0	32812	32812	
4411	0	32812	32794	
4412	0	32872	32724	
4413	0	32800	32852	
4414	0	32818	32852	
4415	0	32844	32828	
4416	0	32838	32766	
4417	0	32868	32759	
4418	0	32832	32830	
4419	0	32932	32852	
4420	0	32832	32775	
4421	0	32876	32746	
4422	0	32860	32899	
4423	0	32944	32887	
4424	0	32942	32786	
4425	0	32886	32774	
4426	0	32876	32886	
4427	0	32844	32850	
4428	0	32892	32756	
4429	0	32812	32743	
4430	0	32920	32890	
4431	0	32820	32846	
4432	0	32824	32866	
4433	0	32846	32756	
4434	0	32852	32816	
4435	0	32812	32855	
4436	0	32842	32736	
4437	0	32904	32726	
4438	0	32798	32775	
4439	0	32772	32888	
4440	0	32764	32862	
4441	0	32740	32870	
4442	0	32842	32704	
4443	0	32840	32975	
4444	0	32888	32816	
4445	0	32860	32905	
4446	0	32868	32774	
4447	0	32860	32708	
4448	0	32840	32871	
4449	0	32920	32799	
4450	0	32916	32888	
4451	0	32924	32724	
4452	0	32834	32852	
4453	0	32904	32768	
4454	0	32868	32775	
4455	0	32780	32766	
4456	0	32840	32752	
4457	0	32912	32828	
4458	0	32896	32842	
4459	0	32880	32768	
4460	0	32804	32898	
4461	0	32824	32706	
4462	0	32840	32784	
4463	0	32770	32804	
4464	0	32788	32918	
4465	0	32790	32846	
4466	0	32708	32782	
4467	0	32804	32766	
4468	0	32940	32752	
4469	0	32986	32798	
4470	0	32924	32814	
4471	0	33020	32742	
4472	0	33004	32736	
4473	0	32870	32814	
4474	0	32832	32820	
4475	0	32826	32815	
4476	0	32834	32692	
4477	0	32840	32887	
4478	0	32784	32830	
4479	0	32810	32806	
4480	0	32726	32831	
4481	0	32782	32775	
4482	0	32768	32720	
4483	0	32816	32928	
4484	0	32814	32806	
4485	0	32784	32740	
4486	0	32774	32848	
4487	0	32926	32775	
4488	0	32916	32818	
4489	0	32868	32852	
4490	0	32900	32832	
4491	0	32828	32838	
4492	0	32816	32676	
4493	0	32788	32740	
4494	0	32808	32858	
4495	0	32828	32775	
4496	0	32860	32824	
4497	0	32920	32800	
4498	0	32868	32756	
4499	0	32858	32790	
4500	0	32876	32839	
4501	0	32920	32882	
4502	0	32906	32804	
4503	0	32912	32846	
4504	0	32886	32714	
4505	0	32872	32730	
4506	0	32886	32770	
4507	0	32872	32802	
4508	0	32864	32836	
4509	0	32860	32774	
4510	0	32864	32814	
4511	0	32858	32706	
4512	0	32812	32686	
4513	0	32748	32812	
4514	0	32860	32828	
4515	0	32766	32724	
4516	0	32796	32822	
4517	0	32864	32759	
4518	0	32788	32716	
4519	0	32756	32892	
4520	0	32719	32870	
4521	0	32796	32840	
4522	0	32800	32732	
4523	0	32842	32720	
4524	0	32900	32802	
4525	0	32904	32686	
4526	0	32804	32743	
4527	0	32782	32864	
4528	0	32856	32836	
4529	0	32832	32880	
4530	0	32816	32734	
4531	0	32986	32807	
4532	0	32816	32784	
4533	0	32888	32838	
4534	0	32792	32726	
4535	0	32816	32694	
4536	0	32916	32808	
4537	0	32964	32724	
4538	0	32900	32775	
4539	0	32866	32828	
4540	0	32888	32820	
4541	0	32886	32702	
4542	0	32860	32686	
4543	0	32798	32876	
4544	0	32784	32844	
4545	0	32780	32730	
4546	0	32796	32775	
4547	0	32868	32902	
4548	0	32752	32791	
4549	0	32808	32722	
4550	0	32834	32728	
4551	0	32870	32752	
4552	0	32688	32820	
4553	0	32758	32828	
4554	0	32903	32824	
4555	0	32928	32800	
4556	0	32886	32847	
4557	0	32756	32788	
4558	0	32776	32794	
4559	0	32628	32724	
4560	0	32756	32740	
4561	0	32762	32839	
4562	0	32808	32930	
4563	0	32894	32868	
4564	0	32920	32759	
4565	0	32896	32791	
4566	0	32894	32820	
4567	0	32894	32727	
4568	0	32886	32711	
4569	0	32850	32806	
4570	0	32840	32870	
4571	0	32800	32804	
4572	0	32804	32800	
4573	0	32868	32816	
4574	0	32912	32852	
4575	0	32910	32808	
4576	0	32912	32770	
4577	0	32828	32714	
4578	0	32816	32608	
4579	0	32822	32732	
4580	0	32864	32758	
4581	0	32866	32876	
4582	0	32789	32816	
4583	0	32804	32815	
4584	0	32838	32871	
4585	0	32854	32838	
4586	0	32884	32725	
4587	0	32872	32798	
4588	0	32898	32696	
4589	0	32832	32736	
4590	0	32780	32902	
4591	0	32932	32814	
4592	0	32894	32790	
4593	0	32820	32806	
4594	0	32856	32802	
4595	0	32832	32836	
4596	0	32772	32863	
4597	0	32744	32716	
4598	0	32720	32775	
4599	0	32760	32796	
4600	0	32688	32804	
4601	0	32704	32726	
4602	0	32744	32706	
4603	0	32672	32879	
4604	0	32746	32748	
4605	0	32756	32868	
4606	0	32808	32775	
4607	0	32760	32846	
4608	0	32783	32693	
4609	0	32792	32794	
4610	0	32936	32858	
4611	0	32854	32775	
4612	0	32820	32772	
4613	0	32810	32775	
4614	0	32880	32902	
4615	0	32960	32775	
4616	0	32940	32718	
4617	0	32956	32768	
4618	0	32982	32784	
4619	0	32846	32868	
4620	0	32740	32726	
4621	0	32748	32784	
4622	0	32704	32670	
4623	0	32760	32802	
4624	0	32700	32784	
4625	0	32836	32839	
4626	0	32852	32752	
4627	0	32912	32862	
4628	0	32856	32746	
4629	0	32876	32839	
4630	0	32854	32775	
4631	0	32842	32730	
4632	0	32868	32735	
4633	0	32808	32732	
4634	0	32830	32734	
4635	0	32770	32711	
4636	0	32788	32678	
4637	0	32868	32756	
4638	0	32872	32748	
4639	0	32897	32758	
4640	0	32892	32746	
4641	0	32818	32852	
4642	0	32750	32748	
4643	0	32788	32806	
4644	0	32806	32720	
4645	0	32748	32772	
4646	0	32774	32698	
4647	0	32870	32772	
4648	0	32798	32650	
4649	0	32826	32772	
4650	0	32862	32678	
4651	0	32804	32860	
4652	0	32832	32796	
4653	0	32832	32843	
4654	0	32900	32716	
4655	0	32838	32738	
4656	0	32832	32687	
4657	0	32956	32824	
4658	0	32866	32766	
4659	0	32764	32839	
4660	0	32832	32912	
4661	0	32798	32799	
4662	0	32724	32834	
4663	0	32696	32750	
4664	0	32680	32842	
4665	0	32676	32734	
4666	0	32692	32792	
4667	0	32788	32724	
4668	0	32804	32730	
4669	0	32772	32686	
4670	0	32724	32747	
4671	0	32768	32775	
4672	0	32808	32775	
4673	0	32868	32668	
4674	0	32876	32772	
4675	0	32846	32888	
4676	0	32890	32898	
4677	0	32896	32838	
4678	0	32928	32829	
4679	0	32894	32874	
4680	0	32864	32846	
4681	0	32958	32822	
4682	0	32848	32716	
4683	0	32936	32838	
4684	0	32918	32774	
4685	0	32904	32802	
4686	0	32776	32752	
4687	0	32644	32860	
4688	0	32718	32816	
4689	0	32726	32936	
4690	0	32725	32840	
4691	0	32760	32716	
4692	0	32828	32744	
4693	0	32818	32730	
4694	0	32836	32748	
4695	0	32820	32626	
4696	0	32808	32826	
4697	0	32780	32874	
4698	0	32820	32820	
4699	0	32804	32806	
4700	0	32828	32775	
4701	0	32840	32826	
4702	0	32854	32888	
4703	0	32852	32903	
4704	0	32836	32894	
4705	0	32944	32844	
4706	0	32897	32937	
4707	0	33004	32939	
4708	0	32988	32836	
4709	0	33020	32914	
4710	0	32992	32662	
4711	0	32836	32740	
4712	0	32896	32712	
4713	0	32757	32575	
4714	0	32688	32506	
4715	0	32700	32528	
4716	0	32658	32602	
4717	0	32588	32554	
4718	0	32600	32530	
4719	0	32644	32519	
4720	0	32620	32519	
4721	0	32736	32759	
4722	0	32820	32696	
4723	0	32824	32774	
4724	0	32892	32775	
4725	0	32840	32950	
4726	0	32808	32679	
4727	0	32762	32790	
4728	0	32896	32752	
4729	0	32896	32718	
4730	0	32954	32812	
4731	0	32892	32958	
4732	0	32906	32820	
4733	0	32908	32840	
4734	0	32956	32868	
4735	0	32928	32926	
4736	0	33002	32849	
4737	0	32966	32796	
4738	0	32904	32994	
4739	0	32884	32946	
4740	0	32916	32884	
4741	0	32944	32874	
4742	0	32846	32830	
4743	0	32837	32906	
4744	0	32752	32882	
4745	0	32662	32864	
4746	0	32792	32820	
4747	0	32744	32830	
4748	0	32708	32722	
4749	0	32776	32824	
4750	0	32848	32730	
4751	0	32848	32670	
4752	0	32840	32764	
4753	0	32852	32852	
4754	0	32872	32638	
4755	0	32860	32748	
4756	0	32808	32734	
4757	0	32812	32646	
4758	0	32852	32742	
4759	0	32886	32830	
4760	0	32866	32775	
4761	0	32830	32794	
4762	0	32884	32718	
4763	0	32836	32804	
4764	0	32776	32775	
4765	0	32836	32866	
4766	0	32830	32759	
4767	0	32772	32698	
4768	0	32732	32806	
4769	0	32716	32728	
4770	0	32760	32762	
4771	0	32868	32722	
4772	0	32742	32774	
4773	0	32812	32684	
4774	0	32918	32774	
4775	0	32820	32807	
4776	0	32826	32838	
4777	0	32822	32838	
4778	0	32900	32708	
4779	0	32884	32810	
4780	0	32816	32808	
4781	0	32748	32806	
4782	0	32720	32839	
4783	0	32766	32754	
4784	0	32718	32704	
4785	0	32764	32679	
4786	0	32852	32866	
4787	0	32808	32808	
4788	0	32828	32718	
4789	0	32820	32788	
4790	0	32876	32647	
4791	0	32796	32664	
4792	0	32802	32770	
4793	0	32794	32871	
4794	0	32772	32810	
4795	0	32801	32678	
4796	0	32872	32766	
4797	0	32834	32734	
4798	0	32874	32818	
4799	0	32824	32828	
4800	0	32948	32775	
4801	0	32932	32738	
4802	0	32832	32736	
4803	0	32760	32804	
4804	0	32800	32836	
4805	0	32804	32855	
4806	0	32758	32792	
4807	0	32806	32671	
4808	0	32820	32799	
4809	0	32864	32816	
4810	0	32786	32732	
4811	0	32820	32724	
4812	0	32844	32730	
4813	0	32772	32816	
4814	0	32808	32864	
4815	0	32704	32796	
4816	0	32804	32756	
4817	0	32764	32714	
4818	0	32748	32768	
4819	0	32752	32824	
4820	0	32826	32694	
4821	0	32790	32832	
4822	0	32756	32850	
4823	0	32772	32754	
4824	0	32860	32823	
4825	0	32850	32696	
4826	0	32896	32832	
4827	0	32740	32932	
4828	0	32814	32688	
4829	0	32758	32742	
4830	0	32798	32644	
4831	0	32816	32820	
4832	0	32872	32858	
4833	0	32796	32716	
4834	0	32820	32748	
4835	0	32860	32686	
4836	0	32844	32772	
4837	0	32828	32720	
4838	0	32770	32730	
4839	0	32789	32690	
4840	0	32798	32796	
4841	0	32742	32710	
4842	0	32846	32788	
4843	0	32844	32868	
4844	0	32774	32640	
4845	0	32812	32774	
4846	0	32788	32780	
4847	0	32788	32734	
4848	0	32804	32620	
4849	0	32772	32684	
4850	0	32880	32796	
4851	0	32832	32858	
4852	0	32820	32864	
4853	0	32862	32712	
4854	0	32862	32772	
4855	0	32888	32708	
4856	0	32860	32890	
4857	0	32840	32775	
4858	0	32866	32642	
4859	0	32856	32770	
4860	0	32804	32790	
4861	0	32742	32806	
4862	0	32836	32847	
4863	0	32800	32866	
4864	0	32836	32798	
4865	0	32828	32850	
4866	0	32812	32710	
4867	0	32758	32764	
4868	0	32794	32764	
4869	0	32718	32847	
4870	0	32732	32840	
4871	0	32748	32706	
4872	0	32798	32756	
4873	0	32908	32636	
4874	0	32892	32704	
4875	0	32864	32692	
4876	0	32864	32821	
4877	0	32832	32766	
4878	0	32864	32775	
4879	0	32860	32783	
4880	0	32820	32712	
4881	0	32856	32870	
4882	0	32800	32694	
4883	0	32796	32807	
4884	0	32852	32868	
4885	0	32792	32646	
4886	0	32736	32726	
4887	0	32804	32766	
4888	0	32876	32862	
4889	0	32964	32807	
4890	0	32832	32749	
4891	0	32756	32810	
4892	0	32840	32769	
4893	0	32776	32766	
4894	0	32800	32718	
4895	0	32792	32775	
4896	0	32784	32678	
4897	0	32860	32822	
4898	0	32880	32692	
4899	0	32920	32775	
4900	0	32820	32724	
4901	0	32836	32810	
4902	0	32816	32764	
4903	0	32792	32868	
4904	0	32712	32638	
4905	0	32772	32856	
4906	0	32894	32775	
4907	0	32896	32750	
4908	0	32944	32820	
4909	0	32840	32700	
4910	0	32865	32775	
4911	0	32804	32694	
4912	0	32812	32766	
4913	0	32780	32860	
4914	0	32804	32772	
4915	0	32764	32784	
4916	0	32824	32716	
4917	0	32775	32694	
4918	0	32880	32672	
4919	0	32836	32770	
4920	0	32810	32832	
4921	0	32836	32750	
4922	0	32780	32742	
4923	0	32688	32744	
4924	0	32736	32775	
4925	0	32788	32734	
4926	0	32760	32832	
4927	0	32808	32818	
4928	0	32812	32792	
4929	0	32854	32775	
4930	0	32832	32738	
4931	0	32775	32836	
4932	0	32820	32744	
4933	0	32800	32684	
4934	0	32810	32742	
4935	0	32824	32720	
4936	0	32868	32834	
4937	0	32820	32702	
4938	0	32738	32660	
4939	0	32784	32684	
4940	0	32852	32700	
4941	0	32778	32830	
4942	0	32790	32836	
4943	0	32748	32790	
4944	0	32764	32775	
4945	0	32790	32698	
4946	0	32768	32792	
4947	0	32794	32736	
4948	0	32894	32710	
4949	0	32764	32754	
4950	0	32812	32786	
4951	0	32876	32702	
4952	0	32848	32790	
4953	0	32790	32702	
4954	0	32768	32772	
4955	0	32818	32746	
4956	0	32806	32756	
4957	0	32822	32719	
4958	0	32800	32872	
4959	0	32816	32824	
4960	0	32738	32834	
4961	0	32752	32824	
4962	0	32824	32918	
4963	0	32786	32808	
4964	0	32804	32839	
4965	0	32794	32832	
4966	0	32758	32796	
4967	0	32828	32747	
4968	0	32764	32686	
4969	0	32868	32755	
4970	0	32852	32644	
4971	0	32810	32730	
4972	0	32834	32766	
4973	0	32812	32807	
4974	0	32816	32847	
4975	0	32764	32786	
4976	0	32752	32830	
4977	0	32828	32734	
4978	0	32756	32793	
4979	0	32840	32748	
4980	0	32836	32759	
4981	0	32922	32732	
4982	0	32876	32836	
4983	0	32874	32734	
4984	0	32824	32864	
4985	0	32810	32708	
4986	0	32798	32743	
4987	0	32752	32732	
4988	0	32780	32742	
4989	0	32796	32766	
4990	0	32682	32758	
4991	0	32672	32750	
4992	0	32656	32692	
4993	0	32762	32764	
4994	0	32708	32724	
4995	0	32796	32788	
4996	0	32878	32791	
4997	0	32824	32744	
4998	0	32854	32807	
4999	0	32839	32792	
5000	0	32844	32738	
5001	0	32904	32796	
5002	0	32864	32658	
5003	0	32842	32836	
5004	0	32900	32764	
5005	0	32844	32775	
5006	0	32800	32807	
5007	0	32772	32732	
5008	0	32792	32689	
5009	0	32780	32750	
5010	0	32742	32710	
5011	0	32828	32676	
5012	0	32852	32852	
5013	0	32882	32814	
5014	0	32812	32801	
5015	0	32798	32792	
5016	0	32860	32766	
5017	0	32864	32760	
5018	0	32752	32608	
5019	0	32700	32807	
5020	0	32788	32770	
5021	0	32710	32798	
5022	0	32776	32810	
5023	0	32754	32768	
5024	0	32800	32775	
5025	0	32926	32754	
5026	0	32872	32834	
5027	0	32834	32772	
5028	0	32794	32712	
5029	0	32764	32750	
5030	0	32692	32710	
5031	0	32828	32794	
5032	0	32800	32796	
5033	0	32776	32775	
5034	0	32830	32791	
5035	0	32870	32828	
5036	0	32774	32792	
5037	0	32908	32688	
5038	0	32830	32812	
5039	0	32774	32760	
5040	0	32775	32724	
5041	0	32848	32774	
5042	0	32796	32676	
5043	0	32776	32807	
5044	0	32790	32684	
5045	0	32852	32794	
5046	0	32800	32782	
5047	0	32752	32796	
5048	0	32808	32825	
5049	0	32856	32698	
5050	0	32880	32734	
5051	0	32772	32682	
5052	0	32744	32846	
5053	0	32836	32824	
5054	0	32764	32798	
5055	0	32780	32756	
5056	0	32828	32791	
5057	0	32892	32767	
5058	0	32854	32756	
5059	0	32844	32812	
5060	0	32752	32647	
5061	0	32768	32666	
5062	0	32812	32724	
5063	0	32740	32770	
5064	0	32838	32815	
5065	0	32808	32775	
5066	0	32768	32743	
5067	0	32862	32758	
5068	0	32798	32676	
5069	0	32826	32768	
5070	0	32834	32666	
5071	0	32872	32836	
5072	0	32844	32720	
5073	0	32798	32787	
5074	0	32830	32806	
5075	0	32848	32700	
5076	0	32792	32752	
5077	0	32789	32738	
5078	0	32800	32792	
5079	0	32828	32768	
5080	0	32824	32768	
5081	0	32876	32818	
5082	0	32774	32798	
5083	0	32814	32887	
5084	0	32732	32670	
5085	0	32698	32770	
5086	0	32746	32648	
5087	0	32732	32775	
5088	0	32727	32762	
5089	0	32898	32834	
5090	0	32820	32620	
5091	0	32836	32736	
5092	0	32774	32710	
5093	0	32736	32750	
5094	0	32818	32834	
5095	0	32808	32770	
5096	0	32796	32807	
5097	0	32920	32650	
5098	0	32784	32798	
5099	0	32844	32858	
5100	0	32864	32730	
5101	0	32804	32775	
5102	0	32836	32730	
5103	0	32812	32807	
5104	0	32796	32704	
5105	0	32808	32775	
5106	0	32840	32702	
5107	0	32858	32738	
5108	0	32818	32664	
5109	0	32914	32700	
5110	0	32914	32876	
5111	0	32788	32794	
5112	0	32804	32826	
5113	0	32868	32712	
5114	0	32820	32766	
5115	0	32788	32695	
5116	0	32752	32839	
5117	0	32718	32842	
5118	0	32774	32642	
5119	0	32746	32700	
5120	0	32776	32757	
5121	0	32812	32768	
5122	0	32772	32852	
5123	0	32752	32812	
5124	0	32789	32839	
5125	0	32800	32748	
5126	0	32804	32730	
5127	0	32766	32692	
5128	0	32814	32808	
5129	0	32806	32804	
5130	0	32816	32692	
5131	0	32764	32775	
5132	0	32832	32704	
5133	0	32834	32842	
5134	0	32776	32708	
5135	0	32832	32806	
5136	0	32788	32790	
5137	0	32848	32740	
5138	0	32818	32746	
5139	0	32806	32828	
5140	0	32806	32744	
5141	0	32740	32802	
5142	0	32840	32852	
5143	0	32830	32775	
5144	0	32824	32852	
5145	0	32746	32734	
5146	0	32750	32820	
5147	0	32844	32768	
5148	0	32842	32708	
5149	0	32828	32680	
5150	0	32874	32722	
5151	0	32756	32775	
5152	0	32800	32839	
5153	0	32804	32726	
5154	0	32826	32708	
5155	0	32752	32775	
5156	0	32840	32660	
5157	0	32732	32716	
5158	0	32762	32639	
5159	0	32784	32807	
5160	0	32753	32644	
5161	0	32814	32775	
5162	0	32786	32674	
5163	0	32804	32868	
5164	0	32760	32740	
5165	0	32904	32775	
5166	0	32848	32748	
5167	0	32876	32775	
5168	0	32832	32730	
5169	0	32776	32734	
5170	0	32772	32728	
5171	0	32756	32844	
5172	0	32782	32647	
5173	0	32824	32772	
5174	0	32820	32880	
5175	0	32879	32834	
5176	0	32874	32687	
5177	0	32816	32802	
5178	0	32796	32720	
5179	0	32832	32868	
5180	0	32734	32744	
5181	0	32780	32799	
5182	0	32824	32742	
5183	0	32849	32807	
5184	0	32844	32743	
5185	0	32812	32754	
5186	0	32790	32764	
5187	0	32748	32796	
5188	0	32858	32766	
5189	0	32816	32744	
5190	0	32774	32720	
5191	0	32734	32748	
5192	0	32764	32827	
5193	0	32814	32742	
5194	0	32832	32826	
5195	0	32836	32774	
5196	0	32816	32804	
5197	0	32838	32808	
5198	0	32768	32696	
5199	0	32756	32826	
5200	0	32796	32738	
5201	0	32824	32830	
5202	0	32820	32846	
5203	0	32782	32757	
5204	0	32878	32768	
5205	0	32832	32694	
5206	0	32832	32818	
5207	0	32748	32730	
5208	0	32780	32732	
5209	0	32860	32678	
5210	0	32744	32756	
5211	0	32770	32628	
5212	0	32828	32757	
5213	0	32828	32710	
5214	0	32774	32748	
5215	0	32720	32716	
5216	0	32806	32814	
5217	0	32764	32766	
5218	0	32772	32759	
5219	0	32780	32694	
5220	0	32750	32800	
5221	0	32808	32796	
5222	0	32888	32762	
5223	0	32840	32839	
5224	0	32760	32900	
5225	0	32812	32684	
5226	0	32770	32696	
5227	0	32822	32679	
5228	0	32860	32775	
5229	0	32820	32720	
5230	0	32794	32775	
5231	0	32862	32598	
5232	0	32876	32796	
5233	0	32846	32738	
5234	0	32820	32794	
5235	0	32912	32722	
5236	0	32826	32800	
5237	0	32764	32732	
5238	0	32766	32710	
5239	0	32744	32742	
5240	0	32708	32794	
5241	0	32748	32757	
5242	0	32780	32730	
5243	0	32832	32786	
5244	0	32804	32804	
5245	0	32862	32758	
5246	0	32792	32719	
5247	0	32782	32710	
5248	0	32756	32686	
5249	0	32792	32772	
5250	0	32775	32654	
5251	0	32820	32760	
5252	0	32800	32742	
5253	0	32844	32766	
5254	0	32738	32722	
5255	0	32836	32834	
5256	0	32790	32832	
5257	0	32848	32756	
5258	0	32806	32711	
5259	0	32778	32730	
5260	0	32824	32775	
5261	0	32800	32718	
5262	0	32784	32744	
5263	0	32784	32642	
5264	0	32788	32804	
5265	0	32772	32647	
5266	0	32844	32794	
5267	0	32812	32688	
5268	0	32798	32719	
5269	0	32772	32711	
5270	0	32802	32808	
5271	0	32832	32790	
5272	0	32816	32753	
5273	0	32788	32794	
5274	0	32734	32736	
5275	0	32836	32692	
5276	0	32806	32702	
5277	0	32788	32830	
5278	0	32814	32756	
5279	0	32818	32817	
5280	0	32874	32768	
5281	0	32840	32759	
5282	0	32808	32775	
5283	0	32794	32862	
5284	0	32778	32794	
5285	0	32880	32724	
5286	0	32816	32828	
5287	0	32828	32775	
5288	0	32780	32732	
5289	0	32778	32826	
5290	0	32758	32666	
5291	0	32752	32768	
5292	0	32854	32784	
5293	0	32818	32828	
5294	0	32800	32828	
5295	0	32890	32840	
5296	0	32840	32807	
5297	0	32828	32828	
5298	0	32856	32737	
5299	0	32856	32786	
5300	0	32818	32762	
5301	0	32792	32834	
5302	0	32842	32696	
5303	0	32776	32808	
5304	0	32780	32743	
5305	0	32768	32750	
5306	0	32752	32788	
5307	0	32824	32758	
5308	0	32862	32716	
5309	0	32810	32880	
5310	0	32870	32862	
5311	0	32836	32738	
5312	0	32810	32859	
5313	0	32797	32632	
5314	0	32784	32786	
5315	0	32858	32762	
5316	0	32782	32734	
5317	0	32816	32732	
5318	0	32802	32766	
5319	0	32840	32792	
5320	0	32868	32850	
5321	0	32804	32754	
5322	0	32804	32768	
5323	0	32776	32836	
5324	0	32746	32848	
5325	0	32700	32762	
5326	0	32768	32842	
5327	0	32712	32835	
5328	0	32832	32788	
5329	0	32764	32841	
5330	0	32872	32831	
5331	0	32786	32799	
5332	0	32754	32772	
5333	0	32846	32768	
5334	0	32784	32870	
5335	0	32828	32844	
5336	0	32868	32783	
5337	0	32864	32818	
5338	0	32796	32803	
5339	0	32820	32806	
5340	0	32804	32791	
5341	0	32826	32823	
5342	0	32820	32716	
5343	0	32858	32878	
5344	0	32884	32844	
5345	0	32800	32742	
5346	0	32810	32807	
5347	0	32868	32730	
5348	0	32868	32775	
5349	0	32756	32807	
5350	0	32772	32800	
5351	0	32780	32830	
5352	0	32848	32706	
5353	0	32860	32772	
5354	0	32868	32746	
5355	0	32830	32790	
5356	0	32854	32692	
5357	0	32908	32820	
5358	0	32872	32802	
5359	0	32814	32843	
5360	0	32842	32810	
5361	0	32776	32750	
5362	0	32776	32810	
5363	0	32736	32694	
5364	0	32776	32772	
5365	0	32748	32764	
5366	0	32774	32892	
5367	0	32732	32837	
5368	0	32804	32796	
5369	0	32844	32876	
5370	0	32868	32898	
5371	0	32880	32838	
5372	0	32870	32818	
5373	0	32868	32910	
5374	0	32912	32833	
5375	0	32968	32978	
5376	0	32914	32906	
5377	0	32984	32856	
5378	0	32810	32842	
5379	0	32752	32736	
5380	0	32672	32743	
5381	0	32604	32590	
5382	0	32600	32558	
5383	0	32646	32513	
5384	0	32696	32580	
5385	0	32772	32456	
5386	0	32746	32512	
5387	0	32740	32422	
5388	0	32680	32454	
5389	0	32724	32647	
5390	0	32756	32618	
5391	0	32852	32806	
5392	0	32868	32684	
5393	0	32852	32826	
5394	0	32904	32782	
5395	0	32936	32838	
5396	0	32736	32836	
5397	0	32840	32903	
5398	0	32782	32822	
5399	0	32776	32848	
5400	0	32824	32996	
5401	0	32804	32814	
5402	0	32812	32908	
5403	0	32872	32874	
5404	0	32878	32884	
5405	0	32876	32890	
5406	0	32872	32951	
5407	0	32888	32868	
5408	0	32886	32838	
5409	0	32868	32810	
5410	0	32876	32775	
5411	0	32838	32800	
5412	0	32868	32839	
5413	0	32774	32856	
5414	0	32776	32834	
5415	0	32864	32822	
5416	0	32820	32814	
5417	0	32868	32796	
5418	0	32834	32825	
5419	0	32820	32822	
5420	0	32820	32832	
5421	0	32862	32746	
5422	0	32740	32910	
5423	0	32824	32864	
5424	0	32844	32748	
5425	0	32847	32800	
5426	0	32864	32722	
5427	0	32840	32806	
5428	0	32800	32706	
5429	0	32810	32814	
5430	0	32790	32703	
5431	0	32760	32715	
5432	0	32800	32695	
5433	0	32752	32768	
5434	0	32720	32723	
5435	0	32704	32672	
5436	0	32748	32756	
5437	0	32892	32750	
5438	0	32828	32834	
5439	0	32830	32698	
5440	0	32820	32842	
5441	0	32774	32742	
5442	0	32848	32834	
5443	0	32896	32742	
5444	0	32896	32839	
5445	0	32884	32822	
5446	0	32802	32708	
5447	0	32828	32828	
5448	0	32726	32694	
5449	0	32796	32742	
5450	0	32772	32718	
5451	0	32772	32812	
5452	0	32792	32774	
5453	0	32912	32839	
5454	0	32782	32786	
5455	0	32792	32719	
5456	0	32814	32806	
5457	0	32828	32726	
5458	0	32812	32812	
5459	0	32818	32816	
5460	0	32816	32826	
5461	0	32848	32772	
5462	0	32864	32766	
5463	0	32796	32752	
5464	0	32772	32758	
5465	0	32778	32822	
5466	0	32814	32758	
5467	0	32808	32772	
5468	0	32840	32832	
5469	0	32796	32791	
5470	0	32884	32810	
5471	0	32886	32692	
5472	0	32828	32844	
5473	0	32840	32800	
5474	0	32828	32814	
5475	0	32814	32802	
5476	0	32870	32696	
5477	0	32804	32766	
5478	0	32784	32754	
5479	0	32766	32742	
5480	0	32788	32698	
5481	0	32782	32836	
5482	0	32776	32834	
5483	0	32736	32738	
5484	0	32870	32788	
5485	0	32820	32706	
5486	0	32780	32796	
5487	0	32868	32730	
5488	0	32846	32808	
5489	0	32839	32793	
5490	0	32834	32816	
5491	0	32764	32785	
5492	0	32824	32804	
5493	0	32808	32706	
5494	0	32830	32702	
5495	0	32818	32816	
5496	0	32872	32807	
5497	0	32780	32798	
5498	0	32838	32774	
5499	0	32832	32831	
5500	0	32852	32762	
5501	0	32852	32742	
5502	0	32828	32846	
5503	0	32776	32751	
5504	0	32784	32856	
5505	0	32792	32748	
5506	0	32792	32824	
5507	0	32812	32834	
5508	0	32775	32806	
5509	0	32788	32724	
5510	0	32880	32875	
5511	0	32860	32775	
5512	0	32800	32708	
5513	0	32810	32756	
5514	0	32848	32712	
5515	0	32768	32811	
5516	0	32862	32742	
5517	0	32750	32746	
5518	0	32778	32772	
5519	0	32810	32841	
5520	0	32816	32864	
5521	0	32816	32846	
5522	0	32812	32800	
5523	0	32794	32762	
5524	0	32824	32818	
5525	0	32850	32706	
5526	0	32790	32751	
5527	0	32804	32734	
5528	0	32830	32743	
5529	0	32840	32610	
5530	0	32836	32748	
5531	0	32860	32726	
5532	0	32838	32744	
5533	0	32872	32655	
5534	0	32774	32727	
5535	0	32778	32810	
5536	0	32804	32756	
5537	0	32740	32764	
5538	0	32732	32843	
5539	0	32732	32834	
5540	0	32820	32756	
5541	0	32860	32752	
5542	0	32868	32852	
5543	0	32880	32775	
5544	0	32856	32876	
5545	0	32812	32848	
5546	0	32758	32836	
5547	0	32772	32775	
5548	0	32816	32823	
5549	0	32820	32872	
5550	0	32882	32712	
5551	0	32820	32800	
5552	0	32838	32692	
5553	0	32784	32838	
5554	0	32852	32706	
5555	0	32824	32850	
5556	0	32810	32818	
5557	0	32736	32839	
5558	0	32796	32810	
5559	0	32768	32826	
5560	0	32832	32800	
5561	0	32796	32802	
5562	0	32836	32766	
5563	0	32824	32874	
5564	0	32816	32866	
5565	0	32892	32878	
5566	0	32884	32788	
5567	0	32840	32820	
5568	0	32800	32738	
5569	0	32772	32786	
5570	0	32756	32720	
5571	0	32762	32855	
5572	0	32673	32806	
5573	0	32708	32764	
5574	0	32824	32798	
5575	0	32826	32796	
5576	0	32870	32788	
5577	0	32836	32816	
5578	0	32812	32800	
5579	0	32864	32834	
5580	0	32796	32718	
5581	0	32762	32880	
5582	0	32806	32802	
5583	0	32816	32814	
5584	0	32824	32830	
5585	0	32786	32820	
5586	0	32800	32750	
5587	0	32808	32756	
5588	0	32796	32856	
5589	0	32842	32724	
5590	0	32822	32736	
5591	0	32896	32674	
5592	0	32786	32832	
5593	0	32808	32822	
5594	0	32820	32775	
5595	0	32794	32736	
5596	0	32828	32692	
5597	0	32830	32729	
5598	0	32788	32684	
5599	0	32840	32864	
5600	0	32842	32829	
5601	0	32848	32734	
5602	0	32816	32772	
5603	0	32775	32724	
5604	0	32752	32770	
5605	0	32812	32721	
5606	0	32824	32830	
5607	0	32782	32806	
5608	0	32860	32696	
5609	0	32806	32775	
5610	0	32746	32647	
5611	0	32816	32822	
5612	0	32864	32761	
5613	0	32828	32804	
5614	0	32832	32647	
5615	0	32800	32826	
5616	0	32736	32758	
5617	0	32808	32632	
5618	0	32848	32766	
5619	0	32744	32736	
5620	0	32804	32799	
5621	0	32816	32775	
5622	0	32806	32812	
5623	0	32894	32682	
5624	0	32844	32746	
5625	0	32806	32678	
5626	0	32812	32894	
5627	0	32816	32750	
5628	0	32776	32812	
5629	0	32798	32812	
5630	0	32726	32720	
5631	0	32836	32736	
5632	0	32740	32722	
5633	0	32764	32676	
5634	0	32818	32738	
5635	0	32798	32780	
5636	0	32904	32738	
5637	0	32806	32732	
5638	0	32780	32731	
5639	0	32776	32822	
5640	0	32776	32828	
5641	0	32826	32775	
5642	0	32824	32868	
5643	0	32844	32625	
5644	0	32820	32834	
5645	0	32784	32775	
5646	0	32822	32790	
5647	0	32768	32694	
5648	0	32800	32791	
5649	0	32828	32694	
5650	0	32784	32775	
5651	0	32806	32684	
5652	0	32904	32763	
5653	0	32858	32746	
5654	0	32834	32728	
5655	0	32836	32690	
5656	0	32856	32730	
5657	0	32776	32696	
5658	0	32824	32775	
5659	0	32808	32700	
5660	0	32820	32760	
5661	0	32804	32615	
5662	0	32768	32897	
5663	0	32744	32752	
5664	0	32810	32830	
5665	0	32822	32738	
5666	0	32856	32770	
5667	0	32876	32688	
5668	0	32836	32722	
5669	0	32850	32700	
5670	0	32804	32848	
5671	0	32756	32654	
5672	0	32852	32802	
5673	0	32820	32804	
5674	0	32836	32791	
5675	0	32776	32744	
5676	0	32750	32816	
5677	0	32852	32820	
5678	0	32765	32800	
5679	0	32828	32868	
5680	0	32800	32816	
5681	0	32804	32842	
5682	0	32748	32810	
5683	0	32818	32874	
5684	0	32848	32880	
5685	0	32738	32834	
5686	0	32798	32730	
5687	0	32832	32884	
5688	0	32800	32708	
5689	0	32824	32734	
5690	0	32860	32855	
5691	0	32886	32759	
5692	0	32818	32680	
5693	0	32828	32732	
5694	0	32844	32746	
5695	0	32808	32788	
5696	0	32814	32722	
5697	0	32844	32770	
5698	0	32760	32724	
5699	0	32856	32743	
5700	0	32768	32722	
5701	0	32784	32812	
5702	0	32698	32800	
5703	0	32756	32820	
5704	0	32832	32847	
5705	0	32788	32848	
5706	0	32880	32742	
5707	0	32872	32732	
5708	0	32836	32752	
5709	0	32828	32770	
5710	0	32858	32784	
5711	0	32792	32775	
5712	0	32848	32740	
5713	0	32808	32738	
5714	0	32816	32708	
5715	0	32792	32799	
5716	0	32876	32660	
5717	0	32864	32738	
5718	0	32880	32750	
5719	0	32828	32807	
5720	0	32814	32798	
5721	0	32820	32790	
5722	0	32756	32712	
5723	0	32722	32826	
5724	0	32744	32856	
5725	0	32774	32846	
5726	0	32758	32794	
5727	0	32816	32724	
5728	0	32774	32840	
5729	0	32896	32846	
5730	0	32820	32736	
5731	0	32856	32820	
5732	0	32764	32814	
5733	0	32752	32860	
5734	0	32792	32619	
5735	0	32820	32760	
5736	0	32848	32642	
5737	0	32788	32710	
5738	0	32804	32714	
5739	0	32880	32892	
5740	0	32844	32775	
5741	0	32847	32852	
5742	0	32740	32871	
5743	0	32840	32878	
5744	0	32778	32812	
5745	0	32816	32743	
5746	0	32752	32766	
5747	0	32784	32647	
5748	0	32880	32740	
5749	0	32884	32648	
5750	0	32820	32720	
5751	0	32860	32670	
5752	0	32821	32775	
5753	0	32794	32836	
5754	0	32812	32714	
5755	0	32904	32791	
5756	0	32816	32732	
5757	0	32880	32766	
5758	0	32932	32704	
5759	0	32808	32766	
5760	0	32783	32682	
5761	0	32798	32834	
5762	0	32684	32734	
5763	0	32810	32774	
5764	0	32730	32650	
5765	0	32788	32874	
5766	0	32784	32743	
5767	0	32752	32746	
5768	0	32804	32698	
5769	0	32844	32708	
5770	0	32858	32714	
5771	0	32830	32742	
5772	0	32848	32743	
5773	0	32772	32738	
5774	0	32834	32864	
5775	0	32772	32820	
5776	0	32732	32704	
5777	0	32776	32775	
5778	0	32794	32668	
5779	0	32824	32816	
5780	0	32824	32860	
5781	0	32748	32760	
5782	0	32752	32756	
5783	0	32832	32690	
5784	0	32844	32824	
5785	0	32804	32775	
5786	0	32828	32743	
5787	0	32872	32846	
5788	0	32822	32842	
5789	0	32808	32808	
5790	0	32772	32804	
5791	0	32824	32682	
5792	0	32820	32775	
5793	0	32852	32664	
5794	0	32788	32808	
5795	0	32848	32824	
5796	0	32878	32752	
5797	0	32868	32740	
5798	0	32823	32638	
5799	0	32750	32767	
5800	0	32756	32744	
5801	0	32768	32868	
5802	0	32692	32708	
5803	0	32798	32810	
5804	0	32810	32798	
5805	0	32872	32838	
5806	0	32908	32774	
5807	0	32848	32759	
5808	0	32764	32826	
5809	0	32878	32730	
5810	0	32798	32732	
5811	0	32808	32742	
5812	0	32816	32800	
5813	0	32880	32656	
5814	0	32852	32775	
5815	0	32832	32670	
5816	0	32772	32768	
5817	0	32800	32654	
5818	0	32764	32774	
5819	0	32772	32692	
5820	0	32818	32824	
5821	0	32896	32792	
5822	0	32788	32756	
5823	0	32808	32830	
5824	0	32756	32894	
5825	0	32738	32828	
5826	0	32772	32807	
5827	0	32822	32762	
5828	0	32810	32724	
5829	0	32836	32688	
5830	0	32800	32732	
5831	0	32730	32662	
5832	0	32816	32802	
5833	0	32828	32830	
5834	0	32780	32826	
5835	0	32784	32768	
5836	0	32824	32726	
5837	0	32870	32790	
5838	0	32908	32740	
5839	0	32804	32804	
5840	0	32842	32674	
5841	0	32800	32796	
5842	0	32782	32760	
5843	0	32820	32798	
5844	0	32794	32719	
5845	0	32782	32754	
5846	0	32754	32696	
5847	0	32766	32752	
5848	0	32782	32647	
5849	0	32778	32903	
5850	0	32736	32828	
5851	0	32836	32768	
5852	0	32800	32810	
5853	0	32800	32661	
5854	0	32884	32832	
5855	0	32846	32796	
5856	0	32824	32694	
5857	0	32820	32770	
5858	0	32812	32698	
5859	0	32828	32816	
5860	0	32802	32759	
5861	0	32860	32764	
5862	0	32754	32786	
5863	0	32828	32762	
5864	0	32824	32768	
5865	0	32840	32714	
5866	0	32834	32746	
5867	0	32868	32834	
5868	0	32836	32728	
5869	0	32842	32746	
5870	0	32816	32756	
5871	0	32794	32816	
5872	0	32788	32760	
5873	0	32812	32903	
5874	0	32812	32711	
5875	0	32828	32806	
5876	0	32820	32700	
5877	0	32862	32859	
5878	0	32782	32793	
5879	0	32796	32740	
5880	0	32774	32792	
5881	0	32828	32868	
5882	0	32828	32870	
5883	0	32788	32846	
5884	0	32852	32742	
5885	0	32768	32832	
5886	0	32840	32709	
5887	0	32812	32830	
5888	0	32842	32689	
5889	0	32800	32816	
5890	0	32782	32750	
5891	0	32710	32655	
5892	0	32780	32658	
5893	0	32804	32740	
5894	0	32840	32828	
5895	0	32824	32744	
5896	0	32820	32823	
5897	0	32806	32818	
5898	0	32740	32750	
5899	0	32752	32718	
5900	0	32742	32631	
5901	0	32822	32750	
5902	0	32844	32734	
5903	0	32852	32816	
5904	0	32852	32756	
5905	0	32856	32702	
5906	0	32800	32702	
5907	0	32852	32746	
5908	0	32762	32814	
5909	0	32856	32820	
5910	0	32796	32738	
5911	0	32796	32814	
5912	0	32784	32698	
5913	0	32796	32830	
5914	0	32808	32836	
5915	0	32798	32775	
5916	0	32848	32788	
5917	0	32820	32708	
5918	0	32884	32804	
5919	0	32928	32658	
5920	0	32849	32711	
5921	0	32804	32775	
5922	0	32782	32832	
5923	0	32752	32850	
5924	0	32800	32807	
5925	0	32840	32822	
5926	0	32860	32775	
5927	0	32780	32788	
5928	0	32832	32618	
5929	0	32776	32724	
5930	0	32802	32711	
5931	0	32798	32708	
5932	0	32726	32722	
5933	0	32732	32818	
5934	0	32812	32824	
5935	0	32804	32766	
5936	0	32792	32812	
5937	0	32868	32790	
5938	0	32772	32775	
5939	0	32814	32630	
5940	0	32832	32751	
5941	0	32836	32638	
5942	0	32720	32771	
5943	0	32806	32718	
5944	0	32782	32820	
5945	0	32792	32870	
5946	0	32790	32710	
5947	0	32852	32842	
5948	0	32812	32850	
5949	0	32808	32810	
5950	0	32852	32775	
5951	0	32776	32722	
5952	0	32752	32756	
5953	0	32884	32710	
5954	0	32876	32848	
5955	0	32792	32761	
5956	0	32836	32775	
5957	0	32792	32775	
5958	0	32836	32764	
5959	0	32806	32800	
5960	0	32830	32770	
5961	0	32798	32805	
5962	0	32818	32742	
5963	0	32770	32806	
5964	0	32806	32636	
5965	0	32836	32784	
5966	0	32816	32686	
5967	0	32780	32790	
5968	0	32824	32839	
5969	0	32784	32822	
5970	0	32824	32770	
5971	0	32824	32686	
5972	0	32752	32728	
5973	0	32800	32703	
5974	0	32864	32806	
5975	0	32802	32748	
5976	0	32748	32746	
5977	0	32838	32796	
5978	0	32816	32768	
5979	0	32864	32756	
5980	0	32760	32706	
5981	0	32836	32768	
5982	0	32852	32756	
5983	0	32824	32792	
5984	0	32758	32766	
5985	0	32839	32828	
5986	0	32764	32712	
5987	0	32780	32794	
5988	0	32746	32758	
5989	0	32720	32840	
5990	0	32778	32846	
5991	0	32860	32711	
5992	0	32834	32814	
5993	0	32796	32720	
5994	0	32912	32774	
5995	0	32884	32718	
5996	0	32786	32758	
5997	0	32854	32852	
5998	0	32866	32802	
5999	0	32832	32775	
6000	0	32792	32704	
6001	0	32782	32775	
6002	0	32784	32702	
6003	0	32692	32794	
6004	0	32796	32684	
6005	0	32836	32835	
6006	0	32902	32712	
6007	0	32880	32828	
6008	0	32836	32756	
6009	0	32814	32784	
6010	0	32840	32712	
6011	0	32836	32814	
6012	0	32804	32642	
