# OpenSignals Text File Format. Version 1
# {"00:07:80:8C:0A:39": {"position": 0, "device": "biosignalsplux", "device name": "00:07:80:8C:0A:39", "device connection": "BTH00:07:80:8C:0A:39", "sampling rate": 1000, "resolution": [16, 16], "firmware version": 776, "comments": "", "keywords": "", "mode": 0, "sync interval": 2, "date": "2023-3-17", "time": "14:44:31.115", "channels": [1, 2], "sensor": ["EMG", "EMG"], "label": ["CH1", "CH2"], "column": ["nSeq", "DI", "CH1", "CH2"], "special": [{"SpO2": [80, 40, 5, 4, 3, 3]}, {"SpO2": [80, 40, 5, 4, 3, 3]}, {"SpO2": [80, 40, 5, 4, 3, 3]}, {"SpO2": [80, 40, 5, 4, 3, 3]}, {"SpO2": [80, 40, 5, 4, 3, 3]}, {"SpO2": [80, 40, 5, 4, 3, 3]}, {"SpO2": [80, 40, 5, 4, 3, 3]}, {"SpO2": [80, 40, 5, 4, 3, 3]}], "digital IO": [0, 1], "sleeve color": ["gray", "yellow"], "convertedValues": 0}}
# EndOfHeader
0	0	32716	32791	
1	0	32760	32636	
2	0	32868	32796	
3	0	32864	32702	
4	0	32848	32810	
5	0	32820	32810	
6	0	32832	32748	
7	0	32796	32775	
8	0	32782	32775	
9	0	32828	32802	
10	0	32800	32759	
11	0	32854	32764	
12	0	32832	32798	
13	0	32804	32793	
14	0	32834	32700	
15	0	32804	32786	
16	0	32776	32737	
17	0	32772	32790	
18	0	32778	32722	
19	0	32840	32719	
20	0	32766	32679	
21	0	32788	32800	
22	0	32831	32775	
23	0	32764	32838	
24	0	32812	32646	
25	0	32770	32804	
26	0	32800	32798	
27	0	32806	32839	
28	0	32744	32729	
29	0	32840	32753	
30	0	32840	32714	
31	0	32872	32798	
32	0	32866	32836	
33	0	32808	32804	
34	0	32852	32730	
35	0	32792	32764	
36	0	32776	32804	
37	0	32786	32842	
38	0	32792	32704	
39	0	32900	32752	
40	0	32760	32682	
41	0	32772	32668	
42	0	32774	32732	
43	0	32820	32762	
44	0	32852	32732	
45	0	32868	32806	
46	0	32760	32864	
47	0	32822	32788	
48	0	32836	32830	
49	0	32870	32730	
50	0	32808	32737	
51	0	32752	32694	
52	0	32752	32830	
53	0	32782	32633	
54	0	32802	32814	
55	0	32828	32703	
56	0	32794	32761	
57	0	32770	32783	
58	0	32794	32775	
59	0	32872	32710	
60	0	32860	32711	
61	0	32784	32758	
62	0	32758	32798	
63	0	32849	32796	
64	0	32812	32842	
65	0	32846	32864	
66	0	32880	32794	
67	0	32822	32836	
68	0	32840	32772	
69	0	32846	32711	
70	0	32752	32770	
71	0	32820	32722	
72	0	32732	32836	
73	0	32756	32762	
74	0	32856	32748	
75	0	32778	32794	
76	0	32812	32814	
77	0	32810	32783	
78	0	32800	32804	
79	0	32834	32836	
80	0	32864	32788	
81	0	32814	32750	
82	0	32816	32868	
83	0	32872	32788	
84	0	32816	32814	
85	0	32764	32772	
86	0	32753	32743	
87	0	32794	32800	
88	0	32800	32850	
89	0	32884	32702	
90	0	32816	32668	
91	0	32828	32807	
92	0	32780	32785	
93	0	32761	32704	
94	0	32780	32847	
95	0	32858	32720	
96	0	32814	32754	
97	0	32796	32775	
98	0	32808	32808	
99	0	32822	32856	
100	0	32772	32762	
101	0	32798	32740	
102	0	32852	32823	
103	0	32840	32804	
104	0	32772	32791	
105	0	32896	32670	
106	0	32884	32808	
107	0	32822	32711	
108	0	32788	32826	
109	0	32776	32764	
110	0	32760	32762	
111	0	32806	32682	
112	0	32840	32712	
113	0	32796	32742	
114	0	32798	32782	
115	0	32814	32676	
116	0	32888	32772	
117	0	32793	32807	
118	0	32812	32708	
119	0	32808	32734	
120	0	32800	32694	
121	0	32726	32744	
122	0	32784	32730	
123	0	32726	32750	
124	0	32840	32774	
125	0	32800	32762	
126	0	32750	32722	
127	0	32828	32775	
128	0	32828	32735	
129	0	32820	32738	
130	0	32872	32687	
131	0	32862	32751	
132	0	32886	32678	
133	0	32810	32775	
134	0	32854	32712	
135	0	32804	32758	
136	0	32874	32746	
137	0	32778	32775	
138	0	32816	32684	
139	0	32828	32874	
140	0	32712	32732	
141	0	32738	32784	
142	0	32776	32710	
143	0	32796	32836	
144	0	32804	32710	
145	0	32808	32816	
146	0	32768	32759	
147	0	32864	32798	
148	0	32780	32839	
149	0	32818	32689	
150	0	32820	32775	
151	0	32820	32670	
152	0	32822	32791	
153	0	32784	32700	
154	0	32872	32774	
155	0	32836	32742	
156	0	32816	32856	
157	0	32794	32711	
158	0	32802	32830	
159	0	32800	32702	
160	0	32760	32775	
161	0	32796	32808	
162	0	32808	32746	
163	0	32838	32794	
164	0	32846	32775	
165	0	32752	32854	
166	0	32770	32622	
167	0	32834	32746	
168	0	32836	32680	
169	0	32808	32710	
170	0	32808	32746	
171	0	32780	32762	
172	0	32888	32756	
173	0	32828	32740	
174	0	32808	32839	
175	0	32730	32752	
176	0	32774	32826	
177	0	32840	32700	
178	0	32746	32804	
179	0	32780	32791	
180	0	32756	32838	
181	0	32816	32839	
182	0	32836	32882	
183	0	32884	32842	
184	0	32778	32826	
185	0	32896	32820	
186	0	32768	32736	
187	0	32768	32769	
188	0	32852	32727	
189	0	32838	32812	
190	0	32828	32823	
191	0	32878	32790	
192	0	32820	32788	
193	0	32808	32716	
194	0	32784	32762	
195	0	32796	32792	
196	0	32830	32820	
197	0	32838	32678	
198	0	32852	32854	
199	0	32816	32748	
200	0	32774	32760	
201	0	32882	32724	
202	0	32848	32775	
203	0	32756	32734	
204	0	32740	32839	
205	0	32792	32744	
206	0	32828	32828	
207	0	32852	32856	
208	0	32760	32711	
209	0	32788	32743	
210	0	32856	32632	
211	0	32812	32711	
212	0	32800	32602	
213	0	32814	32775	
214	0	32816	32708	
215	0	32804	32836	
216	0	32926	32762	
217	0	32864	32862	
218	0	32844	32816	
219	0	32784	32766	
220	0	32820	32726	
221	0	32802	32722	
222	0	32788	32775	
223	0	32848	32762	
224	0	32828	32839	
225	0	32856	32745	
226	0	32824	32764	
227	0	32840	32714	
228	0	32780	32756	
229	0	32750	32670	
230	0	32816	32768	
231	0	32842	32814	
232	0	32760	32684	
233	0	32804	32770	
234	0	32854	32642	
235	0	32808	32798	
236	0	32824	32676	
237	0	32800	32839	
238	0	32792	32873	
239	0	32772	32772	
240	0	32822	32775	
241	0	32816	32752	
242	0	32802	32807	
243	0	32832	32822	
244	0	32828	32902	
245	0	32824	32798	
246	0	32852	32756	
247	0	32866	32786	
248	0	32858	32720	
249	0	32868	32742	
250	0	32790	32702	
251	0	32884	32842	
252	0	32804	32728	
253	0	32840	32837	
254	0	32766	32702	
255	0	32836	32750	
256	0	32888	32817	
257	0	32792	32775	
258	0	32784	32830	
259	0	32772	32690	
260	0	32820	32740	
261	0	32772	32714	
262	0	32794	32789	
263	0	32780	32718	
264	0	32804	32812	
265	0	32820	32716	
266	0	32868	32748	
267	0	32838	32670	
268	0	32750	32756	
269	0	32774	32644	
270	0	32828	32826	
271	0	32752	32718	
272	0	32792	32796	
273	0	32884	32756	
274	0	32832	32680	
275	0	32798	32775	
276	0	32852	32814	
277	0	32792	32743	
278	0	32816	32678	
279	0	32860	32750	
280	0	32770	32664	
281	0	32788	32750	
282	0	32876	32702	
283	0	32808	32835	
284	0	32792	32708	
285	0	32872	32839	
286	0	32832	32674	
287	0	32820	32836	
288	0	32824	32820	
289	0	32792	32745	
290	0	32772	32612	
291	0	32776	32744	
292	0	32804	32712	
293	0	32772	32792	
294	0	32888	32798	
295	0	32808	32807	
296	0	32792	32807	
297	0	32808	32828	
298	0	32796	32736	
299	0	32748	32666	
300	0	32872	32692	
301	0	32826	32841	
302	0	32866	32884	
303	0	32780	32775	
304	0	32780	32784	
305	0	32872	32802	
306	0	32840	32740	
307	0	32794	32784	
308	0	32752	32711	
309	0	32744	32708	
310	0	32840	32740	
311	0	32832	32708	
312	0	32760	32711	
313	0	32841	32814	
314	0	32826	32732	
315	0	32762	32806	
316	0	32804	32768	
317	0	32778	32824	
318	0	32870	32775	
319	0	32852	32744	
320	0	32794	32830	
321	0	32830	32742	
322	0	32802	32764	
323	0	32820	32690	
324	0	32784	32792	
325	0	32876	32732	
326	0	32788	32806	
327	0	32832	32770	
328	0	32836	32828	
329	0	32820	32732	
330	0	32820	32804	
331	0	32740	32742	
332	0	32788	32774	
333	0	32820	32746	
334	0	32758	32710	
335	0	32822	32740	
336	0	32796	32714	
337	0	32808	32794	
338	0	32800	32722	
339	0	32802	32726	
340	0	32784	32756	
341	0	32756	32808	
342	0	32814	32720	
343	0	32804	32744	
344	0	32836	32676	
345	0	32814	32884	
346	0	32782	32678	
347	0	32816	32692	
348	0	32808	32670	
349	0	32832	32748	
350	0	32798	32730	
351	0	32840	32815	
352	0	32816	32855	
353	0	32832	32718	
354	0	32876	32775	
355	0	32792	32766	
356	0	32772	32727	
357	0	32766	32740	
358	0	32800	32790	
359	0	32832	32739	
360	0	32870	32790	
361	0	32836	32762	
362	0	32786	32820	
363	0	32786	32834	
364	0	32804	32636	
365	0	32764	32794	
366	0	32740	32698	
367	0	32822	32712	
368	0	32860	32687	
369	0	32828	32812	
370	0	32836	32812	
371	0	32842	32751	
372	0	32812	32815	
373	0	32860	32842	
374	0	32788	32740	
375	0	32804	32702	
376	0	32792	32758	
377	0	32784	32789	
378	0	32776	32769	
379	0	32840	32639	
380	0	32842	32816	
381	0	32740	32743	
382	0	32796	32786	
383	0	32744	32704	
384	0	32836	32850	
385	0	32871	32751	
386	0	32872	32782	
387	0	32816	32704	
388	0	32824	32786	
389	0	32848	32774	
390	0	32880	32836	
391	0	32784	32774	
392	0	32788	32775	
393	0	32782	32852	
394	0	32820	32746	
395	0	32801	32775	
396	0	32784	32706	
397	0	32814	32774	
398	0	32818	32734	
399	0	32792	32775	
400	0	32850	32790	
401	0	32808	32756	
402	0	32716	32831	
403	0	32832	32682	
404	0	32848	32839	
405	0	32828	32703	
406	0	32860	32744	
407	0	32874	32710	
408	0	32796	32704	
409	0	32852	32742	
410	0	32772	32796	
411	0	32784	32748	
412	0	32786	32838	
413	0	32854	32852	
414	0	32786	32802	
415	0	32840	32839	
416	0	32824	32716	
417	0	32768	32795	
418	0	32784	32628	
419	0	32796	32756	
420	0	32772	32646	
421	0	32800	32732	
422	0	32820	32679	
423	0	32740	32790	
424	0	32749	32836	
425	0	32820	32893	
426	0	32844	32774	
427	0	32824	32766	
428	0	32816	32754	
429	0	32886	32775	
430	0	32812	32806	
431	0	32836	32790	
432	0	32808	32871	
433	0	32884	32734	
434	0	32768	32686	
435	0	32846	32712	
436	0	32748	32740	
437	0	32900	32728	
438	0	32792	32774	
439	0	32752	32775	
440	0	32856	32828	
441	0	32796	32802	
442	0	32778	32760	
443	0	32812	32754	
444	0	32874	32743	
445	0	32816	32796	
446	0	32806	32892	
447	0	32752	32766	
448	0	32784	32806	
449	0	32804	32748	
450	0	32888	32743	
451	0	32876	32864	
452	0	32862	32702	
453	0	32816	32704	
454	0	32764	32664	
455	0	32772	32708	
456	0	32806	32743	
457	0	32824	32788	
458	0	32824	32806	
459	0	32836	32770	
460	0	32802	32815	
461	0	32812	32800	
462	0	32864	32768	
463	0	32852	32862	
464	0	32904	32676	
465	0	32804	32710	
466	0	32786	32702	
467	0	32836	32768	
468	0	32830	32807	
469	0	32832	32808	
470	0	32804	32702	
471	0	32786	32743	
472	0	32784	32689	
473	0	32822	32740	
474	0	32836	32798	
475	0	32764	32804	
476	0	32740	32817	
477	0	32780	32794	
478	0	32860	32812	
479	0	32834	32928	
480	0	32804	32790	
481	0	32820	32734	
482	0	32772	32703	
483	0	32768	32708	
484	0	32736	32796	
485	0	32808	32804	
486	0	32752	32750	
487	0	32814	32726	
488	0	32810	32802	
489	0	32846	32764	
490	0	32812	32756	
491	0	32792	32772	
492	0	32906	32792	
493	0	32832	32748	
494	0	32866	32736	
495	0	32836	32850	
496	0	32826	32660	
497	0	32800	32687	
498	0	32740	32644	
499	0	32806	32824	
500	0	32792	32734	
501	0	32832	32838	
502	0	32798	32775	
503	0	32784	32888	
504	0	32802	32679	
505	0	32884	32694	
506	0	32782	32750	
507	0	32800	32802	
508	0	32858	32750	
509	0	32864	32800	
510	0	32788	32799	
511	0	32808	32828	
512	0	32852	32767	
513	0	32802	32700	
514	0	32816	32848	
515	0	32808	32854	
516	0	32806	32775	
517	0	32820	32746	
518	0	32812	32807	
519	0	32796	32808	
520	0	32750	32764	
521	0	32864	32671	
522	0	32774	32742	
523	0	32759	32806	
524	0	32802	32852	
525	0	32856	32769	
526	0	32830	32830	
527	0	32852	32727	
528	0	32836	32686	
529	0	32796	32676	
530	0	32818	32796	
531	0	32793	32726	
532	0	32838	32759	
533	0	32881	32775	
534	0	32872	32728	
535	0	32824	32676	
536	0	32844	32702	
537	0	32836	32840	
538	0	32780	32727	
539	0	32874	32758	
540	0	32776	32852	
541	0	32748	32884	
542	0	32752	32822	
543	0	32724	32686	
544	0	32836	32758	
545	0	32818	32726	
546	0	32780	32872	
547	0	32846	32790	
548	0	32808	32788	
549	0	32876	32820	
550	0	32834	32700	
551	0	32806	32730	
552	0	32816	32639	
553	0	32776	32814	
554	0	32792	32842	
555	0	32862	32738	
556	0	32846	32752	
557	0	32764	32836	
558	0	32790	32696	
559	0	32796	32705	
560	0	32832	32732	
561	0	32870	32798	
562	0	32824	32812	
563	0	32796	32836	
564	0	32817	32838	
565	0	32790	32855	
566	0	32838	32802	
567	0	32866	32827	
568	0	32788	32790	
569	0	32738	32786	
570	0	32858	32732	
571	0	32884	32714	
572	0	32813	32708	
573	0	32821	32830	
574	0	32780	32876	
575	0	32832	32736	
576	0	32836	32756	
577	0	32812	32759	
578	0	32856	32842	
579	0	32822	32746	
580	0	32852	32756	
581	0	32876	32807	
582	0	32836	32796	
583	0	32860	32828	
584	0	32858	32816	
585	0	32816	32807	
586	0	32828	32868	
587	0	32785	32663	
588	0	32766	32708	
589	0	32810	32742	
590	0	32806	32638	
591	0	32860	32710	
592	0	32846	32746	
593	0	32884	32726	
594	0	32896	32970	
595	0	32876	32862	
596	0	32804	32856	
597	0	32892	32896	
598	0	32900	32960	
599	0	32814	32784	
600	0	32800	32700	
601	0	32800	32696	
602	0	32700	32576	
603	0	32624	32615	
604	0	32623	32498	
605	0	32673	32574	
606	0	32616	32460	
607	0	32644	32468	
608	0	32650	32385	
609	0	32636	32487	
610	0	32693	32548	
611	0	32828	32694	
612	0	32774	32798	
613	0	32756	32716	
614	0	32800	32810	
615	0	32832	32940	
616	0	32854	32775	
617	0	32836	32791	
618	0	32860	32908	
619	0	32888	32868	
620	0	32992	32898	
621	0	32964	32929	
622	0	32932	32936	
623	0	32896	32964	
624	0	32844	32894	
625	0	32878	32816	
626	0	32878	32775	
627	0	32874	32959	
628	0	32896	32887	
629	0	32994	32808	
630	0	32926	32858	
631	0	32866	32734	
632	0	32792	32775	
633	0	32824	32696	
634	0	32796	32744	
635	0	32784	32711	
636	0	32764	32772	
637	0	32778	32771	
638	0	32796	32804	
639	0	32816	32708	
640	0	32786	32742	
641	0	32800	32814	
642	0	32724	32772	
643	0	32768	32666	
644	0	32808	32815	
645	0	32756	32716	
646	0	32821	32750	
647	0	32780	32735	
648	0	32782	32754	
649	0	32860	32758	
650	0	32817	32794	
651	0	32828	32736	
652	0	32728	32796	
653	0	32812	32812	
654	0	32828	32743	
655	0	32808	32740	
656	0	32806	32784	
657	0	32822	32748	
658	0	32842	32668	
659	0	32864	32772	
660	0	32844	32844	
661	0	32780	32718	
662	0	32804	32794	
663	0	32780	32848	
664	0	32836	32720	
665	0	32864	32775	
666	0	32774	32804	
667	0	32856	32817	
668	0	32821	32812	
669	0	32792	32750	
670	0	32760	32786	
671	0	32832	32796	
672	0	32820	32839	
673	0	32849	32748	
674	0	32836	32700	
675	0	32852	32756	
676	0	32818	32831	
677	0	32748	32710	
678	0	32804	32784	
679	0	32784	32826	
680	0	32800	32728	
681	0	32792	32692	
682	0	32750	32814	
683	0	32828	32740	
684	0	32790	32708	
685	0	32816	32814	
686	0	32820	32775	
687	0	32760	32775	
688	0	32752	32786	
689	0	32842	32868	
690	0	32820	32710	
691	0	32800	32706	
692	0	32768	32796	
693	0	32740	32716	
694	0	32822	32686	
695	0	32812	32620	
696	0	32820	32767	
697	0	32804	32752	
698	0	32834	32768	
699	0	32872	32784	
700	0	32852	32679	
701	0	32786	32775	
702	0	32858	32807	
703	0	32812	32734	
704	0	32760	32792	
705	0	32828	32762	
706	0	32806	32743	
707	0	32760	32775	
708	0	32832	32803	
709	0	32766	32774	
710	0	32784	32825	
711	0	32780	32703	
712	0	32906	32660	
713	0	32756	32720	
714	0	32816	32842	
715	0	32798	32775	
716	0	32742	32766	
717	0	32796	32796	
718	0	32828	32863	
719	0	32876	32708	
720	0	32826	32686	
721	0	32808	32740	
722	0	32824	32814	
723	0	32834	32764	
724	0	32832	32852	
725	0	32796	32702	
726	0	32808	32740	
727	0	32852	32851	
728	0	32800	32792	
729	0	32772	32808	
730	0	32788	32820	
731	0	32866	32756	
732	0	32826	32647	
733	0	32836	32820	
734	0	32806	32766	
735	0	32840	32764	
736	0	32816	32812	
737	0	32846	32768	
738	0	32832	32734	
739	0	32814	32720	
740	0	32784	32814	
741	0	32800	32870	
742	0	32806	32798	
743	0	32844	32791	
744	0	32808	32775	
745	0	32804	32822	
746	0	32836	32728	
747	0	32756	32718	
748	0	32802	32828	
749	0	32808	32778	
750	0	32800	32726	
751	0	32856	32834	
752	0	32826	32678	
753	0	32840	32679	
754	0	32796	32750	
755	0	32824	32732	
756	0	32812	32740	
757	0	32810	32841	
758	0	32856	32734	
759	0	32828	32654	
760	0	32862	32832	
761	0	32832	32836	
762	0	32810	32814	
763	0	32852	32706	
764	0	32768	32775	
765	0	32784	32712	
766	0	32748	32774	
767	0	32792	32868	
768	0	32828	32775	
769	0	32780	32796	
770	0	32812	32857	
771	0	32774	32792	
772	0	32840	32731	
773	0	32784	32713	
774	0	32812	32734	
775	0	32832	32716	
776	0	32752	32756	
777	0	32832	32807	
778	0	32784	32772	
779	0	32824	32768	
780	0	32824	32832	
781	0	32792	32718	
782	0	32836	32744	
783	0	32750	32658	
784	0	32774	32750	
785	0	32832	32775	
786	0	32820	32796	
787	0	32820	32769	
788	0	32896	32724	
789	0	32816	32796	
790	0	32778	32775	
791	0	32748	32736	
792	0	32814	32810	
793	0	32800	32845	
794	0	32820	32794	
795	0	32788	32855	
796	0	32840	32815	
797	0	32840	32684	
798	0	32820	32754	
799	0	32800	32710	
800	0	32800	32674	
801	0	32836	32708	
802	0	32808	32695	
803	0	32830	32726	
804	0	32820	32775	
805	0	32888	32860	
806	0	32856	32702	
807	0	32842	32846	
808	0	32766	32706	
809	0	32824	32800	
810	0	32820	32798	
811	0	32732	32802	
812	0	32766	32673	
813	0	32756	32736	
814	0	32828	32751	
815	0	32772	32838	
816	0	32798	32855	
817	0	32796	32775	
818	0	32794	32816	
819	0	32786	32830	
820	0	32786	32702	
821	0	32790	32654	
822	0	32816	32630	
823	0	32844	32812	
824	0	32846	32868	
825	0	32776	32775	
826	0	32816	32746	
827	0	32775	32736	
828	0	32882	32824	
829	0	32798	32674	
830	0	32848	32698	
831	0	32820	32744	
832	0	32765	32692	
833	0	32892	32830	
834	0	32808	32820	
835	0	32772	32748	
836	0	32804	32764	
837	0	32832	32759	
838	0	32780	32775	
839	0	32804	32754	
840	0	32804	32830	
841	0	32782	32830	
842	0	32794	32678	
843	0	32856	32704	
844	0	32880	32750	
845	0	32826	32774	
846	0	32812	32775	
847	0	32872	32870	
848	0	32840	32760	
849	0	32740	32822	
850	0	32736	32774	
851	0	32826	32736	
852	0	32808	32775	
853	0	32784	32824	
854	0	32786	32844	
855	0	32764	32748	
856	0	32740	32660	
857	0	32844	32682	
858	0	32832	32689	
859	0	32848	32708	
860	0	32884	32764	
861	0	32796	32737	
862	0	32796	32768	
863	0	32826	32764	
864	0	32858	32775	
865	0	32818	32764	
866	0	32734	32762	
867	0	32848	32775	
868	0	32792	32800	
869	0	32826	32724	
870	0	32820	32789	
871	0	32788	32807	
872	0	32724	32700	
873	0	32780	32756	
874	0	32748	32750	
875	0	32792	32664	
876	0	32768	32775	
877	0	32800	32847	
878	0	32812	32835	
879	0	32798	32820	
880	0	32736	32718	
881	0	32802	32742	
882	0	32924	32784	
883	0	32816	32756	
884	0	32850	32855	
885	0	32852	32775	
886	0	32788	32746	
887	0	32876	32730	
888	0	32770	32694	
889	0	32768	32767	
890	0	32818	32655	
891	0	32844	32692	
892	0	32794	32676	
893	0	32792	32712	
894	0	32816	32755	
895	0	32840	32839	
896	0	32784	32740	
897	0	32804	32828	
898	0	32774	32798	
899	0	32820	32792	
900	0	32788	32846	
901	0	32828	32824	
902	0	32800	32775	
903	0	32784	32775	
904	0	32832	32734	
905	0	32836	32815	
906	0	32816	32770	
907	0	32840	32862	
908	0	32860	32826	
909	0	32888	32806	
910	0	32849	32704	
911	0	32768	32702	
912	0	32834	32714	
913	0	32804	32848	
914	0	32748	32864	
915	0	32784	32756	
916	0	32860	32812	
917	0	32777	32846	
918	0	32796	32762	
919	0	32788	32676	
920	0	32798	32668	
921	0	32824	32728	
922	0	32808	32786	
923	0	32808	32823	
924	0	32822	32808	
925	0	32816	32791	
926	0	32792	32762	
927	0	32768	32775	
928	0	32828	32684	
929	0	32784	32711	
930	0	32792	32708	
931	0	32800	32830	
932	0	32840	32774	
933	0	32804	32647	
934	0	32828	32748	
935	0	32768	32798	
936	0	32768	32732	
937	0	32888	32772	
938	0	32840	32775	
939	0	32752	32775	
940	0	32820	32871	
941	0	32769	32890	
942	0	32848	32772	
943	0	32792	32822	
944	0	32856	32790	
945	0	32868	32698	
946	0	32762	32760	
947	0	32856	32742	
948	0	32752	32658	
949	0	32808	32810	
950	0	32796	32812	
951	0	32824	32710	
952	0	32864	32814	
953	0	32784	32868	
954	0	32796	32642	
955	0	32796	32687	
956	0	32832	32672	
957	0	32858	32772	
958	0	32856	32678	
959	0	32842	32756	
960	0	32760	32775	
961	0	32790	32839	
962	0	32736	32760	
963	0	32826	32834	
964	0	32748	32748	
965	0	32860	32806	
966	0	32792	32744	
967	0	32814	32898	
968	0	32728	32803	
969	0	32856	32807	
970	0	32824	32732	
971	0	32854	32774	
972	0	32804	32729	
973	0	32820	32730	
974	0	32798	32714	
975	0	32782	32726	
976	0	32854	32784	
977	0	32838	32726	
978	0	32792	32807	
979	0	32820	32878	
980	0	32782	32840	
981	0	32812	32834	
982	0	32836	32812	
983	0	32878	32796	
984	0	32788	32835	
985	0	32828	32775	
986	0	32808	32736	
987	0	32856	32768	
988	0	32824	32716	
989	0	32800	32802	
990	0	32776	32768	
991	0	32820	32687	
992	0	32788	32732	
993	0	32880	32679	
994	0	32808	32647	
995	0	32804	32744	
996	0	32762	32692	
997	0	32812	32694	
998	0	32788	32618	
999	0	32824	32706	
1000	0	32868	32810	
1001	0	32816	32751	
1002	0	32828	32808	
1003	0	32828	32728	
1004	0	32794	32799	
1005	0	32792	32692	
1006	0	32768	32743	
1007	0	32815	32706	
1008	0	32844	32775	
1009	0	32828	32788	
1010	0	32804	32704	
1011	0	32798	32804	
1012	0	32838	32790	
1013	0	32792	32832	
1014	0	32838	32736	
1015	0	32854	32729	
1016	0	32888	32804	
1017	0	32838	32814	
1018	0	32820	32806	
1019	0	32780	32668	
1020	0	32832	32852	
1021	0	32802	32647	
1022	0	32800	32775	
1023	0	32770	32660	
1024	0	32896	32715	
1025	0	32793	32714	
1026	0	32732	32748	
1027	0	32804	32704	
1028	0	32792	32852	
1029	0	32816	32684	
1030	0	32880	32740	
1031	0	32808	32724	
1032	0	32808	32876	
1033	0	32836	32806	
1034	0	32761	32823	
1035	0	32794	32792	
1036	0	32812	32774	
1037	0	32854	32775	
1038	0	32792	32759	
1039	0	32832	32712	
1040	0	32888	32768	
1041	0	32808	32743	
1042	0	32740	32734	
1043	0	32810	32696	
1044	0	32778	32775	
1045	0	32838	32664	
1046	0	32828	32828	
1047	0	32780	32710	
1048	0	32796	32766	
1049	0	32838	32768	
1050	0	32836	32752	
1051	0	32854	32769	
1052	0	32796	32814	
1053	0	32832	32798	
1054	0	32816	32807	
1055	0	32832	32673	
1056	0	32774	32756	
1057	0	32880	32696	
1058	0	32874	32732	
1059	0	32814	32734	
1060	0	32844	32800	
1061	0	32772	32668	
1062	0	32774	32742	
1063	0	32792	32764	
1064	0	32820	32766	
1065	0	32788	32698	
1066	0	32810	32775	
1067	0	32856	32718	
1068	0	32808	32756	
1069	0	32770	32708	
1070	0	32894	32770	
1071	0	32836	32639	
1072	0	32752	32823	
1073	0	32848	32806	
1074	0	32775	32811	
1075	0	32812	32889	
1076	0	32837	32772	
1077	0	32768	32792	
1078	0	32752	32756	
1079	0	32762	32794	
1080	0	32848	32748	
1081	0	32832	32762	
1082	0	32878	32748	
1083	0	32832	32738	
1084	0	32820	32710	
1085	0	32836	32754	
1086	0	32858	32658	
1087	0	32754	32746	
1088	0	32788	32874	
1089	0	32836	32790	
1090	0	32852	32774	
1091	0	32816	32687	
1092	0	32784	32846	
1093	0	32856	32740	
1094	0	32864	32804	
1095	0	32806	32802	
1096	0	32768	32788	
1097	0	32788	32826	
1098	0	32856	32808	
1099	0	32846	32788	
1100	0	32730	32820	
1101	0	32794	32820	
1102	0	32836	32695	
1103	0	32772	32734	
1104	0	32778	32655	
1105	0	32744	32804	
1106	0	32830	32664	
1107	0	32802	32743	
1108	0	32864	32764	
1109	0	32818	32794	
1110	0	32804	32679	
1111	0	32724	32732	
1112	0	32800	32740	
1113	0	32760	32772	
1114	0	32836	32798	
1115	0	32794	32695	
1116	0	32836	32740	
1117	0	32814	32668	
1118	0	32816	32806	
1119	0	32890	32775	
1120	0	32752	32811	
1121	0	32820	32821	
1122	0	32766	32732	
1123	0	32816	32812	
1124	0	32790	32734	
1125	0	32828	32775	
1126	0	32812	32844	
1127	0	32816	32808	
1128	0	32722	32816	
1129	0	32836	32726	
1130	0	32808	32786	
1131	0	32802	32807	
1132	0	32846	32673	
1133	0	32860	32804	
1134	0	32880	32775	
1135	0	32842	32786	
1136	0	32792	32800	
1137	0	32822	32716	
1138	0	32810	32720	
1139	0	32788	32754	
1140	0	32780	32662	
1141	0	32788	32719	
1142	0	32778	32775	
1143	0	32804	32760	
1144	0	32816	32821	
1145	0	32816	32802	
1146	0	32760	32762	
1147	0	32804	32775	
1148	0	32868	32792	
1149	0	32858	32746	
1150	0	32888	32810	
1151	0	32868	32694	
1152	0	32836	32820	
1153	0	32788	32804	
1154	0	32850	32756	
1155	0	32754	32782	
1156	0	32808	32750	
1157	0	32794	32708	
1158	0	32764	32734	
1159	0	32804	32810	
1160	0	32860	32732	
1161	0	32780	32714	
1162	0	32804	32724	
1163	0	32752	32775	
1164	0	32768	32766	
1165	0	32860	32884	
1166	0	32804	32849	
1167	0	32824	32694	
1168	0	32860	32762	
1169	0	32746	32622	
1170	0	32858	32762	
1171	0	32774	32754	
1172	0	32862	32732	
1173	0	32846	32688	
1174	0	32784	32775	
1175	0	32846	32710	
1176	0	32824	32774	
1177	0	32820	32775	
1178	0	32839	32774	
1179	0	32754	32692	
1180	0	32844	32756	
1181	0	32848	32748	
1182	0	32788	32832	
1183	0	32810	32640	
1184	0	32826	32786	
1185	0	32800	32676	
1186	0	32824	32844	
1187	0	32876	32756	
1188	0	32794	32804	
1189	0	32772	32798	
1190	0	32816	32818	
1191	0	32782	32814	
1192	0	32788	32660	
1193	0	32796	32758	
1194	0	32790	32844	
1195	0	32836	32815	
1196	0	32850	32726	
1197	0	32858	32908	
1198	0	32780	32868	
1199	0	32812	32822	
1200	0	32776	32734	
1201	0	32826	32892	
1202	0	32828	32710	
1203	0	32902	32775	
1204	0	32784	32726	
1205	0	32736	32718	
1206	0	32840	32706	
1207	0	32790	32821	
1208	0	32794	32692	
1209	0	32788	32759	
1210	0	32758	32744	
1211	0	32802	32729	
1212	0	32808	32818	
1213	0	32820	32828	
1214	0	32840	32738	
1215	0	32872	32788	
1216	0	32816	32750	
1217	0	32772	32774	
1218	0	32814	32662	
1219	0	32792	32726	
1220	0	32760	32670	
1221	0	32828	32806	
1222	0	32792	32804	
1223	0	32806	32831	
1224	0	32792	32676	
1225	0	32848	32848	
1226	0	32816	32886	
1227	0	32798	32821	
1228	0	32812	32772	
1229	0	32804	32788	
1230	0	32820	32775	
1231	0	32882	32854	
1232	0	32810	32828	
1233	0	32860	32784	
1234	0	32788	32822	
1235	0	32746	32766	
1236	0	32836	32738	
1237	0	32848	32775	
1238	0	32788	32760	
1239	0	32828	32815	
1240	0	32778	32788	
1241	0	32760	32864	
1242	0	32820	32750	
1243	0	32784	32732	
1244	0	32786	32652	
1245	0	32858	32724	
1246	0	32788	32710	
1247	0	32800	32752	
1248	0	32818	32676	
1249	0	32760	32774	
1250	0	32808	32760	
1251	0	32846	32775	
1252	0	32804	32772	
1253	0	32832	32817	
1254	0	32808	32810	
1255	0	32884	32718	
1256	0	32816	32798	
1257	0	32868	32796	
1258	0	32810	32772	
1259	0	32830	32806	
1260	0	32824	32743	
1261	0	32766	32788	
1262	0	32832	32713	
1263	0	32788	32826	
1264	0	32796	32654	
1265	0	32824	32830	
1266	0	32800	32846	
1267	0	32800	32878	
1268	0	32948	32918	
1269	0	32824	32734	
1270	0	32844	32854	
1271	0	32760	32670	
1272	0	32864	32807	
1273	0	32832	32708	
1274	0	32784	32720	
1275	0	32788	32690	
1276	0	32828	32798	
1277	0	32852	32834	
1278	0	32864	32814	
1279	0	32804	32756	
1280	0	32808	32868	
1281	0	32824	32772	
1282	0	32848	32812	
1283	0	32884	32847	
1284	0	32902	32850	
1285	0	32912	32862	
1286	0	32952	32840	
1287	0	32856	32952	
1288	0	32932	32775	
1289	0	32844	32732	
1290	0	32796	32729	
1291	0	32778	32757	
1292	0	32824	32679	
1293	0	32606	32568	
1294	0	32720	32444	
1295	0	32588	32519	
1296	0	32664	32482	
1297	0	32650	32412	
1298	0	32612	32404	
1299	0	32612	32480	
1300	0	32636	32514	
1301	0	32708	32683	
1302	0	32772	32567	
1303	0	32760	32738	
1304	0	32852	32708	
1305	0	32848	32820	
1306	0	32810	32758	
1307	0	32976	32895	
1308	0	32836	32862	
1309	0	32856	32910	
1310	0	32938	32796	
1311	0	32946	32902	
1312	0	32900	32814	
1313	0	32972	32903	
1314	0	32868	32862	
1315	0	32842	32964	
1316	0	32890	32807	
1317	0	32872	32874	
1318	0	32834	32884	
1319	0	32872	32884	
1320	0	32802	32758	
1321	0	32808	32833	
1322	0	32896	32734	
1323	0	32794	32796	
1324	0	32808	32768	
1325	0	32860	32843	
1326	0	32820	32822	
1327	0	32812	32788	
1328	0	32824	32775	
1329	0	32876	32790	
1330	0	32752	32775	
1331	0	32784	32806	
1332	0	32776	32768	
1333	0	32816	32775	
1334	0	32782	32732	
1335	0	32744	32838	
1336	0	32762	32766	
1337	0	32768	32788	
1338	0	32748	32775	
1339	0	32784	32708	
1340	0	32752	32800	
1341	0	32746	32638	
1342	0	32836	32839	
1343	0	32804	32818	
1344	0	32776	32804	
1345	0	32844	32802	
1346	0	32864	32714	
1347	0	32864	32898	
1348	0	32826	32663	
1349	0	32812	32751	
1350	0	32814	32644	
1351	0	32800	32710	
1352	0	32820	32631	
1353	0	32768	32702	
1354	0	32868	32628	
1355	0	32830	32756	
1356	0	32788	32826	
1357	0	32856	32844	
1358	0	32832	32806	
1359	0	32804	32722	
1360	0	32812	32790	
1361	0	32824	32812	
1362	0	32804	32864	
1363	0	32844	32818	
1364	0	32764	32612	
1365	0	32800	32755	
1366	0	32840	32724	
1367	0	32738	32820	
1368	0	32810	32860	
1369	0	32782	32849	
1370	0	32778	32752	
1371	0	32892	32756	
1372	0	32849	32726	
1373	0	32796	32632	
1374	0	32844	32694	
1375	0	32764	32814	
1376	0	32806	32804	
1377	0	32812	32700	
1378	0	32812	32764	
1379	0	32824	32731	
1380	0	32852	32775	
1381	0	32792	32804	
1382	0	32808	32704	
1383	0	32804	32734	
1384	0	32761	32772	
1385	0	32776	32807	
1386	0	32832	32775	
1387	0	32784	32804	
1388	0	32820	32886	
1389	0	32824	32722	
1390	0	32796	32762	
1391	0	32838	32692	
1392	0	32900	32828	
1393	0	32852	32775	
1394	0	32788	32722	
1395	0	32772	32686	
1396	0	32804	32682	
1397	0	32800	32764	
1398	0	32788	32711	
1399	0	32852	32900	
1400	0	32778	32828	
1401	0	32840	32764	
1402	0	32764	32726	
1403	0	32788	32758	
1404	0	32780	32820	
1405	0	32836	32839	
1406	0	32788	32688	
1407	0	32846	32858	
1408	0	32848	32647	
1409	0	32884	32775	
1410	0	32845	32766	
1411	0	32780	32791	
1412	0	32826	32832	
1413	0	32864	32700	
1414	0	32816	32871	
1415	0	32804	32750	
1416	0	32788	32716	
1417	0	32828	32752	
1418	0	32704	32828	
1419	0	32791	32834	
1420	0	32828	32708	
1421	0	32832	32760	
1422	0	32820	32686	
1423	0	32800	32720	
1424	0	32732	32774	
1425	0	32838	32772	
1426	0	32838	32748	
1427	0	32784	32766	
1428	0	32768	32718	
1429	0	32754	32707	
1430	0	32764	32668	
1431	0	32798	32706	
1432	0	32810	32814	
1433	0	32824	32767	
1434	0	32844	32803	
1435	0	32782	32746	
1436	0	32804	32775	
1437	0	32866	32760	
1438	0	32832	32871	
1439	0	32816	32910	
1440	0	32820	32839	
1441	0	32862	32748	
1442	0	32800	32676	
1443	0	32802	32732	
1444	0	32770	32794	
1445	0	32868	32762	
1446	0	32896	32903	
1447	0	32774	32896	
1448	0	32784	32678	
1449	0	32868	32802	
1450	0	32850	32743	
1451	0	32834	32847	
1452	0	32796	32770	
1453	0	32812	32766	
1454	0	32760	32722	
1455	0	32828	32775	
1456	0	32800	32750	
1457	0	32816	32756	
1458	0	32786	32806	
1459	0	32806	32750	
1460	0	32800	32820	
1461	0	32780	32766	
1462	0	32874	32775	
1463	0	32742	32772	
1464	0	32806	32862	
1465	0	32848	32820	
1466	0	32832	32802	
1467	0	32784	32768	
1468	0	32768	32728	
1469	0	32888	32828	
1470	0	32812	32900	
1471	0	32742	32708	
1472	0	32816	32804	
1473	0	32782	32661	
1474	0	32800	32830	
1475	0	32800	32697	
1476	0	32788	32842	
1477	0	32784	32688	
1478	0	32796	32819	
1479	0	32744	32835	
1480	0	32760	32772	
1481	0	32750	32744	
1482	0	32782	32774	
1483	0	32792	32811	
1484	0	32786	32700	
1485	0	32876	32866	
1486	0	32896	32864	
1487	0	32862	32668	
1488	0	32920	32752	
1489	0	32880	32708	
1490	0	32776	32774	
1491	0	32780	32683	
1492	0	32756	32794	
1493	0	32838	32702	
1494	0	32766	32724	
1495	0	32828	32714	
1496	0	32772	32858	
1497	0	32796	32775	
1498	0	32828	32764	
1499	0	32832	32796	
1500	0	32750	32892	
1501	0	32840	32808	
1502	0	32872	32738	
1503	0	32900	32734	
1504	0	32804	32724	
1505	0	32860	32799	
1506	0	32858	32676	
1507	0	32760	32806	
1508	0	32818	32752	
1509	0	32832	32879	
1510	0	32800	32688	
1511	0	32832	32756	
1512	0	32790	32762	
1513	0	32812	32734	
1514	0	32792	32826	
1515	0	32808	32839	
1516	0	32776	32878	
1517	0	32808	32832	
1518	0	32746	32880	
1519	0	32820	32850	
1520	0	32852	32852	
1521	0	32834	32804	
1522	0	32804	32831	
1523	0	32868	32738	
1524	0	32820	32775	
1525	0	32762	32820	
1526	0	32768	32908	
1527	0	32820	32844	
1528	0	32808	32780	
1529	0	32816	32798	
1530	0	32796	32742	
1531	0	32740	32718	
1532	0	32820	32812	
1533	0	32822	32660	
1534	0	32810	32846	
1535	0	32810	32634	
1536	0	32764	32772	
1537	0	32868	32686	
1538	0	32866	32820	
1539	0	32860	32871	
1540	0	32812	32807	
1541	0	32804	32853	
1542	0	32824	32759	
1543	0	32792	32910	
1544	0	32750	32872	
1545	0	32840	32822	
1546	0	32812	32866	
1547	0	32856	32838	
1548	0	32810	32802	
1549	0	32768	32720	
1550	0	32788	32726	
1551	0	32798	32662	
1552	0	32808	32823	
1553	0	32800	32762	
1554	0	32810	32814	
1555	0	32808	32708	
1556	0	32794	32806	
1557	0	32860	32762	
1558	0	32832	32862	
1559	0	32764	32740	
1560	0	32824	32828	
1561	0	32816	32714	
1562	0	32848	32766	
1563	0	32826	32683	
1564	0	32775	32762	
1565	0	32852	32732	
1566	0	32804	32730	
1567	0	32806	32688	
1568	0	32832	32770	
1569	0	32792	32728	
1570	0	32848	32792	
1571	0	32842	32703	
1572	0	32800	32738	
1573	0	32830	32650	
1574	0	32840	32814	
1575	0	32910	32736	
1576	0	32828	32772	
1577	0	32824	32718	
1578	0	32794	32836	
1579	0	32814	32804	
1580	0	32808	32804	
1581	0	32816	32768	
1582	0	32778	32842	
1583	0	32832	32819	
1584	0	32780	32819	
1585	0	32776	32775	
1586	0	32794	32810	
1587	0	32860	32824	
1588	0	32828	32710	
1589	0	32816	32751	
1590	0	32784	32634	
1591	0	32828	32775	
1592	0	32836	32764	
1593	0	32884	32828	
1594	0	32860	32822	
1595	0	32814	32860	
1596	0	32844	32846	
1597	0	32820	32775	
1598	0	32840	32799	
1599	0	32808	32770	
1600	0	32756	32810	
1601	0	32848	32840	
1602	0	32832	32790	
1603	0	32784	32860	
1604	0	32744	32830	
1605	0	32834	32768	
1606	0	32764	32746	
1607	0	32740	32852	
1608	0	32832	32807	
1609	0	32860	32798	
1610	0	32792	32782	
1611	0	32780	32672	
1612	0	32792	32823	
1613	0	32796	32704	
1614	0	32860	32767	
1615	0	32804	32814	
1616	0	32868	32814	
1617	0	32764	32870	
1618	0	32828	32844	
1619	0	32817	32836	
1620	0	32800	32773	
1621	0	32868	32854	
1622	0	32808	32748	
1623	0	32838	32794	
1624	0	32736	32664	
1625	0	32810	32676	
1626	0	32860	32694	
1627	0	32832	32734	
1628	0	32798	32726	
1629	0	32820	32804	
1630	0	32744	32775	
1631	0	32853	32836	
1632	0	32792	32636	
1633	0	32756	32794	
1634	0	32804	32911	
1635	0	32816	32788	
1636	0	32902	32752	
1637	0	32760	32668	
1638	0	32784	32775	
1639	0	32808	32702	
1640	0	32796	32700	
1641	0	32753	32714	
1642	0	32806	32758	
1643	0	32800	32719	
1644	0	32860	32827	
1645	0	32820	32734	
1646	0	32872	32856	
1647	0	32804	32916	
1648	0	32844	32784	
1649	0	32836	32806	
1650	0	32814	32676	
1651	0	32836	32750	
1652	0	32794	32676	
1653	0	32808	32764	
1654	0	32858	32650	
1655	0	32822	32828	
1656	0	32848	32760	
1657	0	32760	32872	
1658	0	32826	32736	
1659	0	32784	32816	
1660	0	32862	32652	
1661	0	32782	32838	
1662	0	32830	32694	
1663	0	32796	32710	
1664	0	32824	32692	
1665	0	32782	32766	
1666	0	32796	32696	
1667	0	32804	32756	
1668	0	32852	32766	
1669	0	32774	32752	
1670	0	32760	32832	
1671	0	32806	32736	
1672	0	32808	32788	
1673	0	32912	32746	
1674	0	32820	32834	
1675	0	32742	32704	
1676	0	32808	32810	
1677	0	32792	32709	
1678	0	32820	32792	
1679	0	32814	32798	
1680	0	32800	32806	
1681	0	32844	32712	
1682	0	32869	32764	
1683	0	32816	32854	
1684	0	32832	32714	
1685	0	32896	32746	
1686	0	32780	32796	
1687	0	32778	32842	
1688	0	32780	32852	
1689	0	32882	32798	
1690	0	32844	32834	
1691	0	32828	32844	
1692	0	32840	32716	
1693	0	32816	32843	
1694	0	32840	32720	
1695	0	32828	32730	
1696	0	32794	32774	
1697	0	32854	32762	
1698	0	32778	32702	
1699	0	32762	32768	
1700	0	32849	32674	
1701	0	32832	32788	
1702	0	32818	32822	
1703	0	32825	32832	
1704	0	32772	32820	
1705	0	32790	32744	
1706	0	32804	32740	
1707	0	32834	32850	
1708	0	32832	32788	
1709	0	32824	32712	
1710	0	32840	32848	
1711	0	32882	32766	
1712	0	32784	32738	
1713	0	32808	32660	
1714	0	32824	32746	
1715	0	32784	32689	
1716	0	32782	32806	
1717	0	32804	32775	
1718	0	32812	32836	
1719	0	32800	32720	
1720	0	32824	32758	
1721	0	32812	32705	
1722	0	32816	32758	
1723	0	32810	32705	
1724	0	32792	32816	
1725	0	32756	32737	
1726	0	32778	32798	
1727	0	32906	32828	
1728	0	32806	32760	
1729	0	32834	32890	
1730	0	32840	32807	
1731	0	32820	32812	
1732	0	32760	32832	
1733	0	32784	32742	
1734	0	32712	32775	
1735	0	32790	32775	
1736	0	32836	32759	
1737	0	32876	32814	
1738	0	32768	32743	
1739	0	32775	32814	
1740	0	32832	32638	
1741	0	32836	32807	
1742	0	32800	32829	
1743	0	32832	32808	
1744	0	32820	32764	
1745	0	32804	32745	
1746	0	32836	32852	
1747	0	32816	32734	
1748	0	32792	32748	
1749	0	32744	32724	
1750	0	32796	32830	
1751	0	32816	32743	
1752	0	32792	32810	
1753	0	32788	32687	
1754	0	32824	32760	
1755	0	32760	32647	
1756	0	32780	32780	
1757	0	32840	32620	
1758	0	32831	32822	
1759	0	32756	32848	
1760	0	32852	32738	
1761	0	32736	32790	
1762	0	32888	32772	
1763	0	32812	32815	
1764	0	32808	32824	
1765	0	32808	32882	
1766	0	32832	32782	
1767	0	32790	32768	
1768	0	32828	32832	
1769	0	32799	32746	
1770	0	32832	32764	
1771	0	32770	32804	
1772	0	32824	32814	
1773	0	32804	32798	
1774	0	32780	32788	
1775	0	32806	32732	
1776	0	32768	32775	
1777	0	32812	32801	
1778	0	32794	32679	
1779	0	32818	32716	
1780	0	32838	32828	
1781	0	32780	32868	
1782	0	32856	32654	
1783	0	32844	32756	
1784	0	32838	32868	
1785	0	32712	32828	
1786	0	32800	32692	
1787	0	32760	32806	
1788	0	32848	32762	
1789	0	32816	32872	
1790	0	32812	32646	
1791	0	32844	32702	
1792	0	32782	32748	
1793	0	32792	32762	
1794	0	32856	32708	
1795	0	32862	32740	
1796	0	32876	32775	
1797	0	32804	32692	
1798	0	32824	32646	
1799	0	32804	32799	
1800	0	32814	32682	
1801	0	32784	32760	
1802	0	32794	32686	
1803	0	32816	32824	
1804	0	32810	32742	
1805	0	32852	32768	
1806	0	32780	32754	
1807	0	32802	32874	
1808	0	32864	32748	
1809	0	32774	32839	
1810	0	32813	32812	
1811	0	32836	32786	
1812	0	32836	32775	
1813	0	32868	32814	
1814	0	32834	32830	
1815	0	32800	32798	
1816	0	32776	32878	
1817	0	32830	32820	
1818	0	32824	32828	
1819	0	32774	32876	
1820	0	32780	32874	
1821	0	32812	32788	
1822	0	32764	32736	
1823	0	32828	32804	
1824	0	32804	32708	
1825	0	32804	32792	
1826	0	32830	32746	
1827	0	32760	32759	
1828	0	32784	32814	
1829	0	32784	32878	
1830	0	32800	32814	
1831	0	32728	32694	
1832	0	32868	32675	
1833	0	32784	32748	
1834	0	32820	32790	
1835	0	32774	32711	
1836	0	32836	32799	
1837	0	32842	32652	
1838	0	32868	32848	
1839	0	32842	32710	
1840	0	32774	32824	
1841	0	32804	32775	
1842	0	32836	32775	
1843	0	32808	32810	
1844	0	32880	32719	
1845	0	32804	32766	
1846	0	32784	32710	
1847	0	32808	32796	
1848	0	32796	32743	
1849	0	32816	32714	
1850	0	32826	32734	
1851	0	32790	32723	
1852	0	32854	32823	
1853	0	32792	32729	
1854	0	32836	32724	
1855	0	32750	32676	
1856	0	32756	32742	
1857	0	32864	32652	
1858	0	32824	32794	
1859	0	32794	32788	
1860	0	32832	32854	
1861	0	32840	32702	
1862	0	32856	32900	
1863	0	32926	32846	
1864	0	32728	32835	
1865	0	32886	32775	
1866	0	32784	32686	
1867	0	32814	32736	
1868	0	32756	32739	
1869	0	32810	32774	
1870	0	32766	32888	
1871	0	32768	32825	
1872	0	32868	32700	
1873	0	32804	32752	
1874	0	32860	32692	
1875	0	32810	32793	
1876	0	32834	32806	
1877	0	32768	32775	
1878	0	32876	32759	
1879	0	32864	32762	
1880	0	32772	32724	
1881	0	32822	32718	
1882	0	32814	32775	
1883	0	32804	32738	
1884	0	32720	32692	
1885	0	32788	32730	
1886	0	32798	32647	
1887	0	32801	32774	
1888	0	32822	32670	
1889	0	32804	32670	
1890	0	32820	32732	
1891	0	32824	32854	
1892	0	32823	32850	
1893	0	32864	32880	
1894	0	32816	32733	
1895	0	32826	32670	
1896	0	32840	32756	
1897	0	32806	32788	
1898	0	32794	32852	
1899	0	32828	32820	
1900	0	32812	32614	
1901	0	32860	32818	
1902	0	32796	32700	
1903	0	32796	32816	
1904	0	32868	32796	
1905	0	32824	32814	
1906	0	32804	32858	
1907	0	32804	32751	
1908	0	32786	32828	
1909	0	32788	32703	
1910	0	32760	32789	
1911	0	32842	32727	
1912	0	32791	32826	
1913	0	32838	32754	
1914	0	32796	32798	
1915	0	32788	32775	
1916	0	32808	32802	
1917	0	32824	32754	
1918	0	32806	32808	
1919	0	32810	32775	
1920	0	32832	32679	
1921	0	32788	32822	
1922	0	32804	32728	
1923	0	32826	32763	
1924	0	32936	32722	
1925	0	32866	32714	
1926	0	32836	32728	
1927	0	32822	32846	
1928	0	32770	32720	
1929	0	32768	32750	
1930	0	32852	32702	
1931	0	32848	32792	
1932	0	32768	32768	
1933	0	32768	32806	
1934	0	32788	32812	
1935	0	32816	32870	
1936	0	32760	32767	
1937	0	32768	32832	
1938	0	32868	32853	
1939	0	32866	32719	
1940	0	32810	32770	
1941	0	32793	32676	
1942	0	32792	32796	
1943	0	32838	32660	
1944	0	32760	32718	
1945	0	32824	32640	
1946	0	32836	32764	
1947	0	32879	32804	
1948	0	32876	32700	
1949	0	32892	32720	
1950	0	32814	32792	
1951	0	32760	32775	
1952	0	32748	32668	
1953	0	32770	32756	
1954	0	32792	32746	
1955	0	32820	32775	
1956	0	32816	32798	
1957	0	32804	32852	
1958	0	32828	32818	
1959	0	32848	32720	
1960	0	32868	32838	
1961	0	32808	32712	
1962	0	32756	32831	
1963	0	32780	32668	
1964	0	32840	32854	
1965	0	32834	32850	
1966	0	32798	32806	
1967	0	32808	32844	
1968	0	32792	32833	
1969	0	32780	32834	
1970	0	32822	32740	
1971	0	32774	32742	
1972	0	32770	32704	
1973	0	32838	32788	
1974	0	32760	32670	
1975	0	32792	32805	
1976	0	32818	32880	
1977	0	32880	32812	
1978	0	32816	32817	
1979	0	32803	32801	
1980	0	32790	32826	
1981	0	32852	32892	
1982	0	32812	32860	
1983	0	32824	32870	
1984	0	32880	32762	
1985	0	32928	32897	
1986	0	32976	32852	
1987	0	32946	32934	
1988	0	32868	32766	
1989	0	32896	32846	
1990	0	32836	32839	
1991	0	32784	32743	
1992	0	32756	32694	
1993	0	32684	32536	
1994	0	32622	32503	
1995	0	32684	32439	
1996	0	32654	32454	
1997	0	32601	32524	
1998	0	32560	32428	
1999	0	32644	32394	
2000	0	32746	32519	
2001	0	32708	32550	
2002	0	32732	32775	
2003	0	32832	32792	
2004	0	32816	32786	
2005	0	32840	32772	
2006	0	32856	32852	
2007	0	32862	32834	
2008	0	32816	32859	
2009	0	32940	32839	
2010	0	32842	32962	
2011	0	32876	32886	
2012	0	32896	32927	
2013	0	32864	32832	
2014	0	32884	32927	
2015	0	32896	32854	
2016	0	32904	32930	
2017	0	32890	32964	
2018	0	32919	32750	
2019	0	32756	32839	
2020	0	32880	32806	
2021	0	32910	32854	
2022	0	32886	32791	
2023	0	32868	32746	
2024	0	32832	32758	
2025	0	32820	32727	
2026	0	32796	32730	
2027	0	32826	32646	
2028	0	32832	32734	
2029	0	32716	32716	
2030	0	32824	32800	
2031	0	32750	32801	
2032	0	32756	32686	
2033	0	32848	32824	
2034	0	32840	32679	
2035	0	32768	32750	
2036	0	32768	32686	
2037	0	32816	32754	
2038	0	32780	32720	
2039	0	32814	32812	
2040	0	32788	32748	
2041	0	32864	32802	
2042	0	32834	32747	
2043	0	32760	32802	
2044	0	32818	32855	
2045	0	32880	32836	
2046	0	32836	32794	
2047	0	32768	32818	
2048	0	32780	32807	
2049	0	32858	32794	
2050	0	32804	32792	
2051	0	32798	32742	
2052	0	32832	32836	
2053	0	32740	32772	
2054	0	32744	32855	
2055	0	32848	32858	
2056	0	32816	32792	
2057	0	32776	32788	
2058	0	32776	32762	
2059	0	32810	32807	
2060	0	32756	32799	
2061	0	32852	32714	
2062	0	32828	32762	
2063	0	32836	32807	
2064	0	32828	32688	
2065	0	32826	32810	
2066	0	32800	32894	
2067	0	32778	32814	
2068	0	32798	32876	
2069	0	32810	32788	
2070	0	32848	32836	
2071	0	32820	32807	
2072	0	32820	32852	
2073	0	32768	32859	
2074	0	32854	32830	
2075	0	32860	32735	
2076	0	32826	32766	
2077	0	32816	32766	
2078	0	32764	32823	
2079	0	32784	32844	
2080	0	32764	32802	
2081	0	32874	32848	
2082	0	32840	32686	
2083	0	32808	32850	
2084	0	32866	32734	
2085	0	32836	32832	
2086	0	32820	32775	
2087	0	32800	32866	
2088	0	32792	32748	
2089	0	32800	32806	
2090	0	32775	32652	
2091	0	32776	32820	
2092	0	32762	32730	
2093	0	32860	32830	
2094	0	32804	32728	
2095	0	32708	32806	
2096	0	32816	32800	
2097	0	32776	32810	
2098	0	32808	32754	
2099	0	32836	32820	
2100	0	32820	32858	
2101	0	32830	32704	
2102	0	32820	32932	
2103	0	32818	32708	
2104	0	32748	32771	
2105	0	32804	32678	
2106	0	32842	32702	
2107	0	32822	32686	
2108	0	32888	32821	
2109	0	32788	32740	
2110	0	32928	32740	
2111	0	32788	32743	
2112	0	32736	32807	
2113	0	32758	32708	
2114	0	32834	32876	
2115	0	32794	32810	
2116	0	32882	32831	
2117	0	32832	32854	
2118	0	32820	32658	
2119	0	32840	32766	
2120	0	32854	32798	
2121	0	32836	32828	
2122	0	32808	32775	
2123	0	32756	32747	
2124	0	32814	32813	
2125	0	32792	32692	
2126	0	32848	32758	
2127	0	32800	32752	
2128	0	32846	32784	
2129	0	32864	32708	
2130	0	32838	32824	
2131	0	32840	32734	
2132	0	32775	32810	
2133	0	32828	32698	
2134	0	32774	32773	
2135	0	32802	32799	
2136	0	32782	32804	
2137	0	32816	32839	
2138	0	32793	32848	
2139	0	32768	32810	
2140	0	32836	32750	
2141	0	32790	32791	
2142	0	32838	32726	
2143	0	32798	32744	
2144	0	32792	32698	
2145	0	32788	32724	
2146	0	32762	32590	
2147	0	32776	32792	
2148	0	32814	32766	
2149	0	32816	32734	
2150	0	32802	32694	
2151	0	32736	32714	
2152	0	32824	32766	
2153	0	32812	32750	
2154	0	32884	32686	
2155	0	32874	32775	
2156	0	32830	32870	
2157	0	32840	32828	
2158	0	32812	32820	
2159	0	32852	32704	
2160	0	32712	32634	
2161	0	32816	32698	
2162	0	32884	32761	
2163	0	32825	32807	
2164	0	32848	32806	
2165	0	32764	32866	
2166	0	32800	32806	
2167	0	32830	32807	
2168	0	32782	32730	
2169	0	32784	32764	
2170	0	32750	32792	
2171	0	32812	32852	
2172	0	32822	32716	
2173	0	32774	32604	
2174	0	32824	32694	
2175	0	32844	32638	
2176	0	32808	32700	
2177	0	32836	32759	
2178	0	32834	32638	
2179	0	32836	32742	
2180	0	32784	32692	
2181	0	32800	32772	
2182	0	32802	32799	
2183	0	32756	32858	
2184	0	32830	32894	
2185	0	32796	32775	
2186	0	32810	32766	
2187	0	32812	32828	
2188	0	32794	32774	
2189	0	32832	32796	
2190	0	32822	32836	
2191	0	32760	32790	
2192	0	32824	32823	
2193	0	32808	32766	
2194	0	32856	32806	
2195	0	32828	32804	
2196	0	32768	32788	
2197	0	32842	32848	
2198	0	32810	32838	
2199	0	32838	32852	
2200	0	32796	32691	
2201	0	32864	32762	
2202	0	32826	32746	
2203	0	32798	32758	
2204	0	32858	32807	
2205	0	32786	32750	
2206	0	32808	32736	
2207	0	32810	32812	
2208	0	32812	32839	
2209	0	32844	32730	
2210	0	32768	32734	
2211	0	32840	32672	
2212	0	32788	32706	
2213	0	32810	32663	
2214	0	32836	32807	
2215	0	32864	32806	
2216	0	32860	32694	
2217	0	32786	32705	
2218	0	32796	32823	
2219	0	32804	32852	
2220	0	32828	32788	
2221	0	32774	32839	
2222	0	32736	32756	
2223	0	32766	32804	
2224	0	32800	32828	
2225	0	32774	32898	
2226	0	32796	32804	
2227	0	32832	32852	
2228	0	32856	32874	
2229	0	32810	32708	
2230	0	32824	32762	
2231	0	32864	32655	
2232	0	32788	32852	
2233	0	32784	32860	
2234	0	32782	32828	
2235	0	32800	32762	
2236	0	32782	32611	
2237	0	32872	32824	
2238	0	32806	32756	
2239	0	32872	32807	
2240	0	32818	32706	
2241	0	32780	32714	
2242	0	32772	32706	
2243	0	32804	32734	
2244	0	32816	32826	
2245	0	32794	32832	
2246	0	32784	32799	
2247	0	32789	32670	
2248	0	32878	32826	
2249	0	32826	32692	
2250	0	32792	32743	
2251	0	32812	32662	
2252	0	32776	32828	
2253	0	32832	32650	
2254	0	32822	32836	
2255	0	32820	32758	
2256	0	32756	32758	
2257	0	32818	32858	
2258	0	32820	32796	
2259	0	32928	32732	
2260	0	32788	32850	
2261	0	32752	32836	
2262	0	32750	32894	
2263	0	32838	32780	
2264	0	32836	32714	
2265	0	32778	32766	
2266	0	32842	32708	
2267	0	32860	32756	
2268	0	32850	32650	
2269	0	32778	32808	
2270	0	32792	32718	
2271	0	32808	32792	
2272	0	32828	32670	
2273	0	32800	32836	
2274	0	32816	32772	
2275	0	32804	32830	
2276	0	32836	32786	
2277	0	32789	32756	
2278	0	32824	32756	
2279	0	32838	32730	
2280	0	32780	32770	
2281	0	32796	32788	
2282	0	32760	32870	
2283	0	32842	32850	
2284	0	32800	32862	
2285	0	32848	32679	
2286	0	32800	32775	
2287	0	32810	32714	
2288	0	32736	32810	
2289	0	32862	32740	
2290	0	32836	32844	
2291	0	32842	32660	
2292	0	32824	32715	
2293	0	32780	32716	
2294	0	32764	32708	
2295	0	32800	32820	
2296	0	32832	32876	
2297	0	32782	32826	
2298	0	32812	32812	
2299	0	32784	32708	
2300	0	32804	32734	
2301	0	32900	32674	
2302	0	32852	32775	
2303	0	32806	32725	
2304	0	32808	32818	
2305	0	32872	32790	
2306	0	32814	32775	
2307	0	32816	32700	
2308	0	32804	32844	
2309	0	32808	32740	
2310	0	32820	32858	
2311	0	32792	32692	
2312	0	32784	32729	
2313	0	32708	32679	
2314	0	32784	32727	
2315	0	32796	32726	
2316	0	32888	32786	
2317	0	32762	32832	
2318	0	32816	32841	
2319	0	32780	32806	
2320	0	32768	32744	
2321	0	32840	32775	
2322	0	32806	32692	
2323	0	32844	32748	
2324	0	32816	32710	
2325	0	32808	32815	
2326	0	32812	32671	
2327	0	32788	32796	
2328	0	32772	32694	
2329	0	32808	32746	
2330	0	32792	32814	
2331	0	32804	32864	
2332	0	32872	32742	
2333	0	32828	32775	
2334	0	32804	32708	
2335	0	32806	32794	
2336	0	32828	32790	
2337	0	32720	32768	
2338	0	32820	32746	
2339	0	32812	32720	
2340	0	32804	32812	
2341	0	32881	32702	
2342	0	32896	32756	
2343	0	32844	32788	
2344	0	32842	32802	
2345	0	32804	32724	
2346	0	32780	32759	
2347	0	32868	32774	
2348	0	32802	32744	
2349	0	32834	32752	
2350	0	32840	32831	
2351	0	32832	32913	
2352	0	32808	32802	
2353	0	32816	32794	
2354	0	32752	32679	
2355	0	32808	32743	
2356	0	32792	32722	
2357	0	32812	32764	
2358	0	32804	32718	
2359	0	32820	32680	
2360	0	32818	32720	
2361	0	32832	32775	
2362	0	32736	32768	
2363	0	32792	32878	
2364	0	32868	32775	
2365	0	32821	32788	
2366	0	32790	32798	
2367	0	32772	32730	
2368	0	32816	32836	
2369	0	32794	32752	
2370	0	32804	32767	
2371	0	32836	32689	
2372	0	32800	32766	
2373	0	32780	32699	
2374	0	32764	32746	
2375	0	32840	32630	
2376	0	32792	32775	
2377	0	32832	32679	
2378	0	32768	32710	
2379	0	32809	32712	
2380	0	32828	32804	
2381	0	32812	32775	
2382	0	32816	32878	
2383	0	32842	32866	
2384	0	32772	32798	
2385	0	32780	32736	
2386	0	32840	32830	
2387	0	32806	32942	
2388	0	32800	32942	
2389	0	32834	32763	
2390	0	32816	32738	
2391	0	32776	32751	
2392	0	32830	32738	
2393	0	32892	32722	
2394	0	32844	32722	
2395	0	32786	32700	
2396	0	32781	32663	
2397	0	32788	32676	
2398	0	32798	32826	
2399	0	32836	32738	
2400	0	32836	32838	
2401	0	32804	32775	
2402	0	32830	32874	
2403	0	32852	32730	
2404	0	32820	32742	
2405	0	32794	32644	
2406	0	32826	32846	
2407	0	32852	32804	
2408	0	32792	32710	
2409	0	32788	32788	
2410	0	32816	32695	
2411	0	32812	32666	
2412	0	32784	32743	
2413	0	32824	32812	
2414	0	32816	32638	
2415	0	32826	32740	
2416	0	32908	32794	
2417	0	32860	32756	
2418	0	32832	32654	
2419	0	32868	32682	
2420	0	32860	32728	
2421	0	32776	32647	
2422	0	32872	32624	
2423	0	32810	32694	
2424	0	32758	32798	
2425	0	32768	32838	
2426	0	32752	32910	
2427	0	32704	32790	
2428	0	32820	32884	
2429	0	32782	32824	
2430	0	32772	32742	
2431	0	32790	32814	
2432	0	32772	32824	
2433	0	32836	32862	
2434	0	32806	32887	
2435	0	32791	32834	
2436	0	32780	32823	
2437	0	32916	32738	
2438	0	32876	32758	
2439	0	32882	32646	
2440	0	32832	32660	
2441	0	32806	32656	
2442	0	32750	32643	
2443	0	32816	32708	
2444	0	32820	32730	
2445	0	32836	32622	
2446	0	32764	32775	
2447	0	32808	32796	
2448	0	32782	32844	
2449	0	32846	32882	
2450	0	32872	32812	
2451	0	32820	32775	
2452	0	32778	32740	
2453	0	32792	32716	
2454	0	32882	32786	
2455	0	32892	32753	
2456	0	32804	32759	
2457	0	32800	32775	
2458	0	32778	32660	
2459	0	32828	32724	
2460	0	32832	32690	
2461	0	32880	32647	
2462	0	32842	32726	
2463	0	32784	32775	
2464	0	32820	32868	
2465	0	32764	32774	
2466	0	32836	32822	
2467	0	32836	32755	
2468	0	32788	32847	
2469	0	32834	32785	
2470	0	32876	32820	
2471	0	32790	32784	
2472	0	32846	32768	
2473	0	32800	32700	
2474	0	32852	32640	
2475	0	32780	32655	
2476	0	32812	32728	
2477	0	32816	32698	
2478	0	32774	32736	
2479	0	32804	32828	
2480	0	32800	32828	
2481	0	32808	32814	
2482	0	32782	32737	
2483	0	32776	32752	
2484	0	32812	32772	
2485	0	32776	32740	
2486	0	32784	32791	
2487	0	32800	32815	
2488	0	32800	32804	
2489	0	32820	32802	
2490	0	32800	32754	
2491	0	32822	32812	
2492	0	32772	32816	
2493	0	32874	32775	
2494	0	32858	32812	
2495	0	32801	32692	
2496	0	32832	32798	
2497	0	32752	32810	
2498	0	32806	32796	
2499	0	32836	32860	
2500	0	32876	32886	
2501	0	32908	32720	
2502	0	33064	32756	
2503	0	33026	32710	
2504	0	33024	32671	
2505	0	32914	32564	
2506	0	32740	32686	
2507	0	32774	32838	
2508	0	32634	32902	
2509	0	32590	32972	
2510	0	32572	32924	
2511	0	32620	32846	
2512	0	32712	32904	
2513	0	32830	32814	
2514	0	32876	32637	
2515	0	32970	32656	
2516	0	32952	32624	
2517	0	32908	32742	
2518	0	32784	32608	
2519	0	32706	32624	
2520	0	32646	32630	
2521	0	32654	32548	
2522	0	32660	32712	
2523	0	32628	32880	
2524	0	32728	32850	
2525	0	32724	32879	
2526	0	32996	32860	
2527	0	33140	32911	
2528	0	33092	32978	
2529	0	33020	32830	
2530	0	32976	32887	
2531	0	32936	32814	
2532	0	32824	32710	
2533	0	32694	32607	
2534	0	32610	32591	
2535	0	32638	32646	
2536	0	32712	32604	
2537	0	32634	32646	
2538	0	32616	32796	
2539	0	32636	32775	
2540	0	32640	32871	
2541	0	32734	32881	
2542	0	32732	32842	
2543	0	32692	32816	
2544	0	32786	32710	
2545	0	32790	32822	
2546	0	32842	32794	
2547	0	32800	32852	
2548	0	32752	32774	
2549	0	32828	32662	
2550	0	32924	32693	
2551	0	32824	32752	
2552	0	32908	32871	
2553	0	32864	32967	
2554	0	32868	32871	
2555	0	32832	32732	
2556	0	32884	32700	
2557	0	32964	32700	
2558	0	32932	32686	
2559	0	32928	32806	
2560	0	32932	32823	
2561	0	32836	32764	
2562	0	32936	32798	
2563	0	32884	32800	
2564	0	32846	32685	
2565	0	32832	32696	
2566	0	32824	32725	
2567	0	32848	32746	
2568	0	32844	32832	
2569	0	32821	32775	
2570	0	32792	32756	
2571	0	32801	32760	
2572	0	32780	32743	
2573	0	32730	32792	
2574	0	32758	32799	
2575	0	32842	32844	
2576	0	32808	32656	
2577	0	32760	32775	
2578	0	32828	32846	
2579	0	32800	32784	
2580	0	32696	32871	
2581	0	32764	32828	
2582	0	32824	32655	
2583	0	32857	32762	
2584	0	32834	32706	
2585	0	32746	32671	
2586	0	32836	32640	
2587	0	32796	32650	
2588	0	32854	32868	
2589	0	32800	32874	
2590	0	32823	32728	
2591	0	32912	32724	
2592	0	32908	32612	
2593	0	32768	32708	
2594	0	32596	32686	
2595	0	32704	32729	
2596	0	32702	32848	
2597	0	32738	32842	
2598	0	32808	32690	
2599	0	32790	32862	
2600	0	32832	32935	
2601	0	32806	32860	
2602	0	32828	32926	
2603	0	32804	32814	
2604	0	32852	32768	
2605	0	32724	32745	
2606	0	32828	32736	
2607	0	32928	32775	
2608	0	33000	33028	
2609	0	32976	32978	
2610	0	33060	32898	
2611	0	33058	32616	
2612	0	32930	32284	
2613	0	32872	32423	
2614	0	32864	32602	
2615	0	32850	32606	
2616	0	32832	32944	
2617	0	32716	32950	
2618	0	32708	32775	
2619	0	32534	32759	
2620	0	32588	32740	
2621	0	32480	32753	
2622	0	32564	32708	
2623	0	32600	32580	
2624	0	32606	32798	
2625	0	32708	32855	
2626	0	32756	32903	
2627	0	32856	33050	
2628	0	32924	33258	
2629	0	32820	33019	
2630	0	32794	32698	
2631	0	32752	32775	
2632	0	32852	32720	
2633	0	32844	32679	
2634	0	32804	32374	
2635	0	32848	32386	
2636	0	32832	32835	
2637	0	32884	33004	
2638	0	32810	32848	
2639	0	32878	32775	
2640	0	33010	32826	
2641	0	32990	32602	
2642	0	32998	32580	
2643	0	32960	32566	
2644	0	32896	32734	
2645	0	32890	32775	
2646	0	32800	32678	
2647	0	32761	32738	
2648	0	32820	32723	
2649	0	32760	32874	
2650	0	32746	32758	
2651	0	32750	32707	
2652	0	32726	32838	
2653	0	32814	32774	
2654	0	32708	32596	
2655	0	32736	32727	
2656	0	32788	32712	
2657	0	32684	32850	
2658	0	32736	32775	
2659	0	32796	32812	
2660	0	32816	32884	
2661	0	32828	33031	
2662	0	32768	32724	
2663	0	32820	32734	
2664	0	32826	32740	
2665	0	32866	32738	
2666	0	32862	32768	
2667	0	32820	32718	
2668	0	32750	32684	
2669	0	32824	32742	
2670	0	32846	32658	
2671	0	32820	32678	
2672	0	32874	32692	
2673	0	32864	32820	
2674	0	32776	32966	
2675	0	32900	32914	
2676	0	32840	32770	
2677	0	32888	32994	
2678	0	32904	32956	
2679	0	32810	32964	
2680	0	32724	32932	
2681	0	32648	32772	
2682	0	32708	32810	
2683	0	32772	32670	
2684	0	32778	32530	
2685	0	32817	32631	
2686	0	32908	32724	
2687	0	32824	32672	
2688	0	32798	32703	
2689	0	32976	33024	
2690	0	32926	32798	
2691	0	32928	32785	
2692	0	32932	32998	
2693	0	32856	33050	
2694	0	32968	32862	
2695	0	33000	32830	
2696	0	32870	33080	
2697	0	32702	32936	
2698	0	32758	32423	
2699	0	32746	32046	
2700	0	32724	32288	
2701	0	32580	32340	
2702	0	32542	32320	
2703	0	32536	32634	
2704	0	32636	32634	
2705	0	32882	32620	
2706	0	32764	32760	
2707	0	32696	32974	
2708	0	32616	32850	
2709	0	32636	32838	
2710	0	32638	32868	
2711	0	32706	32898	
2712	0	32813	32924	
2713	0	32862	32620	
2714	0	32952	32622	
2715	0	32878	32647	
2716	0	32852	32718	
2717	0	32752	32954	
2718	0	32842	32879	
2719	0	32768	32948	
2720	0	32780	32888	
2721	0	32754	32978	
2722	0	32792	32807	
2723	0	32860	32878	
2724	0	32974	32903	
2725	0	32904	32697	
2726	0	32836	32647	
2727	0	32962	32704	
2728	0	33010	32967	
2729	0	33032	32890	
2730	0	32840	32710	
2731	0	32810	32710	
2732	0	32784	32839	
2733	0	32808	32684	
2734	0	32848	32730	
2735	0	33016	32854	
2736	0	33004	33003	
2737	0	32904	32657	
2738	0	32912	32664	
2739	0	32774	32900	
2740	0	32760	33124	
2741	0	32800	32908	
2742	0	32686	32693	
2743	0	32656	32641	
2744	0	32724	32534	
2745	0	32666	32472	
2746	0	32700	32478	
2747	0	32704	32670	
2748	0	32680	32871	
2749	0	32678	32838	
2750	0	32750	32679	
2751	0	32800	32604	
2752	0	32804	33014	
2753	0	32872	32938	
2754	0	32878	33000	
2755	0	32984	32935	
2756	0	32920	32324	
2757	0	32884	32358	
2758	0	32952	32703	
2759	0	32896	32899	
2760	0	32924	32886	
2761	0	32874	32775	
2762	0	32882	32848	
2763	0	32968	32628	
2764	0	33024	32815	
2765	0	32908	33070	
2766	0	32924	32924	
2767	0	32848	32794	
2768	0	32728	32786	
2769	0	32568	32656	
2770	0	32612	32716	
2771	0	32490	32422	
2772	0	32564	32564	
2773	0	32548	32886	
2774	0	32604	32806	
2775	0	32680	32918	
2776	0	32740	32775	
2777	0	32898	32596	
2778	0	32928	32630	
2779	0	33024	32868	
2780	0	33092	32868	
2781	0	33098	32852	
2782	0	32960	32847	
2783	0	32968	32754	
2784	0	32914	32500	
2785	0	32791	32602	
2786	0	32746	32823	
2787	0	32774	32918	
2788	0	32704	32740	
2789	0	32624	33016	
2790	0	32652	32890	
2791	0	32578	32954	
2792	0	32608	33010	
2793	0	32612	32756	
2794	0	32718	32402	
2795	0	32888	32308	
2796	0	32892	32788	
2797	0	32984	32548	
2798	0	32980	32246	
2799	0	32878	32244	
2800	0	32848	32956	
2801	0	32996	32976	
2802	0	32888	32895	
2803	0	32900	33119	
2804	0	32800	32976	
2805	0	32746	33270	
2806	0	32756	33191	
2807	0	32710	33134	
2808	0	32808	32708	
2809	0	32816	32490	
2810	0	32956	32943	
2811	0	32982	32928	
2812	0	32992	32628	
2813	0	32852	32700	
2814	0	33008	32678	
2815	0	32960	32550	
2816	0	32824	32583	
2817	0	32774	32766	
2818	0	32696	32858	
2819	0	32796	32808	
2820	0	32856	32588	
2821	0	32736	32711	
2822	0	32824	32372	
2823	0	32928	32407	
2824	0	32892	32640	
2825	0	32796	32684	
2826	0	32736	32894	
2827	0	32670	32452	
2828	0	32686	32510	
2829	0	32674	32936	
2830	0	32564	33282	
2831	0	32648	33567	
2832	0	32612	33496	
2833	0	32766	33190	
2834	0	32612	32864	
2835	0	32574	32591	
2836	0	32644	32500	
2837	0	32620	32623	
2838	0	32768	32594	
2839	0	32724	32452	
2840	0	32880	32400	
2841	0	32904	32278	
2842	0	32952	32380	
2843	0	33028	32836	
2844	0	33072	32576	
2845	0	33070	32752	
2846	0	33252	32872	
2847	0	33390	32884	
2848	0	33310	32852	
2849	0	32952	32750	
2850	0	32736	32808	
2851	0	32618	33166	
2852	0	32680	32988	
2853	0	32768	32820	
2854	0	32852	33104	
2855	0	32698	33332	
2856	0	32546	32748	
2857	0	32580	32044	
2858	0	32754	32606	
2859	0	32896	33190	
2860	0	33052	33060	
2861	0	32820	32834	
2862	0	32568	32680	
2863	0	32724	32324	
2864	0	32896	32258	
2865	0	32776	32602	
2866	0	32830	32647	
2867	0	32968	32834	
2868	0	32968	33318	
2869	0	32860	33030	
2870	0	32716	32678	
2871	0	32578	32720	
2872	0	32708	33024	
2873	0	32620	32878	
2874	0	32584	32550	
2875	0	32392	32767	
2876	0	32404	32948	
2877	0	32673	32661	
2878	0	32738	32658	
2879	0	32814	32658	
2880	0	32784	32474	
2881	0	32708	32868	
2882	0	32874	32820	
2883	0	32986	32551	
2884	0	33018	32412	
2885	0	32888	32703	
2886	0	33058	32824	
2887	0	32902	32594	
2888	0	32824	32727	
2889	0	32756	32762	
2890	0	32896	32602	
2891	0	32820	32676	
2892	0	32908	32985	
2893	0	32872	33108	
2894	0	32849	33023	
2895	0	32822	32962	
2896	0	32936	32967	
2897	0	32892	32836	
2898	0	32856	32630	
2899	0	32836	32690	
2900	0	32816	32612	
2901	0	32790	32529	
2902	0	32712	32578	
2903	0	32742	32735	
2904	0	32746	32646	
2905	0	32762	32944	
2906	0	32808	33066	
2907	0	32864	32896	
2908	0	32984	32774	
2909	0	33264	33031	
2910	0	33130	32614	
2911	0	32972	32342	
2912	0	32816	32644	
2913	0	32736	32692	
2914	0	32708	32710	
2915	0	32680	32292	
2916	0	32760	32706	
2917	0	32764	32900	
2918	0	32692	32826	
2919	0	32580	32732	
2920	0	32616	32948	
2921	0	32628	32930	
2922	0	32708	32724	
2923	0	32780	32960	
2924	0	32800	32903	
2925	0	32790	32874	
2926	0	32816	32899	
2927	0	32828	32884	
2928	0	32872	32700	
2929	0	32904	32651	
2930	0	32996	32012	
2931	0	32960	32284	
2932	0	32844	32736	
2933	0	32808	33068	
2934	0	32830	32935	
2935	0	32892	33052	
2936	0	32952	32228	
2937	0	32844	32550	
2938	0	32952	33252	
2939	0	32910	33224	
2940	0	33060	33254	
2941	0	33098	32454	
2942	0	32980	32422	
2943	0	32846	32468	
2944	0	32896	32574	
2945	0	32858	32946	
2946	0	32712	33176	
2947	0	32416	33287	
2948	0	32378	33172	
2949	0	32304	32830	
2950	0	32302	32519	
2951	0	32500	32454	
2952	0	32570	32434	
2953	0	32758	32366	
2954	0	32828	32876	
2955	0	32864	32922	
2956	0	32946	32588	
2957	0	33068	32775	
2958	0	32944	32572	
2959	0	32944	32726	
2960	0	33152	32646	
2961	0	33060	32966	
2962	0	32920	33092	
2963	0	32712	32903	
2964	0	32608	32388	
2965	0	32508	32500	
2966	0	32560	32872	
2967	0	32608	33010	
2968	0	32768	32606	
2969	0	32842	32319	
2970	0	33024	32277	
2971	0	33128	32207	
2972	0	33104	32544	
2973	0	32942	33052	
2974	0	32832	33410	
2975	0	33006	33570	
2976	0	32934	32804	
2977	0	32862	32954	
2978	0	32852	33462	
2979	0	32852	33276	
2980	0	32768	32658	
2981	0	32760	32282	
2982	0	32860	32442	
2983	0	32784	32566	
2984	0	32792	32816	
2985	0	32984	32839	
2986	0	32960	32839	
2987	0	32976	32940	
2988	0	32824	32999	
2989	0	33032	32744	
2990	0	33152	32474	
2991	0	32996	31930	
2992	0	32592	32221	
2993	0	32394	32358	
2994	0	32580	32510	
2995	0	32620	33320	
2996	0	32744	33111	
2997	0	32868	32700	
2998	0	32656	32644	
2999	0	32294	33244	
3000	0	32206	33556	
3001	0	32248	33206	
3002	0	32656	32879	
3003	0	32986	32874	
3004	0	33188	32952	
3005	0	33234	33150	
3006	0	33106	32846	
3007	0	32996	31910	
3008	0	32852	32007	
3009	0	32688	32620	
3010	0	32520	32622	
3011	0	32636	32340	
3012	0	32712	32263	
3013	0	32752	32790	
3014	0	33064	32902	
3015	0	33076	33146	
3016	0	32864	33348	
3017	0	32660	32935	
3018	0	32528	32876	
3019	0	32534	32700	
3020	0	32684	32556	
3021	0	32889	32324	
3022	0	33048	32671	
3023	0	33080	32832	
3024	0	33136	32692	
3025	0	33140	32316	
3026	0	33018	32794	
3027	0	32962	33198	
3028	0	32918	32762	
3029	0	32820	32800	
3030	0	32822	33287	
3031	0	32820	33286	
3032	0	32816	32468	
3033	0	32652	33127	
3034	0	32492	33228	
3035	0	32492	32821	
3036	0	32956	32280	
3037	0	33176	32722	
3038	0	33384	33254	
3039	0	33260	32738	
3040	0	32970	32102	
3041	0	32904	32586	
3042	0	32626	33466	
3043	0	32436	32614	
3044	0	32560	32230	
3045	0	32704	32036	
3046	0	32552	32740	
3047	0	32444	33016	
3048	0	32508	32940	
3049	0	32554	33086	
3050	0	32680	33016	
3051	0	32676	32840	
3052	0	32630	32665	
3053	0	32632	32881	
3054	0	32716	32822	
3055	0	32814	32991	
3056	0	32788	33166	
3057	0	32830	33006	
3058	0	32984	32636	
3059	0	33156	32292	
3060	0	33240	32390	
3061	0	33320	32866	
3062	0	33132	33137	
3063	0	33136	33234	
3064	0	33148	32962	
3065	0	33090	32644	
3066	0	32760	32450	
3067	0	32668	32424	
3068	0	32548	32852	
3069	0	32660	32867	
3070	0	32696	32634	
3071	0	32938	32128	
3072	0	32972	32500	
3073	0	32906	33058	
3074	0	32766	33027	
3075	0	32616	33192	
3076	0	32488	32752	
3077	0	32440	32748	
3078	0	32340	32647	
3079	0	32652	33066	
3080	0	32816	32408	
3081	0	32832	32542	
3082	0	32982	33180	
3083	0	33082	33364	
3084	0	33096	32836	
3085	0	32968	32654	
3086	0	33040	32588	
3087	0	33016	32622	
3088	0	32932	32722	
3089	0	32910	32720	
3090	0	32813	32682	
3091	0	32704	32094	
3092	0	32444	32194	
3093	0	32312	32932	
3094	0	32298	33202	
3095	0	32422	33414	
3096	0	32622	33350	
3097	0	32888	32674	
3098	0	33344	32166	
3099	0	33372	32384	
3100	0	33184	32788	
3101	0	32596	31660	
3102	0	32512	31730	
3103	0	32576	32897	
3104	0	32988	33514	
3105	0	33608	32838	
3106	0	33736	32968	
3107	0	33208	34128	
3108	0	32590	34220	
3109	0	32252	34116	
3110	0	32176	33270	
3111	0	32202	32686	
3112	0	32232	32756	
3113	0	32398	31238	
3114	0	32644	31574	
3115	0	32904	33988	
3116	0	32904	33502	
3117	0	32680	31012	
3118	0	32924	28778	
3119	0	32910	31216	
3120	0	32756	33230	
3121	0	33020	34375	
3122	0	33256	34446	
3123	0	33404	33568	
3124	0	33274	33040	
3125	0	33180	32884	
3126	0	33388	32800	
3127	0	32904	32486	
3128	0	32666	33076	
3129	0	32676	33454	
3130	0	32736	33176	
3131	0	32832	33126	
3132	0	32916	32401	
3133	0	32846	32866	
3134	0	33271	32828	
3135	0	32690	33452	
3136	0	32110	33327	
3137	0	31956	32622	
3138	0	32142	32388	
3139	0	32000	32470	
3140	0	32140	32375	
3141	0	32432	32500	
3142	0	32806	32484	
3143	0	32936	32494	
3144	0	32820	32346	
3145	0	32798	32126	
3146	0	32742	32726	
3147	0	32664	32836	
3148	0	32808	33322	
3149	0	32812	33130	
3150	0	32856	32510	
3151	0	32812	32596	
3152	0	32838	31380	
3153	0	33012	31188	
3154	0	33194	32606	
3155	0	33448	32812	
3156	0	33440	33478	
3157	0	33198	34040	
3158	0	32992	33958	
3159	0	32852	33984	
3160	0	32910	33604	
3161	0	32881	33204	
3162	0	33000	32448	
3163	0	32944	32602	
3164	0	32852	32640	
3165	0	32884	32164	
3166	0	32852	32380	
3167	0	32784	32423	
3168	0	32816	32676	
3169	0	32816	32502	
3170	0	32724	32612	
3171	0	32634	32646	
3172	0	32644	32656	
3173	0	32572	32775	
3174	0	32568	32790	
3175	0	32638	32830	
3176	0	32744	32775	
3177	0	32700	32449	
3178	0	32804	32668	
3179	0	32804	32662	
3180	0	32810	33146	
3181	0	32944	33340	
3182	0	32914	32904	
3183	0	33128	32976	
3184	0	33094	32583	
3185	0	32954	32196	
3186	0	32772	32262	
3187	0	32780	32054	
3188	0	32960	31902	
3189	0	32980	33044	
3190	0	32892	33286	
3191	0	32856	33714	
3192	0	32560	33969	
3193	0	32568	33049	
3194	0	32702	32486	
3195	0	32824	33511	
3196	0	32852	32608	
3197	0	32702	31888	
3198	0	32874	31324	
3199	0	32992	31938	
3200	0	33056	33044	
3201	0	33144	32654	
3202	0	33036	34145	
3203	0	32908	33648	
3204	0	32772	32936	
3205	0	32426	32496	
3206	0	32404	32366	
3207	0	32746	32674	
3208	0	32458	32820	
3209	0	32436	31792	
3210	0	32620	32280	
3211	0	32864	34798	
3212	0	33328	33276	
3213	0	33086	33311	
3214	0	32864	32519	
3215	0	32604	32952	
3216	0	32420	32600	
3217	0	32308	33158	
3218	0	32280	32398	
3219	0	32432	32914	
3220	0	32684	32948	
3221	0	32788	32415	
3222	0	32918	32102	
3223	0	33092	31456	
3224	0	33098	31790	
3225	0	33140	32871	
3226	0	33082	33216	
3227	0	33256	32788	
3228	0	33286	33152	
3229	0	33182	33934	
3230	0	33064	33346	
3231	0	32872	32745	
3232	0	32572	32626	
3233	0	32488	32600	
3234	0	32480	32379	
3235	0	32384	32423	
3236	0	32484	32695	
3237	0	32480	32692	
3238	0	32516	32430	
3239	0	32518	32903	
3240	0	32760	32362	
3241	0	32832	32804	
3242	0	33048	33070	
3243	0	33122	32956	
3244	0	33064	32885	
3245	0	33012	33415	
3246	0	32932	32530	
3247	0	32800	32110	
3248	0	32796	32580	
3249	0	32900	31654	
3250	0	32984	33164	
3251	0	33046	33310	
3252	0	33096	33471	
3253	0	33248	32742	
3254	0	32838	32380	
3255	0	32482	33182	
3256	0	32592	33158	
3257	0	32764	32732	
3258	0	32770	32295	
3259	0	32836	32308	
3260	0	33058	32348	
3261	0	33064	32658	
3262	0	32926	32784	
3263	0	32762	33010	
3264	0	32644	33152	
3265	0	32512	32938	
3266	0	32407	32807	
3267	0	32384	32562	
3268	0	32408	32554	
3269	0	32536	32668	
3270	0	32600	32327	
3271	0	32848	32592	
3272	0	32964	32534	
3273	0	32944	32993	
3274	0	33384	32592	
3275	0	33128	32822	
3276	0	32980	32572	
3277	0	32716	33287	
3278	0	32736	34194	
3279	0	32847	33836	
3280	0	33184	32730	
3281	0	33322	31970	
3282	0	33214	32116	
3283	0	32996	32471	
3284	0	32998	32454	
3285	0	32828	33370	
3286	0	32556	33184	
3287	0	32422	31262	
3288	0	32206	32472	
3289	0	32336	32760	
3290	0	32306	32696	
3291	0	32420	33380	
3292	0	32312	33404	
3293	0	32372	33010	
3294	0	32448	32862	
3295	0	32548	32408	
3296	0	32572	32122	
3297	0	32702	32826	
3298	0	33236	33110	
3299	0	33330	32826	
3300	0	33246	32824	
3301	0	33088	32863	
3302	0	33002	32590	
3303	0	32870	33050	
3304	0	32772	32894	
3305	0	32852	32838	
3306	0	33098	32920	
3307	0	33150	33511	
3308	0	33192	32782	
3309	0	33162	31751	
3310	0	33130	32528	
3311	0	33104	32370	
3312	0	33156	32074	
3313	0	33112	32970	
3314	0	32822	32898	
3315	0	32472	32572	
3316	0	32396	32090	
3317	0	32424	32808	
3318	0	32592	33314	
3319	0	32428	33848	
3320	0	32612	33462	
3321	0	32806	32966	
3322	0	33112	32918	
3323	0	33200	32410	
3324	0	32908	32759	
3325	0	32776	32847	
3326	0	32650	32775	
3327	0	32598	31502	
3328	0	32613	32526	
3329	0	32604	32914	
3330	0	32580	33080	
3331	0	32500	31572	
3332	0	32616	32926	
3333	0	32692	33840	
3334	0	32740	32600	
3335	0	32838	32760	
3336	0	33148	32924	
3337	0	33442	33336	
3338	0	33328	32578	
3339	0	32892	32519	
3340	0	32546	33058	
3341	0	32204	32565	
3342	0	32337	32540	
3343	0	32356	32656	
3344	0	32570	32864	
3345	0	32916	33796	
3346	0	33110	33774	
3347	0	33212	32387	
3348	0	33126	32053	
3349	0	33024	32194	
3350	0	32988	32148	
3351	0	32874	32455	
3352	0	32581	32480	
3353	0	32556	32818	
3354	0	32664	33304	
3355	0	32804	33446	
3356	0	33080	33490	
3357	0	32884	33751	
3358	0	32862	32782	
3359	0	32814	32303	
3360	0	32844	32789	
3361	0	32720	32074	
3362	0	32812	32310	
3363	0	32838	32414	
3364	0	32940	32194	
3365	0	33000	32736	
3366	0	32648	33178	
3367	0	32410	32824	
3368	0	32488	32884	
3369	0	32522	32743	
3370	0	32700	32756	
3371	0	33008	32263	
3372	0	33404	32250	
3373	0	33504	32775	
3374	0	33164	32730	
3375	0	32928	32974	
3376	0	32868	32599	
3377	0	32724	32738	
3378	0	32548	33934	
3379	0	32388	34103	
3380	0	32512	32442	
3381	0	32639	31946	
3382	0	32652	32808	
3383	0	32652	33356	
3384	0	32696	33732	
3385	0	32700	33156	
3386	0	32804	32930	
3387	0	32908	32593	
3388	0	32864	32674	
3389	0	32974	32496	
3390	0	33248	32166	
3391	0	33248	32154	
3392	0	33040	32326	
3393	0	32788	31590	
3394	0	32948	33434	
3395	0	33168	33063	
3396	0	32900	32178	
3397	0	32578	32390	
3398	0	32480	32588	
3399	0	32248	32840	
3400	0	32100	32775	
3401	0	32056	32126	
3402	0	32116	32389	
3403	0	32346	32647	
3404	0	32530	33806	
3405	0	32844	33580	
3406	0	33184	32950	
3407	0	33298	33256	
3408	0	33420	31984	
3409	0	33482	31584	
3410	0	33484	32775	
3411	0	33312	32740	
3412	0	33244	33468	
3413	0	33046	33792	
3414	0	32792	33046	
3415	0	32714	33313	
3416	0	32440	32588	
3417	0	32334	32823	
3418	0	32698	32932	
3419	0	33232	32420	
3420	0	33404	32562	
3421	0	33024	32956	
3422	0	32582	32958	
3423	0	32420	32738	
3424	0	31948	32800	
3425	0	31856	33076	
3426	0	32302	33022	
3427	0	32732	32260	
3428	0	32784	32680	
3429	0	32968	32732	
3430	0	33212	32564	
3431	0	33124	32594	
3432	0	32856	32770	
3433	0	32788	32964	
3434	0	32732	32488	
3435	0	32748	32188	
3436	0	32820	32498	
3437	0	33024	32721	
3438	0	32980	33319	
3439	0	33008	33140	
3440	0	32868	33200	
3441	0	32804	33344	
3442	0	32752	32700	
3443	0	32802	32608	
3444	0	32758	33094	
3445	0	32764	32600	
3446	0	32924	32224	
3447	0	33098	32288	
3448	0	33150	32537	
3449	0	32884	32359	
3450	0	32708	32864	
3451	0	32634	32996	
3452	0	32748	33180	
3453	0	32972	32924	
3454	0	33294	33301	
3455	0	32948	32740	
3456	0	32938	32808	
3457	0	33074	32590	
3458	0	32848	33178	
3459	0	32800	32775	
3460	0	32618	32290	
3461	0	32548	32132	
3462	0	32682	32500	
3463	0	32592	33024	
3464	0	32576	33050	
3465	0	32504	32422	
3466	0	32480	33238	
3467	0	32692	32984	
3468	0	32788	32114	
3469	0	32968	32228	
3470	0	33176	31985	
3471	0	33412	31644	
3472	0	33272	32458	
3473	0	33202	32900	
3474	0	33220	33774	
3475	0	33364	33764	
3476	0	33376	33372	
3477	0	33082	32647	
3478	0	32466	33454	
3479	0	32148	33496	
3480	0	31900	32852	
3481	0	32026	32855	
3482	0	32098	32806	
3483	0	32146	32148	
3484	0	32254	32536	
3485	0	32712	32950	
3486	0	32804	32240	
3487	0	32740	32926	
3488	0	32872	32804	
3489	0	33008	32748	
3490	0	33016	32897	
3491	0	32884	32638	
3492	0	32820	32682	
3493	0	32924	32599	
3494	0	33026	32870	
3495	0	33232	32324	
3496	0	33328	33026	
3497	0	33136	33332	
3498	0	33082	32648	
3499	0	32924	32302	
3500	0	32852	32716	
3501	0	32732	32700	
3502	0	32647	32488	
3503	0	32646	32436	
3504	0	32692	32708	
3505	0	32592	32867	
3506	0	32732	33154	
3507	0	32612	33002	
3508	0	32676	32704	
3509	0	32804	33144	
3510	0	32686	32535	
3511	0	32680	32630	
3512	0	32744	33104	
3513	0	32644	32804	
3514	0	32800	32038	
3515	0	32976	32276	
3516	0	32988	33598	
3517	0	33142	33799	
3518	0	33154	33108	
3519	0	32908	33010	
3520	0	33070	32587	
3521	0	33712	32486	
3522	0	34226	32140	
3523	0	33756	32966	
3524	0	33600	32256	
3525	0	33268	32492	
3526	0	32628	32662	
3527	0	31861	32798	
3528	0	31460	32676	
3529	0	31152	33006	
3530	0	31394	32576	
3531	0	31924	33156	
3532	0	32330	33196	
3533	0	32564	33502	
3534	0	32756	32726	
3535	0	32720	32338	
3536	0	32716	32664	
3537	0	32908	32895	
3538	0	32968	32610	
3539	0	32884	32206	
3540	0	32844	31998	
3541	0	32878	32684	
3542	0	32932	32899	
3543	0	33112	33066	
3544	0	33200	32871	
3545	0	33166	32714	
3546	0	33264	32536	
3547	0	33162	32724	
3548	0	33197	33050	
3549	0	33084	33076	
3550	0	32960	32854	
3551	0	32944	32596	
3552	0	32902	32818	
3553	0	32892	32974	
3554	0	33024	32740	
3555	0	33026	32888	
3556	0	32980	32851	
3557	0	32952	32654	
3558	0	32750	32258	
3559	0	32576	32502	
3560	0	32758	32414	
3561	0	32752	32832	
3562	0	32620	32856	
3563	0	32502	33287	
3564	0	32388	32854	
3565	0	32540	32672	
3566	0	32660	32775	
3567	0	32530	32647	
3568	0	32852	32770	
3569	0	32775	33124	
3570	0	32752	32956	
3571	0	32980	32903	
3572	0	33050	32083	
3573	0	32920	32930	
3574	0	33248	32362	
3575	0	33444	32244	
3576	0	33316	32481	
3577	0	32836	32492	
3578	0	32726	32928	
3579	0	32560	33284	
3580	0	32660	33401	
3581	0	32775	33260	
3582	0	32576	32804	
3583	0	32640	32687	
3584	0	32404	32584	
3585	0	32448	32548	
3586	0	32490	32526	
3587	0	32552	32696	
3588	0	32676	32728	
3589	0	32708	32966	
3590	0	32704	32966	
3591	0	32836	32832	
3592	0	32608	32768	
3593	0	32642	32796	
3594	0	32746	32638	
3595	0	32952	32134	
3596	0	33356	32692	
3597	0	33044	32584	
3598	0	32618	33376	
3599	0	32694	32942	
3600	0	33016	32279	
3601	0	32978	32936	
3602	0	33144	32250	
3603	0	33280	32958	
3604	0	33098	33196	
3605	0	33022	33120	
3606	0	32928	32961	
3607	0	32776	32743	
3608	0	32764	32936	
3609	0	32636	33140	
3610	0	32620	32464	
3611	0	32636	32514	
3612	0	32712	32596	
3613	0	32842	32562	
3614	0	32588	32564	
3615	0	32577	32766	
3616	0	32464	33103	
3617	0	32666	32744	
3618	0	32910	32588	
3619	0	32992	32660	
3620	0	32940	32896	
3621	0	32976	33074	
3622	0	33404	32817	
3623	0	33570	32696	
3624	0	33136	32562	
3625	0	32654	32678	
3626	0	32288	32450	
3627	0	32120	32928	
3628	0	32030	33050	
3629	0	32184	32806	
3630	0	32388	32766	
3631	0	32764	32684	
3632	0	33060	32444	
3633	0	33092	32406	
3634	0	33068	32640	
3635	0	32908	32766	
3636	0	32812	32775	
3637	0	32880	32866	
3638	0	32868	32882	
3639	0	32760	33014	
3640	0	32716	32903	
3641	0	32688	32844	
3642	0	32936	32684	
3643	0	33334	32720	
3644	0	33196	32828	
3645	0	33100	32951	
3646	0	32764	32894	
3647	0	32528	32772	
3648	0	32356	32874	
3649	0	32456	32590	
3650	0	32886	32312	
3651	0	33228	32998	
3652	0	33297	33096	
3653	0	33128	33098	
3654	0	33140	32855	
3655	0	32968	32692	
3656	0	32804	32390	
3657	0	32764	32558	
3658	0	32808	32734	
3659	0	33066	33059	
3660	0	32900	32867	
3661	0	32628	32748	
3662	0	32376	32512	
3663	0	32380	32542	
3664	0	32316	32654	
3665	0	32276	32775	
3666	0	32424	32766	
3667	0	32420	32936	
3668	0	32696	32830	
3669	0	32814	32805	
3670	0	33016	32738	
3671	0	33070	32886	
3672	0	33086	32942	
3673	0	33262	32432	
3674	0	33242	32528	
3675	0	33112	32612	
3676	0	32904	32807	
3677	0	32684	32983	
3678	0	32568	32855	
3679	0	32656	32869	
3680	0	32680	32727	
3681	0	32740	32542	
3682	0	32894	32294	
3683	0	32924	32878	
3684	0	32920	33022	
3685	0	32928	32926	
3686	0	32972	32983	
3687	0	32908	32994	
3688	0	32776	32593	
3689	0	32712	32718	
3690	0	32760	33134	
3691	0	33112	32910	
3692	0	33210	32940	
3693	0	32892	32680	
3694	0	32948	33260	
3695	0	32600	32496	
3696	0	32452	31984	
3697	0	32516	32358	
3698	0	32768	32862	
3699	0	32782	32126	
3700	0	32780	33038	
3701	0	32838	33388	
3702	0	32740	32718	
3703	0	32752	32978	
3704	0	32756	32998	
3705	0	32900	32976	
3706	0	32852	32774	
3707	0	32894	32552	
3708	0	32682	32566	
3709	0	32530	32710	
3710	0	32468	32412	
3711	0	32476	32752	
3712	0	32490	32926	
3713	0	32616	32887	
3714	0	32848	32802	
3715	0	32886	32878	
3716	0	33096	32674	
3717	0	33200	32620	
3718	0	33188	32583	
3719	0	33132	32864	
3720	0	32926	32892	
3721	0	32820	32574	
3722	0	32688	32762	
3723	0	32596	32760	
3724	0	32524	32684	
3725	0	32585	32940	
3726	0	32748	32860	
3727	0	32926	32820	
3728	0	33072	32734	
3729	0	33120	32596	
3730	0	33518	32544	
3731	0	33562	32624	
3732	0	33288	32958	
3733	0	33096	32986	
3734	0	32602	32748	
3735	0	32204	32732	
3736	0	32222	32680	
3737	0	32546	32519	
3738	0	33136	32672	
3739	0	33120	32674	
3740	0	32928	32824	
3741	0	32732	32692	
3742	0	32532	33124	
3743	0	32532	33008	
3744	0	32404	33161	
3745	0	32330	33062	
3746	0	32504	32624	
3747	0	32552	32348	
3748	0	32734	32634	
3749	0	32844	32482	
3750	0	32780	32672	
3751	0	32664	32756	
3752	0	32652	32760	
3753	0	32726	32688	
3754	0	32732	32878	
3755	0	32932	32823	
3756	0	32928	32772	
3757	0	33008	32868	
3758	0	33124	32594	
3759	0	33318	32358	
3760	0	33246	32612	
3761	0	33084	32527	
3762	0	32860	33044	
3763	0	32801	32816	
3764	0	32839	33000	
3765	0	32828	32988	
3766	0	32860	32816	
3767	0	32848	32658	
3768	0	32849	32572	
3769	0	32876	32816	
3770	0	32804	32928	
3771	0	32824	32694	
3772	0	32686	32775	
3773	0	32684	32678	
3774	0	32688	32767	
3775	0	32792	32822	
3776	0	32740	32812	
3777	0	32746	32666	
3778	0	32664	32744	
3779	0	32704	32852	
3780	0	32700	32871	
3781	0	32790	32926	
3782	0	32868	32879	
3783	0	32764	32695	
3784	0	32798	32726	
3785	0	32732	32577	
3786	0	32668	32692	
3787	0	32812	32718	
3788	0	32828	32744	
3789	0	32964	32876	
3790	0	33052	32948	
3791	0	32926	32828	
3792	0	32912	32842	
3793	0	33060	32793	
3794	0	33066	32456	
3795	0	32936	32598	
3796	0	32796	32738	
3797	0	32904	32758	
3798	0	32856	32836	
3799	0	32746	32967	
3800	0	32804	32882	
3801	0	32964	32802	
3802	0	32968	32800	
3803	0	32864	32516	
3804	0	32822	32792	
3805	0	32632	32946	
3806	0	32612	32868	
3807	0	32870	32633	
3808	0	33058	32454	
3809	0	32960	32408	
3810	0	32672	32519	
3811	0	32414	32540	
3812	0	32288	32724	
3813	0	32412	32903	
3814	0	32460	32944	
3815	0	32564	32966	
3816	0	32804	32968	
3817	0	33058	32746	
3818	0	32996	32678	
3819	0	32964	32790	
3820	0	32974	33010	
3821	0	32942	32814	
3822	0	32844	32670	
3823	0	32692	32668	
3824	0	32744	32555	
3825	0	32790	32514	
3826	0	32916	32494	
3827	0	32894	32561	
3828	0	32856	32615	
3829	0	32860	32808	
3830	0	32972	32831	
3831	0	32812	32812	
3832	0	32864	32462	
3833	0	32817	32712	
3834	0	33014	32752	
3835	0	32866	32730	
3836	0	32868	32652	
3837	0	32800	32956	
3838	0	32852	32936	
3839	0	32916	32800	
3840	0	32966	32766	
3841	0	33074	32772	
3842	0	32868	32660	
3843	0	32816	33159	
3844	0	32716	33212	
3845	0	32682	32730	
3846	0	32600	32775	
3847	0	32676	32754	
3848	0	32680	32506	
3849	0	32702	32582	
3850	0	32614	32708	
3851	0	32668	32631	
3852	0	32748	32674	
3853	0	32688	32796	
3854	0	32729	32552	
3855	0	32820	32714	
3856	0	32780	32836	
3857	0	32824	32927	
3858	0	32888	32948	
3859	0	32938	32935	
3860	0	33010	32818	
3861	0	32992	32724	
3862	0	32916	33002	
3863	0	33018	33112	
3864	0	32924	33024	
3865	0	32842	33082	
3866	0	32792	32864	
3867	0	32780	33031	
3868	0	32820	32842	
3869	0	32790	33099	
3870	0	32830	32982	
3871	0	32780	32742	
3872	0	32744	32760	
3873	0	32738	32706	
3874	0	32764	32592	
3875	0	32814	32574	
3876	0	32778	32602	
3877	0	32774	32564	
3878	0	32746	32567	
3879	0	32728	32632	
3880	0	32638	32700	
3881	0	32688	32615	
3882	0	32792	32655	
3883	0	33034	32774	
3884	0	32956	32790	
3885	0	33098	32711	
3886	0	32940	32826	
3887	0	32872	32884	
3888	0	32900	32644	
3889	0	32786	32928	
3890	0	32768	32770	
3891	0	32732	32945	
3892	0	32846	32740	
3893	0	32880	32558	
3894	0	32752	32512	
3895	0	32628	33088	
3896	0	32546	32836	
3897	0	32540	32756	
3898	0	32704	32724	
3899	0	32908	32610	
3900	0	32974	32638	
3901	0	33020	32828	
3902	0	33084	32848	
3903	0	32888	32746	
3904	0	32832	32868	
3905	0	32580	33092	
3906	0	32440	32988	
3907	0	32537	32830	
3908	0	32608	32858	
3909	0	32719	32792	
3910	0	32824	32767	
3911	0	32968	32586	
3912	0	32880	32576	
3913	0	32892	32575	
3914	0	32654	32736	
3915	0	32720	32684	
3916	0	32796	32582	
3917	0	32752	32614	
3918	0	32852	32758	
3919	0	32796	32888	
3920	0	32916	32580	
3921	0	32896	32679	
3922	0	32960	32884	
3923	0	32764	32924	
3924	0	32744	33135	
3925	0	32812	32978	
3926	0	32676	32817	
3927	0	32728	32742	
3928	0	32676	32602	
3929	0	32804	32594	
3930	0	32856	32647	
3931	0	32806	32719	
3932	0	32814	32796	
3933	0	32932	32802	
3934	0	32800	32647	
3935	0	32874	32766	
3936	0	32858	32672	
3937	0	32812	32838	
3938	0	32830	32812	
3939	0	32838	32766	
3940	0	32894	32680	
3941	0	32932	32526	
3942	0	32917	32366	
3943	0	32878	32490	
3944	0	32868	32644	
3945	0	32828	32732	
3946	0	32728	32694	
3947	0	32780	32743	
3948	0	32792	32816	
3949	0	32760	32928	
3950	0	32804	33048	
3951	0	32848	32972	
3952	0	32776	32960	
3953	0	32882	32894	
3954	0	32904	32824	
3955	0	32810	32896	
3956	0	32900	32963	
3957	0	32808	32892	
3958	0	32730	32886	
3959	0	32796	32812	
3960	0	32780	32796	
3961	0	32812	32764	
3962	0	32754	32775	
3963	0	32646	32920	
3964	0	32654	32999	
3965	0	32676	33105	
3966	0	32798	33018	
3967	0	32928	32836	
3968	0	32892	32764	
3969	0	32810	32716	
3970	0	32866	32614	
3971	0	32850	32716	
3972	0	32952	32662	
3973	0	32974	32542	
3974	0	32874	32503	
3975	0	32796	32655	
3976	0	32648	32754	
3977	0	32714	32596	
3978	0	32808	32556	
3979	0	32644	32628	
3980	0	32760	32800	
3981	0	32778	32868	
3982	0	32788	32737	
3983	0	32806	32760	
3984	0	32852	32728	
3985	0	32892	32775	
3986	0	32920	32662	
3987	0	32904	32639	
3988	0	32944	32604	
3989	0	32872	32596	
3990	0	32964	32786	
3991	0	32860	33095	
3992	0	32748	32916	
3993	0	32824	32848	
3994	0	32780	32903	
3995	0	32786	32760	
3996	0	32692	32644	
3997	0	32728	32556	
3998	0	32796	32500	
3999	0	32712	32724	
4000	0	32600	32938	
4001	0	32784	32926	
4002	0	32708	32884	
4003	0	32690	32690	
4004	0	32632	32862	
4005	0	32662	32775	
4006	0	32768	32823	
4007	0	32908	32744	
4008	0	32812	32775	
4009	0	32820	32548	
4010	0	32784	32492	
4011	0	32788	32548	
4012	0	32808	32632	
4013	0	32772	32738	
4014	0	32798	32852	
4015	0	32748	33056	
4016	0	32844	32967	
4017	0	32784	32860	
4018	0	32788	32807	
4019	0	32800	32848	
4020	0	32800	32860	
4021	0	32806	33026	
4022	0	32928	32974	
4023	0	33000	32646	
4024	0	32984	32546	
4025	0	32826	32592	
4026	0	32804	32548	
4027	0	32824	32584	
4028	0	32720	32608	
4029	0	32726	32798	
4030	0	32806	32718	
4031	0	32956	32852	
4032	0	32978	32878	
4033	0	33104	32839	
4034	0	32892	32972	
4035	0	32769	32752	
4036	0	32656	32718	
4037	0	32476	32420	
4038	0	32526	32464	
4039	0	32640	32660	
4040	0	32648	32716	
4041	0	32796	32759	
4042	0	32852	32834	
4043	0	32768	32846	
4044	0	32856	32774	
4045	0	32842	32770	
4046	0	32840	32775	
4047	0	32832	32884	
4048	0	32742	32760	
4049	0	32812	32722	
4050	0	32920	32578	
4051	0	32778	32592	
4052	0	32852	32530	
4053	0	32832	32542	
4054	0	32852	32621	
4055	0	32884	32694	
4056	0	32948	32760	
4057	0	32852	32862	
4058	0	32864	32892	
4059	0	32942	32802	
4060	0	32876	32884	
4061	0	32836	32876	
4062	0	32890	32996	
4063	0	32858	33024	
4064	0	32866	33120	
4065	0	32856	33123	
4066	0	32806	33200	
4067	0	32692	33148	
4068	0	32716	33120	
4069	0	32664	33255	
4070	0	32590	33220	
4071	0	32696	32935	
4072	0	32740	32770	
4073	0	32744	32736	
4074	0	32852	32748	
4075	0	32812	32564	
4076	0	32880	32478	
4077	0	32860	32468	
4078	0	32842	32532	
4079	0	32946	32519	
4080	0	32960	32711	
4081	0	32880	32640	
4082	0	32828	32670	
4083	0	32846	32810	
4084	0	32802	32924	
4085	0	32800	32816	
4086	0	32832	32798	
4087	0	32806	32764	
4088	0	32858	32802	
4089	0	32834	32722	
4090	0	32736	32644	
4091	0	32838	32610	
4092	0	32908	32596	
4093	0	32878	32454	
4094	0	32954	32591	
4095	0	32960	32679	
4096	0	32860	32882	
4097	0	32822	32799	
4098	0	32796	32810	
4099	0	32868	32872	
4100	0	32760	32682	
4101	0	32704	32628	
4102	0	32594	32558	
4103	0	32520	32449	
4104	0	32504	32458	
4105	0	32508	32468	
4106	0	32604	32647	
4107	0	32718	32716	
4108	0	32714	32834	
4109	0	32764	32790	
4110	0	32792	32886	
4111	0	32812	32976	
4112	0	32792	33044	
4113	0	32786	32850	
4114	0	32808	32732	
4115	0	32920	32692	
4116	0	32916	32762	
4117	0	32932	32800	
4118	0	32984	32900	
4119	0	32856	33116	
4120	0	32854	33137	
4121	0	32808	32946	
4122	0	32796	32798	
4123	0	32772	32822	
4124	0	32876	32698	
4125	0	32910	32814	
4126	0	32948	32814	
4127	0	32912	32667	
4128	0	33042	32592	
4129	0	33106	32775	
4130	0	32888	32857	
4131	0	32772	32958	
4132	0	32676	32810	
4133	0	32618	32716	
4134	0	32576	32688	
4135	0	32692	32836	
4136	0	32646	32604	
4137	0	32676	32658	
4138	0	32684	32698	
4139	0	32826	32822	
4140	0	32708	32807	
4141	0	32759	32928	
4142	0	32928	32895	
4143	0	32896	32835	
4144	0	32968	32903	
4145	0	32912	32892	
4146	0	32888	32860	
4147	0	32876	32896	
4148	0	32921	32736	
4149	0	32844	32646	
4150	0	32864	32642	
4151	0	32792	32632	
4152	0	32772	32698	
4153	0	32848	32722	
4154	0	32884	32800	
4155	0	32792	32714	
4156	0	32856	32680	
4157	0	32816	32890	
4158	0	32804	32822	
4159	0	32756	32807	
4160	0	32772	32612	
4161	0	32864	32574	
4162	0	32792	32686	
4163	0	32818	32674	
4164	0	32778	32640	
4165	0	32736	32620	
4166	0	32768	32848	
4167	0	32732	32708	
4168	0	32778	32744	
4169	0	32768	32667	
4170	0	32768	32877	
4171	0	32848	32772	
4172	0	32828	32894	
4173	0	32782	32842	
4174	0	32894	32866	
4175	0	32848	32958	
4176	0	32834	32647	
4177	0	32816	32794	
4178	0	32802	32660	
4179	0	32836	32831	
4180	0	32824	32668	
4181	0	32834	32808	
4182	0	32778	32846	
4183	0	32872	32839	
4184	0	32822	32692	
4185	0	32842	32732	
4186	0	32798	32732	
4187	0	32780	32676	
4188	0	32764	32676	
4189	0	32738	32738	
4190	0	32852	32806	
4191	0	32790	32871	
4192	0	32818	32896	
4193	0	32756	32878	
4194	0	32808	32516	
4195	0	32850	32647	
4196	0	32868	32692	
4197	0	32800	32602	
4198	0	32800	32694	
4199	0	32764	32764	
4200	0	32788	32808	
4201	0	32756	32694	
4202	0	32775	32656	
4203	0	32778	32707	
4204	0	32816	32760	
4205	0	32760	32687	
4206	0	32862	32604	
4207	0	32836	32706	
4208	0	32832	32875	
4209	0	32834	32870	
4210	0	32760	32798	
4211	0	32776	32810	
4212	0	32872	32988	
4213	0	32836	32964	
4214	0	32852	32918	
4215	0	32912	32808	
4216	0	32804	32926	
4217	0	32772	32836	
4218	0	32804	32826	
4219	0	32750	32816	
4220	0	32798	32892	
4221	0	32856	32684	
4222	0	32828	32647	
4223	0	32856	32719	
4224	0	32802	32742	
4225	0	32796	32766	
4226	0	32848	32614	
4227	0	32784	32644	
4228	0	32806	32728	
4229	0	32768	32814	
4230	0	32776	32804	
4231	0	32864	32676	
4232	0	32804	32646	
4233	0	32764	32814	
4234	0	32870	32786	
4235	0	32750	32744	
4236	0	32840	32684	
4237	0	32812	32706	
4238	0	32844	32740	
4239	0	32860	32768	
4240	0	32820	32808	
4241	0	32856	32740	
4242	0	32824	32718	
4243	0	32833	32796	
4244	0	32838	32727	
4245	0	32846	32945	
4246	0	32804	32986	
4247	0	32924	32868	
4248	0	32916	32666	
4249	0	32820	32806	
4250	0	32844	32870	
4251	0	32868	32924	
4252	0	32894	32720	
4253	0	32856	32738	
4254	0	32854	32732	
4255	0	32920	32798	
4256	0	32842	32956	
4257	0	32856	32838	
4258	0	32748	32740	
4259	0	32810	32712	
4260	0	32868	32652	
4261	0	32798	32730	
4262	0	32752	32726	
4263	0	32758	32807	
4264	0	32776	32846	
4265	0	32756	32934	
4266	0	32732	32855	
4267	0	32848	32666	
4268	0	32768	32514	
4269	0	32802	32716	
4270	0	32736	32648	
4271	0	32764	32689	
4272	0	32754	32640	
4273	0	32800	32820	
4274	0	32812	32676	
4275	0	32832	32678	
4276	0	32780	32618	
4277	0	32784	32724	
4278	0	32740	32748	
4279	0	32740	32532	
4280	0	32800	32678	
4281	0	32856	33058	
4282	0	32812	33026	
4283	0	32774	32894	
4284	0	32776	32766	
4285	0	32732	32808	
4286	0	32792	32684	
4287	0	32820	32760	
4288	0	32842	32807	
4289	0	32800	32924	
4290	0	32862	32790	
4291	0	32804	32836	
4292	0	32777	32729	
4293	0	32764	32580	
4294	0	32828	32655	
4295	0	32796	32688	
4296	0	32806	32657	
4297	0	32736	32660	
4298	0	32836	32775	
4299	0	32804	32802	
4300	0	32804	32890	
4301	0	32876	32891	
4302	0	32796	32882	
4303	0	32830	32722	
4304	0	32880	32807	
4305	0	32754	32814	
4306	0	32804	32772	
4307	0	32790	32783	
4308	0	32844	32762	
4309	0	32796	32774	
4310	0	32812	32704	
4311	0	32824	32636	
4312	0	32768	32742	
4313	0	32828	32702	
4314	0	32844	32614	
4315	0	32844	32664	
4316	0	32768	32718	
4317	0	32786	32692	
4318	0	32754	32702	
4319	0	32824	32878	
4320	0	32784	32978	
4321	0	32759	32760	
4322	0	32768	32860	
4323	0	32784	32775	
4324	0	32800	32884	
4325	0	32788	32862	
4326	0	32856	32858	
4327	0	32808	32824	
4328	0	32812	32807	
4329	0	32798	32774	
4330	0	32780	32812	
4331	0	32768	32642	
4332	0	32836	32676	
4333	0	32836	32559	
4334	0	32792	32710	
4335	0	32816	32636	
4336	0	32748	32772	
4337	0	32844	32737	
4338	0	32836	32690	
4339	0	32818	32562	
4340	0	32858	32670	
4341	0	32842	32679	
4342	0	32788	32704	
4343	0	32852	32757	
4344	0	32852	32706	
4345	0	32853	32772	
4346	0	32736	32686	
4347	0	32884	32544	
4348	0	32696	32678	
4349	0	32802	32810	
4350	0	32812	32758	
4351	0	32790	32806	
4352	0	32860	32908	
4353	0	32746	32750	
4354	0	32812	32828	
4355	0	32924	32791	
4356	0	32876	32832	
4357	0	32902	32798	
4358	0	32924	32846	
4359	0	32906	32748	
4360	0	32896	32752	
4361	0	32868	32734	
4362	0	32856	32566	
4363	0	32865	32727	
4364	0	32888	32788	
4365	0	32752	32732	
4366	0	32768	32871	
4367	0	32790	32972	
4368	0	32780	32903	
4369	0	32744	32906	
4370	0	32748	32706	
4371	0	32804	32774	
4372	0	32852	32762	
4373	0	32852	32784	
4374	0	32794	32740	
4375	0	32814	32768	
4376	0	32824	32540	
4377	0	32856	32734	
4378	0	32788	32750	
4379	0	32776	32796	
4380	0	32796	32824	
4381	0	32809	32644	
4382	0	32810	32856	
4383	0	32760	32766	
4384	0	32810	32793	
4385	0	32828	32798	
4386	0	32820	32768	
4387	0	32774	32735	
4388	0	32778	32858	
4389	0	32800	32734	
4390	0	32778	32743	
4391	0	32724	32842	
4392	0	32772	32664	
4393	0	32784	32790	
4394	0	32800	32752	
4395	0	32744	32831	
4396	0	32762	32870	
4397	0	32782	32821	
4398	0	32848	32839	
4399	0	32864	32732	
4400	0	32828	32792	
4401	0	32870	32726	
4402	0	32792	32679	
4403	0	32704	32668	
4404	0	32816	32644	
4405	0	32750	32870	
4406	0	32852	32798	
4407	0	32822	32756	
4408	0	32700	32708	
4409	0	32736	32870	
4410	0	32820	32868	
4411	0	32802	32756	
4412	0	32780	32708	
4413	0	32844	32602	
4414	0	32840	32757	
4415	0	32832	32775	
4416	0	32752	32855	
4417	0	32794	32866	
4418	0	32800	33127	
4419	0	32792	32880	
4420	0	32792	32633	
4421	0	32738	32768	
4422	0	32764	32740	
4423	0	32772	32636	
4424	0	32840	32560	
4425	0	32790	32566	
4426	0	32828	32436	
4427	0	32810	32567	
4428	0	32768	32646	
4429	0	32820	32664	
4430	0	32754	32746	
4431	0	32788	32694	
4432	0	32786	32812	
4433	0	32858	32804	
4434	0	32828	32932	
4435	0	32772	32860	
4436	0	32834	33085	
4437	0	32946	33022	
4438	0	32880	33006	
4439	0	32832	32918	
4440	0	32778	32917	
4441	0	32860	32852	
4442	0	32940	32724	
4443	0	32956	32820	
4444	0	32880	32759	
4445	0	32844	32942	
4446	0	32816	32871	
4447	0	32880	32831	
4448	0	32832	32716	
4449	0	32756	32670	
4450	0	32788	32690	
4451	0	32742	32692	
4452	0	32832	32724	
4453	0	32824	32671	
4454	0	32820	32646	
4455	0	32878	32655	
4456	0	32788	32636	
4457	0	32740	32748	
4458	0	32838	32722	
4459	0	32820	32774	
4460	0	32808	32788	
4461	0	32790	32927	
4462	0	32764	32839	
4463	0	32868	32679	
4464	0	32828	32759	
4465	0	32813	32740	
4466	0	32816	32758	
4467	0	32830	32927	
4468	0	32824	32863	
4469	0	32872	32810	
4470	0	32800	32832	
4471	0	32812	32775	
4472	0	32812	32672	
4473	0	32800	32806	
4474	0	32816	32888	
4475	0	32784	32852	
4476	0	32728	32708	
4477	0	32864	32760	
4478	0	32776	32700	
4479	0	32792	32828	
4480	0	32822	32775	
4481	0	32810	32775	
4482	0	32824	32644	
4483	0	32740	32798	
4484	0	32812	32818	
4485	0	32824	32728	
4486	0	32852	32858	
4487	0	32888	32838	
4488	0	32856	32758	
4489	0	32804	32696	
4490	0	32838	32840	
4491	0	32852	32732	
4492	0	32948	32670	
4493	0	32890	32762	
4494	0	32840	32711	
4495	0	32820	32775	
4496	0	32796	32668	
4497	0	32790	32700	
4498	0	32806	32676	
4499	0	32822	32759	
4500	0	32808	32730	
4501	0	32812	32792	
4502	0	32814	32806	
4503	0	32832	32692	
4504	0	32816	32791	
4505	0	32792	32612	
4506	0	32761	32714	
4507	0	32778	32926	
4508	0	32760	32864	
4509	0	32746	32606	
4510	0	32752	32760	
4511	0	32836	32672	
4512	0	32844	32788	
4513	0	32808	32696	
4514	0	32820	32775	
4515	0	32828	32870	
4516	0	32836	32804	
4517	0	32892	32910	
4518	0	32836	32764	
4519	0	32886	32892	
4520	0	32764	32748	
4521	0	32820	32834	
4522	0	32708	32676	
4523	0	32796	32798	
4524	0	32798	32814	
4525	0	32836	32886	
4526	0	32896	32775	
4527	0	32848	32774	
4528	0	32812	32808	
4529	0	32832	32720	
4530	0	32814	32679	
4531	0	32864	32622	
4532	0	32834	32772	
4533	0	32778	32759	
4534	0	32903	32854	
4535	0	32828	32806	
4536	0	32802	32743	
4537	0	32810	32820	
4538	0	32804	32732	
4539	0	32814	32707	
4540	0	32820	32698	
4541	0	32854	32820	
4542	0	32830	32796	
4543	0	32822	32716	
4544	0	32832	32752	
4545	0	32798	32654	
4546	0	32814	32762	
4547	0	32904	32868	
4548	0	32888	32940	
4549	0	32814	32666	
4550	0	32853	32458	
4551	0	32862	32844	
4552	0	32792	32822	
4553	0	32820	32874	
4554	0	32820	32775	
4555	0	32780	32920	
4556	0	32792	32879	
4557	0	32770	32917	
4558	0	32838	32874	
4559	0	32801	32798	
4560	0	32784	32846	
4561	0	32792	32958	
4562	0	32842	32732	
4563	0	32848	32768	
4564	0	32826	32600	
4565	0	32860	32730	
4566	0	32836	32763	
4567	0	32834	32728	
4568	0	32828	32750	
4569	0	32860	32610	
4570	0	32808	32626	
4571	0	32788	32638	
4572	0	32848	32596	
4573	0	32824	32678	
4574	0	32848	32802	
4575	0	32788	32798	
4576	0	32840	32796	
4577	0	32800	32922	
4578	0	32798	32908	
4579	0	32834	33230	
4580	0	32880	32956	
4581	0	32790	32790	
4582	0	32832	32847	
4583	0	32764	32762	
4584	0	32762	32638	
4585	0	32816	32692	
4586	0	32746	32762	
4587	0	32798	32791	
4588	0	32864	32794	
4589	0	32820	32872	
4590	0	32868	32772	
4591	0	32868	32832	
4592	0	32832	32820	
4593	0	32901	32903	
4594	0	32776	32804	
4595	0	32904	32704	
4596	0	32772	32740	
4597	0	32804	32768	
4598	0	32800	32808	
4599	0	32818	32822	
4600	0	32796	32858	
4601	0	32848	32913	
4602	0	32792	32815	
4603	0	32842	32828	
4604	0	32716	32784	
4605	0	32812	32773	
4606	0	32830	32743	
4607	0	32790	32838	
4608	0	32814	32823	
4609	0	32844	32728	
4610	0	32792	32828	
4611	0	32816	32754	
4612	0	32748	32821	
4613	0	32846	32820	
4614	0	32868	32848	
4615	0	32828	32852	
4616	0	32824	32796	
4617	0	32808	32915	
4618	0	32868	32790	
4619	0	32794	32834	
4620	0	32826	32893	
4621	0	32800	32816	
4622	0	32804	32790	
4623	0	32736	32672	
4624	0	32788	32756	
4625	0	32768	32718	
4626	0	32802	32572	
4627	0	32798	32732	
4628	0	32832	32802	
4629	0	32826	32552	
4630	0	32832	32472	
4631	0	32880	32630	
4632	0	32864	32626	
4633	0	32850	32807	
4634	0	32834	33200	
4635	0	32806	33056	
4636	0	32780	33020	
4637	0	32836	32962	
4638	0	32834	32772	
4639	0	32836	32543	
4640	0	32760	32462	
4641	0	32764	32494	
4642	0	32810	32592	
4643	0	32780	32816	
4644	0	32878	32824	
4645	0	32796	32734	
4646	0	32828	32775	
4647	0	32790	32794	
4648	0	32748	32804	
4649	0	32794	32671	
4650	0	32708	32796	
4651	0	32714	32863	
4652	0	32836	32700	
4653	0	32817	32764	
4654	0	32892	32647	
4655	0	32812	32682	
4656	0	32852	32718	
4657	0	32858	32724	
4658	0	32869	32722	
4659	0	32842	32724	
4660	0	32866	32948	
4661	0	32820	32775	
4662	0	32820	32718	
4663	0	32772	32734	
4664	0	32798	32927	
4665	0	32766	33020	
4666	0	32830	32916	
4667	0	32774	32944	
4668	0	32872	33031	
4669	0	32804	32936	
4670	0	32852	32774	
4671	0	32856	32690	
4672	0	32852	32720	
4673	0	32768	32768	
4674	0	32768	32580	
4675	0	32820	32678	
4676	0	32812	32604	
4677	0	32844	32705	
4678	0	32862	32634	
4679	0	32746	32760	
4680	0	32746	32708	
4681	0	32772	32672	
4682	0	32854	32814	
4683	0	32870	32823	
4684	0	32792	32858	
4685	0	32817	32664	
4686	0	32740	32790	
4687	0	32872	32736	
4688	0	32784	32758	
4689	0	32864	32790	
4690	0	32860	32614	
4691	0	32816	32711	
4692	0	32836	32700	
4693	0	32880	32670	
4694	0	32856	32682	
4695	0	32840	32806	
4696	0	32938	32796	
4697	0	32860	32876	
4698	0	32816	32756	
4699	0	32898	32710	
4700	0	32832	32772	
4701	0	32878	32618	
4702	0	32788	32722	
4703	0	32844	32626	
4704	0	32780	32702	
4705	0	32788	32745	
4706	0	32816	32807	
4707	0	32834	32836	
4708	0	32844	32818	
4709	0	32768	32742	
4710	0	32858	32817	
4711	0	32836	32730	
4712	0	32775	32850	
4713	0	32750	32670	
4714	0	32742	32800	
4715	0	32798	32786	
4716	0	32758	32806	
4717	0	32768	32814	
4718	0	32788	32752	
4719	0	32852	32763	
4720	0	32852	32790	
4721	0	32902	32903	
4722	0	32820	32742	
4723	0	32808	32810	
4724	0	32838	32616	
4725	0	32789	32752	
4726	0	32776	32624	
4727	0	32748	32750	
4728	0	32852	32731	
4729	0	32712	32556	
4730	0	32838	32746	
4731	0	32806	32766	
4732	0	32862	32766	
4733	0	32776	32796	
4734	0	32836	32850	
4735	0	32832	32860	
4736	0	32856	32768	
4737	0	32760	32658	
4738	0	32832	32740	
4739	0	32834	32642	
4740	0	32852	32716	
4741	0	32754	32666	
4742	0	32780	32828	
4743	0	32832	32932	
4744	0	32762	33098	
4745	0	32818	32903	
4746	0	32848	32842	
4747	0	32800	33020	
4748	0	32824	32982	
4749	0	32832	32884	
4750	0	32860	32708	
4751	0	32884	32646	
4752	0	32844	32588	
4753	0	32916	32447	
4754	0	32836	32540	
4755	0	32834	32508	
4756	0	32848	32604	
4757	0	32844	32680	
4758	0	32832	32743	
4759	0	32808	32854	
4760	0	32860	32927	
4761	0	32780	33022	
4762	0	32844	32984	
4763	0	32856	32928	
4764	0	32878	32984	
4765	0	32842	32938	
4766	0	32874	32871	
4767	0	32856	32830	
4768	0	32824	32814	
4769	0	32868	32794	
4770	0	32832	32768	
4771	0	32900	32775	
4772	0	32868	32900	
4773	0	32876	32944	
4774	0	32864	32772	
4775	0	32804	32798	
4776	0	32844	32602	
4777	0	32720	32596	
4778	0	32712	32590	
4779	0	32682	32514	
4780	0	32590	32542	
4781	0	32548	32498	
4782	0	32600	32548	
4783	0	32608	32604	
4784	0	32696	32374	
4785	0	32712	32431	
4786	0	32784	32580	
4787	0	32838	32768	
4788	0	32776	32839	
4789	0	32820	32719	
4790	0	32806	32812	
4791	0	32800	32833	
4792	0	32816	33008	
4793	0	32912	32928	
4794	0	32870	32984	
4795	0	32892	33040	
4796	0	32842	32943	
4797	0	32876	33025	
4798	0	32880	32952	
4799	0	32976	32990	
4800	0	32882	32878	
4801	0	32878	32903	
4802	0	32800	32930	
4803	0	32808	32775	
4804	0	32932	32799	
4805	0	32902	32858	
4806	0	32868	32782	
4807	0	32854	32712	
4808	0	32820	32634	
4809	0	32832	32694	
4810	0	32796	32630	
4811	0	32824	32839	
4812	0	32788	32868	
4813	0	32796	32660	
4814	0	32716	32716	
4815	0	32822	32695	
4816	0	32734	32719	
4817	0	32784	32687	
4818	0	32828	32612	
4819	0	32712	32928	
4820	0	32752	32736	
4821	0	32766	32623	
4822	0	32778	32696	
4823	0	32775	32759	
4824	0	32764	32704	
4825	0	32804	32804	
4826	0	32798	32830	
4827	0	32756	32676	
4828	0	32768	32763	
4829	0	32860	32632	
4830	0	32810	32807	
4831	0	32840	32860	
4832	0	32856	32772	
4833	0	32784	32898	
4834	0	32816	32720	
4835	0	32838	32775	
4836	0	32856	32741	
4837	0	32876	32743	
4838	0	32780	32816	
4839	0	32776	32625	
4840	0	32742	32758	
4841	0	32752	32740	
4842	0	32816	32766	
4843	0	32786	32742	
4844	0	32768	32912	
4845	0	32844	32903	
4846	0	32874	32806	
4847	0	32880	32872	
4848	0	32867	32704	
4849	0	32836	32794	
4850	0	32861	32800	
4851	0	32756	32826	
4852	0	32840	32816	
4853	0	32876	32862	
4854	0	32820	32826	
4855	0	32826	32768	
4856	0	32872	32860	
4857	0	32810	32766	
4858	0	32869	32684	
4859	0	32920	32640	
4860	0	32852	32772	
4861	0	32864	32775	
4862	0	32822	32775	
4863	0	32774	32758	
4864	0	32768	32740	
4865	0	32818	32696	
4866	0	32794	32866	
4867	0	32860	32807	
4868	0	32756	32816	
4869	0	32792	32740	
4870	0	32816	32630	
4871	0	32736	32631	
4872	0	32836	32694	
4873	0	32868	32766	
4874	0	32762	32754	
4875	0	32892	32758	
4876	0	32826	32814	
4877	0	32892	32774	
4878	0	32848	32816	
4879	0	32815	32775	
4880	0	32808	32744	
4881	0	32852	32742	
4882	0	32812	32736	
4883	0	32822	32804	
4884	0	32792	32862	
4885	0	32816	32721	
4886	0	32688	32772	
4887	0	32808	32750	
4888	0	32768	32792	
4889	0	32792	32825	
4890	0	32726	32866	
4891	0	32790	32918	
4892	0	32834	32846	
4893	0	32784	32940	
4894	0	32852	32852	
4895	0	32740	32666	
4896	0	32832	32516	
4897	0	32872	32622	
4898	0	32975	32670	
4899	0	32916	32588	
4900	0	32846	32692	
4901	0	32812	32802	
4902	0	32744	32900	
4903	0	32800	32893	
4904	0	32774	32758	
4905	0	32768	32756	
4906	0	32816	32775	
4907	0	32852	32657	
4908	0	32784	32750	
4909	0	32804	32787	
4910	0	32764	32748	
4911	0	32800	32812	
4912	0	32774	32858	
4913	0	32848	32686	
4914	0	32820	32723	
4915	0	32832	32775	
4916	0	32808	32900	
4917	0	32832	32830	
4918	0	32868	32916	
4919	0	32768	32902	
4920	0	32672	32644	
4921	0	32730	32560	
4922	0	32784	32636	
4923	0	32740	32687	
4924	0	32780	32622	
4925	0	32760	32808	
4926	0	32708	32956	
4927	0	32788	32952	
4928	0	32816	32794	
4929	0	32816	32662	
4930	0	32836	32698	
4931	0	32778	32590	
4932	0	32860	32647	
4933	0	32892	32724	
4934	0	32906	32794	
4935	0	32884	32874	
4936	0	32810	32775	
4937	0	32888	32912	
4938	0	32852	32652	
4939	0	32758	32647	
4940	0	32840	32751	
4941	0	32836	32724	
4942	0	32820	32773	
4943	0	32776	32758	
4944	0	32794	32924	
4945	0	32708	32911	
4946	0	32682	32884	
4947	0	32768	32895	
4948	0	32836	32853	
4949	0	32880	32802	
4950	0	32849	32586	
4951	0	32904	32736	
4952	0	32884	32654	
4953	0	32812	32775	
4954	0	32832	32638	
4955	0	32764	32720	
4956	0	32762	32775	
4957	0	32840	32804	
4958	0	32852	32924	
4959	0	32812	32990	
4960	0	32852	32836	
4961	0	32898	32604	
4962	0	32758	32688	
4963	0	32700	32704	
4964	0	32788	32712	
4965	0	32786	32684	
4966	0	32790	32888	
4967	0	32804	32790	
4968	0	32772	32750	
4969	0	32840	32814	
4970	0	32796	32775	
4971	0	32820	32722	
4972	0	32836	32676	
4973	0	32887	32864	
4974	0	32952	32836	
4975	0	32820	32958	
4976	0	32820	32716	
4977	0	32780	32784	
4978	0	32846	32678	
4979	0	32772	32800	
4980	0	32876	32742	
4981	0	32792	32832	
4982	0	32852	32793	
4983	0	32792	32704	
4984	0	32792	32758	
4985	0	32790	32736	
4986	0	32870	32743	
4987	0	32840	32601	
4988	0	32852	32671	
4989	0	32876	32701	
4990	0	32804	32764	
4991	0	32802	32626	
4992	0	32840	32774	
4993	0	32764	32727	
4994	0	32832	32772	
4995	0	32762	32775	
4996	0	32802	32866	
4997	0	32796	32836	
4998	0	32828	32806	
4999	0	32770	32766	
5000	0	32820	32784	
5001	0	32826	32775	
5002	0	32806	32775	
5003	0	32772	32858	
5004	0	32812	32846	
5005	0	32800	32830	
5006	0	32766	32772	
5007	0	32776	32940	
5008	0	32788	32820	
5009	0	32824	32872	
5010	0	32706	32844	
5011	0	32738	32775	
5012	0	32812	32800	
5013	0	32760	32734	
5014	0	32844	32710	
5015	0	32750	32700	
5016	0	32804	32740	
5017	0	32840	32721	
5018	0	32836	32671	
5019	0	32888	32775	
5020	0	32838	32798	
5021	0	32824	32836	
5022	0	32892	32722	
5023	0	32894	32800	
5024	0	32772	32736	
5025	0	32788	32788	
5026	0	32776	32775	
5027	0	32812	32760	
5028	0	32746	32785	
5029	0	32830	32662	
5030	0	32756	32738	
5031	0	32774	32655	
5032	0	32776	32764	
5033	0	32852	32730	
5034	0	32826	32934	
5035	0	32824	32812	
5036	0	32856	32796	
5037	0	32906	32828	
5038	0	32832	32803	
5039	0	32792	32775	
5040	0	32776	32614	
5041	0	32740	32660	
5042	0	32824	32696	
5043	0	32850	32838	
5044	0	32824	32775	
5045	0	32736	32692	
5046	0	32808	32746	
5047	0	32792	32686	
5048	0	32800	32712	
5049	0	32884	32764	
5050	0	32820	32832	
5051	0	32764	32828	
5052	0	32852	32730	
5053	0	32802	32730	
5054	0	32832	32702	
5055	0	32774	32708	
5056	0	32802	32746	
5057	0	32824	32796	
5058	0	32828	32732	
5059	0	32862	32850	
5060	0	32834	32844	
5061	0	32764	32977	
5062	0	32844	32822	
5063	0	32814	32852	
5064	0	32828	32708	
5065	0	32826	32788	
5066	0	32796	32724	
5067	0	32772	32860	
5068	0	32864	32740	
5069	0	32814	32838	
5070	0	32812	32762	
5071	0	32792	32690	
5072	0	32776	32724	
5073	0	32768	32682	
5074	0	32816	32710	
5075	0	32768	32748	
5076	0	32862	32600	
5077	0	32884	32818	
5078	0	32832	32806	
5079	0	32784	32806	
5080	0	32796	32700	
5081	0	32820	32732	
5082	0	32790	32886	
5083	0	32804	32804	
5084	0	32776	32831	
5085	0	32768	32876	
5086	0	32864	32724	
5087	0	32880	32692	
5088	0	32772	32678	
5089	0	32872	32714	
5090	0	32824	32732	
5091	0	32782	32836	
5092	0	32792	32694	
5093	0	32840	32794	
5094	0	32870	32740	
5095	0	32764	32844	
5096	0	32736	32762	
5097	0	32782	32775	
5098	0	32808	32670	
5099	0	32834	32828	
5100	0	32794	32794	
5101	0	32789	32816	
5102	0	32790	32697	
5103	0	32808	32686	
5104	0	32804	32699	
5105	0	32768	32788	
5106	0	32796	32926	
5107	0	32756	32839	
5108	0	32840	32828	
5109	0	32886	32766	
5110	0	32828	32822	
5111	0	32806	32770	
5112	0	32804	32850	
5113	0	32821	32720	
5114	0	32786	32789	
5115	0	32830	32742	
5116	0	32878	32742	
5117	0	32854	32806	
5118	0	32856	32750	
5119	0	32792	32830	
5120	0	32804	32799	
5121	0	32836	32864	
5122	0	32804	32766	
5123	0	32824	32918	
5124	0	32774	32920	
5125	0	32818	32718	
5126	0	32808	32742	
5127	0	32848	32545	
5128	0	32776	32740	
5129	0	32804	32630	
5130	0	32876	32740	
5131	0	32836	32718	
5132	0	32780	32638	
5133	0	32792	32830	
5134	0	32840	32864	
5135	0	32866	32910	
5136	0	32834	32839	
5137	0	32820	32826	
5138	0	32816	32831	
5139	0	32808	32756	
5140	0	32828	32740	
5141	0	32784	32764	
5142	0	32810	32762	
5143	0	32752	32852	
5144	0	32746	32838	
5145	0	32728	32792	
5146	0	32790	32842	
5147	0	32728	32846	
5148	0	32808	32696	
5149	0	32746	32680	
5150	0	32762	32716	
5151	0	32796	32686	
5152	0	32888	32700	
5153	0	32852	32743	
5154	0	32868	32768	
5155	0	32852	32746	
5156	0	32818	32790	
5157	0	32878	32692	
5158	0	32896	32694	
5159	0	32824	32806	
5160	0	32880	32802	
5161	0	32808	32910	
5162	0	32824	32804	
5163	0	32808	32878	
5164	0	32824	32748	
5165	0	32744	32726	
5166	0	32820	32628	
5167	0	32810	32852	
5168	0	32734	32670	
5169	0	32790	32836	
5170	0	32800	32764	
5171	0	32848	32708	
5172	0	32824	32802	
5173	0	32840	32710	
5174	0	32840	32814	
5175	0	32762	32865	
5176	0	32880	32817	
5177	0	32778	32809	
5178	0	32768	32807	
5179	0	32872	32740	
5180	0	32808	32513	
5181	0	32748	32740	
5182	0	32724	32762	
5183	0	32778	32858	
5184	0	32836	32858	
5185	0	32844	32676	
5186	0	32828	32775	
5187	0	32868	32839	
5188	0	32832	32816	
5189	0	32856	32730	
5190	0	32856	32847	
5191	0	32948	32880	
5192	0	32812	32806	
5193	0	32804	32775	
5194	0	32800	32647	
5195	0	32758	32720	
5196	0	32841	32644	
5197	0	32862	32670	
5198	0	32836	32652	
5199	0	32774	32832	
5200	0	32808	32732	
5201	0	32788	32804	
5202	0	32814	32718	
5203	0	32768	32822	
5204	0	32824	32756	
5205	0	32748	32895	
5206	0	32692	32802	
5207	0	32766	32753	
5208	0	32716	32740	
5209	0	32704	32672	
5210	0	32700	32790	
5211	0	32820	32752	
5212	0	32772	32702	
5213	0	32780	32796	
5214	0	32720	32626	
5215	0	32836	32738	
5216	0	32820	32606	
5217	0	32856	32761	
5218	0	32836	32756	
5219	0	32834	32858	
5220	0	32850	32852	
5221	0	32870	32748	
5222	0	32776	32820	
5223	0	32816	32638	
5224	0	32824	32856	
5225	0	32874	32636	
5226	0	32816	32746	
5227	0	32820	32775	
5228	0	32788	32766	
5229	0	32764	32724	
5230	0	32880	32775	
5231	0	32820	32775	
5232	0	32849	32837	
5233	0	32834	32728	
5234	0	32896	32628	
5235	0	32934	32734	
5236	0	32832	32870	
5237	0	32876	32872	
5238	0	32804	32863	
5239	0	32808	32775	
5240	0	32754	32734	
5241	0	32804	32662	
5242	0	32876	32728	
5243	0	32836	32724	
5244	0	32752	32788	
5245	0	32796	32682	
5246	0	32784	32832	
5247	0	32814	32722	
5248	0	32812	32818	
5249	0	32836	32902	
5250	0	32800	32806	
5251	0	32746	32814	
5252	0	32756	32684	
5253	0	32852	32836	
5254	0	32834	32732	
5255	0	32780	32703	
5256	0	32790	32847	
5257	0	32848	32775	
5258	0	32810	32711	
5259	0	32772	32710	
5260	0	32792	32758	
5261	0	32812	32743	
5262	0	32736	32816	
5263	0	32652	32810	
5264	0	32706	32852	
5265	0	32730	32743	
5266	0	32752	32798	
5267	0	32784	32807	
5268	0	32740	32839	
5269	0	32752	32876	
5270	0	32856	32838	
5271	0	32820	32828	
5272	0	32864	32704	
5273	0	32864	32863	
5274	0	32866	32742	
5275	0	32868	32748	
5276	0	32804	32768	
5277	0	32852	32808	
5278	0	32884	32738	
5279	0	32910	32775	
5280	0	32840	32775	
5281	0	32784	32722	
5282	0	32864	32728	
5283	0	32838	32775	
5284	0	32864	32775	
5285	0	32860	32684	
5286	0	32816	32772	
5287	0	32852	32655	
5288	0	32808	32807	
5289	0	32812	32694	
5290	0	32888	32846	
5291	0	32888	32851	
5292	0	32814	32880	
5293	0	32812	32850	
5294	0	32781	32768	
5295	0	32808	32726	
5296	0	32798	32757	
5297	0	32824	32646	
5298	0	32828	32698	
5299	0	32866	32846	
5300	0	32866	32810	
5301	0	32864	32775	
5302	0	32836	32812	
5303	0	32792	32804	
5304	0	32864	32846	
5305	0	32920	32754	
5306	0	32892	32654	
5307	0	32814	32698	
5308	0	32816	32708	
5309	0	32712	32775	
5310	0	32772	32872	
5311	0	32792	32884	
5312	0	32762	32915	
5313	0	32800	32946	
5314	0	32820	32800	
5315	0	32856	32756	
5316	0	32800	32588	
5317	0	32832	32568	
5318	0	32718	32676	
5319	0	32770	32708	
5320	0	32746	32830	
5321	0	32808	32852	
5322	0	32788	32882	
5323	0	32818	32800	
5324	0	32776	32775	
5325	0	32716	32684	
5326	0	32756	32702	
5327	0	32802	32702	
5328	0	32732	32692	
5329	0	32854	32766	
5330	0	32866	32784	
5331	0	32870	32844	
5332	0	32856	32848	
5333	0	32804	32858	
5334	0	32868	32775	
5335	0	32924	32764	
5336	0	32873	32775	
5337	0	32868	32824	
5338	0	32828	32916	
5339	0	32810	32724	
5340	0	32800	32768	
5341	0	32836	32800	
5342	0	32764	32830	
5343	0	32788	32756	
5344	0	32794	32754	
5345	0	32808	32854	
5346	0	32780	32764	
5347	0	32776	32692	
5348	0	32828	32704	
5349	0	32784	32746	
5350	0	32846	32720	
5351	0	32852	32766	
5352	0	32816	32762	
5353	0	32796	32950	
5354	0	32820	32775	
5355	0	32902	32710	
5356	0	32828	32702	
5357	0	32832	32692	
5358	0	32854	32762	
5359	0	32770	32855	
5360	0	32772	32734	
5361	0	32778	32775	
5362	0	32794	32825	
5363	0	32752	32742	
5364	0	32804	32815	
5365	0	32788	32828	
5366	0	32808	32768	
5367	0	32780	32734	
5368	0	32752	32636	
5369	0	32826	32794	
5370	0	32812	32754	
5371	0	32828	32700	
5372	0	32864	32750	
5373	0	32894	32814	
5374	0	32896	32657	
5375	0	32948	32719	
5376	0	32878	32717	
5377	0	32848	32820	
5378	0	32762	32798	
5379	0	32786	32890	
5380	0	32804	32775	
5381	0	32872	32806	
5382	0	32704	32856	
5383	0	32698	32814	
5384	0	32780	32879	
5385	0	32724	32703	
5386	0	32802	32708	
5387	0	32816	32734	
5388	0	32944	32860	
5389	0	32864	32775	
5390	0	32908	32732	
5391	0	32864	32693	
5392	0	32764	32638	
5393	0	32844	32711	
5394	0	32840	32729	
5395	0	32788	32656	
5396	0	32834	32700	
5397	0	32754	32688	
5398	0	32736	32823	
5399	0	32786	32820	
5400	0	32784	32860	
5401	0	32846	32775	
5402	0	32798	32707	
5403	0	32860	32670	
5404	0	32780	32634	
5405	0	32702	32814	
5406	0	32784	32852	
5407	0	32816	32990	
5408	0	32840	32903	
5409	0	32776	32868	
5410	0	32752	32830	
5411	0	32824	32838	
5412	0	32828	32824	
5413	0	32808	32855	
5414	0	32868	32902	
5415	0	32778	32704	
5416	0	32846	32724	
5417	0	32934	32750	
5418	0	32924	32774	
5419	0	32860	32800	
5420	0	32840	32775	
5421	0	32900	32799	
5422	0	32900	32943	
5423	0	32836	32966	
5424	0	32876	32828	
5425	0	32832	32828	
5426	0	32858	32743	
5427	0	32824	32804	
5428	0	32796	32712	
5429	0	32850	32820	
5430	0	32894	32775	
5431	0	32842	32670	
5432	0	32870	32808	
5433	0	32868	32790	
5434	0	32916	32871	
5435	0	32820	32750	
5436	0	32872	32838	
5437	0	32832	32886	
5438	0	32816	32768	
5439	0	32712	32743	
5440	0	32596	32482	
5441	0	32644	32606	
5442	0	32600	32515	
5443	0	32580	32447	
5444	0	32548	32391	
5445	0	32540	32334	
5446	0	32668	32476	
5447	0	32772	32540	
5448	0	32720	32710	
5449	0	32848	32834	
5450	0	32871	32880	
5451	0	32824	32927	
5452	0	32904	32812	
5453	0	32922	32868	
5454	0	32804	32674	
5455	0	32826	32859	
5456	0	32864	32796	
5457	0	32864	32822	
5458	0	32886	32918	
5459	0	32882	32978	
5460	0	32944	32958	
5461	0	32866	32936	
5462	0	32888	32806	
5463	0	32946	32754	
5464	0	32864	32816	
5465	0	32864	32815	
5466	0	32848	32796	
5467	0	32776	32832	
5468	0	32794	32912	
5469	0	32812	32798	
5470	0	32768	32740	
5471	0	32752	32743	
5472	0	32832	32727	
5473	0	32824	32815	
5474	0	32804	32710	
5475	0	32778	32820	
5476	0	32696	32758	
5477	0	32752	32736	
5478	0	32808	32790	
5479	0	32756	32682	
5480	0	32832	32788	
5481	0	32908	32656	
5482	0	32820	32698	
5483	0	32820	32682	
5484	0	32796	32775	
5485	0	32782	32793	
5486	0	32744	32854	
5487	0	32808	32870	
5488	0	32796	32768	
5489	0	32798	32792	
5490	0	32798	32768	
5491	0	32810	32734	
5492	0	32804	32775	
5493	0	32876	32754	
5494	0	32824	32831	
5495	0	32895	32732	
5496	0	32840	32726	
5497	0	32972	32644	
5498	0	32874	32687	
5499	0	32760	32742	
5500	0	32792	32800	
5501	0	32888	32647	
5502	0	32842	32850	
5503	0	32812	32874	
5504	0	32802	32852	
5505	0	32836	32817	
5506	0	32786	32775	
5507	0	32756	32766	
5508	0	32792	32824	
5509	0	32748	32720	
5510	0	32886	32674	
5511	0	32740	32684	
5512	0	32856	32718	
5513	0	32832	32802	
5514	0	32842	32754	
5515	0	32786	32712	
5516	0	32778	32724	
5517	0	32784	32692	
5518	0	32802	32748	
5519	0	32774	32820	
5520	0	32750	32858	
5521	0	32764	32871	
5522	0	32810	32824	
5523	0	32901	32816	
5524	0	32824	32876	
5525	0	32856	32772	
5526	0	32852	32852	
5527	0	32846	32721	
5528	0	32808	32772	
5529	0	32776	32768	
5530	0	32804	32734	
5531	0	32874	32686	
5532	0	32804	32735	
5533	0	32758	32856	
5534	0	32748	32692	
5535	0	32804	32772	
5536	0	32778	32748	
5537	0	32740	32746	
5538	0	32678	32816	
5539	0	32808	32886	
5540	0	32766	32788	
5541	0	32822	32850	
5542	0	32836	32786	
5543	0	32854	32903	
5544	0	32936	32638	
5545	0	32852	32798	
5546	0	32860	32744	
5547	0	32910	32766	
5548	0	32820	32728	
5549	0	32836	32743	
5550	0	32896	32822	
5551	0	32892	32775	
5552	0	32792	32796	
5553	0	32778	32696	
5554	0	32772	32914	
5555	0	32750	32822	
5556	0	32870	32794	
5557	0	32850	32682	
5558	0	32808	32844	
5559	0	32798	32820	
5560	0	32760	32836	
5561	0	32752	32799	
5562	0	32676	32700	
5563	0	32592	32710	
5564	0	32708	32823	
5565	0	32736	32743	
5566	0	32764	32835	
5567	0	32808	32884	
5568	0	32816	32762	
5569	0	32852	32828	
5570	0	32800	32708	
5571	0	32826	32804	
5572	0	32816	32734	
5573	0	32846	32766	
5574	0	32892	32812	
5575	0	32840	32775	
5576	0	32948	32838	
5577	0	32912	32838	
5578	0	32936	32770	
5579	0	32836	32767	
5580	0	32814	32755	
5581	0	32858	32742	
5582	0	32896	32858	
5583	0	32882	32882	
5584	0	32808	32874	
5585	0	32790	32761	
5586	0	32788	32870	
5587	0	32840	32690	
5588	0	32816	32794	
5589	0	32842	32736	
5590	0	32852	32772	
5591	0	32876	32798	
5592	0	32840	32734	
5593	0	32746	32699	
5594	0	32770	32682	
5595	0	32790	32846	
5596	0	32801	32852	
5597	0	32714	32716	
5598	0	32708	32724	
5599	0	32748	32643	
5600	0	32778	32746	
5601	0	32760	32647	
5602	0	32832	32689	
5603	0	32852	32658	
5604	0	32828	32831	
5605	0	32884	32898	
5606	0	32793	32774	
5607	0	32812	32812	
5608	0	32802	32758	
5609	0	32884	32796	
5610	0	32888	32775	
5611	0	32856	32716	
5612	0	32854	32710	
5613	0	32828	32772	
5614	0	32872	32710	
5615	0	32838	32822	
5616	0	32737	32714	
5617	0	32812	32775	
5618	0	32786	32680	
5619	0	32764	32807	
5620	0	32870	32896	
5621	0	32916	32884	
5622	0	32810	32846	
5623	0	32804	32678	
5624	0	32788	32804	
5625	0	32854	32775	
5626	0	32746	32866	
5627	0	32738	32758	
5628	0	32754	32756	
5629	0	32738	32732	
5630	0	32804	32742	
5631	0	32808	32722	
5632	0	32736	32644	
5633	0	32752	32728	
5634	0	32844	32708	
5635	0	32812	32646	
5636	0	32792	32818	
5637	0	32812	32912	
5638	0	32804	32960	
5639	0	32812	32844	
5640	0	32816	32668	
5641	0	32820	32756	
5642	0	32716	32684	
5643	0	32852	32692	
5644	0	32846	32662	
5645	0	32870	32740	
5646	0	32806	32716	
5647	0	32812	32766	
5648	0	32820	32727	
5649	0	32785	32816	
5650	0	32770	32716	
5651	0	32744	32911	
5652	0	32856	32774	
5653	0	32820	32806	
5654	0	32818	32806	
5655	0	32798	32716	
5656	0	32776	32710	
5657	0	32858	32708	
5658	0	32824	32692	
5659	0	32804	32770	
5660	0	32748	32793	
5661	0	32664	32646	
5662	0	32764	32838	
5663	0	32808	32706	
5664	0	32828	32743	
5665	0	32897	32602	
5666	0	32864	32754	
5667	0	32834	32810	
5668	0	32860	32737	
5669	0	32808	32804	
5670	0	32812	32674	
5671	0	32736	32889	
5672	0	32832	32775	
5673	0	32818	32758	
5674	0	32796	32775	
5675	0	32840	32724	
5676	0	32816	32794	
5677	0	32768	32664	
5678	0	32752	32738	
5679	0	32796	32808	
5680	0	32844	32702	
5681	0	32816	32750	
5682	0	32800	32722	
5683	0	32864	32855	
5684	0	32802	32798	
5685	0	32758	32884	
5686	0	32772	32734	
5687	0	32812	32700	
5688	0	32816	32730	
5689	0	32822	32894	
5690	0	32828	32702	
5691	0	32812	32828	
5692	0	32816	32738	
5693	0	32860	32790	
5694	0	32820	32804	
5695	0	32804	32689	
5696	0	32772	32750	
5697	0	32824	32624	
5698	0	32836	32750	
5699	0	32840	32750	
5700	0	32826	32703	
5701	0	32888	32900	
5702	0	32932	32890	
5703	0	32788	32878	
5704	0	32852	32832	
5705	0	32800	32806	
5706	0	32820	32640	
5707	0	32788	32618	
5708	0	32816	32662	
5709	0	32720	32712	
5710	0	32794	32839	
5711	0	32852	32864	
5712	0	32784	32807	
5713	0	32834	32762	
5714	0	32806	32831	
5715	0	32806	32815	
5716	0	32780	32636	
5717	0	32864	32647	
5718	0	32888	32706	
5719	0	32760	32792	
5720	0	32808	32816	
5721	0	32836	32863	
5722	0	32872	32824	
5723	0	32766	32796	
5724	0	32850	32769	
5725	0	32775	32679	
5726	0	32868	32736	
5727	0	32834	32775	
5728	0	32836	32823	
5729	0	32918	32775	
5730	0	32816	32760	
5731	0	32824	32770	
5732	0	32816	32760	
5733	0	32800	32786	
5734	0	32777	32874	
5735	0	32776	32918	
5736	0	32836	32724	
5737	0	32736	32704	
5738	0	32775	32658	
5739	0	32836	32696	
5740	0	32776	32700	
5741	0	32824	32670	
5742	0	32798	32719	
5743	0	32800	32730	
5744	0	32828	32795	
5745	0	32832	32694	
5746	0	32820	32775	
5747	0	32852	32898	
5748	0	32752	32842	
5749	0	32800	32902	
5750	0	32788	32896	
5751	0	32804	32886	
5752	0	32840	32740	
5753	0	32768	32774	
5754	0	32846	32658	
5755	0	32774	32750	
5756	0	32756	32720	
5757	0	32780	32864	
5758	0	32820	32796	
5759	0	32856	32743	
5760	0	32808	32807	
5761	0	32846	32808	
5762	0	32912	32790	
5763	0	32882	32740	
5764	0	32912	32702	
5765	0	32834	32638	
5766	0	32744	32772	
5767	0	32742	32791	
5768	0	32808	32688	
5769	0	32828	32839	
5770	0	32852	32826	
5771	0	32888	32838	
5772	0	32826	32674	
5773	0	32830	32730	
5774	0	32848	32772	
5775	0	32826	32808	
5776	0	32834	32732	
5777	0	32872	32709	
5778	0	32812	32679	
5779	0	32856	32714	
5780	0	32796	32860	
5781	0	32772	32878	
5782	0	32704	32850	
5783	0	32738	32666	
5784	0	32778	32712	
5785	0	32780	32738	
5786	0	32808	32726	
5787	0	32832	32683	
5788	0	32786	32823	
5789	0	32746	32804	
5790	0	32742	32748	
5791	0	32802	32772	
5792	0	32817	32704	
5793	0	32860	32750	
5794	0	32828	32788	
5795	0	32818	32910	
5796	0	32794	32775	
5797	0	32808	32758	
5798	0	32892	32775	
5799	0	32832	32725	
5800	0	32832	32792	
5801	0	32825	32872	
5802	0	32856	32720	
5803	0	32816	32738	
5804	0	32793	32676	
5805	0	32810	32774	
5806	0	32806	32775	
5807	0	32824	32836	
5808	0	32876	32770	
5809	0	32912	32644	
5810	0	32896	32806	
5811	0	32828	32861	
5812	0	32824	32840	
5813	0	32805	32814	
5814	0	32798	32642	
5815	0	32740	32814	
5816	0	32832	32706	
5817	0	32808	32760	
5818	0	32810	32799	
5819	0	32740	32746	
5820	0	32724	32698	
5821	0	32744	32945	
5822	0	32777	32838	
5823	0	32828	32870	
5824	0	32796	32820	
5825	0	32808	32679	
5826	0	32706	32674	
5827	0	32868	32576	
5828	0	32768	32782	
5829	0	32772	32728	
5830	0	32800	32740	
5831	0	32804	32775	
5832	0	32840	32748	
5833	0	32814	32750	
5834	0	32770	32832	
5835	0	32808	32774	
5836	0	32824	32664	
5837	0	32780	32884	
5838	0	32768	32724	
5839	0	32806	32760	
5840	0	32836	32710	
5841	0	32826	32752	
5842	0	32800	32654	
5843	0	32868	32751	
5844	0	32834	32656	
5845	0	32848	32806	
5846	0	32836	32720	
5847	0	32836	32790	
5848	0	32820	32808	
5849	0	32806	32697	
5850	0	32764	32846	
5851	0	32836	32766	
5852	0	32826	32772	
5853	0	32796	32839	
5854	0	32836	32836	
5855	0	32832	32802	
5856	0	32824	32823	
5857	0	32840	32818	
5858	0	32854	32682	
5859	0	32724	32690	
5860	0	32768	32655	
5861	0	32792	32727	
5862	0	32754	32734	
5863	0	32705	32752	
5864	0	32826	32847	
5865	0	32888	32818	
5866	0	32818	32847	
5867	0	32840	32728	
5868	0	32860	32868	
5869	0	32816	32807	
5870	0	32740	32862	
5871	0	32856	32786	
5872	0	32802	32775	
5873	0	32776	32718	
5874	0	32794	32720	
5875	0	32796	32720	
5876	0	32844	32775	
5877	0	32812	32822	
5878	0	32804	32789	
5879	0	32810	32838	
5880	0	32746	32770	
5881	0	32780	32692	
5882	0	32872	32708	
5883	0	32856	32775	
5884	0	32736	32786	
5885	0	32876	32775	
5886	0	32772	32775	
5887	0	32800	32810	
5888	0	32840	32865	
5889	0	32804	32820	
5890	0	32842	32766	
5891	0	32850	32679	
5892	0	32840	32748	
5893	0	32800	32754	
5894	0	32744	32842	
5895	0	32830	32900	
5896	0	32786	32738	
5897	0	32824	32594	
5898	0	32808	32750	
5899	0	32884	32692	
5900	0	32850	32727	
5901	0	32804	32750	
5902	0	32820	32680	
5903	0	32786	32748	
5904	0	32812	32790	
5905	0	32748	32743	
5906	0	32792	32858	
5907	0	32748	32791	
5908	0	32764	32870	
5909	0	32810	32838	
5910	0	32774	32756	
5911	0	32822	32824	
5912	0	32784	32824	
5913	0	32828	32764	
5914	0	32794	32690	
5915	0	32788	32750	
5916	0	32838	32647	
5917	0	32780	32752	
5918	0	32878	32806	
5919	0	32786	32828	
5920	0	32746	32807	
5921	0	32848	32775	
5922	0	32796	32704	
5923	0	32854	32972	
5924	0	32856	32847	
5925	0	32872	32775	
5926	0	32788	32760	
5927	0	32776	32824	
5928	0	32762	32775	
5929	0	32836	32673	
5930	0	32836	32706	
5931	0	32852	32688	
5932	0	32822	32822	
5933	0	32788	32679	
5934	0	32808	32838	
5935	0	32780	32774	
5936	0	32872	32698	
5937	0	32774	32766	
5938	0	32856	32756	
5939	0	32792	32788	
5940	0	32792	32791	
5941	0	32916	32739	
5942	0	32868	32810	
5943	0	32776	32902	
5944	0	32772	32906	
5945	0	32836	32852	
5946	0	32864	32775	
5947	0	32820	32756	
5948	0	32792	32676	
5949	0	32796	32839	
5950	0	32772	32796	
5951	0	32768	32696	
5952	0	32822	32788	
5953	0	32772	32814	
5954	0	32752	32720	
5955	0	32764	32670	
5956	0	32745	32666	
5957	0	32824	32770	
5958	0	32778	32816	
5959	0	32820	32716	
5960	0	32838	32743	
5961	0	32806	32646	
5962	0	32810	32732	
5963	0	32788	32746	
5964	0	32814	32852	
5965	0	32812	32887	
5966	0	32784	32734	
5967	0	32816	32702	
5968	0	32872	32760	
5969	0	32764	32904	
5970	0	32830	32932	
5971	0	32872	32740	
5972	0	32864	32756	
5973	0	32868	32682	
5974	0	32848	32742	
5975	0	32792	32738	
5976	0	32836	32839	
5977	0	32890	32804	
5978	0	32836	32775	
5979	0	32818	32830	
5980	0	32832	32823	
5981	0	32744	32858	
5982	0	32792	32710	
5983	0	32790	32676	
5984	0	32778	32752	
5985	0	32772	32672	
5986	0	32708	32764	
5987	0	32732	32774	
5988	0	32810	32804	
5989	0	32760	32792	
5990	0	32784	32823	
5991	0	32884	32736	
5992	0	32870	32748	
5993	0	32878	32798	
5994	0	32924	32860	
5995	0	32860	32772	
5996	0	32878	32766	
5997	0	32808	32734	
5998	0	32864	32750	
5999	0	32824	32886	
6000	0	32840	32722	
6001	0	32804	32902	
6002	0	32726	32762	
6003	0	32758	32694	
6004	0	32784	32808	
6005	0	32748	32707	
6006	0	32820	32804	
6007	0	32782	32828	
6008	0	32820	32770	
6009	0	32860	32766	
6010	0	32872	32784	
6011	0	32846	32846	
6012	0	32855	32766	
