# OpenSignals Text File Format. Version 1
# {"00:07:80:8C:0A:39": {"position": 0, "device": "biosignalsplux", "device name": "00:07:80:8C:0A:39", "device connection": "BTH00:07:80:8C:0A:39", "sampling rate": 1000, "resolution": [16, 16], "firmware version": 776, "comments": "", "keywords": "", "mode": 0, "sync interval": 2, "date": "2023-3-17", "time": "14:55:9.681", "channels": [1, 2], "sensor": ["EMG", "EMG"], "label": ["CH1", "CH2"], "column": ["nSeq", "DI", "CH1", "CH2"], "special": [{"SpO2": [80, 40, 5, 4, 3, 3]}, {"SpO2": [80, 40, 5, 4, 3, 3]}, {"SpO2": [80, 40, 5, 4, 3, 3]}, {"SpO2": [80, 40, 5, 4, 3, 3]}, {"SpO2": [80, 40, 5, 4, 3, 3]}, {"SpO2": [80, 40, 5, 4, 3, 3]}, {"SpO2": [80, 40, 5, 4, 3, 3]}, {"SpO2": [80, 40, 5, 4, 3, 3]}], "digital IO": [0, 1], "sleeve color": ["gray", "yellow"], "convertedValues": 0}}
# EndOfHeader
0	0	32876	32892	
1	0	32884	32806	
2	0	32884	32888	
3	0	32826	32804	
4	0	32964	32879	
5	0	32840	32836	
6	0	32892	32847	
7	0	32836	32863	
8	0	32840	32911	
9	0	32860	32856	
10	0	32896	32910	
11	0	32910	32790	
12	0	32860	32828	
13	0	32868	32740	
14	0	32812	32766	
15	0	32860	32826	
16	0	32862	32775	
17	0	32780	32812	
18	0	32788	32724	
19	0	32816	32703	
20	0	32832	32750	
21	0	32798	32728	
22	0	32768	32704	
23	0	32758	32830	
24	0	32792	32760	
25	0	32764	32732	
26	0	32828	32740	
27	0	32724	32726	
28	0	32824	32802	
29	0	32812	32730	
30	0	32804	32764	
31	0	32804	32822	
32	0	32848	32714	
33	0	32865	32792	
34	0	32714	32744	
35	0	32800	32692	
36	0	32824	32758	
37	0	32824	32646	
38	0	32784	32766	
39	0	32792	32820	
40	0	32832	32820	
41	0	32740	32804	
42	0	32872	32700	
43	0	32844	32788	
44	0	32888	32698	
45	0	32780	32894	
46	0	32850	32762	
47	0	32812	32764	
48	0	32826	32804	
49	0	32788	32662	
50	0	32774	32775	
51	0	32748	32828	
52	0	32836	32714	
53	0	32808	32775	
54	0	32788	32808	
55	0	32790	32676	
56	0	32750	32758	
57	0	32844	32716	
58	0	32872	32800	
59	0	32800	32810	
60	0	32852	32764	
61	0	32826	32810	
62	0	32838	32742	
63	0	32816	32752	
64	0	32808	32688	
65	0	32794	32748	
66	0	32794	32762	
67	0	32836	32816	
68	0	32804	32759	
69	0	32828	32774	
70	0	32828	32775	
71	0	32764	32744	
72	0	32834	32732	
73	0	32792	32732	
74	0	32814	32788	
75	0	32868	32852	
76	0	32760	32692	
77	0	32816	32744	
78	0	32776	32761	
79	0	32804	32876	
80	0	32820	32822	
81	0	32812	32860	
82	0	32766	32752	
83	0	32844	32728	
84	0	32860	32716	
85	0	32806	32756	
86	0	32836	32774	
87	0	32796	32802	
88	0	32782	32708	
89	0	32844	32794	
90	0	32824	32728	
91	0	32822	32788	
92	0	32794	32712	
93	0	32792	32770	
94	0	32796	32770	
95	0	32804	32838	
96	0	32792	32656	
97	0	32782	32768	
98	0	32780	32730	
99	0	32859	32828	
100	0	32784	32812	
101	0	32828	32730	
102	0	32808	32796	
103	0	32868	32726	
104	0	32744	32808	
105	0	32761	32809	
106	0	32748	32682	
107	0	32800	32772	
108	0	32836	32722	
109	0	32828	32775	
110	0	32840	32775	
111	0	32792	32794	
112	0	32862	32710	
113	0	32788	32654	
114	0	32836	32792	
115	0	32804	32858	
116	0	32802	32830	
117	0	32896	32738	
118	0	32868	32692	
119	0	32808	32722	
120	0	32796	32748	
121	0	32790	32818	
122	0	32824	32698	
123	0	32772	32834	
124	0	32828	32774	
125	0	32762	32824	
126	0	32796	32775	
127	0	32775	32820	
128	0	32762	32746	
129	0	32766	32694	
130	0	32888	32748	
131	0	32870	32760	
132	0	32778	32784	
133	0	32824	32652	
134	0	32844	32762	
135	0	32840	32628	
136	0	32804	32748	
137	0	32844	32740	
138	0	32804	32830	
139	0	32852	32815	
140	0	32774	32902	
141	0	32824	32833	
142	0	32806	32743	
143	0	32904	32774	
144	0	32824	32684	
145	0	32796	32814	
146	0	32776	32772	
147	0	32792	32716	
148	0	32812	32764	
149	0	32864	32770	
150	0	32804	32806	
151	0	32812	32880	
152	0	32786	32811	
153	0	32800	32824	
154	0	32856	32692	
155	0	32812	32718	
156	0	32812	32756	
157	0	32812	32850	
158	0	32802	32806	
159	0	32802	32768	
160	0	32808	32820	
161	0	32778	32682	
162	0	32864	32735	
163	0	32760	32674	
164	0	32848	32804	
165	0	32788	32752	
166	0	32800	32814	
167	0	32762	32738	
168	0	32760	32754	
169	0	32824	32714	
170	0	32800	32876	
171	0	32746	32774	
172	0	32852	32838	
173	0	32876	32802	
174	0	32796	32734	
175	0	32820	32775	
176	0	32792	32687	
177	0	32784	32814	
178	0	32885	32838	
179	0	32844	32799	
180	0	32804	32762	
181	0	32794	32774	
182	0	32708	32706	
183	0	32808	32656	
184	0	32834	32692	
185	0	32837	32708	
186	0	32844	32775	
187	0	32762	32820	
188	0	32782	32710	
189	0	32820	32748	
190	0	32760	32722	
191	0	32776	32812	
192	0	32848	32834	
193	0	32818	32750	
194	0	32844	32766	
195	0	32768	32736	
196	0	32830	32828	
197	0	32868	32805	
198	0	32814	32743	
199	0	32876	32823	
200	0	32824	32818	
201	0	32796	32758	
202	0	32756	32798	
203	0	32752	32700	
204	0	32869	32774	
205	0	32820	32792	
206	0	32738	32748	
207	0	32874	32804	
208	0	32836	32724	
209	0	32814	32838	
210	0	32816	32814	
211	0	32820	32660	
212	0	32776	32775	
213	0	32782	32825	
214	0	32832	32682	
215	0	32780	32772	
216	0	32812	32764	
217	0	32784	32775	
218	0	32846	32704	
219	0	32756	32844	
220	0	32790	32852	
221	0	32806	32716	
222	0	32768	32730	
223	0	32788	32698	
224	0	32796	32764	
225	0	32808	32816	
226	0	32794	32740	
227	0	32760	32786	
228	0	32816	32732	
229	0	32816	32856	
230	0	32808	32769	
231	0	32792	32838	
232	0	32818	32766	
233	0	32792	32775	
234	0	32830	32856	
235	0	32808	32842	
236	0	32850	32770	
237	0	32752	32750	
238	0	32858	32775	
239	0	32774	32803	
240	0	32828	32840	
241	0	32812	32828	
242	0	32756	32729	
243	0	32848	32738	
244	0	32822	32686	
245	0	32826	32846	
246	0	32812	32775	
247	0	32800	32852	
248	0	32848	32846	
249	0	32848	32796	
250	0	32768	32825	
251	0	32872	32736	
252	0	32748	32775	
253	0	32776	32700	
254	0	32792	32807	
255	0	32812	32654	
256	0	32762	32792	
257	0	32800	32806	
258	0	32790	32775	
259	0	32896	32746	
260	0	32772	32768	
261	0	32834	32775	
262	0	32820	32750	
263	0	32772	32862	
264	0	32804	32715	
265	0	32828	32796	
266	0	32852	32712	
267	0	32852	32790	
268	0	32804	32788	
269	0	32866	32734	
270	0	32868	32798	
271	0	32772	32746	
272	0	32808	32759	
273	0	32836	32684	
274	0	32820	32832	
275	0	32836	32792	
276	0	32804	32799	
277	0	32788	32750	
278	0	32870	32784	
279	0	32832	32792	
280	0	32780	32839	
281	0	32802	32775	
282	0	32792	32652	
283	0	32816	32836	
284	0	32802	32668	
285	0	32784	32724	
286	0	32772	32775	
287	0	32768	32896	
288	0	32828	32870	
289	0	32784	32728	
290	0	32826	32794	
291	0	32836	32742	
292	0	32880	32750	
293	0	32756	32660	
294	0	32816	32763	
295	0	32764	32674	
296	0	32776	32888	
297	0	32810	32674	
298	0	32762	32804	
299	0	32824	32699	
300	0	32810	32798	
301	0	32882	32848	
302	0	32824	32716	
303	0	32816	32750	
304	0	32774	32687	
305	0	32804	32804	
306	0	32860	32842	
307	0	32816	32730	
308	0	32754	32768	
309	0	32812	32788	
310	0	32784	32866	
311	0	32796	32754	
312	0	32802	32688	
313	0	32834	32802	
314	0	32812	32683	
315	0	32818	32842	
316	0	32864	32762	
317	0	32763	32840	
318	0	32824	32775	
319	0	32894	32702	
320	0	32802	32804	
321	0	32808	32732	
322	0	32852	32743	
323	0	32792	32768	
324	0	32846	32736	
325	0	32808	32684	
326	0	32788	32764	
327	0	32804	32682	
328	0	32820	32816	
329	0	32870	32724	
330	0	32712	32815	
331	0	32820	32796	
332	0	32820	32804	
333	0	32748	32802	
334	0	32848	32740	
335	0	32830	32775	
336	0	32798	32881	
337	0	32832	32882	
338	0	32762	32718	
339	0	32842	32792	
340	0	32840	32639	
341	0	32838	32802	
342	0	32840	32794	
343	0	32794	32822	
344	0	32908	32804	
345	0	32844	32784	
346	0	32818	32823	
347	0	32840	32706	
348	0	32804	32794	
349	0	32856	32735	
350	0	32784	32831	
351	0	32746	32751	
352	0	32816	32743	
353	0	32774	32700	
354	0	32792	32794	
355	0	32796	32718	
356	0	32762	32750	
357	0	32790	32698	
358	0	32780	32838	
359	0	32826	32812	
360	0	32828	32647	
361	0	32788	32788	
362	0	32832	32775	
363	0	32852	32756	
364	0	32848	32792	
365	0	32894	32804	
366	0	32804	32850	
367	0	32764	32802	
368	0	32808	32842	
369	0	32848	32697	
370	0	32808	32772	
371	0	32806	32726	
372	0	32772	32844	
373	0	32790	32768	
374	0	32808	32820	
375	0	32814	32775	
376	0	32798	32724	
377	0	32772	32770	
378	0	32774	32666	
379	0	32774	32775	
380	0	32840	32696	
381	0	32872	32727	
382	0	32880	32662	
383	0	32868	32754	
384	0	32784	32612	
385	0	32836	32766	
386	0	32808	32752	
387	0	32748	32756	
388	0	32788	32678	
389	0	32846	32838	
390	0	32808	32764	
391	0	32824	32817	
392	0	32856	32839	
393	0	32836	32726	
394	0	32800	32792	
395	0	32812	32746	
396	0	32800	32815	
397	0	32804	32789	
398	0	32816	32770	
399	0	32775	32724	
400	0	32766	32793	
401	0	32786	32768	
402	0	32852	32762	
403	0	32772	32716	
404	0	32840	32798	
405	0	32885	32802	
406	0	32822	32838	
407	0	32812	32839	
408	0	32868	32730	
409	0	32804	32768	
410	0	32776	32658	
411	0	32830	32834	
412	0	32716	32834	
413	0	32872	32740	
414	0	32860	32830	
415	0	32816	32668	
416	0	32798	32737	
417	0	32831	32801	
418	0	32776	32855	
419	0	32872	32760	
420	0	32856	32647	
421	0	32864	32812	
422	0	32800	32748	
423	0	32778	32848	
424	0	32824	32772	
425	0	32744	32870	
426	0	32768	32742	
427	0	32790	32727	
428	0	32868	32824	
429	0	32850	32814	
430	0	32816	32700	
431	0	32740	32775	
432	0	32724	32716	
433	0	32786	32720	
434	0	32832	32674	
435	0	32886	32824	
436	0	32876	32832	
437	0	32832	32714	
438	0	32790	32756	
439	0	32858	32744	
440	0	32820	32772	
441	0	32800	32870	
442	0	32746	32650	
443	0	32806	32852	
444	0	32818	32734	
445	0	32772	32775	
446	0	32776	32757	
447	0	32800	32790	
448	0	32774	32844	
449	0	32816	32622	
450	0	32830	32808	
451	0	32776	32775	
452	0	32788	32692	
453	0	32762	32720	
454	0	32854	32775	
455	0	32826	32800	
456	0	32912	32746	
457	0	32792	32722	
458	0	32844	32720	
459	0	32778	32775	
460	0	32756	32774	
461	0	32772	32810	
462	0	32860	32679	
463	0	32872	32815	
464	0	32808	32864	
465	0	32792	32623	
466	0	32804	32788	
467	0	32896	32736	
468	0	32800	32817	
469	0	32834	32811	
470	0	32812	32754	
471	0	32856	32796	
472	0	32820	32766	
473	0	32752	32826	
474	0	32808	32836	
475	0	32824	32704	
476	0	32850	32798	
477	0	32836	32746	
478	0	32876	32806	
479	0	32780	32644	
480	0	32808	32784	
481	0	32868	32714	
482	0	32792	32842	
483	0	32834	32820	
484	0	32836	32768	
485	0	32756	32816	
486	0	32816	32646	
487	0	32780	32757	
488	0	32814	32838	
489	0	32808	32824	
490	0	32792	32800	
491	0	32804	32750	
492	0	32820	32828	
493	0	32808	32752	
494	0	32796	32834	
495	0	32816	32871	
496	0	32792	32726	
497	0	32754	32839	
498	0	32858	32738	
499	0	32856	32748	
500	0	32868	32756	
501	0	32836	32706	
502	0	32768	32743	
503	0	32840	32655	
504	0	32797	32736	
505	0	32860	32839	
506	0	32778	32868	
507	0	32800	32822	
508	0	32768	32738	
509	0	32796	32775	
510	0	32852	32734	
511	0	32804	32816	
512	0	32840	32815	
513	0	32816	32834	
514	0	32820	32816	
515	0	32796	32902	
516	0	32830	32852	
517	0	32780	32830	
518	0	32800	32808	
519	0	32764	32724	
520	0	32832	32710	
521	0	32784	32679	
522	0	32798	32806	
523	0	32772	32852	
524	0	32836	32799	
525	0	32802	32806	
526	0	32784	32674	
527	0	32884	32773	
528	0	32830	32702	
529	0	32816	32816	
530	0	32888	32831	
531	0	32808	32754	
532	0	32804	32754	
533	0	32774	32732	
534	0	32788	32775	
535	0	32808	32752	
536	0	32876	32903	
537	0	32804	32772	
538	0	32796	32744	
539	0	32844	32718	
540	0	32798	32692	
541	0	32781	32868	
542	0	32794	32800	
543	0	32778	32687	
544	0	32842	32710	
545	0	32808	32838	
546	0	32830	32714	
547	0	32796	32736	
548	0	32756	32718	
549	0	32804	32812	
550	0	32872	32798	
551	0	32872	32654	
552	0	32792	32714	
553	0	32834	32734	
554	0	32802	32816	
555	0	32760	32704	
556	0	32840	32700	
557	0	32792	32807	
558	0	32808	32820	
559	0	32850	32672	
560	0	32872	32824	
561	0	32816	32812	
562	0	32792	32774	
563	0	32804	32798	
564	0	32796	32858	
565	0	32768	32801	
566	0	32752	32700	
567	0	32852	32769	
568	0	32778	32746	
569	0	32814	32734	
570	0	32800	32740	
571	0	32788	32852	
572	0	32864	32822	
573	0	32804	32775	
574	0	32826	32775	
575	0	32816	32891	
576	0	32810	32762	
577	0	32900	32772	
578	0	32798	32772	
579	0	32842	32754	
580	0	32836	32770	
581	0	32788	32848	
582	0	32804	32800	
583	0	32788	32714	
584	0	32738	32775	
585	0	32784	32735	
586	0	32784	32785	
587	0	32764	32743	
588	0	32836	32860	
589	0	32832	32775	
590	0	32794	32814	
591	0	32822	32790	
592	0	32812	32708	
593	0	32800	32784	
594	0	32860	32724	
595	0	32748	32836	
596	0	32872	32820	
597	0	32788	32832	
598	0	32722	32815	
599	0	32788	32764	
600	0	32804	32820	
601	0	32790	32800	
602	0	32900	32775	
603	0	32856	32796	
604	0	32862	32684	
605	0	32788	32775	
606	0	32832	32692	
607	0	32804	32775	
608	0	32864	32818	
609	0	32796	32826	
610	0	32852	32854	
611	0	32816	32762	
612	0	32804	32802	
613	0	32826	32676	
614	0	32808	32750	
615	0	32752	32807	
616	0	32866	32838	
617	0	32814	32788	
618	0	32817	32764	
619	0	32864	32770	
620	0	32800	32732	
621	0	32804	32775	
622	0	32762	32711	
623	0	32862	32852	
624	0	32840	32850	
625	0	32820	32775	
626	0	32796	32775	
627	0	32792	32808	
628	0	32768	32719	
629	0	32868	32775	
630	0	32788	32712	
631	0	32852	32876	
632	0	32786	32876	
633	0	32788	32748	
634	0	32844	32812	
635	0	32784	32836	
636	0	32884	32743	
637	0	32824	32812	
638	0	32810	32796	
639	0	32834	32832	
640	0	32818	32838	
641	0	32796	32686	
642	0	32860	32790	
643	0	32804	32850	
644	0	32864	32754	
645	0	32884	32880	
646	0	32852	32805	
647	0	32940	32930	
648	0	32852	32884	
649	0	32812	32740	
650	0	32816	32854	
651	0	32752	32760	
652	0	32648	32538	
653	0	32744	32519	
654	0	32694	32580	
655	0	32692	32598	
656	0	32664	32484	
657	0	32612	32366	
658	0	32608	32544	
659	0	32692	32526	
660	0	32700	32591	
661	0	32804	32644	
662	0	32748	32775	
663	0	32768	32804	
664	0	32828	32820	
665	0	32862	32698	
666	0	32860	32886	
667	0	32832	32916	
668	0	32870	32950	
669	0	32868	32994	
670	0	32872	32864	
671	0	32872	32920	
672	0	32846	32816	
673	0	32814	32954	
674	0	32894	32900	
675	0	32920	32732	
676	0	32840	32952	
677	0	32878	32874	
678	0	32864	32860	
679	0	32866	32912	
680	0	32840	32730	
681	0	32814	32798	
682	0	32872	32838	
683	0	32852	32762	
684	0	32818	32692	
685	0	32802	32740	
686	0	32802	32816	
687	0	32836	32810	
688	0	32776	32660	
689	0	32798	32808	
690	0	32832	32816	
691	0	32742	32655	
692	0	32842	32740	
693	0	32736	32735	
694	0	32780	32752	
695	0	32834	32864	
696	0	32860	32882	
697	0	32792	32879	
698	0	32872	32652	
699	0	32754	32775	
700	0	32756	32727	
701	0	32816	32710	
702	0	32796	32748	
703	0	32828	32872	
704	0	32802	32723	
705	0	32778	32714	
706	0	32840	32712	
707	0	32760	32774	
708	0	32820	32878	
709	0	32844	32764	
710	0	32828	32806	
711	0	32762	32716	
712	0	32772	32894	
713	0	32853	32768	
714	0	32812	32690	
715	0	32808	32820	
716	0	32876	32814	
717	0	32756	32644	
718	0	32830	32802	
719	0	32816	32730	
720	0	32848	32801	
721	0	32776	32800	
722	0	32868	32856	
723	0	32822	32815	
724	0	32862	32887	
725	0	32852	32842	
726	0	32798	32807	
727	0	32836	32812	
728	0	32784	32792	
729	0	32834	32832	
730	0	32848	32748	
731	0	32868	32724	
732	0	32852	32710	
733	0	32834	32739	
734	0	32820	32728	
735	0	32752	32839	
736	0	32853	32834	
737	0	32792	32748	
738	0	32792	32782	
739	0	32810	32599	
740	0	32812	32814	
741	0	32778	32734	
742	0	32798	32808	
743	0	32828	32806	
744	0	32812	32862	
745	0	32778	32742	
746	0	32860	32868	
747	0	32820	32794	
748	0	32808	32874	
749	0	32800	32756	
750	0	32840	32836	
751	0	32796	32788	
752	0	32788	32748	
753	0	32820	32867	
754	0	32880	32836	
755	0	32816	32736	
756	0	32806	32891	
757	0	32800	32847	
758	0	32808	32833	
759	0	32842	32796	
760	0	32840	32706	
761	0	32836	32839	
762	0	32788	32704	
763	0	32804	32790	
764	0	32764	32639	
765	0	32768	32744	
766	0	32760	32772	
767	0	32809	32794	
768	0	32824	32838	
769	0	32810	32750	
770	0	32808	32760	
771	0	32816	32775	
772	0	32740	32820	
773	0	32844	32700	
774	0	32830	32772	
775	0	32808	32718	
776	0	32860	32871	
777	0	32843	32800	
778	0	32832	32935	
779	0	32840	32838	
780	0	32810	32698	
781	0	32744	32748	
782	0	32848	32711	
783	0	32822	32769	
784	0	32844	32838	
785	0	32784	32676	
786	0	32848	32808	
787	0	32772	32694	
788	0	32768	32775	
789	0	32828	32750	
790	0	32788	32748	
791	0	32808	32774	
792	0	32822	32828	
793	0	32830	32826	
794	0	32804	32679	
795	0	32784	32775	
796	0	32768	32618	
797	0	32816	32816	
798	0	32828	32874	
799	0	32764	32712	
800	0	32840	32775	
801	0	32810	32714	
802	0	32828	32790	
803	0	32912	32730	
804	0	32800	32790	
805	0	32828	32848	
806	0	32788	32652	
807	0	32860	32764	
808	0	32846	32718	
809	0	32742	32798	
810	0	32804	32896	
811	0	32850	32674	
812	0	32784	32794	
813	0	32810	32680	
814	0	32736	32834	
815	0	32804	32795	
816	0	32806	32774	
817	0	32812	32764	
818	0	32874	32775	
819	0	32780	32844	
820	0	32760	32918	
821	0	32846	32804	
822	0	32788	32806	
823	0	32796	32708	
824	0	32766	32870	
825	0	32746	32758	
826	0	32836	32678	
827	0	32844	32762	
828	0	32800	32826	
829	0	32744	32890	
830	0	32848	32903	
831	0	32808	32726	
832	0	32816	32816	
833	0	32828	32774	
834	0	32816	32860	
835	0	32804	32810	
836	0	32870	32806	
837	0	32814	32775	
838	0	32832	32692	
839	0	32840	32798	
840	0	32846	32718	
841	0	32820	32794	
842	0	32808	32740	
843	0	32808	32742	
844	0	32796	32775	
845	0	32796	32854	
846	0	32812	32695	
847	0	32852	32820	
848	0	32772	32775	
849	0	32818	32688	
850	0	32814	32732	
851	0	32788	32804	
852	0	32836	32716	
853	0	32820	32804	
854	0	32884	32892	
855	0	32794	32718	
856	0	32794	32756	
857	0	32788	32736	
858	0	32868	32775	
859	0	32836	32742	
860	0	32764	32636	
861	0	32860	32796	
862	0	32864	32847	
863	0	32798	32671	
864	0	32788	32775	
865	0	32852	32790	
866	0	32800	32728	
867	0	32830	32766	
868	0	32836	32682	
869	0	32796	32762	
870	0	32814	32840	
871	0	32862	32746	
872	0	32830	32828	
873	0	32868	32854	
874	0	32812	32714	
875	0	32820	32726	
876	0	32820	32636	
877	0	32804	32804	
878	0	32840	32746	
879	0	32836	32806	
880	0	32748	32712	
881	0	32842	32762	
882	0	32856	32766	
883	0	32810	32770	
884	0	32744	32704	
885	0	32796	32732	
886	0	32800	32732	
887	0	32804	32750	
888	0	32822	32762	
889	0	32808	32918	
890	0	32782	32774	
891	0	32848	32743	
892	0	32812	32798	
893	0	32824	32730	
894	0	32840	32794	
895	0	32776	32630	
896	0	32756	32836	
897	0	32792	32772	
898	0	32808	32760	
899	0	32794	32704	
900	0	32788	32796	
901	0	32872	32888	
902	0	32868	32764	
903	0	32790	32816	
904	0	32848	32700	
905	0	32866	32804	
906	0	32832	32636	
907	0	32770	32760	
908	0	32748	32732	
909	0	32774	32823	
910	0	32754	32766	
911	0	32808	32775	
912	0	32788	32850	
913	0	32794	32775	
914	0	32842	32844	
915	0	32744	32673	
916	0	32802	32772	
917	0	32820	32796	
918	0	32852	32734	
919	0	32788	32724	
920	0	32788	32666	
921	0	32766	32840	
922	0	32788	32802	
923	0	32864	32820	
924	0	32808	32816	
925	0	32808	32718	
926	0	32826	32724	
927	0	32802	32790	
928	0	32744	32758	
929	0	32802	32706	
930	0	32828	32835	
931	0	32822	32832	
932	0	32830	32775	
933	0	32764	32819	
934	0	32804	32789	
935	0	32810	32818	
936	0	32836	32750	
937	0	32840	32846	
938	0	32822	32846	
939	0	32820	32802	
940	0	32838	32766	
941	0	32824	32672	
942	0	32788	32788	
943	0	32788	32790	
944	0	32804	32794	
945	0	32800	32858	
946	0	32844	32775	
947	0	32862	32708	
948	0	32736	32700	
949	0	32792	32852	
950	0	32756	32770	
951	0	32850	32818	
952	0	32780	32743	
953	0	32888	32819	
954	0	32788	32708	
955	0	32841	32804	
956	0	32730	32838	
957	0	32810	32712	
958	0	32846	32774	
959	0	32760	32738	
960	0	32870	32730	
961	0	32874	32696	
962	0	32802	32750	
963	0	32792	32800	
964	0	32737	32647	
965	0	32824	32732	
966	0	32844	32698	
967	0	32796	32802	
968	0	32844	32852	
969	0	32874	32700	
970	0	32708	32786	
971	0	32848	32724	
972	0	32820	32928	
973	0	32764	32876	
974	0	32848	32775	
975	0	32800	32758	
976	0	32780	32823	
977	0	32858	32662	
978	0	32824	32775	
979	0	32824	32759	
980	0	32782	32798	
981	0	32796	32846	
982	0	32828	32690	
983	0	32832	32754	
984	0	32864	32775	
985	0	32832	32802	
986	0	32834	32740	
987	0	32892	32734	
988	0	32836	32775	
989	0	32840	32801	
990	0	32846	32730	
991	0	32800	32764	
992	0	32836	32654	
993	0	32836	32758	
994	0	32740	32716	
995	0	32838	32858	
996	0	32812	32860	
997	0	32792	32775	
998	0	32832	32807	
999	0	32804	32772	
1000	0	32810	32750	
1001	0	32858	32718	
1002	0	32768	32666	
1003	0	32822	32720	
1004	0	32828	32749	
1005	0	32856	32758	
1006	0	32752	32790	
1007	0	32764	32832	
1008	0	32816	32746	
1009	0	32798	32796	
1010	0	32826	32790	
1011	0	32736	32775	
1012	0	32826	32732	
1013	0	32836	32810	
1014	0	32884	32644	
1015	0	32870	32855	
1016	0	32780	32802	
1017	0	32880	32828	
1018	0	32804	32730	
1019	0	32836	32742	
1020	0	32810	32790	
1021	0	32844	32820	
1022	0	32760	32744	
1023	0	32840	32854	
1024	0	32834	32802	
1025	0	32754	32692	
1026	0	32748	32775	
1027	0	32772	32736	
1028	0	32782	32802	
1029	0	32836	32714	
1030	0	32810	32726	
1031	0	32832	32712	
1032	0	32820	32846	
1033	0	32756	32854	
1034	0	32818	32808	
1035	0	32810	32818	
1036	0	32844	32703	
1037	0	32752	32652	
1038	0	32826	32732	
1039	0	32840	32720	
1040	0	32816	32743	
1041	0	32834	32800	
1042	0	32848	32724	
1043	0	32888	32744	
1044	0	32770	32870	
1045	0	32724	32710	
1046	0	32864	32775	
1047	0	32736	32702	
1048	0	32820	32764	
1049	0	32732	32808	
1050	0	32818	32785	
1051	0	32778	32836	
1052	0	32740	32730	
1053	0	32838	32766	
1054	0	32832	32702	
1055	0	32872	32774	
1056	0	32848	32734	
1057	0	32748	32767	
1058	0	32828	32846	
1059	0	32820	32860	
1060	0	32860	32764	
1061	0	32834	32836	
1062	0	32810	32796	
1063	0	32800	32752	
1064	0	32788	32772	
1065	0	32752	32742	
1066	0	32810	32782	
1067	0	32788	32679	
1068	0	32812	32817	
1069	0	32828	32701	
1070	0	32838	32736	
1071	0	32804	32702	
1072	0	32788	32822	
1073	0	32744	32844	
1074	0	32792	32756	
1075	0	32808	32730	
1076	0	32810	32807	
1077	0	32775	32836	
1078	0	32804	32844	
1079	0	32784	32836	
1080	0	32848	32759	
1081	0	32798	32848	
1082	0	32782	32712	
1083	0	32852	32704	
1084	0	32772	32666	
1085	0	32852	32794	
1086	0	32868	32686	
1087	0	32728	32780	
1088	0	32804	32742	
1089	0	32812	32702	
1090	0	32804	32704	
1091	0	32834	32796	
1092	0	32840	32772	
1093	0	32830	32764	
1094	0	32796	32828	
1095	0	32808	32822	
1096	0	32788	32791	
1097	0	32870	32792	
1098	0	32816	32826	
1099	0	32836	32744	
1100	0	32760	32700	
1101	0	32840	32647	
1102	0	32844	32743	
1103	0	32780	32711	
1104	0	32808	32802	
1105	0	32868	32733	
1106	0	32824	32836	
1107	0	32824	32812	
1108	0	32774	32800	
1109	0	32768	32762	
1110	0	32778	32758	
1111	0	32812	32775	
1112	0	32796	32736	
1113	0	32864	32772	
1114	0	32804	32792	
1115	0	32814	32848	
1116	0	32836	32836	
1117	0	32820	32692	
1118	0	32814	32726	
1119	0	32816	32652	
1120	0	32812	32775	
1121	0	32836	32720	
1122	0	32792	32712	
1123	0	32792	32666	
1124	0	32756	32802	
1125	0	32800	32748	
1126	0	32804	32836	
1127	0	32778	32820	
1128	0	32848	32806	
1129	0	32814	32886	
1130	0	32788	32772	
1131	0	32848	32756	
1132	0	32848	32686	
1133	0	32775	32708	
1134	0	32794	32642	
1135	0	32792	32839	
1136	0	32784	32774	
1137	0	32826	32676	
1138	0	32788	32788	
1139	0	32820	32712	
1140	0	32780	32852	
1141	0	32792	32863	
1142	0	32788	32828	
1143	0	32838	32808	
1144	0	32826	32775	
1145	0	32761	32792	
1146	0	32832	32698	
1147	0	32852	32775	
1148	0	32822	32686	
1149	0	32804	32688	
1150	0	32834	32655	
1151	0	32816	32802	
1152	0	32872	32706	
1153	0	32800	32838	
1154	0	32812	32836	
1155	0	32792	32818	
1156	0	32750	32810	
1157	0	32820	32868	
1158	0	32816	32830	
1159	0	32852	32775	
1160	0	32868	32800	
1161	0	32832	32686	
1162	0	32800	32762	
1163	0	32838	32704	
1164	0	32778	32804	
1165	0	32816	32666	
1166	0	32774	32746	
1167	0	32756	32762	
1168	0	32820	32654	
1169	0	32834	32682	
1170	0	32852	32775	
1171	0	32792	32655	
1172	0	32832	32775	
1173	0	32872	32826	
1174	0	32828	32775	
1175	0	32820	32738	
1176	0	32788	32690	
1177	0	32754	32775	
1178	0	32776	32704	
1179	0	32800	32734	
1180	0	32788	32672	
1181	0	32836	32834	
1182	0	32862	32775	
1183	0	32810	32775	
1184	0	32772	32750	
1185	0	32812	32808	
1186	0	32852	32775	
1187	0	32832	32826	
1188	0	32808	32810	
1189	0	32852	32838	
1190	0	32794	32838	
1191	0	32780	32788	
1192	0	32848	32798	
1193	0	32760	32684	
1194	0	32824	32696	
1195	0	32782	32670	
1196	0	32750	32871	
1197	0	32826	32764	
1198	0	32854	32736	
1199	0	32854	32762	
1200	0	32804	32751	
1201	0	32856	32786	
1202	0	32782	32750	
1203	0	32778	32740	
1204	0	32844	32680	
1205	0	32804	32748	
1206	0	32760	32647	
1207	0	32794	32788	
1208	0	32832	32838	
1209	0	32804	32722	
1210	0	32802	32743	
1211	0	32780	32710	
1212	0	32770	32802	
1213	0	32759	32709	
1214	0	32800	32770	
1215	0	32860	32715	
1216	0	32856	32794	
1217	0	32836	32758	
1218	0	32844	32830	
1219	0	32820	32826	
1220	0	32878	32832	
1221	0	32864	32807	
1222	0	32816	32663	
1223	0	32820	32702	
1224	0	32798	32718	
1225	0	32852	32791	
1226	0	32852	32775	
1227	0	32776	32719	
1228	0	32805	32790	
1229	0	32812	32852	
1230	0	32764	32698	
1231	0	32784	32820	
1232	0	32792	32804	
1233	0	32782	32688	
1234	0	32756	32684	
1235	0	32800	32788	
1236	0	32808	32758	
1237	0	32792	32818	
1238	0	32838	32734	
1239	0	32828	32767	
1240	0	32820	32794	
1241	0	32834	32724	
1242	0	32864	32764	
1243	0	32816	32756	
1244	0	32842	32846	
1245	0	32824	32762	
1246	0	32865	32868	
1247	0	32804	32831	
1248	0	32744	32830	
1249	0	32820	32820	
1250	0	32828	32851	
1251	0	32852	32775	
1252	0	32850	32714	
1253	0	32820	32760	
1254	0	32804	32708	
1255	0	32832	32775	
1256	0	32868	32831	
1257	0	32788	32768	
1258	0	32804	32775	
1259	0	32860	32748	
1260	0	32742	32810	
1261	0	32754	32775	
1262	0	32816	32790	
1263	0	32774	32724	
1264	0	32780	32680	
1265	0	32828	32840	
1266	0	32856	32752	
1267	0	32812	32772	
1268	0	32821	32852	
1269	0	32840	32822	
1270	0	32808	32838	
1271	0	32844	32690	
1272	0	32760	32714	
1273	0	32796	32754	
1274	0	32780	32831	
1275	0	32776	32791	
1276	0	32832	32799	
1277	0	32852	32816	
1278	0	32838	32788	
1279	0	32828	32727	
1280	0	32784	32708	
1281	0	32848	32816	
1282	0	32800	32688	
1283	0	32790	32802	
1284	0	32832	32762	
1285	0	32816	32866	
1286	0	32820	32846	
1287	0	32844	32832	
1288	0	32830	32800	
1289	0	32738	32712	
1290	0	32820	32804	
1291	0	32780	32892	
1292	0	32824	32692	
1293	0	32860	32814	
1294	0	32798	32700	
1295	0	32888	32874	
1296	0	32796	32770	
1297	0	32800	32687	
1298	0	32900	32807	
1299	0	32834	32707	
1300	0	32820	32786	
1301	0	32824	32839	
1302	0	32824	32712	
1303	0	32788	32732	
1304	0	32924	32700	
1305	0	32836	32824	
1306	0	32824	32750	
1307	0	32866	32967	
1308	0	32884	32952	
1309	0	32808	32850	
1310	0	32804	32872	
1311	0	32856	32890	
1312	0	32924	32821	
1313	0	32792	32740	
1314	0	32752	32682	
1315	0	32694	32554	
1316	0	32680	32500	
1317	0	32680	32514	
1318	0	32772	32642	
1319	0	32692	32506	
1320	0	32648	32542	
1321	0	32684	32486	
1322	0	32652	32548	
1323	0	32756	32612	
1324	0	32778	32743	
1325	0	32774	32768	
1326	0	32760	32807	
1327	0	32820	32805	
1328	0	32802	32764	
1329	0	32890	32820	
1330	0	32852	32956	
1331	0	32876	32920	
1332	0	32892	32846	
1333	0	32872	32982	
1334	0	32874	33020	
1335	0	32896	32976	
1336	0	32836	33010	
1337	0	32884	32862	
1338	0	32862	32841	
1339	0	32868	32820	
1340	0	32824	32935	
1341	0	32866	32839	
1342	0	32916	32766	
1343	0	32864	32774	
1344	0	32852	32790	
1345	0	32897	32775	
1346	0	32840	32775	
1347	0	32858	32806	
1348	0	32816	32868	
1349	0	32824	32830	
1350	0	32736	32854	
1351	0	32790	32668	
1352	0	32808	32734	
1353	0	32855	32692	
1354	0	32848	32799	
1355	0	32792	32732	
1356	0	32728	32700	
1357	0	32784	32775	
1358	0	32806	32766	
1359	0	32830	32792	
1360	0	32748	32700	
1361	0	32828	32764	
1362	0	32856	32728	
1363	0	32816	32817	
1364	0	32796	32775	
1365	0	32798	32846	
1366	0	32822	32800	
1367	0	32822	32874	
1368	0	32816	32848	
1369	0	32792	32794	
1370	0	32768	32746	
1371	0	32858	32703	
1372	0	32772	32726	
1373	0	32808	32820	
1374	0	32736	32748	
1375	0	32788	32804	
1376	0	32784	32786	
1377	0	32804	32854	
1378	0	32778	32736	
1379	0	32828	32700	
1380	0	32750	32752	
1381	0	32904	32786	
1382	0	32808	32680	
1383	0	32858	32736	
1384	0	32804	32812	
1385	0	32812	32834	
1386	0	32828	32784	
1387	0	32852	32672	
1388	0	32852	32922	
1389	0	32804	32775	
1390	0	32760	32846	
1391	0	32740	32796	
1392	0	32774	32775	
1393	0	32892	32772	
1394	0	32860	32852	
1395	0	32864	32752	
1396	0	32776	32790	
1397	0	32774	32696	
1398	0	32773	32771	
1399	0	32792	32661	
1400	0	32812	32746	
1401	0	32860	32759	
1402	0	32872	32764	
1403	0	32768	32644	
1404	0	32832	32798	
1405	0	32832	32716	
1406	0	32828	32774	
1407	0	32832	32726	
1408	0	32756	32803	
1409	0	32814	32791	
1410	0	32792	32702	
1411	0	32808	32814	
1412	0	32792	32726	
1413	0	32796	32775	
1414	0	32888	32772	
1415	0	32820	32760	
1416	0	32780	32839	
1417	0	32762	32718	
1418	0	32846	32768	
1419	0	32824	32692	
1420	0	32834	32740	
1421	0	32764	32822	
1422	0	32824	32838	
1423	0	32756	32775	
1424	0	32832	32760	
1425	0	32846	32940	
1426	0	32816	32798	
1427	0	32840	32770	
1428	0	32791	32722	
1429	0	32844	32721	
1430	0	32789	32658	
1431	0	32770	32743	
1432	0	32792	32760	
1433	0	32814	32834	
1434	0	32846	32826	
1435	0	32816	32742	
1436	0	32788	32774	
1437	0	32844	32728	
1438	0	32810	32834	
1439	0	32776	32736	
1440	0	32828	32661	
1441	0	32810	32774	
1442	0	32820	32894	
1443	0	32768	32808	
1444	0	32842	32854	
1445	0	32868	32822	
1446	0	32820	32886	
1447	0	32808	32846	
1448	0	32848	32806	
1449	0	32774	32903	
1450	0	32840	32730	
1451	0	32804	32849	
1452	0	32810	32708	
1453	0	32820	32738	
1454	0	32866	32724	
1455	0	32830	32855	
1456	0	32804	32864	
1457	0	32824	32716	
1458	0	32772	32794	
1459	0	32824	32652	
1460	0	32804	32790	
1461	0	32772	32762	
1462	0	32840	32737	
1463	0	32896	32670	
1464	0	32792	32764	
1465	0	32828	32756	
1466	0	32848	32816	
1467	0	32884	32767	
1468	0	32806	32724	
1469	0	32802	32758	
1470	0	32836	32822	
1471	0	32828	32864	
1472	0	32714	32798	
1473	0	32766	32695	
1474	0	32806	32798	
1475	0	32808	32816	
1476	0	32808	32708	
1477	0	32836	32764	
1478	0	32930	32770	
1479	0	32824	32752	
1480	0	32824	32770	
1481	0	32784	32831	
1482	0	32836	32814	
1483	0	32808	32658	
1484	0	32832	32814	
1485	0	32804	32668	
1486	0	32816	32834	
1487	0	32802	32850	
1488	0	32784	32809	
1489	0	32768	32804	
1490	0	32884	32673	
1491	0	32804	32744	
1492	0	32734	32734	
1493	0	32804	32759	
1494	0	32816	32830	
1495	0	32724	32774	
1496	0	32862	32764	
1497	0	32824	32748	
1498	0	32814	32802	
1499	0	32756	32732	
1500	0	32862	32772	
1501	0	32836	32647	
1502	0	32840	32775	
1503	0	32844	32725	
1504	0	32828	32743	
1505	0	32848	32670	
1506	0	32820	32696	
1507	0	32768	32762	
1508	0	32752	32828	
1509	0	32852	32812	
1510	0	32868	32804	
1511	0	32756	32764	
1512	0	32810	32702	
1513	0	32814	32710	
1514	0	32836	32754	
1515	0	32804	32757	
1516	0	32852	32810	
1517	0	32758	32754	
1518	0	32816	32767	
1519	0	32800	32750	
1520	0	32836	32784	
1521	0	32836	32791	
1522	0	32832	32796	
1523	0	32768	32802	
1524	0	32810	32810	
1525	0	32800	32838	
1526	0	32774	32672	
1527	0	32788	32810	
1528	0	32834	32836	
1529	0	32840	32807	
1530	0	32826	32823	
1531	0	32820	32774	
1532	0	32788	32740	
1533	0	32824	32774	
1534	0	32830	32718	
1535	0	32860	32839	
1536	0	32764	32719	
1537	0	32820	32770	
1538	0	32775	32808	
1539	0	32792	32666	
1540	0	32854	32764	
1541	0	32858	32654	
1542	0	32828	32792	
1543	0	32806	32784	
1544	0	32774	32858	
1545	0	32778	32834	
1546	0	32808	32660	
1547	0	32838	32748	
1548	0	32776	32672	
1549	0	32730	32772	
1550	0	32798	32788	
1551	0	32868	32764	
1552	0	32832	32804	
1553	0	32871	32757	
1554	0	32792	32742	
1555	0	32746	32668	
1556	0	32768	32775	
1557	0	32770	32711	
1558	0	32870	32746	
1559	0	32802	32952	
1560	0	32830	32716	
1561	0	32776	32718	
1562	0	32856	32654	
1563	0	32800	32802	
1564	0	32828	32798	
1565	0	32864	32858	
1566	0	32808	32804	
1567	0	32824	32824	
1568	0	32796	32822	
1569	0	32736	32732	
1570	0	32790	32830	
1571	0	32800	32764	
1572	0	32804	32788	
1573	0	32756	32728	
1574	0	32862	32775	
1575	0	32804	32788	
1576	0	32848	32652	
1577	0	32776	32824	
1578	0	32804	32677	
1579	0	32836	32812	
1580	0	32808	32810	
1581	0	32760	32748	
1582	0	32828	32751	
1583	0	32838	32698	
1584	0	32780	32834	
1585	0	32788	32818	
1586	0	32840	32774	
1587	0	32802	32695	
1588	0	32836	32647	
1589	0	32844	32826	
1590	0	32780	32820	
1591	0	32860	32775	
1592	0	32852	32818	
1593	0	32834	32772	
1594	0	32850	32800	
1595	0	32868	32678	
1596	0	32768	32762	
1597	0	32800	32756	
1598	0	32844	32863	
1599	0	32780	32870	
1600	0	32804	32754	
1601	0	32766	32724	
1602	0	32780	32748	
1603	0	32774	32736	
1604	0	32724	32728	
1605	0	32804	32794	
1606	0	32782	32753	
1607	0	32800	32807	
1608	0	32768	32774	
1609	0	32848	32718	
1610	0	32784	32798	
1611	0	32852	32700	
1612	0	32828	32791	
1613	0	32846	32726	
1614	0	32818	32884	
1615	0	32832	32806	
1616	0	32836	32878	
1617	0	32796	32836	
1618	0	32790	32790	
1619	0	32820	32800	
1620	0	32776	32672	
1621	0	32828	32784	
1622	0	32796	32732	
1623	0	32844	32812	
1624	0	32800	32822	
1625	0	32812	32774	
1626	0	32804	32786	
1627	0	32818	32764	
1628	0	32836	32748	
1629	0	32725	32768	
1630	0	32774	32702	
1631	0	32828	32810	
1632	0	32818	32738	
1633	0	32834	32775	
1634	0	32823	32686	
1635	0	32870	32830	
1636	0	32852	32804	
1637	0	32832	32698	
1638	0	32826	32772	
1639	0	32828	32730	
1640	0	32752	32742	
1641	0	32730	32676	
1642	0	32800	32738	
1643	0	32828	32735	
1644	0	32836	32786	
1645	0	32832	32770	
1646	0	32792	32775	
1647	0	32820	32836	
1648	0	32808	32836	
1649	0	32808	32820	
1650	0	32832	32686	
1651	0	32764	32788	
1652	0	32816	32733	
1653	0	32848	32788	
1654	0	32872	32710	
1655	0	32768	32836	
1656	0	32844	32840	
1657	0	32794	32940	
1658	0	32832	32836	
1659	0	32828	32694	
1660	0	32744	32766	
1661	0	32836	32734	
1662	0	32860	32832	
1663	0	32788	32656	
1664	0	32820	32814	
1665	0	32804	32722	
1666	0	32796	32792	
1667	0	32792	32711	
1668	0	32812	32754	
1669	0	32810	32713	
1670	0	32792	32800	
1671	0	32784	32844	
1672	0	32810	32654	
1673	0	32764	32775	
1674	0	32852	32775	
1675	0	32820	32804	
1676	0	32848	32698	
1677	0	32812	32718	
1678	0	32870	32710	
1679	0	32836	32764	
1680	0	32818	32806	
1681	0	32772	32830	
1682	0	32912	32644	
1683	0	32766	32775	
1684	0	32772	32702	
1685	0	32802	32736	
1686	0	32842	32718	
1687	0	32840	32790	
1688	0	32750	32788	
1689	0	32834	32791	
1690	0	32792	32795	
1691	0	32768	32740	
1692	0	32792	32808	
1693	0	32858	32727	
1694	0	32802	32794	
1695	0	32780	32775	
1696	0	32840	32746	
1697	0	32860	32724	
1698	0	32824	32675	
1699	0	32856	32799	
1700	0	32838	32799	
1701	0	32810	32806	
1702	0	32768	32799	
1703	0	32756	32868	
1704	0	32816	32820	
1705	0	32798	32856	
1706	0	32748	32824	
1707	0	32812	32766	
1708	0	32824	32775	
1709	0	32756	32694	
1710	0	32854	32722	
1711	0	32848	32783	
1712	0	32812	32820	
1713	0	32732	32932	
1714	0	32914	32746	
1715	0	32780	32798	
1716	0	32776	32868	
1717	0	32764	32695	
1718	0	32860	32798	
1719	0	32804	32676	
1720	0	32836	32720	
1721	0	32780	32660	
1722	0	32808	32754	
1723	0	32816	32714	
1724	0	32816	32862	
1725	0	32762	32876	
1726	0	32898	32711	
1727	0	32870	32775	
1728	0	32802	32764	
1729	0	32774	32814	
1730	0	32864	32823	
1731	0	32830	32775	
1732	0	32816	32775	
1733	0	32842	32688	
1734	0	32852	32856	
1735	0	32816	32688	
1736	0	32816	32678	
1737	0	32832	32804	
1738	0	32800	32720	
1739	0	32768	32756	
1740	0	32754	32673	
1741	0	32772	32766	
1742	0	32822	32698	
1743	0	32848	32812	
1744	0	32904	32746	
1745	0	32796	32673	
1746	0	32816	32764	
1747	0	32816	32706	
1748	0	32810	32775	
1749	0	32832	32722	
1750	0	32820	32775	
1751	0	32800	32768	
1752	0	32750	32846	
1753	0	32820	32795	
1754	0	32830	32870	
1755	0	32848	32716	
1756	0	32788	32718	
1757	0	32810	32800	
1758	0	32840	32702	
1759	0	32784	32886	
1760	0	32844	32760	
1761	0	32776	32760	
1762	0	32764	32810	
1763	0	32916	32710	
1764	0	32800	32782	
1765	0	32840	32748	
1766	0	32748	32711	
1767	0	32820	32725	
1768	0	32820	32832	
1769	0	32820	32860	
1770	0	32868	32796	
1771	0	32788	32780	
1772	0	32740	32688	
1773	0	32808	32716	
1774	0	32804	32762	
1775	0	32844	32807	
1776	0	32796	32794	
1777	0	32864	32806	
1778	0	32732	32800	
1779	0	32842	32774	
1780	0	32772	32815	
1781	0	32848	32686	
1782	0	32860	32823	
1783	0	32792	32791	
1784	0	32786	32719	
1785	0	32770	32720	
1786	0	32792	32664	
1787	0	32804	32802	
1788	0	32826	32842	
1789	0	32842	32666	
1790	0	32864	32796	
1791	0	32772	32710	
1792	0	32836	32741	
1793	0	32844	32694	
1794	0	32808	32846	
1795	0	32768	32775	
1796	0	32868	32679	
1797	0	32764	32814	
1798	0	32848	32664	
1799	0	32792	32775	
1800	0	32836	32730	
1801	0	32816	32775	
1802	0	32816	32848	
1803	0	32812	32770	
1804	0	32820	32746	
1805	0	32768	32764	
1806	0	32820	32724	
1807	0	32834	32660	
1808	0	32844	32757	
1809	0	32868	32775	
1810	0	32796	32812	
1811	0	32864	32789	
1812	0	32780	32726	
1813	0	32800	32820	
1814	0	32810	32758	
1815	0	32880	32774	
1816	0	32762	32630	
1817	0	32828	32743	
1818	0	32832	32775	
1819	0	32772	32774	
1820	0	32752	32775	
1821	0	32820	32812	
1822	0	32840	32784	
1823	0	32806	32638	
1824	0	32740	32724	
1825	0	32772	32647	
1826	0	32788	32768	
1827	0	32804	32775	
1828	0	32822	32796	
1829	0	32838	32834	
1830	0	32776	32678	
1831	0	32798	32775	
1832	0	32812	32775	
1833	0	32728	32674	
1834	0	32760	32849	
1835	0	32824	32736	
1836	0	32800	32790	
1837	0	32828	32708	
1838	0	32842	32799	
1839	0	32784	32742	
1840	0	32836	32766	
1841	0	32836	32678	
1842	0	32852	32846	
1843	0	32840	32750	
1844	0	32828	32900	
1845	0	32884	32724	
1846	0	32788	32686	
1847	0	32796	32700	
1848	0	32802	32632	
1849	0	32712	32766	
1850	0	32830	32770	
1851	0	32784	32804	
1852	0	32766	32686	
1853	0	32828	32862	
1854	0	32828	32788	
1855	0	32836	32736	
1856	0	32810	32872	
1857	0	32778	32774	
1858	0	32824	32806	
1859	0	32818	32716	
1860	0	32800	32740	
1861	0	32772	32732	
1862	0	32856	32841	
1863	0	32898	32832	
1864	0	32784	32706	
1865	0	32808	32774	
1866	0	32788	32752	
1867	0	32784	32814	
1868	0	32824	32794	
1869	0	32900	32692	
1870	0	32821	32692	
1871	0	32752	32752	
1872	0	32764	32740	
1873	0	32876	32770	
1874	0	32848	32808	
1875	0	32794	32788	
1876	0	32800	32676	
1877	0	32862	32764	
1878	0	32812	32740	
1879	0	32832	32672	
1880	0	32900	32784	
1881	0	32864	32658	
1882	0	32836	32844	
1883	0	32824	32734	
1884	0	32840	32710	
1885	0	32828	32679	
1886	0	32870	32756	
1887	0	32802	32689	
1888	0	32759	32841	
1889	0	32752	32822	
1890	0	32724	32714	
1891	0	32812	32804	
1892	0	32792	32724	
1893	0	32792	32828	
1894	0	32812	32802	
1895	0	32826	32871	
1896	0	32846	32753	
1897	0	32796	32676	
1898	0	32836	32774	
1899	0	32828	32814	
1900	0	32788	32756	
1901	0	32840	32903	
1902	0	32834	32759	
1903	0	32769	32767	
1904	0	32821	32710	
1905	0	32824	32734	
1906	0	32752	32679	
1907	0	32734	32727	
1908	0	32804	32796	
1909	0	32804	32896	
1910	0	32814	32870	
1911	0	32864	32786	
1912	0	32824	32883	
1913	0	32844	32734	
1914	0	32792	32728	
1915	0	32776	32744	
1916	0	32812	32794	
1917	0	32842	32768	
1918	0	32758	32710	
1919	0	32836	32734	
1920	0	32772	32740	
1921	0	32826	32732	
1922	0	32850	32656	
1923	0	32808	32786	
1924	0	32852	32682	
1925	0	32764	32772	
1926	0	32820	32674	
1927	0	32812	32796	
1928	0	32820	32831	
1929	0	32848	32893	
1930	0	32832	32800	
1931	0	32760	32732	
1932	0	32784	32775	
1933	0	32804	32775	
1934	0	32816	32678	
1935	0	32822	32759	
1936	0	32840	32802	
1937	0	32852	32812	
1938	0	32760	32816	
1939	0	32824	32740	
1940	0	32780	32820	
1941	0	32862	32679	
1942	0	32788	32770	
1943	0	32920	32692	
1944	0	32872	32736	
1945	0	32784	32775	
1946	0	32782	32758	
1947	0	32792	32796	
1948	0	32828	32732	
1949	0	32920	32775	
1950	0	32852	32730	
1951	0	32878	32806	
1952	0	32836	32870	
1953	0	32792	32750	
1954	0	32820	32826	
1955	0	32772	32708	
1956	0	32804	32734	
1957	0	32858	32786	
1958	0	32780	32794	
1959	0	32775	32730	
1960	0	32742	32726	
1961	0	32796	32848	
1962	0	32828	32868	
1963	0	32838	32724	
1964	0	32796	32766	
1965	0	32824	32754	
1966	0	32788	32862	
1967	0	32856	32828	
1968	0	32932	32974	
1969	0	32872	32936	
1970	0	32814	32894	
1971	0	32884	32898	
1972	0	32934	32746	
1973	0	32910	32904	
1974	0	32820	32754	
1975	0	32792	32742	
1976	0	32748	32711	
1977	0	32724	32508	
1978	0	32592	32505	
1979	0	32676	32510	
1980	0	32604	32569	
1981	0	32693	32490	
1982	0	32624	32348	
1983	0	32660	32482	
1984	0	32720	32444	
1985	0	32712	32614	
1986	0	32816	32647	
1987	0	32728	32718	
1988	0	32890	32824	
1989	0	32830	32868	
1990	0	32804	32892	
1991	0	32856	32734	
1992	0	32848	32832	
1993	0	32852	32844	
1994	0	32976	32892	
1995	0	32972	32828	
1996	0	32930	32919	
1997	0	32909	32872	
1998	0	32846	33052	
1999	0	32848	32994	
2000	0	32880	32951	
2001	0	32852	32894	
2002	0	32888	32788	
2003	0	32872	32839	
2004	0	32864	32806	
2005	0	32884	32775	
2006	0	32804	32824	
2007	0	32860	32718	
2008	0	32808	32807	
2009	0	32830	32750	
2010	0	32860	32800	
2011	0	32790	32775	
2012	0	32788	32753	
2013	0	32738	32744	
2014	0	32868	32726	
2015	0	32808	32742	
2016	0	32750	32775	
2017	0	32792	32666	
2018	0	32828	32750	
2019	0	32820	32592	
2020	0	32820	32656	
2021	0	32868	32635	
2022	0	32760	32794	
2023	0	32832	32712	
2024	0	32780	32846	
2025	0	32828	32770	
2026	0	32816	32775	
2027	0	32866	32760	
2028	0	32821	32704	
2029	0	32808	32823	
2030	0	32792	32808	
2031	0	32784	32820	
2032	0	32820	32792	
2033	0	32834	32734	
2034	0	32816	32687	
2035	0	32808	32728	
2036	0	32814	32832	
2037	0	32832	32826	
2038	0	32784	32700	
2039	0	32848	32764	
2040	0	32860	32710	
2041	0	32712	32718	
2042	0	32760	32652	
2043	0	32852	32806	
2044	0	32790	32744	
2045	0	32800	32696	
2046	0	32762	32818	
2047	0	32752	32697	
2048	0	32828	32814	
2049	0	32860	32796	
2050	0	32810	32762	
2051	0	32820	32708	
2052	0	32814	32716	
2053	0	32836	32761	
2054	0	32788	32700	
2055	0	32762	32806	
2056	0	32740	32879	
2057	0	32764	32718	
2058	0	32772	32772	
2059	0	32882	32708	
2060	0	32865	32816	
2061	0	32824	32775	
2062	0	32838	32702	
2063	0	32868	32796	
2064	0	32866	32639	
2065	0	32812	32796	
2066	0	32808	32846	
2067	0	32822	32810	
2068	0	32774	32870	
2069	0	32848	32734	
2070	0	32894	32832	
2071	0	32784	32699	
2072	0	32772	32844	
2073	0	32800	32839	
2074	0	32740	32847	
2075	0	32784	32794	
2076	0	32832	32847	
2077	0	32852	32724	
2078	0	32832	32812	
2079	0	32828	32708	
2080	0	32769	32740	
2081	0	32744	32684	
2082	0	32864	32710	
2083	0	32890	32704	
2084	0	32808	32775	
2085	0	32812	32802	
2086	0	32736	32824	
2087	0	32820	32736	
2088	0	32886	32841	
2089	0	32796	32839	
2090	0	32876	32647	
2091	0	32840	32806	
2092	0	32844	32764	
2093	0	32746	32852	
2094	0	32848	32746	
2095	0	32832	32836	
2096	0	32792	32703	
2097	0	32812	32746	
2098	0	32800	32822	
2099	0	32820	32874	
2100	0	32804	32846	
2101	0	32816	32768	
2102	0	32748	32816	
2103	0	32840	32695	
2104	0	32791	32684	
2105	0	32816	32727	
2106	0	32762	32728	
2107	0	32784	32775	
2108	0	32848	32774	
2109	0	32820	32828	
2110	0	32816	32872	
2111	0	32788	32726	
2112	0	32824	32824	
2113	0	32848	32665	
2114	0	32864	32708	
2115	0	32824	32682	
2116	0	32836	32712	
2117	0	32776	32678	
2118	0	32748	32718	
2119	0	32820	32863	
2120	0	32838	32808	
2121	0	32824	32844	
2122	0	32828	32628	
2123	0	32842	32804	
2124	0	32894	32828	
2125	0	32804	32807	
2126	0	32852	32740	
2127	0	32814	32673	
2128	0	32846	32806	
2129	0	32792	32836	
2130	0	32772	32839	
2131	0	32720	32772	
2132	0	32806	32748	
2133	0	32808	32870	
2134	0	32856	32788	
2135	0	32908	32768	
2136	0	32796	32712	
2137	0	32748	32806	
2138	0	32828	32743	
2139	0	32772	32820	
2140	0	32836	32728	
2141	0	32844	32839	
2142	0	32826	32811	
2143	0	32816	32734	
2144	0	32800	32764	
2145	0	32828	32790	
2146	0	32798	32836	
2147	0	32780	32793	
2148	0	32840	32863	
2149	0	32764	32742	
2150	0	32792	32764	
2151	0	32868	32686	
2152	0	32816	32768	
2153	0	32882	32766	
2154	0	32752	32736	
2155	0	32788	32734	
2156	0	32847	32756	
2157	0	32816	32732	
2158	0	32782	32814	
2159	0	32776	32764	
2160	0	32832	32878	
2161	0	32820	32846	
2162	0	32760	32708	
2163	0	32808	32824	
2164	0	32762	32707	
2165	0	32812	32832	
2166	0	32816	32734	
2167	0	32832	32738	
2168	0	32898	32663	
2169	0	32816	32820	
2170	0	32854	32678	
2171	0	32784	32806	
2172	0	32774	32694	
2173	0	32802	32719	
2174	0	32860	32687	
2175	0	32820	32823	
2176	0	32804	32686	
2177	0	32820	32820	
2178	0	32820	32711	
2179	0	32832	32706	
2180	0	32804	32701	
2181	0	32880	32814	
2182	0	32772	32772	
2183	0	32744	32678	
2184	0	32810	32718	
2185	0	32842	32606	
2186	0	32784	32756	
2187	0	32858	32748	
2188	0	32824	32874	
2189	0	32774	32856	
2190	0	32820	32798	
2191	0	32804	32768	
2192	0	32852	32872	
2193	0	32816	32828	
2194	0	32824	32752	
2195	0	32832	32744	
2196	0	32808	32703	
2197	0	32748	32814	
2198	0	32812	32708	
2199	0	32830	32846	
2200	0	32796	32876	
2201	0	32798	32708	
2202	0	32798	32775	
2203	0	32844	32775	
2204	0	32732	32775	
2205	0	32820	32775	
2206	0	32804	32772	
2207	0	32860	32775	
2208	0	32810	32858	
2209	0	32844	32818	
2210	0	32836	32871	
2211	0	32814	32696	
2212	0	32758	32775	
2213	0	32758	32708	
2214	0	32782	32718	
2215	0	32876	32706	
2216	0	32844	32831	
2217	0	32756	32854	
2218	0	32838	32710	
2219	0	32816	32716	
2220	0	32896	32710	
2221	0	32792	32768	
2222	0	32822	32678	
2223	0	32772	32732	
2224	0	32789	32722	
2225	0	32778	32696	
2226	0	32868	32678	
2227	0	32820	32856	
2228	0	32788	32839	
2229	0	32796	32874	
2230	0	32806	32794	
2231	0	32756	32766	
2232	0	32832	32882	
2233	0	32836	32775	
2234	0	32858	32743	
2235	0	32744	32807	
2236	0	32824	32723	
2237	0	32792	32764	
2238	0	32816	32730	
2239	0	32784	32764	
2240	0	32852	32754	
2241	0	32806	32748	
2242	0	32794	32658	
2243	0	32840	32831	
2244	0	32832	32775	
2245	0	32790	32774	
2246	0	32792	32734	
2247	0	32788	32764	
2248	0	32792	32664	
2249	0	32792	32746	
2250	0	32784	32740	
2251	0	32788	32790	
2252	0	32780	32814	
2253	0	32916	32874	
2254	0	32828	32758	
2255	0	32826	32818	
2256	0	32844	32784	
2257	0	32736	32751	
2258	0	32754	32815	
2259	0	32760	32727	
2260	0	32896	32748	
2261	0	32824	32743	
2262	0	32836	32766	
2263	0	32800	32726	
2264	0	32802	32694	
2265	0	32804	32774	
2266	0	32814	32847	
2267	0	32826	32818	
2268	0	32817	32712	
2269	0	32840	32824	
2270	0	32808	32652	
2271	0	32838	32815	
2272	0	32800	32768	
2273	0	32822	32842	
2274	0	32826	32839	
2275	0	32850	32862	
2276	0	32788	32814	
2277	0	32828	32766	
2278	0	32874	32820	
2279	0	32826	32734	
2280	0	32846	32762	
2281	0	32832	32684	
2282	0	32820	32768	
2283	0	32880	32798	
2284	0	32864	32820	
2285	0	32784	32774	
2286	0	32794	32732	
2287	0	32766	32708	
2288	0	32824	32718	
2289	0	32808	32854	
2290	0	32812	32774	
2291	0	32820	32816	
2292	0	32786	32806	
2293	0	32806	32732	
2294	0	32844	32806	
2295	0	32788	32736	
2296	0	32810	32743	
2297	0	32840	32712	
2298	0	32800	32816	
2299	0	32860	32730	
2300	0	32836	32814	
2301	0	32844	32790	
2302	0	32790	32820	
2303	0	32856	32778	
2304	0	32796	32860	
2305	0	32768	32820	
2306	0	32740	32810	
2307	0	32776	32770	
2308	0	32781	32802	
2309	0	32884	32670	
2310	0	32792	32804	
2311	0	32836	32750	
2312	0	32808	32852	
2313	0	32860	32724	
2314	0	32784	32752	
2315	0	32820	32660	
2316	0	32808	32788	
2317	0	32784	32750	
2318	0	32844	32871	
2319	0	32774	32788	
2320	0	32858	32740	
2321	0	32796	32775	
2322	0	32800	32824	
2323	0	32855	32728	
2324	0	32860	32860	
2325	0	32844	32790	
2326	0	32862	32732	
2327	0	32758	32774	
2328	0	32788	32660	
2329	0	32822	32748	
2330	0	32812	32762	
2331	0	32774	32736	
2332	0	32846	32842	
2333	0	32740	32694	
2334	0	32816	32818	
2335	0	32812	32732	
2336	0	32796	32788	
2337	0	32829	32700	
2338	0	32804	32762	
2339	0	32906	32634	
2340	0	32786	32756	
2341	0	32816	32728	
2342	0	32816	32772	
2343	0	32828	32822	
2344	0	32796	32756	
2345	0	32836	32758	
2346	0	32828	32742	
2347	0	32792	32814	
2348	0	32836	32740	
2349	0	32788	32775	
2350	0	32796	32775	
2351	0	32774	32792	
2352	0	32836	32820	
2353	0	32844	32744	
2354	0	32810	32774	
2355	0	32820	32680	
2356	0	32820	32772	
2357	0	32836	32790	
2358	0	32852	32792	
2359	0	32792	32775	
2360	0	32785	32691	
2361	0	32720	32775	
2362	0	32768	32695	
2363	0	32828	32724	
2364	0	32836	32788	
2365	0	32788	32807	
2366	0	32808	32758	
2367	0	32776	32724	
2368	0	32824	32846	
2369	0	32788	32775	
2370	0	32824	32751	
2371	0	32836	32764	
2372	0	32830	32711	
2373	0	32820	32850	
2374	0	32810	32762	
2375	0	32832	32816	
2376	0	32820	32878	
2377	0	32804	32807	
2378	0	32888	32774	
2379	0	32788	32726	
2380	0	32792	32814	
2381	0	32798	32732	
2382	0	32858	32766	
2383	0	32817	32774	
2384	0	32837	32704	
2385	0	32836	32726	
2386	0	32818	32658	
2387	0	32852	32806	
2388	0	32888	32740	
2389	0	32848	32840	
2390	0	32776	32820	
2391	0	32752	32728	
2392	0	32828	32796	
2393	0	32774	32672	
2394	0	32828	32934	
2395	0	32838	32808	
2396	0	32804	32732	
2397	0	32804	32798	
2398	0	32816	32703	
2399	0	32792	32809	
2400	0	32824	32650	
2401	0	32800	32772	
2402	0	32816	32772	
2403	0	32808	32762	
2404	0	32828	32796	
2405	0	32804	32834	
2406	0	32836	32748	
2407	0	32840	32704	
2408	0	32798	32839	
2409	0	32852	32804	
2410	0	32766	32746	
2411	0	32804	32812	
2412	0	32813	32775	
2413	0	32822	32892	
2414	0	32816	32860	
2415	0	32792	32666	
2416	0	32808	32724	
2417	0	32816	32708	
2418	0	32816	32788	
2419	0	32870	32743	
2420	0	32810	32860	
2421	0	32808	32816	
2422	0	32756	32684	
2423	0	32812	32758	
2424	0	32780	32823	
2425	0	32850	32720	
2426	0	32740	32743	
2427	0	32752	32674	
2428	0	32798	32824	
2429	0	32780	32807	
2430	0	32789	32708	
2431	0	32878	32830	
2432	0	32840	32784	
2433	0	32854	32858	
2434	0	32876	32836	
2435	0	32840	32722	
2436	0	32808	32732	
2437	0	32808	32724	
2438	0	32796	32834	
2439	0	32788	32775	
2440	0	32742	32698	
2441	0	32828	32800	
2442	0	32800	32626	
2443	0	32784	32775	
2444	0	32836	32740	
2445	0	32864	32792	
2446	0	32782	32735	
2447	0	32828	32834	
2448	0	32832	32860	
2449	0	32792	32706	
2450	0	32804	32748	
2451	0	32800	32827	
2452	0	32788	32702	
2453	0	32800	32754	
2454	0	32816	32666	
2455	0	32848	32775	
2456	0	32860	32716	
2457	0	32850	32788	
2458	0	32752	32711	
2459	0	32832	32799	
2460	0	32802	32764	
2461	0	32800	32682	
2462	0	32766	32775	
2463	0	32752	32767	
2464	0	32748	32751	
2465	0	32848	32668	
2466	0	32836	32807	
2467	0	32778	32788	
2468	0	32798	32858	
2469	0	32816	32768	
2470	0	32794	32738	
2471	0	32838	32903	
2472	0	32824	32708	
2473	0	32800	32796	
2474	0	32800	32808	
2475	0	32820	32672	
2476	0	32804	32722	
2477	0	32826	32678	
2478	0	32824	32839	
2479	0	32818	32868	
2480	0	32840	32723	
2481	0	32820	32732	
2482	0	32800	32821	
2483	0	32846	32822	
2484	0	32754	32854	
2485	0	32830	32736	
2486	0	32788	32743	
2487	0	32876	32756	
2488	0	32832	32774	
2489	0	32852	32804	
2490	0	32772	32694	
2491	0	32816	32756	
2492	0	32900	32774	
2493	0	32849	32708	
2494	0	32792	32844	
2495	0	32840	32708	
2496	0	32806	32812	
2497	0	32830	32732	
2498	0	32796	32722	
2499	0	32848	32692	
2500	0	32856	32822	
2501	0	32826	32676	
2502	0	32844	32830	
2503	0	32756	32775	
2504	0	32800	32772	
2505	0	32810	32870	
2506	0	32824	32660	
2507	0	32868	32846	
2508	0	32784	32834	
2509	0	32848	32840	
2510	0	32832	32839	
2511	0	32844	32764	
2512	0	32782	32854	
2513	0	32800	32716	
2514	0	32784	32839	
2515	0	32772	32692	
2516	0	32756	32916	
2517	0	32776	32696	
2518	0	32780	32679	
2519	0	32834	32670	
2520	0	32758	32718	
2521	0	32826	32647	
2522	0	32868	32808	
2523	0	32774	32864	
2524	0	32822	32680	
2525	0	32772	32775	
2526	0	32808	32732	
2527	0	32784	32712	
2528	0	32794	32775	
2529	0	32808	32646	
2530	0	32868	32796	
2531	0	32790	32743	
2532	0	32776	32840	
2533	0	32848	32808	
2534	0	32792	32844	
2535	0	32816	32886	
2536	0	32812	32743	
2537	0	32852	32775	
2538	0	32848	32716	
2539	0	32832	32806	
2540	0	32852	32849	
2541	0	32823	32725	
2542	0	32828	32708	
2543	0	32828	32760	
2544	0	32772	32878	
2545	0	32858	32774	
2546	0	32764	32676	
2547	0	32844	32788	
2548	0	32740	32650	
2549	0	32826	32796	
2550	0	32848	32766	
2551	0	32780	32758	
2552	0	32756	32726	
2553	0	32816	32703	
2554	0	32808	32760	
2555	0	32806	32820	
2556	0	32780	32728	
2557	0	32762	32826	
2558	0	32806	32632	
2559	0	32832	32750	
2560	0	32844	32821	
2561	0	32872	32687	
2562	0	32796	32794	
2563	0	32804	32798	
2564	0	32816	32718	
2565	0	32864	32801	
2566	0	32804	32794	
2567	0	32796	32791	
2568	0	32816	32770	
2569	0	32775	32772	
2570	0	32814	32821	
2571	0	32870	32798	
2572	0	32802	32724	
2573	0	32788	32698	
2574	0	32788	32676	
2575	0	32788	32712	
2576	0	32844	32762	
2577	0	32792	32839	
2578	0	32834	32822	
2579	0	32840	32810	
2580	0	32832	32880	
2581	0	32774	32686	
2582	0	32776	32772	
2583	0	32732	32726	
2584	0	32788	32718	
2585	0	32804	32752	
2586	0	32828	32678	
2587	0	32872	32697	
2588	0	32876	32772	
2589	0	32872	32730	
2590	0	32840	32684	
2591	0	32842	32852	
2592	0	32812	32720	
2593	0	32812	32766	
2594	0	32794	32740	
2595	0	32832	32812	
2596	0	32804	32860	
2597	0	32768	32724	
2598	0	32818	32722	
2599	0	32752	32692	
2600	0	32816	32775	
2601	0	32824	32730	
2602	0	32850	32740	
2603	0	32884	32720	
2604	0	32882	32772	
2605	0	32818	32718	
2606	0	32788	32734	
2607	0	32800	32844	
2608	0	32830	32791	
2609	0	32822	32871	
2610	0	32830	32842	
2611	0	32824	32740	
2612	0	32790	32741	
2613	0	32740	32724	
2614	0	32804	32711	
2615	0	32872	32822	
2616	0	32860	32740	
2617	0	32806	32871	
2618	0	32872	32760	
2619	0	32844	32720	
2620	0	32840	32770	
2621	0	32856	32846	
2622	0	32804	32804	
2623	0	32780	32812	
2624	0	32868	32726	
2625	0	32820	32830	
2626	0	32868	32742	
2627	0	32798	32775	
2628	0	32808	32766	
2629	0	32804	32847	
2630	0	32824	32754	
2631	0	32800	32700	
2632	0	32832	32824	
2633	0	32862	32775	
2634	0	32870	32894	
2635	0	32860	32871	
2636	0	32948	32826	
2637	0	32896	32910	
2638	0	32900	32932	
2639	0	32820	32788	
2640	0	32828	32774	
2641	0	32746	32644	
2642	0	32756	32640	
2643	0	32766	32519	
2644	0	32706	32596	
2645	0	32676	32582	
2646	0	32720	32472	
2647	0	32686	32492	
2648	0	32640	32365	
2649	0	32612	32462	
2650	0	32738	32519	
2651	0	32732	32712	
2652	0	32782	32676	
2653	0	32716	32814	
2654	0	32780	32807	
2655	0	32860	32798	
2656	0	32852	32864	
2657	0	32884	32806	
2658	0	32862	32862	
2659	0	32912	32858	
2660	0	32868	32926	
2661	0	32908	32886	
2662	0	32892	32935	
2663	0	32896	32847	
2664	0	32924	32874	
2665	0	32860	32867	
2666	0	32900	32910	
2667	0	32875	32926	
2668	0	32890	32934	
2669	0	32924	32847	
2670	0	32856	32768	
2671	0	32790	32799	
2672	0	32846	32736	
2673	0	32860	32752	
2674	0	32808	32768	
2675	0	32766	32774	
2676	0	32832	32796	
2677	0	32876	32762	
2678	0	32800	32732	
2679	0	32760	32708	
2680	0	32756	32693	
2681	0	32752	32624	
2682	0	32788	32782	
2683	0	32760	32714	
2684	0	32796	32758	
2685	0	32768	32758	
2686	0	32836	32754	
2687	0	32920	32768	
2688	0	32814	32838	
2689	0	32802	32896	
2690	0	32778	32730	
2691	0	32836	32812	
2692	0	32798	32722	
2693	0	32800	32743	
2694	0	32818	32764	
2695	0	32772	32654	
2696	0	32816	32818	
2697	0	32740	32728	
2698	0	32808	32775	
2699	0	32736	32848	
2700	0	32792	32658	
2701	0	32800	32812	
2702	0	32748	32766	
2703	0	32816	32752	
2704	0	32842	32658	
2705	0	32854	32732	
2706	0	32836	32842	
2707	0	32808	32852	
2708	0	32794	32723	
2709	0	32830	32742	
2710	0	32784	32670	
2711	0	32868	32802	
2712	0	32842	32796	
2713	0	32802	32888	
2714	0	32820	32768	
2715	0	32832	32672	
2716	0	32816	32840	
2717	0	32860	32888	
2718	0	32832	32679	
2719	0	32792	32810	
2720	0	32812	32659	
2721	0	32816	32883	
2722	0	32784	32815	
2723	0	32810	32692	
2724	0	32816	32788	
2725	0	32828	32847	
2726	0	32838	32684	
2727	0	32800	32808	
2728	0	32830	32746	
2729	0	32720	32775	
2730	0	32832	32782	
2731	0	32714	32738	
2732	0	32752	32846	
2733	0	32828	32856	
2734	0	32836	32646	
2735	0	32847	32756	
2736	0	32856	32774	
2737	0	32852	32700	
2738	0	32818	32832	
2739	0	32842	32858	
2740	0	32848	32729	
2741	0	32798	32740	
2742	0	32792	32644	
2743	0	32832	32800	
2744	0	32826	32807	
2745	0	32846	32808	
2746	0	32778	32796	
2747	0	32796	32722	
2748	0	32816	32866	
2749	0	32828	32818	
2750	0	32798	32726	
2751	0	32792	32710	
2752	0	32850	32646	
2753	0	32828	32816	
2754	0	32868	32804	
2755	0	32794	32730	
2756	0	32844	32769	
2757	0	32784	32759	
2758	0	32864	32732	
2759	0	32800	32742	
2760	0	32764	32747	
2761	0	32862	32801	
2762	0	32828	32794	
2763	0	32858	32614	
2764	0	32844	32740	
2765	0	32804	32775	
2766	0	32760	32726	
2767	0	32814	32801	
2768	0	32752	32769	
2769	0	32804	32766	
2770	0	32808	32852	
2771	0	32826	32732	
2772	0	32916	32848	
2773	0	32826	32786	
2774	0	32812	32712	
2775	0	32780	32794	
2776	0	32804	32734	
2777	0	32784	32718	
2778	0	32804	32840	
2779	0	32780	32806	
2780	0	32812	32750	
2781	0	32876	32862	
2782	0	32862	32727	
2783	0	32804	32740	
2784	0	32772	32690	
2785	0	32808	32775	
2786	0	32792	32807	
2787	0	32864	32647	
2788	0	32812	32793	
2789	0	32824	32796	
2790	0	32776	32774	
2791	0	32816	32852	
2792	0	32778	32711	
2793	0	32832	32634	
2794	0	32768	32768	
2795	0	32830	32756	
2796	0	32792	32686	
2797	0	32781	32775	
2798	0	32824	32820	
2799	0	32896	32804	
2800	0	32876	32762	
2801	0	32858	32784	
2802	0	32812	32800	
2803	0	32838	32772	
2804	0	32770	32695	
2805	0	32832	32798	
2806	0	32802	32687	
2807	0	32808	32764	
2808	0	32854	32798	
2809	0	32750	32728	
2810	0	32752	32718	
2811	0	32788	32670	
2812	0	32720	32764	
2813	0	32814	32842	
2814	0	32724	32711	
2815	0	32820	32848	
2816	0	32804	32771	
2817	0	32836	32660	
2818	0	32816	32668	
2819	0	32874	32770	
2820	0	32784	32788	
2821	0	32794	32880	
2822	0	32856	32775	
2823	0	32848	32870	
2824	0	32888	32791	
2825	0	32864	32612	
2826	0	32862	32772	
2827	0	32832	32852	
2828	0	32848	32734	
2829	0	32824	32804	
2830	0	32872	32802	
2831	0	32824	32815	
2832	0	32820	32808	
2833	0	32718	32696	
2834	0	32804	32810	
2835	0	32776	32849	
2836	0	32740	32820	
2837	0	32700	32814	
2838	0	32778	32775	
2839	0	32788	32708	
2840	0	32724	32764	
2841	0	32768	32864	
2842	0	32768	32698	
2843	0	32804	32724	
2844	0	32788	32770	
2845	0	32860	32618	
2846	0	32876	32802	
2847	0	32880	32732	
2848	0	32868	32519	
2849	0	32942	32626	
2850	0	32980	32666	
2851	0	32932	32703	
2852	0	32924	32860	
2853	0	32900	32806	
2854	0	32798	32801	
2855	0	32804	32820	
2856	0	32736	32854	
2857	0	32688	32774	
2858	0	32764	32742	
2859	0	32784	32820	
2860	0	32748	32775	
2861	0	32824	32726	
2862	0	32804	32796	
2863	0	32746	32774	
2864	0	32764	32748	
2865	0	32784	32775	
2866	0	32748	32848	
2867	0	32862	32806	
2868	0	32772	32788	
2869	0	32816	32764	
2870	0	32752	32810	
2871	0	32772	32818	
2872	0	32782	32734	
2873	0	32804	32726	
2874	0	32836	32768	
2875	0	32804	32775	
2876	0	32880	32696	
2877	0	32864	32708	
2878	0	32852	32800	
2879	0	32775	32768	
2880	0	32814	32650	
2881	0	32824	32742	
2882	0	32842	32804	
2883	0	32808	32660	
2884	0	32888	32804	
2885	0	32832	32730	
2886	0	32764	32736	
2887	0	32734	32910	
2888	0	32810	32830	
2889	0	32792	32775	
2890	0	32758	32772	
2891	0	32740	32826	
2892	0	32640	32775	
2893	0	32692	32798	
2894	0	32804	32716	
2895	0	32840	32816	
2896	0	32822	32728	
2897	0	32798	32775	
2898	0	32822	32788	
2899	0	32748	32769	
2900	0	32832	32850	
2901	0	32838	32806	
2902	0	32920	32664	
2903	0	32932	32728	
2904	0	32910	32791	
2905	0	32916	32652	
2906	0	32976	32618	
2907	0	32920	32583	
2908	0	32810	32807	
2909	0	32780	32764	
2910	0	32832	32799	
2911	0	32810	32926	
2912	0	32732	32903	
2913	0	32724	32816	
2914	0	32752	32766	
2915	0	32694	32812	
2916	0	32726	32830	
2917	0	32760	32812	
2918	0	32782	32697	
2919	0	32930	32872	
2920	0	32856	32830	
2921	0	32788	32774	
2922	0	32790	32772	
2923	0	32768	32740	
2924	0	32756	32718	
2925	0	32780	32735	
2926	0	32796	32588	
2927	0	32756	32650	
2928	0	32848	32714	
2929	0	32806	32823	
2930	0	32960	32721	
2931	0	32964	32831	
2932	0	32834	32788	
2933	0	32786	32980	
2934	0	32818	32871	
2935	0	32766	32721	
2936	0	32712	32838	
2937	0	32742	32734	
2938	0	32862	32768	
2939	0	32660	32836	
2940	0	32692	32774	
2941	0	32728	32742	
2942	0	32668	32796	
2943	0	32736	32875	
2944	0	32832	32798	
2945	0	32776	32708	
2946	0	32856	32804	
2947	0	32848	32706	
2948	0	32784	32856	
2949	0	32844	32892	
2950	0	32906	32690	
2951	0	32896	32748	
2952	0	32888	32900	
2953	0	32874	32800	
2954	0	32884	32775	
2955	0	32862	32847	
2956	0	32868	32775	
2957	0	32776	32735	
2958	0	32820	32836	
2959	0	32866	32817	
2960	0	32918	32852	
2961	0	32868	32854	
2962	0	32798	32727	
2963	0	32838	32730	
2964	0	32792	32647	
2965	0	32752	32678	
2966	0	32712	32746	
2967	0	32752	32818	
2968	0	32712	32674	
2969	0	32702	32620	
2970	0	32736	32666	
2971	0	32830	32586	
2972	0	32860	32738	
2973	0	32824	32698	
2974	0	32848	32742	
2975	0	32832	32808	
2976	0	32758	32807	
2977	0	32800	32843	
2978	0	32838	32856	
2979	0	32740	32694	
2980	0	32780	32722	
2981	0	32808	32754	
2982	0	32772	32932	
2983	0	32808	32884	
2984	0	32754	32702	
2985	0	32780	32726	
2986	0	32746	32536	
2987	0	32772	32678	
2988	0	32824	32690	
2989	0	32776	32818	
2990	0	32790	32716	
2991	0	32836	32634	
2992	0	32892	32704	
2993	0	32764	32719	
2994	0	32724	32761	
2995	0	32768	32742	
2996	0	32804	32686	
2997	0	32868	32708	
2998	0	32980	32720	
2999	0	33052	32739	
3000	0	32988	32676	
3001	0	33002	32831	
3002	0	32862	32746	
3003	0	32896	32726	
3004	0	32696	32758	
3005	0	32674	32862	
3006	0	32776	32836	
3007	0	32872	32740	
3008	0	32848	32838	
3009	0	32940	32966	
3010	0	32868	32964	
3011	0	32994	32824	
3012	0	32894	32943	
3013	0	32870	32916	
3014	0	32774	32876	
3015	0	32774	32792	
3016	0	32808	32860	
3017	0	32838	32775	
3018	0	32888	32814	
3019	0	32812	32762	
3020	0	32820	32724	
3021	0	32848	32708	
3022	0	32752	32682	
3023	0	32718	32634	
3024	0	32777	32644	
3025	0	32804	32700	
3026	0	32872	32725	
3027	0	32824	32596	
3028	0	32752	32612	
3029	0	32748	32567	
3030	0	32828	32708	
3031	0	32836	32702	
3032	0	32818	32892	
3033	0	32720	32844	
3034	0	32750	32884	
3035	0	32774	32726	
3036	0	32721	32656	
3037	0	32708	32696	
3038	0	32672	32692	
3039	0	32714	32788	
3040	0	32620	32688	
3041	0	32658	32882	
3042	0	32741	32775	
3043	0	32684	32947	
3044	0	32882	32766	
3045	0	32808	32792	
3046	0	32912	32695	
3047	0	32894	32744	
3048	0	32940	32702	
3049	0	33006	32612	
3050	0	33032	32740	
3051	0	32960	32679	
3052	0	32836	32874	
3053	0	32874	32828	
3054	0	32839	32705	
3055	0	32908	32775	
3056	0	32848	32920	
3057	0	32789	32839	
3058	0	32840	32798	
3059	0	32796	32854	
3060	0	32756	32686	
3061	0	32784	32804	
3062	0	32800	32772	
3063	0	32774	32918	
3064	0	32792	32734	
3065	0	32774	32728	
3066	0	32836	32814	
3067	0	32820	32946	
3068	0	32834	32784	
3069	0	32854	32740	
3070	0	32840	32796	
3071	0	32836	32678	
3072	0	32824	32840	
3073	0	32894	32802	
3074	0	32936	32842	
3075	0	32844	32832	
3076	0	32916	32752	
3077	0	32974	32774	
3078	0	32996	32647	
3079	0	32904	32708	
3080	0	32882	32505	
3081	0	32812	32750	
3082	0	32870	32660	
3083	0	32874	32750	
3084	0	32841	32672	
3085	0	32766	32820	
3086	0	32792	32722	
3087	0	32800	32634	
3088	0	32726	32767	
3089	0	32740	32775	
3090	0	32676	32882	
3091	0	32608	32868	
3092	0	32614	33010	
3093	0	32600	32774	
3094	0	32682	32742	
3095	0	32608	32736	
3096	0	32740	32644	
3097	0	32758	32774	
3098	0	32736	32760	
3099	0	32742	32775	
3100	0	32812	32678	
3101	0	32858	32692	
3102	0	32868	32591	
3103	0	32900	32676	
3104	0	32804	32618	
3105	0	32784	32676	
3106	0	32740	32628	
3107	0	32712	32820	
3108	0	32626	32746	
3109	0	32680	32722	
3110	0	32772	32736	
3111	0	32766	32816	
3112	0	32677	32742	
3113	0	32740	32761	
3114	0	32744	32856	
3115	0	32704	32772	
3116	0	32728	32768	
3117	0	32738	32625	
3118	0	32724	32766	
3119	0	32762	32634	
3120	0	32736	32771	
3121	0	32788	32670	
3122	0	32802	32722	
3123	0	32860	32788	
3124	0	32802	32742	
3125	0	32732	32702	
3126	0	32824	32846	
3127	0	32808	32839	
3128	0	32810	32867	
3129	0	32812	32862	
3130	0	32862	32786	
3131	0	32900	32806	
3132	0	32804	32647	
3133	0	32858	32802	
3134	0	33000	32784	
3135	0	33040	32754	
3136	0	32842	32743	
3137	0	32908	32711	
3138	0	32946	32775	
3139	0	32906	32888	
3140	0	32752	32692	
3141	0	32728	32825	
3142	0	32774	32736	
3143	0	32752	32920	
3144	0	32768	32670	
3145	0	32704	32906	
3146	0	32666	32750	
3147	0	32772	32812	
3148	0	32728	32762	
3149	0	32784	32736	
3150	0	32796	32798	
3151	0	32736	32857	
3152	0	32798	32796	
3153	0	32870	32830	
3154	0	32848	32836	
3155	0	32860	32764	
3156	0	32816	32775	
3157	0	32808	32763	
3158	0	32922	32782	
3159	0	32886	32972	
3160	0	32802	33004	
3161	0	32902	32937	
3162	0	32974	32762	
3163	0	32994	32702	
3164	0	32956	32734	
3165	0	32854	32704	
3166	0	32880	32900	
3167	0	32860	32810	
3168	0	32868	32807	
3169	0	32812	32919	
3170	0	32892	32836	
3171	0	32856	32858	
3172	0	32792	32855	
3173	0	32740	32836	
3174	0	32736	32772	
3175	0	32728	32980	
3176	0	32658	32814	
3177	0	32742	32812	
3178	0	32604	32870	
3179	0	32692	32722	
3180	0	32724	32786	
3181	0	32810	32839	
3182	0	32794	32923	
3183	0	32804	32852	
3184	0	32796	32868	
3185	0	32800	32744	
3186	0	32852	32660	
3187	0	32872	32834	
3188	0	32881	32664	
3189	0	32904	32805	
3190	0	32832	32839	
3191	0	33004	32774	
3192	0	32910	32718	
3193	0	32844	32658	
3194	0	32832	32670	
3195	0	32800	32687	
3196	0	32880	32775	
3197	0	32832	32662	
3198	0	32792	32586	
3199	0	32698	32751	
3200	0	32706	32724	
3201	0	32682	32798	
3202	0	32676	32882	
3203	0	32660	32910	
3204	0	32616	32835	
3205	0	32704	32703	
3206	0	32696	32708	
3207	0	32816	32770	
3208	0	32824	32684	
3209	0	32936	32666	
3210	0	32840	32647	
3211	0	32942	32775	
3212	0	32988	32702	
3213	0	33134	32860	
3214	0	33042	32876	
3215	0	32836	32852	
3216	0	32874	32732	
3217	0	32916	32686	
3218	0	32774	32708	
3219	0	32752	32807	
3220	0	32740	32716	
3221	0	32716	32676	
3222	0	32650	32666	
3223	0	32674	32686	
3224	0	32769	32694	
3225	0	32700	32692	
3226	0	32804	32564	
3227	0	32734	32774	
3228	0	32748	32660	
3229	0	32806	32806	
3230	0	32736	32888	
3231	0	32760	33044	
3232	0	32802	32896	
3233	0	32852	32862	
3234	0	32876	32790	
3235	0	32868	32724	
3236	0	32848	32504	
3237	0	32810	32716	
3238	0	32826	32664	
3239	0	32910	32790	
3240	0	32872	32670	
3241	0	32860	32720	
3242	0	32878	32695	
3243	0	32884	32669	
3244	0	32816	32724	
3245	0	32760	32752	
3246	0	32708	32764	
3247	0	32756	32775	
3248	0	32800	32620	
3249	0	32732	32742	
3250	0	32760	32637	
3251	0	32784	32711	
3252	0	32964	32594	
3253	0	32891	32716	
3254	0	32848	32788	
3255	0	32816	32788	
3256	0	32728	32857	
3257	0	32666	32703	
3258	0	32680	32756	
3259	0	32752	32728	
3260	0	32728	32838	
3261	0	32764	32770	
3262	0	32730	32742	
3263	0	32652	32948	
3264	0	32847	32746	
3265	0	32832	32706	
3266	0	32856	32656	
3267	0	32928	32775	
3268	0	32912	32743	
3269	0	32976	32906	
3270	0	32892	32892	
3271	0	32908	32658	
3272	0	32856	32694	
3273	0	32928	32743	
3274	0	32964	32742	
3275	0	32852	32750	
3276	0	32720	32704	
3277	0	32808	32663	
3278	0	32730	32494	
3279	0	32736	32532	
3280	0	32772	32542	
3281	0	32762	32657	
3282	0	32742	32736	
3283	0	32794	32986	
3284	0	32884	32924	
3285	0	32874	32898	
3286	0	32860	32944	
3287	0	32880	32887	
3288	0	32828	32916	
3289	0	32822	32806	
3290	0	32816	32820	
3291	0	32684	32679	
3292	0	32816	32698	
3293	0	32834	32554	
3294	0	32844	32710	
3295	0	32892	32831	
3296	0	32804	32810	
3297	0	32818	32872	
3298	0	32800	32770	
3299	0	32732	32864	
3300	0	32714	32858	
3301	0	32760	32812	
3302	0	32792	32682	
3303	0	32794	32660	
3304	0	32796	32710	
3305	0	32880	32544	
3306	0	32932	32601	
3307	0	32880	32641	
3308	0	32868	32683	
3309	0	32894	32679	
3310	0	32964	32678	
3311	0	32858	32775	
3312	0	32824	32788	
3313	0	32842	32763	
3314	0	32788	32808	
3315	0	32748	33048	
3316	0	32828	32880	
3317	0	32900	32988	
3318	0	32816	32844	
3319	0	32888	32988	
3320	0	32876	32854	
3321	0	32794	32972	
3322	0	32752	32936	
3323	0	32720	32696	
3324	0	32772	32468	
3325	0	32744	32370	
3326	0	32770	32560	
3327	0	32708	32464	
3328	0	32567	32588	
3329	0	32578	32388	
3330	0	32616	32460	
3331	0	32672	32552	
3332	0	32676	32578	
3333	0	32658	32858	
3334	0	32784	32800	
3335	0	32760	32828	
3336	0	32998	32816	
3337	0	32944	32774	
3338	0	32884	32896	
3339	0	32918	32960	
3340	0	32944	32990	
3341	0	32943	32976	
3342	0	32960	32892	
3343	0	32872	32918	
3344	0	32752	32978	
3345	0	32808	33063	
3346	0	32740	32852	
3347	0	32798	32935	
3348	0	32876	32880	
3349	0	32870	32919	
3350	0	32912	32924	
3351	0	32904	32934	
3352	0	32942	32715	
3353	0	32916	32634	
3354	0	32872	32654	
3355	0	32820	32700	
3356	0	32716	32801	
3357	0	32750	32964	
3358	0	32748	32883	
3359	0	32794	32922	
3360	0	32788	32850	
3361	0	32744	32839	
3362	0	32802	32695	
3363	0	32758	32666	
3364	0	32786	32572	
3365	0	32816	32540	
3366	0	32824	32652	
3367	0	32880	32514	
3368	0	32932	32656	
3369	0	32874	32722	
3370	0	32872	32732	
3371	0	32812	32775	
3372	0	32820	32730	
3373	0	32892	32608	
3374	0	32864	32484	
3375	0	32772	32718	
3376	0	32784	32866	
3377	0	32852	32824	
3378	0	32868	32978	
3379	0	32772	32974	
3380	0	32856	32896	
3381	0	32801	32898	
3382	0	32778	32775	
3383	0	32724	32678	
3384	0	32770	32599	
3385	0	32796	32746	
3386	0	32716	32766	
3387	0	32880	32712	
3388	0	32852	32722	
3389	0	32720	32775	
3390	0	32718	32825	
3391	0	32728	32862	
3392	0	32764	32564	
3393	0	32790	32564	
3394	0	32788	32632	
3395	0	32756	32887	
3396	0	32852	32682	
3397	0	32842	32710	
3398	0	32948	32812	
3399	0	32841	33027	
3400	0	32854	32896	
3401	0	32896	33031	
3402	0	32938	33056	
3403	0	32848	32836	
3404	0	32806	32936	
3405	0	32758	32674	
3406	0	32786	32652	
3407	0	32804	32732	
3408	0	32880	32658	
3409	0	32810	32750	
3410	0	32726	32698	
3411	0	32768	32578	
3412	0	32898	32642	
3413	0	32976	32436	
3414	0	32868	32575	
3415	0	32800	32823	
3416	0	32848	32610	
3417	0	32832	32831	
3418	0	32838	32832	
3419	0	32730	32951	
3420	0	32718	32978	
3421	0	32816	32924	
3422	0	32822	32760	
3423	0	32800	32894	
3424	0	32804	33018	
3425	0	32932	32798	
3426	0	32816	32546	
3427	0	32762	32516	
3428	0	32806	32460	
3429	0	32833	32596	
3430	0	32740	32726	
3431	0	32772	32700	
3432	0	32802	32647	
3433	0	32826	32772	
3434	0	32740	32888	
3435	0	32772	32976	
3436	0	32680	32826	
3437	0	32772	32910	
3438	0	32783	32802	
3439	0	32892	32718	
3440	0	32900	32844	
3441	0	32968	32718	
3442	0	32992	32644	
3443	0	32934	32836	
3444	0	33022	32766	
3445	0	32858	32808	
3446	0	32812	32876	
3447	0	32762	32862	
3448	0	32736	32816	
3449	0	32836	32734	
3450	0	32736	32536	
3451	0	32764	32624	
3452	0	32784	32632	
3453	0	32788	32708	
3454	0	32828	32678	
3455	0	32872	32832	
3456	0	32746	32868	
3457	0	32792	32920	
3458	0	32677	32756	
3459	0	32700	32775	
3460	0	32641	32775	
3461	0	32632	32885	
3462	0	32692	32716	
3463	0	32884	32760	
3464	0	32940	32646	
3465	0	33020	32716	
3466	0	32908	32718	
3467	0	33004	32714	
3468	0	33024	32642	
3469	0	32770	32836	
3470	0	32776	32972	
3471	0	32798	32910	
3472	0	32808	32930	
3473	0	32810	32791	
3474	0	32786	32736	
3475	0	32848	32753	
3476	0	32780	32903	
3477	0	32810	32820	
3478	0	32876	32743	
3479	0	32820	32712	
3480	0	32884	32875	
3481	0	32860	32620	
3482	0	32854	32618	
3483	0	32846	32740	
3484	0	32738	32806	
3485	0	32826	32689	
3486	0	32796	32757	
3487	0	32724	32756	
3488	0	32816	32926	
3489	0	32832	32821	
3490	0	32844	32714	
3491	0	32884	32838	
3492	0	32752	32732	
3493	0	32840	32826	
3494	0	32738	32798	
3495	0	32808	32738	
3496	0	32730	32734	
3497	0	32792	32748	
3498	0	32808	32808	
3499	0	32888	32684	
3500	0	32804	32732	
3501	0	32810	32734	
3502	0	32764	32876	
3503	0	32792	32900	
3504	0	32792	32916	
3505	0	32868	32926	
3506	0	32792	32748	
3507	0	32862	32694	
3508	0	32806	32646	
3509	0	32736	32824	
3510	0	32764	32792	
3511	0	32794	32676	
3512	0	32786	32770	
3513	0	32732	32459	
3514	0	32796	32714	
3515	0	32892	32844	
3516	0	32924	32666	
3517	0	32850	32748	
3518	0	32942	32686	
3519	0	32812	32818	
3520	0	32802	32675	
3521	0	32820	32798	
3522	0	32718	32988	
3523	0	32684	32982	
3524	0	32868	32740	
3525	0	32696	32714	
3526	0	32650	32756	
3527	0	32764	32644	
3528	0	32832	32692	
3529	0	32868	32574	
3530	0	32960	32618	
3531	0	32978	32538	
3532	0	33010	32616	
3533	0	32872	32519	
3534	0	32774	32748	
3535	0	32822	32850	
3536	0	32732	33026	
3537	0	32768	32952	
3538	0	32692	32838	
3539	0	32824	32870	
3540	0	32726	32815	
3541	0	32768	32964	
3542	0	32892	32746	
3543	0	32800	32815	
3544	0	32858	32694	
3545	0	32810	32712	
3546	0	32834	32708	
3547	0	32902	32632	
3548	0	32846	32724	
3549	0	32852	32726	
3550	0	32908	32552	
3551	0	32776	32556	
3552	0	32756	32654	
3553	0	32738	32700	
3554	0	32800	32764	
3555	0	32800	32916	
3556	0	32820	32888	
3557	0	32700	32850	
3558	0	32834	32775	
3559	0	32754	32828	
3560	0	32744	32766	
3561	0	32684	32903	
3562	0	32760	32752	
3563	0	32768	32772	
3564	0	32740	32836	
3565	0	32849	32836	
3566	0	32832	32742	
3567	0	32866	32534	
3568	0	32824	32746	
3569	0	32950	32696	
3570	0	32904	32655	
3571	0	32780	32818	
3572	0	32784	32957	
3573	0	32880	32860	
3574	0	32934	32903	
3575	0	32874	32774	
3576	0	32848	32708	
3577	0	32826	32734	
3578	0	32778	32746	
3579	0	32724	32660	
3580	0	32752	32592	
3581	0	32676	32794	
3582	0	32762	32762	
3583	0	32800	32718	
3584	0	32692	32854	
3585	0	32756	32734	
3586	0	32808	32886	
3587	0	32800	32804	
3588	0	32842	32760	
3589	0	32780	32814	
3590	0	32780	32676	
3591	0	32826	32646	
3592	0	32868	32630	
3593	0	32810	32676	
3594	0	32844	32791	
3595	0	32870	32658	
3596	0	32904	32761	
3597	0	32816	32832	
3598	0	32764	32900	
3599	0	32836	33064	
3600	0	32804	32912	
3601	0	32776	32834	
3602	0	32788	32760	
3603	0	32758	32723	
3604	0	32820	32708	
3605	0	32858	32823	
3606	0	32784	32774	
3607	0	32714	32682	
3608	0	32732	32744	
3609	0	32732	32743	
3610	0	32840	32740	
3611	0	32856	32888	
3612	0	32828	32799	
3613	0	32880	32751	
3614	0	32956	32658	
3615	0	32868	32769	
3616	0	32880	32820	
3617	0	32866	32734	
3618	0	32954	32724	
3619	0	32852	32647	
3620	0	32866	32770	
3621	0	32824	32775	
3622	0	32886	32694	
3623	0	32864	32806	
3624	0	32784	33063	
3625	0	32776	32974	
3626	0	32700	32884	
3627	0	32744	32866	
3628	0	32730	32806	
3629	0	32814	32822	
3630	0	32856	32822	
3631	0	32800	32694	
3632	0	32860	32636	
3633	0	32864	32482	
3634	0	32872	32486	
3635	0	32942	32550	
3636	0	32724	32624	
3637	0	32778	32831	
3638	0	32720	32880	
3639	0	32724	32812	
3640	0	32792	32812	
3641	0	32816	32630	
3642	0	32792	32913	
3643	0	32764	32846	
3644	0	32756	32640	
3645	0	32732	32738	
3646	0	32654	32958	
3647	0	32708	32950	
3648	0	32682	32974	
3649	0	32846	32967	
3650	0	32864	32775	
3651	0	32954	32647	
3652	0	33054	32724	
3653	0	32964	32842	
3654	0	32940	32832	
3655	0	32940	32680	
3656	0	32908	32788	
3657	0	32850	32666	
3658	0	32670	32730	
3659	0	32706	32756	
3660	0	32618	32846	
3661	0	32796	32820	
3662	0	32728	32670	
3663	0	32766	32519	
3664	0	32778	32378	
3665	0	32816	32430	
3666	0	32872	32608	
3667	0	32964	32708	
3668	0	32932	32894	
3669	0	32942	32958	
3670	0	32876	33168	
3671	0	32912	33164	
3672	0	32856	32934	
3673	0	32916	32772	
3674	0	32820	32822	
3675	0	32796	32621	
3676	0	32820	32790	
3677	0	32620	32670	
3678	0	32772	32750	
3679	0	32724	32830	
3680	0	32724	32746	
3681	0	32840	32647	
3682	0	32922	32644	
3683	0	33220	32728	
3684	0	33108	32656	
3685	0	32884	32791	
3686	0	32752	32756	
3687	0	32534	32884	
3688	0	32484	32859	
3689	0	32604	32876	
3690	0	33080	32865	
3691	0	32854	32903	
3692	0	32492	32775	
3693	0	32544	32888	
3694	0	32656	32920	
3695	0	32924	32839	
3696	0	32788	32870	
3697	0	32744	32866	
3698	0	32968	32648	
3699	0	32756	32580	
3700	0	32706	32599	
3701	0	32742	32530	
3702	0	32900	32580	
3703	0	33096	32775	
3704	0	32682	33060	
3705	0	32624	32784	
3706	0	32608	32672	
3707	0	32664	32766	
3708	0	32734	32718	
3709	0	32912	32631	
3710	0	33342	32638	
3711	0	33172	32684	
3712	0	33036	32734	
3713	0	32864	32931	
3714	0	32740	32958	
3715	0	32952	32999	
3716	0	33072	32816	
3717	0	33058	32810	
3718	0	33104	32624	
3719	0	32994	32388	
3720	0	33060	32676	
3721	0	33012	32892	
3722	0	32898	32888	
3723	0	32676	32852	
3724	0	32744	32764	
3725	0	32788	32615	
3726	0	33014	32496	
3727	0	32784	32650	
3728	0	32788	32628	
3729	0	32785	32566	
3730	0	32420	32888	
3731	0	32156	33238	
3732	0	32216	33146	
3733	0	32522	33116	
3734	0	32370	33316	
3735	0	32210	33198	
3736	0	32188	32820	
3737	0	32504	32766	
3738	0	33208	32817	
3739	0	33252	32510	
3740	0	33076	32446	
3741	0	32700	32394	
3742	0	32650	32330	
3743	0	32810	32306	
3744	0	32244	32496	
3745	0	32228	32630	
3746	0	32816	32746	
3747	0	33212	32608	
3748	0	33386	32726	
3749	0	33730	32896	
3750	0	33770	33056	
3751	0	33360	32898	
3752	0	33416	32902	
3753	0	33288	32812	
3754	0	32932	32740	
3755	0	32478	32812	
3756	0	32394	32504	
3757	0	32216	32694	
3758	0	32076	32759	
3759	0	32104	32686	
3760	0	32384	32860	
3761	0	32520	33024	
3762	0	32428	32959	
3763	0	32324	32999	
3764	0	32270	32983	
3765	0	32386	32692	
3766	0	32564	32735	
3767	0	33336	32360	
3768	0	33516	32245	
3769	0	33572	32088	
3770	0	33408	32326	
3771	0	33268	32830	
3772	0	33242	32964	
3773	0	33174	32860	
3774	0	33066	33196	
3775	0	33058	33174	
3776	0	32928	33052	
3777	0	32854	33004	
3778	0	32868	32840	
3779	0	32952	32820	
3780	0	32856	32692	
3781	0	32944	32771	
3782	0	32706	32720	
3783	0	32740	32540	
3784	0	32564	32738	
3785	0	32604	32658	
3786	0	32576	32752	
3787	0	32572	32666	
3788	0	32688	32654	
3789	0	32748	32805	
3790	0	32884	32644	
3791	0	32854	32632	
3792	0	32894	32624	
3793	0	32836	32580	
3794	0	32920	32796	
3795	0	32894	32746	
3796	0	32736	32882	
3797	0	32794	32935	
3798	0	32840	33030	
3799	0	32884	33094	
3800	0	32864	33116	
3801	0	32904	32703	
3802	0	32890	32686	
3803	0	32908	32751	
3804	0	32932	32528	
3805	0	32874	32732	
3806	0	32780	32735	
3807	0	32728	32990	
3808	0	32684	32842	
3809	0	32706	32786	
3810	0	32796	32868	
3811	0	32728	32818	
3812	0	32830	32868	
3813	0	32872	32792	
3814	0	32848	32660	
3815	0	32864	32626	
3816	0	32884	32534	
3817	0	32894	32714	
3818	0	32834	32644	
3819	0	32774	32903	
3820	0	32732	32946	
3821	0	32712	32606	
3822	0	32608	32678	
3823	0	32656	32657	
3824	0	32534	32796	
3825	0	32652	32750	
3826	0	32824	32814	
3827	0	32758	32775	
3828	0	32740	32826	
3829	0	32704	33072	
3830	0	32740	32834	
3831	0	32736	33004	
3832	0	32652	32926	
3833	0	32886	32952	
3834	0	33224	32750	
3835	0	33448	32576	
3836	0	33250	32587	
3837	0	32992	32576	
3838	0	32966	32934	
3839	0	33262	32846	
3840	0	32612	32856	
3841	0	32673	32684	
3842	0	32884	32555	
3843	0	32774	32689	
3844	0	32616	32743	
3845	0	32522	32807	
3846	0	32440	32924	
3847	0	32530	32822	
3848	0	32650	32842	
3849	0	32526	32948	
3850	0	32402	32858	
3851	0	32592	32868	
3852	0	32702	32628	
3853	0	32784	32858	
3854	0	32784	32786	
3855	0	32968	32604	
3856	0	33104	32583	
3857	0	33120	32468	
3858	0	33004	32418	
3859	0	32930	32376	
3860	0	32780	32644	
3861	0	32704	32660	
3862	0	32644	32754	
3863	0	32680	32836	
3864	0	32686	32934	
3865	0	32782	32898	
3866	0	32788	32896	
3867	0	32782	33160	
3868	0	32708	33132	
3869	0	32700	32948	
3870	0	32760	32812	
3871	0	32848	32836	
3872	0	32936	32700	
3873	0	32914	32513	
3874	0	32864	32516	
3875	0	32860	32526	
3876	0	32832	32758	
3877	0	32836	32850	
3878	0	32840	32900	
3879	0	32952	32775	
3880	0	32920	32614	
3881	0	32864	32545	
3882	0	33044	32738	
3883	0	32830	32702	
3884	0	32820	32698	
3885	0	32888	32742	
3886	0	32948	32738	
3887	0	32880	32790	
3888	0	32760	32884	
3889	0	32744	32647	
3890	0	32672	32753	
3891	0	32694	32696	
3892	0	32688	32641	
3893	0	32794	32640	
3894	0	32872	32519	
3895	0	32844	32542	
3896	0	32984	32630	
3897	0	32828	32752	
3898	0	32674	32764	
3899	0	32744	32828	
3900	0	32746	32878	
3901	0	32814	33042	
3902	0	32848	32910	
3903	0	32740	32842	
3904	0	32812	32704	
3905	0	32896	32678	
3906	0	33080	32798	
3907	0	32908	32744	
3908	0	32724	32822	
3909	0	32712	32664	
3910	0	32804	32676	
3911	0	32836	32730	
3912	0	32872	32914	
3913	0	32724	32804	
3914	0	32764	32980	
3915	0	32730	33042	
3916	0	32836	32948	
3917	0	32826	32740	
3918	0	32884	32710	
3919	0	32950	32767	
3920	0	32964	32480	
3921	0	32860	32586	
3922	0	32876	32583	
3923	0	32874	32772	
3924	0	32800	32774	
3925	0	32734	32828	
3926	0	32654	32818	
3927	0	32668	32804	
3928	0	32712	32602	
3929	0	32928	32631	
3930	0	32904	32672	
3931	0	33010	32752	
3932	0	32874	32662	
3933	0	32688	32742	
3934	0	32584	32640	
3935	0	32420	32803	
3936	0	32478	32802	
3937	0	32730	32912	
3938	0	32860	32854	
3939	0	33024	32804	
3940	0	33152	32810	
3941	0	33024	33008	
3942	0	32868	32980	
3943	0	32942	32836	
3944	0	32904	32632	
3945	0	32782	32700	
3946	0	32650	32602	
3947	0	32700	32742	
3948	0	32704	32730	
3949	0	32628	32726	
3950	0	32646	32614	
3951	0	32606	32664	
3952	0	32612	32640	
3953	0	32622	32788	
3954	0	32640	32728	
3955	0	32576	32816	
3956	0	32712	32584	
3957	0	33092	32716	
3958	0	33306	32647	
3959	0	33292	32710	
3960	0	32970	32756	
3961	0	33016	32792	
3962	0	33072	32800	
3963	0	33036	32644	
3964	0	32960	32796	
3965	0	32696	32976	
3966	0	32774	32820	
3967	0	32656	32852	
3968	0	32600	32724	
3969	0	32728	33024	
3970	0	32806	33060	
3971	0	32840	33052	
3972	0	32764	32870	
3973	0	32820	32848	
3974	0	32854	32760	
3975	0	32840	32740	
3976	0	32848	32684	
3977	0	32852	32743	
3978	0	32814	32641	
3979	0	32852	32799	
3980	0	32882	32738	
3981	0	32818	32800	
3982	0	32784	32820	
3983	0	32746	32780	
3984	0	32868	32670	
3985	0	32776	32674	
3986	0	32778	32572	
3987	0	32804	32612	
3988	0	32780	32400	
3989	0	32558	32398	
3990	0	32642	32311	
3991	0	32636	32327	
3992	0	32704	32318	
3993	0	32800	32634	
3994	0	32954	32671	
3995	0	32900	32810	
3996	0	32808	32734	
3997	0	32800	32882	
3998	0	32848	32812	
3999	0	32806	32794	
4000	0	32872	32756	
4001	0	32844	32799	
4002	0	32900	32674	
4003	0	32904	32727	
4004	0	32954	32804	
4005	0	32896	32700	
4006	0	32980	32769	
4007	0	32978	32795	
4008	0	32912	32734	
4009	0	32816	32646	
4010	0	32728	32743	
4011	0	32704	32624	
4012	0	32664	32815	
4013	0	32772	32632	
4014	0	32716	32826	
4015	0	33012	32800	
4016	0	32942	32791	
4017	0	32798	32994	
4018	0	32834	32790	
4019	0	32856	32944	
4020	0	32764	32752	
4021	0	32756	32876	
4022	0	32832	32814	
4023	0	32838	32753	
4024	0	32786	32840	
4025	0	32792	32878	
4026	0	32742	32870	
4027	0	32822	32726	
4028	0	32852	32818	
4029	0	32918	32692	
4030	0	32840	32816	
4031	0	32792	32798	
4032	0	32762	32708	
4033	0	32812	32762	
4034	0	32704	32708	
4035	0	32754	32634	
4036	0	32802	32695	
4037	0	32784	32700	
4038	0	32824	32775	
4039	0	32688	32832	
4040	0	32820	32800	
4041	0	32820	32888	
4042	0	32944	32710	
4043	0	32872	32746	
4044	0	32880	32750	
4045	0	32808	32786	
4046	0	32757	32820	
4047	0	32750	32832	
4048	0	32812	32808	
4049	0	32810	32746	
4050	0	32862	32844	
4051	0	32808	32728	
4052	0	32888	32748	
4053	0	32860	32706	
4054	0	32854	32662	
4055	0	32908	32774	
4056	0	32892	32862	
4057	0	32696	32838	
4058	0	32796	32723	
4059	0	32800	32742	
4060	0	32848	32603	
4061	0	32836	32666	
4062	0	32852	32828	
4063	0	32774	32892	
4064	0	32764	32874	
4065	0	32768	32760	
4066	0	32694	32744	
4067	0	32822	32658	
4068	0	32802	32830	
4069	0	32720	32770	
4070	0	32725	32628	
4071	0	32720	32838	
4072	0	32724	32807	
4073	0	32760	32738	
4074	0	32774	32742	
4075	0	32716	32839	
4076	0	32868	32702	
4077	0	32820	32878	
4078	0	32808	32834	
4079	0	32804	32694	
4080	0	32962	32800	
4081	0	32972	32732	
4082	0	32834	32772	
4083	0	32834	32818	
4084	0	32804	32834	
4085	0	32706	32829	
4086	0	32670	32880	
4087	0	32780	32984	
4088	0	32808	32620	
4089	0	32864	32582	
4090	0	32850	32588	
4091	0	32764	32758	
4092	0	32732	32842	
4093	0	32750	32632	
4094	0	32762	32748	
4095	0	32768	32664	
4096	0	32740	32772	
4097	0	32772	32648	
4098	0	32832	32630	
4099	0	32782	32718	
4100	0	32936	32727	
4101	0	32920	32678	
4102	0	32872	32772	
4103	0	32932	32839	
4104	0	32880	32768	
4105	0	32738	32838	
4106	0	32742	32732	
4107	0	32872	32660	
4108	0	32816	32706	
4109	0	32808	32903	
4110	0	32804	32912	
4111	0	32888	32924	
4112	0	32890	32988	
4113	0	32865	32990	
4114	0	32796	32902	
4115	0	32782	32884	
4116	0	32804	33082	
4117	0	32826	33031	
4118	0	32936	32902	
4119	0	32816	32636	
4120	0	32648	32576	
4121	0	32718	32550	
4122	0	32666	32519	
4123	0	32712	32583	
4124	0	32716	32642	
4125	0	32728	32720	
4126	0	32820	32680	
4127	0	32866	32626	
4128	0	32842	32742	
4129	0	32856	32644	
4130	0	32762	32711	
4131	0	32706	32654	
4132	0	32830	32775	
4133	0	32776	32615	
4134	0	32956	32632	
4135	0	33248	32606	
4136	0	33328	32576	
4137	0	32998	32895	
4138	0	32798	32878	
4139	0	32736	33064	
4140	0	32560	33176	
4141	0	32532	32982	
4142	0	32846	32720	
4143	0	32752	32710	
4144	0	32680	32766	
4145	0	32882	32928	
4146	0	32874	32934	
4147	0	32986	32732	
4148	0	32950	32824	
4149	0	32784	32610	
4150	0	32626	32758	
4151	0	32572	32630	
4152	0	32404	32664	
4153	0	32446	32609	
4154	0	32532	32792	
4155	0	32680	32764	
4156	0	32896	32995	
4157	0	33156	33040	
4158	0	32972	32970	
4159	0	32748	32865	
4160	0	32628	32666	
4161	0	32586	32702	
4162	0	32628	32580	
4163	0	32804	32582	
4164	0	32864	32638	
4165	0	33058	32722	
4166	0	33232	32692	
4167	0	33200	32744	
4168	0	33112	32626	
4169	0	33068	32708	
4170	0	32944	32708	
4171	0	32768	32737	
4172	0	33040	33044	
4173	0	33006	32894	
4174	0	32756	32698	
4175	0	32596	32822	
4176	0	32672	32944	
4177	0	32706	32838	
4178	0	32577	32945	
4179	0	32560	32954	
4180	0	32714	32736	
4181	0	32858	32822	
4182	0	32906	32644	
4183	0	32896	32626	
4184	0	32656	32526	
4185	0	32804	32654	
4186	0	32884	32472	
4187	0	32792	32636	
4188	0	32768	32744	
4189	0	32784	32804	
4190	0	32736	32764	
4191	0	32770	32924	
4192	0	32788	32830	
4193	0	32744	32887	
4194	0	32768	32860	
4195	0	32836	32798	
4196	0	32896	32752	
4197	0	32890	32644	
4198	0	32848	32700	
4199	0	32856	32701	
4200	0	32852	32698	
4201	0	32714	32640	
4202	0	32768	32676	
4203	0	32790	32690	
4204	0	32805	32818	
4205	0	32880	32788	
4206	0	32860	32624	
4207	0	32820	32702	
4208	0	32816	32727	
4209	0	32992	32862	
4210	0	32964	32884	
4211	0	33096	32900	
4212	0	33048	32644	
4213	0	32784	32504	
4214	0	32788	32578	
4215	0	32692	32638	
4216	0	32984	32820	
4217	0	33128	32964	
4218	0	33208	32942	
4219	0	33040	33136	
4220	0	32800	33222	
4221	0	32564	32970	
4222	0	32456	33072	
4223	0	32512	32756	
4224	0	32534	32666	
4225	0	32468	32554	
4226	0	32506	32636	
4227	0	32672	32668	
4228	0	32838	32600	
4229	0	32860	32578	
4230	0	32916	32628	
4231	0	32976	32628	
4232	0	32866	32628	
4233	0	32812	32575	
4234	0	32816	32732	
4235	0	32900	32756	
4236	0	32888	32620	
4237	0	32858	32748	
4238	0	32834	32806	
4239	0	32824	32878	
4240	0	33288	32724	
4241	0	33496	32694	
4242	0	33124	32455	
4243	0	32608	32492	
4244	0	32364	32408	
4245	0	32200	32742	
4246	0	32372	32758	
4247	0	32592	33159	
4248	0	32804	33050	
4249	0	32958	33276	
4250	0	32984	32961	
4251	0	33048	33214	
4252	0	33024	32887	
4253	0	32892	32878	
4254	0	32804	32732	
4255	0	32708	32700	
4256	0	32592	32622	
4257	0	32654	32654	
4258	0	32604	32702	
4259	0	32612	32855	
4260	0	32612	32848	
4261	0	32714	32724	
4262	0	32758	32758	
4263	0	32796	32721	
4264	0	32772	32734	
4265	0	32820	32644	
4266	0	32878	32716	
4267	0	32880	32678	
4268	0	32864	32648	
4269	0	32830	32640	
4270	0	32920	32688	
4271	0	32932	32637	
4272	0	33060	32774	
4273	0	32894	32734	
4274	0	33046	32744	
4275	0	33324	32570	
4276	0	33508	32678	
4277	0	33350	32690	
4278	0	32952	32750	
4279	0	32970	32708	
4280	0	32700	33102	
4281	0	32493	33032	
4282	0	32536	33022	
4283	0	32438	32986	
4284	0	32278	32872	
4285	0	32380	32758	
4286	0	32556	32730	
4287	0	32640	32834	
4288	0	32692	32912	
4289	0	32668	32868	
4290	0	32712	32528	
4291	0	32608	32538	
4292	0	32684	32664	
4293	0	32688	32730	
4294	0	32794	32596	
4295	0	32772	32836	
4296	0	32848	32784	
4297	0	32876	32756	
4298	0	32928	32774	
4299	0	33116	32828	
4300	0	33242	32768	
4301	0	33018	32756	
4302	0	32848	32646	
4303	0	32568	32690	
4304	0	32502	32678	
4305	0	32524	32684	
4306	0	32642	32758	
4307	0	32614	32940	
4308	0	32724	32804	
4309	0	32820	32704	
4310	0	32876	32658	
4311	0	32880	32826	
4312	0	32836	32804	
4313	0	32948	32711	
4314	0	32936	32630	
4315	0	32928	32694	
4316	0	32892	32686	
4317	0	32816	32762	
4318	0	32816	32832	
4319	0	32871	32805	
4320	0	32900	32960	
4321	0	32834	32880	
4322	0	32830	32888	
4323	0	32758	32796	
4324	0	32730	32758	
4325	0	32748	32806	
4326	0	32768	32629	
4327	0	32812	32689	
4328	0	32788	32775	
4329	0	32832	32862	
4330	0	32920	32792	
4331	0	32876	32796	
4332	0	32806	32836	
4333	0	32786	32660	
4334	0	32820	32711	
4335	0	32766	32660	
4336	0	32820	32822	
4337	0	32798	32806	
4338	0	32874	32807	
4339	0	32812	32748	
4340	0	32866	32688	
4341	0	32884	32668	
4342	0	32812	32758	
4343	0	32764	32666	
4344	0	32826	32454	
4345	0	32856	32532	
4346	0	32840	32738	
4347	0	32908	32878	
4348	0	32836	33134	
4349	0	32818	33182	
4350	0	32782	32884	
4351	0	32692	32917	
4352	0	32656	32832	
4353	0	32710	32852	
4354	0	32776	32718	
4355	0	32736	32736	
4356	0	32774	32750	
4357	0	32712	32598	
4358	0	32852	32718	
4359	0	32748	32564	
4360	0	32876	32566	
4361	0	32844	32708	
4362	0	32816	32668	
4363	0	32828	32686	
4364	0	32834	32650	
4365	0	32810	32775	
4366	0	32736	32616	
4367	0	32772	32708	
4368	0	32828	32772	
4369	0	32744	32900	
4370	0	32860	32868	
4371	0	32782	32764	
4372	0	32740	32884	
4373	0	32788	32752	
4374	0	32922	32732	
4375	0	32960	32723	
4376	0	32920	32812	
4377	0	32836	32806	
4378	0	32814	32610	
4379	0	32780	32836	
4380	0	32768	32810	
4381	0	32810	33018	
4382	0	32720	32948	
4383	0	32788	32796	
4384	0	32790	32763	
4385	0	32760	32704	
4386	0	32834	32658	
4387	0	32850	32596	
4388	0	32752	32720	
4389	0	32856	32791	
4390	0	32868	32822	
4391	0	32752	32844	
4392	0	32828	32714	
4393	0	32772	32783	
4394	0	32855	32841	
4395	0	32868	32764	
4396	0	32820	32708	
4397	0	32768	32802	
4398	0	32668	32848	
4399	0	32672	32812	
4400	0	32702	32631	
4401	0	32812	32664	
4402	0	32810	32654	
4403	0	32852	32808	
4404	0	32988	32679	
4405	0	32960	32798	
4406	0	32884	32738	
4407	0	32884	32807	
4408	0	32908	32671	
4409	0	32949	32856	
4410	0	32876	32790	
4411	0	32754	32792	
4412	0	32908	32832	
4413	0	32880	32894	
4414	0	32712	32756	
4415	0	32548	32842	
4416	0	32528	32944	
4417	0	32505	32842	
4418	0	32578	32750	
4419	0	32668	32775	
4420	0	32840	32708	
4421	0	32860	32815	
4422	0	32864	32686	
4423	0	32901	32714	
4424	0	32892	32698	
4425	0	32932	32775	
4426	0	32932	32804	
4427	0	32924	32800	
4428	0	32882	32902	
4429	0	32858	32862	
4430	0	32868	32830	
4431	0	32816	32774	
4432	0	32752	32769	
4433	0	32810	32702	
4434	0	32790	32828	
4435	0	32704	32774	
4436	0	32814	32838	
4437	0	32816	32706	
4438	0	32734	32599	
4439	0	32768	32706	
4440	0	32816	32618	
4441	0	32860	32775	
4442	0	32874	32678	
4443	0	32894	32796	
4444	0	32856	32824	
4445	0	32872	32792	
4446	0	32832	32784	
4447	0	32824	32839	
4448	0	32772	32826	
4449	0	32794	32894	
4450	0	32756	32856	
4451	0	32834	32852	
4452	0	32794	32860	
4453	0	32724	32807	
4454	0	32780	32772	
4455	0	32862	32636	
4456	0	32836	32699	
4457	0	32844	32620	
4458	0	32796	32808	
4459	0	32756	32676	
4460	0	32778	32855	
4461	0	32866	32752	
4462	0	32840	32679	
4463	0	32812	32726	
4464	0	32814	32652	
4465	0	32792	32804	
4466	0	32796	32774	
4467	0	32810	32660	
4468	0	32848	32806	
4469	0	32784	32716	
4470	0	32826	32744	
4471	0	32728	32920	
4472	0	32810	33100	
4473	0	32780	32896	
4474	0	32804	32968	
4475	0	32804	32980	
4476	0	32820	32775	
4477	0	32810	32668	
4478	0	32846	32687	
4479	0	32748	32702	
4480	0	32836	32550	
4481	0	32852	32610	
4482	0	32812	32606	
4483	0	32810	32670	
4484	0	32872	32570	
4485	0	32768	32711	
4486	0	32816	32782	
4487	0	32734	32800	
4488	0	32968	32756	
4489	0	32836	32728	
4490	0	32874	32850	
4491	0	32784	32788	
4492	0	32742	32816	
4493	0	32818	32852	
4494	0	32768	32842	
4495	0	32868	32814	
4496	0	32788	32654	
4497	0	32760	32799	
4498	0	32768	32732	
4499	0	32824	32754	
4500	0	32768	32775	
4501	0	32798	32650	
4502	0	32862	32820	
4503	0	32876	32740	
4504	0	32828	32772	
4505	0	32906	32786	
4506	0	32808	32742	
4507	0	32832	32730	
4508	0	32812	32862	
4509	0	32836	32743	
4510	0	32898	32735	
4511	0	32848	32756	
4512	0	32874	32834	
4513	0	32808	32864	
4514	0	32764	32876	
4515	0	32794	32772	
4516	0	32752	32711	
4517	0	32768	32682	
4518	0	32786	32775	
4519	0	32836	32812	
4520	0	32844	32854	
4521	0	32770	32842	
4522	0	32733	32715	
4523	0	32724	32767	
4524	0	32828	32754	
4525	0	32848	32794	
4526	0	32816	32738	
4527	0	32796	32626	
4528	0	32790	32786	
4529	0	32720	32572	
4530	0	32810	32644	
4531	0	32862	32784	
4532	0	32898	32775	
4533	0	32962	32866	
4534	0	32928	32871	
4535	0	32820	32938	
4536	0	32768	32710	
4537	0	32744	32732	
4538	0	32720	32881	
4539	0	32736	32912	
4540	0	32764	32720	
4541	0	32740	32775	
4542	0	32756	32808	
4543	0	32918	32775	
4544	0	32826	32636	
4545	0	32800	32736	
4546	0	32852	32732	
4547	0	32780	32682	
4548	0	32774	32751	
4549	0	32793	32622	
4550	0	32852	32747	
4551	0	32817	32748	
4552	0	32792	32652	
4553	0	32828	32775	
4554	0	32816	32726	
4555	0	32886	32822	
4556	0	32848	32892	
4557	0	32830	32800	
4558	0	32802	32788	
4559	0	32832	32829	
4560	0	32824	32822	
4561	0	32944	32772	
4562	0	33008	32594	
4563	0	32852	32716	
4564	0	32800	32818	
4565	0	32788	32694	
4566	0	32778	32684	
4567	0	32740	32836	
4568	0	32794	32920	
4569	0	32828	32740	
4570	0	32846	32790	
4571	0	32780	32647	
4572	0	32816	32754	
4573	0	32824	32690	
4574	0	32736	32719	
4575	0	32714	32758	
4576	0	32758	32752	
4577	0	32778	32711	
4578	0	32778	32750	
4579	0	32828	32880	
4580	0	32836	32768	
4581	0	32852	32686	
4582	0	32868	32772	
4583	0	32864	32654	
4584	0	32776	32742	
4585	0	32828	32751	
4586	0	32822	32858	
4587	0	32824	32820	
4588	0	32844	32736	
4589	0	32836	32835	
4590	0	32740	32700	
4591	0	32760	32839	
4592	0	32802	32818	
4593	0	32812	32864	
4594	0	32772	32645	
4595	0	32868	32720	
4596	0	32848	32750	
4597	0	32864	32828	
4598	0	32832	32724	
4599	0	32812	32838	
4600	0	32774	32692	
4601	0	32816	32816	
4602	0	32844	32692	
4603	0	32748	32751	
4604	0	32746	32874	
4605	0	32790	32854	
4606	0	32836	32790	
4607	0	32836	32729	
4608	0	32780	32742	
4609	0	32776	32632	
4610	0	32818	32743	
4611	0	32816	32760	
4612	0	32790	32770	
4613	0	32812	32846	
4614	0	32856	32896	
4615	0	32796	32959	
4616	0	32804	32720	
4617	0	32940	32738	
4618	0	32928	32718	
4619	0	32872	32695	
4620	0	32804	32688	
4621	0	32748	32775	
4622	0	32760	32726	
4623	0	32684	32770	
4624	0	32768	32903	
4625	0	32746	32820	
4626	0	32804	32890	
4627	0	32860	32840	
4628	0	32816	32732	
4629	0	32872	32806	
4630	0	32840	32722	
4631	0	32864	32794	
4632	0	32862	32767	
4633	0	32886	32756	
4634	0	32890	32891	
4635	0	32864	32822	
4636	0	32852	32911	
4637	0	32748	32852	
4638	0	32764	32814	
4639	0	32768	32879	
4640	0	32804	32839	
4641	0	32842	32831	
4642	0	32856	32796	
4643	0	32906	32924	
4644	0	32916	32823	
4645	0	32840	32846	
4646	0	32836	32838	
4647	0	32856	32696	
4648	0	32848	32816	
4649	0	32784	32811	
4650	0	32766	32742	
4651	0	32656	32666	
4652	0	32678	32500	
4653	0	32692	32368	
4654	0	32596	32170	
4655	0	32600	32257	
4656	0	32640	32412	
4657	0	32696	32582	
4658	0	32691	32724	
4659	0	32762	32810	
4660	0	32836	32748	
4661	0	32792	32836	
4662	0	32748	32938	
4663	0	32820	32821	
4664	0	32864	32875	
4665	0	32860	32880	
4666	0	32958	32756	
4667	0	33040	32888	
4668	0	32972	32959	
4669	0	32852	32796	
4670	0	32860	32976	
4671	0	32808	33012	
4672	0	32774	32804	
4673	0	32879	32900	
4674	0	32884	32722	
4675	0	32904	32604	
4676	0	32842	32752	
4677	0	32878	32740	
4678	0	32980	32808	
4679	0	32916	32808	
4680	0	32990	32728	
4681	0	32818	32760	
4682	0	32860	32815	
4683	0	32808	32735	
4684	0	32800	32852	
4685	0	32756	32852	
4686	0	32748	32762	
4687	0	32794	32712	
4688	0	32744	32718	
4689	0	32776	32622	
4690	0	32784	32870	
4691	0	32780	32692	
4692	0	32832	32775	
4693	0	32784	32892	
4694	0	32802	32940	
4695	0	32796	32952	
4696	0	32836	32734	
4697	0	32792	32775	
4698	0	32782	32668	
4699	0	32804	32650	
4700	0	32828	32602	
4701	0	32824	32618	
4702	0	32836	32534	
4703	0	32786	32562	
4704	0	32808	32680	
4705	0	32832	32687	
4706	0	32836	32886	
4707	0	32796	32808	
4708	0	32796	32764	
4709	0	32844	32908	
4710	0	32808	32912	
4711	0	32752	32871	
4712	0	32776	32850	
4713	0	32856	32844	
4714	0	32844	32858	
4715	0	32794	32740	
4716	0	32772	32714	
4717	0	32794	32878	
4718	0	32772	32886	
4719	0	32822	32874	
4720	0	32816	32876	
4721	0	32848	32732	
4722	0	32856	32738	
4723	0	32794	32722	
4724	0	32808	32738	
4725	0	32846	32874	
4726	0	32872	32766	
4727	0	32816	32751	
4728	0	32820	32734	
4729	0	32750	32728	
4730	0	32900	32654	
4731	0	32804	32678	
4732	0	32782	32726	
4733	0	32744	32593	
4734	0	32868	32692	
4735	0	32852	32700	
4736	0	32789	32676	
4737	0	32752	32708	
4738	0	32782	32647	
4739	0	32796	32790	
4740	0	32772	32799	
4741	0	32828	32636	
4742	0	32828	32743	
4743	0	32844	32898	
4744	0	32798	32840	
4745	0	32844	32839	
4746	0	32912	32884	
4747	0	32832	32903	
4748	0	32836	32756	
4749	0	32782	32758	
4750	0	32772	32830	
4751	0	32760	32750	
4752	0	32816	32766	
4753	0	32776	32796	
4754	0	32846	32870	
4755	0	32800	32840	
4756	0	32830	32812	
4757	0	32876	32774	
4758	0	32790	32804	
4759	0	32752	32910	
4760	0	32812	32735	
4761	0	32792	32742	
4762	0	32804	32858	
4763	0	32800	32818	
4764	0	32808	32686	
4765	0	32800	32820	
4766	0	32748	32838	
4767	0	32872	32706	
4768	0	32844	32766	
4769	0	32820	32692	
4770	0	32814	32738	
4771	0	32828	32698	
4772	0	32775	32746	
4773	0	32798	32924	
4774	0	32850	32794	
4775	0	32820	32898	
4776	0	32788	32856	
4777	0	32836	32808	
4778	0	32804	32761	
4779	0	32844	32714	
4780	0	32880	32775	
4781	0	32834	32716	
4782	0	32816	32812	
4783	0	32816	32615	
4784	0	32800	32682	
4785	0	32868	32676	
4786	0	32860	32647	
4787	0	32828	32714	
4788	0	32808	32682	
4789	0	32766	32682	
4790	0	32752	32698	
4791	0	32766	32634	
4792	0	32788	32692	
4793	0	32864	32756	
4794	0	32812	32800	
4795	0	32828	32694	
4796	0	32762	32710	
4797	0	32888	32708	
4798	0	32830	32839	
4799	0	32780	32913	
4800	0	32868	32884	
4801	0	32780	32807	
4802	0	32838	32798	
4803	0	32824	32764	
4804	0	32844	32768	
4805	0	32852	32866	
4806	0	32848	32734	
4807	0	32916	32812	
4808	0	32790	32820	
4809	0	32824	32914	
4810	0	32802	32782	
4811	0	32842	32794	
4812	0	32784	32823	
4813	0	32772	32775	
4814	0	32828	32774	
4815	0	32756	32818	
4816	0	32832	32665	
4817	0	32814	32808	
4818	0	32840	32775	
4819	0	32802	32775	
4820	0	32758	32806	
4821	0	32860	32623	
4822	0	32863	32646	
4823	0	32854	32743	
4824	0	32862	32724	
4825	0	32818	32814	
4826	0	32744	32756	
4827	0	32828	32832	
4828	0	32890	32908	
4829	0	32780	32724	
4830	0	32702	32794	
4831	0	32848	32822	
4832	0	32816	32960	
4833	0	32832	32856	
4834	0	32778	32775	
4835	0	32832	32894	
4836	0	32816	32762	
4837	0	32860	32882	
4838	0	32844	32836	
4839	0	32874	32612	
4840	0	32776	32732	
4841	0	32796	32810	
4842	0	32756	32759	
4843	0	32816	32807	
4844	0	32768	32620	
4845	0	32802	32654	
4846	0	32792	32516	
4847	0	32820	32714	
4848	0	32864	32690	
4849	0	32816	32519	
4850	0	32750	32716	
4851	0	32820	32828	
4852	0	32820	32678	
4853	0	32785	32836	
4854	0	32842	32634	
4855	0	32772	32710	
4856	0	32792	32770	
4857	0	32832	32872	
4858	0	32874	32935	
4859	0	32834	32744	
4860	0	32820	32700	
4861	0	32794	32586	
4862	0	32788	32802	
4863	0	32778	32676	
4864	0	32824	32668	
4865	0	32788	32775	
4866	0	32728	32775	
4867	0	32798	32984	
4868	0	32868	33057	
4869	0	32832	32902	
4870	0	32844	32882	
4871	0	32744	32615	
4872	0	32800	32736	
4873	0	32734	32672	
4874	0	32816	32712	
4875	0	32756	32789	
4876	0	32720	32804	
4877	0	32852	32855	
4878	0	32836	32674	
4879	0	32874	32799	
4880	0	32940	32698	
4881	0	32912	32772	
4882	0	32800	32790	
4883	0	32828	32736	
4884	0	32708	32798	
4885	0	32672	32786	
4886	0	32754	32842	
4887	0	32812	32666	
4888	0	32792	32734	
4889	0	32856	32730	
4890	0	32814	32820	
4891	0	32910	32823	
4892	0	32864	32906	
4893	0	32778	32902	
4894	0	32876	32668	
4895	0	32852	32686	
4896	0	32792	32508	
4897	0	32860	32682	
4898	0	32794	32756	
4899	0	32767	32884	
4900	0	32760	32943	
4901	0	32752	32764	
4902	0	32800	32740	
4903	0	32756	32674	
4904	0	32836	32718	
4905	0	32828	32714	
4906	0	32798	32695	
4907	0	32844	32792	
4908	0	32868	32820	
4909	0	32836	32745	
4910	0	32760	32759	
4911	0	32834	32754	
4912	0	32820	32817	
4913	0	32775	32740	
4914	0	32750	32739	
4915	0	32884	32830	
4916	0	32760	32775	
4917	0	32776	32644	
4918	0	32796	32784	
4919	0	32794	32744	
4920	0	32849	32748	
4921	0	32872	32775	
4922	0	32812	32872	
4923	0	32876	32764	
4924	0	32837	32752	
4925	0	32852	32788	
4926	0	32740	32800	
4927	0	32800	32834	
4928	0	32776	32719	
4929	0	32824	32832	
4930	0	32856	32881	
4931	0	32800	32736	
4932	0	32800	32756	
4933	0	32764	32806	
4934	0	32796	32775	
4935	0	32856	32759	
4936	0	32752	32596	
4937	0	32824	32720	
4938	0	32846	32792	
4939	0	32790	32772	
4940	0	32806	32756	
4941	0	32820	32790	
4942	0	32844	32843	
4943	0	32892	32764	
4944	0	32804	32679	
4945	0	32836	32805	
4946	0	32776	32744	
4947	0	32809	32788	
4948	0	32800	32775	
4949	0	32728	32738	
4950	0	32846	32793	
4951	0	32798	32682	
4952	0	32826	32700	
4953	0	32830	32826	
4954	0	32796	32884	
4955	0	32802	32871	
4956	0	32912	32904	
4957	0	32858	32886	
4958	0	32788	32743	
4959	0	32832	32734	
4960	0	32826	32871	
4961	0	32776	32877	
4962	0	32788	32774	
4963	0	32834	32730	
4964	0	32848	32738	
4965	0	32808	32660	
4966	0	32806	32646	
4967	0	32810	32660	
4968	0	32884	32686	
4969	0	32828	32810	
4970	0	32812	32634	
4971	0	32884	32837	
4972	0	32836	32824	
4973	0	32728	32854	
4974	0	32802	32818	
4975	0	32774	32692	
4976	0	32834	32834	
4977	0	32804	32854	
4978	0	32770	32684	
4979	0	32860	32716	
4980	0	32768	32782	
4981	0	32798	32908	
4982	0	32836	32944	
4983	0	32726	32791	
4984	0	32808	32920	
4985	0	32774	32696	
4986	0	32800	32692	
4987	0	32804	32734	
4988	0	32780	32584	
4989	0	32780	32660	
4990	0	32798	32774	
4991	0	32856	32734	
4992	0	32852	32614	
4993	0	32770	32745	
4994	0	32808	32744	
4995	0	32832	32757	
4996	0	32812	32838	
4997	0	32760	32878	
4998	0	32884	32720	
4999	0	32842	32826	
5000	0	32820	32868	
5001	0	32802	32740	
5002	0	32858	32700	
5003	0	32804	32820	
5004	0	32848	32731	
5005	0	32856	32679	
5006	0	32904	32663	
5007	0	32794	32839	
5008	0	32804	32724	
5009	0	32832	32772	
5010	0	32800	32874	
5011	0	32806	32650	
5012	0	32760	32830	
5013	0	32738	32868	
5014	0	32752	32656	
5015	0	32808	32903	
5016	0	32796	32636	
5017	0	32814	32679	
5018	0	32836	32722	
5019	0	32870	32769	
5020	0	32844	32775	
5021	0	32812	32767	
5022	0	32808	32832	
5023	0	32804	32706	
5024	0	32796	32892	
5025	0	32790	32812	
5026	0	32836	32707	
5027	0	32824	32818	
5028	0	32780	32730	
5029	0	32804	32641	
5030	0	32810	32620	
5031	0	32814	32727	
5032	0	32814	32759	
5033	0	32826	32678	
5034	0	32810	32826	
5035	0	32830	32854	
5036	0	32764	32828	
5037	0	32812	32775	
5038	0	32872	32824	
5039	0	32834	32860	
5040	0	32836	32760	
5041	0	32900	32784	
5042	0	32820	32634	
5043	0	32854	32706	
5044	0	32760	32734	
5045	0	32820	32684	
5046	0	32792	32838	
5047	0	32808	32816	
5048	0	32804	32743	
5049	0	32772	32836	
5050	0	32816	32855	
5051	0	32792	32686	
5052	0	32810	32772	
5053	0	32850	32812	
5054	0	32832	32711	
5055	0	32806	32895	
5056	0	32756	32806	
5057	0	32808	32707	
5058	0	32760	32878	
5059	0	32912	32916	
5060	0	32788	32688	
5061	0	32820	32824	
5062	0	32824	32824	
5063	0	32792	32660	
5064	0	32796	32748	
5065	0	32760	32823	
5066	0	32856	32727	
5067	0	32812	32727	
5068	0	32852	32852	
5069	0	32848	32615	
5070	0	32758	32790	
5071	0	32824	32766	
5072	0	32808	32660	
5073	0	32800	32820	
5074	0	32824	32804	
5075	0	32786	32655	
5076	0	32784	32798	
5077	0	32810	32814	
5078	0	32764	32784	
5079	0	32790	32784	
5080	0	32756	32872	
5081	0	32876	32784	
5082	0	32896	32775	
5083	0	32825	32750	
5084	0	32832	32770	
5085	0	32880	32767	
5086	0	32748	32775	
5087	0	32772	32674	
5088	0	32834	32775	
5089	0	32754	32726	
5090	0	32804	32676	
5091	0	32798	32775	
5092	0	32844	32828	
5093	0	32800	32711	
5094	0	32848	32788	
5095	0	32814	32753	
5096	0	32817	32903	
5097	0	32800	32831	
5098	0	32794	32678	
5099	0	32804	32860	
5100	0	32872	32759	
5101	0	32842	32586	
5102	0	32806	32762	
5103	0	32792	32775	
5104	0	32772	32647	
5105	0	32820	32862	
5106	0	32894	32775	
5107	0	32776	32710	
5108	0	32780	32942	
5109	0	32766	32830	
5110	0	32770	32800	
5111	0	32788	32895	
5112	0	32788	32737	
5113	0	32774	32716	
5114	0	32782	32724	
5115	0	32808	32700	
5116	0	32842	32618	
5117	0	32826	32860	
5118	0	32844	32852	
5119	0	32864	32740	
5120	0	32774	32788	
5121	0	32820	32772	
5122	0	32764	32637	
5123	0	32840	32775	
5124	0	32748	32839	
5125	0	32764	32644	
5126	0	32816	32804	
5127	0	32748	32798	
5128	0	32860	32722	
5129	0	32800	32738	
5130	0	32822	32712	
5131	0	32862	32714	
5132	0	32832	32718	
5133	0	32784	32705	
5134	0	32784	32894	
5135	0	32828	32871	
5136	0	32848	32727	
5137	0	32856	32844	
5138	0	32792	32812	
5139	0	32824	32704	
5140	0	32824	32788	
5141	0	32774	32802	
5142	0	32752	32768	
5143	0	32818	32858	
5144	0	32852	32834	
5145	0	32768	32902	
5146	0	32812	32752	
5147	0	32804	32686	
5148	0	32826	32706	
5149	0	32824	32591	
5150	0	32772	32748	
5151	0	32864	32704	
5152	0	32796	32775	
5153	0	32812	32806	
5154	0	32852	32624	
5155	0	32792	32768	
5156	0	32804	32774	
5157	0	32776	32759	
5158	0	32828	32718	
5159	0	32780	32848	
5160	0	32800	32705	
5161	0	32852	32696	
5162	0	32824	32772	
5163	0	32770	32860	
5164	0	32796	32760	
5165	0	32854	32772	
5166	0	32744	32812	
5167	0	32800	32818	
5168	0	32796	32766	
5169	0	32826	32766	
5170	0	32824	32775	
5171	0	32832	32775	
5172	0	32842	32764	
5173	0	32862	32848	
5174	0	32804	32704	
5175	0	32860	32710	
5176	0	32782	32659	
5177	0	32836	32775	
5178	0	32744	32841	
5179	0	32802	32748	
5180	0	32816	32808	
5181	0	32820	32662	
5182	0	32814	32708	
5183	0	32768	32692	
5184	0	32820	32680	
5185	0	32860	32753	
5186	0	32804	32734	
5187	0	32804	32775	
5188	0	32798	32720	
5189	0	32796	32727	
5190	0	32842	32743	
5191	0	32824	32740	
5192	0	32776	32814	
5193	0	32808	32946	
5194	0	32852	32918	
5195	0	32788	32862	
5196	0	32732	32798	
5197	0	32810	32748	
5198	0	32828	32608	
5199	0	32850	32671	
5200	0	32778	32710	
5201	0	32878	32716	
5202	0	32808	32760	
5203	0	32852	32774	
5204	0	32856	32696	
5205	0	32801	32738	
5206	0	32856	32654	
5207	0	32800	32756	
5208	0	32812	32790	
5209	0	32844	32877	
5210	0	32796	32832	
5211	0	32780	32884	
5212	0	32836	32790	
5213	0	32780	32820	
5214	0	32912	32816	
5215	0	32796	32816	
5216	0	32792	32792	
5217	0	32840	32700	
5218	0	32780	32676	
5219	0	32840	32704	
5220	0	32848	32600	
5221	0	32840	32775	
5222	0	32716	32815	
5223	0	32824	32824	
5224	0	32804	32743	
5225	0	32778	32886	
5226	0	32770	32775	
5227	0	32816	32770	
5228	0	32856	32671	
5229	0	32826	32716	
5230	0	32856	32640	
5231	0	32800	32754	
5232	0	32778	32672	
5233	0	32740	32704	
5234	0	32798	32823	
5235	0	32748	32796	
5236	0	32772	32816	
5237	0	32836	32746	
5238	0	32800	32740	
5239	0	32816	32775	
5240	0	32804	32790	
5241	0	32792	32863	
5242	0	32814	32805	
5243	0	32806	32830	
5244	0	32814	32726	
5245	0	32834	32735	
5246	0	32824	32846	
5247	0	32780	32726	
5248	0	32800	32696	
5249	0	32752	32743	
5250	0	32856	32784	
5251	0	32838	32674	
5252	0	32760	32847	
5253	0	32832	32724	
5254	0	32796	32784	
5255	0	32820	32775	
5256	0	32824	32698	
5257	0	32872	32838	
5258	0	32900	32764	
5259	0	32818	32650	
5260	0	32868	32839	
5261	0	32784	32922	
5262	0	32808	32775	
5263	0	32860	32802	
5264	0	32780	32734	
5265	0	32804	32817	
5266	0	32828	32772	
5267	0	32736	32706	
5268	0	32780	32792	
5269	0	32746	32742	
5270	0	32752	32730	
5271	0	32776	32816	
5272	0	32748	32844	
5273	0	32724	32775	
5274	0	32772	32750	
5275	0	32808	32775	
5276	0	32840	32684	
5277	0	32810	32792	
5278	0	32774	32774	
5279	0	32802	32660	
5280	0	32804	32842	
5281	0	32844	32882	
5282	0	32856	32710	
5283	0	32826	32775	
5284	0	32856	32808	
5285	0	32848	32752	
5286	0	32840	32822	
5287	0	32816	32894	
5288	0	32814	32692	
5289	0	32820	32771	
5290	0	32754	32756	
5291	0	32756	32758	
5292	0	32868	32868	
5293	0	32876	32888	
5294	0	32868	32916	
5295	0	32868	32890	
5296	0	32844	32748	
5297	0	32780	32791	
5298	0	32862	32848	
5299	0	32854	32762	
5300	0	32858	32826	
5301	0	32870	32772	
5302	0	32822	32925	
5303	0	32842	32880	
5304	0	32852	32879	
5305	0	32904	33004	
5306	0	32772	33020	
5307	0	32872	32839	
5308	0	32824	32894	
5309	0	32872	32672	
5310	0	32840	32602	
5311	0	32750	32615	
5312	0	32654	32572	
5313	0	32600	32609	
5314	0	32716	32398	
5315	0	32608	32318	
5316	0	32602	32340	
5317	0	32572	32420	
5318	0	32616	32430	
5319	0	32828	32703	
5320	0	32806	32652	
5321	0	32868	32784	
5322	0	32766	32864	
5323	0	32880	32743	
5324	0	32869	32927	
5325	0	32860	32799	
5326	0	32834	32775	
5327	0	32852	32738	
5328	0	32806	32868	
5329	0	32914	32871	
5330	0	32832	33089	
5331	0	32876	32999	
5332	0	32860	32890	
5333	0	32862	32980	
5334	0	32846	32775	
5335	0	32868	32692	
5336	0	32912	32742	
5337	0	32860	32743	
5338	0	32858	32788	
5339	0	32860	32756	
5340	0	32890	32985	
5341	0	32890	32868	
5342	0	32840	32928	
5343	0	32808	32884	
5344	0	32778	32826	
5345	0	32780	32802	
5346	0	32796	32912	
5347	0	32808	32736	
5348	0	32740	32775	
5349	0	32740	32660	
5350	0	32834	32760	
5351	0	32730	32684	
5352	0	32760	32775	
5353	0	32816	32812	
5354	0	32846	32752	
5355	0	32804	32760	
5356	0	32792	32694	
5357	0	32792	32688	
5358	0	32762	32720	
5359	0	32838	32839	
5360	0	32804	32823	
5361	0	32836	32702	
5362	0	32732	32843	
5363	0	32784	32846	
5364	0	32872	32670	
5365	0	32864	32727	
5366	0	32804	32682	
5367	0	32800	32806	
5368	0	32874	32860	
5369	0	32888	32908	
5370	0	32868	32807	
5371	0	32748	32668	
5372	0	32772	32750	
5373	0	32800	32738	
5374	0	32732	32840	
5375	0	32752	32775	
5376	0	32816	32834	
5377	0	32828	32838	
5378	0	32800	32647	
5379	0	32800	32798	
5380	0	32740	32674	
5381	0	32838	32758	
5382	0	32794	32772	
5383	0	32788	32872	
5384	0	32808	32774	
5385	0	32828	32718	
5386	0	32742	32774	
5387	0	32850	32798	
5388	0	32888	32743	
5389	0	32844	32775	
5390	0	32840	32708	
5391	0	32828	32814	
5392	0	32860	32762	
5393	0	32792	32690	
5394	0	32892	32829	
5395	0	32856	32743	
5396	0	32821	32888	
5397	0	32840	32730	
5398	0	32816	32790	
5399	0	32796	32691	
5400	0	32784	32830	
5401	0	32706	32756	
5402	0	32772	32653	
5403	0	32842	32719	
5404	0	32868	32754	
5405	0	32826	32754	
5406	0	32874	32692	
5407	0	32828	32736	
5408	0	32832	32744	
5409	0	32824	32772	
5410	0	32768	32775	
5411	0	32836	32804	
5412	0	32772	32839	
5413	0	32826	32730	
5414	0	32695	32846	
5415	0	32748	32865	
5416	0	32738	32639	
5417	0	32844	32678	
5418	0	32850	32660	
5419	0	32768	32726	
5420	0	32728	32816	
5421	0	32800	32852	
5422	0	32688	32798	
5423	0	32812	32774	
5424	0	32846	32710	
5425	0	32836	32716	
5426	0	32836	32623	
5427	0	32840	32718	
5428	0	32766	32660	
5429	0	32854	32754	
5430	0	32840	32692	
5431	0	32848	32792	
5432	0	32792	32712	
5433	0	32834	32818	
5434	0	32770	32748	
5435	0	32788	32820	
5436	0	32960	32766	
5437	0	32814	32807	
5438	0	32864	32878	
5439	0	32834	32755	
5440	0	32826	32788	
5441	0	32792	32671	
5442	0	32796	32794	
5443	0	32792	32744	
5444	0	32754	32852	
5445	0	32804	32854	
5446	0	32816	32836	
5447	0	32832	32863	
5448	0	32808	32740	
5449	0	32866	32766	
5450	0	32780	32668	
5451	0	32850	32820	
5452	0	32808	32840	
5453	0	32824	32768	
5454	0	32836	32839	
5455	0	32736	32687	
5456	0	32742	32744	
5457	0	32692	32660	
5458	0	32828	32810	
5459	0	32841	32800	
5460	0	32846	32673	
5461	0	32836	32775	
5462	0	32836	32824	
5463	0	32744	32679	
5464	0	32828	32727	
5465	0	32772	32604	
5466	0	32892	32775	
5467	0	32792	32775	
5468	0	32824	32644	
5469	0	32848	32759	
5470	0	32780	32790	
5471	0	32792	32770	
5472	0	32868	32726	
5473	0	32848	32871	
5474	0	32818	32742	
5475	0	32740	32710	
5476	0	32844	32775	
5477	0	32794	32846	
5478	0	32784	32900	
5479	0	32792	32818	
5480	0	32820	32714	
5481	0	32774	32824	
5482	0	32792	32734	
5483	0	32872	32754	
5484	0	32860	32711	
5485	0	32800	32758	
5486	0	32836	32750	
5487	0	32866	32821	
5488	0	32860	32810	
5489	0	32784	32748	
5490	0	32832	32760	
5491	0	32824	32700	
5492	0	32816	32832	
5493	0	32736	32702	
5494	0	32784	32754	
5495	0	32824	32608	
5496	0	32768	32736	
5497	0	32820	32623	
5498	0	32758	32820	
5499	0	32812	32886	
5500	0	32798	32724	
5501	0	32910	32766	
5502	0	32826	32721	
5503	0	32848	32810	
5504	0	32782	32774	
5505	0	32812	32831	
5506	0	32960	32644	
5507	0	32780	32686	
5508	0	32848	32606	
5509	0	32896	32682	
5510	0	32820	32676	
5511	0	32868	32708	
5512	0	32744	32660	
5513	0	32778	32764	
5514	0	32808	32792	
5515	0	32752	32774	
5516	0	32765	32930	
5517	0	32780	32890	
5518	0	32760	32858	
5519	0	32786	32760	
5520	0	32788	32735	
5521	0	32808	32578	
5522	0	32824	32706	
5523	0	32812	32756	
5524	0	32864	32764	
5525	0	32896	32728	
5526	0	32864	32868	
5527	0	32822	32748	
5528	0	32768	32887	
5529	0	32786	32800	
5530	0	32774	32822	
5531	0	32796	32752	
5532	0	32796	32764	
5533	0	32792	32775	
5534	0	32814	32710	
5535	0	32852	32775	
5536	0	32708	32673	
5537	0	32720	32849	
5538	0	32784	32856	
5539	0	32750	32775	
5540	0	32764	32794	
5541	0	32848	32727	
5542	0	32808	32842	
5543	0	32806	32770	
5544	0	32794	32834	
5545	0	32804	32809	
5546	0	32892	32704	
5547	0	32832	32846	
5548	0	32860	32832	
5549	0	32804	32796	
5550	0	32860	32676	
5551	0	32780	32738	
5552	0	32748	32718	
5553	0	32768	32775	
5554	0	32842	32692	
5555	0	32796	32743	
5556	0	32836	32682	
5557	0	32718	32791	
5558	0	32768	32703	
5559	0	32826	32814	
5560	0	32820	32711	
5561	0	32792	32800	
5562	0	32864	32647	
5563	0	32804	32775	
5564	0	32888	32655	
5565	0	32872	32775	
5566	0	32810	32679	
5567	0	32788	32764	
5568	0	32840	32718	
5569	0	32872	32694	
5570	0	32836	32703	
5571	0	32782	32730	
5572	0	32774	32766	
5573	0	32786	32844	
5574	0	32794	32802	
5575	0	32836	32848	
5576	0	32760	32842	
5577	0	32728	32684	
5578	0	32854	32772	
5579	0	32760	32810	
5580	0	32816	32808	
5581	0	32800	32746	
5582	0	32740	32736	
5583	0	32880	32678	
5584	0	32814	32826	
5585	0	32834	32660	
5586	0	32880	32786	
5587	0	32872	32680	
5588	0	32864	32775	
5589	0	32900	32839	
5590	0	32810	32772	
5591	0	32778	32718	
5592	0	32790	32736	
5593	0	32840	32708	
5594	0	32796	32855	
5595	0	32744	32871	
5596	0	32780	32678	
5597	0	32764	32744	
5598	0	32732	32628	
5599	0	32808	32864	
5600	0	32760	32727	
5601	0	32906	32820	
5602	0	32870	32736	
5603	0	32820	32900	
5604	0	32800	32791	
5605	0	32854	32688	
5606	0	32824	32846	
5607	0	32792	32714	
5608	0	32846	32747	
5609	0	32844	32680	
5610	0	32848	32742	
5611	0	32786	32696	
5612	0	32788	32700	
5613	0	32736	32754	
5614	0	32820	32934	
5615	0	32756	32811	
5616	0	32788	32834	
5617	0	32828	32844	
5618	0	32746	32682	
5619	0	32780	32722	
5620	0	32838	32704	
5621	0	32812	32743	
5622	0	32748	32647	
5623	0	32812	32788	
5624	0	32792	32728	
5625	0	32844	32812	
5626	0	32856	32740	
5627	0	32796	32817	
5628	0	32792	32820	
5629	0	32824	32725	
5630	0	32804	32774	
5631	0	32804	32760	
5632	0	32812	32764	
5633	0	32848	32679	
5634	0	32768	32816	
5635	0	32822	32722	
5636	0	32752	32775	
5637	0	32762	32775	
5638	0	32752	32790	
5639	0	32820	32838	
5640	0	32896	32904	
5641	0	32884	32860	
5642	0	32870	32744	
5643	0	32804	32764	
5644	0	32860	32688	
5645	0	32910	32724	
5646	0	32846	32640	
5647	0	32828	32756	
5648	0	32812	32722	
5649	0	32872	32928	
5650	0	32828	32838	
5651	0	32892	32729	
5652	0	32782	32772	
5653	0	32808	32746	
5654	0	32804	32808	
5655	0	32744	32748	
5656	0	32766	32814	
5657	0	32804	32740	
5658	0	32794	32878	
5659	0	32764	32818	
5660	0	32874	32912	
5661	0	32832	32766	
5662	0	32790	32856	
5663	0	32864	32964	
5664	0	32828	32802	
5665	0	32828	32742	
5666	0	32916	32736	
5667	0	32796	32706	
5668	0	32812	32815	
5669	0	32804	32646	
5670	0	32826	32774	
5671	0	32808	32647	
5672	0	32804	32802	
5673	0	32836	32664	
5674	0	32806	32806	
5675	0	32864	32748	
5676	0	32736	32820	
5677	0	32840	32828	
5678	0	32788	32843	
5679	0	32850	32794	
5680	0	32768	32727	
5681	0	32840	32802	
5682	0	32800	32775	
5683	0	32822	32758	
5684	0	32850	32646	
5685	0	32820	32775	
5686	0	32820	32775	
5687	0	32836	32743	
5688	0	32756	32800	
5689	0	32852	32732	
5690	0	32831	32842	
5691	0	32854	32734	
5692	0	32832	32775	
5693	0	32726	32748	
5694	0	32830	32876	
5695	0	32756	32834	
5696	0	32770	32670	
5697	0	32776	32775	
5698	0	32772	32714	
5699	0	32828	32712	
5700	0	32808	32652	
5701	0	32840	32722	
5702	0	32780	32775	
5703	0	32858	32740	
5704	0	32846	32732	
5705	0	32868	32832	
5706	0	32884	32718	
5707	0	32856	32740	
5708	0	32840	32815	
5709	0	32742	32806	
5710	0	32720	32840	
5711	0	32840	32793	
5712	0	32772	32770	
5713	0	32832	32854	
5714	0	32802	32718	
5715	0	32762	32722	
5716	0	32812	32674	
5717	0	32808	32806	
5718	0	32832	32774	
5719	0	32812	32802	
5720	0	32760	32712	
5721	0	32810	32716	
5722	0	32844	32756	
5723	0	32850	32750	
5724	0	32834	32746	
5725	0	32796	32790	
5726	0	32744	32903	
5727	0	32762	32790	
5728	0	32880	32849	
5729	0	32816	32952	
5730	0	32836	32888	
5731	0	32864	32840	
5732	0	32782	32766	
5733	0	32792	32846	
5734	0	32780	32727	
5735	0	32822	32774	
5736	0	32864	32679	
5737	0	32786	32700	
5738	0	32796	32674	
5739	0	32804	32724	
5740	0	32840	32679	
5741	0	32778	32745	
5742	0	32856	32654	
5743	0	32847	32786	
5744	0	32840	32708	
5745	0	32800	32798	
5746	0	32860	32808	
5747	0	32872	32895	
5748	0	32828	32860	
5749	0	32784	32912	
5750	0	32852	32820	
5751	0	32750	32816	
5752	0	32844	32794	
5753	0	32802	32668	
5754	0	32790	32770	
5755	0	32806	32676	
5756	0	32808	32753	
5757	0	32748	32644	
5758	0	32746	32806	
5759	0	32784	32674	
5760	0	32808	32748	
5761	0	32780	32638	
5762	0	32860	32696	
5763	0	32832	32708	
5764	0	32812	32789	
5765	0	32808	32710	
5766	0	32792	32795	
5767	0	32824	32638	
5768	0	32810	32802	
5769	0	32790	32688	
5770	0	32828	32790	
5771	0	32832	32775	
5772	0	32808	32805	
5773	0	32816	32771	
5774	0	32832	32842	
5775	0	32832	32804	
5776	0	32774	32728	
5777	0	32748	32796	
5778	0	32754	32697	
5779	0	32856	32846	
5780	0	32766	32866	
5781	0	32832	32752	
5782	0	32812	32838	
5783	0	32816	32766	
5784	0	32908	32769	
5785	0	32844	32732	
5786	0	32722	32788	
5787	0	32870	32794	
5788	0	32876	32858	
5789	0	32868	32742	
5790	0	32844	32738	
5791	0	32832	32688	
5792	0	32778	32721	
5793	0	32776	32619	
5794	0	32832	32748	
5795	0	32824	32725	
5796	0	32788	32764	
5797	0	32768	32743	
5798	0	32784	32772	
5799	0	32884	32711	
5800	0	32820	32756	
5801	0	32722	32680	
5802	0	32808	32768	
5803	0	32816	32652	
5804	0	32780	32756	
5805	0	32850	32762	
5806	0	32800	32791	
5807	0	32900	32728	
5808	0	32800	32744	
5809	0	32778	32726	
5810	0	32808	32735	
5811	0	32854	32650	
5812	0	32768	32727	
5813	0	32866	32804	
5814	0	32816	32844	
5815	0	32776	32719	
5816	0	32868	32817	
5817	0	32826	32724	
5818	0	32836	32775	
5819	0	32856	32764	
5820	0	32796	32775	
5821	0	32820	32748	
5822	0	32914	32695	
5823	0	32884	32743	
5824	0	32804	32666	
5825	0	32898	32729	
5826	0	32824	32684	
5827	0	32832	32808	
5828	0	32804	32884	
5829	0	32856	32756	
5830	0	32784	32910	
5831	0	32870	32690	
5832	0	32742	32775	
5833	0	32774	32750	
5834	0	32780	32724	
5835	0	32824	32704	
5836	0	32772	32792	
5837	0	32792	32886	
5838	0	32768	32878	
5839	0	32712	32819	
5840	0	32800	32691	
5841	0	32810	32788	
5842	0	32890	32716	
5843	0	32908	32814	
5844	0	32804	32772	
5845	0	32868	32806	
5846	0	32776	32784	
5847	0	32792	32870	
5848	0	32842	32793	
5849	0	32853	32742	
5850	0	32760	32747	
5851	0	32808	32612	
5852	0	32840	32775	
5853	0	32752	32718	
5854	0	32792	32788	
5855	0	32896	32716	
5856	0	32748	32858	
5857	0	32792	32839	
5858	0	32736	32636	
5859	0	32834	32720	
5860	0	32796	32644	
5861	0	32832	32742	
5862	0	32792	32815	
5863	0	32926	32812	
5864	0	32872	32774	
5865	0	32892	32722	
5866	0	32800	32773	
5867	0	32832	32724	
5868	0	32790	32812	
5869	0	32828	32870	
5870	0	32752	32668	
5871	0	32788	32709	
5872	0	32794	32719	
5873	0	32804	32764	
5874	0	32868	32839	
5875	0	32839	32856	
5876	0	32788	32775	
5877	0	32824	32808	
5878	0	32788	32868	
5879	0	32810	32692	
5880	0	32893	32743	
5881	0	32870	32742	
5882	0	32836	32772	
5883	0	32772	32866	
5884	0	32828	32804	
5885	0	32820	32822	
5886	0	32830	32686	
5887	0	32794	32775	
5888	0	32824	32730	
5889	0	32768	32860	
5890	0	32798	32752	
5891	0	32852	32696	
5892	0	32792	32762	
5893	0	32840	32798	
5894	0	32824	32704	
5895	0	32842	32759	
5896	0	32780	32708	
5897	0	32820	32812	
5898	0	32720	32934	
5899	0	32768	32722	
5900	0	32846	32770	
5901	0	32846	32710	
5902	0	32814	32815	
5903	0	32878	32775	
5904	0	32862	32775	
5905	0	32846	32756	
5906	0	32768	32758	
5907	0	32840	32788	
5908	0	32796	32735	
5909	0	32780	32711	
5910	0	32840	32759	
5911	0	32808	32768	
5912	0	32840	32836	
5913	0	32826	32657	
5914	0	32790	32658	
5915	0	32786	32774	
5916	0	32736	32834	
5917	0	32832	32636	
5918	0	32780	32759	
5919	0	32822	32823	
5920	0	32764	32952	
5921	0	32837	32838	
5922	0	32920	32760	
5923	0	32788	32808	
5924	0	32736	32700	
5925	0	32836	32810	
5926	0	32870	32784	
5927	0	32808	32654	
5928	0	32824	32754	
5929	0	32856	32684	
5930	0	32888	32722	
5931	0	32790	32680	
5932	0	32804	32834	
5933	0	32798	32798	
5934	0	32816	32828	
5935	0	32727	32806	
5936	0	32800	32666	
5937	0	32828	32743	
5938	0	32794	32662	
5939	0	32804	32740	
5940	0	32772	32775	
5941	0	32900	32919	
5942	0	32848	32986	
5943	0	32832	32788	
5944	0	32852	32748	
5945	0	32848	32657	
5946	0	32826	32800	
5947	0	32794	32760	
5948	0	32800	32836	
5949	0	32898	32908	
5950	0	32876	32942	
5951	0	32881	32884	
5952	0	32812	32675	
5953	0	32872	32718	
5954	0	32836	32586	
5955	0	32884	32844	
5956	0	32862	32874	
5957	0	32872	32930	
5958	0	32842	32880	
5959	0	32866	32827	
5960	0	32898	32956	
5961	0	32864	32775	
5962	0	32848	32759	
5963	0	32876	32720	
5964	0	32760	32760	
5965	0	32736	32602	
5966	0	32624	32592	
5967	0	32652	32519	
5968	0	32554	32462	
5969	0	32580	32416	
5970	0	32588	32312	
5971	0	32640	32442	
5972	0	32758	32496	
5973	0	32750	32674	
5974	0	32788	32865	
5975	0	32766	32893	
5976	0	32896	32826	
5977	0	32784	32884	
5978	0	32866	32798	
5979	0	32872	32770	
5980	0	32880	32927	
5981	0	32868	32788	
5982	0	32864	32888	
5983	0	32900	32871	
5984	0	32964	32852	
5985	0	32898	32900	
5986	0	32968	32711	
5987	0	32930	32826	
5988	0	32870	32751	
5989	0	32882	32898	
5990	0	32876	32848	
5991	0	32872	32937	
5992	0	32836	32852	
5993	0	32844	32678	
5994	0	32748	32756	
5995	0	32812	32764	
5996	0	32752	32652	
5997	0	32792	32872	
5998	0	32776	32846	
5999	0	32848	32722	
6000	0	32740	32732	
6001	0	32836	32862	
6002	0	32840	32810	
6003	0	32780	32890	
6004	0	32840	32746	
6005	0	32798	32700	
6006	0	32836	32742	
6007	0	32869	32756	
6008	0	32798	32724	
6009	0	32792	32771	
6010	0	32808	32795	
6011	0	32772	32726	
6012	0	32768	32652	
