# OpenSignals Text File Format. Version 1
# {"00:07:80:8C:0A:39": {"position": 0, "device": "biosignalsplux", "device name": "00:07:80:8C:0A:39", "device connection": "BTH00:07:80:8C:0A:39", "sampling rate": 1000, "resolution": [16, 16], "firmware version": 776, "comments": "", "keywords": "", "mode": 0, "sync interval": 2, "date": "2023-3-16", "time": "13:34:29.140", "channels": [1, 2], "sensor": ["EMG", "EMG"], "label": ["CH1", "CH2"], "column": ["nSeq", "DI", "CH1", "CH2"], "special": [{"SpO2": [80, 40, 5, 4, 3, 3]}, {"SpO2": [80, 40, 5, 4, 3, 3]}, {"SpO2": [80, 40, 5, 4, 3, 3]}, {"SpO2": [80, 40, 5, 4, 3, 3]}, {"SpO2": [80, 40, 5, 4, 3, 3]}, {"SpO2": [80, 40, 5, 4, 3, 3]}, {"SpO2": [80, 40, 5, 4, 3, 3]}, {"SpO2": [80, 40, 5, 4, 3, 3]}], "digital IO": [0, 1], "sleeve color": ["gray", "yellow"], "convertedValues": 0}}
# EndOfHeader
0	0	32792	32702	
1	0	32868	32799	
2	0	32824	32796	
3	0	32808	32822	
4	0	32770	32750	
5	0	32772	32766	
6	0	32828	32774	
7	0	32846	32750	
8	0	32778	32814	
9	0	32800	32628	
10	0	32814	32732	
11	0	32824	32834	
12	0	32888	32746	
13	0	32738	32831	
14	0	32800	32775	
15	0	32832	32694	
16	0	32858	32842	
17	0	32840	32708	
18	0	32796	32831	
19	0	32868	32759	
20	0	32836	32690	
21	0	32824	32802	
22	0	32862	32839	
23	0	32738	32838	
24	0	32760	32798	
25	0	32792	32734	
26	0	32744	32674	
27	0	32762	32788	
28	0	32878	32856	
29	0	32824	32702	
30	0	32812	32719	
31	0	32814	32702	
32	0	32816	32750	
33	0	32826	32762	
34	0	32828	32775	
35	0	32800	32696	
36	0	32786	32725	
37	0	32782	32772	
38	0	32846	32834	
39	0	32824	32727	
40	0	32764	32666	
41	0	32864	32871	
42	0	32846	32852	
43	0	32792	32818	
44	0	32794	32870	
45	0	32796	32860	
46	0	32808	32738	
47	0	32784	32724	
48	0	32776	32831	
49	0	32870	32738	
50	0	32796	32756	
51	0	32804	32742	
52	0	32832	32736	
53	0	32792	32816	
54	0	32844	32839	
55	0	32818	32756	
56	0	32790	32754	
57	0	32852	32808	
58	0	32828	32754	
59	0	32828	32756	
60	0	32836	32770	
61	0	32820	32766	
62	0	32836	32646	
63	0	32812	32711	
64	0	32792	32816	
65	0	32788	32774	
66	0	32776	32730	
67	0	32850	32726	
68	0	32820	32804	
69	0	32820	32844	
70	0	32808	32798	
71	0	32812	32646	
72	0	32860	32767	
73	0	32854	32742	
74	0	32824	32775	
75	0	32776	32664	
76	0	32860	32842	
77	0	32832	32764	
78	0	32772	32758	
79	0	32840	32679	
80	0	32800	32736	
81	0	32828	32876	
82	0	32748	32775	
83	0	32724	32804	
84	0	32788	32775	
85	0	32852	32698	
86	0	32766	32824	
87	0	32782	32834	
88	0	32792	32798	
89	0	32804	32772	
90	0	32814	32746	
91	0	32820	32710	
92	0	32784	32772	
93	0	32864	32775	
94	0	32828	32858	
95	0	32840	32860	
96	0	32864	32724	
97	0	32832	32711	
98	0	32826	32766	
99	0	32848	32866	
100	0	32824	32756	
101	0	32820	32730	
102	0	32848	32814	
103	0	32864	32754	
104	0	32804	32854	
105	0	32820	32728	
106	0	32696	32650	
107	0	32764	32718	
108	0	32772	32817	
109	0	32800	32764	
110	0	32850	32716	
111	0	32772	32816	
112	0	32804	32684	
113	0	32892	32662	
114	0	32866	32844	
115	0	32760	32842	
116	0	32810	32880	
117	0	32784	32742	
118	0	32800	32710	
119	0	32780	32687	
120	0	32734	32744	
121	0	32840	32852	
122	0	32768	32724	
123	0	32768	32750	
124	0	32804	32702	
125	0	32828	32823	
126	0	32860	32720	
127	0	32800	32884	
128	0	32796	32762	
129	0	32830	32702	
130	0	32792	32810	
131	0	32798	32688	
132	0	32820	32748	
133	0	32782	32702	
134	0	32812	32844	
135	0	32898	32838	
136	0	32748	32758	
137	0	32810	32783	
138	0	32862	32796	
139	0	32844	32792	
140	0	32872	32740	
141	0	32848	32754	
142	0	32782	32647	
143	0	32814	32842	
144	0	32756	32738	
145	0	32844	32848	
146	0	32872	32748	
147	0	32820	32794	
148	0	32824	32672	
149	0	32846	32698	
150	0	32812	32708	
151	0	32832	32775	
152	0	32868	32780	
153	0	32776	32717	
154	0	32810	32840	
155	0	32806	32748	
156	0	32852	32836	
157	0	32780	32774	
158	0	32808	32842	
159	0	32794	32830	
160	0	32808	32770	
161	0	32772	32738	
162	0	32794	32802	
163	0	32853	32806	
164	0	32786	32783	
165	0	32820	32724	
166	0	32844	32702	
167	0	32800	32775	
168	0	32820	32796	
169	0	32778	32838	
170	0	32880	32714	
171	0	32772	32838	
172	0	32738	32684	
173	0	32780	32838	
174	0	32868	32708	
175	0	32792	32711	
176	0	32860	32768	
177	0	32856	32812	
178	0	32826	32718	
179	0	32824	32828	
180	0	32784	32677	
181	0	32776	32822	
182	0	32802	32796	
183	0	32746	32690	
184	0	32780	32846	
185	0	32764	32868	
186	0	32880	32773	
187	0	32852	32775	
188	0	32832	32732	
189	0	32808	32826	
190	0	32800	32759	
191	0	32876	32734	
192	0	32804	32788	
193	0	32800	32830	
194	0	32786	32708	
195	0	32836	32844	
196	0	32779	32743	
197	0	32784	32764	
198	0	32836	32738	
199	0	32830	32796	
200	0	32758	32834	
201	0	32888	32710	
202	0	32796	32844	
203	0	32728	32775	
204	0	32776	32802	
205	0	32844	32764	
206	0	32836	32632	
207	0	32818	32737	
208	0	32796	32820	
209	0	32820	32690	
210	0	32776	32780	
211	0	32800	32700	
212	0	32798	32807	
213	0	32816	32702	
214	0	32778	32850	
215	0	32888	32852	
216	0	32834	32775	
217	0	32750	32698	
218	0	32802	32762	
219	0	32768	32663	
220	0	32880	32788	
221	0	32870	32838	
222	0	32796	32702	
223	0	32840	32870	
224	0	32770	32742	
225	0	32826	32756	
226	0	32868	32657	
227	0	32774	32775	
228	0	32864	32820	
229	0	32868	32769	
230	0	32844	32718	
231	0	32698	32844	
232	0	32832	32846	
233	0	32820	32751	
234	0	32752	32762	
235	0	32782	32666	
236	0	32794	32708	
237	0	32744	32760	
238	0	32792	32820	
239	0	32872	32748	
240	0	32814	32754	
241	0	32808	32800	
242	0	32816	32844	
243	0	32810	32720	
244	0	32902	32716	
245	0	32775	32775	
246	0	32824	32774	
247	0	32824	32704	
248	0	32782	32820	
249	0	32780	32762	
250	0	32880	32788	
251	0	32840	32644	
252	0	32810	32734	
253	0	32800	32775	
254	0	32852	32839	
255	0	32862	32756	
256	0	32853	32768	
257	0	32784	32775	
258	0	32792	32810	
259	0	32788	32770	
260	0	32824	32814	
261	0	32868	32775	
262	0	32860	32730	
263	0	32760	32720	
264	0	32838	32820	
265	0	32740	32686	
266	0	32746	32790	
267	0	32760	32844	
268	0	32740	32718	
269	0	32844	32742	
270	0	32826	32790	
271	0	32814	32692	
272	0	32768	32726	
273	0	32820	32802	
274	0	32794	32734	
275	0	32780	32852	
276	0	32798	32822	
277	0	32896	32770	
278	0	32866	32792	
279	0	32804	32833	
280	0	32870	32696	
281	0	32944	32752	
282	0	32892	32724	
283	0	32907	32540	
284	0	32894	32634	
285	0	32848	32636	
286	0	32838	32412	
287	0	32872	32534	
288	0	32916	32566	
289	0	32852	32582	
290	0	32736	32532	
291	0	32846	32391	
292	0	32878	32592	
293	0	32876	32592	
294	0	32800	32544	
295	0	32846	32561	
296	0	32792	32472	
297	0	32874	32668	
298	0	32724	32839	
299	0	32732	32888	
300	0	32744	33012	
301	0	32720	33044	
302	0	32680	33271	
303	0	32688	33361	
304	0	32606	33440	
305	0	32574	33511	
306	0	32580	33478	
307	0	32508	33456	
308	0	32565	33646	
309	0	32644	33456	
310	0	32676	33452	
311	0	32648	33200	
312	0	32748	33028	
313	0	32804	32888	
314	0	32816	32775	
315	0	32880	32494	
316	0	32832	32478	
317	0	32824	32478	
318	0	32916	32404	
319	0	32906	32395	
320	0	32880	32336	
321	0	32932	32382	
322	0	32936	32391	
323	0	32920	32454	
324	0	32858	32391	
325	0	32880	32438	
326	0	32842	32564	
327	0	32894	32582	
328	0	32808	32679	
329	0	32866	32583	
330	0	32908	32710	
331	0	32902	32775	
332	0	32924	32716	
333	0	32850	32775	
334	0	32944	32692	
335	0	32916	32762	
336	0	32874	32784	
337	0	32856	32834	
338	0	32816	32720	
339	0	32836	32798	
340	0	32834	32852	
341	0	32792	32830	
342	0	32868	32844	
343	0	32826	32806	
344	0	32746	32718	
345	0	32848	32721	
346	0	32764	32814	
347	0	32842	32843	
348	0	32784	32756	
349	0	32789	32722	
350	0	32756	32791	
351	0	32752	32887	
352	0	32834	32718	
353	0	32758	32626	
354	0	32752	32862	
355	0	32790	32775	
356	0	32784	32684	
357	0	32792	32878	
358	0	32748	32870	
359	0	32788	32616	
360	0	32752	32768	
361	0	32818	32743	
362	0	32852	32844	
363	0	32768	32748	
364	0	32754	32640	
365	0	32810	32732	
366	0	32864	32766	
367	0	32864	32730	
368	0	32768	32756	
369	0	32816	32854	
370	0	32794	32687	
371	0	32830	32710	
372	0	32748	32824	
373	0	32824	32756	
374	0	32792	32888	
375	0	32789	32764	
376	0	32872	32788	
377	0	32844	32808	
378	0	32796	32679	
379	0	32836	32820	
380	0	32818	32746	
381	0	32808	32752	
382	0	32856	32788	
383	0	32824	32775	
384	0	32780	32752	
385	0	32848	32868	
386	0	32870	32682	
387	0	32810	32743	
388	0	32824	32804	
389	0	32812	32810	
390	0	32804	32698	
391	0	32772	32660	
392	0	32738	32775	
393	0	32792	32774	
394	0	32832	32758	
395	0	32774	32878	
396	0	32858	32728	
397	0	32856	32808	
398	0	32816	32720	
399	0	32784	32743	
400	0	32844	32724	
401	0	32834	32740	
402	0	32788	32822	
403	0	32816	32762	
404	0	32834	32774	
405	0	32834	32734	
406	0	32826	32678	
407	0	32792	32746	
408	0	32792	32766	
409	0	32816	32637	
410	0	32876	32775	
411	0	32830	32759	
412	0	32842	32832	
413	0	32870	32622	
414	0	32776	32806	
415	0	32836	32844	
416	0	32752	32808	
417	0	32816	32711	
418	0	32800	32810	
419	0	32822	32746	
420	0	32852	32870	
421	0	32816	32738	
422	0	32824	32796	
423	0	32780	32804	
424	0	32794	32732	
425	0	32865	32824	
426	0	32814	32702	
427	0	32808	32748	
428	0	32868	32770	
429	0	32832	32831	
430	0	32806	32684	
431	0	32888	32756	
432	0	32800	32794	
433	0	32828	32764	
434	0	32816	32700	
435	0	32812	32714	
436	0	32748	32802	
437	0	32832	32807	
438	0	32742	32775	
439	0	32832	32750	
440	0	32946	32775	
441	0	32817	32782	
442	0	32842	32775	
443	0	32828	32726	
444	0	32782	32736	
445	0	32770	32775	
446	0	32836	32788	
447	0	32798	32742	
448	0	32860	32758	
449	0	32761	32806	
450	0	32824	32810	
451	0	32801	32682	
452	0	32800	32708	
453	0	32784	32802	
454	0	32814	32864	
455	0	32860	32846	
456	0	32844	32662	
457	0	32794	32838	
458	0	32768	32807	
459	0	32732	32766	
460	0	32868	32838	
461	0	32860	32746	
462	0	32832	32708	
463	0	32824	32792	
464	0	32792	32746	
465	0	32792	32622	
466	0	32802	32734	
467	0	32860	32804	
468	0	32792	32760	
469	0	32868	32807	
470	0	32828	32671	
471	0	32780	32806	
472	0	32808	32786	
473	0	32868	32784	
474	0	32756	32688	
475	0	32766	32748	
476	0	32830	32734	
477	0	32880	32807	
478	0	32908	32700	
479	0	32809	32742	
480	0	32824	32762	
481	0	32802	32772	
482	0	32800	32786	
483	0	32836	32690	
484	0	32800	32842	
485	0	32804	32774	
486	0	32772	32708	
487	0	32796	32814	
488	0	32868	32712	
489	0	32760	32726	
490	0	32796	32766	
491	0	32832	32775	
492	0	32808	32832	
493	0	32868	32670	
494	0	32866	32775	
495	0	32808	32850	
496	0	32802	32774	
497	0	32828	32750	
498	0	32804	32722	
499	0	32816	32850	
500	0	32780	32724	
501	0	32800	32876	
502	0	32794	32716	
503	0	32810	32694	
504	0	32792	32772	
505	0	32848	32720	
506	0	32806	32858	
507	0	32764	32730	
508	0	32720	32678	
509	0	32764	32831	
510	0	32813	32688	
511	0	32772	32800	
512	0	32784	32682	
513	0	32810	32726	
514	0	32776	32772	
515	0	32804	32846	
516	0	32868	32676	
517	0	32804	32839	
518	0	32776	32782	
519	0	32828	32775	
520	0	32816	32710	
521	0	32848	32841	
522	0	32822	32834	
523	0	32786	32780	
524	0	32804	32734	
525	0	32842	32796	
526	0	32814	32788	
527	0	32764	32692	
528	0	32810	32790	
529	0	32804	32729	
530	0	32810	32682	
531	0	32812	32770	
532	0	32792	32721	
533	0	32792	32884	
534	0	32808	32732	
535	0	32870	32790	
536	0	32824	32892	
537	0	32766	32775	
538	0	32768	32715	
539	0	32832	32784	
540	0	32776	32884	
541	0	32786	32839	
542	0	32784	32678	
543	0	32812	32764	
544	0	32798	32774	
545	0	32776	32768	
546	0	32780	32757	
547	0	32792	32761	
548	0	32852	32832	
549	0	32752	32766	
550	0	32782	32819	
551	0	32776	32748	
552	0	32808	32742	
553	0	32764	32762	
554	0	32776	32808	
555	0	32788	32756	
556	0	32792	32856	
557	0	32848	32722	
558	0	32832	32912	
559	0	32784	32783	
560	0	32836	32764	
561	0	32804	32704	
562	0	32754	32808	
563	0	32780	32828	
564	0	32880	32636	
565	0	32782	32791	
566	0	32876	32755	
567	0	32756	32844	
568	0	32812	32730	
569	0	32868	32756	
570	0	32806	32725	
571	0	32820	32758	
572	0	32838	32736	
573	0	32860	32759	
574	0	32858	32746	
575	0	32792	32751	
576	0	32802	32732	
577	0	32788	32754	
578	0	32744	32864	
579	0	32804	32727	
580	0	32820	32730	
581	0	32772	32698	
582	0	32872	32706	
583	0	32789	32804	
584	0	32816	32796	
585	0	32812	32732	
586	0	32810	32738	
587	0	32836	32727	
588	0	32898	32847	
589	0	32788	32730	
590	0	32816	32738	
591	0	32852	32772	
592	0	32832	32732	
593	0	32800	32836	
594	0	32832	32790	
595	0	32828	32810	
596	0	32800	32766	
597	0	32798	32740	
598	0	32832	32840	
599	0	32780	32774	
600	0	32804	32726	
601	0	32796	32772	
602	0	32844	32746	
603	0	32861	32717	
604	0	32876	32732	
605	0	32816	32832	
606	0	32832	32812	
607	0	32840	32791	
608	0	32784	32706	
609	0	32842	32724	
610	0	32816	32800	
611	0	32786	32775	
612	0	32800	32866	
613	0	32814	32688	
614	0	32820	32770	
615	0	32832	32871	
616	0	32856	32775	
617	0	32840	32788	
618	0	32828	32714	
619	0	32790	32734	
620	0	32812	32775	
621	0	32816	32774	
622	0	32804	32759	
623	0	32846	32667	
624	0	32744	32659	
625	0	32838	32806	
626	0	32792	32743	
627	0	32772	32796	
628	0	32834	32750	
629	0	32878	32854	
630	0	32840	32834	
631	0	32860	32836	
632	0	32768	32775	
633	0	32802	32750	
634	0	32864	32775	
635	0	32762	32751	
636	0	32944	32760	
637	0	32796	32700	
638	0	32832	32849	
639	0	32780	32720	
640	0	32818	32775	
641	0	32808	32716	
642	0	32808	32740	
643	0	32796	32818	
644	0	32812	32774	
645	0	32896	32748	
646	0	32824	32825	
647	0	32808	32666	
648	0	32804	32743	
649	0	32828	32772	
650	0	32820	32738	
651	0	32788	32784	
652	0	32796	32768	
653	0	32800	32766	
654	0	32782	32798	
655	0	32796	32698	
656	0	32820	32738	
657	0	32788	32794	
658	0	32872	32756	
659	0	32745	32866	
660	0	32828	32820	
661	0	32814	32868	
662	0	32868	32826	
663	0	32836	32702	
664	0	32786	32716	
665	0	32818	32770	
666	0	32776	32744	
667	0	32836	32822	
668	0	32826	32775	
669	0	32776	32672	
670	0	32752	32918	
671	0	32828	32818	
672	0	32824	32764	
673	0	32896	32676	
674	0	32740	32724	
675	0	32828	32810	
676	0	32782	32806	
677	0	32820	32775	
678	0	32828	32716	
679	0	32812	32775	
680	0	32836	32762	
681	0	32848	32790	
682	0	32806	32775	
683	0	32848	32802	
684	0	32808	32682	
685	0	32864	32826	
686	0	32824	32746	
687	0	32824	32692	
688	0	32776	32710	
689	0	32836	32775	
690	0	32772	32878	
691	0	32790	32660	
692	0	32820	32882	
693	0	32800	32838	
694	0	32870	32832	
695	0	32808	32746	
696	0	32800	32762	
697	0	32844	32775	
698	0	32830	32732	
699	0	32816	32820	
700	0	32800	32744	
701	0	32804	32726	
702	0	32800	32774	
703	0	32826	32698	
704	0	32772	32792	
705	0	32862	32775	
706	0	32832	32758	
707	0	32756	32700	
708	0	32760	32864	
709	0	32804	32848	
710	0	32796	32772	
711	0	32798	32660	
712	0	32806	32796	
713	0	32774	32725	
714	0	32812	32792	
715	0	32744	32728	
716	0	32864	32748	
717	0	32837	32790	
718	0	32896	32771	
719	0	32786	32774	
720	0	32812	32686	
721	0	32840	32834	
722	0	32816	32775	
723	0	32888	32828	
724	0	32800	32670	
725	0	32776	32762	
726	0	32798	32732	
727	0	32772	32844	
728	0	32840	32694	
729	0	32820	32708	
730	0	32832	32730	
731	0	32860	32772	
732	0	32856	32764	
733	0	32730	32887	
734	0	32808	32720	
735	0	32834	32792	
736	0	32844	32831	
737	0	32784	32762	
738	0	32792	32693	
739	0	32800	32820	
740	0	32818	32764	
741	0	32820	32754	
742	0	32738	32756	
743	0	32878	32812	
744	0	32764	32753	
745	0	32764	32802	
746	0	32836	32804	
747	0	32802	32724	
748	0	32848	32804	
749	0	32812	32788	
750	0	32820	32708	
751	0	32746	32775	
752	0	32780	32770	
753	0	32874	32805	
754	0	32784	32716	
755	0	32804	32812	
756	0	32790	32847	
757	0	32840	32834	
758	0	32864	32676	
759	0	32828	32812	
760	0	32802	32807	
761	0	32796	32791	
762	0	32774	32772	
763	0	32836	32862	
764	0	32864	32756	
765	0	32772	32684	
766	0	32790	32769	
767	0	32788	32798	
768	0	32824	32700	
769	0	32776	32786	
770	0	32796	32746	
771	0	32822	32769	
772	0	32812	32690	
773	0	32826	32811	
774	0	32820	32752	
775	0	32812	32724	
776	0	32808	32832	
777	0	32810	32752	
778	0	32852	32830	
779	0	32852	32670	
780	0	32840	32774	
781	0	32760	32800	
782	0	32750	32671	
783	0	32782	32710	
784	0	32876	32734	
785	0	32778	32788	
786	0	32811	32697	
787	0	32808	32882	
788	0	32808	32696	
789	0	32798	32796	
790	0	32798	32673	
791	0	32834	32814	
792	0	32814	32775	
793	0	32814	32719	
794	0	32842	32800	
795	0	32862	32775	
796	0	32780	32849	
797	0	32822	32826	
798	0	32760	32692	
799	0	32833	32872	
800	0	32820	32758	
801	0	32820	32774	
802	0	32800	32648	
803	0	32850	32784	
804	0	32896	32758	
805	0	32820	32736	
806	0	32802	32875	
807	0	32828	32808	
808	0	32762	32806	
809	0	32868	32714	
810	0	32864	32804	
811	0	32794	32834	
812	0	32808	32743	
813	0	32768	32830	
814	0	32862	32775	
815	0	32810	32801	
816	0	32844	32743	
817	0	32828	32788	
818	0	32794	32732	
819	0	32814	32807	
820	0	32740	32694	
821	0	32796	32775	
822	0	32832	32742	
823	0	32804	32804	
824	0	32808	32658	
825	0	32868	32814	
826	0	32840	32710	
827	0	32776	32771	
828	0	32796	32652	
829	0	32816	32846	
830	0	32824	32742	
831	0	32810	32769	
832	0	32760	32750	
833	0	32804	32681	
834	0	32808	32830	
835	0	32848	32801	
836	0	32776	32856	
837	0	32856	32688	
838	0	32860	32852	
839	0	32760	32772	
840	0	32800	32876	
841	0	32876	32661	
842	0	32768	32871	
843	0	32752	32800	
844	0	32818	32785	
845	0	32792	32784	
846	0	32838	32729	
847	0	32832	32818	
848	0	32786	32788	
849	0	32766	32684	
850	0	32804	32756	
851	0	32834	32770	
852	0	32852	32775	
853	0	32786	32662	
854	0	32788	32854	
855	0	32764	32772	
856	0	32846	32774	
857	0	32792	32766	
858	0	32824	32774	
859	0	32774	32864	
860	0	32744	32676	
861	0	32848	32790	
862	0	32894	32788	
863	0	32832	32802	
864	0	32804	32793	
865	0	32832	32720	
866	0	32838	32794	
867	0	32842	32772	
868	0	32820	32698	
869	0	32802	32730	
870	0	32836	32775	
871	0	32834	32730	
872	0	32772	32686	
873	0	32836	32806	
874	0	32754	32836	
875	0	32836	32844	
876	0	32808	32673	
877	0	32808	32804	
878	0	32860	32767	
879	0	32764	32838	
880	0	32800	32682	
881	0	32832	32725	
882	0	32872	32793	
883	0	32740	32660	
884	0	32842	32764	
885	0	32832	32764	
886	0	32844	32810	
887	0	32746	32664	
888	0	32732	32715	
889	0	32828	32743	
890	0	32792	32774	
891	0	32798	32631	
892	0	32764	32748	
893	0	32800	32820	
894	0	32772	32775	
895	0	32812	32854	
896	0	32870	32698	
897	0	32840	32688	
898	0	32804	32802	
899	0	32858	32789	
900	0	32828	32784	
901	0	32776	32718	
902	0	32812	32828	
903	0	32828	32768	
904	0	32810	32850	
905	0	32830	32842	
906	0	32852	32736	
907	0	32828	32828	
908	0	32812	32814	
909	0	32792	32775	
910	0	32712	32737	
911	0	32773	32736	
912	0	32800	32823	
913	0	32810	32740	
914	0	32818	32882	
915	0	32839	32636	
916	0	32770	32742	
917	0	32804	32839	
918	0	32872	32764	
919	0	32800	32854	
920	0	32794	32722	
921	0	32824	32868	
922	0	32792	32796	
923	0	32823	32678	
924	0	32862	32712	
925	0	32804	32746	
926	0	32812	32798	
927	0	32796	32728	
928	0	32790	32698	
929	0	32842	32788	
930	0	32868	32775	
931	0	32834	32604	
932	0	32792	32676	
933	0	32812	32728	
934	0	32816	32770	
935	0	32842	32676	
936	0	32842	32836	
937	0	32842	32788	
938	0	32812	32708	
939	0	32800	32742	
940	0	32772	32772	
941	0	32760	32812	
942	0	32812	32676	
943	0	32794	32769	
944	0	32793	32804	
945	0	32800	32757	
946	0	32804	32837	
947	0	32852	32870	
948	0	32830	32710	
949	0	32772	32710	
950	0	32812	32840	
951	0	32824	32797	
952	0	32876	32792	
953	0	32856	32726	
954	0	32800	32775	
955	0	32932	32847	
956	0	32844	32804	
957	0	32882	32775	
958	0	32904	32552	
959	0	32872	32674	
960	0	32868	32572	
961	0	32916	32580	
962	0	32866	32630	
963	0	32808	32519	
964	0	32872	32550	
965	0	32860	32470	
966	0	32888	32516	
967	0	32868	32660	
968	0	32862	32542	
969	0	32869	32562	
970	0	32784	32583	
971	0	32804	32602	
972	0	32764	32654	
973	0	32768	32784	
974	0	32802	32764	
975	0	32712	33062	
976	0	32780	33078	
977	0	32678	33312	
978	0	32716	33312	
979	0	32572	33322	
980	0	32588	33434	
981	0	32592	33543	
982	0	32576	33594	
983	0	32560	33406	
984	0	32632	33487	
985	0	32696	33390	
986	0	32720	33127	
987	0	32689	32942	
988	0	32800	32810	
989	0	32790	32728	
990	0	32808	32550	
991	0	32928	32592	
992	0	32984	32407	
993	0	32840	32370	
994	0	32900	32358	
995	0	32956	32398	
996	0	32888	32426	
997	0	32914	32404	
998	0	32868	32400	
999	0	32938	32498	
1000	0	32908	32506	
1001	0	32888	32490	
1002	0	32810	32495	
1003	0	32820	32646	
1004	0	32844	32608	
1005	0	32840	32688	
1006	0	32924	32722	
1007	0	32845	32750	
1008	0	32849	32714	
1009	0	32876	32814	
1010	0	32894	32748	
1011	0	32872	32756	
1012	0	32854	32800	
1013	0	32868	32744	
1014	0	32886	32884	
1015	0	32860	32712	
1016	0	32832	32770	
1017	0	32812	32820	
1018	0	32832	32836	
1019	0	32772	32790	
1020	0	32818	32900	
1021	0	32788	32826	
1022	0	32738	32879	
1023	0	32748	32696	
1024	0	32756	32750	
1025	0	32762	32766	
1026	0	32791	32876	
1027	0	32808	32748	
1028	0	32796	32751	
1029	0	32828	32756	
1030	0	32808	32798	
1031	0	32780	32762	
1032	0	32822	32720	
1033	0	32816	32766	
1034	0	32800	32823	
1035	0	32798	32716	
1036	0	32764	32668	
1037	0	32816	32802	
1038	0	32800	32740	
1039	0	32830	32770	
1040	0	32806	32772	
1041	0	32858	32671	
1042	0	32828	32852	
1043	0	32776	32822	
1044	0	32790	32839	
1045	0	32826	32684	
1046	0	32874	32775	
1047	0	32804	32823	
1048	0	32770	32744	
1049	0	32764	32837	
1050	0	32816	32704	
1051	0	32844	32750	
1052	0	32810	32710	
1053	0	32852	32774	
1054	0	32812	32751	
1055	0	32768	32720	
1056	0	32746	32694	
1057	0	32740	32806	
1058	0	32840	32772	
1059	0	32804	32726	
1060	0	32828	32754	
1061	0	32834	32710	
1062	0	32854	32828	
1063	0	32775	32788	
1064	0	32824	32702	
1065	0	32872	32736	
1066	0	32808	32849	
1067	0	32852	32726	
1068	0	32832	32764	
1069	0	32838	32792	
1070	0	32834	32660	
1071	0	32778	32826	
1072	0	32756	32820	
1073	0	32836	32710	
1074	0	32788	32910	
1075	0	32856	32743	
1076	0	32780	32750	
1077	0	32788	32743	
1078	0	32824	32847	
1079	0	32788	32820	
1080	0	32798	32664	
1081	0	32824	32768	
1082	0	32760	32774	
1083	0	32868	32892	
1084	0	32888	32656	
1085	0	32832	32664	
1086	0	32768	32752	
1087	0	32808	32863	
1088	0	32808	32647	
1089	0	32810	32798	
1090	0	32816	32815	
1091	0	32844	32750	
1092	0	32816	32734	
1093	0	32866	32775	
1094	0	32852	32836	
1095	0	32804	32828	
1096	0	32868	32752	
1097	0	32830	32790	
1098	0	32794	32790	
1099	0	32812	32742	
1100	0	32816	32810	
1101	0	32780	32802	
1102	0	32804	32744	
1103	0	32788	32698	
1104	0	32836	32728	
1105	0	32792	32647	
1106	0	32800	32815	
1107	0	32796	32732	
1108	0	32800	32806	
1109	0	32849	32662	
1110	0	32848	32756	
1111	0	32788	32808	
1112	0	32834	32818	
1113	0	32786	32812	
1114	0	32808	32711	
1115	0	32796	32834	
1116	0	32786	32784	
1117	0	32800	32838	
1118	0	32864	32754	
1119	0	32834	32672	
1120	0	32824	32860	
1121	0	32892	32830	
1122	0	32844	32686	
1123	0	32788	32852	
1124	0	32868	32849	
1125	0	32796	32742	
1126	0	32878	32798	
1127	0	32801	32844	
1128	0	32800	32748	
1129	0	32738	32743	
1130	0	32772	32727	
1131	0	32796	32702	
1132	0	32858	32750	
1133	0	32802	32718	
1134	0	32832	32699	
1135	0	32816	32775	
1136	0	32810	32716	
1137	0	32912	32824	
1138	0	32860	32689	
1139	0	32792	32732	
1140	0	32756	32714	
1141	0	32782	32806	
1142	0	32848	32660	
1143	0	32896	32696	
1144	0	32857	32732	
1145	0	32768	32718	
1146	0	32804	32708	
1147	0	32804	32751	
1148	0	32816	32839	
1149	0	32825	32734	
1150	0	32804	32820	
1151	0	32804	32814	
1152	0	32762	32722	
1153	0	32834	32732	
1154	0	32802	32746	
1155	0	32876	32847	
1156	0	32758	32742	
1157	0	32804	32872	
1158	0	32785	32732	
1159	0	32856	32874	
1160	0	32849	32743	
1161	0	32816	32704	
1162	0	32814	32727	
1163	0	32808	32794	
1164	0	32752	32743	
1165	0	32752	32710	
1166	0	32828	32770	
1167	0	32784	32832	
1168	0	32858	32730	
1169	0	32896	32644	
1170	0	32768	32882	
1171	0	32840	32756	
1172	0	32796	32818	
1173	0	32828	32775	
1174	0	32856	32732	
1175	0	32776	32846	
1176	0	32872	32831	
1177	0	32832	32704	
1178	0	32840	32852	
1179	0	32770	32793	
1180	0	32796	32798	
1181	0	32820	32700	
1182	0	32800	32775	
1183	0	32812	32798	
1184	0	32860	32732	
1185	0	32766	32724	
1186	0	32807	32742	
1187	0	32776	32775	
1188	0	32788	32687	
1189	0	32814	32718	
1190	0	32768	32832	
1191	0	32824	32798	
1192	0	32824	32710	
1193	0	32776	32832	
1194	0	32856	32840	
1195	0	32800	32710	
1196	0	32830	32720	
1197	0	32848	32722	
1198	0	32770	32775	
1199	0	32842	32766	
1200	0	32836	32790	
1201	0	32798	32832	
1202	0	32760	32714	
1203	0	32820	32818	
1204	0	32832	32792	
1205	0	32816	32666	
1206	0	32792	32790	
1207	0	32804	32758	
1208	0	32788	32711	
1209	0	32788	32800	
1210	0	32764	32753	
1211	0	32764	32838	
1212	0	32828	32834	
1213	0	32828	32882	
1214	0	32850	32812	
1215	0	32820	32823	
1216	0	32746	32670	
1217	0	32753	32892	
1218	0	32752	32775	
1219	0	32800	32800	
1220	0	32864	32700	
1221	0	32808	32704	
1222	0	32786	32772	
1223	0	32796	32862	
1224	0	32848	32654	
1225	0	32802	32926	
1226	0	32848	32817	
1227	0	32850	32822	
1228	0	32724	32750	
1229	0	32800	32775	
1230	0	32792	32775	
1231	0	32808	32775	
1232	0	32785	32706	
1233	0	32804	32804	
1234	0	32734	32836	
1235	0	32774	32686	
1236	0	32864	32720	
1237	0	32896	32774	
1238	0	32832	32822	
1239	0	32778	32674	
1240	0	32884	32890	
1241	0	32864	32812	
1242	0	32822	32753	
1243	0	32812	32660	
1244	0	32810	32882	
1245	0	32748	32810	
1246	0	32800	32720	
1247	0	32808	32632	
1248	0	32844	32844	
1249	0	32806	32775	
1250	0	32814	32828	
1251	0	32852	32661	
1252	0	32904	32638	
1253	0	32816	32828	
1254	0	32816	32743	
1255	0	32896	32720	
1256	0	32802	32744	
1257	0	32796	32687	
1258	0	32832	32756	
1259	0	32790	32744	
1260	0	32760	32775	
1261	0	32908	32799	
1262	0	32816	32814	
1263	0	32840	32686	
1264	0	32824	32699	
1265	0	32836	32803	
1266	0	32746	32814	
1267	0	32796	32756	
1268	0	32804	32692	
1269	0	32836	32825	
1270	0	32808	32840	
1271	0	32876	32804	
1272	0	32836	32864	
1273	0	32780	32700	
1274	0	32878	32732	
1275	0	32804	32775	
1276	0	32810	32832	
1277	0	32788	32716	
1278	0	32844	32696	
1279	0	32770	32800	
1280	0	32780	32747	
1281	0	32836	32804	
1282	0	32812	32736	
1283	0	32796	32684	
1284	0	32880	32739	
1285	0	32772	32903	
1286	0	32824	32796	
1287	0	32774	32826	
1288	0	32908	32742	
1289	0	32800	32660	
1290	0	32822	32730	
1291	0	32784	32790	
1292	0	32784	32764	
1293	0	32764	32775	
1294	0	32766	32696	
1295	0	32820	32730	
1296	0	32856	32772	
1297	0	32817	32846	
1298	0	32824	32864	
1299	0	32850	32698	
1300	0	32820	32770	
1301	0	32728	32796	
1302	0	32760	32799	
1303	0	32784	32799	
1304	0	32766	32658	
1305	0	32812	32737	
1306	0	32852	32844	
1307	0	32884	32842	
1308	0	32860	32790	
1309	0	32832	32819	
1310	0	32782	32768	
1311	0	32736	32807	
1312	0	32792	32828	
1313	0	32924	32638	
1314	0	32794	32754	
1315	0	32864	32808	
1316	0	32808	32807	
1317	0	32868	32784	
1318	0	32796	32735	
1319	0	32824	32708	
1320	0	32816	32810	
1321	0	32836	32708	
1322	0	32788	32838	
1323	0	32804	32698	
1324	0	32808	32816	
1325	0	32790	32810	
1326	0	32800	32775	
1327	0	32838	32724	
1328	0	32862	32692	
1329	0	32776	32812	
1330	0	32808	32808	
1331	0	32832	32680	
1332	0	32876	32774	
1333	0	32832	32821	
1334	0	32772	32756	
1335	0	32800	32668	
1336	0	32820	32736	
1337	0	32816	32826	
1338	0	32792	32788	
1339	0	32784	32814	
1340	0	32832	32703	
1341	0	32820	32807	
1342	0	32860	32770	
1343	0	32812	32868	
1344	0	32836	32654	
1345	0	32828	32750	
1346	0	32856	32762	
1347	0	32828	32765	
1348	0	32822	32718	
1349	0	32814	32711	
1350	0	32830	32742	
1351	0	32802	32886	
1352	0	32816	32790	
1353	0	32760	32775	
1354	0	32834	32740	
1355	0	32798	32746	
1356	0	32836	32712	
1357	0	32824	32656	
1358	0	32842	32800	
1359	0	32846	32782	
1360	0	32812	32742	
1361	0	32828	32754	
1362	0	32838	32764	
1363	0	32784	32775	
1364	0	32712	32660	
1365	0	32768	32724	
1366	0	32756	32768	
1367	0	32852	32730	
1368	0	32840	32721	
1369	0	32816	32728	
1370	0	32804	32688	
1371	0	32856	32798	
1372	0	32822	32820	
1373	0	32828	32872	
1374	0	32804	32786	
1375	0	32812	32800	
1376	0	32808	32686	
1377	0	32810	32634	
1378	0	32736	32770	
1379	0	32860	32752	
1380	0	32854	32716	
1381	0	32764	32796	
1382	0	32816	32718	
1383	0	32804	32806	
1384	0	32824	32876	
1385	0	32816	32762	
1386	0	32744	32788	
1387	0	32824	32726	
1388	0	32834	32804	
1389	0	32854	32711	
1390	0	32800	32812	
1391	0	32778	32670	
1392	0	32816	32816	
1393	0	32864	32756	
1394	0	32804	32730	
1395	0	32860	32902	
1396	0	32788	32808	
1397	0	32849	32743	
1398	0	32869	32832	
1399	0	32848	32766	
1400	0	32792	32785	
1401	0	32816	32839	
1402	0	32808	32699	
1403	0	32808	32870	
1404	0	32724	32775	
1405	0	32794	32732	
1406	0	32808	32775	
1407	0	32744	32688	
1408	0	32800	32674	
1409	0	32774	32727	
1410	0	32792	32734	
1411	0	32792	32820	
1412	0	32820	32670	
1413	0	32832	32679	
1414	0	32848	32819	
1415	0	32830	32864	
1416	0	32828	32767	
1417	0	32884	32794	
1418	0	32796	32811	
1419	0	32802	32800	
1420	0	32876	32824	
1421	0	32810	32826	
1422	0	32798	32758	
1423	0	32764	32852	
1424	0	32756	32732	
1425	0	32824	32820	
1426	0	32772	32775	
1427	0	32840	32672	
1428	0	32768	32688	
1429	0	32840	32800	
1430	0	32816	32750	
1431	0	32800	32758	
1432	0	32768	32806	
1433	0	32814	32738	
1434	0	32836	32704	
1435	0	32769	32847	
1436	0	32820	32823	
1437	0	32806	32775	
1438	0	32796	32752	
1439	0	32850	32678	
1440	0	32750	32754	
1441	0	32816	32775	
1442	0	32784	32828	
1443	0	32834	32721	
1444	0	32804	32895	
1445	0	32780	32775	
1446	0	32766	32742	
1447	0	32832	32732	
1448	0	32816	32792	
1449	0	32820	32854	
1450	0	32804	32762	
1451	0	32852	32679	
1452	0	32820	32890	
1453	0	32760	32754	
1454	0	32836	32789	
1455	0	32852	32722	
1456	0	32772	32738	
1457	0	32788	32857	
1458	0	32876	32756	
1459	0	32812	32794	
1460	0	32804	32742	
1461	0	32836	32700	
1462	0	32824	32784	
1463	0	32840	32775	
1464	0	32734	32819	
1465	0	32789	32690	
1466	0	32820	32775	
1467	0	32804	32804	
1468	0	32774	32748	
1469	0	32842	32718	
1470	0	32820	32775	
1471	0	32884	32689	
1472	0	32832	32743	
1473	0	32808	32852	
1474	0	32852	32740	
1475	0	32872	32775	
1476	0	32816	32775	
1477	0	32798	32682	
1478	0	32836	32672	
1479	0	32812	32762	
1480	0	32740	32775	
1481	0	32792	32838	
1482	0	32814	32798	
1483	0	32852	32902	
1484	0	32828	32704	
1485	0	32817	32790	
1486	0	32752	32694	
1487	0	32828	32775	
1488	0	32884	32854	
1489	0	32842	32800	
1490	0	32820	32668	
1491	0	32836	32846	
1492	0	32824	32836	
1493	0	32836	32748	
1494	0	32810	32801	
1495	0	32816	32742	
1496	0	32768	32708	
1497	0	32800	32678	
1498	0	32820	32836	
1499	0	32816	32804	
1500	0	32796	32796	
1501	0	32880	32738	
1502	0	32860	32792	
1503	0	32744	32810	
1504	0	32808	32748	
1505	0	32864	32738	
1506	0	32764	32756	
1507	0	32808	32782	
1508	0	32856	32799	
1509	0	32798	32720	
1510	0	32768	32854	
1511	0	32812	32766	
1512	0	32850	32744	
1513	0	32780	32810	
1514	0	32790	32830	
1515	0	32832	32775	
1516	0	32804	32680	
1517	0	32834	32790	
1518	0	32818	32744	
1519	0	32800	32812	
1520	0	32785	32798	
1521	0	32808	32694	
1522	0	32780	32692	
1523	0	32792	32676	
1524	0	32765	32788	
1525	0	32874	32775	
1526	0	32880	32732	
1527	0	32804	32862	
1528	0	32820	32728	
1529	0	32826	32789	
1530	0	32864	32842	
1531	0	32824	32814	
1532	0	32800	32696	
1533	0	32808	32802	
1534	0	32796	32742	
1535	0	32800	32706	
1536	0	32788	32716	
1537	0	32760	32788	
1538	0	32792	32794	
1539	0	32808	32752	
1540	0	32826	32830	
1541	0	32840	32694	
1542	0	32819	32752	
1543	0	32792	32704	
1544	0	32780	32872	
1545	0	32906	32732	
1546	0	32848	32682	
1547	0	32806	32768	
1548	0	32782	32838	
1549	0	32816	32775	
1550	0	32845	32714	
1551	0	32834	32846	
1552	0	32818	32766	
1553	0	32800	32822	
1554	0	32760	32774	
1555	0	32768	32672	
1556	0	32808	32786	
1557	0	32848	32790	
1558	0	32810	32775	
1559	0	32742	32718	
1560	0	32850	32750	
1561	0	32808	32794	
1562	0	32856	32718	
1563	0	32816	32718	
1564	0	32788	32647	
1565	0	32868	32704	
1566	0	32754	32812	
1567	0	32784	32646	
1568	0	32828	32699	
1569	0	32820	32754	
1570	0	32764	32782	
1571	0	32796	32780	
1572	0	32781	32770	
1573	0	32876	32838	
1574	0	32808	32852	
1575	0	32784	32914	
1576	0	32830	32666	
1577	0	32804	32775	
1578	0	32804	32794	
1579	0	32804	32842	
1580	0	32802	32860	
1581	0	32780	32756	
1582	0	32818	32812	
1583	0	32792	32751	
1584	0	32816	32824	
1585	0	32788	32742	
1586	0	32828	32760	
1587	0	32814	32734	
1588	0	32850	32838	
1589	0	32816	32654	
1590	0	32848	32706	
1591	0	32804	32714	
1592	0	32776	32775	
1593	0	32828	32711	
1594	0	32786	32903	
1595	0	32776	32750	
1596	0	32798	32672	
1597	0	32820	32775	
1598	0	32810	32742	
1599	0	32808	32808	
1600	0	32848	32727	
1601	0	32808	32709	
1602	0	32808	32766	
1603	0	32752	32710	
1604	0	32802	32680	
1605	0	32846	32706	
1606	0	32876	32832	
1607	0	32870	32738	
1608	0	32864	32868	
1609	0	32780	32680	
1610	0	32800	32706	
1611	0	32792	32828	
1612	0	32816	32750	
1613	0	32860	32752	
1614	0	32792	32870	
1615	0	32780	32688	
1616	0	32824	32625	
1617	0	32778	32692	
1618	0	32802	32742	
1619	0	32828	32624	
1620	0	32896	32622	
1621	0	32864	32658	
1622	0	32932	32692	
1623	0	32910	32644	
1624	0	32806	32583	
1625	0	32836	32560	
1626	0	32885	32567	
1627	0	32886	32412	
1628	0	32868	32470	
1629	0	32816	32486	
1630	0	32884	32488	
1631	0	32832	32519	
1632	0	32882	32583	
1633	0	32744	32478	
1634	0	32846	32690	
1635	0	32754	32682	
1636	0	32754	32804	
1637	0	32818	32750	
1638	0	32744	32816	
1639	0	32764	33084	
1640	0	32696	33176	
1641	0	32672	33319	
1642	0	32520	33489	
1643	0	32548	33407	
1644	0	32568	33580	
1645	0	32592	33562	
1646	0	32600	33692	
1647	0	32612	33479	
1648	0	32660	33402	
1649	0	32804	33450	
1650	0	32776	33244	
1651	0	32834	32927	
1652	0	32764	32738	
1653	0	32858	32696	
1654	0	32836	32592	
1655	0	32812	32548	
1656	0	32964	32454	
1657	0	32864	32250	
1658	0	32996	32372	
1659	0	32932	32332	
1660	0	32944	32380	
1661	0	32896	32438	
1662	0	32924	32414	
1663	0	32881	32390	
1664	0	32832	32514	
1665	0	32804	32480	
1666	0	32886	32566	
1667	0	32800	32487	
1668	0	32828	32644	
1669	0	32880	32660	
1670	0	32892	32774	
1671	0	32890	32716	
1672	0	32876	32636	
1673	0	32852	32769	
1674	0	32844	32857	
1675	0	32896	32926	
1676	0	32904	32820	
1677	0	32828	32686	
1678	0	32844	32903	
1679	0	32816	32806	
1680	0	32798	32822	
1681	0	32860	32792	
1682	0	32876	32758	
1683	0	32818	32775	
1684	0	32736	32810	
1685	0	32756	32764	
1686	0	32758	32727	
1687	0	32783	32720	
1688	0	32832	32822	
1689	0	32784	32807	
1690	0	32804	32860	
1691	0	32798	32769	
1692	0	32810	32790	
1693	0	32764	32758	
1694	0	32824	32884	
1695	0	32828	32775	
1696	0	32824	32728	
1697	0	32834	32720	
1698	0	32774	32878	
1699	0	32792	32814	
1700	0	32804	32848	
1701	0	32752	32856	
1702	0	32796	32756	
1703	0	32792	32815	
1704	0	32736	32718	
1705	0	32817	32738	
1706	0	32812	32758	
1707	0	32862	32683	
1708	0	32788	32792	
1709	0	32788	32798	
1710	0	32780	32660	
1711	0	32764	32638	
1712	0	32804	32640	
1713	0	32740	32696	
1714	0	32844	32792	
1715	0	32823	32802	
1716	0	32832	32757	
1717	0	32838	32775	
1718	0	32820	32774	
1719	0	32796	32796	
1720	0	32812	32726	
1721	0	32822	32823	
1722	0	32812	32732	
1723	0	32816	32736	
1724	0	32828	32806	
1725	0	32792	32848	
1726	0	32840	32742	
1727	0	32816	32884	
1728	0	32834	32800	
1729	0	32756	32864	
1730	0	32772	32696	
1731	0	32788	32836	
1732	0	32812	32775	
1733	0	32794	32668	
1734	0	32793	32742	
1735	0	32800	32726	
1736	0	32834	32775	
1737	0	32840	32668	
1738	0	32824	32740	
1739	0	32812	32806	
1740	0	32864	32719	
1741	0	32784	32668	
1742	0	32708	32638	
1743	0	32800	32754	
1744	0	32776	32762	
1745	0	32768	32748	
1746	0	32830	32682	
1747	0	32796	32716	
1748	0	32840	32800	
1749	0	32852	32698	
1750	0	32832	32790	
1751	0	32874	32714	
1752	0	32806	32856	
1753	0	32784	32788	
1754	0	32814	32825	
1755	0	32804	32804	
1756	0	32864	32720	
1757	0	32884	32756	
1758	0	32802	32838	
1759	0	32792	32772	
1760	0	32844	32902	
1761	0	32796	32656	
1762	0	32862	32768	
1763	0	32782	32730	
1764	0	32800	32808	
1765	0	32784	32768	
1766	0	32844	32706	
1767	0	32800	32868	
1768	0	32783	32760	
1769	0	32742	32788	
1770	0	32772	32775	
1771	0	32774	32752	
1772	0	32832	32770	
1773	0	32826	32756	
1774	0	32852	32716	
1775	0	32780	32816	
1776	0	32768	32836	
1777	0	32844	32660	
1778	0	32730	32647	
1779	0	32832	32798	
1780	0	32820	32732	
1781	0	32804	32790	
1782	0	32842	32716	
1783	0	32824	32824	
1784	0	32850	32794	
1785	0	32796	32849	
1786	0	32816	32734	
1787	0	32760	32664	
1788	0	32786	32724	
1789	0	32844	32820	
1790	0	32824	32812	
1791	0	32804	32818	
1792	0	32852	32658	
1793	0	32856	32750	
1794	0	32804	32775	
1795	0	32802	32716	
1796	0	32812	32775	
1797	0	32800	32684	
1798	0	32816	32829	
1799	0	32828	32780	
1800	0	32814	32775	
1801	0	32806	32718	
1802	0	32772	32702	
1803	0	32864	32838	
1804	0	32838	32832	
1805	0	32820	32775	
1806	0	32768	32694	
1807	0	32778	32692	
1808	0	32822	32830	
1809	0	32894	32774	
1810	0	32754	32764	
1811	0	32872	32718	
1812	0	32788	32788	
1813	0	32798	32748	
1814	0	32876	32873	
1815	0	32872	32753	
1816	0	32788	32753	
1817	0	32792	32868	
1818	0	32810	32809	
1819	0	32836	32758	
1820	0	32822	32748	
1821	0	32788	32710	
1822	0	32800	32794	
1823	0	32852	32900	
1824	0	32764	32744	
1825	0	32796	32756	
1826	0	32774	32830	
1827	0	32874	32692	
1828	0	32846	32806	
1829	0	32760	32770	
1830	0	32796	32694	
1831	0	32868	32716	
1832	0	32796	32811	
1833	0	32858	32820	
1834	0	32816	32775	
1835	0	32812	32798	
1836	0	32780	32764	
1837	0	32808	32679	
1838	0	32834	32687	
1839	0	32756	32806	
1840	0	32794	32788	
1841	0	32844	32810	
1842	0	32794	32764	
1843	0	32768	32820	
1844	0	32858	32748	
1845	0	32808	32831	
1846	0	32852	32770	
1847	0	32822	32687	
1848	0	32796	32640	
1849	0	32836	32799	
1850	0	32824	32808	
1851	0	32820	32738	
1852	0	32804	32758	
1853	0	32842	32728	
1854	0	32808	32758	
1855	0	32824	32760	
1856	0	32804	32850	
1857	0	32828	32652	
1858	0	32808	32772	
1859	0	32796	32798	
1860	0	32772	32820	
1861	0	32774	32736	
1862	0	32832	32767	
1863	0	32832	32810	
1864	0	32868	32806	
1865	0	32740	32614	
1866	0	32792	32816	
1867	0	32792	32775	
1868	0	32772	32792	
1869	0	32820	32704	
1870	0	32696	32886	
1871	0	32754	32775	
1872	0	32822	32800	
1873	0	32824	32687	
1874	0	32812	32846	
1875	0	32768	32858	
1876	0	32762	32674	
1877	0	32750	32791	
1878	0	32782	32642	
1879	0	32756	32770	
1880	0	32842	32834	
1881	0	32804	32868	
1882	0	32826	32743	
1883	0	32744	32828	
1884	0	32796	32807	
1885	0	32778	32852	
1886	0	32728	32816	
1887	0	32816	32699	
1888	0	32860	32878	
1889	0	32760	32758	
1890	0	32736	32750	
1891	0	32792	32672	
1892	0	32824	32712	
1893	0	32812	32830	
1894	0	32836	32847	
1895	0	32852	32868	
1896	0	32792	32706	
1897	0	32810	32706	
1898	0	32796	32750	
1899	0	32740	32882	
1900	0	32796	32711	
1901	0	32736	32708	
1902	0	32808	32794	
1903	0	32836	32820	
1904	0	32806	32696	
1905	0	32834	32696	
1906	0	32860	32716	
1907	0	32734	32732	
1908	0	32784	32766	
1909	0	32848	32616	
1910	0	32778	32836	
1911	0	32780	32796	
1912	0	32780	32874	
1913	0	32868	32759	
1914	0	32936	32727	
1915	0	32832	32764	
1916	0	32840	32760	
1917	0	32808	32720	
1918	0	32832	32784	
1919	0	32760	32775	
1920	0	32816	32799	
1921	0	32776	32820	
1922	0	32782	32746	
1923	0	32816	32708	
1924	0	32836	32824	
1925	0	32766	32788	
1926	0	32836	32807	
1927	0	32780	32692	
1928	0	32758	32772	
1929	0	32828	32714	
1930	0	32846	32866	
1931	0	32772	32685	
1932	0	32860	32674	
1933	0	32864	32806	
1934	0	32862	32744	
1935	0	32826	32760	
1936	0	32856	32686	
1937	0	32811	32788	
1938	0	32788	32771	
1939	0	32834	32732	
1940	0	32796	32728	
1941	0	32862	32728	
1942	0	32770	32790	
1943	0	32810	32756	
1944	0	32836	32666	
1945	0	32828	32816	
1946	0	32812	32722	
1947	0	32836	32806	
1948	0	32820	32702	
1949	0	32808	32806	
1950	0	32804	32824	
1951	0	32836	32772	
1952	0	32756	32686	
1953	0	32816	32764	
1954	0	32770	32844	
1955	0	32816	32775	
1956	0	32796	32672	
1957	0	32800	32762	
1958	0	32820	32860	
1959	0	32804	32810	
1960	0	32800	32703	
1961	0	32848	32726	
1962	0	32844	32836	
1963	0	32836	32806	
1964	0	32848	32807	
1965	0	32912	32672	
1966	0	32812	32642	
1967	0	32768	32775	
1968	0	32864	32830	
1969	0	32852	32814	
1970	0	32828	32736	
1971	0	32808	32728	
1972	0	32928	32826	
1973	0	32768	32814	
1974	0	32788	32868	
1975	0	32814	32784	
1976	0	32788	32782	
1977	0	32848	32775	
1978	0	32754	32838	
1979	0	32820	32746	
1980	0	32760	32676	
1981	0	32792	32813	
1982	0	32780	32842	
1983	0	32849	32696	
1984	0	32716	32814	
1985	0	32836	32698	
1986	0	32855	32724	
1987	0	32774	32742	
1988	0	32786	32764	
1989	0	32820	32702	
1990	0	32782	32708	
1991	0	32832	32839	
1992	0	32796	32820	
1993	0	32818	32746	
1994	0	32792	32716	
1995	0	32808	32694	
1996	0	32812	32846	
1997	0	32794	32830	
1998	0	32840	32680	
1999	0	32764	32742	
2000	0	32760	32768	
2001	0	32752	32834	
2002	0	32776	32678	
2003	0	32806	32736	
2004	0	32820	32711	
2005	0	32858	32839	
2006	0	32808	32732	
2007	0	32790	32808	
2008	0	32804	32852	
2009	0	32776	32762	
2010	0	32808	32792	
2011	0	32824	32760	
2012	0	32792	32684	
2013	0	32820	32810	
2014	0	32844	32807	
2015	0	32878	32680	
2016	0	32846	32760	
2017	0	32808	32886	
2018	0	32806	32840	
2019	0	32808	32698	
2020	0	32802	32821	
2021	0	32852	32830	
2022	0	32868	32775	
2023	0	32808	32784	
2024	0	32852	32748	
2025	0	32772	32654	
2026	0	32784	32766	
2027	0	32792	32768	
2028	0	32784	32810	
2029	0	32798	32638	
2030	0	32844	32718	
2031	0	32832	32838	
2032	0	32774	32764	
2033	0	32824	32775	
2034	0	32824	32708	
2035	0	32836	32806	
2036	0	32860	32748	
2037	0	32780	32730	
2038	0	32824	32775	
2039	0	32828	32754	
2040	0	32808	32750	
2041	0	32802	32678	
2042	0	32804	32900	
2043	0	32816	32802	
2044	0	32716	32840	
2045	0	32828	32764	
2046	0	32790	32775	
2047	0	32788	32803	
2048	0	32766	32760	
2049	0	32838	32710	
2050	0	32810	32644	
2051	0	32854	32815	
2052	0	32872	32730	
2053	0	32784	32836	
2054	0	32820	32802	
2055	0	32862	32718	
2056	0	32780	32720	
2057	0	32788	32828	
2058	0	32804	32808	
2059	0	32800	32700	
2060	0	32802	32700	
2061	0	32768	32800	
2062	0	32782	32764	
2063	0	32816	32832	
2064	0	32872	32775	
2065	0	32800	32718	
2066	0	32764	32762	
2067	0	32806	32772	
2068	0	32816	32832	
2069	0	32782	32742	
2070	0	32804	32791	
2071	0	32870	32756	
2072	0	32852	32684	
2073	0	32848	32836	
2074	0	32788	32788	
2075	0	32861	32772	
2076	0	32862	32830	
2077	0	32876	32748	
2078	0	32860	32846	
2079	0	32808	32756	
2080	0	32816	32870	
2081	0	32808	32788	
2082	0	32896	32754	
2083	0	32776	32668	
2084	0	32804	32844	
2085	0	32712	32740	
2086	0	32808	32760	
2087	0	32804	32678	
2088	0	32810	32724	
2089	0	32804	32671	
2090	0	32866	32734	
2091	0	32804	32726	
2092	0	32780	32736	
2093	0	32808	32728	
2094	0	32816	32862	
2095	0	32804	32800	
2096	0	32772	32825	
2097	0	32850	32786	
2098	0	32776	32702	
2099	0	32892	32775	
2100	0	32852	32810	
2101	0	32868	32768	
2102	0	32820	32702	
2103	0	32740	32832	
2104	0	32788	32790	
2105	0	32792	32796	
2106	0	32864	32676	
2107	0	32844	32722	
2108	0	32792	32742	
2109	0	32748	32762	
2110	0	32804	32720	
2111	0	32784	32818	
2112	0	32814	32816	
2113	0	32848	32812	
2114	0	32808	32726	
2115	0	32846	32724	
2116	0	32802	32853	
2117	0	32868	32686	
2118	0	32768	32802	
2119	0	32808	32796	
2120	0	32812	32702	
2121	0	32838	32714	
2122	0	32724	32814	
2123	0	32822	32740	
2124	0	32840	32740	
2125	0	32778	32775	
2126	0	32824	32786	
2127	0	32774	32806	
2128	0	32790	32682	
2129	0	32854	32772	
2130	0	32780	32654	
2131	0	32824	32775	
2132	0	32756	32696	
2133	0	32818	32838	
2134	0	32825	32726	
2135	0	32800	32729	
2136	0	32852	32688	
2137	0	32812	32752	
2138	0	32816	32862	
2139	0	32832	32798	
2140	0	32798	32748	
2141	0	32852	32888	
2142	0	32808	32788	
2143	0	32728	32806	
2144	0	32768	32768	
2145	0	32834	32847	
2146	0	32822	32818	
2147	0	32836	32752	
2148	0	32772	32696	
2149	0	32820	32812	
2150	0	32840	32758	
2151	0	32808	32860	
2152	0	32794	32742	
2153	0	32808	32694	
2154	0	32800	32768	
2155	0	32796	32775	
2156	0	32736	32682	
2157	0	32896	32712	
2158	0	32762	32788	
2159	0	32816	32748	
2160	0	32790	32774	
2161	0	32850	32748	
2162	0	32764	32734	
2163	0	32812	32718	
2164	0	32768	32760	
2165	0	32792	32760	
2166	0	32820	32734	
2167	0	32824	32774	
2168	0	32754	32822	
2169	0	32804	32811	
2170	0	32784	32704	
2171	0	32821	32903	
2172	0	32756	32726	
2173	0	32832	32775	
2174	0	32800	32702	
2175	0	32806	32820	
2176	0	32756	32838	
2177	0	32756	32743	
2178	0	32816	32702	
2179	0	32872	32775	
2180	0	32864	32759	
2181	0	32804	32708	
2182	0	32828	32716	
2183	0	32879	32756	
2184	0	32772	32775	
2185	0	32844	32721	
2186	0	32880	32750	
2187	0	32748	32797	
2188	0	32868	32734	
2189	0	32848	32703	
2190	0	32834	32732	
2191	0	32844	32807	
2192	0	32848	32748	
2193	0	32868	32660	
2194	0	32836	32808	
2195	0	32816	32877	
2196	0	32756	32775	
2197	0	32816	32770	
2198	0	32772	32724	
2199	0	32856	32764	
2200	0	32772	32722	
2201	0	32780	32775	
2202	0	32784	32730	
2203	0	32792	32836	
2204	0	32816	32722	
2205	0	32772	32812	
2206	0	32834	32864	
2207	0	32802	32836	
2208	0	32868	32666	
2209	0	32844	32739	
2210	0	32828	32760	
2211	0	32840	32737	
2212	0	32780	32702	
2213	0	32800	32820	
2214	0	32830	32879	
2215	0	32824	32742	
2216	0	32800	32684	
2217	0	32816	32792	
2218	0	32776	32804	
2219	0	32816	32732	
2220	0	32782	32728	
2221	0	32810	32718	
2222	0	32808	32784	
2223	0	32788	32704	
2224	0	32846	32734	
2225	0	32864	32775	
2226	0	32784	32804	
2227	0	32842	32729	
2228	0	32732	32706	
2229	0	32800	32775	
2230	0	32832	32686	
2231	0	32796	32788	
2232	0	32804	32724	
2233	0	32756	32796	
2234	0	32828	32743	
2235	0	32852	32814	
2236	0	32836	32836	
2237	0	32818	32799	
2238	0	32830	32830	
2239	0	32810	32724	
2240	0	32810	32774	
2241	0	32836	32814	
2242	0	32808	32645	
2243	0	32838	32775	
2244	0	32777	32802	
2245	0	32808	32790	
2246	0	32831	32714	
2247	0	32814	32862	
2248	0	32808	32752	
2249	0	32760	32670	
2250	0	32824	32808	
2251	0	32748	32766	
2252	0	32774	32722	
2253	0	32820	32708	
2254	0	32828	32775	
2255	0	32844	32880	
2256	0	32804	32798	
2257	0	32772	32806	
2258	0	32846	32759	
2259	0	32868	32858	
2260	0	32792	32692	
2261	0	32820	32807	
2262	0	32804	32792	
2263	0	32838	32738	
2264	0	32844	32748	
2265	0	32832	32710	
2266	0	32876	32788	
2267	0	32870	32672	
2268	0	32828	32711	
2269	0	32868	32658	
2270	0	32888	32712	
2271	0	32912	32568	
2272	0	32860	32552	
2273	0	32876	32512	
2274	0	32852	32434	
2275	0	32840	32498	
2276	0	32824	32542	
2277	0	32820	32514	
2278	0	32900	32406	
2279	0	32796	32488	
2280	0	32840	32487	
2281	0	32808	32605	
2282	0	32820	32528	
2283	0	32784	32660	
2284	0	32728	32660	
2285	0	32760	32806	
2286	0	32712	32842	
2287	0	32732	33010	
2288	0	32664	33159	
2289	0	32664	33258	
2290	0	32632	33428	
2291	0	32558	33502	
2292	0	32560	33528	
2293	0	32518	33522	
2294	0	32600	33646	
2295	0	32612	33606	
2296	0	32680	33564	
2297	0	32714	33376	
2298	0	32712	33204	
2299	0	32740	33018	
2300	0	32820	32770	
2301	0	32854	32577	
2302	0	32800	32598	
2303	0	32872	32470	
2304	0	32912	32292	
2305	0	32968	32342	
2306	0	32956	32292	
2307	0	32872	32388	
2308	0	32920	32282	
2309	0	32900	32356	
2310	0	32916	32384	
2311	0	32900	32487	
2312	0	32796	32463	
2313	0	32906	32524	
2314	0	32908	32591	
2315	0	32886	32472	
2316	0	32864	32655	
2317	0	32884	32752	
2318	0	32874	32679	
2319	0	32944	32726	
2320	0	32860	32815	
2321	0	32920	32820	
2322	0	32942	32791	
2323	0	32836	32832	
2324	0	32836	32864	
2325	0	32904	32815	
2326	0	32856	32868	
2327	0	32796	32879	
2328	0	32846	32804	
2329	0	32808	32884	
2330	0	32761	32813	
2331	0	32820	32848	
2332	0	32812	32775	
2333	0	32816	32753	
2334	0	32844	32832	
2335	0	32714	32788	
2336	0	32856	32942	
2337	0	32784	32671	
2338	0	32806	32760	
2339	0	32834	32772	
2340	0	32778	32686	
2341	0	32772	32724	
2342	0	32732	32756	
2343	0	32812	32812	
2344	0	32761	32678	
2345	0	32776	32775	
2346	0	32824	32748	
2347	0	32804	32740	
2348	0	32784	32756	
2349	0	32804	32754	
2350	0	32792	32774	
2351	0	32822	32710	
2352	0	32824	32724	
2353	0	32852	32712	
2354	0	32756	32782	
2355	0	32812	32799	
2356	0	32764	32858	
2357	0	32786	32791	
2358	0	32782	32804	
2359	0	32852	32680	
2360	0	32788	32748	
2361	0	32784	32692	
2362	0	32804	32794	
2363	0	32840	32684	
2364	0	32760	32796	
2365	0	32772	32852	
2366	0	32858	32775	
2367	0	32786	32794	
2368	0	32792	32734	
2369	0	32822	32838	
2370	0	32846	32708	
2371	0	32790	32690	
2372	0	32868	32852	
2373	0	32792	32698	
2374	0	32790	32814	
2375	0	32780	32835	
2376	0	32816	32711	
2377	0	32824	32824	
2378	0	32814	32762	
2379	0	32824	32726	
2380	0	32790	32853	
2381	0	32822	32838	
2382	0	32840	32647	
2383	0	32840	32832	
2384	0	32776	32812	
2385	0	32772	32710	
2386	0	32760	32856	
2387	0	32836	32774	
2388	0	32808	32724	
2389	0	32854	32705	
2390	0	32788	32775	
2391	0	32800	32806	
2392	0	32821	32726	
2393	0	32868	32911	
2394	0	32874	32775	
2395	0	32768	32638	
2396	0	32799	32836	
2397	0	32848	32828	
2398	0	32824	32791	
2399	0	32826	32724	
2400	0	32846	32760	
2401	0	32748	32775	
2402	0	32840	32855	
2403	0	32856	32700	
2404	0	32796	32712	
2405	0	32870	32800	
2406	0	32738	32788	
2407	0	32836	32734	
2408	0	32804	32706	
2409	0	32820	32722	
2410	0	32790	32684	
2411	0	32800	32740	
2412	0	32816	32814	
2413	0	32822	32844	
2414	0	32824	32722	
2415	0	32822	32792	
2416	0	32768	32814	
2417	0	32856	32684	
2418	0	32816	32753	
2419	0	32752	32774	
2420	0	32837	32775	
2421	0	32798	32656	
2422	0	32832	32807	
2423	0	32802	32752	
2424	0	32786	32834	
2425	0	32764	32702	
2426	0	32880	32775	
2427	0	32794	32724	
2428	0	32878	32806	
2429	0	32792	32695	
2430	0	32824	32860	
2431	0	32800	32790	
2432	0	32828	32797	
2433	0	32816	32708	
2434	0	32780	32799	
2435	0	32828	32772	
2436	0	32808	32828	
2437	0	32844	32698	
2438	0	32780	32858	
2439	0	32852	32769	
2440	0	32764	32758	
2441	0	32784	32726	
2442	0	32856	32856	
2443	0	32808	32796	
2444	0	32872	32692	
2445	0	32840	32711	
2446	0	32790	32775	
2447	0	32832	32794	
2448	0	32808	32743	
2449	0	32768	32700	
2450	0	32872	32775	
2451	0	32808	32844	
2452	0	32840	32744	
2453	0	32840	32794	
2454	0	32830	32744	
2455	0	32850	32722	
2456	0	32888	32836	
2457	0	32836	32724	
2458	0	32792	32807	
2459	0	32780	32718	
2460	0	32832	32876	
2461	0	32732	32775	
2462	0	32784	32722	
2463	0	32756	32838	
2464	0	32864	32798	
2465	0	32807	32820	
2466	0	32808	32666	
2467	0	32762	32800	
2468	0	32820	32846	
2469	0	32808	32788	
2470	0	32834	32728	
2471	0	32826	32678	
2472	0	32844	32756	
2473	0	32848	32804	
2474	0	32812	32766	
2475	0	32858	32735	
2476	0	32821	32737	
2477	0	32796	32832	
2478	0	32848	32764	
2479	0	32812	32689	
2480	0	32817	32836	
2481	0	32808	32808	
2482	0	32756	32692	
2483	0	32780	32672	
2484	0	32832	32783	
2485	0	32752	32716	
2486	0	32846	32812	
2487	0	32840	32654	
2488	0	32806	32644	
2489	0	32836	32804	
2490	0	32812	32784	
2491	0	32788	32838	
2492	0	32756	32801	
2493	0	32840	32791	
2494	0	32788	32788	
2495	0	32848	32794	
2496	0	32892	32858	
2497	0	32816	32800	
2498	0	32772	32734	
2499	0	32820	32828	
2500	0	32850	32764	
2501	0	32812	32830	
2502	0	32868	32734	
2503	0	32786	32793	
2504	0	32834	32702	
2505	0	32812	32810	
2506	0	32804	32730	
2507	0	32756	32748	
2508	0	32792	32800	
2509	0	32816	32756	
2510	0	32808	32748	
2511	0	32762	32716	
2512	0	32828	32823	
2513	0	32816	32762	
2514	0	32860	32832	
2515	0	32808	32702	
2516	0	32774	32816	
2517	0	32836	32806	
2518	0	32764	32775	
2519	0	32820	32672	
2520	0	32848	32848	
2521	0	32804	32738	
2522	0	32820	32762	
2523	0	32808	32739	
2524	0	32796	32770	
2525	0	32820	32742	
2526	0	32816	32818	
2527	0	32786	32740	
2528	0	32812	32860	
2529	0	32820	32826	
2530	0	32792	32698	
2531	0	32842	32804	
2532	0	32779	32885	
2533	0	32736	32804	
2534	0	32792	32740	
2535	0	32824	32878	
2536	0	32820	32810	
2537	0	32832	32820	
2538	0	32804	32755	
2539	0	32856	32792	
2540	0	32830	32732	
2541	0	32804	32668	
2542	0	32796	32714	
2543	0	32776	32738	
2544	0	32820	32808	
2545	0	32752	32680	
2546	0	32796	32711	
2547	0	32844	32708	
2548	0	32704	32758	
2549	0	32840	32743	
2550	0	32818	32654	
2551	0	32840	32740	
2552	0	32836	32766	
2553	0	32778	32820	
2554	0	32844	32711	
2555	0	32792	32689	
2556	0	32800	32710	
2557	0	32840	32846	
2558	0	32892	32693	
2559	0	32784	32836	
2560	0	32808	32674	
2561	0	32784	32709	
2562	0	32814	32756	
2563	0	32828	32784	
2564	0	32810	32804	
2565	0	32760	32647	
2566	0	32868	32748	
2567	0	32872	32842	
2568	0	32852	32830	
2569	0	32778	32758	
2570	0	32808	32740	
2571	0	32898	32740	
2572	0	32814	32718	
2573	0	32788	32740	
2574	0	32856	32924	
2575	0	32734	32742	
2576	0	32800	32695	
2577	0	32860	32692	
2578	0	32804	32806	
2579	0	32808	32775	
2580	0	32812	32726	
2581	0	32814	32709	
2582	0	32792	32714	
2583	0	32766	32810	
2584	0	32794	32730	
2585	0	32794	32775	
2586	0	32840	32738	
2587	0	32828	32798	
2588	0	32868	32660	
2589	0	32812	32728	
2590	0	32792	32674	
2591	0	32812	32742	
2592	0	32820	32848	
2593	0	32780	32726	
2594	0	32802	32767	
2595	0	32810	32796	
2596	0	32788	32817	
2597	0	32798	32734	
2598	0	32844	32711	
2599	0	32796	32786	
2600	0	32756	32820	
2601	0	32818	32759	
2602	0	32834	32888	
2603	0	32866	32772	
2604	0	32816	32756	
2605	0	32892	32738	
2606	0	32780	32788	
2607	0	32804	32738	
2608	0	32784	32660	
2609	0	32792	32726	
2610	0	32860	32742	
2611	0	32800	32772	
2612	0	32812	32759	
2613	0	32824	32804	
2614	0	32786	32788	
2615	0	32790	32796	
2616	0	32844	32676	
2617	0	32868	32794	
2618	0	32784	32804	
2619	0	32728	32760	
2620	0	32780	32802	
2621	0	32832	32720	
2622	0	32848	32748	
2623	0	32838	32788	
2624	0	32872	32802	
2625	0	32824	32768	
2626	0	32858	32754	
2627	0	32750	32856	
2628	0	32792	32820	
2629	0	32856	32678	
2630	0	32768	32847	
2631	0	32808	32743	
2632	0	32800	32687	
2633	0	32774	32752	
2634	0	32870	32834	
2635	0	32820	32856	
2636	0	32824	32702	
2637	0	32864	32842	
2638	0	32818	32794	
2639	0	32776	32806	
2640	0	32762	32716	
2641	0	32762	32807	
2642	0	32806	32702	
2643	0	32850	32714	
2644	0	32876	32678	
2645	0	32808	32790	
2646	0	32752	32736	
2647	0	32768	32871	
2648	0	32876	32672	
2649	0	32840	32790	
2650	0	32756	32774	
2651	0	32806	32850	
2652	0	32832	32666	
2653	0	32784	32834	
2654	0	32828	32810	
2655	0	32748	32775	
2656	0	32820	32738	
2657	0	32872	32827	
2658	0	32828	32775	
2659	0	32738	32740	
2660	0	32788	32790	
2661	0	32764	32753	
2662	0	32928	32754	
2663	0	32820	32860	
2664	0	32808	32820	
2665	0	32808	32754	
2666	0	32836	32702	
2667	0	32748	32760	
2668	0	32824	32830	
2669	0	32776	32622	
2670	0	32844	32798	
2671	0	32788	32748	
2672	0	32814	32679	
2673	0	32834	32844	
2674	0	32810	32848	
2675	0	32802	32822	
2676	0	32852	32788	
2677	0	32880	32772	
2678	0	32736	32693	
2679	0	32824	32734	
2680	0	32880	32796	
2681	0	32836	32743	
2682	0	32820	32853	
2683	0	32812	32705	
2684	0	32856	32746	
2685	0	32780	32775	
2686	0	32816	32845	
2687	0	32796	32766	
2688	0	32832	32754	
2689	0	32806	32682	
2690	0	32864	32668	
2691	0	32788	32768	
2692	0	32752	32748	
2693	0	32828	32738	
2694	0	32804	32759	
2695	0	32802	32688	
2696	0	32856	32788	
2697	0	32816	32727	
2698	0	32774	32796	
2699	0	32800	32768	
2700	0	32806	32678	
2701	0	32824	32715	
2702	0	32800	32806	
2703	0	32821	32716	
2704	0	32788	32819	
2705	0	32808	32732	
2706	0	32770	32718	
2707	0	32772	32746	
2708	0	32888	32835	
2709	0	32840	32694	
2710	0	32798	32760	
2711	0	32824	32742	
2712	0	32848	32796	
2713	0	32768	32879	
2714	0	32790	32800	
2715	0	32752	32734	
2716	0	32824	32824	
2717	0	32804	32826	
2718	0	32834	32819	
2719	0	32808	32784	
2720	0	32840	32689	
2721	0	32798	32706	
2722	0	32780	32820	
2723	0	32744	32810	
2724	0	32828	32647	
2725	0	32842	32688	
2726	0	32854	32842	
2727	0	32844	32788	
2728	0	32812	32824	
2729	0	32828	32816	
2730	0	32762	32708	
2731	0	32760	32798	
2732	0	32824	32806	
2733	0	32816	32700	
2734	0	32764	32836	
2735	0	32799	32764	
2736	0	32810	32775	
2737	0	32776	32708	
2738	0	32828	32843	
2739	0	32760	32832	
2740	0	32740	32720	
2741	0	32866	32730	
2742	0	32830	32775	
2743	0	32828	32830	
2744	0	32836	32710	
2745	0	32850	32703	
2746	0	32826	32804	
2747	0	32768	32718	
2748	0	32832	32724	
2749	0	32816	32700	
2750	0	32820	32662	
2751	0	32785	32820	
2752	0	32826	32762	
2753	0	32764	32839	
2754	0	32808	32738	
2755	0	32808	32804	
2756	0	32792	32736	
2757	0	32748	32775	
2758	0	32826	32736	
2759	0	32812	32737	
2760	0	32840	32798	
2761	0	32808	32799	
2762	0	32820	32768	
2763	0	32872	32702	
2764	0	32864	32688	
2765	0	32828	32667	
2766	0	32792	32808	
2767	0	32802	32790	
2768	0	32812	32871	
2769	0	32849	32756	
2770	0	32784	32718	
2771	0	32798	32700	
2772	0	32792	32838	
2773	0	32812	32760	
2774	0	32778	32852	
2775	0	32792	32774	
2776	0	32868	32751	
2777	0	32844	32742	
2778	0	32856	32766	
2779	0	32800	32792	
2780	0	32814	32734	
2781	0	32840	32728	
2782	0	32820	32711	
2783	0	32854	32758	
2784	0	32796	32802	
2785	0	32812	32818	
2786	0	32828	32862	
2787	0	32794	32775	
2788	0	32820	32720	
2789	0	32736	32663	
2790	0	32832	32764	
2791	0	32824	32828	
2792	0	32820	32804	
2793	0	32896	32844	
2794	0	32848	32837	
2795	0	32832	32719	
2796	0	32760	32679	
2797	0	32854	32836	
2798	0	32808	32772	
2799	0	32844	32826	
2800	0	32782	32834	
2801	0	32856	32720	
2802	0	32816	32712	
2803	0	32808	32812	
2804	0	32826	32738	
2805	0	32848	32794	
2806	0	32780	32710	
2807	0	32820	32666	
2808	0	32834	32726	
2809	0	32856	32796	
2810	0	32884	32790	
2811	0	32778	32700	
2812	0	32804	32736	
2813	0	32858	32796	
2814	0	32810	32772	
2815	0	32808	32725	
2816	0	32832	32756	
2817	0	32832	32802	
2818	0	32862	32772	
2819	0	32820	32864	
2820	0	32776	32815	
2821	0	32768	32724	
2822	0	32732	32708	
2823	0	32760	32863	
2824	0	32866	32696	
2825	0	32784	32823	
2826	0	32832	32770	
2827	0	32826	32816	
2828	0	32802	32606	
2829	0	32854	32736	
2830	0	32816	32775	
2831	0	32772	32830	
2832	0	32808	32807	
2833	0	32818	32704	
2834	0	32768	32862	
2835	0	32828	32799	
2836	0	32836	32804	
2837	0	32786	32686	
2838	0	32836	32840	
2839	0	32778	32798	
2840	0	32792	32814	
2841	0	32796	32700	
2842	0	32832	32767	
2843	0	32736	32838	
2844	0	32800	32756	
2845	0	32868	32775	
2846	0	32814	32802	
2847	0	32756	32771	
2848	0	32816	32672	
2849	0	32760	32830	
2850	0	32830	32802	
2851	0	32808	32788	
2852	0	32834	32822	
2853	0	32838	32760	
2854	0	32752	32820	
2855	0	32824	32792	
2856	0	32796	32698	
2857	0	32832	32684	
2858	0	32808	32844	
2859	0	32854	32794	
2860	0	32810	32790	
2861	0	32832	32774	
2862	0	32774	32711	
2863	0	32828	32644	
2864	0	32834	32740	
2865	0	32810	32841	
2866	0	32822	32810	
2867	0	32820	32790	
2868	0	32858	32808	
2869	0	32750	32775	
2870	0	32868	32638	
2871	0	32836	32826	
2872	0	32824	32732	
2873	0	32828	32826	
2874	0	32800	32638	
2875	0	32836	32676	
2876	0	32842	32814	
2877	0	32776	32812	
2878	0	32832	32634	
2879	0	32806	32724	
2880	0	32812	32772	
2881	0	32852	32748	
2882	0	32790	32818	
2883	0	32824	32748	
2884	0	32768	32718	
2885	0	32738	32826	
2886	0	32824	32746	
2887	0	32776	32882	
2888	0	32782	32730	
2889	0	32812	32832	
2890	0	32852	32812	
2891	0	32792	32815	
2892	0	32862	32742	
2893	0	32768	32816	
2894	0	32808	32742	
2895	0	32796	32756	
2896	0	32816	32775	
2897	0	32836	32714	
2898	0	32742	32822	
2899	0	32828	32724	
2900	0	32844	32844	
2901	0	32868	32700	
2902	0	32837	32676	
2903	0	32804	32784	
2904	0	32828	32775	
2905	0	32768	32756	
2906	0	32832	32732	
2907	0	32828	32646	
2908	0	32798	32784	
2909	0	32798	32720	
2910	0	32746	32830	
2911	0	32832	32696	
2912	0	32874	32678	
2913	0	32774	32882	
2914	0	32828	32807	
2915	0	32840	32752	
2916	0	32796	32670	
2917	0	32768	32720	
2918	0	32816	32859	
2919	0	32822	32807	
2920	0	32784	32818	
2921	0	32752	32748	
2922	0	32824	32799	
2923	0	32800	32824	
2924	0	32780	32788	
2925	0	32834	32764	
2926	0	32820	32716	
2927	0	32804	32758	
2928	0	32752	32806	
2929	0	32844	32885	
2930	0	32796	32786	
2931	0	32808	32742	
2932	0	32800	32828	
2933	0	32826	32799	
2934	0	32869	32844	
2935	0	32806	32775	
2936	0	32830	32684	
2937	0	32808	32699	
2938	0	32850	32775	
2939	0	32872	32774	
2940	0	32768	32828	
2941	0	32878	32706	
2942	0	32794	32656	
2943	0	32888	32760	
2944	0	32848	32775	
2945	0	32876	32798	
2946	0	32864	32614	
2947	0	32932	32560	
2948	0	32844	32682	
2949	0	32908	32646	
2950	0	32870	32592	
2951	0	32852	32519	
2952	0	32848	32486	
2953	0	32842	32559	
2954	0	32816	32592	
2955	0	32828	32583	
2956	0	32864	32582	
2957	0	32846	32484	
2958	0	32844	32444	
2959	0	32816	32602	
2960	0	32800	32562	
2961	0	32768	32600	
2962	0	32802	32711	
2963	0	32736	32720	
2964	0	32810	32770	
2965	0	32760	32964	
2966	0	32684	33135	
2967	0	32688	33274	
2968	0	32654	33302	
2969	0	32558	33423	
2970	0	32568	33492	
2971	0	32564	33534	
2972	0	32612	33606	
2973	0	32668	33434	
2974	0	32716	33518	
2975	0	32668	33340	
2976	0	32732	33198	
2977	0	32804	32943	
2978	0	32740	32808	
2979	0	32824	32694	
2980	0	32904	32532	
2981	0	32860	32513	
2982	0	32856	32383	
2983	0	32888	32314	
2984	0	32880	32398	
2985	0	32920	32455	
2986	0	32876	32420	
2987	0	32972	32423	
2988	0	32944	32447	
2989	0	32900	32400	
2990	0	32888	32556	
2991	0	32858	32530	
2992	0	32918	32560	
2993	0	32840	32662	
2994	0	32884	32578	
2995	0	32890	32644	
2996	0	32896	32850	
2997	0	32876	32744	
2998	0	32848	32870	
2999	0	32884	32687	
3000	0	32860	32716	
3001	0	32832	32775	
3002	0	32868	32828	
3003	0	32820	32775	
3004	0	32860	32792	
3005	0	32912	32692	
3006	0	32856	32824	
3007	0	32804	32766	
3008	0	32816	32812	
3009	0	32744	32750	
3010	0	32790	32862	
3011	0	32762	32762	
3012	0	32808	32810	
3013	0	32786	32732	
3014	0	32808	32804	
3015	0	32816	32811	
3016	0	32732	32767	
3017	0	32786	32834	
3018	0	32794	32754	
3019	0	32828	32847	
3020	0	32756	32708	
3021	0	32776	32708	
3022	0	32773	32768	
3023	0	32814	32768	
3024	0	32842	32775	
3025	0	32798	32752	
3026	0	32798	32818	
3027	0	32756	32788	
3028	0	32888	32775	
3029	0	32816	32734	
3030	0	32766	32789	
3031	0	32736	32732	
3032	0	32804	32748	
3033	0	32816	32662	
3034	0	32848	32750	
3035	0	32828	32862	
3036	0	32828	32843	
3037	0	32880	32710	
3038	0	32772	32764	
3039	0	32824	32752	
3040	0	32808	32770	
3041	0	32808	32684	
3042	0	32812	32774	
3043	0	32832	32775	
3044	0	32848	32775	
3045	0	32846	32655	
3046	0	32780	32743	
3047	0	32760	32768	
3048	0	32812	32791	
3049	0	32792	32710	
3050	0	32808	32823	
3051	0	32844	32802	
3052	0	32842	32718	
3053	0	32728	32889	
3054	0	32792	32870	
3055	0	32860	32698	
3056	0	32716	32812	
3057	0	32824	32895	
3058	0	32804	32728	
3059	0	32834	32812	
3060	0	32806	32784	
3061	0	32812	32834	
3062	0	32784	32668	
3063	0	32824	32820	
3064	0	32846	32726	
3065	0	32862	32814	
3066	0	32844	32647	
3067	0	32778	32804	
3068	0	32804	32732	
3069	0	32830	32804	
3070	0	32786	32730	
3071	0	32782	32770	
3072	0	32800	32796	
3073	0	32832	32724	
3074	0	32790	32828	
3075	0	32836	32800	
3076	0	32828	32725	
3077	0	32734	32647	
3078	0	32822	32830	
3079	0	32804	32872	
3080	0	32774	32688	
3081	0	32868	32726	
3082	0	32814	32860	
3083	0	32806	32784	
3084	0	32742	32771	
3085	0	32844	32796	
3086	0	32868	32720	
3087	0	32828	32896	
3088	0	32798	32775	
3089	0	32764	32775	
3090	0	32784	32750	
3091	0	32854	32852	
3092	0	32744	32766	
3093	0	32804	32782	
3094	0	32874	32698	
3095	0	32848	32722	
3096	0	32804	32743	
3097	0	32888	32775	
3098	0	32826	32862	
3099	0	32816	32678	
3100	0	32842	32780	
3101	0	32840	32766	
3102	0	32780	32734	
3103	0	32824	32728	
3104	0	32780	32743	
3105	0	32810	32806	
3106	0	32796	32768	
3107	0	32768	32788	
3108	0	32794	32796	
3109	0	32840	32682	
3110	0	32800	32680	
3111	0	32836	32773	
3112	0	32792	32878	
3113	0	32832	32682	
3114	0	32858	32870	
3115	0	32820	32763	
3116	0	32782	32739	
3117	0	32852	32752	
3118	0	32812	32804	
3119	0	32770	32828	
3120	0	32764	32692	
3121	0	32820	32892	
3122	0	32824	32738	
3123	0	32856	32838	
3124	0	32828	32644	
3125	0	32786	32854	
3126	0	32876	32752	
3127	0	32800	32815	
3128	0	32798	32742	
3129	0	32804	32752	
3130	0	32838	32775	
3131	0	32786	32794	
3132	0	32759	32654	
3133	0	32876	32692	
3134	0	32808	32820	
3135	0	32817	32804	
3136	0	32840	32730	
3137	0	32724	32868	
3138	0	32788	32870	
3139	0	32800	32710	
3140	0	32820	32655	
3141	0	32868	32814	
3142	0	32756	32791	
3143	0	32804	32775	
3144	0	32820	32772	
3145	0	32744	32764	
3146	0	32828	32724	
3147	0	32824	32680	
3148	0	32753	32828	
3149	0	32852	32756	
3150	0	32842	32775	
3151	0	32775	32734	
3152	0	32856	32836	
3153	0	32784	32831	
3154	0	32834	32718	
3155	0	32824	32792	
3156	0	32852	32768	
3157	0	32796	32686	
3158	0	32884	32837	
3159	0	32798	32817	
3160	0	32796	32718	
3161	0	32834	32726	
3162	0	32792	32879	
3163	0	32808	32816	
3164	0	32834	32736	
3165	0	32814	32738	
3166	0	32804	32746	
3167	0	32812	32740	
3168	0	32804	32762	
3169	0	32852	32870	
3170	0	32776	32808	
3171	0	32856	32886	
3172	0	32756	32674	
3173	0	32774	32687	
3174	0	32808	32712	
3175	0	32708	32834	
3176	0	32824	32742	
3177	0	32876	32814	
3178	0	32804	32756	
3179	0	32824	32714	
3180	0	32816	32724	
3181	0	32834	32830	
3182	0	32834	32760	
3183	0	32854	32806	
3184	0	32832	32838	
3185	0	32801	32748	
3186	0	32734	32730	
3187	0	32820	32775	
3188	0	32848	32852	
3189	0	32824	32746	
3190	0	32888	32680	
3191	0	32758	32618	
3192	0	32788	32775	
3193	0	32754	32775	
3194	0	32800	32839	
3195	0	32784	32711	
3196	0	32808	32792	
3197	0	32880	32820	
3198	0	32796	32750	
3199	0	32782	32839	
3200	0	32802	32820	
3201	0	32792	32775	
3202	0	32880	32756	
3203	0	32756	32786	
3204	0	32800	32760	
3205	0	32804	32876	
3206	0	32788	32841	
3207	0	32812	32735	
3208	0	32816	32796	
3209	0	32824	32769	
3210	0	32852	32822	
3211	0	32776	32750	
3212	0	32772	32788	
3213	0	32798	32703	
3214	0	32780	32737	
3215	0	32814	32816	
3216	0	32888	32764	
3217	0	32868	32752	
3218	0	32768	32726	
3219	0	32764	32698	
3220	0	32806	32884	
3221	0	32784	32775	
3222	0	32770	32775	
3223	0	32828	32670	
3224	0	32844	32742	
3225	0	32784	32774	
3226	0	32806	32872	
3227	0	32812	32806	
3228	0	32804	32806	
3229	0	32832	32766	
3230	0	32774	32660	
3231	0	32768	32928	
3232	0	32776	32718	
3233	0	32812	32858	
3234	0	32778	32740	
3235	0	32746	32860	
3236	0	32706	32786	
3237	0	32750	32810	
3238	0	32768	32796	
3239	0	32744	32810	
3240	0	32884	32708	
3241	0	32958	32650	
3242	0	32832	32850	
3243	0	32940	32692	
3244	0	32900	32712	
3245	0	32876	32668	
3246	0	32914	32658	
3247	0	32912	32844	
3248	0	32958	32804	
3249	0	32846	32734	
3250	0	32768	32734	
3251	0	32788	32812	
3252	0	32816	32705	
3253	0	32716	32647	
3254	0	32756	32775	
3255	0	32760	32862	
3256	0	32804	32802	
3257	0	32740	32711	
3258	0	32764	32692	
3259	0	32802	32740	
3260	0	32768	32775	
3261	0	32802	32670	
3262	0	32890	32698	
3263	0	32788	32818	
3264	0	32800	32775	
3265	0	32894	32740	
3266	0	32834	32816	
3267	0	32816	32756	
3268	0	32816	32647	
3269	0	32836	32711	
3270	0	32828	32775	
3271	0	32804	32840	
3272	0	32732	32750	
3273	0	32838	32762	
3274	0	32832	32755	
3275	0	32772	32775	
3276	0	32776	32744	
3277	0	32812	32748	
3278	0	32804	32842	
3279	0	32870	32732	
3280	0	32810	32775	
3281	0	32864	32774	
3282	0	32784	32728	
3283	0	32788	32728	
3284	0	32804	32844	
3285	0	32784	32842	
3286	0	32804	32788	
3287	0	32748	32668	
3288	0	32852	32682	
3289	0	32804	32870	
3290	0	32826	32744	
3291	0	32840	32756	
3292	0	32806	32826	
3293	0	32816	32818	
3294	0	32798	32708	
3295	0	32782	32775	
3296	0	32776	32716	
3297	0	32772	32804	
3298	0	32844	32768	
3299	0	32840	32788	
3300	0	32814	32695	
3301	0	32780	32844	
3302	0	32776	32775	
3303	0	32930	32674	
3304	0	32836	32814	
3305	0	32808	32798	
3306	0	32824	32862	
3307	0	32748	32828	
3308	0	32810	32938	
3309	0	32812	32869	
3310	0	32832	32757	
3311	0	32776	32720	
3312	0	32832	32775	
3313	0	32820	32884	
3314	0	32820	32852	
3315	0	32808	32810	
3316	0	32794	32725	
3317	0	32860	32606	
3318	0	32800	32764	
3319	0	32772	32738	
3320	0	32820	32815	
3321	0	32888	32796	
3322	0	32824	32746	
3323	0	32784	32646	
3324	0	32824	32684	
3325	0	32792	32804	
3326	0	32784	32810	
3327	0	32836	32708	
3328	0	32772	32756	
3329	0	32776	32692	
3330	0	32804	32682	
3331	0	32808	32674	
3332	0	32780	32772	
3333	0	32792	32790	
3334	0	32800	32862	
3335	0	32848	32826	
3336	0	32840	32871	
3337	0	32788	32924	
3338	0	32792	32832	
3339	0	32814	32838	
3340	0	32810	32712	
3341	0	32836	32688	
3342	0	32785	32708	
3343	0	32852	32682	
3344	0	32792	32846	
3345	0	32848	32756	
3346	0	32856	32662	
3347	0	32792	32810	
3348	0	32828	32654	
3349	0	32804	32686	
3350	0	32816	32720	
3351	0	32780	32768	
3352	0	32784	32700	
3353	0	32804	32796	
3354	0	32836	32870	
3355	0	32846	32775	
3356	0	32760	32812	
3357	0	32832	32730	
3358	0	32802	32618	
3359	0	32776	32742	
3360	0	32841	32764	
3361	0	32842	32826	
3362	0	32750	32764	
3363	0	32810	32726	
3364	0	32762	32794	
3365	0	32804	32806	
3366	0	32872	32740	
3367	0	32804	32772	
3368	0	32824	32860	
3369	0	32786	32842	
3370	0	32824	32724	
3371	0	32810	32788	
3372	0	32826	32839	
3373	0	32856	32847	
3374	0	32836	32768	
3375	0	32777	32671	
3376	0	32826	32666	
3377	0	32772	32644	
3378	0	32808	32790	
3379	0	32870	32734	
3380	0	32838	32806	
3381	0	32784	32712	
3382	0	32796	32725	
3383	0	32820	32862	
3384	0	32772	32895	
3385	0	32852	32920	
3386	0	32832	32758	
3387	0	32792	32804	
3388	0	32792	32796	
3389	0	32802	32740	
3390	0	32740	32823	
3391	0	32804	32744	
3392	0	32832	32728	
3393	0	32840	32668	
3394	0	32856	32742	
3395	0	32828	32694	
3396	0	32862	32630	
3397	0	32768	32771	
3398	0	32816	32775	
3399	0	32760	32860	
3400	0	32820	32740	
3401	0	32820	32754	
3402	0	32800	32838	
3403	0	32812	32759	
3404	0	32768	32838	
3405	0	32760	32695	
3406	0	32816	32704	
3407	0	32814	32752	
3408	0	32818	32813	
3409	0	32852	32748	
3410	0	32776	32858	
3411	0	32792	32775	
3412	0	32785	32732	
3413	0	32836	32828	
3414	0	32856	32786	
3415	0	32840	32800	
3416	0	32788	32632	
3417	0	32848	32734	
3418	0	32828	32756	
3419	0	32850	32839	
3420	0	32848	32804	
3421	0	32860	32766	
3422	0	32862	32696	
3423	0	32808	32636	
3424	0	32800	32744	
3425	0	32800	32750	
3426	0	32816	32784	
3427	0	32756	32682	
3428	0	32818	32758	
3429	0	32824	32728	
3430	0	32814	32834	
3431	0	32804	32678	
3432	0	32808	32816	
3433	0	32764	32742	
3434	0	32824	32820	
3435	0	32808	32816	
3436	0	32812	32742	
3437	0	32836	32884	
3438	0	32760	32876	
3439	0	32816	32788	
3440	0	32852	32919	
3441	0	32822	32855	
3442	0	32792	32751	
3443	0	32788	32894	
3444	0	32806	32746	
3445	0	32832	32838	
3446	0	32732	32618	
3447	0	32840	32610	
3448	0	32828	32839	
3449	0	32824	32740	
3450	0	32788	32836	
3451	0	32826	32740	
3452	0	32792	32718	
3453	0	32804	32714	
3454	0	32840	32784	
3455	0	32780	32814	
3456	0	32856	32686	
3457	0	32841	32478	
3458	0	32852	32432	
3459	0	32784	32812	
3460	0	32800	33044	
3461	0	32808	32870	
3462	0	32784	32750	
3463	0	32830	32798	
3464	0	32800	32692	
3465	0	32748	32832	
3466	0	32802	32858	
3467	0	32804	32863	
3468	0	32840	32838	
3469	0	32792	32720	
3470	0	32740	32878	
3471	0	32866	32828	
3472	0	32860	32788	
3473	0	32816	32856	
3474	0	32780	32804	
3475	0	32824	32686	
3476	0	32760	32926	
3477	0	32808	32734	
3478	0	32886	32711	
3479	0	32858	32802	
3480	0	32800	32646	
3481	0	32884	32741	
3482	0	32788	32650	
3483	0	32792	32728	
3484	0	32808	32622	
3485	0	32754	32646	
3486	0	32756	32748	
3487	0	32834	32764	
3488	0	32784	32766	
3489	0	32820	32682	
3490	0	32844	32788	
3491	0	32820	32824	
3492	0	32795	32844	
3493	0	32832	32863	
3494	0	32828	32858	
3495	0	32876	32956	
3496	0	32840	32892	
3497	0	32832	32884	
3498	0	32776	32712	
3499	0	32786	32802	
3500	0	32824	32726	
3501	0	32804	32746	
3502	0	32728	32672	
3503	0	32804	32775	
3504	0	32752	32750	
3505	0	32850	32647	
3506	0	32816	32662	
3507	0	32852	32745	
3508	0	32853	32796	
3509	0	32852	32646	
3510	0	32804	32749	
3511	0	32836	32726	
3512	0	32754	32836	
3513	0	32830	32759	
3514	0	32826	32710	
3515	0	32828	32660	
3516	0	32825	32606	
3517	0	32816	32888	
3518	0	32848	32952	
3519	0	32808	32770	
3520	0	32802	32868	
3521	0	32804	32854	
3522	0	32852	32903	
3523	0	32824	32764	
3524	0	32818	32720	
3525	0	32782	32738	
3526	0	32752	32868	
3527	0	32764	32660	
3528	0	32864	32764	
3529	0	32768	32716	
3530	0	32824	32808	
3531	0	32806	32756	
3532	0	32776	32683	
3533	0	32864	32818	
3534	0	32776	32812	
3535	0	32812	32692	
3536	0	32808	32664	
3537	0	32836	32790	
3538	0	32808	32750	
3539	0	32792	32872	
3540	0	32816	32750	
3541	0	32796	32912	
3542	0	32810	32784	
3543	0	32924	32796	
3544	0	32944	32744	
3545	0	32612	32625	
3546	0	32710	32769	
3547	0	32864	32818	
3548	0	32828	32756	
3549	0	32804	32740	
3550	0	32840	32836	
3551	0	32832	32839	
3552	0	32796	32838	
3553	0	32736	32688	
3554	0	32816	32800	
3555	0	32812	32804	
3556	0	32772	32834	
3557	0	32758	32788	
3558	0	32816	32614	
3559	0	32788	32440	
3560	0	32768	32674	
3561	0	32754	32975	
3562	0	32868	32900	
3563	0	32840	32772	
3564	0	32804	32592	
3565	0	32910	32714	
3566	0	32892	32712	
3567	0	32816	32804	
3568	0	32780	32916	
3569	0	32740	32689	
3570	0	32832	32710	
3571	0	32836	32823	
3572	0	32780	32788	
3573	0	32848	32792	
3574	0	32828	32740	
3575	0	32790	32758	
3576	0	32844	32708	
3577	0	32776	32718	
3578	0	32732	32692	
3579	0	32820	32768	
3580	0	32894	32588	
3581	0	32796	32644	
3582	0	32808	32730	
3583	0	32868	32895	
3584	0	32852	32804	
3585	0	32776	32756	
3586	0	32878	32849	
3587	0	32820	32792	
3588	0	32848	32898	
3589	0	32762	32756	
3590	0	32790	32760	
3591	0	32772	32910	
3592	0	32812	32788	
3593	0	32844	32743	
3594	0	32786	32766	
3595	0	32764	32622	
3596	0	32922	32628	
3597	0	32820	32704	
3598	0	32778	32732	
3599	0	32832	32733	
3600	0	32849	32890	
3601	0	32842	32740	
3602	0	32744	32732	
3603	0	32832	32774	
3604	0	32864	32854	
3605	0	32944	32836	
3606	0	32844	32896	
3607	0	32716	32695	
3608	0	32766	32850	
3609	0	32820	32897	
3610	0	32776	32806	
3611	0	32840	32830	
3612	0	32792	32856	
3613	0	32760	32814	
3614	0	32784	32775	
3615	0	32756	32796	
3616	0	32856	32716	
3617	0	32774	32798	
3618	0	32772	32694	
3619	0	32892	32670	
3620	0	32808	32673	
3621	0	32800	32718	
3622	0	32778	32682	
3623	0	32814	32540	
3624	0	32880	32796	
3625	0	32772	32954	
3626	0	32948	32841	
3627	0	32856	32775	
3628	0	32740	32722	
3629	0	32738	32852	
3630	0	32728	32886	
3631	0	32808	32800	
3632	0	32832	32706	
3633	0	32840	32874	
3634	0	32826	32736	
3635	0	32796	32772	
3636	0	32822	32738	
3637	0	32870	32704	
3638	0	32856	32704	
3639	0	32847	32750	
3640	0	32932	32762	
3641	0	32868	32706	
3642	0	32944	32730	
3643	0	32860	32418	
3644	0	32824	32336	
3645	0	32780	32630	
3646	0	32880	32938	
3647	0	33018	32599	
3648	0	32822	32629	
3649	0	32666	32434	
3650	0	32836	32340	
3651	0	32936	32388	
3652	0	32948	32527	
3653	0	32844	32583	
3654	0	32934	32640	
3655	0	32650	32500	
3656	0	32848	32551	
3657	0	32644	32791	
3658	0	32792	32791	
3659	0	32660	32965	
3660	0	32722	32996	
3661	0	32754	33004	
3662	0	32728	33172	
3663	0	32652	33312	
3664	0	32424	33476	
3665	0	32532	33556	
3666	0	32420	33422	
3667	0	32634	33628	
3668	0	32704	33460	
3669	0	32756	33287	
3670	0	32592	33148	
3671	0	32486	33230	
3672	0	32638	33031	
3673	0	32758	32862	
3674	0	32842	32724	
3675	0	32840	32586	
3676	0	32762	32384	
3677	0	32900	32516	
3678	0	32980	32380	
3679	0	32948	32388	
3680	0	33012	32367	
3681	0	33084	32506	
3682	0	33186	32405	
3683	0	32822	32544	
3684	0	32704	32542	
3685	0	32964	32512	
3686	0	32808	32576	
3687	0	32948	32628	
3688	0	32856	32708	
3689	0	32648	32722	
3690	0	32810	32756	
3691	0	32806	32743	
3692	0	32960	32708	
3693	0	32964	32735	
3694	0	33304	32711	
3695	0	32868	32855	
3696	0	32792	32741	
3697	0	32780	32682	
3698	0	32936	32775	
3699	0	32908	32716	
3700	0	32740	32758	
3701	0	32752	32708	
3702	0	32956	32764	
3703	0	32634	32862	
3704	0	32660	32871	
3705	0	32774	32796	
3706	0	32844	32754	
3707	0	32816	32844	
3708	0	32652	32866	
3709	0	32856	32790	
3710	0	32591	32770	
3711	0	32804	32853	
3712	0	32704	32820	
3713	0	32764	32760	
3714	0	32700	32632	
3715	0	32788	32756	
3716	0	32950	32796	
3717	0	32838	32740	
3718	0	32968	32860	
3719	0	32842	32748	
3720	0	32676	32752	
3721	0	32764	32878	
3722	0	32846	32722	
3723	0	32764	32860	
3724	0	32824	32798	
3725	0	32812	32618	
3726	0	32768	32728	
3727	0	32726	32676	
3728	0	32966	32730	
3729	0	32932	32770	
3730	0	32806	32734	
3731	0	32816	32703	
3732	0	32708	32628	
3733	0	32700	32578	
3734	0	32808	32917	
3735	0	32768	32982	
3736	0	32856	32920	
3737	0	32772	32900	
3738	0	32780	32788	
3739	0	32964	32720	
3740	0	32856	32764	
3741	0	32836	32876	
3742	0	32856	32772	
3743	0	32814	32808	
3744	0	32770	32710	
3745	0	32954	32602	
3746	0	33048	32472	
3747	0	32904	32982	
3748	0	32662	33140	
3749	0	32944	32834	
3750	0	32824	32954	
3751	0	32816	32842	
3752	0	32544	32752	
3753	0	32924	32706	
3754	0	32676	32822	
3755	0	32636	32910	
3756	0	32740	32886	
3757	0	32814	32888	
3758	0	32742	32718	
3759	0	32766	32620	
3760	0	32830	32626	
3761	0	32772	32608	
3762	0	32768	32570	
3763	0	32790	32578	
3764	0	32852	32436	
3765	0	32864	32620	
3766	0	32816	32498	
3767	0	33004	32704	
3768	0	32752	32575	
3769	0	32684	32699	
3770	0	32804	32888	
3771	0	32830	32910	
3772	0	32844	32859	
3773	0	32996	32871	
3774	0	32820	32900	
3775	0	32800	32967	
3776	0	32900	32854	
3777	0	32724	32839	
3778	0	32846	32950	
3779	0	32774	32910	
3780	0	32678	32942	
3781	0	32696	32802	
3782	0	32800	32680	
3783	0	32864	32752	
3784	0	32872	32736	
3785	0	32880	32678	
3786	0	32692	32879	
3787	0	32742	32786	
3788	0	32806	32647	
3789	0	32948	32612	
3790	0	32778	32688	
3791	0	32882	32748	
3792	0	32776	32626	
3793	0	33006	32646	
3794	0	33034	32675	
3795	0	32840	32766	
3796	0	32820	32796	
3797	0	32568	32694	
3798	0	33008	32775	
3799	0	32994	32862	
3800	0	32732	32810	
3801	0	32724	32769	
3802	0	32796	32855	
3803	0	32644	32812	
3804	0	32804	32775	
3805	0	32772	32695	
3806	0	32820	32830	
3807	0	32908	32788	
3808	0	32654	32638	
3809	0	32764	32804	
3810	0	32768	32700	
3811	0	32744	32806	
3812	0	32776	32722	
3813	0	32798	32798	
3814	0	32846	32720	
3815	0	32792	32740	
3816	0	33064	32790	
3817	0	32732	32828	
3818	0	32664	32686	
3819	0	32732	32820	
3820	0	32832	32830	
3821	0	32868	32862	
3822	0	32842	32858	
3823	0	32804	32956	
3824	0	32898	32858	
3825	0	33116	32880	
3826	0	32868	32710	
3827	0	32678	32735	
3828	0	32718	32832	
3829	0	32782	32818	
3830	0	32812	32736	
3831	0	32714	32700	
3832	0	32948	32660	
3833	0	33084	32681	
3834	0	32716	32830	
3835	0	32868	32684	
3836	0	32772	32810	
3837	0	32986	32768	
3838	0	32928	32834	
3839	0	32836	32664	
3840	0	32562	32610	
3841	0	32620	32808	
3842	0	32552	32808	
3843	0	32738	32446	
3844	0	32892	32934	
3845	0	32980	33076	
3846	0	32816	32871	
3847	0	32752	32657	
3848	0	32864	32583	
3849	0	32862	32736	
3850	0	32818	32606	
3851	0	32984	32552	
3852	0	33076	32720	
3853	0	32484	32676	
3854	0	32682	32584	
3855	0	32654	32775	
3856	0	32760	32812	
3857	0	32794	32790	
3858	0	32736	32672	
3859	0	32796	32734	
3860	0	32848	32724	
3861	0	32793	32575	
3862	0	32760	32818	
3863	0	32748	32902	
3864	0	32980	32744	
3865	0	32884	32847	
3866	0	32618	32743	
3867	0	32924	32726	
3868	0	32836	32822	
3869	0	32836	32932	
3870	0	32820	33018	
3871	0	32820	33031	
3872	0	32806	32756	
3873	0	32812	32879	
3874	0	32854	32790	
3875	0	32892	32812	
3876	0	32880	32698	
3877	0	32880	32862	
3878	0	33080	32722	
3879	0	32816	32872	
3880	0	32644	32668	
3881	0	32660	32775	
3882	0	32868	32726	
3883	0	32696	32680	
3884	0	32640	32775	
3885	0	32750	32711	
3886	0	32890	32804	
3887	0	32816	32912	
3888	0	32628	32966	
3889	0	32774	32748	
3890	0	32904	32654	
3891	0	32788	32566	
3892	0	32768	32712	
3893	0	32964	32748	
3894	0	32800	32972	
3895	0	32740	32775	
3896	0	32938	32854	
3897	0	32884	32698	
3898	0	32950	32890	
3899	0	32900	32775	
3900	0	32566	32813	
3901	0	32748	32632	
3902	0	32620	32740	
3903	0	32824	32792	
3904	0	32812	32647	
3905	0	32834	32752	
3906	0	32772	32826	
3907	0	32848	32732	
3908	0	32764	32852	
3909	0	32708	32766	
3910	0	32740	32715	
3911	0	32804	32868	
3912	0	32800	32841	
3913	0	32748	32720	
3914	0	32806	32726	
3915	0	32804	32704	
3916	0	32812	32748	
3917	0	32764	32871	
3918	0	32844	32812	
3919	0	32908	32774	
3920	0	32872	32794	
3921	0	33054	32830	
3922	0	32665	32839	
3923	0	32684	32791	
3924	0	32812	32764	
3925	0	32932	32810	
3926	0	32916	32866	
3927	0	32706	32726	
3928	0	32900	32988	
3929	0	32800	32900	
3930	0	32694	32814	
3931	0	32872	32420	
3932	0	32856	32775	
3933	0	32744	33138	
3934	0	32720	32806	
3935	0	32752	32733	
3936	0	32812	32564	
3937	0	32970	32662	
3938	0	32912	32716	
3939	0	32793	32574	
3940	0	32676	32522	
3941	0	32810	32711	
3942	0	32904	32704	
3943	0	33028	32572	
3944	0	32944	32606	
3945	0	32676	32698	
3946	0	32900	32726	
3947	0	32908	32696	
3948	0	32660	32600	
3949	0	32836	32590	
3950	0	33056	32734	
3951	0	32992	32968	
3952	0	32656	33054	
3953	0	32560	33159	
3954	0	32568	33136	
3955	0	32956	32974	
3956	0	32820	33030	
3957	0	32816	32880	
3958	0	32844	32759	
3959	0	32596	32598	
3960	0	32984	32656	
3961	0	32748	32479	
3962	0	32648	32480	
3963	0	32720	32626	
3964	0	32820	32806	
3965	0	32662	33030	
3966	0	32884	32984	
3967	0	32744	32780	
3968	0	32844	32906	
3969	0	32722	32882	
3970	0	32746	32804	
3971	0	32910	32676	
3972	0	32812	32615	
3973	0	32801	32498	
3974	0	32876	32354	
3975	0	33036	32300	
3976	0	32929	32604	
3977	0	32962	32764	
3978	0	32738	32716	
3979	0	32876	33018	
3980	0	32932	33078	
3981	0	32760	32988	
3982	0	32594	32989	
3983	0	32666	32894	
3984	0	32786	32810	
3985	0	32744	32791	
3986	0	32926	32688	
3987	0	32700	32674	
3988	0	32696	32580	
3989	0	32784	32590	
3990	0	32922	32650	
3991	0	32940	32404	
3992	0	32942	32302	
3993	0	32898	32424	
3994	0	32856	32775	
3995	0	32556	32868	
3996	0	32640	32882	
3997	0	32752	32974	
3998	0	32936	33048	
3999	0	32932	33056	
4000	0	32864	33024	
4001	0	32574	32960	
4002	0	32746	32806	
4003	0	32904	32772	
4004	0	32808	32734	
4005	0	32792	32682	
4006	0	32726	32758	
4007	0	32796	32679	
4008	0	32942	32708	
4009	0	32764	32704	
4010	0	32924	32792	
4011	0	33028	32917	
4012	0	32788	32870	
4013	0	32740	32802	
4014	0	32740	32804	
4015	0	32744	32700	
4016	0	32840	32838	
4017	0	32852	32792	
4018	0	32904	32666	
4019	0	32992	33118	
4020	0	32676	33126	
4021	0	32724	32719	
4022	0	32944	32716	
4023	0	32865	32538	
4024	0	32800	32480	
4025	0	32948	32332	
4026	0	32726	32524	
4027	0	32996	32684	
4028	0	32860	32610	
4029	0	32776	32812	
4030	0	32680	32567	
4031	0	32748	32844	
4032	0	32776	32910	
4033	0	32920	32735	
4034	0	32556	32606	
4035	0	32843	32816	
4036	0	32848	33040	
4037	0	32782	32980	
4038	0	32680	32976	
4039	0	32668	32766	
4040	0	32856	33166	
4041	0	32772	32918	
4042	0	32966	32668	
4043	0	32808	32534	
4044	0	32560	32597	
4045	0	32816	32775	
4046	0	32920	32740	
4047	0	32932	32591	
4048	0	32804	32542	
4049	0	32820	32702	
4050	0	32812	32788	
4051	0	32800	32896	
4052	0	32742	32903	
4053	0	32836	32724	
4054	0	32800	32696	
4055	0	32970	32791	
4056	0	32872	32830	
4057	0	32786	32858	
4058	0	32680	32732	
4059	0	33072	32720	
4060	0	33226	32700	
4061	0	32548	32880	
4062	0	32648	32800	
4063	0	32610	32864	
4064	0	32804	33018	
4065	0	32775	33031	
4066	0	32856	33068	
4067	0	32804	32880	
4068	0	32676	32728	
4069	0	32756	32775	
4070	0	32748	32814	
4071	0	32853	32775	
4072	0	32990	32640	
4073	0	32754	32508	
4074	0	32604	32478	
4075	0	32740	32486	
4076	0	32912	32596	
4077	0	33054	32420	
4078	0	33058	32702	
4079	0	32800	32824	
4080	0	32697	32697	
4081	0	32548	32742	
4082	0	32890	32814	
4083	0	32954	33367	
4084	0	32832	33038	
4085	0	32616	33108	
4086	0	32554	32862	
4087	0	32716	32668	
4088	0	32770	32342	
4089	0	32932	32262	
4090	0	32904	32552	
4091	0	32792	32408	
4092	0	32888	32356	
4093	0	32936	32208	
4094	0	32822	32924	
4095	0	32792	33194	
4096	0	32864	32960	
4097	0	32784	32988	
4098	0	32776	33287	
4099	0	32804	33479	
4100	0	32868	33352	
4101	0	32872	33204	
4102	0	32938	33068	
4103	0	32892	32679	
4104	0	32954	32732	
4105	0	32728	32512	
4106	0	32504	32460	
4107	0	32716	32344	
4108	0	32610	32090	
4109	0	32632	32135	
4110	0	32732	32222	
4111	0	32804	32230	
4112	0	32786	32586	
4113	0	32804	32774	
4114	0	32836	32832	
4115	0	32938	33070	
4116	0	32874	33150	
4117	0	32836	33157	
4118	0	32880	33282	
4119	0	32936	33191	
4120	0	32888	32980	
4121	0	32821	32740	
4122	0	32816	32615	
4123	0	32860	32732	
4124	0	32726	32790	
4125	0	32798	32895	
4126	0	32996	32632	
4127	0	32938	32674	
4128	0	32772	32580	
4129	0	32784	32543	
4130	0	32542	32459	
4131	0	32874	32756	
4132	0	33105	32866	
4133	0	32694	32824	
4134	0	32676	32722	
4135	0	32762	32630	
4136	0	32744	32874	
4137	0	32804	32956	
4138	0	32784	32932	
4139	0	32766	32794	
4140	0	32774	32702	
4141	0	32924	32608	
4142	0	32800	32558	
4143	0	32760	32582	
4144	0	32836	32638	
4145	0	32870	32612	
4146	0	32864	32792	
4147	0	32798	32804	
4148	0	32760	32743	
4149	0	32736	32926	
4150	0	32908	32952	
4151	0	32820	33087	
4152	0	32622	33004	
4153	0	32784	32932	
4154	0	32776	32930	
4155	0	32844	32854	
4156	0	32864	32922	
4157	0	32910	32734	
4158	0	32834	32912	
4159	0	33032	33028	
4160	0	32886	33030	
4161	0	32694	32774	
4162	0	32854	32628	
4163	0	32724	32840	
4164	0	32820	33124	
4165	0	32844	33348	
4166	0	32676	32775	
4167	0	32760	32282	
4168	0	32874	32007	
4169	0	32824	32024	
4170	0	32660	32220	
4171	0	32742	32068	
4172	0	32840	32146	
4173	0	32826	32390	
4174	0	32930	32706	
4175	0	32822	32590	
4176	0	32770	32897	
4177	0	32852	32948	
4178	0	32738	33127	
4179	0	32876	33070	
4180	0	32928	32956	
4181	0	32824	32980	
4182	0	32602	33364	
4183	0	32924	33330	
4184	0	32764	32910	
4185	0	32792	32858	
4186	0	32912	32810	
4187	0	32936	32856	
4188	0	32948	32842	
4189	0	32840	32854	
4190	0	32556	32698	
4191	0	32708	32752	
4192	0	32820	32626	
4193	0	32990	32630	
4194	0	32708	32538	
4195	0	32620	32642	
4196	0	32832	32654	
4197	0	32650	32623	
4198	0	32834	32741	
4199	0	32660	32838	
4200	0	32866	33159	
4201	0	32936	33110	
4202	0	32916	33094	
4203	0	32890	33014	
4204	0	32912	32983	
4205	0	32812	32806	
4206	0	32766	32758	
4207	0	32726	32653	
4208	0	32804	32646	
4209	0	32956	32397	
4210	0	32796	32361	
4211	0	32572	32436	
4212	0	32920	32492	
4213	0	32872	32654	
4214	0	32884	32720	
4215	0	32748	32742	
4216	0	32706	32896	
4217	0	32762	32894	
4218	0	32760	32816	
4219	0	32800	32928	
4220	0	32756	32860	
4221	0	32780	32790	
4222	0	32790	32748	
4223	0	32796	32862	
4224	0	32904	32750	
4225	0	32948	32636	
4226	0	32824	32655	
4227	0	32688	32576	
4228	0	32764	32684	
4229	0	32908	32568	
4230	0	33016	32784	
4231	0	32638	32952	
4232	0	32748	32775	
4233	0	32792	32778	
4234	0	32926	33046	
4235	0	32868	33074	
4236	0	32932	32956	
4237	0	32780	32774	
4238	0	32718	32564	
4239	0	32948	32536	
4240	0	32780	32484	
4241	0	32786	32468	
4242	0	32858	32516	
4243	0	32814	32620	
4244	0	32910	33024	
4245	0	32686	32980	
4246	0	32740	32990	
4247	0	32752	33024	
4248	0	32830	32954	
4249	0	33036	32775	
4250	0	32764	32775	
4251	0	32922	32854	
4252	0	32698	32932	
4253	0	32764	32935	
4254	0	32768	32940	
4255	0	32736	33306	
4256	0	32766	33159	
4257	0	32824	32890	
4258	0	32584	32760	
4259	0	32836	32418	
4260	0	32872	32223	
4261	0	32736	32378	
4262	0	32752	32496	
4263	0	33052	32500	
4264	0	33064	32206	
4265	0	32652	32314	
4266	0	32648	32898	
4267	0	32832	32836	
4268	0	32764	32704	
4269	0	32800	32738	
4270	0	32806	32790	
4271	0	32850	32676	
4272	0	32726	32836	
4273	0	32826	32938	
4274	0	32764	32832	
4275	0	32768	33060	
4276	0	32842	33060	
4277	0	32932	32986	
4278	0	32908	33024	
4279	0	32712	33078	
4280	0	32776	32903	
4281	0	32948	32902	
4282	0	32960	32748	
4283	0	32854	32616	
4284	0	32716	32460	
4285	0	32804	32484	
4286	0	32752	32414	
4287	0	32662	32654	
4288	0	32704	32450	
4289	0	32994	32596	
4290	0	32944	32794	
4291	0	32784	33156	
4292	0	32816	33426	
4293	0	32748	33511	
4294	0	32736	33506	
4295	0	32816	33143	
4296	0	32888	33080	
4297	0	32908	32672	
4298	0	32814	32628	
4299	0	32736	32460	
4300	0	32692	32314	
4301	0	32774	32167	
4302	0	32874	32030	
4303	0	33290	32110	
4304	0	32738	32047	
4305	0	32774	32706	
4306	0	32464	32704	
4307	0	32672	32796	
4308	0	32892	32936	
4309	0	32752	33022	
4310	0	32756	33046	
4311	0	32754	32999	
4312	0	32758	32696	
4313	0	32759	32597	
4314	0	32884	32758	
4315	0	32912	32646	
4316	0	32832	32672	
4317	0	32842	32748	
4318	0	32662	32974	
4319	0	32944	33121	
4320	0	33008	33159	
4321	0	32916	33228	
4322	0	33080	32866	
4323	0	32876	32774	
4324	0	33297	32856	
4325	0	32820	32871	
4326	0	32704	32836	
4327	0	32778	32638	
4328	0	32910	32314	
4329	0	32828	32332	
4330	0	32726	32064	
4331	0	32740	31770	
4332	0	32640	31694	
4333	0	32896	31518	
4334	0	32716	31594	
4335	0	32704	31918	
4336	0	32820	32263	
4337	0	32876	32830	
4338	0	32912	33122	
4339	0	32764	33256	
4340	0	32820	33530	
4341	0	32722	33396	
4342	0	32624	33895	
4343	0	32652	34051	
4344	0	32532	33696	
4345	0	32484	33988	
4346	0	32598	34062	
4347	0	32666	34336	
4348	0	32680	34068	
4349	0	32688	33910	
4350	0	32696	33600	
4351	0	32740	33318	
4352	0	32749	32912	
4353	0	32772	32486	
4354	0	32824	32448	
4355	0	32852	32602	
4356	0	32838	32169	
4357	0	32712	31954	
4358	0	32932	31982	
4359	0	32886	32240	
4360	0	32836	32088	
4361	0	33008	32188	
4362	0	32802	32124	
4363	0	32848	31984	
4364	0	32876	32198	
4365	0	33002	32296	
4366	0	32942	32286	
4367	0	32880	32428	
4368	0	32920	32524	
4369	0	32744	32828	
4370	0	32868	32924	
4371	0	33001	32812	
4372	0	32816	32950	
4373	0	32908	32866	
4374	0	33088	32692	
4375	0	33116	32938	
4376	0	32752	33132	
4377	0	32520	32943	
4378	0	32798	32830	
4379	0	32832	32624	
4380	0	32748	32876	
4381	0	32868	32926	
4382	0	32848	33014	
4383	0	32880	33198	
4384	0	32808	33311	
4385	0	32832	33526	
4386	0	32696	33270	
4387	0	32708	32865	
4388	0	32732	32220	
4389	0	32872	31784	
4390	0	32620	31762	
4391	0	32752	32020	
4392	0	32768	32068	
4393	0	32834	32388	
4394	0	32840	32596	
4395	0	33052	33002	
4396	0	32868	32863	
4397	0	32774	32804	
4398	0	32852	33014	
4399	0	32812	33228	
4400	0	32936	33146	
4401	0	32736	33287	
4402	0	32704	33287	
4403	0	32664	33092	
4404	0	32752	32981	
4405	0	32760	33006	
4406	0	32854	32970	
4407	0	32788	32671	
4408	0	32852	32305	
4409	0	32852	31816	
4410	0	32860	32140	
4411	0	32864	32877	
4412	0	32716	32820	
4413	0	32768	33138	
4414	0	32892	32988	
4415	0	32754	32802	
4416	0	32728	32656	
4417	0	32724	32447	
4418	0	32796	32528	
4419	0	33132	32382	
4420	0	32888	32596	
4421	0	32556	32572	
4422	0	33004	32432	
4423	0	33168	32640	
4424	0	32848	32736	
4425	0	32736	32945	
4426	0	32632	33016	
4427	0	32760	32968	
4428	0	32732	32864	
4429	0	32682	32980	
4430	0	32732	33026	
4431	0	32748	33046	
4432	0	32698	33134	
4433	0	32816	33274	
4434	0	32766	33499	
4435	0	32924	33799	
4436	0	32788	33329	
4437	0	32824	32735	
4438	0	32820	32402	
4439	0	32930	32304	
4440	0	32804	32194	
4441	0	32784	32476	
4442	0	32896	32162	
4443	0	32906	32112	
4444	0	32860	32164	
4445	0	32580	32387	
4446	0	32970	32631	
4447	0	32984	32320	
4448	0	32818	32496	
4449	0	32352	32695	
4450	0	32852	33096	
4451	0	33076	32948	
4452	0	32776	33094	
4453	0	32632	32956	
4454	0	32856	33270	
4455	0	32824	33116	
4456	0	32960	33102	
4457	0	32756	33120	
4458	0	32716	33248	
4459	0	32776	33044	
4460	0	32840	32984	
4461	0	32886	32666	
4462	0	32724	32583	
4463	0	32864	32378	
4464	0	32844	32470	
4465	0	32918	32487	
4466	0	32810	32702	
4467	0	32780	32493	
4468	0	32796	32730	
4469	0	32788	32775	
4470	0	32764	32806	
4471	0	32886	32750	
4472	0	32828	32762	
4473	0	32736	32688	
4474	0	32868	32558	
4475	0	32836	32423	
4476	0	32982	32398	
4477	0	32768	32295	
4478	0	32670	32408	
4479	0	32764	32860	
4480	0	32908	33008	
4481	0	32848	33284	
4482	0	32586	33071	
4483	0	32656	33004	
4484	0	32804	33132	
4485	0	32980	33134	
4486	0	32791	33356	
4487	0	32930	32928	
4488	0	32964	33020	
4489	0	33004	32710	
4490	0	32866	32716	
4491	0	32890	32580	
4492	0	32752	32506	
4493	0	32788	32644	
4494	0	32786	32332	
4495	0	32834	32224	
4496	0	32778	32454	
4497	0	32710	32278	
4498	0	32774	32638	
4499	0	32788	32625	
4500	0	32986	32775	
4501	0	32720	32656	
4502	0	32800	32926	
4503	0	32956	32864	
4504	0	32830	33352	
4505	0	32868	33276	
4506	0	33026	33406	
4507	0	32576	33534	
4508	0	32614	33351	
4509	0	32868	32978	
4510	0	32852	32709	
4511	0	32718	32436	
4512	0	32736	32130	
4513	0	32652	32220	
4514	0	32728	32380	
4515	0	32912	32400	
4516	0	32836	32382	
4517	0	32860	32408	
4518	0	32840	32852	
4519	0	32876	32768	
4520	0	32938	33052	
4521	0	32824	32894	
4522	0	32886	33184	
4523	0	32822	33128	
4524	0	32856	32882	
4525	0	32844	32422	
4526	0	32812	32516	
4527	0	32744	32476	
4528	0	32832	32482	
4529	0	32471	32444	
4530	0	32704	32756	
4531	0	32734	32900	
4532	0	32737	33175	
4533	0	32862	33023	
4534	0	32892	32920	
4535	0	33029	33214	
4536	0	32744	33159	
4537	0	32656	33078	
4538	0	32792	32707	
4539	0	32680	32542	
4540	0	32836	32309	
4541	0	32952	32364	
4542	0	32940	32398	
4543	0	32842	32472	
4544	0	32864	32640	
4545	0	32908	32604	
4546	0	32726	33012	
4547	0	32900	33096	
4548	0	32788	32964	
4549	0	32816	33148	
4550	0	32594	33212	
4551	0	32772	32917	
4552	0	32856	32708	
4553	0	32836	32623	
4554	0	32818	32402	
4555	0	32780	32660	
4556	0	32781	33063	
4557	0	32864	32876	
4558	0	32776	32502	
4559	0	32688	32658	
4560	0	33002	32591	
4561	0	32744	32566	
4562	0	32744	32623	
4563	0	32868	32452	
4564	0	32684	32188	
4565	0	32778	32804	
4566	0	32714	33182	
4567	0	32834	33092	
4568	0	33132	33284	
4569	0	32552	33140	
4570	0	32816	32652	
4571	0	33126	32706	
4572	0	32704	32910	
4573	0	32599	32668	
4574	0	32756	32628	
4575	0	32792	32896	
4576	0	32832	32750	
4577	0	32714	32720	
4578	0	32848	32714	
4579	0	32868	32788	
4580	0	32928	32738	
4581	0	32736	32686	
4582	0	32928	32775	
4583	0	32984	32764	
4584	0	32708	32875	
4585	0	32530	32640	
4586	0	32590	32850	
4587	0	33058	32543	
4588	0	32510	32565	
4589	0	32836	32538	
4590	0	32760	32708	
4591	0	32920	32750	
4592	0	32818	32871	
4593	0	32840	32890	
4594	0	32968	33262	
4595	0	32896	33216	
4596	0	32744	33303	
4597	0	32748	33219	
4598	0	32790	33090	
4599	0	32860	32772	
4600	0	32876	32679	
4601	0	32628	32697	
4602	0	32580	32172	
4603	0	32818	31926	
4604	0	32836	32084	
4605	0	32824	32454	
4606	0	32593	32814	
4607	0	32936	32900	
4608	0	32664	32871	
4609	0	32860	33084	
4610	0	32880	33564	
4611	0	32876	33570	
4612	0	32900	32980	
4613	0	32822	32804	
4614	0	32792	32293	
4615	0	32746	31832	
4616	0	32692	31904	
4617	0	33076	32052	
4618	0	32866	32135	
4619	0	32704	32550	
4620	0	32954	32775	
4621	0	32892	32985	
4622	0	32932	33188	
4623	0	32788	33164	
4624	0	32786	32828	
4625	0	32914	33160	
4626	0	32976	33361	
4627	0	32584	33459	
4628	0	32808	33112	
4629	0	32772	33120	
4630	0	32808	33434	
4631	0	32736	32852	
4632	0	32688	32422	
4633	0	32726	32170	
4634	0	32852	32050	
4635	0	32824	31850	
4636	0	33056	32036	
4637	0	32784	32582	
4638	0	32896	32692	
4639	0	33024	32978	
4640	0	32576	33138	
4641	0	32764	33308	
4642	0	32752	33222	
4643	0	32890	33069	
4644	0	32984	32592	
4645	0	32686	32518	
4646	0	32666	32514	
4647	0	32904	32586	
4648	0	32800	32526	
4649	0	32792	32732	
4650	0	32924	32920	
4651	0	32664	33020	
4652	0	32988	32960	
4653	0	32780	33076	
4654	0	32960	33020	
4655	0	32776	33146	
4656	0	32688	32888	
4657	0	32842	33260	
4658	0	32668	33276	
4659	0	32746	33159	
4660	0	32858	32892	
4661	0	32816	32504	
4662	0	32744	32102	
4663	0	32668	32084	
4664	0	32778	31876	
4665	0	32828	31844	
4666	0	32872	32017	
4667	0	32730	32328	
4668	0	32780	32694	
4669	0	33024	32946	
4670	0	32878	33348	
4671	0	32908	33388	
4672	0	32752	33082	
4673	0	32800	33102	
4674	0	32544	32902	
4675	0	32917	32823	
4676	0	32880	32660	
4677	0	32956	32832	
4678	0	32740	33270	
4679	0	32762	33260	
4680	0	32968	33396	
4681	0	32700	32810	
4682	0	32768	32404	
4683	0	32724	32567	
4684	0	32864	32636	
4685	0	32828	32442	
4686	0	32860	32464	
4687	0	32724	32556	
4688	0	32757	32486	
4689	0	32702	32436	
4690	0	32688	32615	
4691	0	32840	32578	
4692	0	32780	32462	
4693	0	32908	32422	
4694	0	32662	32448	
4695	0	32812	32870	
4696	0	33022	32702	
4697	0	32912	32980	
4698	0	32796	33082	
4699	0	32836	33310	
4700	0	32798	33232	
4701	0	32692	33106	
4702	0	32812	33191	
4703	0	32817	32992	
4704	0	32776	32936	
4705	0	32660	32722	
4706	0	32948	32742	
4707	0	32960	32834	
4708	0	32736	32775	
4709	0	32918	32816	
4710	0	32682	32583	
4711	0	32696	32607	
4712	0	32680	32644	
4713	0	32788	32830	
4714	0	32840	32422	
4715	0	32824	32895	
4716	0	33236	32786	
4717	0	32900	33010	
4718	0	32714	32806	
4719	0	32644	32900	
4720	0	32848	32978	
4721	0	32868	32802	
4722	0	32744	32568	
4723	0	32684	32226	
4724	0	32720	32172	
4725	0	32988	32448	
4726	0	32786	32308	
4727	0	32644	32700	
4728	0	32708	32764	
4729	0	32708	32808	
4730	0	32752	32879	
4731	0	32756	33012	
4732	0	32830	33028	
4733	0	32820	33350	
4734	0	32800	33106	
4735	0	32828	32935	
4736	0	32864	32934	
4737	0	32920	32960	
4738	0	32884	33094	
4739	0	32834	33108	
4740	0	32956	32968	
4741	0	32852	32842	
4742	0	32768	32528	
4743	0	32738	32300	
4744	0	32944	32220	
4745	0	32860	32260	
4746	0	32852	32068	
4747	0	32824	32324	
4748	0	32676	32244	
4749	0	32804	32550	
4750	0	32798	32930	
4751	0	32732	32726	
4752	0	32773	32919	
4753	0	32804	32932	
4754	0	32788	32990	
4755	0	32808	33120	
4756	0	32880	33188	
4757	0	32838	33256	
4758	0	32852	33114	
4759	0	32830	33129	
4760	0	32752	33134	
4761	0	32968	33168	
4762	0	32528	32864	
4763	0	32816	32644	
4764	0	32848	32444	
4765	0	32848	32351	
4766	0	32796	32150	
4767	0	32896	32308	
4768	0	32846	32630	
4769	0	32618	32752	
4770	0	32796	32828	
4771	0	32956	32764	
4772	0	32712	32670	
4773	0	32888	32948	
4774	0	32776	33152	
4775	0	32940	33130	
4776	0	32716	33082	
4777	0	33074	32919	
4778	0	32800	32736	
4779	0	32836	32440	
4780	0	32882	32436	
4781	0	32828	32358	
4782	0	32652	32140	
4783	0	32664	32255	
4784	0	32672	32532	
4785	0	32732	32720	
4786	0	33026	32830	
4787	0	32828	33052	
4788	0	32888	33068	
4789	0	32694	33108	
4790	0	32780	32972	
4791	0	32682	32980	
4792	0	32672	32807	
4793	0	32786	32812	
4794	0	32868	32935	
4795	0	32884	33084	
4796	0	32820	32924	
4797	0	32743	32980	
4798	0	32900	32876	
4799	0	32888	32783	
4800	0	32800	32772	
4801	0	32832	32673	
4802	0	32900	32704	
4803	0	32860	32600	
4804	0	32896	32748	
4805	0	32720	32512	
4806	0	32760	32457	
4807	0	32760	32586	
4808	0	32680	32634	
4809	0	32698	32588	
4810	0	32700	32754	
4811	0	32810	32814	
4812	0	32736	32884	
4813	0	32740	32775	
4814	0	32888	32722	
4815	0	32856	32836	
4816	0	33060	32888	
4817	0	32896	32692	
4818	0	32724	32723	
4819	0	32900	32808	
4820	0	32816	32558	
4821	0	32676	32936	
4822	0	32746	33152	
4823	0	32864	33031	
4824	0	32892	32882	
4825	0	32808	32816	
4826	0	32812	32672	
4827	0	32852	32696	
4828	0	32884	32384	
4829	0	32816	31728	
4830	0	32736	32506	
4831	0	32780	33078	
4832	0	32752	33126	
4833	0	32832	32762	
4834	0	32832	32824	
4835	0	32794	32879	
4836	0	32794	33134	
4837	0	32832	33212	
4838	0	32816	33302	
4839	0	32858	33152	
4840	0	32900	32780	
4841	0	32912	32662	
4842	0	32920	32364	
4843	0	32758	32198	
4844	0	32780	32340	
4845	0	32864	32530	
4846	0	32894	32434	
4847	0	32832	32636	
4848	0	32616	32666	
4849	0	32728	32860	
4850	0	32842	32760	
4851	0	32808	32930	
4852	0	32844	32802	
4853	0	32666	32714	
4854	0	32784	32518	
4855	0	32688	32966	
4856	0	32714	32784	
4857	0	32828	32752	
4858	0	32854	32830	
4859	0	32896	32743	
4860	0	32820	32564	
4861	0	32752	32711	
4862	0	32948	32916	
4863	0	32834	32898	
4864	0	32816	33096	
4865	0	32940	32887	
4866	0	32872	33030	
4867	0	32860	32962	
4868	0	32950	32847	
4869	0	32800	32852	
4870	0	32864	32644	
4871	0	32808	32484	
4872	0	32720	32415	
4873	0	32692	32334	
4874	0	32668	32598	
4875	0	32768	32578	
4876	0	32868	33004	
4877	0	32900	33110	
4878	0	32644	33146	
4879	0	32656	33084	
4880	0	32880	32796	
4881	0	32660	32820	
4882	0	32650	32939	
4883	0	32748	33108	
4884	0	32900	33138	
4885	0	32796	32903	
4886	0	32842	32782	
4887	0	32756	32708	
4888	0	32876	32364	
4889	0	32820	32310	
4890	0	33198	32341	
4891	0	32554	32294	
4892	0	32800	32444	
4893	0	32796	32518	
4894	0	32820	32475	
4895	0	32956	32682	
4896	0	32670	32924	
4897	0	32782	32716	
4898	0	32836	32942	
4899	0	32888	33287	
4900	0	32868	33262	
4901	0	33076	33458	
4902	0	32772	33254	
4903	0	32700	32952	
4904	0	32704	32884	
4905	0	32644	32672	
4906	0	32742	32420	
4907	0	32800	32122	
4908	0	32776	32372	
4909	0	32868	32294	
4910	0	32856	32222	
4911	0	32824	32400	
4912	0	32848	32465	
4913	0	33016	32736	
4914	0	32720	32972	
4915	0	32844	33134	
4916	0	32784	32992	
4917	0	32712	33036	
4918	0	32788	33083	
4919	0	32678	33120	
4920	0	32744	32936	
4921	0	32768	32910	
4922	0	32804	32942	
4923	0	32869	32815	
4924	0	32898	32821	
4925	0	32940	32734	
4926	0	32820	32760	
4927	0	32848	32760	
4928	0	32824	32818	
4929	0	32842	32724	
4930	0	32748	32682	
4931	0	32908	32718	
4932	0	32782	32614	
4933	0	32872	32622	
4934	0	32878	32676	
4935	0	32828	32808	
4936	0	32844	33116	
4937	0	32736	32798	
4938	0	32744	32908	
4939	0	32780	32706	
4940	0	32930	32492	
4941	0	32874	32508	
4942	0	32818	32528	
4943	0	32696	31860	
4944	0	32804	32474	
4945	0	32820	33462	
4946	0	32768	33308	
4947	0	32792	32924	
4948	0	32836	32858	
4949	0	32864	32758	
4950	0	32736	32810	
4951	0	32736	32748	
4952	0	32692	32647	
4953	0	32804	32876	
4954	0	33084	32855	
4955	0	32952	32875	
4956	0	32752	33041	
4957	0	32834	32817	
4958	0	32644	32639	
4959	0	32794	32775	
4960	0	32808	32756	
4961	0	32732	32555	
4962	0	32696	32546	
4963	0	32654	32470	
4964	0	32762	32580	
4965	0	32926	32380	
4966	0	32952	32590	
4967	0	32834	32649	
4968	0	32824	32766	
4969	0	32876	32908	
4970	0	32868	32839	
4971	0	32812	33202	
4972	0	32756	33031	
4973	0	32784	33136	
4974	0	32882	32842	
4975	0	32760	32562	
4976	0	32824	32480	
4977	0	32892	32424	
4978	0	32892	32049	
4979	0	33016	32073	
4980	0	32930	32488	
4981	0	32870	32775	
4982	0	32766	32564	
4983	0	32872	32656	
4984	0	32872	32772	
4985	0	32798	32866	
4986	0	32832	32738	
4987	0	32888	32606	
4988	0	32908	32519	
4989	0	32918	32439	
4990	0	32880	32356	
4991	0	32928	32408	
4992	0	32794	32750	
4993	0	32788	32722	
4994	0	32738	32874	
4995	0	32696	33024	
4996	0	32730	33174	
4997	0	32788	33630	
4998	0	32616	33692	
4999	0	32524	33756	
5000	0	32444	33854	
5001	0	32438	33838	
5002	0	32484	33534	
5003	0	32652	33482	
5004	0	32700	33516	
5005	0	32641	33296	
5006	0	32732	33248	
5007	0	32824	33026	
5008	0	32900	32602	
5009	0	32866	32300	
5010	0	32780	32296	
5011	0	32832	32436	
5012	0	32744	32292	
5013	0	32842	32296	
5014	0	32868	32135	
5015	0	32860	32339	
5016	0	32994	32257	
5017	0	32974	32460	
5018	0	32794	32581	
5019	0	33032	32704	
5020	0	33000	32658	
5021	0	32876	32662	
5022	0	32920	32650	
5023	0	32878	32465	
5024	0	32900	32550	
5025	0	32776	32578	
5026	0	32754	32690	
5027	0	32810	32610	
5028	0	32872	32534	
5029	0	32880	32529	
5030	0	32836	32820	
5031	0	32864	32864	
5032	0	32780	32894	
5033	0	32836	32879	
5034	0	32956	32934	
5035	0	32930	32886	
5036	0	32828	32990	
5037	0	32904	33286	
5038	0	32844	33262	
5039	0	32538	33046	
5040	0	32780	32818	
5041	0	32816	32686	
5042	0	32838	32436	
5043	0	32800	32286	
5044	0	33070	32036	
5045	0	32836	32092	
5046	0	32714	32174	
5047	0	32822	32442	
5048	0	32788	32140	
5049	0	32800	32344	
5050	0	32832	33729	
5051	0	32820	33726	
5052	0	32761	33076	
5053	0	32712	33140	
5054	0	32668	32994	
5055	0	32724	32900	
5056	0	32788	32868	
5057	0	32776	32999	
5058	0	32798	33140	
5059	0	32748	32674	
5060	0	32816	32696	
5061	0	32836	32744	
5062	0	32862	32702	
5063	0	32922	32740	
5064	0	32868	32698	
5065	0	32920	32662	
5066	0	32888	32788	
5067	0	32852	32683	
5068	0	32792	32663	
5069	0	32892	32472	
5070	0	32714	32620	
5071	0	32760	33057	
5072	0	32940	32874	
5073	0	32840	32766	
5074	0	32774	32708	
5075	0	32796	32846	
5076	0	32808	32812	
5077	0	32878	32807	
5078	0	32816	32756	
5079	0	32686	32720	
5080	0	32816	32833	
5081	0	32774	32671	
5082	0	32730	32838	
5083	0	32804	32647	
5084	0	32812	32792	
5085	0	32756	32834	
5086	0	32692	32810	
5087	0	32688	32730	
5088	0	32834	32898	
5089	0	32812	32855	
5090	0	32832	32788	
5091	0	32872	32745	
5092	0	32708	32762	
5093	0	32850	32730	
5094	0	32802	32620	
5095	0	32804	32647	
5096	0	32844	32935	
5097	0	32771	32810	
5098	0	32820	32662	
5099	0	32850	32672	
5100	0	32868	32668	
5101	0	32894	32836	
5102	0	32826	32948	
5103	0	32808	32871	
5104	0	32832	32820	
5105	0	32736	32855	
5106	0	32790	32824	
5107	0	32812	32762	
5108	0	32910	32895	
5109	0	32856	32834	
5110	0	32806	32676	
5111	0	32818	32670	
5112	0	32792	32676	
5113	0	32860	32748	
5114	0	32772	32631	
5115	0	32816	32729	
5116	0	32840	32628	
5117	0	32556	32700	
5118	0	32780	32716	
5119	0	32832	32775	
5120	0	32868	32850	
5121	0	32750	32936	
5122	0	32736	32756	
5123	0	32966	32762	
5124	0	32816	32752	
5125	0	32788	32862	
5126	0	32815	32808	
5127	0	32856	32692	
5128	0	32833	32767	
5129	0	32810	32764	
5130	0	32872	32718	
5131	0	32796	32804	
5132	0	32652	32870	
5133	0	32694	32788	
5134	0	32960	32936	
5135	0	32990	32726	
5136	0	32960	32684	
5137	0	32784	32641	
5138	0	32776	32646	
5139	0	32876	32702	
5140	0	32860	32609	
5141	0	32686	32646	
5142	0	32878	32725	
5143	0	32850	32748	
5144	0	32764	32786	
5145	0	32822	33006	
5146	0	32680	33031	
5147	0	32790	33048	
5148	0	32732	33030	
5149	0	32656	33002	
5150	0	32808	33044	
5151	0	32788	32742	
5152	0	32760	32482	
5153	0	32764	32442	
5154	0	32816	32466	
5155	0	32866	32487	
5156	0	32964	32404	
5157	0	32960	32512	
5158	0	32950	32519	
5159	0	32930	32641	
5160	0	32900	32536	
5161	0	32914	32682	
5162	0	32886	32771	
5163	0	32776	32898	
5164	0	32768	32826	
5165	0	32736	32722	
5166	0	32712	32943	
5167	0	32884	33050	
5168	0	32892	32924	
5169	0	32832	32908	
5170	0	32778	33026	
5171	0	32728	32943	
5172	0	32747	32698	
5173	0	32752	32974	
5174	0	32772	33112	
5175	0	32784	32796	
5176	0	32768	32802	
5177	0	32834	32598	
5178	0	32756	32700	
5179	0	32716	32660	
5180	0	32740	32694	
5181	0	32888	32608	
5182	0	32840	32674	
5183	0	32884	32721	
5184	0	32820	32820	
5185	0	32716	32603	
5186	0	32802	32680	
5187	0	32772	32894	
5188	0	32740	32774	
5189	0	32788	32746	
5190	0	32866	32746	
5191	0	32930	32850	
5192	0	32772	32798	
5193	0	32716	32728	
5194	0	32852	32746	
5195	0	32922	32710	
5196	0	32958	32706	
5197	0	32942	32868	
5198	0	32888	32784	
5199	0	32864	32665	
5200	0	32708	32684	
5201	0	32724	32757	
5202	0	32812	32750	
5203	0	32674	32775	
5204	0	32746	32720	
5205	0	32716	32772	
5206	0	32730	32740	
5207	0	32720	32775	
5208	0	32816	32692	
5209	0	32820	32596	
5210	0	32800	32682	
5211	0	32808	32706	
5212	0	32916	32702	
5213	0	32816	32763	
5214	0	32958	32878	
5215	0	32868	32884	
5216	0	32952	32854	
5217	0	32744	32874	
5218	0	32700	32846	
5219	0	32672	32810	
5220	0	32756	33002	
5221	0	32808	32866	
5222	0	32864	32948	
5223	0	32892	32775	
5224	0	32824	32846	
5225	0	32804	32766	
5226	0	32818	32700	
5227	0	32748	32692	
5228	0	32794	32689	
5229	0	32804	32568	
5230	0	32808	32844	
5231	0	32722	32836	
5232	0	32856	32766	
5233	0	32868	32695	
5234	0	32788	32927	
5235	0	32738	32758	
5236	0	32804	32732	
5237	0	32670	32888	
5238	0	32744	32724	
5239	0	32696	32774	
5240	0	32672	32791	
5241	0	32688	32694	
5242	0	32716	32726	
5243	0	32826	32794	
5244	0	32828	32724	
5245	0	32894	32743	
5246	0	32850	32706	
5247	0	32864	32688	
5248	0	32828	32775	
5249	0	32916	32716	
5250	0	32972	32814	
5251	0	32944	32652	
5252	0	33064	32711	
5253	0	32942	32862	
5254	0	32864	32848	
5255	0	32788	32822	
5256	0	32684	32618	
5257	0	32728	32694	
5258	0	32752	32756	
5259	0	32656	32816	
5260	0	32740	32828	
5261	0	32714	32744	
5262	0	32746	32858	
5263	0	32688	32786	
5264	0	32720	32852	
5265	0	32756	32884	
5266	0	32764	32772	
5267	0	32816	32852	
5268	0	32752	32759	
5269	0	32772	32623	
5270	0	32868	32614	
5271	0	32857	32695	
5272	0	32896	32687	
5273	0	33072	32748	
5274	0	33088	32954	
5275	0	33064	32796	
5276	0	33002	32792	
5277	0	32948	32701	
5278	0	32996	32680	
5279	0	32774	32670	
5280	0	32848	32636	
5281	0	32796	32615	
5282	0	32776	32751	
5283	0	32740	32584	
5284	0	32730	32572	
5285	0	32744	32772	
5286	0	32652	32784	
5287	0	32712	32856	
5288	0	32680	32828	
5289	0	32744	32855	
5290	0	32728	32854	
5291	0	32724	32844	
5292	0	32826	32812	
5293	0	32752	32774	
5294	0	32824	32770	
5295	0	32900	32844	
5296	0	32984	32785	
5297	0	33016	32790	
5298	0	33120	32828	
5299	0	33128	32816	
5300	0	32968	32808	
5301	0	32868	32655	
5302	0	32668	32764	
5303	0	32592	32750	
5304	0	32614	32818	
5305	0	32600	32728	
5306	0	32754	32814	
5307	0	32840	32839	
5308	0	32740	32728	
5309	0	32838	32809	
5310	0	32772	32681	
5311	0	32708	32668	
5312	0	32784	32716	
5313	0	32842	32742	
5314	0	32790	32790	
5315	0	32908	32698	
5316	0	32794	32378	
5317	0	32776	32936	
5318	0	32738	32900	
5319	0	32732	32528	
5320	0	32766	32708	
5321	0	32752	32806	
5322	0	32752	32822	
5323	0	32644	32798	
5324	0	32828	32804	
5325	0	32914	32830	
5326	0	32848	32894	
5327	0	32740	32823	
5328	0	32830	32828	
5329	0	32834	32966	
5330	0	32812	32820	
5331	0	32816	32892	
5332	0	32856	32724	
5333	0	32866	32785	
5334	0	32900	32788	
5335	0	32972	32806	
5336	0	32912	32711	
5337	0	32936	32788	
5338	0	32924	32732	
5339	0	32786	32678	
5340	0	32844	32748	
5341	0	32745	32816	
5342	0	32756	32632	
5343	0	32788	32628	
5344	0	32740	32775	
5345	0	32708	32680	
5346	0	32760	32602	
5347	0	32792	32784	
5348	0	32758	32752	
5349	0	32756	32625	
5350	0	32814	32718	
5351	0	32916	32583	
5352	0	32820	32679	
5353	0	32856	32700	
5354	0	32940	32678	
5355	0	33022	32673	
5356	0	32968	32728	
5357	0	32838	32880	
5358	0	32864	32818	
5359	0	32796	32846	
5360	0	32784	32890	
5361	0	32724	32982	
5362	0	32612	32934	
5363	0	32704	32866	
5364	0	32724	32886	
5365	0	32722	32756	
5366	0	32752	32858	
5367	0	32730	32788	
5368	0	32792	32810	
5369	0	32746	32775	
5370	0	32716	32588	
5371	0	32868	32626	
5372	0	32776	32716	
5373	0	32894	32868	
5374	0	32982	32824	
5375	0	32910	32878	
5376	0	32854	32641	
5377	0	32848	32786	
5378	0	32850	32764	
5379	0	32778	32788	
5380	0	32844	32775	
5381	0	32792	32806	
5382	0	32760	32940	
5383	0	32764	32804	
5384	0	32740	32765	
5385	0	32844	32726	
5386	0	32782	32632	
5387	0	32874	32764	
5388	0	32836	32711	
5389	0	32756	32742	
5390	0	32900	32654	
5391	0	32880	32711	
5392	0	32834	32711	
5393	0	32792	32775	
5394	0	32836	32900	
5395	0	32826	32814	
5396	0	32685	32856	
5397	0	32718	32668	
5398	0	32740	32660	
5399	0	32796	32750	
5400	0	32754	32758	
5401	0	32838	32696	
5402	0	32823	32838	
5403	0	32780	32726	
5404	0	32858	32766	
5405	0	32770	32714	
5406	0	32764	32636	
5407	0	32772	32874	
5408	0	32768	32668	
5409	0	32716	32730	
5410	0	32744	32684	
5411	0	32752	32836	
5412	0	32848	32864	
5413	0	32906	32850	
5414	0	32892	32938	
5415	0	32880	32822	
5416	0	32952	32900	
5417	0	32852	32870	
5418	0	32692	32590	
5419	0	32756	32474	
5420	0	32830	32926	
5421	0	32768	32732	
5422	0	32736	32802	
5423	0	32772	32796	
5424	0	32810	32689	
5425	0	32834	32828	
5426	0	32892	32802	
5427	0	32940	32823	
5428	0	32816	32727	
5429	0	32846	32808	
5430	0	32840	32732	
5431	0	32864	32828	
5432	0	32932	32752	
5433	0	32904	32912	
5434	0	32775	32870	
5435	0	32792	32740	
5436	0	32744	32791	
5437	0	32708	32582	
5438	0	32704	32346	
5439	0	32722	32854	
5440	0	32752	32908	
5441	0	32680	32644	
5442	0	32796	32696	
5443	0	32896	32686	
5444	0	32872	32590	
5445	0	32818	32788	
5446	0	32870	32770	
5447	0	32854	32820	
5448	0	32942	32798	
5449	0	32894	32878	
5450	0	32934	32854	
5451	0	32868	32802	
5452	0	32836	32815	
5453	0	32802	32842	
5454	0	32706	32876	
5455	0	32740	32858	
5456	0	32776	32807	
5457	0	32702	32724	
5458	0	32724	32806	
5459	0	32640	32674	
5460	0	32736	32660	
5461	0	32756	32790	
5462	0	32828	32832	
5463	0	32868	32694	
5464	0	32828	32765	
5465	0	32766	32736	
5466	0	32768	32822	
5467	0	32884	32792	
5468	0	32844	32646	
5469	0	32832	32782	
5470	0	32780	32691	
5471	0	32888	32790	
5472	0	33004	32718	
5473	0	32896	32828	
5474	0	32768	32850	
5475	0	32788	32814	
5476	0	32760	32775	
5477	0	32708	32754	
5478	0	32768	32684	
5479	0	32824	32768	
5480	0	32772	32724	
5481	0	32752	32740	
5482	0	32952	32764	
5483	0	32856	32708	
5484	0	32896	32768	
5485	0	32800	32704	
5486	0	32783	32784	
5487	0	32780	32804	
5488	0	32736	32743	
5489	0	32768	32732	
5490	0	32796	32870	
5491	0	32752	32769	
5492	0	32834	32833	
5493	0	32868	32775	
5494	0	32760	32730	
5495	0	32840	32788	
5496	0	32872	32638	
5497	0	32849	32756	
5498	0	32844	32716	
5499	0	32792	32708	
5500	0	32788	32746	
5501	0	32820	32866	
5502	0	32736	32823	
5503	0	32744	32772	
5504	0	32804	32692	
5505	0	32980	32551	
5506	0	32972	32734	
5507	0	33006	32802	
5508	0	32868	32742	
5509	0	32816	32622	
5510	0	32864	32848	
5511	0	32816	32772	
5512	0	32752	32743	
5513	0	32750	32731	
5514	0	32764	32758	
5515	0	32736	32679	
5516	0	32764	32727	
5517	0	32724	32775	
5518	0	32640	32682	
5519	0	32780	32826	
5520	0	32698	32784	
5521	0	32810	32784	
5522	0	32812	32768	
5523	0	32798	32752	
5524	0	32950	32862	
5525	0	32896	32874	
5526	0	32820	32956	
5527	0	32704	32838	
5528	0	32680	32710	
5529	0	32686	32860	
5530	0	32760	32764	
5531	0	32668	32638	
5532	0	32804	32600	
5533	0	32828	32800	
5534	0	32886	32775	
5535	0	32852	32868	
5536	0	32920	32711	
5537	0	32942	32934	
5538	0	32944	32903	
5539	0	32784	32968	
5540	0	32846	32903	
5541	0	32848	32790	
5542	0	32956	32744	
5543	0	32906	32610	
5544	0	32872	32766	
5545	0	32876	32716	
5546	0	32910	32666	
5547	0	33050	32770	
5548	0	32870	32708	
5549	0	32798	32858	
5550	0	32730	32775	
5551	0	32672	32884	
5552	0	32700	32796	
5553	0	32712	32828	
5554	0	32634	32754	
5555	0	32746	32758	
5556	0	32840	32775	
5557	0	32894	32712	
5558	0	32961	32668	
5559	0	32880	32806	
5560	0	32968	32742	
5561	0	32836	32770	
5562	0	32750	32654	
5563	0	32660	32596	
5564	0	32616	32718	
5565	0	32668	32620	
5566	0	32792	32884	
5567	0	32800	32798	
5568	0	32796	32798	
5569	0	32644	32724	
5570	0	32760	32725	
5571	0	32788	32796	
5572	0	32820	32772	
5573	0	32836	32836	
5574	0	32890	32770	
5575	0	32772	32790	
5576	0	32832	32800	
5577	0	32812	32868	
5578	0	32738	32809	
5579	0	32834	32938	
5580	0	32872	32848	
5581	0	32856	32710	
5582	0	32924	32816	
5583	0	32860	32756	
5584	0	32868	32807	
5585	0	32830	32708	
5586	0	32948	32818	
5587	0	32936	32908	
5588	0	32780	32670	
5589	0	32774	32764	
5590	0	32684	32564	
5591	0	32760	32534	
5592	0	32774	32474	
5593	0	32804	32552	
5594	0	32814	32638	
5595	0	32760	32576	
5596	0	32753	32836	
5597	0	32664	32902	
5598	0	32846	32932	
5599	0	32726	32838	
5600	0	32800	32788	
5601	0	32858	33100	
5602	0	32790	32979	
5603	0	32836	33047	
5604	0	32756	32902	
5605	0	32713	32870	
5606	0	32696	32830	
5607	0	32788	32751	
5608	0	32844	32801	
5609	0	32802	32698	
5610	0	32804	32666	
5611	0	32828	32695	
5612	0	32964	32711	
5613	0	33016	32624	
5614	0	33020	32808	
5615	0	32868	32740	
5616	0	32897	32708	
5617	0	32924	32609	
5618	0	32694	32810	
5619	0	32716	32740	
5620	0	32812	32852	
5621	0	32794	32668	
5622	0	32744	32670	
5623	0	32918	32750	
5624	0	32958	32814	
5625	0	32880	32774	
5626	0	32988	32711	
5627	0	32968	32740	
5628	0	33056	32630	
5629	0	32932	32546	
5630	0	32716	32428	
5631	0	32588	32528	
5632	0	32536	32428	
5633	0	32696	32304	
5634	0	32788	32362	
5635	0	32804	32430	
5636	0	32856	32542	
5637	0	32904	32464	
5638	0	32896	32450	
5639	0	32864	32529	
5640	0	32896	32640	
5641	0	32914	32654	
5642	0	32846	32775	
5643	0	32784	32834	
5644	0	32724	32942	
5645	0	32692	33004	
5646	0	32692	33185	
5647	0	32636	33390	
5648	0	32594	33392	
5649	0	32584	33458	
5650	0	32552	33646	
5651	0	32528	33518	
5652	0	32574	33607	
5653	0	32720	33487	
5654	0	32736	33610	
5655	0	32760	33476	
5656	0	32692	33252	
5657	0	32808	32934	
5658	0	32820	32884	
5659	0	32952	32542	
5660	0	32906	32404	
5661	0	32984	32434	
5662	0	33008	32497	
5663	0	33120	32371	
5664	0	33160	32532	
5665	0	33058	32148	
5666	0	32922	32292	
5667	0	32814	32284	
5668	0	32714	32323	
5669	0	32600	32440	
5670	0	32534	32580	
5671	0	32630	32654	
5672	0	32682	32519	
5673	0	32720	32647	
5674	0	32674	32746	
5675	0	32824	32775	
5676	0	32820	32828	
5677	0	32829	32899	
5678	0	32836	32844	
5679	0	32862	32775	
5680	0	32996	32810	
5681	0	33024	32838	
5682	0	32924	32737	
5683	0	32912	32800	
5684	0	32892	32724	
5685	0	32924	32744	
5686	0	32976	32550	
5687	0	32932	32676	
5688	0	32836	32726	
5689	0	32816	32800	
5690	0	32616	32726	
5691	0	32524	32756	
5692	0	32750	32567	
5693	0	32752	32721	
5694	0	32632	32720	
5695	0	32734	32502	
5696	0	32708	32436	
5697	0	32736	32724	
5698	0	32848	32990	
5699	0	32780	32758	
5700	0	32808	32442	
5701	0	32756	32578	
5702	0	32832	32920	
5703	0	32724	32856	
5704	0	32798	32963	
5705	0	32888	33044	
5706	0	32820	33078	
5707	0	32860	32902	
5708	0	32952	32956	
5709	0	32956	32900	
5710	0	32844	32946	
5711	0	32756	32939	
5712	0	32794	32636	
5713	0	32814	32775	
5714	0	32852	32850	
5715	0	32808	32790	
5716	0	32782	32834	
5717	0	32832	32682	
5718	0	32906	32774	
5719	0	32868	32646	
5720	0	32908	32476	
5721	0	32916	32554	
5722	0	32856	32551	
5723	0	32796	32740	
5724	0	32768	32668	
5725	0	32820	32720	
5726	0	32830	32518	
5727	0	32768	32786	
5728	0	32826	32826	
5729	0	32768	32896	
5730	0	32672	32828	
5731	0	32612	32935	
5732	0	32744	32999	
5733	0	32828	33040	
5734	0	32892	32896	
5735	0	32804	32876	
5736	0	32772	32622	
5737	0	32800	32736	
5738	0	32716	32614	
5739	0	32854	32616	
5740	0	32904	32620	
5741	0	32874	32714	
5742	0	32708	32884	
5743	0	32644	32814	
5744	0	32676	32808	
5745	0	32740	33048	
5746	0	32780	32910	
5747	0	32890	32788	
5748	0	32778	32982	
5749	0	32816	32872	
5750	0	32886	32694	
5751	0	32868	32889	
5752	0	32872	32839	
5753	0	32788	32834	
5754	0	32756	32646	
5755	0	32800	32838	
5756	0	32872	32598	
5757	0	32836	32508	
5758	0	32824	32414	
5759	0	32780	32668	
5760	0	32848	32564	
5761	0	32772	32508	
5762	0	32842	32511	
5763	0	32707	32682	
5764	0	32752	32775	
5765	0	32660	32678	
5766	0	32766	32647	
5767	0	32832	32716	
5768	0	32802	32558	
5769	0	32920	32637	
5770	0	32900	32862	
5771	0	32912	32928	
5772	0	32914	32992	
5773	0	33032	33010	
5774	0	32896	32657	
5775	0	32792	33024	
5776	0	32702	32796	
5777	0	32770	32894	
5778	0	32744	32844	
5779	0	32754	32848	
5780	0	32718	32792	
5781	0	32672	32734	
5782	0	32624	32847	
5783	0	32732	32968	
5784	0	32788	33080	
5785	0	32764	32775	
5786	0	32748	32892	
5787	0	32882	32876	
5788	0	32868	32938	
5789	0	32968	32847	
5790	0	32964	32732	
5791	0	32976	32766	
5792	0	32932	32850	
5793	0	32804	32492	
5794	0	32804	32542	
5795	0	32902	32692	
5796	0	32838	32583	
5797	0	32764	32294	
5798	0	32644	32684	
5799	0	32608	32572	
5800	0	32548	32460	
5801	0	32769	32566	
5802	0	32804	32576	
5803	0	32724	32514	
5804	0	32680	32492	
5805	0	32748	32526	
5806	0	32698	33031	
5807	0	32810	32942	
5808	0	32752	32902	
5809	0	32772	32894	
5810	0	32752	32954	
5811	0	32848	33002	
5812	0	32874	32784	
5813	0	32872	32794	
5814	0	32856	32890	
5815	0	32892	32974	
5816	0	32844	32728	
5817	0	32884	32966	
5818	0	32908	32775	
5819	0	32900	32812	
5820	0	32944	32594	
5821	0	32836	32468	
5822	0	32840	32512	
5823	0	32836	32824	
5824	0	32836	32841	
5825	0	32804	32758	
5826	0	32840	32983	
5827	0	32844	33104	
5828	0	32864	32799	
5829	0	32818	32791	
5830	0	32832	32726	
5831	0	32814	32834	
5832	0	32866	32462	
5833	0	32742	32740	
5834	0	32792	32791	
5835	0	32860	32766	
5836	0	32908	32566	
5837	0	32760	32482	
5838	0	32900	32682	
5839	0	32806	32742	
5840	0	32718	32687	
5841	0	32892	32629	
5842	0	32784	32895	
5843	0	32828	32932	
5844	0	32816	32644	
5845	0	32816	32846	
5846	0	32852	32894	
5847	0	32764	32894	
5848	0	32756	32810	
5849	0	32688	32926	
5850	0	32772	32918	
5851	0	32836	32710	
5852	0	32866	32769	
5853	0	32932	32708	
5854	0	32836	32967	
5855	0	32784	32748	
5856	0	32804	32826	
5857	0	32786	32722	
5858	0	32884	32692	
5859	0	32900	32652	
5860	0	32872	32679	
5861	0	32806	32770	
5862	0	32712	32724	
5863	0	32752	32660	
5864	0	32846	32884	
5865	0	32800	32820	
5866	0	32784	32902	
5867	0	32869	32798	
5868	0	32760	32848	
5869	0	32780	32968	
5870	0	32814	32926	
5871	0	32802	32775	
5872	0	32822	32839	
5873	0	32846	32744	
5874	0	32776	32670	
5875	0	32724	32694	
5876	0	32834	32770	
5877	0	32780	32767	
5878	0	32834	32647	
5879	0	32708	32636	
5880	0	32794	32836	
5881	0	32802	32775	
5882	0	32784	32806	
5883	0	32820	32636	
5884	0	32816	32712	
5885	0	32806	32620	
5886	0	32756	32686	
5887	0	32736	32536	
5888	0	32764	32724	
5889	0	32742	32732	
5890	0	32788	32895	
5891	0	32832	32802	
5892	0	32888	33016	
5893	0	32832	33031	
5894	0	32808	33048	
5895	0	32780	32774	
5896	0	32816	32964	
5897	0	32788	32700	
5898	0	32832	32634	
5899	0	32940	32638	
5900	0	32918	32801	
5901	0	32942	32775	
5902	0	32844	32775	
5903	0	32812	32698	
5904	0	32838	32734	
5905	0	32842	32674	
5906	0	32762	32772	
5907	0	32828	32796	
5908	0	32804	32660	
5909	0	32748	32726	
5910	0	32714	32762	
5911	0	32750	33236	
5912	0	32744	33132	
5913	0	32772	32670	
5914	0	32792	32569	
5915	0	32852	32830	
5916	0	32844	33054	
5917	0	32816	32854	
5918	0	32996	32708	
5919	0	32926	32764	
5920	0	32818	32740	
5921	0	32884	32604	
5922	0	32808	32480	
5923	0	32858	32519	
5924	0	32860	32540	
5925	0	32922	32530	
5926	0	32992	32692	
5927	0	32932	32618	
5928	0	32784	32724	
5929	0	32762	32702	
5930	0	32774	32743	
5931	0	32768	32828	
5932	0	32712	32710	
5933	0	32816	32775	
5934	0	32656	32876	
5935	0	32620	33014	
5936	0	32712	32874	
5937	0	32732	32866	
5938	0	32652	32903	
5939	0	32792	32830	
5940	0	32818	32935	
5941	0	32804	32775	
5942	0	32832	32669	
5943	0	32844	32530	
5944	0	32756	32532	
5945	0	32716	32655	
5946	0	32800	32767	
5947	0	32848	32692	
5948	0	32824	32935	
5949	0	32804	32849	
5950	0	32864	32914	
5951	0	32868	32900	
5952	0	32840	32962	
5953	0	32838	32792	
5954	0	32884	32852	
5955	0	32838	32770	
5956	0	32824	32620	
5957	0	32864	32743	
5958	0	32802	32672	
5959	0	32840	32468	
5960	0	32874	32614	
5961	0	32822	32692	
5962	0	32840	32687	
5963	0	32856	32724	
5964	0	32804	32816	
5965	0	32798	32824	
5966	0	32832	32838	
5967	0	32812	32894	
5968	0	32796	32935	
5969	0	32816	32839	
5970	0	32792	32844	
5971	0	32772	32807	
5972	0	32722	32802	
5973	0	32772	32854	
5974	0	32814	32906	
5975	0	32934	32724	
5976	0	32830	32570	
5977	0	32888	32732	
5978	0	32814	32770	
5979	0	32804	33003	
5980	0	32840	33076	
5981	0	32826	33013	
5982	0	32928	32998	
5983	0	32732	32916	
5984	0	32778	32652	
5985	0	32812	32646	
5986	0	32868	32828	
5987	0	32816	32700	
5988	0	32804	32612	
5989	0	32792	32658	
5990	0	32792	32664	
5991	0	32844	32468	
5992	0	32802	32407	
5993	0	32820	32640	
5994	0	32732	32600	
5995	0	32808	32686	
5996	0	32800	32700	
5997	0	32766	32494	
5998	0	32828	32662	
5999	0	32772	32764	
6000	0	32820	32843	
6001	0	32904	32846	
6002	0	32820	32674	
6003	0	32736	32862	
6004	0	32772	32750	
6005	0	32792	32770	
6006	0	32850	32839	
6007	0	32788	32638	
6008	0	32736	32860	
6009	0	32900	32932	
6010	0	32932	32770	
6011	0	32900	32796	
6012	0	32860	32984	
