# OpenSignals Text File Format. Version 1
# {"00:07:80:D8:AA:AB": {"position": 0, "device": "biosignalsplux", "device name": "00:07:80:D8:AA:AB", "device connection": "BTH00:07:80:D8:AA:AB", "sampling rate": 1000, "resolution": [16, 16], "firmware version": 773, "comments": "", "keywords": "", "mode": 0, "sync interval": 2, "date": "2023-2-23", "time": "14:13:39.528", "channels": [1, 2], "sensor": ["EMG", "EMG"], "label": ["CH1", "CH2"], "column": ["nSeq", "DI", "CH1", "CH2"], "special": [{}, {}], "digital IO": [0, 1], "convertedValues": 0}}
# EndOfHeader
0	0	32738	32775	
1	0	32865	32796	
2	0	32865	32773	
3	0	32802	32754	
4	0	32768	32824	
5	0	32792	32801	
6	0	32852	32890	
7	0	32727	32872	
8	0	32826	32775	
9	0	32778	32730	
10	0	32772	32702	
11	0	32820	32682	
12	0	32805	32740	
13	0	32790	32809	
14	0	32752	32832	
15	0	32820	32867	
16	0	32846	32850	
17	0	32856	32823	
18	0	32844	32835	
19	0	32809	32909	
20	0	32836	32848	
21	0	32775	32812	
22	0	32768	32739	
23	0	32838	32744	
24	0	32816	32690	
25	0	32828	32613	
26	0	32850	32773	
27	0	32752	32755	
28	0	32780	32733	
29	0	32775	32815	
30	0	32764	32947	
31	0	32800	32805	
32	0	32797	32843	
33	0	32842	32863	
34	0	32819	32831	
35	0	32792	32760	
36	0	32848	32829	
37	0	32844	32850	
38	0	32788	32772	
39	0	32785	32732	
40	0	32792	32840	
41	0	32780	32713	
42	0	32864	32692	
43	0	32756	32785	
44	0	32852	32714	
45	0	32756	32854	
46	0	32789	32893	
47	0	32828	32826	
48	0	32828	32907	
49	0	32792	32832	
50	0	32864	32824	
51	0	32824	32678	
52	0	32788	32824	
53	0	32784	32812	
54	0	32744	32848	
55	0	32801	32906	
56	0	32784	32921	
57	0	32833	32838	
58	0	32749	32773	
59	0	32804	32768	
60	0	32771	32804	
61	0	32784	32698	
62	0	32826	32773	
63	0	32799	32731	
64	0	32836	32734	
65	0	32809	32571	
66	0	32875	32608	
67	0	32824	32836	
68	0	32794	32896	
69	0	32764	32848	
70	0	32782	32919	
71	0	32778	32950	
72	0	32728	32928	
73	0	32752	32830	
74	0	32774	32799	
75	0	32844	32860	
76	0	32864	32848	
77	0	32877	32878	
78	0	32893	32895	
79	0	32835	32866	
80	0	32836	32840	
81	0	32764	32863	
82	0	32748	32839	
83	0	32728	32732	
84	0	32836	32795	
85	0	32794	32795	
86	0	32784	32755	
87	0	32819	32765	
88	0	32801	32856	
89	0	32796	32789	
90	0	32848	32715	
91	0	32780	32828	
92	0	32804	32903	
93	0	32824	32978	
94	0	32758	32962	
95	0	32832	32941	
96	0	32842	32881	
97	0	32796	32717	
98	0	32872	32614	
99	0	32842	32592	
100	0	32760	32613	
101	0	32808	32867	
102	0	32816	32992	
103	0	32830	32955	
104	0	32750	32865	
105	0	32800	32795	
106	0	32780	32608	
107	0	32796	32589	
108	0	32786	32479	
109	0	32781	32676	
110	0	32776	32882	
111	0	32832	32860	
112	0	32829	32794	
113	0	32852	32757	
114	0	32792	32916	
115	0	32834	32839	
116	0	32848	32843	
117	0	32772	32795	
118	0	32780	32684	
119	0	32832	32668	
120	0	32876	32660	
121	0	32805	32754	
122	0	32860	32958	
123	0	32865	33013	
124	0	32809	32901	
125	0	32856	32898	
126	0	32788	32988	
127	0	32805	32786	
128	0	32836	32678	
129	0	32805	32764	
130	0	32800	32816	
131	0	32734	32841	
132	0	32781	32819	
133	0	32784	32711	
134	0	32805	32710	
135	0	32842	32725	
136	0	32796	32732	
137	0	32801	32775	
138	0	32848	32850	
139	0	32796	32775	
140	0	32804	32875	
141	0	32828	32921	
142	0	32840	32864	
143	0	32805	32826	
144	0	32772	32914	
145	0	32818	32850	
146	0	32810	32865	
147	0	32768	32710	
148	0	32799	32635	
149	0	32794	32710	
150	0	32762	32573	
151	0	32887	32751	
152	0	32804	32834	
153	0	32816	32871	
154	0	32768	32901	
155	0	32820	32850	
156	0	32934	32832	
157	0	32888	32849	
158	0	32816	32877	
159	0	32800	32969	
160	0	32769	32868	
161	0	32801	32775	
162	0	32800	32719	
163	0	32732	32820	
164	0	32837	32837	
165	0	32792	32775	
166	0	32747	32760	
167	0	32832	32771	
168	0	32793	32811	
169	0	32761	32844	
170	0	32844	32861	
171	0	32776	32886	
172	0	32836	32856	
173	0	32744	32822	
174	0	32838	32935	
175	0	32792	32838	
176	0	32784	32766	
177	0	32882	32807	
178	0	32818	32826	
179	0	32786	32874	
180	0	32867	32801	
181	0	32797	32728	
182	0	32792	32748	
183	0	32776	32808	
184	0	32826	32815	
185	0	32802	32824	
186	0	32789	32827	
187	0	32786	32853	
188	0	32785	32813	
189	0	32787	32864	
190	0	32761	32843	
191	0	32824	32864	
192	0	32812	32890	
193	0	32834	32873	
194	0	32805	32775	
195	0	32856	32812	
196	0	32804	32741	
197	0	32788	32804	
198	0	32816	32863	
199	0	32794	32835	
200	0	32760	32844	
201	0	32844	32902	
202	0	32776	32933	
203	0	32768	32765	
204	0	32775	32720	
205	0	32808	32819	
206	0	32868	32892	
207	0	32860	32836	
208	0	32790	32814	
209	0	32739	32757	
210	0	32756	32745	
211	0	32810	32813	
212	0	32812	32868	
213	0	32820	32907	
214	0	32812	32966	
215	0	32807	32975	
216	0	32789	32952	
217	0	32790	32803	
218	0	32874	32718	
219	0	32752	32576	
220	0	32772	32647	
221	0	32804	32645	
222	0	32848	32854	
223	0	32795	32832	
224	0	32881	32809	
225	0	32713	32789	
226	0	32801	32860	
227	0	32792	32881	
228	0	32756	32924	
229	0	32840	32818	
230	0	32802	32739	
231	0	32816	32759	
232	0	32792	32759	
233	0	32762	32752	
234	0	32772	32839	
235	0	32780	32859	
236	0	32816	32768	
237	0	32852	32820	
238	0	32796	32825	
239	0	32775	32819	
240	0	32768	32815	
241	0	32787	32820	
242	0	32853	32845	
243	0	32776	32854	
244	0	32818	32842	
245	0	32884	32863	
246	0	32801	32740	
247	0	32824	32746	
248	0	32748	32734	
249	0	32880	32717	
250	0	32792	32824	
251	0	32854	32775	
252	0	32800	32716	
253	0	32828	32737	
254	0	32784	32740	
255	0	32856	32821	
256	0	32732	32868	
257	0	32868	32864	
258	0	32850	32809	
259	0	32784	32816	
260	0	32756	32825	
261	0	32770	32873	
262	0	32808	32895	
263	0	32802	32787	
264	0	32784	32770	
265	0	32810	32879	
266	0	32809	32903	
267	0	32812	32852	
268	0	32868	32807	
269	0	32784	32924	
270	0	32852	32891	
271	0	32775	32812	
272	0	32781	32733	
273	0	32740	32783	
274	0	32808	32739	
275	0	32842	32743	
276	0	32757	32748	
277	0	32809	32744	
278	0	32756	32805	
279	0	32813	32854	
280	0	32857	32806	
281	0	32860	32788	
282	0	32809	32820	
283	0	32833	32858	
284	0	32784	32818	
285	0	32816	32775	
286	0	32826	32712	
287	0	32764	32690	
288	0	32860	32690	
289	0	32784	32750	
290	0	32792	32647	
291	0	32814	32700	
292	0	32833	32800	
293	0	32710	32911	
294	0	32808	32881	
295	0	32842	32883	
296	0	32876	32851	
297	0	32812	32849	
298	0	32805	32740	
299	0	32782	32756	
300	0	32788	32727	
301	0	32789	32741	
302	0	32820	32759	
303	0	32842	32807	
304	0	32850	32740	
305	0	32775	32661	
306	0	32800	32760	
307	0	32825	32806	
308	0	32760	32816	
309	0	32760	32832	
310	0	32830	32887	
311	0	32800	32815	
312	0	32788	32868	
313	0	32754	32841	
314	0	32804	32814	
315	0	32780	32862	
316	0	32818	32848	
317	0	32804	32816	
318	0	32804	32775	
319	0	32808	32744	
320	0	32824	32784	
321	0	32750	32736	
322	0	32802	32839	
323	0	32824	32758	
324	0	32820	32817	
325	0	32793	32904	
326	0	32794	32818	
327	0	32824	32802	
328	0	32830	32698	
329	0	32800	32717	
330	0	32808	32688	
331	0	32783	32729	
332	0	32732	32716	
333	0	32816	32763	
334	0	32857	32775	
335	0	32775	32694	
336	0	32904	32799	
337	0	32810	32771	
338	0	32800	32888	
339	0	32812	32924	
340	0	32780	33012	
341	0	32768	32911	
342	0	32774	32902	
343	0	32774	32841	
344	0	32856	32745	
345	0	32762	32759	
346	0	32780	32747	
347	0	32860	32694	
348	0	32820	32711	
349	0	32872	32783	
350	0	32772	32816	
351	0	32804	32752	
352	0	32856	32832	
353	0	32778	32758	
354	0	32824	32834	
355	0	32846	32752	
356	0	32840	32796	
357	0	32912	32868	
358	0	32820	32854	
359	0	32780	32696	
360	0	32764	32706	
361	0	32843	32741	
362	0	32810	32745	
363	0	32856	32824	
364	0	32728	32829	
365	0	32864	32774	
366	0	32808	32886	
367	0	32794	32840	
368	0	32792	32762	
369	0	32756	32745	
370	0	32794	32718	
371	0	32784	32789	
372	0	32840	32817	
373	0	32790	32826	
374	0	32792	32792	
375	0	32856	32810	
376	0	32869	32836	
377	0	32864	32889	
378	0	32868	32811	
379	0	32836	32850	
380	0	32752	32809	
381	0	32776	32875	
382	0	32786	32795	
383	0	32804	32834	
384	0	32808	32749	
385	0	32737	32739	
386	0	32812	32751	
387	0	32813	32867	
388	0	32809	32833	
389	0	32817	32816	
390	0	32794	32892	
391	0	32826	32855	
392	0	32740	32857	
393	0	32829	32816	
394	0	32768	32720	
395	0	32822	32828	
396	0	32824	32809	
397	0	32752	32860	
398	0	32788	32809	
399	0	32834	32845	
400	0	32812	32794	
401	0	32804	32858	
402	0	32837	32874	
403	0	32772	32812	
404	0	32793	32870	
405	0	32792	32893	
406	0	32784	32896	
407	0	32798	32815	
408	0	32816	32719	
409	0	32818	32742	
410	0	32857	32679	
411	0	32774	32713	
412	0	32800	32732	
413	0	32805	32800	
414	0	32828	32806	
415	0	32762	32859	
416	0	32829	32804	
417	0	32800	32822	
418	0	32775	32861	
419	0	32804	32844	
420	0	32822	32886	
421	0	32788	32841	
422	0	32766	32834	
423	0	32836	32775	
424	0	32812	32833	
425	0	32854	32813	
426	0	32794	32792	
427	0	32795	32875	
428	0	32816	32843	
429	0	32812	32748	
430	0	32816	32719	
431	0	32810	32728	
432	0	32848	32748	
433	0	32840	32812	
434	0	32836	32808	
435	0	32812	32829	
436	0	32808	32854	
437	0	32838	32850	
438	0	32932	32751	
439	0	32716	32815	
440	0	32802	32762	
441	0	32796	32756	
442	0	32852	32809	
443	0	32744	32860	
444	0	32884	32892	
445	0	32805	32839	
446	0	32752	32832	
447	0	32820	32756	
448	0	32837	32729	
449	0	32782	32800	
450	0	32740	32888	
451	0	32764	32752	
452	0	32852	32799	
453	0	32794	32871	
454	0	32850	32755	
455	0	32840	32865	
456	0	32895	32720	
457	0	32812	32748	
458	0	32763	32736	
459	0	32762	32768	
460	0	32794	32824	
461	0	32820	32876	
462	0	32850	32775	
463	0	32846	32754	
464	0	32760	32775	
465	0	32756	32702	
466	0	32836	32682	
467	0	32827	32770	
468	0	32836	32762	
469	0	32737	32706	
470	0	32809	32710	
471	0	32820	32735	
472	0	32896	32686	
473	0	32805	32732	
474	0	32762	32694	
475	0	32788	32774	
476	0	32824	32749	
477	0	32871	32742	
478	0	32840	32827	
479	0	32782	32865	
480	0	32801	32807	
481	0	32836	32809	
482	0	32824	32826	
483	0	32790	32857	
484	0	32828	32896	
485	0	32804	32805	
486	0	32803	32798	
487	0	32824	32775	
488	0	32765	32819	
489	0	32790	32775	
490	0	32744	32700	
491	0	32877	32775	
492	0	32805	32837	
493	0	32800	32878	
494	0	32802	32886	
495	0	32820	32793	
496	0	32818	32757	
497	0	32781	32772	
498	0	32829	32770	
499	0	32796	32861	
500	0	32784	32849	
501	0	32820	32910	
502	0	32790	32803	
503	0	32766	32751	
504	0	32844	32687	
505	0	32834	32754	
506	0	32820	32797	
507	0	32773	32793	
508	0	32841	32862	
509	0	32786	32891	
510	0	32816	32876	
511	0	32792	32820	
512	0	32778	32838	
513	0	32816	32722	
514	0	32850	32828	
515	0	32836	32797	
516	0	32796	32841	
517	0	32754	32861	
518	0	32766	32784	
519	0	32776	32702	
520	0	32745	32748	
521	0	32804	32758	
522	0	32802	32736	
523	0	32797	32766	
524	0	32821	32823	
525	0	32826	32808	
526	0	32805	32839	
527	0	32780	32874	
528	0	32750	32837	
529	0	32784	32710	
530	0	32748	32745	
531	0	32778	32856	
532	0	32832	32805	
533	0	32832	32831	
534	0	32804	32736	
535	0	32775	32750	
536	0	32780	32748	
537	0	32876	32722	
538	0	32798	32767	
539	0	32861	32869	
540	0	32752	32788	
541	0	32792	32858	
542	0	32784	32818	
543	0	32800	32864	
544	0	32812	32912	
545	0	32788	32758	
546	0	32842	32749	
547	0	32850	32813	
548	0	32786	32830	
549	0	32814	32840	
550	0	32843	32838	
551	0	32876	32699	
552	0	32732	32837	
553	0	32800	32800	
554	0	32829	32804	
555	0	32814	32836	
556	0	32860	32761	
557	0	32788	32807	
558	0	32848	32790	
559	0	32840	32854	
560	0	32856	32769	
561	0	32842	32733	
562	0	32788	32752	
563	0	32809	32758	
564	0	32745	32825	
565	0	32819	32852	
566	0	32800	32792	
567	0	32854	32708	
568	0	32756	32712	
569	0	32780	32935	
570	0	32788	32816	
571	0	32824	32718	
572	0	32800	32699	
573	0	32899	32718	
574	0	32852	32742	
575	0	32776	32820	
576	0	32786	32773	
577	0	32796	32796	
578	0	32884	32868	
579	0	32820	32837	
580	0	32775	32749	
581	0	32840	32829	
582	0	32840	32815	
583	0	32752	32860	
584	0	32758	32869	
585	0	32776	32837	
586	0	32797	32896	
587	0	32848	32701	
588	0	32850	32726	
589	0	32772	32784	
590	0	32818	32884	
591	0	32810	32797	
592	0	32808	32856	
593	0	32834	32822	
594	0	32834	32736	
595	0	32744	32746	
596	0	32736	32811	
597	0	32784	32811	
598	0	32832	32847	
599	0	32880	32709	
600	0	32833	32799	
601	0	32798	32839	
602	0	32836	32848	
603	0	32777	32805	
604	0	32914	32844	
605	0	32772	32820	
606	0	32780	32852	
607	0	32816	32758	
608	0	32820	32733	
609	0	32868	32798	
610	0	32806	32799	
611	0	32825	32865	
612	0	32868	32882	
613	0	32786	32799	
614	0	32736	32771	
615	0	32808	32794	
616	0	32752	32738	
617	0	32766	32711	
618	0	32834	32741	
619	0	32732	32687	
620	0	32816	32716	
621	0	32801	32903	
622	0	32726	32836	
623	0	32752	32876	
624	0	32746	32843	
625	0	32856	32866	
626	0	32860	32833	
627	0	32775	32758	
628	0	32760	32819	
629	0	32776	32831	
630	0	32832	32837	
631	0	32846	32826	
632	0	32812	32844	
633	0	32808	32892	
634	0	32770	32869	
635	0	32812	32893	
636	0	32869	32767	
637	0	32780	32797	
638	0	32873	32727	
639	0	32900	32748	
640	0	32788	32720	
641	0	32762	32584	
642	0	32962	32662	
643	0	32932	32731	
644	0	32927	32688	
645	0	32867	32593	
646	0	32981	32608	
647	0	32912	32738	
648	0	32931	32756	
649	0	32845	32765	
650	0	32857	32770	
651	0	32875	32796	
652	0	32800	32748	
653	0	32698	32884	
654	0	32674	32874	
655	0	32669	32926	
656	0	32690	32882	
657	0	32762	32896	
658	0	32700	32875	
659	0	32694	32896	
660	0	32680	32969	
661	0	32756	32954	
662	0	32668	32964	
663	0	32745	33095	
664	0	32699	33078	
665	0	32652	33166	
666	0	32662	33127	
667	0	32598	33106	
668	0	32688	33141	
669	0	32723	33095	
670	0	32770	33016	
671	0	32792	32949	
672	0	32810	32884	
673	0	32799	32861	
674	0	32752	32888	
675	0	32760	32907	
676	0	32874	32805	
677	0	32906	32771	
678	0	32925	32710	
679	0	32816	32795	
680	0	32864	32745	
681	0	32832	32695	
682	0	32829	32766	
683	0	32896	32775	
684	0	32872	32749	
685	0	32853	32692	
686	0	32845	32597	
687	0	32808	32699	
688	0	32926	32679	
689	0	32830	32646	
690	0	32840	32624	
691	0	32832	32641	
692	0	32852	32680	
693	0	32896	32629	
694	0	32740	32796	
695	0	32804	32861	
696	0	32798	32758	
697	0	32784	32815	
698	0	32854	32793	
699	0	32732	32804	
700	0	32796	32840	
701	0	32822	32886	
702	0	32784	32839	
703	0	32780	32708	
704	0	32784	32725	
705	0	32774	32748	
706	0	32860	32750	
707	0	32812	32824	
708	0	32824	32873	
709	0	32866	32896	
710	0	32784	32767	
711	0	32835	32775	
712	0	32774	32820	
713	0	32864	32760	
714	0	32896	32793	
715	0	32784	32791	
716	0	32868	32741	
717	0	32854	32708	
718	0	32842	32767	
719	0	32808	32773	
720	0	32766	32758	
721	0	32780	32743	
722	0	32800	32780	
723	0	32772	32742	
724	0	32894	32759	
725	0	32750	32734	
726	0	32862	32714	
727	0	32762	32903	
728	0	32775	32771	
729	0	32765	32726	
730	0	32786	32775	
731	0	32772	32846	
732	0	32818	32831	
733	0	32826	32805	
734	0	32836	32775	
735	0	32800	32775	
736	0	32764	32772	
737	0	32816	32850	
738	0	32808	32864	
739	0	32854	32889	
740	0	32830	32775	
741	0	32772	32738	
742	0	32766	32759	
743	0	32850	32746	
744	0	32791	32796	
745	0	32866	32739	
746	0	32796	32822	
747	0	32796	32703	
748	0	32730	32874	
749	0	32738	32850	
750	0	32844	32802	
751	0	32770	32876	
752	0	32804	32788	
753	0	32832	32900	
754	0	32824	32838	
755	0	32847	32750	
756	0	32804	32743	
757	0	32773	32740	
758	0	32780	32814	
759	0	32786	32813	
760	0	32846	32868	
761	0	32832	32856	
762	0	32756	32890	
763	0	32800	32834	
764	0	32834	32758	
765	0	32800	32718	
766	0	32848	32834	
767	0	32804	32824	
768	0	32803	32829	
769	0	32834	32802	
770	0	32884	32805	
771	0	32826	32750	
772	0	32800	32684	
773	0	32832	32760	
774	0	32789	32756	
775	0	32775	32704	
776	0	32786	32769	
777	0	32826	32698	
778	0	32848	32767	
779	0	32832	32696	
780	0	32740	32718	
781	0	32756	32833	
782	0	32840	32873	
783	0	32812	32771	
784	0	32785	32838	
785	0	32799	32815	
786	0	32820	32886	
787	0	32857	32900	
788	0	32834	32859	
789	0	32764	32726	
790	0	32775	32739	
791	0	32746	32800	
792	0	32756	32822	
793	0	32720	32854	
794	0	32792	32816	
795	0	32834	32748	
796	0	32775	32793	
797	0	32858	32704	
798	0	32804	32724	
799	0	32768	32775	
800	0	32840	32826	
801	0	32834	32834	
802	0	32796	32840	
803	0	32780	32770	
804	0	32792	32870	
805	0	32860	32790	
806	0	32779	32799	
807	0	32776	32839	
808	0	32761	32918	
809	0	32788	32830	
810	0	32828	32760	
811	0	32804	32799	
812	0	32784	32769	
813	0	32824	32721	
814	0	32777	32898	
815	0	32865	32808	
816	0	32816	32794	
817	0	32824	32831	
818	0	32778	32814	
819	0	32790	32854	
820	0	32783	32834	
821	0	32760	32848	
822	0	32755	32879	
823	0	32808	32856	
824	0	32812	32775	
825	0	32844	32710	
826	0	32803	32829	
827	0	32804	32855	
828	0	32828	32734	
829	0	32857	32781	
830	0	32850	32868	
831	0	32761	32823	
832	0	32756	32748	
833	0	32804	32720	
834	0	32856	32711	
835	0	32793	32786	
836	0	32800	32736	
837	0	32792	32742	
838	0	32808	32831	
839	0	32788	32864	
840	0	32786	32821	
841	0	32852	32775	
842	0	32799	32815	
843	0	32782	32831	
844	0	32828	32862	
845	0	32822	32786	
846	0	32865	32823	
847	0	32780	32793	
848	0	32798	32846	
849	0	32820	32760	
850	0	32840	32715	
851	0	32828	32724	
852	0	32820	32729	
853	0	32801	32786	
854	0	32832	32711	
855	0	32796	32744	
856	0	32779	32754	
857	0	32776	32686	
858	0	32812	32717	
859	0	32800	32736	
860	0	32800	32769	
861	0	32753	32775	
862	0	32868	32702	
863	0	32876	32775	
864	0	32829	32905	
865	0	32797	32852	
866	0	32825	32808	
867	0	32840	32819	
868	0	32756	32824	
869	0	32788	32788	
870	0	32765	32824	
871	0	32796	32876	
872	0	32741	32843	
873	0	32836	32717	
874	0	32788	32739	
875	0	32804	32814	
876	0	32914	32860	
877	0	32784	32853	
878	0	32792	32809	
879	0	32740	32740	
880	0	32813	32835	
881	0	32782	32839	
882	0	32804	32760	
883	0	32809	32815	
884	0	32811	32869	
885	0	32800	32815	
886	0	32790	32748	
887	0	32856	32829	
888	0	32846	32822	
889	0	32764	32880	
890	0	32803	32868	
891	0	32834	32811	
892	0	32730	32791	
893	0	32826	32747	
894	0	32860	32838	
895	0	32824	32784	
896	0	32772	32769	
897	0	32844	32828	
898	0	32840	32775	
899	0	32725	32752	
900	0	32807	32813	
901	0	32772	32828	
902	0	32792	32900	
903	0	32808	32892	
904	0	32806	32738	
905	0	32803	32800	
906	0	32789	32820	
907	0	32844	32786	
908	0	32796	32864	
909	0	32848	32892	
910	0	32760	32843	
911	0	32778	32682	
912	0	32812	32736	
913	0	32805	32852	
914	0	32804	32775	
915	0	32804	32861	
916	0	32854	32863	
917	0	32842	32813	
918	0	32808	32694	
919	0	32768	32699	
920	0	32816	32766	
921	0	32820	32849	
922	0	32788	32844	
923	0	32810	32825	
924	0	32864	32812	
925	0	32796	32832	
926	0	32754	32732	
927	0	32766	32716	
928	0	32766	32834	
929	0	32812	32844	
930	0	32741	32877	
931	0	32778	32915	
932	0	32758	32767	
933	0	32813	32752	
934	0	32828	32800	
935	0	32860	32821	
936	0	32775	32804	
937	0	32812	32895	
938	0	32828	32780	
939	0	32829	32846	
940	0	32818	32844	
941	0	32775	32869	
942	0	32826	32730	
943	0	32816	32855	
944	0	32786	32840	
945	0	32838	32843	
946	0	32800	32848	
947	0	32832	32698	
948	0	32860	32819	
949	0	32816	32764	
950	0	32849	32831	
951	0	32765	32819	
952	0	32785	32787	
953	0	32860	32813	
954	0	32824	32717	
955	0	32784	32836	
956	0	32775	32886	
957	0	32872	32780	
958	0	32805	32728	
959	0	32788	32732	
960	0	32792	32799	
961	0	32786	32787	
962	0	32832	32786	
963	0	32769	32788	
964	0	32838	32864	
965	0	32837	32766	
966	0	32800	32742	
967	0	32854	32873	
968	0	32824	32763	
969	0	32800	32809	
970	0	32796	32839	
971	0	32848	32705	
972	0	32790	32720	
973	0	32861	32769	
974	0	32806	32812	
975	0	32869	32784	
976	0	32792	32766	
977	0	32782	32811	
978	0	32778	32718	
979	0	32806	32716	
980	0	32824	32795	
981	0	32829	32839	
982	0	32814	32820	
983	0	32813	32804	
984	0	32696	32766	
985	0	32836	32682	
986	0	32784	32825	
987	0	32778	32860	
988	0	32756	32851	
989	0	32769	32910	
990	0	32786	32775	
991	0	32850	32720	
992	0	32772	32783	
993	0	32804	32836	
994	0	32798	32802	
995	0	32848	32804	
996	0	32761	32812	
997	0	32844	32796	
998	0	32772	32807	
999	0	32836	32673	
1000	0	32784	32736	
1001	0	32808	32879	
1002	0	32786	32833	
1003	0	32784	32844	
1004	0	32798	32870	
1005	0	32808	32812	
1006	0	32832	32854	
1007	0	32868	32855	
1008	0	32837	32858	
1009	0	32829	32835	
1010	0	32802	32802	
1011	0	32784	32743	
1012	0	32745	32735	
1013	0	32752	32731	
1014	0	32773	32678	
1015	0	32830	32736	
1016	0	32800	32722	
1017	0	32848	32750	
1018	0	32858	32886	
1019	0	32784	32834	
1020	0	32772	32797	
1021	0	32824	32903	
1022	0	32824	32775	
1023	0	32754	32637	
1024	0	32720	32699	
1025	0	32756	32619	
1026	0	32754	32849	
1027	0	32764	32761	
1028	0	32779	32876	
1029	0	32856	32824	
1030	0	32804	32836	
1031	0	32884	32877	
1032	0	32868	32873	
1033	0	32856	32885	
1034	0	32864	32788	
1035	0	32786	32670	
1036	0	32770	32671	
1037	0	32804	32621	
1038	0	32816	32583	
1039	0	32809	32690	
1040	0	32804	32876	
1041	0	32792	32910	
1042	0	32834	32963	
1043	0	32812	32912	
1044	0	32866	32933	
1045	0	32832	32878	
1046	0	32836	32912	
1047	0	32822	32775	
1048	0	32756	32637	
1049	0	32808	32718	
1050	0	32805	32810	
1051	0	32892	32944	
1052	0	32840	32901	
1053	0	32780	32775	
1054	0	32774	32796	
1055	0	32774	32815	
1056	0	32828	32738	
1057	0	32765	32868	
1058	0	32784	32775	
1059	0	32698	32869	
1060	0	32861	32646	
1061	0	32836	32614	
1062	0	32935	32581	
1063	0	32805	32644	
1064	0	32772	32863	
1065	0	32808	32951	
1066	0	32832	32866	
1067	0	32720	32958	
1068	0	32775	32794	
1069	0	32738	32888	
1070	0	32890	32809	
1071	0	32773	32873	
1072	0	32904	32988	
1073	0	32872	32902	
1074	0	32826	32792	
1075	0	32832	32751	
1076	0	32716	32894	
1077	0	32816	32773	
1078	0	32762	32805	
1079	0	32766	32594	
1080	0	32772	32694	
1081	0	32745	32861	
1082	0	32688	32961	
1083	0	32786	32634	
1084	0	32904	32484	
1085	0	32932	32358	
1086	0	32988	32605	
1087	0	32895	32676	
1088	0	32720	33047	
1089	0	32734	32994	
1090	0	32750	32996	
1091	0	32720	33037	
1092	0	32720	32858	
1093	0	32784	32907	
1094	0	32788	32884	
1095	0	32700	32804	
1096	0	32712	32552	
1097	0	32842	32357	
1098	0	32805	32219	
1099	0	32774	32519	
1100	0	32796	32631	
1101	0	32830	32885	
1102	0	32771	33204	
1103	0	32838	33224	
1104	0	32898	33231	
1105	0	32866	33107	
1106	0	32916	33024	
1107	0	32929	32910	
1108	0	32769	32868	
1109	0	32832	32948	
1110	0	32787	32936	
1111	0	32918	32707	
1112	0	32792	32860	
1113	0	32832	32890	
1114	0	32794	32696	
1115	0	32749	32758	
1116	0	32680	32707	
1117	0	32741	32674	
1118	0	32760	32469	
1119	0	32688	32263	
1120	0	32744	32532	
1121	0	32692	32928	
1122	0	32804	33222	
1123	0	32880	33248	
1124	0	32804	33136	
1125	0	32893	32890	
1126	0	32842	32645	
1127	0	32822	32071	
1128	0	32911	32160	
1129	0	32880	32690	
1130	0	32848	32806	
1131	0	32768	32870	
1132	0	32788	32822	
1133	0	32900	32805	
1134	0	32834	33087	
1135	0	32837	32988	
1136	0	32784	32976	
1137	0	32714	32827	
1138	0	32775	32882	
1139	0	32816	33024	
1140	0	32838	32857	
1141	0	32769	32739	
1142	0	32844	32797	
1143	0	32797	32787	
1144	0	32824	32623	
1145	0	32860	32604	
1146	0	32814	32639	
1147	0	32850	32775	
1148	0	32680	32710	
1149	0	32825	32868	
1150	0	32740	32932	
1151	0	32775	32898	
1152	0	32788	33040	
1153	0	32750	32805	
1154	0	32750	32850	
1155	0	32720	32867	
1156	0	32754	32903	
1157	0	32834	32957	
1158	0	32776	33120	
1159	0	32708	32799	
1160	0	32804	32719	
1161	0	32744	32775	
1162	0	32824	32576	
1163	0	32864	32528	
1164	0	32888	32743	
1165	0	32826	32763	
1166	0	32818	32767	
1167	0	32920	32796	
1168	0	32844	32797	
1169	0	32842	32947	
1170	0	32860	32830	
1171	0	32825	32730	
1172	0	32760	32766	
1173	0	32811	32873	
1174	0	32664	32943	
1175	0	32775	32858	
1176	0	32784	32816	
1177	0	32774	32932	
1178	0	32808	32858	
1179	0	32828	32706	
1180	0	32786	32479	
1181	0	32777	32524	
1182	0	32840	32700	
1183	0	32828	32799	
1184	0	32865	32898	
1185	0	32740	32956	
1186	0	32778	32908	
1187	0	32828	32844	
1188	0	32816	32798	
1189	0	32773	32881	
1190	0	32799	32870	
1191	0	32888	32827	
1192	0	32795	32748	
1193	0	32788	32838	
1194	0	32734	32757	
1195	0	32832	32876	
1196	0	32818	32897	
1197	0	32706	32816	
1198	0	32769	32807	
1199	0	32760	32771	
1200	0	32764	32762	
1201	0	32800	32813	
1202	0	32849	32790	
1203	0	32848	32820	
1204	0	32744	32873	
1205	0	32834	32761	
1206	0	32818	32788	
1207	0	32832	32813	
1208	0	32793	32703	
1209	0	32776	32738	
1210	0	32775	32775	
1211	0	32756	32796	
1212	0	32797	32771	
1213	0	32836	32892	
1214	0	32797	32816	
1215	0	32756	32646	
1216	0	32836	32838	
1217	0	32864	32832	
1218	0	32832	32854	
1219	0	32725	32869	
1220	0	32758	32778	
1221	0	32764	32828	
1222	0	32773	32823	
1223	0	32807	32880	
1224	0	32790	32892	
1225	0	32820	32816	
1226	0	32784	32787	
1227	0	32761	32822	
1228	0	32800	32799	
1229	0	32669	32890	
1230	0	32824	32897	
1231	0	32852	32835	
1232	0	32844	32820	
1233	0	32798	32753	
1234	0	32929	32826	
1235	0	32929	32835	
1236	0	32772	32958	
1237	0	32773	32691	
1238	0	32756	32682	
1239	0	32780	32775	
1240	0	32784	32793	
1241	0	32766	32820	
1242	0	32816	32908	
1243	0	32898	32893	
1244	0	32824	32829	
1245	0	32816	32758	
1246	0	32760	32702	
1247	0	32774	32745	
1248	0	32796	32710	
1249	0	32820	32765	
1250	0	32812	32833	
1251	0	32773	32834	
1252	0	32812	32754	
1253	0	32764	32746	
1254	0	32804	32805	
1255	0	32820	32967	
1256	0	32804	32882	
1257	0	32816	32878	
1258	0	32813	32909	
1259	0	32836	32830	
1260	0	32764	32738	
1261	0	32784	32567	
1262	0	32825	32583	
1263	0	32774	32775	
1264	0	32852	32848	
1265	0	32771	32950	
1266	0	32802	32940	
1267	0	32768	32903	
1268	0	32861	32882	
1269	0	32796	32850	
1270	0	32814	32822	
1271	0	32848	32766	
1272	0	32850	32801	
1273	0	32830	32697	
1274	0	32813	32668	
1275	0	32838	32792	
1276	0	32773	32770	
1277	0	32832	32930	
1278	0	32797	32888	
1279	0	32737	32891	
1280	0	32776	32919	
1281	0	32818	32848	
1282	0	32912	32796	
1283	0	32866	32707	
1284	0	32792	32621	
1285	0	32775	32717	
1286	0	32802	32775	
1287	0	32780	32903	
1288	0	32762	32775	
1289	0	32813	32775	
1290	0	32792	32775	
1291	0	32828	32738	
1292	0	32809	32790	
1293	0	32824	32790	
1294	0	32850	32784	
1295	0	32786	32716	
1296	0	32848	32786	
1297	0	32774	32808	
1298	0	32834	32833	
1299	0	32772	32886	
1300	0	32794	32919	
1301	0	32788	32930	
1302	0	32800	32770	
1303	0	32766	32742	
1304	0	32784	32744	
1305	0	32836	32790	
1306	0	32792	32790	
1307	0	32855	32832	
1308	0	32774	32863	
1309	0	32832	32926	
1310	0	32826	32869	
1311	0	32725	32766	
1312	0	32824	32678	
1313	0	32826	32676	
1314	0	32794	32754	
1315	0	32752	32739	
1316	0	32672	32839	
1317	0	32804	32817	
1318	0	32804	32735	
1319	0	32876	32840	
1320	0	32837	32887	
1321	0	32764	32997	
1322	0	32860	32813	
1323	0	32819	32783	
1324	0	32812	32915	
1325	0	32768	32872	
1326	0	32780	32881	
1327	0	32809	32850	
1328	0	32780	32692	
1329	0	32768	32637	
1330	0	32826	32606	
1331	0	32796	32690	
1332	0	32832	32744	
1333	0	32848	32703	
1334	0	32752	32734	
1335	0	32756	32760	
1336	0	32802	32721	
1337	0	32869	32588	
1338	0	32829	32643	
1339	0	32785	32876	
1340	0	32816	32952	
1341	0	32832	32974	
1342	0	32809	32919	
1343	0	32905	32853	
1344	0	32796	32903	
1345	0	32828	32964	
1346	0	32800	32934	
1347	0	32744	32813	
1348	0	32832	32790	
1349	0	32728	32808	
1350	0	32753	32692	
1351	0	32825	32646	
1352	0	32833	32616	
1353	0	32788	32789	
1354	0	32859	32856	
1355	0	32720	32928	
1356	0	32770	32962	
1357	0	32846	32839	
1358	0	32834	32738	
1359	0	32784	32830	
1360	0	32796	32712	
1361	0	32850	32713	
1362	0	32865	32804	
1363	0	32876	32885	
1364	0	32805	32850	
1365	0	32838	32800	
1366	0	32850	32763	
1367	0	32814	32749	
1368	0	32824	32761	
1369	0	32718	32764	
1370	0	32762	32771	
1371	0	32818	32766	
1372	0	32871	32862	
1373	0	32775	32844	
1374	0	32818	32775	
1375	0	32852	32822	
1376	0	32772	32819	
1377	0	32804	32812	
1378	0	32756	32711	
1379	0	32829	32702	
1380	0	32774	32786	
1381	0	32793	32796	
1382	0	32744	32928	
1383	0	32765	32806	
1384	0	32788	32860	
1385	0	32754	32774	
1386	0	32781	32865	
1387	0	32775	32911	
1388	0	32740	32876	
1389	0	32740	32796	
1390	0	32832	32792	
1391	0	32868	32750	
1392	0	32804	32787	
1393	0	32800	32785	
1394	0	32760	32852	
1395	0	32802	32809	
1396	0	32775	32738	
1397	0	32828	32698	
1398	0	32832	32744	
1399	0	32874	32860	
1400	0	32850	32809	
1401	0	32923	32594	
1402	0	32936	32702	
1403	0	32880	32686	
1404	0	32924	32644	
1405	0	32924	32640	
1406	0	32948	32645	
1407	0	32940	32654	
1408	0	32936	32628	
1409	0	32900	32665	
1410	0	32829	32852	
1411	0	32852	32730	
1412	0	32829	32696	
1413	0	32754	32918	
1414	0	32640	32967	
1415	0	32617	32925	
1416	0	32690	32908	
1417	0	32736	32760	
1418	0	32716	32728	
1419	0	32732	32840	
1420	0	32694	32913	
1421	0	32652	33031	
1422	0	32728	33018	
1423	0	32726	32848	
1424	0	32648	32941	
1425	0	32680	33052	
1426	0	32612	33031	
1427	0	32658	33033	
1428	0	32592	33005	
1429	0	32620	33071	
1430	0	32721	33002	
1431	0	32785	32954	
1432	0	32733	32962	
1433	0	32780	32958	
1434	0	32812	32928	
1435	0	32832	32742	
1436	0	32861	32766	
1437	0	32784	32730	
1438	0	32852	32651	
1439	0	32914	32677	
1440	0	32929	32687	
1441	0	32860	32669	
1442	0	32896	32621	
1443	0	32848	32558	
1444	0	32884	32712	
1445	0	32900	32795	
1446	0	32913	32804	
1447	0	32822	32743	
1448	0	32888	32852	
1449	0	32864	32681	
1450	0	32836	32671	
1451	0	32896	32668	
1452	0	32866	32706	
1453	0	32808	32728	
1454	0	32898	32801	
1455	0	32762	32738	
1456	0	32816	32724	
1457	0	32840	32769	
1458	0	32770	32786	
1459	0	32812	32793	
1460	0	32764	32920	
1461	0	32784	32775	
1462	0	32779	32728	
1463	0	32768	32861	
1464	0	32832	32860	
1465	0	32801	32900	
1466	0	32809	32896	
1467	0	32861	32771	
1468	0	32748	32879	
1469	0	32832	32893	
1470	0	32773	32866	
1471	0	32903	32665	
1472	0	32808	32608	
1473	0	32798	32762	
1474	0	32838	32689	
1475	0	32778	32789	
1476	0	32809	32736	
1477	0	32816	32799	
1478	0	32788	32805	
1479	0	32813	32903	
1480	0	32856	32789	
1481	0	32749	32856	
1482	0	32848	32928	
1483	0	32824	32910	
1484	0	32782	32760	
1485	0	32816	32722	
1486	0	32774	32820	
1487	0	32748	32775	
1488	0	32848	32809	
1489	0	32775	32784	
1490	0	32740	32783	
1491	0	32776	32775	
1492	0	32850	32793	
1493	0	32841	32856	
1494	0	32802	32848	
1495	0	32848	32791	
1496	0	32812	32846	
1497	0	32780	32891	
1498	0	32860	32800	
1499	0	32865	32775	
1500	0	32758	32693	
1501	0	32874	32868	
1502	0	32805	32748	
1503	0	32768	32835	
1504	0	32820	32870	
1505	0	32805	32799	
1506	0	32772	32793	
1507	0	32798	32723	
1508	0	32797	32750	
1509	0	32848	32830	
1510	0	32765	32834	
1511	0	32808	32839	
1512	0	32768	32814	
1513	0	32828	32740	
1514	0	32812	32771	
1515	0	32788	32830	
1516	0	32780	32894	
1517	0	32834	32866	
1518	0	32837	32739	
1519	0	32826	32842	
1520	0	32848	32775	
1521	0	32836	32891	
1522	0	32840	32855	
1523	0	32817	32714	
1524	0	32792	32774	
1525	0	32814	32864	
1526	0	32800	32828	
1527	0	32720	32835	
1528	0	32872	32793	
1529	0	32786	32673	
1530	0	32818	32839	
1531	0	32812	32750	
1532	0	32826	32802	
1533	0	32800	32831	
1534	0	32786	32839	
1535	0	32866	32736	
1536	0	32808	32816	
1537	0	32896	32844	
1538	0	32841	32826	
1539	0	32792	32884	
1540	0	32784	32845	
1541	0	32842	32775	
1542	0	32808	32724	
1543	0	32812	32707	
1544	0	32762	32816	
1545	0	32756	32840	
1546	0	32824	32730	
1547	0	32738	32819	
1548	0	32864	32806	
1549	0	32796	32837	
1550	0	32822	32850	
1551	0	32772	32893	
1552	0	32768	32832	
1553	0	32782	32718	
1554	0	32851	32675	
1555	0	32816	32703	
1556	0	32799	32740	
1557	0	32800	32870	
1558	0	32825	32773	
1559	0	32749	32877	
1560	0	32788	32886	
1561	0	32774	32775	
1562	0	32790	32711	
1563	0	32768	32840	
1564	0	32825	32770	
1565	0	32797	32856	
1566	0	32771	32819	
1567	0	32794	32807	
1568	0	32788	32828	
1569	0	32772	32768	
1570	0	32843	32724	
1571	0	32825	32775	
1572	0	32844	32711	
1573	0	32768	32771	
1574	0	32800	32726	
1575	0	32832	32749	
1576	0	32810	32738	
1577	0	32853	32760	
1578	0	32772	32724	
1579	0	32734	32785	
1580	0	32836	32789	
1581	0	32852	32851	
1582	0	32799	32764	
1583	0	32828	32674	
1584	0	32816	32748	
1585	0	32863	32868	
1586	0	32786	32921	
1587	0	32760	32889	
1588	0	32810	32850	
1589	0	32719	32754	
1590	0	32730	32805	
1591	0	32860	32712	
1592	0	32840	32692	
1593	0	32790	32671	
1594	0	32784	32719	
1595	0	32812	32753	
1596	0	32790	32787	
1597	0	32859	32734	
1598	0	32809	32745	
1599	0	32800	32795	
1600	0	32832	32853	
1601	0	32836	32726	
1602	0	32786	32854	
1603	0	32792	32890	
1604	0	32868	32888	
1605	0	32792	32821	
1606	0	32792	32690	
1607	0	32830	32805	
1608	0	32760	32763	
1609	0	32786	32839	
1610	0	32772	32872	
1611	0	32812	32874	
1612	0	32816	32839	
1613	0	32796	32874	
1614	0	32784	32775	
1615	0	32865	32775	
1616	0	32805	32844	
1617	0	32772	32775	
1618	0	32800	32812	
1619	0	32820	32766	
1620	0	32792	32704	
1621	0	32816	32641	
1622	0	32808	32722	
1623	0	32824	32647	
1624	0	32769	32884	
1625	0	32896	32864	
1626	0	32820	32852	
1627	0	32785	32903	
1628	0	32811	32769	
1629	0	32760	32738	
1630	0	32857	32790	
1631	0	32736	32764	
1632	0	32854	32822	
1633	0	32812	32807	
1634	0	32796	32706	
1635	0	32768	32911	
1636	0	32784	32751	
1637	0	32796	32847	
1638	0	32824	32832	
1639	0	32894	32829	
1640	0	32700	32752	
1641	0	32828	32716	
1642	0	32834	32691	
1643	0	32828	32656	
1644	0	32826	32724	
1645	0	32796	32757	
1646	0	32820	32735	
1647	0	32825	32775	
1648	0	32786	32809	
1649	0	32860	32796	
1650	0	32790	32844	
1651	0	32832	32844	
1652	0	32797	32847	
1653	0	32808	32774	
1654	0	32848	32815	
1655	0	32784	32825	
1656	0	32737	32797	
1657	0	32808	32706	
1658	0	32838	32656	
1659	0	32784	32722	
1660	0	32781	32843	
1661	0	32844	32863	
1662	0	32764	32866	
1663	0	32720	32923	
1664	0	32824	32829	
1665	0	32776	32934	
1666	0	32788	32786	
1667	0	32801	32708	
1668	0	32824	32775	
1669	0	32736	32854	
1670	0	32784	32898	
1671	0	32821	32853	
1672	0	32866	32904	
1673	0	32861	32825	
1674	0	32820	32793	
1675	0	32794	32775	
1676	0	32768	32745	
1677	0	32808	32749	
1678	0	32761	32703	
1679	0	32768	32771	
1680	0	32728	32860	
1681	0	32820	32772	
1682	0	32824	32805	
1683	0	32736	32851	
1684	0	32845	32852	
1685	0	32748	32751	
1686	0	32788	32741	
1687	0	32770	32827	
1688	0	32804	32791	
1689	0	32738	32801	
1690	0	32736	32876	
1691	0	32859	32812	
1692	0	32842	32723	
1693	0	32775	32832	
1694	0	32793	32855	
1695	0	32844	32813	
1696	0	32808	32862	
1697	0	32800	32792	
1698	0	32835	32745	
1699	0	32790	32740	
1700	0	32756	32792	
1701	0	32800	32757	
1702	0	32832	32884	
1703	0	32848	32889	
1704	0	32744	32934	
1705	0	32821	32826	
1706	0	32805	32750	
1707	0	32756	32718	
1708	0	32836	32731	
1709	0	32822	32736	
1710	0	32760	32723	
1711	0	32810	32814	
1712	0	32765	32866	
1713	0	32837	32850	
1714	0	32740	32847	
1715	0	32837	32838	
1716	0	32856	32890	
1717	0	32817	32809	
1718	0	32812	32699	
1719	0	32748	32726	
1720	0	32787	32704	
1721	0	32862	32801	
1722	0	32792	32816	
1723	0	32872	32775	
1724	0	32774	32778	
1725	0	32797	32803	
1726	0	32784	32825	
1727	0	32860	32799	
1728	0	32836	32748	
1729	0	32760	32704	
1730	0	32848	32820	
1731	0	32844	32775	
1732	0	32856	32795	
1733	0	32796	32860	
1734	0	32738	32908	
1735	0	32833	32869	
1736	0	32766	32916	
1737	0	32774	32869	
1738	0	32804	32843	
1739	0	32802	32772	
1740	0	32840	32775	
1741	0	32772	32749	
1742	0	32860	32640	
1743	0	32816	32729	
1744	0	32744	32775	
1745	0	32809	32708	
1746	0	32852	32715	
1747	0	32764	32806	
1748	0	32890	32738	
1749	0	32856	32713	
1750	0	32790	32678	
1751	0	32775	32846	
1752	0	32758	32851	
1753	0	32754	32862	
1754	0	32790	32871	
1755	0	32822	32826	
1756	0	32748	32829	
1757	0	32808	32807	
1758	0	32782	32820	
1759	0	32869	32851	
1760	0	32808	32820	
1761	0	32808	32850	
1762	0	32712	32781	
1763	0	32834	32794	
1764	0	32754	32788	
1765	0	32858	32691	
1766	0	32805	32771	
1767	0	32733	32795	
1768	0	32832	32791	
1769	0	32836	32749	
1770	0	32802	32891	
1771	0	32844	32856	
1772	0	32796	32833	
1773	0	32825	32832	
1774	0	32764	32804	
1775	0	32768	32769	
1776	0	32806	32733	
1777	0	32832	32838	
1778	0	32838	32809	
1779	0	32880	32865	
1780	0	32794	32795	
1781	0	32804	32834	
1782	0	32754	32811	
1783	0	32790	32812	
1784	0	32804	32733	
1785	0	32841	32802	
1786	0	32868	32721	
1787	0	32810	32820	
1788	0	32756	32808	
1789	0	32742	32908	
1790	0	32854	32820	
1791	0	32846	32851	
1792	0	32761	32835	
1793	0	32873	32816	
1794	0	32855	32839	
1795	0	32816	32702	
1796	0	32804	32809	
1797	0	32800	32714	
1798	0	32766	32835	
1799	0	32796	32874	
1800	0	32788	32887	
1801	0	32844	32976	
1802	0	32824	32963	
1803	0	32828	32858	
1804	0	32774	32927	
1805	0	32768	32819	
1806	0	32728	32822	
1807	0	32752	32694	
1808	0	32832	32666	
1809	0	32840	32538	
1810	0	32805	32615	
1811	0	32848	32702	
1812	0	32846	32925	
1813	0	32786	32813	
1814	0	32777	32892	
1815	0	32844	32859	
1816	0	32804	32896	
1817	0	32862	32759	
1818	0	32852	32755	
1819	0	32852	32836	
1820	0	32816	32827	
1821	0	32808	32838	
1822	0	32797	32775	
1823	0	32769	32812	
1824	0	32746	32786	
1825	0	32864	32854	
1826	0	32816	32918	
1827	0	32803	32820	
1828	0	32756	32797	
1829	0	32778	32748	
1830	0	32824	32732	
1831	0	32844	32726	
1832	0	32836	32740	
1833	0	32800	32708	
1834	0	32760	32669	
1835	0	32776	32700	
1836	0	32808	32741	
1837	0	32778	32854	
1838	0	32805	32827	
1839	0	32843	32813	
1840	0	32808	32822	
1841	0	32824	32868	
1842	0	32898	32811	
1843	0	32804	32797	
1844	0	32780	32732	
1845	0	32766	32738	
1846	0	32768	32762	
1847	0	32864	32876	
1848	0	32764	32775	
1849	0	32828	32832	
1850	0	32748	32839	
1851	0	32792	32880	
1852	0	32796	32825	
1853	0	32854	32710	
1854	0	32797	32836	
1855	0	32799	32894	
1856	0	32796	32869	
1857	0	32740	32805	
1858	0	32812	32844	
1859	0	32861	32774	
1860	0	32790	32753	
1861	0	32796	32790	
1862	0	32828	32868	
1863	0	32808	32743	
1864	0	32792	32791	
1865	0	32773	32808	
1866	0	32800	32876	
1867	0	32844	32682	
1868	0	32832	32868	
1869	0	32840	32909	
1870	0	32833	32864	
1871	0	32778	32813	
1872	0	32826	32787	
1873	0	32772	32787	
1874	0	32836	32786	
1875	0	32880	32775	
1876	0	32793	32717	
1877	0	32868	32715	
1878	0	32775	32806	
1879	0	32820	32850	
1880	0	32792	32844	
1881	0	32786	32734	
1882	0	32818	32726	
1883	0	32796	32732	
1884	0	32878	32824	
1885	0	32813	32771	
1886	0	32796	32838	
1887	0	32857	32890	
1888	0	32803	32801	
1889	0	32820	32808	
1890	0	32816	32852	
1891	0	32838	32865	
1892	0	32842	32935	
1893	0	32736	32815	
1894	0	32840	32806	
1895	0	32782	32775	
1896	0	32796	32688	
1897	0	32757	32768	
1898	0	32881	32789	
1899	0	32896	32748	
1900	0	32824	32843	
1901	0	32812	32806	
1902	0	32764	32807	
1903	0	32760	32903	
1904	0	32744	32800	
1905	0	32829	32769	
1906	0	32836	32772	
1907	0	32820	32695	
1908	0	32804	32618	
1909	0	32820	32809	
1910	0	32786	32844	
1911	0	32744	32838	
1912	0	32832	32863	
1913	0	32770	32805	
1914	0	32812	32818	
1915	0	32760	32833	
1916	0	32828	32846	
1917	0	32772	32752	
1918	0	32784	32790	
1919	0	32872	32830	
1920	0	32822	32784	
1921	0	32776	32715	
1922	0	32780	32855	
1923	0	32744	32812	
1924	0	32804	32773	
1925	0	32776	32800	
1926	0	32764	32854	
1927	0	32796	32788	
1928	0	32814	32800	
1929	0	32854	32848	
1930	0	32808	32765	
1931	0	32801	32813	
1932	0	32736	32828	
1933	0	32800	32808	
1934	0	32790	32756	
1935	0	32814	32784	
1936	0	32784	32807	
1937	0	32804	32800	
1938	0	32784	32702	
1939	0	32872	32750	
1940	0	32826	32728	
1941	0	32748	32943	
1942	0	32758	32880	
1943	0	32772	32775	
1944	0	32788	32710	
1945	0	32800	32775	
1946	0	32888	32857	
1947	0	32804	32805	
1948	0	32834	32841	
1949	0	32828	32842	
1950	0	32776	32793	
1951	0	32812	32806	
1952	0	32790	32775	
1953	0	32880	32820	
1954	0	32824	32845	
1955	0	32797	32737	
1956	0	32898	32827	
1957	0	32804	32822	
1958	0	32816	32844	
1959	0	32784	32710	
1960	0	32772	32856	
1961	0	32742	32846	
1962	0	32802	32805	
1963	0	32798	32775	
1964	0	32769	32807	
1965	0	32829	32702	
1966	0	32808	32717	
1967	0	32824	32804	
1968	0	32792	32829	
1969	0	32762	32920	
1970	0	32784	32723	
1971	0	32780	32770	
1972	0	32788	32826	
1973	0	32818	32947	
1974	0	32829	32877	
1975	0	32788	32860	
1976	0	32796	32875	
1977	0	32824	32821	
1978	0	32827	32640	
1979	0	32818	32628	
1980	0	32844	32786	
1981	0	32786	32768	
1982	0	32824	32902	
1983	0	32884	32832	
1984	0	32828	32818	
1985	0	32875	32764	
1986	0	32779	32822	
1987	0	32816	32832	
1988	0	32716	32831	
1989	0	32812	32771	
1990	0	32784	32908	
1991	0	32828	32879	
1992	0	32848	32795	
1993	0	32816	32921	
1994	0	32854	32899	
1995	0	32729	32811	
1996	0	32829	32811	
1997	0	32808	32862	
1998	0	32850	32789	
1999	0	32841	32775	
2000	0	32796	32691	
2001	0	32780	32716	
2002	0	32819	32710	
2003	0	32772	32710	
2004	0	32837	32731	
2005	0	32800	32739	
2006	0	32796	32843	
2007	0	32786	32887	
2008	0	32760	32784	
2009	0	32780	32722	
2010	0	32808	32750	
2011	0	32813	32864	
2012	0	32809	32910	
2013	0	32786	32775	
2014	0	32864	32948	
2015	0	32736	32997	
2016	0	32792	32883	
2017	0	32888	32738	
2018	0	32768	32662	
2019	0	32840	32731	
2020	0	32844	32793	
2021	0	32838	32651	
2022	0	32775	32687	
2023	0	32832	32890	
2024	0	32752	32805	
2025	0	32840	32896	
2026	0	32872	32805	
2027	0	32842	32697	
2028	0	32796	32748	
2029	0	32786	32706	
2030	0	32761	32882	
2031	0	32852	32754	
2032	0	32876	32805	
2033	0	32824	32907	
2034	0	32781	32854	
2035	0	32852	32740	
2036	0	32797	32710	
2037	0	32816	32723	
2038	0	32864	32762	
2039	0	32840	32889	
2040	0	32740	32850	
2041	0	32800	32878	
2042	0	32794	32966	
2043	0	32806	32775	
2044	0	32824	32631	
2045	0	32788	32671	
2046	0	32722	32706	
2047	0	32792	32749	
2048	0	32773	32818	
2049	0	32869	32914	
2050	0	32836	32834	
2051	0	32856	32744	
2052	0	32858	32756	
2053	0	32756	32829	
2054	0	32812	32885	
2055	0	32770	32836	
2056	0	32778	32863	
2057	0	32805	32816	
2058	0	32834	32754	
2059	0	32817	32879	
2060	0	32764	32885	
2061	0	32793	32855	
2062	0	32829	32828	
2063	0	32772	32890	
2064	0	32740	32961	
2065	0	32756	32807	
2066	0	32889	32731	
2067	0	32808	32705	
2068	0	32792	32744	
2069	0	32775	32736	
2070	0	32812	32789	
2071	0	32792	32895	
2072	0	32802	32797	
2073	0	32904	32785	
2074	0	32768	32869	
2075	0	32825	32903	
2076	0	32830	32824	
2077	0	32832	32827	
2078	0	32801	32800	
2079	0	32850	32816	
2080	0	32796	32760	
2081	0	32834	32662	
2082	0	32832	32712	
2083	0	32842	32772	
2084	0	32768	32870	
2085	0	32794	32698	
2086	0	32787	32761	
2087	0	32796	32815	
2088	0	32775	32808	
2089	0	32801	32829	
2090	0	32808	32956	
2091	0	32784	32883	
2092	0	32869	32827	
2093	0	32749	32758	
2094	0	32780	32743	
2095	0	32900	32764	
2096	0	32797	32769	
2097	0	32856	32805	
2098	0	32844	32722	
2099	0	32796	32739	
2100	0	32866	32671	
2101	0	32732	32879	
2102	0	32758	32864	
2103	0	32784	32853	
2104	0	32794	32767	
2105	0	32752	32848	
2106	0	32810	32719	
2107	0	32793	32696	
2108	0	32821	32802	
2109	0	32840	32774	
2110	0	32769	32832	
2111	0	32880	32850	
2112	0	32788	32811	
2113	0	32802	32836	
2114	0	32804	32856	
2115	0	32820	32872	
2116	0	32776	32771	
2117	0	32816	32732	
2118	0	32835	32786	
2119	0	32805	32751	
2120	0	32821	32745	
2121	0	32809	32813	
2122	0	32754	32881	
2123	0	32732	32878	
2124	0	32816	32879	
2125	0	32839	32861	
2126	0	32788	32804	
2127	0	32800	32734	
2128	0	32808	32786	
2129	0	32820	32704	
2130	0	32762	32783	
2131	0	32784	32797	
2132	0	32850	32813	
2133	0	32788	32809	
2134	0	32774	32882	
2135	0	32786	32800	
2136	0	32775	32818	
2137	0	32864	32696	
2138	0	32813	32598	
2139	0	32774	32717	
2140	0	32792	32790	
2141	0	32816	32986	
2142	0	32860	32853	
2143	0	32850	32748	
2144	0	32828	32872	
2145	0	32754	32892	
2146	0	32830	32967	
2147	0	32825	32843	
2148	0	32792	32710	
2149	0	32789	32818	
2150	0	32805	32751	
2151	0	32793	32849	
2152	0	32826	32749	
2153	0	32836	32918	
2154	0	32775	32873	
2155	0	32730	32900	
2156	0	32752	32841	
2157	0	32820	32699	
2158	0	32740	32700	
2159	0	32820	32871	
2160	0	32836	32757	
2161	0	32785	32713	
2162	0	32890	32796	
2163	0	32734	32780	
2164	0	32818	32819	
2165	0	32720	32807	
2166	0	32818	32741	
2167	0	32869	32759	
2168	0	32800	32815	
2169	0	32861	32817	
2170	0	32834	32688	
2171	0	32828	32717	
2172	0	32792	32696	
2173	0	32936	32744	
2174	0	32950	32710	
2175	0	32946	32730	
2176	0	32907	32647	
2177	0	33007	32525	
2178	0	32910	32569	
2179	0	32898	32616	
2180	0	32908	32650	
2181	0	32936	32827	
2182	0	32924	32858	
2183	0	32818	32846	
2184	0	32812	32772	
2185	0	32694	32930	
2186	0	32764	33006	
2187	0	32724	32948	
2188	0	32704	32898	
2189	0	32706	32707	
2190	0	32648	32743	
2191	0	32658	32759	
2192	0	32775	32861	
2193	0	32736	32820	
2194	0	32706	32821	
2195	0	32698	32937	
2196	0	32600	33300	
2197	0	32494	33486	
2198	0	32471	33662	
2199	0	32496	33400	
2200	0	32516	33195	
2201	0	32477	32952	
2202	0	32626	32764	
2203	0	32718	32521	
2204	0	32872	33020	
2205	0	33074	32990	
2206	0	33104	32656	
2207	0	33180	32516	
2208	0	33122	32384	
2209	0	32809	32676	
2210	0	32628	32746	
2211	0	32616	32324	
2212	0	32650	32432	
2213	0	32628	32466	
2214	0	32738	32488	
2215	0	32924	32704	
2216	0	33148	32771	
2217	0	33154	32702	
2218	0	33050	32775	
2219	0	32992	32568	
2220	0	33024	32455	
2221	0	32901	32527	
2222	0	32876	32615	
2223	0	32864	32747	
2224	0	32876	32966	
2225	0	32880	33031	
2226	0	32828	33339	
2227	0	32802	33343	
2228	0	32712	33184	
2229	0	32720	33153	
2230	0	32750	33085	
2231	0	32690	32706	
2232	0	32732	32752	
2233	0	32788	32696	
2234	0	32809	32602	
2235	0	32677	32656	
2236	0	32720	32775	
2237	0	32654	32891	
2238	0	32684	32722	
2239	0	32850	32516	
2240	0	32797	32562	
2241	0	32800	32563	
2242	0	32773	32568	
2243	0	32788	32787	
2244	0	32880	32799	
2245	0	32896	32759	
2246	0	32817	32736	
2247	0	32824	32805	
2248	0	32868	32955	
2249	0	32741	32866	
2250	0	32754	32967	
2251	0	32804	33105	
2252	0	32738	33222	
2253	0	32798	33133	
2254	0	32768	33053	
2255	0	32800	32956	
2256	0	32820	32896	
2257	0	32744	32791	
2258	0	32809	32585	
2259	0	32784	32488	
2260	0	32808	32316	
2261	0	32748	32460	
2262	0	32805	32674	
2263	0	32876	32797	
2264	0	32806	32726	
2265	0	32864	32903	
2266	0	32816	32894	
2267	0	32824	32827	
2268	0	32826	32889	
2269	0	32763	32896	
2270	0	32826	32824	
2271	0	32808	32665	
2272	0	32812	32745	
2273	0	32796	32804	
2274	0	32820	32707	
2275	0	32836	32882	
2276	0	32792	32878	
2277	0	32845	32788	
2278	0	32808	32748	
2279	0	32828	32999	
2280	0	32775	32992	
2281	0	32792	32900	
2282	0	32832	32901	
2283	0	32840	32768	
2284	0	32746	32654	
2285	0	32828	32592	
2286	0	32812	32659	
2287	0	32881	32869	
2288	0	32758	32877	
2289	0	32816	32817	
2290	0	32836	32703	
2291	0	32790	32676	
2292	0	32834	32745	
2293	0	32854	32681	
2294	0	32813	32716	
2295	0	32764	32869	
2296	0	32788	32852	
2297	0	32832	32800	
2298	0	32816	32880	
2299	0	32850	32841	
2300	0	32754	32631	
2301	0	32852	32710	
2302	0	32752	32836	
2303	0	32748	32934	
2304	0	32840	33273	
2305	0	32794	33346	
2306	0	32796	33138	
2307	0	32808	32930	
2308	0	32744	32733	
2309	0	32800	32528	
2310	0	32820	32452	
2311	0	32809	32496	
2312	0	32868	32677	
2313	0	32882	32947	
2314	0	32812	32900	
2315	0	32828	32734	
2316	0	32834	32701	
2317	0	32837	32612	
2318	0	32816	32581	
2319	0	32816	32569	
2320	0	32816	32519	
2321	0	32822	32630	
2322	0	32773	33040	
2323	0	32808	33260	
2324	0	32804	33093	
2325	0	32820	33018	
2326	0	32893	32775	
2327	0	32790	32711	
2328	0	32873	32876	
2329	0	32788	32637	
2330	0	32760	32636	
2331	0	32802	32688	
2332	0	32760	32769	
2333	0	32748	32757	
2334	0	32800	32898	
2335	0	32764	32903	
2336	0	32864	33163	
2337	0	32826	32990	
2338	0	32784	32623	
2339	0	32754	32656	
2340	0	32829	32584	
2341	0	32780	32493	
2342	0	32824	32256	
2343	0	32744	32334	
2344	0	32872	32656	
2345	0	32780	32833	
2346	0	32813	33116	
2347	0	32805	33268	
2348	0	32817	33202	
2349	0	32838	32851	
2350	0	32816	32615	
2351	0	32864	32391	
2352	0	32805	32344	
2353	0	32788	32707	
2354	0	32795	33061	
2355	0	32852	33087	
2356	0	32824	32886	
2357	0	32820	33030	
2358	0	32809	32936	
2359	0	32802	32811	
2360	0	32796	33008	
2361	0	32786	32971	
2362	0	32839	32894	
2363	0	32872	32797	
2364	0	32804	33022	
2365	0	32754	32958	
2366	0	32770	32641	
2367	0	32829	32408	
2368	0	32737	32402	
2369	0	32838	32495	
2370	0	32760	32637	
2371	0	32832	32940	
2372	0	32801	32857	
2373	0	32812	32833	
2374	0	32850	32740	
2375	0	32805	32755	
2376	0	32768	32670	
2377	0	32758	32828	
2378	0	32842	32868	
2379	0	32816	33046	
2380	0	32812	33078	
2381	0	32744	32962	
2382	0	32765	32784	
2383	0	32818	32745	
2384	0	32809	32730	
2385	0	32785	32669	
2386	0	32805	32632	
2387	0	32788	32837	
2388	0	32828	32706	
2389	0	32824	32664	
2390	0	32768	32868	
2391	0	32804	32956	
2392	0	32760	33053	
2393	0	32759	33064	
2394	0	32824	33300	
2395	0	32865	33170	
2396	0	32808	32952	
2397	0	32840	32738	
2398	0	32836	32662	
2399	0	32781	32518	
2400	0	32748	32334	
2401	0	32764	32183	
2402	0	32792	32178	
2403	0	32836	32196	
2404	0	32797	32390	
2405	0	32764	32784	
2406	0	32724	33110	
2407	0	32769	33511	
2408	0	32809	33573	
2409	0	32868	33390	
2410	0	32880	33068	
2411	0	32884	32654	
2412	0	32864	32274	
2413	0	32824	32242	
2414	0	32850	32485	
2415	0	32789	32617	
2416	0	32760	32571	
2417	0	32893	32811	
2418	0	32837	32982	
2419	0	32873	33029	
2420	0	32738	33103	
2421	0	32741	32921	
2422	0	32775	32860	
2423	0	32840	32687	
2424	0	32744	32933	
2425	0	32756	33074	
2426	0	32868	33012	
2427	0	32808	33092	
2428	0	32738	32956	
2429	0	32788	32860	
2430	0	32804	32652	
2431	0	32770	32434	
2432	0	32812	32461	
2433	0	32810	32589	
2434	0	32848	32630	
2435	0	32853	32549	
2436	0	32796	32682	
2437	0	32780	32716	
2438	0	32764	32910	
2439	0	32794	33078	
2440	0	32864	33231	
2441	0	32808	33405	
2442	0	32826	33244	
2443	0	32770	33035	
2444	0	32862	32828	
2445	0	32800	32442	
2446	0	32792	32199	
2447	0	32782	32122	
2448	0	32840	32327	
2449	0	32807	32612	
2450	0	32822	32840	
2451	0	32804	33056	
2452	0	32786	33329	
2453	0	32740	33488	
2454	0	32816	33216	
2455	0	32801	32903	
2456	0	32808	32604	
2457	0	32805	32586	
2458	0	32680	32613	
2459	0	32712	32696	
2460	0	32760	32862	
2461	0	32758	32919	
2462	0	32808	33047	
2463	0	32805	33102	
2464	0	32778	33087	
2465	0	32756	32805	
2466	0	32796	32358	
2467	0	32786	32238	
2468	0	32781	32263	
2469	0	32923	32377	
2470	0	32807	32505	
2471	0	32878	32641	
2472	0	32876	32801	
2473	0	32896	32920	
2474	0	32804	32888	
2475	0	32790	32970	
2476	0	32805	32875	
2477	0	32812	32811	
2478	0	32784	32714	
2479	0	32786	32490	
2480	0	32802	32609	
2481	0	32818	32784	
2482	0	32796	32991	
2483	0	32824	32994	
2484	0	32816	33069	
2485	0	32804	33049	
2486	0	32824	32970	
2487	0	32769	32811	
2488	0	32846	32622	
2489	0	32788	32783	
2490	0	32774	32699	
2491	0	32864	32384	
2492	0	32845	32474	
2493	0	32762	32769	
2494	0	32744	32756	
2495	0	32844	32783	
2496	0	32772	33014	
2497	0	32936	32968	
2498	0	32766	33127	
2499	0	32768	33228	
2500	0	32800	33336	
2501	0	32730	33200	
2502	0	32794	32648	
2503	0	32860	32537	
2504	0	32833	32637	
2505	0	32807	32714	
2506	0	32812	32605	
2507	0	32892	32470	
2508	0	32756	32512	
2509	0	32764	32595	
2510	0	32890	32832	
2511	0	32823	32914	
2512	0	32846	32996	
2513	0	32768	33072	
2514	0	32756	33156	
2515	0	32741	32861	
2516	0	32802	32971	
2517	0	32740	32784	
2518	0	32730	32408	
2519	0	32828	32327	
2520	0	32764	32347	
2521	0	32850	32348	
2522	0	32818	32498	
2523	0	32856	32650	
2524	0	32866	32925	
2525	0	32828	33201	
2526	0	32836	33238	
2527	0	32861	33396	
2528	0	32876	33264	
2529	0	32816	33062	
2530	0	32826	32861	
2531	0	32790	33001	
2532	0	32834	32839	
2533	0	32768	32739	
2534	0	32878	32534	
2535	0	32810	32420	
2536	0	32809	32605	
2537	0	32760	32838	
2538	0	32744	33081	
2539	0	32732	32807	
2540	0	32765	32707	
2541	0	32693	32650	
2542	0	32688	32409	
2543	0	32788	32327	
2544	0	32792	32618	
2545	0	32946	33052	
2546	0	32926	33264	
2547	0	32925	33415	
2548	0	32928	33366	
2549	0	32906	33136	
2550	0	32848	32627	
2551	0	32824	32452	
2552	0	32755	32505	
2553	0	32766	32838	
2554	0	32840	32888	
2555	0	32740	32847	
2556	0	32756	32786	
2557	0	32772	32688	
2558	0	32746	32528	
2559	0	32793	32482	
2560	0	32763	32622	
2561	0	32740	32773	
2562	0	32783	32965	
2563	0	32816	33106	
2564	0	32772	33099	
2565	0	32786	32926	
2566	0	32756	32485	
2567	0	32867	32418	
2568	0	32842	32442	
2569	0	32880	32816	
2570	0	32988	33227	
2571	0	32987	33250	
2572	0	32936	33192	
2573	0	32972	32887	
2574	0	32844	32869	
2575	0	32793	32583	
2576	0	32699	32618	
2577	0	32650	32559	
2578	0	32644	32607	
2579	0	32622	32568	
2580	0	32610	32422	
2581	0	32670	32306	
2582	0	32736	32636	
2583	0	32856	33001	
2584	0	32816	33104	
2585	0	32802	33058	
2586	0	32896	32864	
2587	0	32856	32633	
2588	0	32893	32616	
2589	0	32816	32857	
2590	0	32839	32736	
2591	0	32790	33010	
2592	0	32824	33013	
2593	0	32768	33095	
2594	0	32794	33116	
2595	0	32793	33034	
2596	0	32900	33146	
2597	0	32857	32913	
2598	0	32900	32443	
2599	0	32824	32283	
2600	0	32824	32352	
2601	0	32712	32331	
2602	0	32741	32533	
2603	0	32816	32544	
2604	0	32708	32814	
2605	0	32794	32957	
2606	0	32816	33177	
2607	0	32770	33159	
2608	0	32852	33121	
2609	0	32793	33004	
2610	0	32834	33002	
2611	0	32750	32946	
2612	0	32716	32742	
2613	0	32772	32562	
2614	0	32748	32637	
2615	0	32766	32694	
2616	0	32814	32818	
2617	0	32804	32715	
2618	0	32736	32845	
2619	0	32752	32407	
2620	0	32896	32886	
2621	0	32830	33238	
2622	0	32940	33362	
2623	0	32928	33275	
2624	0	32893	32888	
2625	0	32813	32295	
2626	0	32738	32226	
2627	0	32684	32010	
2628	0	32708	32412	
2629	0	32812	33184	
2630	0	32748	33255	
2631	0	32757	32975	
2632	0	32797	32958	
2633	0	32744	32864	
2634	0	32767	32743	
2635	0	32858	32445	
2636	0	32864	32340	
2637	0	32910	32657	
2638	0	32861	32832	
2639	0	32836	32880	
2640	0	32848	32939	
2641	0	32828	33023	
2642	0	32837	33071	
2643	0	32784	33072	
2644	0	32804	33078	
2645	0	32756	32738	
2646	0	32580	32775	
2647	0	32648	32850	
2648	0	32730	32794	
2649	0	32836	32704	
2650	0	32761	32660	
2651	0	32900	32715	
2652	0	32892	33033	
2653	0	32864	33074	
2654	0	32884	32903	
2655	0	32884	33078	
2656	0	32840	32729	
2657	0	32856	32891	
2658	0	32884	33152	
2659	0	32842	33100	
2660	0	32880	32886	
2661	0	32877	32553	
2662	0	32852	32322	
2663	0	32778	32402	
2664	0	32696	32416	
2665	0	32662	32530	
2666	0	32720	32743	
2667	0	32780	32875	
2668	0	32764	32996	
2669	0	32752	32960	
2670	0	32775	32925	
2671	0	32722	32786	
2672	0	32840	32771	
2673	0	32720	32873	
2674	0	32914	33095	
2675	0	32893	32982	
2676	0	32948	32803	
2677	0	32874	32549	
2678	0	32848	32484	
2679	0	32890	32473	
2680	0	32766	32646	
2681	0	32707	32838	
2682	0	32780	32909	
2683	0	32812	33030	
2684	0	32768	32821	
2685	0	32810	32749	
2686	0	32722	33183	
2687	0	32808	33089	
2688	0	32816	33036	
2689	0	32764	32940	
2690	0	32800	33033	
2691	0	32824	33145	
2692	0	32844	32886	
2693	0	32818	32571	
2694	0	32836	32725	
2695	0	32760	32883	
2696	0	32872	32668	
2697	0	32808	32424	
2698	0	32808	32237	
2699	0	32752	32579	
2700	0	32724	32573	
2701	0	32733	32542	
2702	0	32749	32856	
2703	0	32756	32864	
2704	0	32800	32850	
2705	0	32752	32903	
2706	0	32852	32886	
2707	0	32840	33018	
2708	0	32808	32933	
2709	0	32824	33183	
2710	0	32826	33206	
2711	0	32793	33223	
2712	0	32828	33137	
2713	0	32789	33008	
2714	0	32809	32617	
2715	0	32828	32637	
2716	0	32921	32338	
2717	0	32836	32444	
2718	0	32804	32706	
2719	0	32876	32655	
2720	0	32828	32775	
2721	0	32852	32718	
2722	0	32816	32454	
2723	0	32894	32466	
2724	0	32834	32817	
2725	0	32782	32916	
2726	0	32772	33185	
2727	0	32757	33031	
2728	0	32795	32946	
2729	0	32760	32830	
2730	0	32764	32682	
2731	0	32740	32717	
2732	0	32706	32826	
2733	0	32736	32918	
2734	0	32672	32934	
2735	0	32760	32879	
2736	0	32880	32775	
2737	0	32892	32857	
2738	0	32850	33286	
2739	0	32902	33168	
2740	0	32894	32712	
2741	0	32801	32672	
2742	0	32802	32487	
2743	0	32816	32733	
2744	0	32640	32579	
2745	0	32752	32563	
2746	0	32840	32252	
2747	0	32977	32271	
2748	0	32862	32523	
2749	0	32680	32930	
2750	0	32800	33083	
2751	0	32736	33200	
2752	0	32840	33313	
2753	0	32846	33074	
2754	0	32752	32827	
2755	0	32722	32636	
2756	0	32712	32639	
2757	0	32877	32669	
2758	0	32838	32710	
2759	0	32896	32808	
2760	0	32918	32733	
2761	0	32808	32586	
2762	0	32676	32676	
2763	0	32714	32709	
2764	0	32640	32761	
2765	0	32712	33095	
2766	0	32760	33483	
2767	0	32886	33460	
2768	0	32924	33272	
2769	0	32812	33052	
2770	0	32800	32484	
2771	0	32850	32226	
2772	0	32836	32662	
2773	0	32804	32873	
2774	0	32808	32796	
2775	0	32916	32887	
2776	0	32860	32888	
2777	0	32986	32578	
2778	0	32978	32559	
2779	0	32892	32825	
2780	0	32884	32710	
2781	0	32868	32838	
2782	0	32804	32784	
2783	0	32738	32666	
2784	0	32586	32585	
2785	0	32636	32328	
2786	0	32640	32765	
2787	0	32782	32868	
2788	0	32704	32918	
2789	0	32675	33233	
2790	0	32780	33284	
2791	0	32876	32813	
2792	0	32874	32493	
2793	0	32744	32310	
2794	0	32768	32553	
2795	0	32842	32681	
2796	0	33052	33096	
2797	0	33026	33170	
2798	0	32996	33056	
2799	0	32716	32926	
2800	0	32420	32837	
2801	0	32374	32644	
2802	0	32569	32464	
2803	0	32866	32994	
2804	0	32980	32684	
2805	0	33052	32960	
2806	0	32976	33109	
2807	0	33056	32899	
2808	0	32984	32299	
2809	0	32879	32338	
2810	0	32809	32588	
2811	0	32724	32727	
2812	0	32616	32983	
2813	0	32512	33001	
2814	0	32576	33012	
2815	0	32706	33132	
2816	0	32732	32949	
2817	0	32825	32552	
2818	0	32945	32375	
2819	0	33162	32694	
2820	0	33100	33176	
2821	0	32763	33322	
2822	0	32586	33214	
2823	0	32466	33332	
2824	0	32464	32824	
2825	0	32548	31924	
2826	0	32704	32045	
2827	0	32864	32344	
2828	0	32898	32403	
2829	0	32992	32853	
2830	0	33020	33089	
2831	0	33040	33082	
2832	0	32888	32869	
2833	0	32801	32784	
2834	0	32716	32868	
2835	0	32612	32834	
2836	0	32676	32859	
2837	0	32771	32647	
2838	0	32830	32620	
2839	0	32916	32815	
2840	0	33018	32920	
2841	0	32988	33207	
2842	0	32946	32836	
2843	0	32896	32659	
2844	0	33016	32774	
2845	0	32980	32815	
2846	0	32971	32983	
2847	0	32760	33042	
2848	0	32713	32898	
2849	0	32572	32662	
2850	0	32622	32418	
2851	0	32824	32051	
2852	0	32952	32465	
2853	0	32772	32870	
2854	0	32734	33102	
2855	0	32752	33282	
2856	0	32832	33412	
2857	0	32754	33133	
2858	0	32780	32612	
2859	0	32730	32432	
2860	0	32771	32284	
2861	0	32744	32410	
2862	0	32700	32678	
2863	0	32680	33012	
2864	0	32696	32766	
2865	0	32704	32914	
2866	0	32840	32899	
2867	0	32772	32920	
2868	0	32820	32911	
2869	0	32708	32902	
2870	0	32756	32700	
2871	0	32869	33278	
2872	0	32922	33648	
2873	0	32880	33777	
2874	0	32952	33415	
2875	0	32852	32799	
2876	0	32950	32705	
2877	0	32850	32191	
2878	0	33028	31672	
2879	0	33077	31925	
2880	0	32866	32016	
2881	0	32724	32450	
2882	0	32835	32946	
2883	0	32715	33326	
2884	0	32690	33218	
2885	0	33037	33127	
2886	0	33140	32900	
2887	0	32968	32616	
2888	0	32728	32771	
2889	0	32558	33039	
2890	0	32466	32763	
2891	0	32686	32562	
2892	0	32648	32311	
2893	0	32515	32705	
2894	0	32236	32978	
2895	0	32276	33349	
2896	0	32416	33825	
2897	0	32508	33788	
2898	0	32654	33133	
2899	0	32713	32098	
2900	0	32633	31952	
2901	0	32813	32046	
2902	0	32916	32750	
2903	0	33081	33242	
2904	0	33181	33357	
2905	0	33296	32986	
2906	0	33302	32402	
2907	0	33242	32230	
2908	0	33286	32344	
2909	0	33150	32614	
2910	0	33052	32937	
2911	0	32850	33030	
2912	0	32594	33184	
2913	0	32454	33064	
2914	0	32395	32896	
2915	0	32416	32324	
2916	0	32602	31915	
2917	0	32676	32521	
2918	0	32816	33232	
2919	0	33001	33483	
2920	0	33090	33414	
2921	0	33024	33023	
2922	0	32902	32676	
2923	0	32982	32498	
2924	0	32900	32487	
2925	0	33127	32640	
2926	0	32976	33076	
2927	0	32526	33211	
2928	0	32258	33103	
2929	0	32208	32736	
2930	0	32377	32609	
2931	0	32562	32729	
2932	0	32592	32809	
2933	0	32752	32807	
2934	0	33205	32704	
2935	0	33712	32668	
2936	0	33432	33069	
2937	0	33242	33267	
2938	0	32790	32992	
2939	0	32446	33000	
2940	0	32221	32654	
2941	0	32148	32485	
2942	0	32228	32835	
2943	0	32488	32715	
2944	0	32758	32386	
2945	0	32794	32232	
2946	0	33010	32129	
2947	0	33062	32355	
2948	0	33040	32725	
2949	0	33020	33031	
2950	0	32652	33340	
2951	0	32722	32984	
2952	0	33004	33164	
2953	0	33160	33408	
2954	0	33280	33055	
2955	0	33360	33343	
2956	0	33060	33247	
2957	0	32772	33224	
2958	0	32416	32857	
2959	0	32341	32618	
2960	0	32290	32006	
2961	0	32120	31863	
2962	0	32432	31872	
2963	0	32874	32455	
2964	0	33160	33000	
2965	0	33154	33368	
2966	0	33126	33452	
2967	0	32960	33230	
2968	0	32704	32901	
2969	0	32802	32805	
2970	0	33134	32870	
2971	0	33434	33033	
2972	0	33164	33151	
2973	0	32432	32775	
2974	0	32500	32641	
2975	0	32644	32688	
2976	0	32539	32736	
2977	0	32378	32574	
2978	0	31956	32695	
2979	0	31540	33218	
2980	0	31716	33468	
2981	0	32240	33012	
2982	0	33261	32706	
2983	0	33814	32592	
2984	0	33939	32592	
2985	0	33802	32158	
2986	0	33720	31728	
2987	0	33704	32489	
2988	0	33440	33113	
2989	0	33324	32488	
2990	0	33212	32676	
2991	0	32940	33069	
2992	0	32683	33052	
2993	0	32286	33073	
2994	0	32186	32944	
2995	0	32353	32957	
2996	0	32358	32856	
2997	0	32324	33102	
2998	0	32537	33037	
2999	0	32500	33069	
3000	0	32698	33148	
3001	0	32838	32508	
3002	0	32957	32376	
3003	0	33218	32084	
3004	0	33136	32030	
3005	0	32964	32406	
3006	0	32800	32702	
3007	0	32656	32838	
3008	0	32504	32858	
3009	0	32574	33127	
3010	0	32724	33064	
3011	0	32828	32617	
3012	0	33172	33060	
3013	0	33488	33225	
3014	0	33666	33100	
3015	0	33372	32868	
3016	0	33006	32617	
3017	0	32592	32538	
3018	0	32297	32310	
3019	0	32308	32575	
3020	0	32281	33074	
3021	0	32164	32800	
3022	0	32321	33201	
3023	0	32369	33415	
3024	0	32440	33448	
3025	0	32450	33380	
3026	0	32568	32925	
3027	0	32920	32486	
3028	0	33108	31947	
3029	0	33218	32074	
3030	0	33576	32756	
3031	0	33761	33542	
3032	0	32997	33839	
3033	0	32376	33531	
3034	0	32300	33028	
3035	0	32180	32866	
3036	0	32240	32411	
3037	0	32424	32562	
3038	0	32696	32932	
3039	0	32992	33085	
3040	0	33025	32818	
3041	0	33020	32654	
3042	0	32976	32743	
3043	0	32952	32740	
3044	0	32928	32774	
3045	0	32947	32361	
3046	0	33116	32514	
3047	0	33075	32663	
3048	0	33042	32487	
3049	0	33216	32415	
3050	0	32936	32676	
3051	0	32784	32543	
3052	0	32068	33030	
3053	0	32100	33125	
3054	0	32074	32783	
3055	0	32213	32965	
3056	0	32752	32994	
3057	0	33132	32775	
3058	0	33330	32622	
3059	0	33380	32431	
3060	0	32969	32601	
3061	0	32892	32647	
3062	0	32665	32918	
3063	0	32644	33147	
3064	0	32800	33007	
3065	0	33030	32916	
3066	0	33097	32775	
3067	0	32986	32791	
3068	0	32992	32732	
3069	0	32925	32882	
3070	0	32976	33248	
3071	0	33345	33095	
3072	0	33336	33581	
3073	0	32984	33138	
3074	0	32408	32729	
3075	0	32168	31588	
3076	0	32040	31430	
3077	0	32138	32187	
3078	0	32169	32756	
3079	0	32548	32948	
3080	0	32620	33093	
3081	0	32680	33226	
3082	0	32964	33147	
3083	0	33161	33062	
3084	0	33226	32903	
3085	0	33170	32719	
3086	0	33112	32580	
3087	0	33110	32790	
3088	0	32924	32761	
3089	0	32958	32877	
3090	0	32932	32786	
3091	0	32910	32539	
3092	0	32748	32941	
3093	0	32836	32970	
3094	0	32992	33241	
3095	0	32890	32560	
3096	0	32571	32591	
3097	0	32504	33368	
3098	0	32452	33506	
3099	0	32576	32924	
3100	0	32532	32996	
3101	0	32640	32559	
3102	0	32741	32263	
3103	0	32952	32292	
3104	0	33238	32596	
3105	0	33522	32706	
3106	0	33528	32840	
3107	0	33248	33303	
3108	0	32818	33168	
3109	0	32421	32887	
3110	0	31940	32342	
3111	0	31838	32558	
3112	0	32032	33158	
3113	0	32546	32915	
3114	0	32636	32392	
3115	0	32760	32254	
3116	0	33024	32613	
3117	0	33169	32811	
3118	0	33152	32754	
3119	0	33088	32655	
3120	0	33138	33083	
3121	0	33228	33465	
3122	0	33176	33258	
3123	0	33092	32957	
3124	0	33432	33006	
3125	0	33538	32871	
3126	0	33225	32817	
3127	0	32588	32279	
3128	0	32016	32774	
3129	0	31668	32860	
3130	0	31584	32080	
3131	0	31830	32502	
3132	0	32238	32724	
3133	0	32744	32464	
3134	0	33172	32967	
3135	0	33548	33075	
3136	0	33956	33238	
3137	0	33610	32750	
3138	0	33142	33063	
3139	0	32752	32926	
3140	0	32481	33275	
3141	0	32640	33024	
3142	0	32324	32210	
3143	0	32060	32226	
3144	0	32427	31805	
3145	0	32552	31764	
3146	0	32837	32903	
3147	0	32964	33606	
3148	0	32932	33363	
3149	0	32740	33431	
3150	0	32856	34000	
3151	0	33158	33320	
3152	0	32696	32940	
3153	0	32320	32212	
3154	0	32072	32548	
3155	0	32476	33215	
3156	0	33000	32747	
3157	0	33346	32221	
3158	0	33360	32646	
3159	0	33677	32461	
3160	0	33673	32651	
3161	0	33565	33242	
3162	0	33192	32985	
3163	0	33104	32805	
3164	0	32723	32571	
3165	0	32728	32542	
3166	0	32617	32640	
3167	0	32016	32780	
3168	0	31840	32784	
3169	0	32076	32825	
3170	0	32456	33192	
3171	0	32828	33013	
3172	0	33352	32475	
3173	0	34018	32304	
3174	0	33906	32850	
3175	0	33252	33638	
3176	0	32741	33312	
3177	0	32003	32821	
3178	0	31788	32093	
3179	0	31852	31853	
3180	0	32160	31623	
3181	0	32452	32254	
3182	0	32770	33248	
3183	0	32908	33537	
3184	0	33074	33654	
3185	0	33124	33332	
3186	0	33074	32997	
3187	0	32868	32870	
3188	0	32758	32757	
3189	0	32704	32730	
3190	0	32941	32824	
3191	0	33048	32922	
3192	0	32916	32791	
3193	0	32872	32812	
3194	0	33068	32843	
3195	0	33008	32748	
3196	0	32765	32742	
3197	0	32514	32775	
3198	0	32384	33038	
3199	0	32021	33090	
3200	0	32028	33103	
3201	0	32304	32690	
3202	0	32728	32598	
3203	0	33057	32654	
3204	0	32968	32691	
3205	0	33018	32263	
3206	0	33212	32258	
3207	0	33384	33012	
3208	0	33976	32933	
3209	0	33650	33140	
3210	0	33410	33273	
3211	0	33194	33440	
3212	0	32920	33286	
3213	0	32632	33051	
3214	0	32194	32596	
3215	0	31936	32228	
3216	0	32138	32144	
3217	0	32332	32427	
3218	0	32796	33146	
3219	0	32976	33303	
3220	0	32922	32788	
3221	0	33082	32244	
3222	0	33108	32872	
3223	0	32926	33358	
3224	0	32616	32421	
3225	0	32472	32583	
3226	0	32262	32349	
3227	0	32217	32763	
3228	0	31828	32831	
3229	0	32514	32898	
3230	0	32180	32921	
3231	0	32668	33316	
3232	0	33328	32907	
3233	0	33134	32490	
3234	0	33524	32424	
3235	0	34046	33101	
3236	0	34752	33395	
3237	0	34464	33328	
3238	0	34091	32983	
3239	0	33548	32477	
3240	0	32556	32144	
3241	0	31441	32344	
3242	0	30941	33106	
3243	0	31165	32699	
3244	0	31744	33175	
3245	0	32200	32585	
3246	0	32850	32614	
3247	0	33133	32852	
3248	0	33148	32598	
3249	0	32806	32879	
3250	0	32860	32999	
3251	0	32952	32994	
3252	0	32830	32766	
3253	0	32776	33207	
3254	0	32950	32698	
3255	0	32882	32324	
3256	0	32886	32752	
3257	0	32784	33584	
3258	0	33016	33350	
3259	0	32821	33131	
3260	0	33099	32300	
3261	0	33024	32164	
3262	0	33482	32306	
3263	0	33220	32085	
3264	0	33131	32158	
3265	0	32708	32626	
3266	0	32464	33338	
3267	0	32290	33402	
3268	0	32294	33544	
3269	0	32456	33660	
3270	0	32661	33396	
3271	0	32720	33215	
3272	0	32723	32743	
3273	0	32564	31976	
3274	0	32568	31750	
3275	0	32698	31972	
3276	0	32880	32574	
3277	0	32852	32676	
3278	0	32914	32909	
3279	0	32980	33052	
3280	0	32932	32824	
3281	0	32888	33032	
3282	0	32124	32960	
3283	0	32340	32563	
3284	0	33408	32790	
3285	0	33766	32691	
3286	0	33776	32584	
3287	0	33497	32626	
3288	0	32756	32556	
3289	0	32160	32512	
3290	0	31797	32710	
3291	0	32197	33209	
3292	0	32532	33364	
3293	0	32936	33671	
3294	0	33061	32665	
3295	0	33064	33135	
3296	0	32828	32828	
3297	0	32708	32580	
3298	0	32748	32636	
3299	0	32603	32674	
3300	0	32580	33010	
3301	0	32699	33060	
3302	0	32728	32445	
3303	0	32562	32535	
3304	0	32778	32414	
3305	0	33016	33053	
3306	0	33266	32946	
3307	0	33344	32613	
3308	0	33287	32350	
3309	0	33248	32669	
3310	0	32972	32839	
3311	0	32876	32871	
3312	0	32918	32992	
3313	0	32698	33268	
3314	0	32718	32926	
3315	0	32526	32793	
3316	0	32532	32750	
3317	0	32232	33103	
3318	0	32702	32844	
3319	0	33206	33069	
3320	0	33295	33199	
3321	0	33224	32805	
3322	0	32965	32918	
3323	0	32400	33250	
3324	0	32228	32962	
3325	0	32226	32314	
3326	0	32517	31775	
3327	0	32573	32320	
3328	0	32274	32811	
3329	0	32456	32410	
3330	0	33053	32172	
3331	0	33238	32941	
3332	0	33409	33649	
3333	0	33860	34176	
3334	0	33680	33714	
3335	0	33401	32919	
3336	0	33109	32370	
3337	0	32498	32530	
3338	0	31835	32503	
3339	0	31296	32556	
3340	0	31305	33055	
3341	0	31625	33132	
3342	0	31908	33191	
3343	0	33229	32976	
3344	0	33536	32815	
3345	0	33328	32775	
3346	0	33352	32385	
3347	0	33382	32128	
3348	0	33572	32376	
3349	0	33424	32903	
3350	0	33249	32940	
3351	0	32856	33454	
3352	0	32792	33192	
3353	0	32532	32592	
3354	0	32542	32339	
3355	0	32692	32412	
3356	0	32936	32589	
3357	0	32472	32728	
3358	0	32688	32683	
3359	0	33176	32734	
3360	0	33340	33349	
3361	0	33157	32967	
3362	0	32846	32594	
3363	0	32634	32947	
3364	0	32916	31800	
3365	0	32777	32149	
3366	0	32619	32724	
3367	0	32329	32068	
3368	0	31986	32578	
3369	0	31904	33287	
3370	0	32458	33764	
3371	0	32903	33284	
3372	0	32861	33088	
3373	0	33048	32979	
3374	0	33064	32746	
3375	0	32824	32946	
3376	0	32968	32976	
3377	0	33002	32877	
3378	0	33010	33098	
3379	0	33150	32864	
3380	0	33000	32420	
3381	0	32352	32681	
3382	0	32624	33036	
3383	0	32740	32838	
3384	0	32805	32747	
3385	0	32996	32855	
3386	0	32968	32630	
3387	0	32619	32418	
3388	0	32562	32391	
3389	0	32388	32819	
3390	0	32330	32764	
3391	0	32568	33079	
3392	0	33094	33148	
3393	0	33420	33077	
3394	0	33784	32742	
3395	0	33696	32642	
3396	0	33594	32742	
3397	0	33124	32808	
3398	0	32840	32694	
3399	0	32620	32618	
3400	0	32344	32603	
3401	0	32248	33057	
3402	0	32268	32663	
3403	0	32464	32549	
3404	0	32786	32319	
3405	0	33016	32175	
3406	0	32758	32443	
3407	0	32565	33708	
3408	0	32646	33927	
3409	0	32756	33459	
3410	0	33256	32734	
3411	0	32952	32310	
3412	0	32952	32711	
3413	0	33514	32704	
3414	0	33850	33008	
3415	0	33332	32578	
3416	0	32828	32731	
3417	0	31840	32758	
3418	0	30917	32387	
3419	0	31192	32314	
3420	0	31100	32793	
3421	0	32084	33053	
3422	0	33080	32941	
3423	0	33572	32751	
3424	0	33610	33060	
3425	0	33472	32639	
3426	0	33272	32745	
3427	0	33142	33164	
3428	0	33444	33510	
3429	0	33488	32766	
3430	0	33248	32568	
3431	0	33436	32406	
3432	0	32748	32768	
3433	0	32487	32556	
3434	0	32240	32278	
3435	0	32265	32826	
3436	0	32134	32878	
3437	0	32102	32816	
3438	0	32142	32613	
3439	0	32544	32738	
3440	0	32745	32754	
3441	0	33184	33062	
3442	0	33212	33346	
3443	0	33284	33556	
3444	0	33090	33344	
3445	0	33040	32736	
3446	0	32958	32731	
3447	0	32785	31921	
3448	0	32798	32178	
3449	0	33072	32666	
3450	0	33094	33218	
3451	0	33144	33225	
3452	0	33259	33377	
3453	0	32882	32939	
3454	0	32560	33049	
3455	0	32521	33008	
3456	0	32692	32540	
3457	0	32658	32587	
3458	0	32600	32447	
3459	0	32632	32398	
3460	0	32514	32488	
3461	0	32400	32539	
3462	0	32632	32620	
3463	0	32748	33270	
3464	0	32772	33126	
3465	0	32968	32774	
3466	0	32928	32311	
3467	0	33088	32522	
3468	0	33148	33018	
3469	0	33080	33119	
3470	0	32820	33071	
3471	0	32585	32884	
3472	0	32282	32763	
3473	0	32344	32843	
3474	0	32518	32818	
3475	0	33004	32729	
3476	0	33252	32663	
3477	0	33316	32495	
3478	0	33282	33345	
3479	0	33018	32879	
3480	0	32393	32631	
3481	0	31824	32811	
3482	0	31896	32925	
3483	0	32172	32652	
3484	0	33528	31959	
3485	0	33956	32056	
3486	0	33786	32822	
3487	0	33412	33113	
3488	0	32985	34046	
3489	0	32544	33361	
3490	0	32505	32082	
3491	0	32365	31961	
3492	0	32236	32469	
3493	0	32000	32894	
3494	0	32050	33191	
3495	0	32662	33508	
3496	0	32992	33228	
3497	0	33412	33192	
3498	0	33482	33068	
3499	0	33021	33061	
3500	0	32864	32813	
3501	0	32380	32806	
3502	0	31974	32775	
3503	0	32263	32818	
3504	0	32808	32724	
3505	0	33261	32526	
3506	0	33610	32491	
3507	0	33580	32706	
3508	0	33496	32487	
3509	0	33248	32679	
3510	0	32824	32792	
3511	0	32402	32840	
3512	0	32288	32892	
3513	0	32112	33090	
3514	0	32336	32872	
3515	0	32900	32359	
3516	0	32936	32706	
3517	0	33120	32883	
3518	0	32914	32594	
3519	0	32632	32964	
3520	0	32380	32983	
3521	0	32140	33084	
3522	0	32132	33042	
3523	0	32316	32506	
3524	0	32756	32452	
3525	0	32970	32363	
3526	0	33100	33074	
3527	0	33164	32785	
3528	0	33498	32825	
3529	0	33906	33239	
3530	0	33928	32438	
3531	0	33106	32489	
3532	0	32428	32511	
3533	0	32568	33004	
3534	0	32319	32856	
3535	0	32069	33214	
3536	0	32034	33507	
3537	0	31925	33041	
3538	0	32316	32493	
3539	0	32919	32429	
3540	0	33203	32999	
3541	0	33129	32973	
3542	0	32936	32695	
3543	0	33287	32898	
3544	0	33568	32771	
3545	0	33340	32507	
3546	0	32988	32431	
3547	0	32964	32961	
3548	0	32964	33165	
3549	0	32892	33154	
3550	0	32704	32998	
3551	0	32380	32920	
3552	0	32100	32937	
3553	0	32028	32553	
3554	0	32342	32662	
3555	0	32632	32682	
3556	0	32898	32715	
3557	0	33052	32373	
3558	0	33057	32415	
3559	0	32896	32860	
3560	0	32858	33093	
3561	0	32597	32889	
3562	0	32696	32908	
3563	0	32810	32834	
3564	0	32888	33129	
3565	0	33088	32991	
3566	0	33288	32866	
3567	0	33240	32135	
3568	0	33470	31824	
3569	0	34081	32436	
3570	0	33302	32700	
3571	0	32564	32622	
3572	0	31876	33252	
3573	0	31392	33682	
3574	0	31300	33396	
3575	0	31576	33060	
3576	0	32184	32812	
3577	0	32896	32720	
3578	0	32840	32816	
3579	0	33051	32359	
3580	0	33522	32397	
3581	0	33608	32937	
3582	0	33762	33050	
3583	0	33626	32960	
3584	0	33390	32833	
3585	0	32848	32620	
3586	0	32526	32706	
3587	0	32428	32734	
3588	0	32533	32747	
3589	0	32456	32785	
3590	0	32361	32830	
3591	0	32482	32833	
3592	0	32720	32869	
3593	0	32870	32827	
3594	0	33017	32790	
3595	0	33096	32716	
3596	0	33046	32813	
3597	0	32902	32752	
3598	0	32893	32845	
3599	0	32932	32854	
3600	0	32868	32647	
3601	0	32896	32647	
3602	0	32710	32849	
3603	0	32708	32772	
3604	0	32705	32660	
3605	0	32626	32541	
3606	0	32576	32840	
3607	0	32536	32815	
3608	0	33115	32654	
3609	0	33188	32607	
3610	0	33080	32707	
3611	0	32944	32898	
3612	0	32710	32976	
3613	0	32215	33024	
3614	0	31809	33158	
3615	0	32110	33047	
3616	0	32322	32969	
3617	0	32766	32844	
3618	0	33184	32943	
3619	0	33404	32921	
3620	0	33331	32756	
3621	0	33248	32791	
3622	0	33049	32775	
3623	0	32840	32791	
3624	0	32830	32838	
3625	0	32826	32809	
3626	0	32832	32807	
3627	0	32865	32826	
3628	0	32886	32879	
3629	0	32900	32822	
3630	0	32818	32639	
3631	0	32677	32662	
3632	0	32684	32706	
3633	0	32740	32717	
3634	0	32740	32580	
3635	0	32916	32612	
3636	0	33132	33078	
3637	0	33108	33047	
3638	0	33216	32775	
3639	0	33724	32816	
3640	0	33325	32880	
3641	0	32512	32553	
3642	0	31960	32450	
3643	0	31878	32913	
3644	0	31922	33042	
3645	0	31969	33040	
3646	0	32456	32988	
3647	0	32686	32741	
3648	0	33040	32604	
3649	0	33210	32692	
3650	0	33180	32838	
3651	0	33024	32839	
3652	0	32768	32965	
3653	0	32654	32967	
3654	0	32740	32841	
3655	0	32896	32795	
3656	0	32956	32686	
3657	0	32952	32811	
3658	0	32927	32829	
3659	0	32916	32848	
3660	0	32924	32825	
3661	0	32988	32825	
3662	0	32876	32914	
3663	0	32960	32919	
3664	0	32816	32832	
3665	0	32816	32674	
3666	0	32854	32689	
3667	0	32792	32638	
3668	0	32656	32692	
3669	0	32670	32607	
3670	0	32768	32754	
3671	0	32824	32880	
3672	0	32614	32896	
3673	0	32580	32996	
3674	0	32716	32858	
3675	0	32820	32813	
3676	0	33025	32791	
3677	0	33188	32808	
3678	0	33273	32987	
3679	0	33084	33014	
3680	0	32740	32903	
3681	0	32660	32814	
3682	0	32604	32804	
3683	0	32496	32735	
3684	0	32493	32783	
3685	0	32649	32748	
3686	0	32756	32659	
3687	0	32846	32613	
3688	0	32916	32821	
3689	0	32907	32870	
3690	0	32781	32890	
3691	0	32817	32764	
3692	0	32800	32598	
3693	0	32780	32630	
3694	0	32898	32797	
3695	0	33282	32854	
3696	0	33232	32908	
3697	0	32984	32808	
3698	0	32720	32727	
3699	0	32552	32721	
3700	0	32464	32868	
3701	0	32426	32919	
3702	0	32452	32809	
3703	0	32473	32724	
3704	0	32541	32889	
3705	0	32800	32871	
3706	0	32906	32809	
3707	0	33286	32859	
3708	0	33182	32903	
3709	0	33162	32793	
3710	0	33024	32830	
3711	0	32805	32816	
3712	0	32956	32852	
3713	0	32764	32791	
3714	0	32192	32742	
3715	0	32281	32780	
3716	0	32712	32675	
3717	0	33700	32784	
3718	0	33450	32847	
3719	0	32772	32818	
3720	0	32331	32907	
3721	0	32082	32772	
3722	0	31996	32748	
3723	0	32140	32767	
3724	0	32304	32791	
3725	0	32733	33266	
3726	0	33394	33194	
3727	0	33856	33069	
3728	0	33548	32950	
3729	0	33264	32722	
3730	0	32916	32513	
3731	0	32596	32551	
3732	0	32617	32646	
3733	0	32698	32727	
3734	0	32784	32803	
3735	0	32748	32797	
3736	0	32716	32935	
3737	0	32662	33058	
3738	0	32666	32972	
3739	0	32717	32888	
3740	0	32852	32903	
3741	0	32856	32864	
3742	0	32396	32756	
3743	0	32330	32775	
3744	0	32772	32659	
3745	0	33632	32576	
3746	0	33746	32894	
3747	0	33355	32938	
3748	0	33097	32854	
3749	0	32884	32808	
3750	0	32800	33022	
3751	0	32614	32966	
3752	0	32512	32636	
3753	0	32538	32443	
3754	0	32580	32588	
3755	0	32561	32873	
3756	0	32498	32898	
3757	0	32308	32937	
3758	0	32452	32934	
3759	0	32562	32883	
3760	0	32744	32888	
3761	0	33088	32858	
3762	0	33074	32677	
3763	0	33168	32711	
3764	0	32950	32754	
3765	0	32920	32698	
3766	0	32880	32676	
3767	0	32752	32809	
3768	0	32729	32877	
3769	0	32840	32917	
3770	0	33124	32926	
3771	0	33032	33007	
3772	0	33070	32877	
3773	0	33092	32710	
3774	0	32828	32645	
3775	0	32454	32612	
3776	0	32218	32976	
3777	0	32205	32930	
3778	0	32276	32868	
3779	0	32464	32937	
3780	0	32644	32868	
3781	0	32860	32824	
3782	0	32906	32749	
3783	0	33112	32710	
3784	0	33195	32666	
3785	0	33016	32684	
3786	0	33016	32707	
3787	0	32890	32691	
3788	0	32816	32735	
3789	0	32886	32807	
3790	0	32788	32857	
3791	0	32785	32868	
3792	0	32846	32830	
3793	0	32841	32911	
3794	0	32810	32706	
3795	0	32846	32843	
3796	0	32784	32762	
3797	0	32740	32807	
3798	0	32781	32838	
3799	0	32756	32844	
3800	0	32882	32725	
3801	0	32800	32770	
3802	0	32805	32869	
3803	0	32832	32825	
3804	0	32784	32895	
3805	0	32813	32870	
3806	0	32810	32705	
3807	0	32741	32698	
3808	0	32733	32769	
3809	0	32720	32903	
3810	0	32791	32820	
3811	0	32886	32746	
3812	0	32932	32754	
3813	0	32922	32659	
3814	0	32941	32642	
3815	0	32728	32807	
3816	0	32696	32907	
3817	0	32648	33100	
3818	0	32686	33010	
3819	0	32770	32769	
3820	0	32732	32723	
3821	0	32837	32518	
3822	0	32828	32279	
3823	0	32766	32570	
3824	0	32768	32869	
3825	0	33344	32910	
3826	0	33460	33132	
3827	0	33200	33209	
3828	0	32988	33163	
3829	0	32510	32981	
3830	0	32234	32999	
3831	0	31972	32775	
3832	0	32012	32684	
3833	0	32282	32726	
3834	0	32560	32728	
3835	0	32848	32738	
3836	0	32968	32788	
3837	0	33116	32751	
3838	0	33144	32773	
3839	0	33051	32713	
3840	0	33046	32758	
3841	0	32890	32756	
3842	0	32878	32789	
3843	0	32820	32819	
3844	0	32772	32843	
3845	0	32646	32792	
3846	0	32908	32743	
3847	0	33243	32800	
3848	0	33086	32690	
3849	0	32932	32642	
3850	0	32761	32729	
3851	0	32568	32679	
3852	0	32433	32825	
3853	0	32262	32666	
3854	0	32391	32505	
3855	0	32624	32536	
3856	0	33080	32730	
3857	0	33576	32728	
3858	0	33618	32581	
3859	0	33210	32707	
3860	0	33016	32710	
3861	0	32828	32808	
3862	0	32693	32758	
3863	0	32637	32775	
3864	0	32553	32879	
3865	0	32492	33014	
3866	0	32328	32877	
3867	0	32592	32774	
3868	0	32937	32690	
3869	0	33104	32802	
3870	0	33120	32788	
3871	0	33112	32803	
3872	0	33074	32710	
3873	0	33044	32747	
3874	0	32916	32724	
3875	0	33080	32815	
3876	0	32784	33018	
3877	0	32496	33119	
3878	0	32332	33162	
3879	0	32230	33189	
3880	0	32122	33262	
3881	0	32178	33193	
3882	0	32308	32959	
3883	0	32530	32913	
3884	0	32594	32982	
3885	0	32768	33031	
3886	0	32875	33046	
3887	0	32924	32864	
3888	0	32932	32764	
3889	0	32924	32758	
3890	0	32900	32689	
3891	0	32936	32613	
3892	0	32840	32511	
3893	0	32857	32570	
3894	0	32914	32537	
3895	0	32876	32660	
3896	0	32832	32714	
3897	0	32882	32838	
3898	0	33042	32736	
3899	0	33062	32984	
3900	0	33373	33028	
3901	0	33607	32960	
3902	0	33304	32848	
3903	0	32806	32846	
3904	0	32520	32537	
3905	0	32352	32500	
3906	0	32328	32444	
3907	0	32324	32445	
3908	0	32272	32562	
3909	0	32792	32923	
3910	0	33580	32969	
3911	0	33472	32768	
3912	0	33268	32602	
3913	0	32738	32623	
3914	0	32218	32797	
3915	0	32124	32990	
3916	0	32244	33117	
3917	0	32322	33045	
3918	0	32450	32771	
3919	0	32812	32662	
3920	0	33017	32775	
3921	0	33128	32905	
3922	0	33044	32852	
3923	0	33001	32902	
3924	0	33000	32852	
3925	0	32896	32772	
3926	0	32852	32723	
3927	0	32841	32733	
3928	0	32856	32742	
3929	0	32752	32821	
3930	0	32808	32792	
3931	0	32768	32775	
3932	0	32740	32772	
3933	0	32856	32824	
3934	0	32785	32853	
3935	0	32858	32733	
3936	0	32832	32804	
3937	0	32882	32722	
3938	0	32871	32733	
3939	0	32836	32708	
3940	0	32720	32890	
3941	0	32736	32840	
3942	0	32891	32877	
3943	0	32788	32847	
3944	0	32841	32764	
3945	0	32805	32775	
3946	0	32728	32733	
3947	0	32805	32551	
3948	0	32796	32540	
3949	0	32856	32556	
3950	0	32756	32717	
3951	0	32756	32896	
3952	0	32860	32888	
3953	0	32790	33190	
3954	0	32711	33198	
3955	0	32748	32960	
3956	0	32664	32775	
3957	0	32608	32731	
3958	0	32750	32873	
3959	0	33074	32896	
3960	0	33440	32866	
3961	0	33400	32775	
3962	0	33184	32658	
3963	0	32826	32712	
3964	0	32672	32662	
3965	0	32414	32902	
3966	0	32314	32947	
3967	0	32172	32999	
3968	0	32202	32821	
3969	0	32512	32744	
3970	0	32805	32741	
3971	0	32834	32615	
3972	0	32864	32772	
3973	0	32811	32758	
3974	0	32797	32765	
3975	0	32900	32858	
3976	0	33033	32903	
3977	0	33080	32872	
3978	0	33045	32800	
3979	0	32950	32741	
3980	0	32913	32694	
3981	0	32902	32688	
3982	0	32816	32726	
3983	0	32902	32820	
3984	0	32868	32839	
3985	0	32784	32931	
3986	0	32688	32898	
3987	0	32584	32814	
3988	0	32725	32719	
3989	0	33132	32708	
3990	0	33117	32673	
3991	0	33224	32849	
3992	0	33160	32864	
3993	0	33484	32866	
3994	0	33081	32752	
3995	0	33021	32730	
3996	0	32630	32759	
3997	0	32234	32707	
3998	0	31888	32786	
3999	0	31632	32844	
4000	0	31546	32839	
4001	0	31751	32659	
4002	0	32278	32707	
4003	0	32844	32940	
4004	0	33360	32920	
4005	0	33545	32868	
4006	0	33592	32789	
4007	0	33444	32761	
4008	0	33156	32868	
4009	0	33000	32837	
4010	0	32872	32888	
4011	0	32844	32932	
4012	0	32760	32829	
4013	0	32728	32815	
4014	0	32736	32828	
4015	0	32772	32850	
4016	0	32809	33028	
4017	0	32820	32868	
4018	0	32864	32775	
4019	0	32876	32812	
4020	0	32916	32814	
4021	0	32838	32701	
4022	0	32828	32706	
4023	0	32809	32569	
4024	0	32884	32732	
4025	0	32773	32787	
4026	0	32788	32719	
4027	0	32765	32708	
4028	0	32730	32756	
4029	0	32772	32831	
4030	0	32783	32775	
4031	0	32696	32973	
4032	0	32804	32898	
4033	0	32728	32706	
4034	0	32674	32723	
4035	0	32685	32832	
4036	0	32781	32775	
4037	0	32872	32804	
4038	0	32896	32689	
4039	0	32900	32734	
4040	0	32866	32811	
4041	0	32797	32880	
4042	0	32786	32903	
4043	0	32861	32927	
4044	0	32846	32768	
4045	0	32801	32775	
4046	0	32836	32842	
4047	0	32698	32775	
4048	0	32746	32792	
4049	0	32820	32663	
4050	0	32733	32734	
4051	0	32964	32827	
4052	0	33140	32735	
4053	0	33038	32718	
4054	0	32950	32820	
4055	0	32815	32797	
4056	0	32714	32918	
4057	0	32464	32805	
4058	0	32506	32812	
4059	0	32441	32748	
4060	0	32562	32792	
4061	0	32752	32827	
4062	0	32850	32816	
4063	0	32886	32820	
4064	0	32960	32775	
4065	0	32852	32707	
4066	0	32932	32732	
4067	0	32836	32673	
4068	0	32834	32732	
4069	0	32829	32789	
4070	0	32792	32856	
4071	0	32792	32811	
4072	0	32865	32739	
4073	0	32799	32782	
4074	0	32805	32766	
4075	0	32768	32852	
4076	0	32793	32821	
4077	0	32843	32859	
4078	0	32856	32770	
4079	0	32827	32639	
4080	0	32821	32582	
4081	0	32946	32793	
4082	0	32908	32908	
4083	0	32958	32977	
4084	0	33262	33120	
4085	0	33084	32900	
4086	0	33190	32744	
4087	0	32946	32813	
4088	0	32552	32768	
4089	0	32325	32521	
4090	0	32178	32436	
4091	0	32080	32219	
4092	0	31881	32464	
4093	0	32121	32916	
4094	0	32628	32971	
4095	0	33060	32873	
4096	0	33274	32998	
4097	0	33432	33130	
4098	0	33448	32994	
4099	0	33342	32942	
4100	0	33216	32906	
4101	0	32852	32829	
4102	0	32762	32867	
4103	0	32640	32927	
4104	0	32648	32856	
4105	0	32820	32832	
4106	0	32788	32825	
4107	0	32804	32783	
4108	0	32700	32842	
4109	0	32735	32799	
4110	0	32712	32664	
4111	0	32816	32704	
4112	0	32706	32745	
4113	0	32788	32704	
4114	0	32856	32688	
4115	0	32805	32729	
4116	0	32866	32796	
4117	0	32792	32868	
4118	0	32768	32889	
4119	0	32900	32825	
4120	0	32775	32811	
4121	0	32886	32773	
4122	0	32782	32723	
4123	0	32774	32724	
4124	0	32814	32697	
4125	0	32819	32828	
4126	0	32854	32839	
4127	0	32828	32775	
4128	0	32768	32747	
4129	0	32774	32862	
4130	0	32793	32930	
4131	0	32775	33021	
4132	0	32741	32895	
4133	0	32805	32781	
4134	0	32810	32693	
4135	0	32808	32711	
4136	0	32826	32760	
4137	0	32784	32910	
4138	0	32840	32774	
4139	0	32824	32855	
4140	0	32784	32834	
4141	0	32754	32822	
4142	0	32740	32807	
4143	0	32741	32797	
4144	0	32785	32711	
4145	0	32802	32764	
4146	0	32854	32754	
4147	0	32752	32615	
4148	0	32738	32875	
4149	0	32860	33052	
4150	0	32908	33000	
4151	0	32866	33076	
4152	0	32828	32768	
4153	0	32816	32614	
4154	0	32692	32661	
4155	0	32724	32715	
4156	0	32640	32775	
4157	0	32693	32775	
4158	0	32780	32784	
4159	0	32896	32879	
4160	0	32937	32952	
4161	0	32972	32900	
4162	0	32869	32889	
4163	0	32882	32887	
4164	0	32708	32821	
4165	0	32726	32822	
4166	0	32664	32839	
4167	0	32708	32850	
4168	0	32696	32678	
4169	0	32732	32692	
4170	0	32840	32711	
4171	0	32848	32576	
4172	0	32732	32720	
4173	0	32836	32809	
4174	0	32834	32919	
4175	0	32816	32924	
4176	0	32974	32813	
4177	0	33220	32805	
4178	0	33216	32774	
4179	0	33046	32804	
4180	0	32769	32806	
4181	0	32510	32902	
4182	0	32416	32867	
4183	0	32404	32768	
4184	0	32444	32765	
4185	0	32584	32692	
4186	0	32812	32623	
4187	0	32932	32679	
4188	0	32790	32775	
4189	0	32952	32869	
4190	0	32890	32966	
4191	0	32928	32818	
4192	0	32877	32805	
4193	0	32864	32732	
4194	0	32932	32780	
4195	0	32840	32809	
4196	0	32744	32887	
4197	0	32764	32946	
4198	0	32788	32846	
4199	0	32750	32850	
4200	0	32788	32840	
4201	0	32824	32858	
4202	0	32877	32661	
4203	0	32836	32872	
4204	0	32912	32962	
4205	0	33405	32877	
4206	0	33536	32710	
4207	0	33170	32579	
4208	0	32775	32496	
4209	0	32379	32408	
4210	0	32140	32549	
4211	0	32089	32793	
4212	0	32123	32965	
4213	0	32320	33060	
4214	0	32452	33138	
4215	0	32888	32997	
4216	0	33282	32644	
4217	0	33280	32562	
4218	0	33029	32690	
4219	0	32930	32820	
4220	0	32795	33084	
4221	0	32779	33095	
4222	0	32648	32920	
4223	0	32622	32805	
4224	0	32728	32811	
4225	0	32872	32774	
4226	0	32893	32760	
4227	0	32948	32816	
4228	0	32817	32828	
4229	0	32754	32713	
4230	0	32728	32766	
4231	0	32821	32722	
4232	0	32789	32820	
4233	0	32828	32715	
4234	0	32922	32739	
4235	0	32888	32775	
4236	0	32826	32775	
4237	0	32848	32797	
4238	0	32824	32757	
4239	0	32880	32813	
4240	0	32864	32872	
4241	0	32756	32879	
4242	0	32848	32740	
4243	0	32864	32796	
4244	0	32788	32674	
4245	0	32744	32796	
4246	0	32890	32797	
4247	0	32829	32882	
4248	0	32761	32868	
4249	0	32730	32934	
4250	0	32772	32879	
4251	0	32722	32688	
4252	0	32834	32654	
4253	0	32730	32668	
4254	0	32696	32739	
4255	0	32790	32998	
4256	0	32804	32953	
4257	0	32788	32838	
4258	0	32876	32812	
4259	0	32834	32939	
4260	0	32932	32984	
4261	0	32884	32822	
4262	0	32764	32727	
4263	0	32696	32494	
4264	0	33085	32482	
4265	0	33068	32510	
4266	0	32856	32620	
4267	0	32678	32539	
4268	0	32612	32652	
4269	0	32628	32813	
4270	0	32512	33235	
4271	0	32529	33126	
4272	0	32564	33123	
4273	0	32790	32863	
4274	0	33000	32926	
4275	0	32957	33036	
4276	0	32944	32892	
4277	0	32952	32839	
4278	0	32965	32775	
4279	0	32912	32819	
4280	0	32899	32847	
4281	0	32817	32784	
4282	0	32848	32790	
4283	0	32744	32690	
4284	0	32772	32718	
4285	0	32740	32834	
4286	0	32837	32749	
4287	0	32840	32808	
4288	0	32750	32775	
4289	0	32752	32635	
4290	0	32739	32528	
4291	0	32688	32454	
4292	0	32736	32756	
4293	0	32766	32807	
4294	0	32740	32799	
4295	0	32784	32790	
4296	0	33282	32797	
4297	0	33574	32607	
4298	0	33194	32696	
4299	0	32964	32951	
4300	0	32628	33000	
4301	0	32210	32895	
4302	0	32088	32926	
4303	0	32128	32916	
4304	0	32278	33003	
4305	0	32626	32958	
4306	0	32972	32630	
4307	0	33082	32362	
4308	0	32988	32353	
4309	0	32932	32585	
4310	0	32785	32950	
4311	0	32848	32983	
4312	0	32889	32978	
4313	0	32906	33016	
4314	0	32821	32946	
4315	0	32864	32814	
4316	0	32906	32788	
4317	0	32876	32724	
4318	0	32824	32788	
4319	0	32908	32740	
4320	0	32906	32720	
4321	0	32888	32880	
4322	0	32832	32681	
4323	0	32872	32699	
4324	0	32842	32869	
4325	0	32804	32796	
4326	0	32696	32813	
4327	0	32690	32759	
4328	0	32696	32836	
4329	0	32775	32747	
4330	0	32816	32789	
4331	0	32834	32889	
4332	0	32826	32835	
4333	0	32870	32679	
4334	0	32780	32803	
4335	0	32824	32802	
4336	0	32848	32890	
4337	0	32782	32742	
4338	0	32800	32824	
4339	0	32850	32738	
4340	0	32832	32780	
4341	0	32800	32758	
4342	0	32788	32772	
4343	0	32838	33018	
4344	0	32824	32943	
4345	0	32856	32827	
4346	0	32800	32758	
4347	0	32762	32640	
4348	0	32819	32846	
4349	0	32700	32870	
4350	0	32676	32842	
4351	0	32746	32758	
4352	0	32772	32854	
4353	0	32722	32859	
4354	0	32828	32852	
4355	0	32856	32698	
4356	0	32846	32623	
4357	0	32884	32861	
4358	0	32869	33116	
4359	0	32834	33026	
4360	0	32826	32860	
4361	0	32832	32583	
4362	0	32860	32765	
4363	0	32872	32851	
4364	0	32868	32919	
4365	0	32784	32968	
4366	0	32780	32899	
4367	0	32846	32819	
4368	0	32870	32904	
4369	0	32774	32872	
4370	0	32754	32964	
4371	0	32730	32984	
4372	0	32808	32799	
4373	0	32809	32793	
4374	0	32772	32692	
4375	0	32800	32824	
4376	0	32800	32895	
4377	0	32781	32866	
4378	0	32840	32883	
4379	0	32824	32886	
4380	0	32854	32807	
4381	0	32866	32647	
4382	0	32896	32832	
4383	0	32878	32840	
4384	0	32794	32708	
4385	0	32834	32894	
4386	0	32836	32768	
4387	0	32865	32824	
4388	0	32948	32790	
4389	0	32865	32675	
4390	0	32987	32541	
4391	0	33186	32803	
4392	0	32918	32994	
4393	0	32520	32992	
4394	0	32400	32889	
4395	0	32217	32902	
4396	0	32090	32818	
4397	0	32164	32978	
4398	0	32420	32985	
4399	0	32827	32979	
4400	0	33064	32908	
4401	0	33266	32818	
4402	0	33220	32712	
4403	0	33202	32770	
4404	0	33018	32796	
4405	0	32904	32809	
4406	0	32890	32676	
4407	0	32784	32552	
4408	0	32757	32587	
4409	0	32683	32802	
4410	0	32704	32818	
4411	0	32788	32879	
4412	0	32820	32864	
4413	0	32810	32852	
4414	0	32730	32859	
4415	0	32808	32835	
4416	0	32808	32937	
4417	0	32788	32945	
4418	0	32856	32785	
4419	0	32976	32698	
4420	0	32848	32637	
4421	0	32882	32605	
4422	0	32829	32805	
4423	0	32820	32818	
4424	0	32762	32855	
4425	0	32760	32847	
4426	0	32793	32820	
4427	0	32800	32817	
4428	0	32744	32804	
4429	0	32698	32852	
4430	0	32690	32813	
4431	0	32809	32812	
4432	0	32782	32691	
4433	0	32857	32821	
4434	0	32826	32901	
4435	0	32760	32855	
4436	0	32800	32938	
4437	0	32837	32925	
4438	0	32760	32853	
4439	0	32912	32722	
4440	0	32805	32829	
4441	0	32861	32736	
4442	0	32864	32633	
4443	0	32784	32612	
4444	0	32816	32676	
4445	0	32762	32804	
4446	0	32816	32832	
4447	0	32828	32743	
4448	0	32793	32634	
4449	0	32732	32741	
4450	0	32792	32871	
4451	0	32764	32844	
4452	0	32754	32839	
4453	0	32801	32758	
4454	0	32871	32775	
4455	0	32791	32924	
4456	0	32819	32918	
4457	0	32858	32982	
4458	0	32824	33144	
4459	0	32844	32976	
4460	0	32872	32868	
4461	0	32916	32820	
4462	0	32846	32816	
4463	0	32808	32767	
4464	0	32754	32751	
4465	0	32790	32801	
4466	0	32832	32735	
4467	0	32784	32766	
4468	0	32752	32729	
4469	0	32824	32679	
4470	0	32784	32620	
4471	0	32744	32714	
4472	0	32756	32799	
4473	0	32742	32800	
4474	0	32732	32600	
4475	0	32828	32775	
4476	0	32870	32963	
4477	0	32773	32884	
4478	0	32786	33022	
4479	0	32800	32966	
4480	0	32848	32924	
4481	0	32836	32934	
4482	0	32856	32844	
4483	0	32832	32793	
4484	0	32804	32748	
4485	0	32805	32746	
4486	0	32741	32794	
4487	0	32864	32847	
4488	0	32793	32818	
4489	0	32775	32793	
4490	0	32792	32758	
4491	0	32774	32722	
4492	0	32760	32757	
4493	0	32862	32646	
4494	0	32772	32740	
4495	0	32848	32834	
4496	0	32839	32879	
4497	0	32799	32818	
4498	0	32816	32678	
4499	0	32820	32772	
4500	0	32836	32784	
4501	0	32812	32832	
4502	0	32864	32864	
4503	0	32837	32815	
4504	0	32844	32820	
4505	0	32936	32804	
4506	0	32812	32903	
4507	0	32737	32873	
4508	0	32736	32895	
4509	0	32850	32853	
4510	0	32766	32805	
4511	0	32828	32601	
4512	0	32816	32476	
4513	0	32876	32658	
4514	0	32774	32811	
4515	0	32824	32835	
4516	0	32750	32912	
4517	0	32720	32829	
4518	0	32680	32775	
4519	0	32769	32843	
4520	0	32773	32858	
4521	0	32880	32808	
4522	0	32876	32774	
4523	0	32804	32923	
4524	0	32850	32972	
4525	0	32766	32892	
4526	0	32789	32752	
4527	0	32840	32760	
4528	0	32796	32799	
4529	0	32832	32710	
4530	0	32828	32697	
4531	0	32828	32672	
4532	0	32793	32649	
4533	0	32780	32782	
4534	0	32737	33035	
4535	0	32816	32882	
4536	0	32677	32809	
4537	0	32773	32806	
4538	0	32762	32666	
4539	0	32754	32800	
4540	0	32852	32766	
4541	0	32780	32789	
4542	0	32775	32957	
4543	0	32802	32941	
4544	0	32898	32787	
4545	0	32856	32785	
4546	0	32868	32767	
4547	0	32904	32758	
4548	0	33016	32729	
4549	0	33138	32706	
4550	0	33042	32692	
4551	0	32930	32718	
4552	0	32775	32728	
4553	0	32585	32790	
4554	0	32492	32996	
4555	0	32450	33078	
4556	0	32536	33039	
4557	0	32580	32886	
4558	0	32652	32786	
4559	0	32800	32577	
4560	0	32764	32602	
4561	0	32810	32720	
4562	0	32860	32850	
4563	0	32976	32915	
4564	0	32956	32888	
4565	0	33092	32908	
4566	0	32945	32857	
4567	0	32708	32886	
4568	0	32712	32886	
4569	0	32500	32887	
4570	0	32484	32818	
4571	0	32602	32764	
4572	0	32784	32668	
4573	0	32704	32801	
4574	0	32745	32786	
4575	0	32888	32803	
4576	0	32973	32775	
4577	0	32992	32920	
4578	0	33036	32910	
4579	0	32876	32766	
4580	0	33004	32710	
4581	0	32937	32696	
4582	0	32924	32632	
4583	0	32834	32816	
4584	0	32808	32829	
4585	0	32714	32716	
4586	0	32804	32650	
4587	0	32692	32698	
4588	0	32694	32831	
4589	0	32780	32918	
4590	0	32712	32853	
4591	0	32752	32759	
4592	0	32696	32802	
4593	0	32764	32974	
4594	0	32829	32956	
4595	0	32920	32961	
4596	0	33032	32747	
4597	0	33290	32676	
4598	0	33262	32608	
4599	0	32968	32738	
4600	0	32650	33031	
4601	0	32481	33091	
4602	0	32352	32967	
4603	0	32405	32903	
4604	0	32524	32926	
4605	0	32901	32754	
4606	0	33116	32729	
4607	0	33188	32729	
4608	0	33072	32677	
4609	0	32796	32691	
4610	0	32480	32792	
4611	0	32317	32889	
4612	0	32287	32790	
4613	0	32500	32839	
4614	0	32796	32743	
4615	0	32788	32775	
4616	0	32924	32736	
4617	0	32988	32765	
4618	0	32926	32898	
4619	0	32992	32826	
4620	0	33057	32877	
4621	0	33058	32836	
4622	0	32978	32892	
4623	0	32971	32991	
4624	0	32901	32787	
4625	0	32789	32775	
4626	0	32808	32656	
4627	0	32721	32583	
4628	0	32780	32568	
4629	0	32751	32748	
4630	0	32688	32933	
4631	0	32706	32730	
4632	0	32710	32738	
4633	0	32688	32899	
4634	0	32688	32929	
4635	0	32815	33052	
4636	0	32775	32880	
4637	0	32824	32851	
4638	0	32836	32913	
4639	0	32850	32862	
4640	0	32882	32784	
4641	0	32820	32774	
4642	0	32832	32619	
4643	0	32836	32760	
4644	0	32750	32772	
4645	0	32890	32761	
4646	0	32720	32739	
4647	0	32812	32754	
4648	0	32792	32704	
4649	0	32872	32690	
4650	0	32830	32642	
4651	0	32864	32711	
4652	0	32930	32687	
4653	0	32962	32629	
4654	0	32898	32583	
4655	0	32998	32552	
4656	0	33020	32532	
4657	0	33026	32550	
4658	0	32933	32615	
4659	0	32998	32574	
4660	0	32900	32819	
4661	0	32916	32808	
4662	0	33004	32812	
4663	0	32952	32636	
4664	0	32936	32418	
4665	0	32732	32502	
4666	0	32605	32773	
4667	0	32541	32932	
4668	0	32466	33010	
4669	0	32492	33017	
4670	0	32532	33014	
4671	0	32688	33125	
4672	0	32688	33191	
4673	0	32612	33030	
4674	0	32552	33163	
4675	0	32622	32988	
4676	0	32597	32982	
4677	0	32640	33022	
4678	0	32706	33072	
4679	0	32730	33076	
4680	0	32832	33287	
4681	0	32856	33178	
4682	0	32841	33028	
4683	0	32674	32976	
4684	0	32811	32754	
4685	0	32852	32775	
4686	0	32763	32696	
4687	0	32826	32641	
4688	0	32845	32612	
4689	0	32848	32712	
4690	0	32840	32720	
4691	0	32848	32764	
4692	0	32926	32764	
4693	0	32910	32674	
4694	0	32924	32684	
4695	0	32968	32608	
4696	0	32861	32642	
4697	0	32873	32723	
4698	0	32800	32775	
4699	0	32868	32775	
4700	0	32836	32856	
4701	0	32900	32760	
4702	0	32882	32711	
4703	0	32810	32723	
4704	0	32864	32808	
4705	0	32834	32872	
4706	0	32772	32832	
4707	0	32920	32921	
4708	0	32964	32867	
4709	0	32858	32916	
4710	0	32750	32836	
4711	0	32638	32736	
4712	0	32568	32485	
4713	0	32544	32326	
4714	0	32569	32391	
4715	0	32704	32793	
4716	0	32948	32912	
4717	0	33004	32792	
4718	0	32992	32656	
4719	0	32938	32854	
4720	0	32872	32950	
4721	0	32898	33124	
4722	0	32786	33254	
4723	0	32880	32906	
4724	0	32754	32814	
4725	0	32805	32896	
4726	0	32700	32861	
4727	0	32740	32852	
4728	0	32808	32810	
4729	0	32775	32697	
4730	0	32793	32677	
4731	0	32748	32620	
4732	0	32796	32553	
4733	0	32800	32532	
4734	0	32820	32743	
4735	0	32808	32864	
4736	0	32768	32942	
4737	0	32768	32938	
4738	0	32775	33010	
4739	0	32840	32769	
4740	0	32778	32754	
4741	0	32852	32766	
4742	0	32940	32888	
4743	0	32908	32933	
4744	0	32888	32843	
4745	0	33008	32775	
4746	0	32976	32835	
4747	0	32878	32856	
4748	0	32738	32868	
4749	0	32792	32808	
4750	0	32720	32850	
4751	0	32696	32836	
4752	0	32602	32848	
4753	0	32615	32875	
4754	0	32624	32837	
4755	0	32640	32848	
4756	0	32792	32863	
4757	0	32752	32864	
4758	0	32803	32919	
4759	0	32828	32844	
4760	0	32892	32813	
4761	0	32880	32739	
4762	0	32866	32680	
4763	0	32834	32712	
4764	0	32844	32854	
4765	0	32876	32845	
4766	0	32824	32940	
4767	0	32848	32924	
4768	0	32844	32752	
4769	0	32784	32681	
4770	0	32748	32624	
4771	0	32832	32775	
4772	0	32856	32814	
4773	0	32829	32871	
4774	0	32838	32935	
4775	0	32804	32688	
4776	0	32828	32752	
4777	0	32760	32613	
4778	0	32689	32667	
4779	0	32720	32844	
4780	0	32801	32826	
4781	0	32829	32882	
4782	0	32916	32714	
4783	0	32932	32760	
4784	0	32884	32920	
4785	0	32874	32861	
4786	0	32845	32864	
4787	0	32762	32800	
4788	0	32808	32672	
4789	0	32682	32658	
4790	0	32816	32754	
4791	0	32748	32711	
4792	0	32782	32803	
4793	0	32775	32901	
4794	0	32775	32826	
4795	0	32720	32699	
4796	0	32760	32683	
4797	0	32843	32738	
4798	0	32826	32837	
4799	0	32884	32782	
4800	0	32891	32936	
4801	0	32928	32887	
4802	0	32861	32852	
4803	0	32832	32834	
4804	0	32828	32754	
4805	0	32856	32882	
4806	0	32784	32828	
4807	0	32808	32760	
4808	0	32756	32852	
4809	0	32738	32831	
4810	0	32808	32868	
4811	0	32812	32719	
4812	0	32775	32772	
4813	0	32816	32719	
4814	0	32762	32739	
4815	0	32745	32770	
4816	0	32754	32748	
4817	0	32768	32815	
4818	0	32788	32827	
4819	0	32780	32722	
4820	0	32676	32861	
4821	0	32785	32946	
4822	0	32742	32761	
4823	0	32893	32745	
4824	0	32948	32699	
4825	0	32882	32775	
4826	0	32903	32559	
4827	0	33004	32603	
4828	0	32901	32791	
4829	0	32768	32829	
4830	0	32692	33010	
4831	0	32594	33017	
4832	0	32584	33029	
4833	0	32666	33112	
4834	0	32768	33133	
4835	0	32986	32775	
4836	0	32960	32543	
4837	0	32944	32410	
4838	0	32890	32527	
4839	0	32744	32549	
4840	0	32624	32680	
4841	0	32732	33098	
4842	0	32826	33109	
4843	0	32818	32825	
4844	0	32786	32630	
4845	0	32735	32756	
4846	0	32656	32910	
4847	0	32661	32767	
4848	0	32584	32588	
4849	0	32820	32687	
4850	0	32952	32815	
4851	0	32952	32832	
4852	0	32962	32786	
4853	0	32888	32756	
4854	0	32816	32708	
4855	0	32860	32863	
4856	0	32856	32871	
4857	0	32780	32892	
4858	0	32780	32996	
4859	0	32834	32854	
4860	0	32788	32791	
4861	0	32829	32833	
4862	0	32842	32856	
4863	0	32872	32807	
4864	0	32792	32820	
4865	0	32745	32796	
4866	0	32736	32841	
4867	0	32778	32592	
4868	0	32837	32601	
4869	0	32824	32775	
4870	0	32816	32760	
4871	0	32876	32839	
4872	0	33056	32641	
4873	0	32960	32748	
4874	0	32940	32789	
4875	0	32732	32954	
4876	0	32545	33058	
4877	0	32556	32815	
4878	0	32481	32704	
4879	0	32628	32871	
4880	0	32706	32989	
4881	0	32856	32880	
4882	0	33108	32858	
4883	0	33064	32671	
4884	0	32955	32595	
4885	0	32820	32668	
4886	0	32769	32754	
4887	0	32746	32780	
4888	0	32736	32816	
4889	0	32788	32906	
4890	0	32778	32901	
4891	0	32797	32983	
4892	0	32730	33101	
4893	0	32716	32809	
4894	0	32678	32898	
4895	0	32729	32713	
4896	0	32818	32676	
4897	0	32838	32729	
4898	0	32888	32882	
4899	0	32877	32875	
4900	0	32956	32865	
4901	0	32820	32837	
4902	0	32865	32654	
4903	0	32868	32631	
4904	0	32876	32592	
4905	0	32900	32809	
4906	0	32830	32818	
4907	0	32782	32858	
4908	0	32673	32896	
4909	0	32766	32868	
4910	0	32792	32807	
4911	0	32754	32799	
4912	0	32888	32741	
4913	0	32760	32656	
4914	0	32800	32823	
4915	0	32764	32932	
4916	0	32764	32743	
4917	0	32760	32660	
4918	0	32740	32716	
4919	0	32772	32868	
4920	0	32765	32948	
4921	0	32796	33005	
4922	0	32864	32894	
4923	0	32840	32815	
4924	0	32890	32775	
4925	0	32805	32687	
4926	0	32825	32551	
4927	0	32770	32790	
4928	0	32805	32838	
4929	0	32853	32797	
4930	0	32784	32710	
4931	0	32734	32888	
4932	0	32819	32839	
4933	0	32786	32994	
4934	0	32772	32933	
4935	0	32824	32756	
4936	0	32769	32775	
4937	0	32717	32974	
4938	0	32744	32992	
4939	0	32674	32959	
4940	0	32864	32903	
4941	0	32852	32749	
4942	0	32884	32654	
4943	0	32860	32712	
4944	0	32842	32879	
4945	0	32835	32873	
4946	0	32722	32854	
4947	0	32668	32806	
4948	0	32836	32842	
4949	0	32745	32824	
4950	0	32892	32888	
4951	0	32790	32742	
4952	0	32867	32805	
4953	0	32769	32684	
4954	0	32770	32716	
4955	0	32809	32804	
4956	0	32780	32703	
4957	0	32832	32744	
4958	0	32796	32805	
4959	0	32809	32890	
4960	0	32913	32840	
4961	0	32842	32790	
4962	0	32793	32810	
4963	0	32816	32749	
4964	0	32812	32865	
4965	0	32828	32712	
4966	0	32801	32795	
4967	0	32722	32997	
4968	0	32836	32956	
4969	0	32744	32974	
4970	0	32722	32730	
4971	0	32760	32896	
4972	0	32816	32959	
4973	0	32804	32790	
4974	0	32817	32559	
4975	0	32916	32602	
4976	0	32856	32811	
4977	0	32808	32863	
4978	0	32826	32742	
4979	0	32890	32968	
4980	0	32884	32944	
4981	0	32768	32626	
4982	0	32822	32588	
4983	0	32873	32762	
4984	0	32836	32845	
4985	0	32816	32800	
4986	0	32784	32771	
4987	0	32706	33094	
4988	0	32685	32872	
4989	0	32741	32733	
4990	0	32773	32556	
4991	0	32792	32672	
4992	0	32740	32938	
4993	0	32788	32935	
4994	0	32741	32902	
4995	0	32871	32942	
4996	0	32796	32841	
4997	0	32828	32939	
4998	0	32864	32772	
4999	0	32801	32734	
5000	0	32776	32560	
5001	0	32866	32646	
5002	0	32848	32669	
5003	0	32889	32729	
5004	0	32882	32743	
5005	0	32857	32813	
5006	0	32844	32958	
5007	0	32775	32962	
5008	0	32770	33036	
5009	0	32754	32725	
5010	0	32758	32730	
5011	0	32720	32799	
5012	0	32762	32769	
5013	0	32740	32846	
5014	0	32848	32818	
5015	0	32822	32712	
5016	0	32804	32726	
5017	0	32829	32809	
5018	0	32846	32894	
5019	0	32872	32886	
5020	0	32925	32772	
5021	0	32968	32782	
5022	0	32884	32682	
5023	0	32745	32653	
5024	0	32808	32609	
5025	0	32774	32903	
5026	0	32744	32946	
5027	0	32808	32982	
5028	0	32748	32671	
5029	0	32781	32638	
5030	0	32724	32647	
5031	0	32720	32855	
5032	0	32736	33012	
5033	0	32764	32902	
5034	0	32767	32820	
5035	0	32808	32790	
5036	0	32801	32771	
5037	0	32796	32799	
5038	0	32842	32634	
5039	0	32852	32766	
5040	0	32876	32956	
5041	0	32896	32832	
5042	0	32796	32718	
5043	0	32864	32762	
5044	0	32773	32802	
5045	0	32800	32934	
5046	0	32771	32879	
5047	0	32776	32771	
5048	0	32812	32728	
5049	0	32785	32879	
5050	0	32846	33019	
5051	0	32832	32762	
5052	0	32824	32495	
5053	0	32779	32539	
5054	0	32761	32682	
5055	0	32852	32863	
5056	0	32800	32834	
5057	0	32858	32710	
5058	0	32824	32904	
5059	0	32828	33005	
5060	0	32792	32906	
5061	0	32788	32853	
5062	0	32880	32733	
5063	0	32768	32720	
5064	0	32796	32731	
5065	0	32778	32812	
5066	0	32738	32964	
5067	0	32788	32850	
5068	0	32741	32900	
5069	0	32724	32750	
5070	0	32816	32670	
5071	0	32808	32740	
5072	0	32794	32765	
5073	0	32800	32725	
5074	0	32760	32925	
5075	0	32768	32868	
5076	0	32832	32835	
5077	0	32866	32997	
5078	0	32848	32838	
5079	0	32864	32562	
5080	0	32822	32536	
5081	0	32878	32473	
5082	0	32788	32676	
5083	0	32797	33005	
5084	0	32872	33212	
5085	0	32796	33093	
5086	0	32736	32848	
5087	0	32770	32642	
5088	0	32804	32672	
5089	0	32740	32768	
5090	0	32775	32862	
5091	0	32738	32929	
5092	0	32865	33024	
5093	0	32821	32775	
5094	0	32796	32809	
5095	0	32825	32796	
5096	0	32879	32800	
5097	0	32864	32810	
5098	0	32850	32734	
5099	0	32886	32662	
5100	0	32818	32754	
5101	0	32804	32882	
5102	0	32784	32932	
5103	0	32750	32786	
5104	0	32736	32730	
5105	0	32780	32678	
5106	0	32766	32843	
5107	0	32684	32753	
5108	0	32803	32772	
5109	0	32836	32903	
5110	0	32784	32930	
5111	0	32804	32855	
5112	0	32832	32795	
5113	0	32832	32606	
5114	0	32800	32549	
5115	0	32827	32658	
5116	0	32845	32639	
5117	0	32785	32581	
5118	0	32808	32936	
5119	0	32904	33083	
5120	0	32900	32967	
5121	0	32832	32903	
5122	0	32837	32740	
5123	0	32841	32866	
5124	0	32884	33006	
5125	0	32788	32831	
5126	0	32813	32858	
5127	0	32740	32865	
5128	0	32781	32813	
5129	0	32756	32795	
5130	0	32723	32894	
5131	0	32733	32881	
5132	0	32756	32813	
5133	0	32820	32765	
5134	0	32804	32613	
5135	0	32764	32740	
5136	0	32838	32756	
5137	0	32788	32828	
5138	0	32864	32873	
5139	0	32858	32770	
5140	0	32868	32698	
5141	0	32804	32857	
5142	0	32796	32869	
5143	0	32758	32854	
5144	0	32848	32805	
5145	0	32800	32836	
5146	0	32764	32720	
5147	0	32794	32547	
5148	0	32756	32442	
5149	0	32753	32674	
5150	0	32792	32775	
5151	0	32796	32749	
5152	0	32820	33033	
5153	0	32813	32950	
5154	0	32805	32989	
5155	0	32829	32802	
5156	0	32792	32771	
5157	0	32832	32967	
5158	0	32867	33054	
5159	0	32816	32961	
5160	0	32805	32749	
5161	0	32829	32661	
5162	0	32792	32804	
5163	0	32756	32810	
5164	0	32764	32861	
5165	0	32875	32858	
5166	0	32801	32787	
5167	0	32832	32722	
5168	0	32795	32773	
5169	0	32794	32720	
5170	0	32830	32682	
5171	0	32737	32598	
5172	0	32780	32680	
5173	0	32775	32811	
5174	0	32784	32730	
5175	0	32829	32885	
5176	0	32830	32772	
5177	0	32892	32840	
5178	0	32888	32868	
5179	0	32860	32916	
5180	0	32844	32928	
5181	0	32860	32815	
5182	0	32800	32922	
5183	0	32780	32683	
5184	0	32816	32841	
5185	0	32774	32859	
5186	0	32832	32804	
5187	0	32808	32765	
5188	0	32794	32743	
5189	0	32826	32744	
5190	0	32722	32810	
5191	0	32774	32840	
5192	0	32749	33014	
5193	0	32788	32887	
5194	0	32750	32678	
5195	0	32762	32743	
5196	0	32780	32732	
5197	0	32790	32596	
5198	0	32817	32625	
5199	0	32820	32838	
5200	0	32812	32966	
5201	0	32898	32934	
5202	0	32857	32867	
5203	0	32790	32851	
5204	0	32854	32839	
5205	0	32730	32910	
5206	0	32808	32832	
5207	0	32775	32775	
5208	0	32800	32757	
5209	0	32866	32740	
5210	0	32766	32841	
5211	0	32738	32870	
5212	0	32768	32820	
5213	0	32840	32734	
5214	0	32744	32715	
5215	0	32812	32833	
5216	0	32872	32790	
5217	0	32838	32775	
5218	0	32857	32882	
5219	0	32820	32832	
5220	0	32766	32774	
5221	0	32800	32736	
5222	0	32921	32805	
5223	0	32864	32791	
5224	0	32780	32727	
5225	0	32768	32770	
5226	0	32728	32794	
5227	0	32740	32749	
5228	0	32738	32908	
5229	0	32874	32912	
5230	0	32768	32821	
5231	0	32780	32730	
5232	0	32846	32720	
5233	0	32796	32826	
5234	0	32840	32834	
5235	0	32906	32833	
5236	0	32796	32844	
5237	0	32788	32716	
5238	0	32888	32790	
5239	0	32832	32831	
5240	0	32796	32853	
5241	0	32760	32893	
5242	0	32775	32745	
5243	0	32822	32731	
5244	0	32746	32834	
5245	0	32788	32772	
5246	0	32748	32828	
5247	0	32816	32821	
5248	0	32773	32706	
5249	0	32821	32704	
5250	0	32800	32768	
5251	0	32760	32775	
5252	0	32808	32870	
5253	0	32750	32885	
5254	0	32852	32854	
5255	0	32738	32818	
5256	0	32808	32688	
5257	0	32756	32789	
5258	0	32784	32868	
5259	0	32816	32791	
5260	0	32809	32719	
5261	0	32809	32764	
5262	0	32807	32728	
5263	0	32813	32728	
5264	0	32796	32840	
5265	0	32814	32865	
5266	0	32860	32750	
5267	0	32775	32902	
5268	0	32802	32914	
5269	0	32754	32843	
5270	0	32786	32692	
5271	0	32746	32731	
5272	0	32757	32870	
5273	0	32816	32872	
5274	0	32764	32891	
5275	0	32832	32775	
5276	0	32909	32626	
5277	0	32820	32828	
5278	0	32826	32782	
5279	0	32792	32772	
5280	0	32898	32790	
5281	0	32874	32601	
5282	0	32826	32554	
5283	0	32786	32764	
5284	0	32770	32855	
5285	0	32744	32931	
5286	0	32726	32932	
5287	0	32790	32955	
5288	0	32800	32843	
5289	0	32836	32621	
5290	0	32789	32558	
5291	0	32736	32763	
5292	0	32781	32775	
5293	0	32792	32868	
5294	0	32820	32794	
5295	0	32888	32812	
5296	0	32814	32919	
5297	0	32825	32884	
5298	0	32802	32932	
5299	0	32824	32952	
5300	0	32816	32825	
5301	0	32820	32894	
5302	0	32778	32878	
5303	0	32859	32829	
5304	0	32775	32801	
5305	0	32772	32581	
5306	0	32746	32452	
5307	0	32768	32631	
5308	0	32823	32775	
5309	0	32797	32875	
5310	0	32768	32805	
5311	0	32714	32806	
5312	0	32829	32892	
5313	0	32796	32905	
5314	0	32837	32836	
5315	0	32740	32761	
5316	0	32856	32782	
5317	0	32834	32861	
5318	0	32876	32813	
5319	0	32807	32770	
5320	0	32820	32735	
5321	0	32842	32773	
5322	0	32834	32775	
5323	0	32832	32836	
5324	0	32797	32798	
5325	0	32780	32685	
5326	0	32793	32852	
5327	0	32840	32924	
5328	0	32902	32838	
5329	0	32888	32709	
5330	0	32869	32589	
5331	0	32792	32577	
5332	0	32786	32646	
5333	0	32788	32869	
5334	0	32668	33095	
5335	0	32672	33096	
5336	0	32666	32913	
5337	0	32644	32775	
5338	0	32702	32791	
5339	0	32790	32838	
5340	0	32864	32875	
5341	0	32861	32862	
5342	0	32876	32839	
5343	0	32944	32758	
5344	0	32818	32694	
5345	0	32805	32824	
5346	0	32876	32832	
5347	0	32880	32832	
5348	0	32726	32750	
5349	0	32774	32790	
5350	0	32706	32815	
5351	0	32868	32845	
5352	0	32808	32775	
5353	0	32872	32822	
5354	0	32780	32864	
5355	0	32792	32790	
5356	0	32880	32674	
5357	0	32856	32619	
5358	0	32804	32687	
5359	0	32866	32792	
5360	0	32864	32911	
5361	0	32844	32856	
5362	0	32825	32954	
5363	0	32780	32939	
5364	0	32853	32896	
5365	0	32786	32837	
5366	0	32829	32828	
5367	0	32736	32741	
5368	0	32696	32592	
5369	0	32756	32630	
5370	0	32762	32579	
5371	0	32808	32670	
5372	0	32736	32832	
5373	0	32804	32932	
5374	0	32714	32805	
5375	0	32804	32786	
5376	0	32797	32913	
5377	0	32904	32877	
5378	0	32912	32948	
5379	0	32936	32789	
5380	0	32864	32711	
5381	0	32871	32822	
5382	0	32808	32742	
5383	0	32820	32917	
5384	0	32756	32905	
5385	0	32680	32992	
5386	0	32766	32822	
5387	0	32760	32696	
5388	0	32760	32681	
5389	0	32874	32637	
5390	0	32708	32727	
5391	0	32798	32896	
5392	0	32770	32863	
5393	0	32754	32843	
5394	0	32764	32857	
5395	0	32720	32908	
5396	0	32776	32797	
5397	0	32788	32763	
5398	0	32856	32688	
5399	0	32772	32895	
5400	0	32864	32887	
5401	0	32865	32892	
5402	0	32868	32805	
5403	0	32873	32785	
5404	0	32854	32787	
5405	0	32876	32677	
5406	0	32762	32647	
5407	0	32846	32671	
5408	0	32796	32760	
5409	0	32873	32737	
5410	0	32948	32768	
5411	0	32901	32673	
5412	0	32936	32674	
5413	0	32995	32594	
5414	0	32930	32553	
5415	0	32980	32588	
5416	0	32836	32716	
5417	0	32972	32731	
5418	0	32960	32793	
5419	0	32908	32789	
5420	0	32852	32800	
5421	0	32768	32768	
5422	0	32816	32648	
5423	0	32780	32748	
5424	0	32744	32738	
5425	0	32722	32890	
5426	0	32701	32928	
5427	0	32656	32868	
5428	0	32652	32927	
5429	0	32720	32932	
5430	0	32684	33018	
5431	0	32576	33060	
5432	0	32530	33010	
5433	0	32508	33120	
5434	0	32541	33100	
5435	0	32580	33126	
5436	0	32582	33069	
5437	0	32609	33092	
5438	0	32824	33028	
5439	0	32796	32951	
5440	0	32896	32825	
5441	0	32800	32717	
5442	0	32808	32710	
5443	0	32848	32656	
5444	0	32805	32863	
5445	0	32828	32872	
5446	0	32800	32821	
5447	0	32840	32670	
5448	0	32798	32739	
5449	0	32870	32772	
5450	0	32748	32720	
5451	0	32892	32653	
5452	0	32884	32568	
5453	0	32856	32652	
5454	0	32816	32607	
5455	0	32858	32711	
5456	0	32916	32743	
5457	0	32837	32783	
5458	0	32892	32605	
5459	0	32880	32696	
5460	0	32896	32706	
5461	0	32863	32707	
5462	0	32828	32725	
5463	0	32834	32754	
5464	0	32816	32706	
5465	0	32758	32705	
5466	0	32809	32744	
5467	0	32771	32843	
5468	0	32794	32847	
5469	0	32761	32805	
5470	0	32812	32775	
5471	0	32710	32823	
5472	0	32820	32847	
5473	0	32808	32804	
5474	0	32805	32828	
5475	0	32764	32837	
5476	0	32846	32881	
5477	0	32844	32925	
5478	0	32804	32685	
5479	0	32884	32721	
5480	0	32832	32759	
5481	0	32820	32861	
5482	0	32828	32850	
5483	0	32868	32948	
5484	0	32840	32945	
5485	0	32806	32820	
5486	0	32768	32736	
5487	0	32812	32808	
5488	0	32792	32786	
5489	0	32812	32733	
5490	0	32762	32803	
5491	0	32768	32808	
5492	0	32775	32940	
5493	0	32816	32722	
5494	0	32848	32706	
5495	0	32728	32724	
5496	0	32836	32841	
5497	0	32870	32873	
5498	0	32842	32884	
5499	0	32817	32801	
5500	0	32832	32811	
5501	0	32886	32762	
5502	0	32801	32654	
5503	0	32872	32745	
5504	0	32792	32762	
5505	0	32810	32894	
5506	0	32740	32911	
5507	0	32740	33033	
5508	0	32748	32839	
5509	0	32774	32808	
5510	0	32748	32772	
5511	0	32782	32836	
5512	0	32792	32903	
5513	0	32772	32858	
5514	0	32823	32743	
5515	0	32750	32688	
5516	0	32824	32577	
5517	0	32833	32637	
5518	0	32838	32873	
5519	0	32778	32792	
5520	0	32800	32950	
5521	0	32758	33063	
5522	0	32736	32856	
5523	0	32748	32724	
5524	0	32802	32756	
5525	0	32748	32679	
5526	0	32828	32775	
5527	0	32816	32808	
5528	0	32842	32799	
5529	0	32775	32760	
5530	0	32818	32784	
5531	0	32777	32898	
5532	0	32812	32919	
5533	0	32760	32877	
5534	0	32805	32821	
5535	0	32816	32671	
5536	0	32746	32788	
5537	0	32789	32823	
5538	0	32836	32724	
5539	0	32873	32722	
5540	0	32812	32791	
5541	0	32760	32845	
5542	0	32792	32860	
5543	0	32800	32775	
5544	0	32840	32786	
5545	0	32850	32814	
5546	0	32832	32836	
5547	0	32863	32813	
5548	0	32740	32798	
5549	0	32795	32731	
5550	0	32829	32613	
5551	0	32750	32796	
5552	0	32838	32833	
5553	0	32758	32805	
5554	0	32809	32870	
5555	0	32784	32875	
5556	0	32768	32991	
5557	0	32852	32834	
5558	0	32900	32711	
5559	0	32816	32831	
5560	0	32801	32785	
5561	0	32873	32858	
5562	0	32816	32761	
5563	0	32822	32767	
5564	0	32858	32679	
5565	0	32788	32763	
5566	0	32791	32820	
5567	0	32816	32903	
5568	0	32768	32933	
5569	0	32764	32732	
5570	0	32784	32815	
5571	0	32704	32848	
5572	0	32772	32858	
5573	0	32797	32857	
5574	0	32800	32748	
5575	0	32840	32768	
5576	0	32876	32882	
5577	0	32800	32903	
5578	0	32808	32738	
5579	0	32750	32736	
5580	0	32789	32775	
5581	0	32851	32839	
5582	0	32908	32903	
5583	0	32852	32868	
5584	0	32824	32805	
5585	0	32744	32699	
5586	0	32792	32784	
5587	0	32765	32855	
5588	0	32828	32868	
5589	0	32805	33006	
5590	0	32752	32822	
5591	0	32766	32847	
5592	0	32776	32775	
5593	0	32790	32678	
5594	0	32832	32775	
5595	0	32744	32762	
5596	0	32804	32861	
5597	0	32848	32799	
5598	0	32864	32775	
5599	0	32818	32761	
5600	0	32864	32739	
5601	0	32804	32775	
5602	0	32876	32731	
5603	0	32772	32741	
5604	0	32868	32813	
5605	0	32800	32859	
5606	0	32794	32903	
5607	0	32842	32795	
5608	0	32706	32850	
5609	0	32757	32890	
5610	0	32780	32860	
5611	0	32736	32924	
5612	0	32758	32801	
5613	0	32804	32718	
5614	0	32756	32668	
5615	0	32848	32743	
5616	0	32804	32741	
5617	0	32801	32749	
5618	0	32844	32817	
5619	0	32760	32823	
5620	0	32802	32760	
5621	0	32817	32642	
5622	0	32858	32799	
5623	0	32800	32701	
5624	0	32770	32710	
5625	0	32804	32838	
5626	0	32804	32860	
5627	0	32792	32946	
5628	0	32788	32919	
5629	0	32800	32773	
5630	0	32789	32736	
5631	0	32741	32723	
5632	0	32768	32775	
5633	0	32694	32839	
5634	0	32800	32868	
5635	0	32824	32814	
5636	0	32810	32768	
5637	0	32866	32808	
5638	0	32788	32919	
5639	0	32794	32842	
5640	0	32832	32812	
5641	0	32808	32882	
5642	0	32854	32809	
5643	0	32837	32802	
5644	0	32820	32671	
5645	0	32876	32766	
5646	0	32836	32736	
5647	0	32748	32764	
5648	0	32810	32806	
5649	0	32793	32824	
5650	0	32670	32868	
5651	0	32772	32819	
5652	0	32878	32834	
5653	0	32852	32765	
5654	0	32779	32804	
5655	0	32832	32837	
5656	0	32794	32885	
5657	0	32788	32914	
5658	0	32824	32758	
5659	0	32837	32732	
5660	0	32797	32799	
5661	0	32860	32818	
5662	0	32868	32862	
5663	0	32780	32816	
5664	0	32828	32752	
5665	0	32743	32735	
5666	0	32854	32762	
5667	0	32816	32848	
5668	0	32796	32832	
5669	0	32793	32870	
5670	0	32811	32711	
5671	0	32816	32816	
5672	0	32812	32880	
5673	0	32804	32924	
5674	0	32762	32783	
5675	0	32837	32697	
5676	0	32804	32692	
5677	0	32766	32726	
5678	0	32812	32664	
5679	0	32836	32775	
5680	0	32757	32790	
5681	0	32864	32818	
5682	0	32852	32788	
5683	0	32880	32861	
5684	0	32745	32872	
5685	0	32808	32879	
5686	0	32740	32988	
5687	0	32768	33012	
5688	0	32832	32775	
5689	0	32732	32728	
5690	0	32790	32720	
5691	0	32756	32735	
5692	0	32780	32788	
5693	0	32773	32890	
5694	0	32728	32974	
5695	0	32852	32884	
5696	0	32756	32813	
5697	0	32872	32775	
5698	0	32860	32657	
5699	0	32820	32628	
5700	0	32842	32805	
5701	0	32854	32899	
5702	0	32884	32824	
5703	0	33000	32910	
5704	0	32822	32941	
5705	0	32797	32928	
5706	0	32737	32870	
5707	0	32816	32674	
5708	0	32780	32628	
5709	0	32758	32788	
5710	0	32752	32759	
5711	0	32802	32775	
5712	0	32740	32670	
5713	0	32793	32893	
5714	0	32817	32882	
5715	0	32797	32819	
5716	0	32852	32840	
5717	0	32787	32706	
5718	0	32841	32715	
5719	0	32786	32775	
5720	0	32848	32876	
5721	0	32769	32786	
5722	0	32901	32775	
5723	0	32856	32903	
5724	0	32856	32864	
5725	0	32824	32903	
5726	0	32764	32760	
5727	0	32772	32677	
5728	0	32756	32728	
5729	0	32768	32774	
5730	0	32737	32780	
5731	0	32782	32758	
5732	0	32816	32850	
5733	0	32748	32836	
5734	0	32716	32787	
5735	0	32752	32712	
5736	0	32876	32775	
5737	0	32873	32839	
5738	0	32848	32875	
5739	0	32858	32914	
5740	0	32824	32884	
5741	0	32852	32736	
5742	0	32893	32763	
5743	0	32816	32710	
5744	0	32837	32738	
5745	0	32744	32679	
5746	0	32842	32740	
5747	0	32825	32839	
5748	0	32794	32900	
5749	0	32752	32853	
5750	0	32804	32812	
5751	0	32788	32922	
5752	0	32760	32809	
5753	0	32809	32791	
5754	0	32764	32775	
5755	0	32819	32726	
5756	0	32808	32740	
5757	0	32882	32788	
5758	0	32818	32742	
5759	0	32844	32836	
5760	0	32774	32829	
5761	0	32822	32750	
5762	0	32875	32687	
5763	0	32878	32791	
5764	0	32729	32863	
5765	0	32824	32824	
5766	0	32809	32892	
5767	0	32760	32839	
5768	0	32784	32704	
5769	0	32816	32748	
5770	0	32774	32810	
5771	0	32805	32775	
5772	0	32820	32826	
5773	0	32808	32852	
5774	0	32777	32773	
5775	0	32838	32813	
5776	0	32799	32782	
5777	0	32832	32832	
5778	0	32818	32817	
5779	0	32866	32757	
5780	0	32832	32723	
5781	0	32860	32758	
5782	0	32868	32891	
5783	0	32818	32707	
5784	0	32778	32873	
5785	0	32805	32864	
5786	0	32832	32822	
5787	0	32772	32839	
5788	0	32797	32720	
5789	0	32776	32762	
5790	0	32775	32841	
5791	0	32762	32848	
5792	0	32797	32818	
5793	0	32784	32822	
5794	0	32804	32834	
5795	0	32848	32733	
5796	0	32840	32702	
5797	0	32834	32807	
5798	0	32796	32899	
5799	0	32789	32744	
5800	0	32792	32790	
5801	0	32888	32903	
5802	0	32834	32790	
5803	0	32856	32816	
5804	0	32832	32681	
5805	0	32786	32700	
5806	0	32769	32730	
5807	0	32804	32929	
5808	0	32786	32972	
5809	0	32784	32967	
5810	0	32710	32844	
5811	0	32736	32724	
5812	0	32746	32717	
5813	0	32796	32841	
5814	0	32800	32774	
5815	0	32804	32827	
5816	0	32832	32775	
5817	0	32888	32757	
5818	0	32794	32854	
5819	0	32866	32802	
5820	0	32820	32829	
5821	0	32826	32775	
5822	0	32812	32842	
5823	0	32888	32831	
5824	0	32818	32857	
5825	0	32821	32664	
5826	0	32840	32754	
5827	0	32855	32822	
5828	0	32800	32797	
5829	0	32770	32861	
5830	0	32824	32738	
5831	0	32764	32890	
5832	0	32824	32775	
5833	0	32816	32872	
5834	0	32738	32748	
5835	0	32785	32789	
5836	0	32800	32801	
5837	0	32800	32826	
5838	0	32840	32839	
5839	0	32874	32826	
5840	0	32796	32680	
5841	0	32868	32715	
5842	0	32840	32741	
5843	0	32836	32839	
5844	0	32802	32900	
5845	0	32824	32706	
5846	0	32857	32721	
5847	0	32850	32932	
5848	0	32752	32848	
5849	0	32772	32882	
5850	0	32860	32809	
5851	0	32793	32768	
5852	0	32805	32813	
5853	0	32771	32766	
5854	0	32782	32816	
5855	0	32768	32733	
5856	0	32752	32763	
5857	0	32842	32892	
5858	0	32842	32828	
5859	0	32818	32820	
5860	0	32840	32869	
5861	0	32820	32852	
5862	0	32880	32837	
5863	0	32784	32725	
5864	0	32820	32786	
5865	0	32795	32855	
5866	0	32772	32855	
5867	0	32760	32662	
5868	0	32744	32838	
5869	0	32832	32775	
5870	0	32824	32850	
5871	0	32792	32799	
5872	0	32739	32694	
5873	0	32809	32839	
5874	0	32794	32800	
5875	0	32797	32903	
5876	0	32872	32892	
5877	0	32798	32876	
5878	0	32832	32880	
5879	0	32844	32728	
5880	0	32798	32816	
5881	0	32817	32813	
5882	0	32907	32770	
5883	0	32864	32727	
5884	0	32832	32691	
5885	0	32816	32791	
5886	0	32798	32863	
5887	0	32848	32856	
5888	0	32811	32836	
5889	0	32740	32838	
5890	0	32704	32836	
5891	0	32708	32853	
5892	0	32642	32832	
5893	0	32708	32895	
5894	0	32768	32761	
5895	0	32785	32733	
5896	0	32900	32784	
5897	0	32914	32852	
5898	0	32818	32875	
5899	0	32812	32968	
5900	0	32900	32892	
5901	0	32824	32713	
5902	0	32874	32753	
5903	0	32868	32713	
5904	0	32890	32714	
5905	0	32796	32809	
5906	0	32793	32895	
5907	0	32744	32807	
5908	0	32797	32822	
5909	0	32866	32723	
5910	0	32732	32797	
5911	0	32704	32866	
5912	0	32746	32814	
5913	0	32818	32803	
5914	0	32820	32736	
5915	0	32840	32763	
5916	0	32821	32769	
5917	0	32834	32935	
5918	0	32864	32896	
5919	0	32826	32850	
5920	0	32852	32774	
5921	0	32883	32663	
5922	0	32869	32775	
5923	0	32809	32790	
5924	0	32796	32920	
5925	0	32720	32859	
5926	0	32848	32771	
5927	0	32744	32813	
5928	0	32834	32803	
5929	0	32760	32769	
5930	0	32752	32869	
5931	0	32775	32731	
5932	0	32816	32613	
5933	0	32780	32791	
5934	0	32829	32820	
5935	0	32774	32840	
5936	0	32832	32835	
5937	0	32832	32863	
5938	0	32809	32857	
5939	0	32820	32892	
5940	0	32796	32758	
5941	0	32798	32736	
5942	0	32830	32863	
5943	0	32776	32759	
5944	0	32872	32840	
5945	0	32792	32715	
5946	0	32860	32665	
5947	0	32800	32664	
5948	0	32756	32839	
5949	0	32780	32804	
5950	0	32728	32909	
5951	0	32736	32868	
5952	0	32816	32724	
5953	0	32802	32841	
5954	0	32796	32759	
5955	0	32708	32840	
5956	0	32873	32823	
5957	0	32782	32906	
5958	0	32834	32786	
5959	0	32781	32770	
5960	0	32854	32712	
5961	0	32842	32697	
5962	0	32868	32712	
5963	0	32848	32848	
5964	0	32797	32888	
5965	0	32788	32737	
5966	0	32810	32857	
5967	0	32852	32823	
5968	0	32799	32757	
5969	0	32758	32775	
5970	0	32750	32894	
5971	0	32793	32774	
5972	0	32760	32772	
5973	0	32804	32775	
5974	0	32802	32812	
5975	0	32748	32748	
5976	0	32784	32864	
5977	0	32768	32834	
5978	0	32832	32855	
5979	0	32840	32815	
5980	0	32884	32760	
5981	0	32818	32821	
5982	0	32722	32770	
5983	0	32862	32880	
5984	0	32826	32797	
5985	0	32808	32720	
5986	0	32804	32722	
5987	0	32784	32727	
5988	0	32829	32817	
5989	0	32816	32676	
5990	0	32782	32785	
5991	0	32802	32784	
5992	0	32728	32903	
5993	0	32820	32715	
5994	0	32788	32816	
5995	0	32809	32760	
5996	0	32833	32841	
5997	0	32832	32792	
5998	0	32874	32802	
5999	0	32888	32704	
6000	0	32862	32799	
6001	0	32788	32873	
6002	0	32844	32772	
6003	0	32804	32823	
6004	0	32884	32914	
6005	0	32856	32868	
6006	0	32752	32706	
6007	0	32788	32785	
6008	0	32776	32821	
6009	0	32752	32786	
6010	0	32700	32767	
6011	0	32828	32847	
6012	0	32832	32903	
6013	0	32776	32850	
6014	0	32748	32674	
6015	0	32729	32738	
6016	0	32801	32758	
6017	0	32852	32617	
6018	0	32924	32832	
6019	0	32822	32886	
6020	0	32832	32769	
6021	0	32882	32750	
6022	0	32816	32844	
6023	0	32792	32852	
6024	0	32760	32740	
6025	0	32784	32828	
6026	0	32795	32815	
