# OpenSignals Text File Format. Version 1
# {"00:07:80:D8:AA:AB": {"position": 0, "device": "biosignalsplux", "device name": "00:07:80:D8:AA:AB", "device connection": "BTH00:07:80:D8:AA:AB", "sampling rate": 1000, "resolution": [16, 16], "firmware version": 773, "comments": "", "keywords": "", "mode": 0, "sync interval": 2, "date": "2023-2-23", "time": "14:3:11.843", "channels": [1, 2], "sensor": ["EMG", "EMG"], "label": ["CH1", "CH2"], "column": ["nSeq", "DI", "CH1", "CH2"], "special": [{}, {}], "digital IO": [0, 1], "convertedValues": 0}}
# EndOfHeader
0	0	32776	32833	
1	0	32842	32844	
2	0	32802	32750	
3	0	32776	32827	
4	0	32744	32797	
5	0	32836	32680	
6	0	32856	32877	
7	0	32825	32773	
8	0	32808	32839	
9	0	32824	32711	
10	0	32816	32865	
11	0	32785	32831	
12	0	32804	32689	
13	0	32808	32747	
14	0	32815	32870	
15	0	32805	32835	
16	0	32794	32790	
17	0	32788	32881	
18	0	32764	32775	
19	0	32808	32674	
20	0	32732	32872	
21	0	32756	32846	
22	0	32769	32878	
23	0	32798	32650	
24	0	32761	32717	
25	0	32816	32820	
26	0	32792	32761	
27	0	32796	32822	
28	0	32736	32743	
29	0	32832	32866	
30	0	32906	32822	
31	0	32820	32708	
32	0	32792	32842	
33	0	32878	32834	
34	0	32775	32726	
35	0	32804	32848	
36	0	32768	32839	
37	0	32777	32847	
38	0	32774	32758	
39	0	32780	32851	
40	0	32844	32788	
41	0	32788	32768	
42	0	32812	32706	
43	0	32801	32801	
44	0	32757	32839	
45	0	32785	32761	
46	0	32792	32848	
47	0	32820	32707	
48	0	32880	32820	
49	0	32852	32836	
50	0	32799	32805	
51	0	32793	32751	
52	0	32754	32859	
53	0	32817	32784	
54	0	32720	32787	
55	0	32780	32788	
56	0	32780	32899	
57	0	32721	32796	
58	0	32796	32784	
59	0	32764	32922	
60	0	32809	32819	
61	0	32756	32857	
62	0	32820	32732	
63	0	32792	32822	
64	0	32789	32799	
65	0	32812	32775	
66	0	32847	32774	
67	0	32744	32824	
68	0	32838	32787	
69	0	32840	32775	
70	0	32792	32793	
71	0	32809	32732	
72	0	32824	32798	
73	0	32812	32862	
74	0	32844	32807	
75	0	32769	32854	
76	0	32832	32753	
77	0	32831	32709	
78	0	32808	32885	
79	0	32779	32775	
80	0	32753	32713	
81	0	32797	32852	
82	0	32695	32744	
83	0	32721	32783	
84	0	32848	32688	
85	0	32706	32761	
86	0	32834	32856	
87	0	32768	32866	
88	0	32812	32711	
89	0	32813	32712	
90	0	32784	32818	
91	0	32828	32796	
92	0	32819	32700	
93	0	32888	32899	
94	0	32831	32834	
95	0	32834	32806	
96	0	32768	32862	
97	0	32752	32775	
98	0	32752	32797	
99	0	32772	32886	
100	0	32810	32824	
101	0	32696	32823	
102	0	32727	32749	
103	0	32836	32775	
104	0	32808	32741	
105	0	32822	32845	
106	0	32826	32775	
107	0	32795	32708	
108	0	32809	32742	
109	0	32809	32857	
110	0	32764	32824	
111	0	32797	32873	
112	0	32854	32816	
113	0	32827	32756	
114	0	32784	32832	
115	0	32872	32792	
116	0	32756	32804	
117	0	32757	32719	
118	0	32808	32748	
119	0	32736	32855	
120	0	32800	32905	
121	0	32741	32790	
122	0	32776	32727	
123	0	32794	32851	
124	0	32698	32785	
125	0	32856	32813	
126	0	32832	32732	
127	0	32833	32769	
128	0	32818	32857	
129	0	32775	32763	
130	0	32764	32735	
131	0	32892	32775	
132	0	32786	32886	
133	0	32844	32807	
134	0	32768	32838	
135	0	32818	32666	
136	0	32780	32771	
137	0	32785	32844	
138	0	32760	32813	
139	0	32716	32690	
140	0	32761	32832	
141	0	32813	32775	
142	0	32770	32795	
143	0	32769	32731	
144	0	32834	32809	
145	0	32769	32802	
146	0	32869	32865	
147	0	32796	32853	
148	0	32852	32730	
149	0	32828	32679	
150	0	32772	32711	
151	0	32820	32775	
152	0	32792	32846	
153	0	32832	32861	
154	0	32860	32837	
155	0	32752	32984	
156	0	32754	33057	
157	0	32813	32927	
158	0	32788	32817	
159	0	32778	32578	
160	0	32766	32684	
161	0	32805	32766	
162	0	32792	32751	
163	0	32784	32752	
164	0	32784	32743	
165	0	32816	32745	
166	0	32852	32890	
167	0	32768	32858	
168	0	32788	32775	
169	0	32808	32713	
170	0	32794	32833	
171	0	32866	32895	
172	0	32782	32726	
173	0	32826	32831	
174	0	32828	32723	
175	0	32706	32701	
176	0	32770	32760	
177	0	32796	32910	
178	0	32765	32840	
179	0	32768	32767	
180	0	32812	32772	
181	0	32772	32893	
182	0	32834	32793	
183	0	32720	32790	
184	0	32788	32751	
185	0	32808	32733	
186	0	32803	32882	
187	0	32798	32775	
188	0	32802	32713	
189	0	32840	32711	
190	0	32800	32772	
191	0	32862	32845	
192	0	32768	32867	
193	0	32816	32776	
194	0	32813	32775	
195	0	32768	32763	
196	0	32786	32871	
197	0	32784	32847	
198	0	32734	32805	
199	0	32788	32761	
200	0	32748	32879	
201	0	32764	32775	
202	0	32794	32799	
203	0	32778	32797	
204	0	32751	32818	
205	0	32781	32775	
206	0	32712	32730	
207	0	32825	32815	
208	0	32832	32795	
209	0	32848	32854	
210	0	32836	32825	
211	0	32776	32747	
212	0	32791	32793	
213	0	32832	32794	
214	0	32768	32832	
215	0	32802	32736	
216	0	32797	32756	
217	0	32785	32903	
218	0	32746	32805	
219	0	32800	32844	
220	0	32772	32807	
221	0	32771	32740	
222	0	32824	32756	
223	0	32812	32706	
224	0	32752	32775	
225	0	32712	32881	
226	0	32816	32784	
227	0	32774	32804	
228	0	32811	32683	
229	0	32819	32744	
230	0	32782	32856	
231	0	32833	32775	
232	0	32812	32746	
233	0	32780	32770	
234	0	32822	32912	
235	0	32832	32795	
236	0	32800	32720	
237	0	32764	32754	
238	0	32810	32861	
239	0	32742	32899	
240	0	32820	32877	
241	0	32740	32782	
242	0	32742	32685	
243	0	32762	32718	
244	0	32755	32813	
245	0	32861	32823	
246	0	32804	32800	
247	0	32826	32682	
248	0	32756	32790	
249	0	32816	32855	
250	0	32888	32839	
251	0	32816	32812	
252	0	32848	32721	
253	0	32804	32711	
254	0	32846	32826	
255	0	32775	32823	
256	0	32813	32810	
257	0	32796	32705	
258	0	32742	32734	
259	0	32805	32891	
260	0	32781	32884	
261	0	32816	32790	
262	0	32698	32724	
263	0	32713	32716	
264	0	32800	32775	
265	0	32786	32820	
266	0	32805	32839	
267	0	32859	32718	
268	0	32796	32803	
269	0	32797	32850	
270	0	32842	32765	
271	0	32868	32815	
272	0	32824	32712	
273	0	32780	32754	
274	0	32772	32893	
275	0	32828	32880	
276	0	32716	32805	
277	0	32738	32775	
278	0	32744	32793	
279	0	32762	32782	
280	0	32744	32845	
281	0	32775	32827	
282	0	32797	32870	
283	0	32824	32752	
284	0	32730	32710	
285	0	32829	32707	
286	0	32800	32796	
287	0	32772	32830	
288	0	32832	32813	
289	0	32827	32837	
290	0	32858	32737	
291	0	32816	32770	
292	0	32748	32782	
293	0	32805	32799	
294	0	32896	32802	
295	0	32800	32784	
296	0	32754	32695	
297	0	32768	32807	
298	0	32832	32871	
299	0	32786	32876	
300	0	32775	32826	
301	0	32756	32754	
302	0	32775	32724	
303	0	32794	32884	
304	0	32790	32838	
305	0	32752	32704	
306	0	32708	32836	
307	0	32816	32752	
308	0	32802	32824	
309	0	32797	32759	
310	0	32816	32785	
311	0	32749	32900	
312	0	32778	32820	
313	0	32860	32722	
314	0	32877	32688	
315	0	32736	32754	
316	0	32832	32847	
317	0	32856	32799	
318	0	32764	32640	
319	0	32796	32747	
320	0	32738	32775	
321	0	32841	32700	
322	0	32861	32733	
323	0	32932	32658	
324	0	32964	32665	
325	0	32912	32607	
326	0	32956	32652	
327	0	32949	32709	
328	0	33012	32610	
329	0	32904	32694	
330	0	32877	32664	
331	0	32892	32766	
332	0	32848	32824	
333	0	32792	32825	
334	0	32816	32884	
335	0	32708	32761	
336	0	32661	32866	
337	0	32730	32911	
338	0	32654	32868	
339	0	32704	32798	
340	0	32676	32939	
341	0	32598	32958	
342	0	32668	32983	
343	0	32746	32840	
344	0	32628	32968	
345	0	32688	33124	
346	0	32656	33150	
347	0	32615	33075	
348	0	32630	32970	
349	0	32692	33156	
350	0	32690	33142	
351	0	32700	32943	
352	0	32726	32827	
353	0	32775	32852	
354	0	32849	32963	
355	0	32788	32895	
356	0	32884	32794	
357	0	32832	32829	
358	0	32864	32742	
359	0	32848	32748	
360	0	32960	32694	
361	0	32837	32666	
362	0	32800	32743	
363	0	32756	32737	
364	0	32817	32644	
365	0	32818	32639	
366	0	32864	32685	
367	0	32904	32714	
368	0	32876	32699	
369	0	32896	32626	
370	0	32902	32552	
371	0	32848	32861	
372	0	32844	32775	
373	0	32880	32792	
374	0	32826	32690	
375	0	32768	32758	
376	0	32765	32792	
377	0	32784	32827	
378	0	32788	32678	
379	0	32762	32748	
380	0	32804	32837	
381	0	32754	32807	
382	0	32724	32781	
383	0	32836	32750	
384	0	32748	32855	
385	0	32764	32884	
386	0	32797	32859	
387	0	32796	32714	
388	0	32820	32677	
389	0	32802	32758	
390	0	32775	32694	
391	0	32730	32855	
392	0	32820	32834	
393	0	32805	32775	
394	0	32870	32676	
395	0	32850	32746	
396	0	32729	32775	
397	0	32792	32832	
398	0	32784	32839	
399	0	32756	32727	
400	0	32772	32738	
401	0	32748	32769	
402	0	32769	32855	
403	0	32816	32872	
404	0	32740	32758	
405	0	32832	32824	
406	0	32861	32759	
407	0	32824	32760	
408	0	32856	32727	
409	0	32796	32764	
410	0	32796	32888	
411	0	32775	32835	
412	0	32804	32795	
413	0	32826	32818	
414	0	32801	32756	
415	0	32872	32793	
416	0	32760	32854	
417	0	32810	32771	
418	0	32792	32896	
419	0	32731	32710	
420	0	32796	32799	
421	0	32832	32864	
422	0	32729	32830	
423	0	32792	32811	
424	0	32718	32784	
425	0	32780	32809	
426	0	32848	32771	
427	0	32876	32809	
428	0	32792	32773	
429	0	32861	32708	
430	0	32731	32704	
431	0	32775	32775	
432	0	32828	32725	
433	0	32741	32755	
434	0	32774	32753	
435	0	32775	32813	
436	0	32836	32855	
437	0	32746	32826	
438	0	32784	32772	
439	0	32790	32739	
440	0	32768	32742	
441	0	32774	32863	
442	0	32804	32775	
443	0	32841	32882	
444	0	32781	32803	
445	0	32809	32693	
446	0	32816	32720	
447	0	32784	32760	
448	0	32741	32869	
449	0	32872	32860	
450	0	32813	32866	
451	0	32790	32820	
452	0	32800	32824	
453	0	32768	32711	
454	0	32752	32747	
455	0	32775	32767	
456	0	32848	32830	
457	0	32754	32899	
458	0	32748	32846	
459	0	32792	32743	
460	0	32788	32827	
461	0	32758	32828	
462	0	32708	32831	
463	0	32736	32762	
464	0	32848	32784	
465	0	32814	32677	
466	0	32802	32869	
467	0	32748	32876	
468	0	32837	32799	
469	0	32778	32694	
470	0	32784	32674	
471	0	32848	32775	
472	0	32826	32809	
473	0	32890	32811	
474	0	32821	32810	
475	0	32849	32668	
476	0	32784	32738	
477	0	32728	32799	
478	0	32752	32921	
479	0	32758	32806	
480	0	32784	32790	
481	0	32796	32828	
482	0	32740	32773	
483	0	32738	32738	
484	0	32756	32771	
485	0	32788	32851	
486	0	32768	32853	
487	0	32802	32840	
488	0	32802	32857	
489	0	32864	32756	
490	0	32868	32801	
491	0	32786	32704	
492	0	32860	32796	
493	0	32858	32758	
494	0	32754	32863	
495	0	32816	32857	
496	0	32824	32898	
497	0	32786	32813	
498	0	32780	32833	
499	0	32796	32823	
500	0	32746	32812	
501	0	32768	32807	
502	0	32729	32805	
503	0	32798	32799	
504	0	32800	32775	
505	0	32722	32685	
506	0	32805	32738	
507	0	32797	32721	
508	0	32837	32729	
509	0	32816	32802	
510	0	32860	32844	
511	0	32813	32858	
512	0	32714	32775	
513	0	32829	32799	
514	0	32799	32774	
515	0	32760	32869	
516	0	32844	32843	
517	0	32744	32723	
518	0	32768	32803	
519	0	32762	32729	
520	0	32804	32706	
521	0	32738	32806	
522	0	32796	32695	
523	0	32776	32792	
524	0	32758	32775	
525	0	32836	32760	
526	0	32780	32807	
527	0	32816	32836	
528	0	32948	32773	
529	0	32852	32831	
530	0	32800	32807	
531	0	32765	32676	
532	0	32796	32735	
533	0	32742	32775	
534	0	32860	32857	
535	0	32824	32865	
536	0	32753	32836	
537	0	32804	32818	
538	0	32720	32815	
539	0	32797	32744	
540	0	32752	32775	
541	0	32730	32674	
542	0	32768	32737	
543	0	32784	32762	
544	0	32724	32795	
545	0	32840	32774	
546	0	32837	32829	
547	0	32770	32827	
548	0	32832	32882	
549	0	32832	32801	
550	0	32782	32850	
551	0	32858	32894	
552	0	32844	32848	
553	0	32797	32784	
554	0	32782	32756	
555	0	32825	32837	
556	0	32805	32761	
557	0	32794	32775	
558	0	32738	32769	
559	0	32840	32846	
560	0	32809	32745	
561	0	32740	32748	
562	0	32860	32742	
563	0	32792	32722	
564	0	32781	32731	
565	0	32844	32866	
566	0	32856	32846	
567	0	32740	32797	
568	0	32781	32775	
569	0	32792	32727	
570	0	32888	32816	
571	0	32720	32811	
572	0	32765	32859	
573	0	32820	32846	
574	0	32840	32773	
575	0	32820	32767	
576	0	32720	32858	
577	0	32741	32833	
578	0	32812	32855	
579	0	32836	32849	
580	0	32736	32831	
581	0	32784	32808	
582	0	32728	32819	
583	0	32760	32839	
584	0	32742	32807	
585	0	32856	32775	
586	0	32800	32730	
587	0	32790	32765	
588	0	32844	32711	
589	0	32832	32809	
590	0	32846	32747	
591	0	32850	32775	
592	0	32784	32827	
593	0	32813	32898	
594	0	32775	32861	
595	0	32856	32748	
596	0	32780	32820	
597	0	32774	32854	
598	0	32818	32745	
599	0	32824	32710	
600	0	32762	32821	
601	0	32758	32826	
602	0	32680	32802	
603	0	32842	32736	
604	0	32792	32769	
605	0	32750	32848	
606	0	32816	32755	
607	0	32800	32814	
608	0	32848	32775	
609	0	32826	32820	
610	0	32764	32749	
611	0	32816	32810	
612	0	32836	32852	
613	0	32804	32891	
614	0	32749	32770	
615	0	32789	32836	
616	0	32752	32884	
617	0	32793	32810	
618	0	32849	32824	
619	0	32744	32887	
620	0	32820	32839	
621	0	32830	32739	
622	0	32775	32787	
623	0	32706	32775	
624	0	32804	32772	
625	0	32792	32805	
626	0	32758	32863	
627	0	32786	32810	
628	0	32794	32775	
629	0	32820	32886	
630	0	32808	32820	
631	0	32752	32739	
632	0	32768	32748	
633	0	32814	32746	
634	0	32850	32735	
635	0	32840	32792	
636	0	32778	32847	
637	0	32876	32895	
638	0	32764	32854	
639	0	32800	32745	
640	0	32812	32831	
641	0	32775	32807	
642	0	32749	32729	
643	0	32775	32833	
644	0	32775	32816	
645	0	32902	32801	
646	0	32804	32828	
647	0	32787	32804	
648	0	32800	32694	
649	0	32812	32775	
650	0	32820	32802	
651	0	32766	32860	
652	0	32860	32775	
653	0	32775	32748	
654	0	32833	32711	
655	0	32818	32829	
656	0	32799	32864	
657	0	32780	32825	
658	0	32733	32796	
659	0	32785	32826	
660	0	32795	32647	
661	0	32758	32730	
662	0	32824	32829	
663	0	32812	32880	
664	0	32776	32791	
665	0	32756	32755	
666	0	32800	32786	
667	0	32762	32783	
668	0	32778	32735	
669	0	32830	32775	
670	0	32786	32800	
671	0	32804	32841	
672	0	32868	32789	
673	0	32836	32808	
674	0	32773	32847	
675	0	32790	32775	
676	0	32812	32821	
677	0	32724	32815	
678	0	32804	32832	
679	0	32739	32787	
680	0	32736	32820	
681	0	32782	32715	
682	0	32768	32699	
683	0	32792	32746	
684	0	32785	32681	
685	0	32836	32742	
686	0	32762	32865	
687	0	32766	32863	
688	0	32837	32834	
689	0	32840	32914	
690	0	32785	32797	
691	0	32868	32817	
692	0	32841	32863	
693	0	32829	32804	
694	0	32780	32822	
695	0	32802	32839	
696	0	32751	32786	
697	0	32773	32806	
698	0	32820	32787	
699	0	32764	32854	
700	0	32857	32800	
701	0	32760	32803	
702	0	32794	32786	
703	0	32825	32812	
704	0	32820	32839	
705	0	32834	32738	
706	0	32832	32704	
707	0	32786	32663	
708	0	32824	32808	
709	0	32762	32900	
710	0	32786	32824	
711	0	32800	32843	
712	0	32852	32797	
713	0	32782	32712	
714	0	32741	32773	
715	0	32840	32774	
716	0	32768	32833	
717	0	32790	32784	
718	0	32832	32807	
719	0	32744	32795	
720	0	32773	32746	
721	0	32720	32703	
722	0	32809	32732	
723	0	32784	32792	
724	0	32828	32818	
725	0	32796	32882	
726	0	32774	32796	
727	0	32756	32674	
728	0	32796	32838	
729	0	32797	32785	
730	0	32860	32877	
731	0	32768	32684	
732	0	32762	32715	
733	0	32850	32863	
734	0	32856	32809	
735	0	32808	32809	
736	0	32750	32723	
737	0	32764	32759	
738	0	32794	32742	
739	0	32795	32767	
740	0	32772	32843	
741	0	32761	32750	
742	0	32824	32861	
743	0	32756	32820	
744	0	32788	32839	
745	0	32784	32772	
746	0	32745	32809	
747	0	32797	32731	
748	0	32834	32709	
749	0	32785	32764	
750	0	32798	32762	
751	0	32774	32796	
752	0	32842	32838	
753	0	32724	32835	
754	0	32816	32831	
755	0	32852	32788	
756	0	32802	32821	
757	0	32817	32800	
758	0	32738	32827	
759	0	32777	32806	
760	0	32794	32748	
761	0	32716	32775	
762	0	32762	32704	
763	0	32832	32669	
764	0	32784	32791	
765	0	32805	32784	
766	0	32828	32916	
767	0	32820	32832	
768	0	32832	32905	
769	0	32836	32829	
770	0	32876	32843	
771	0	32778	32848	
772	0	32812	32848	
773	0	32806	32722	
774	0	32848	32692	
775	0	32748	32718	
776	0	32784	32816	
777	0	32745	32893	
778	0	32820	32834	
779	0	32788	32771	
780	0	32753	32766	
781	0	32824	32903	
782	0	32802	32769	
783	0	32844	32797	
784	0	32793	32813	
785	0	32773	32797	
786	0	32832	32707	
787	0	32760	32786	
788	0	32829	32754	
789	0	32788	32793	
790	0	32819	32739	
791	0	32804	32915	
792	0	32836	32882	
793	0	32836	32837	
794	0	32796	32839	
795	0	32780	32864	
796	0	32794	32857	
797	0	32754	32893	
798	0	32800	32884	
799	0	32816	32876	
800	0	32760	32864	
801	0	32775	32868	
802	0	32788	32807	
803	0	32836	32802	
804	0	32813	32823	
805	0	32782	32828	
806	0	32781	32903	
807	0	32778	32865	
808	0	32839	32794	
809	0	32819	32885	
810	0	32834	32784	
811	0	32808	32800	
812	0	32824	32861	
813	0	32836	32861	
814	0	32760	32820	
815	0	32775	32766	
816	0	32772	32807	
817	0	32800	32845	
818	0	32852	32837	
819	0	32779	32839	
820	0	32798	32696	
821	0	32771	32765	
822	0	32774	32728	
823	0	32716	32691	
824	0	32757	32726	
825	0	32834	32786	
826	0	32766	32703	
827	0	32854	32804	
828	0	32834	32812	
829	0	32788	32880	
830	0	32789	32873	
831	0	32817	32766	
832	0	32860	32817	
833	0	32827	32821	
834	0	32825	32806	
835	0	32816	32787	
836	0	32811	32773	
837	0	32712	32813	
838	0	32752	32690	
839	0	32730	32775	
840	0	32826	32819	
841	0	32776	32805	
842	0	32782	32874	
843	0	32768	32811	
844	0	32792	32756	
845	0	32827	32818	
846	0	32738	32886	
847	0	32760	32869	
848	0	32834	32818	
849	0	32804	32767	
850	0	32826	32859	
851	0	32832	32795	
852	0	32760	32876	
853	0	32804	32844	
854	0	32804	32846	
855	0	32785	32821	
856	0	32801	32788	
857	0	32817	32808	
858	0	32718	32855	
859	0	32736	32722	
860	0	32764	32722	
861	0	32760	32640	
862	0	32744	32769	
863	0	32800	32876	
864	0	32840	32847	
865	0	32780	32839	
866	0	32864	32899	
867	0	32802	32837	
868	0	32772	32788	
869	0	32805	32862	
870	0	32813	32854	
871	0	32836	32863	
872	0	32808	32863	
873	0	32861	32821	
874	0	32768	32844	
875	0	32784	32825	
876	0	32744	32867	
877	0	32740	32734	
878	0	32771	32678	
879	0	32752	32708	
880	0	32712	32785	
881	0	32824	32805	
882	0	32804	32748	
883	0	32792	32770	
884	0	32826	32824	
885	0	32792	32827	
886	0	32833	32789	
887	0	32816	32805	
888	0	32830	32842	
889	0	32846	32903	
890	0	32785	32810	
891	0	32766	32735	
892	0	32796	32828	
893	0	32800	32790	
894	0	32792	32803	
895	0	32828	32748	
896	0	32768	32785	
897	0	32813	32812	
898	0	32809	32821	
899	0	32732	32740	
900	0	32804	32833	
901	0	32773	32715	
902	0	32736	32754	
903	0	32829	32691	
904	0	32750	32730	
905	0	32792	32813	
906	0	32772	32792	
907	0	32769	32854	
908	0	32816	32921	
909	0	32829	32784	
910	0	32812	32750	
911	0	32812	32762	
912	0	32846	32889	
913	0	32832	32787	
914	0	32816	32858	
915	0	32776	32731	
916	0	32790	32759	
917	0	32804	32740	
918	0	32800	32868	
919	0	32722	32839	
920	0	32796	32861	
921	0	32788	32726	
922	0	32852	32702	
923	0	32752	32740	
924	0	32826	32795	
925	0	32808	32866	
926	0	32796	32800	
927	0	32775	32846	
928	0	32826	32820	
929	0	32861	32726	
930	0	32826	32800	
931	0	32808	32890	
932	0	32750	32839	
933	0	32806	32771	
934	0	32762	32797	
935	0	32865	32824	
936	0	32808	32838	
937	0	32740	32713	
938	0	32778	32817	
939	0	32744	32847	
940	0	32804	32829	
941	0	32795	32750	
942	0	32740	32751	
943	0	32818	32843	
944	0	32792	32789	
945	0	32843	32775	
946	0	32820	32732	
947	0	32792	32682	
948	0	32848	32866	
949	0	32740	32849	
950	0	32792	32788	
951	0	32854	32839	
952	0	32786	32826	
953	0	32836	32769	
954	0	32824	32775	
955	0	32794	32834	
956	0	32712	32751	
957	0	32789	32891	
958	0	32725	32841	
959	0	32764	32743	
960	0	32802	32896	
961	0	32804	32864	
962	0	32776	32674	
963	0	32800	32740	
964	0	32748	32876	
965	0	32819	32834	
966	0	32740	32793	
967	0	32804	32859	
968	0	32904	32751	
969	0	32818	32763	
970	0	32808	32844	
971	0	32836	32839	
972	0	32766	32804	
973	0	32816	32805	
974	0	32756	32735	
975	0	32820	32742	
976	0	32775	32895	
977	0	32826	32834	
978	0	32836	32775	
979	0	32736	32687	
980	0	32790	32857	
981	0	32748	32884	
982	0	32768	32816	
983	0	32780	32851	
984	0	32797	32685	
985	0	32744	32742	
986	0	32848	32794	
987	0	32865	32813	
988	0	32793	32829	
989	0	32824	32818	
990	0	32818	32711	
991	0	32750	32738	
992	0	32832	32763	
993	0	32775	32771	
994	0	32826	32824	
995	0	32764	32895	
996	0	32752	32863	
997	0	32722	32818	
998	0	32764	32622	
999	0	32772	32816	
1000	0	32834	32799	
1001	0	32740	32804	
1002	0	32775	32740	
1003	0	32893	32794	
1004	0	32792	32886	
1005	0	32801	32832	
1006	0	32824	32829	
1007	0	32788	32704	
1008	0	32810	32744	
1009	0	32816	32807	
1010	0	32861	32863	
1011	0	32724	32826	
1012	0	32764	32763	
1013	0	32817	32743	
1014	0	32793	32773	
1015	0	32793	32831	
1016	0	32758	32813	
1017	0	32800	32876	
1018	0	32784	32775	
1019	0	32796	32708	
1020	0	32792	32734	
1021	0	32778	32713	
1022	0	32738	32831	
1023	0	32809	32866	
1024	0	32830	32809	
1025	0	32800	32824	
1026	0	32792	32812	
1027	0	32864	32812	
1028	0	32740	32731	
1029	0	32856	32704	
1030	0	32822	32786	
1031	0	32808	32796	
1032	0	32844	32784	
1033	0	32802	32868	
1034	0	32760	32764	
1035	0	32733	32718	
1036	0	32856	32742	
1037	0	32873	32841	
1038	0	32699	32831	
1039	0	32793	32736	
1040	0	32742	32712	
1041	0	32770	32791	
1042	0	32768	32775	
1043	0	32840	32882	
1044	0	32848	32829	
1045	0	32804	32846	
1046	0	32768	32731	
1047	0	32834	32712	
1048	0	32834	32707	
1049	0	32804	32738	
1050	0	32762	32882	
1051	0	32786	32839	
1052	0	32808	32795	
1053	0	32799	32718	
1054	0	32801	32752	
1055	0	32760	32836	
1056	0	32788	32773	
1057	0	32825	32848	
1058	0	32800	32741	
1059	0	32746	32733	
1060	0	32788	32769	
1061	0	32824	32829	
1062	0	32736	32831	
1063	0	32732	32755	
1064	0	32775	32750	
1065	0	32840	32756	
1066	0	32852	32717	
1067	0	32770	32843	
1068	0	32765	32841	
1069	0	32801	32807	
1070	0	32836	32745	
1071	0	32784	32816	
1072	0	32825	32727	
1073	0	32812	32813	
1074	0	32828	32766	
1075	0	32762	32857	
1076	0	32826	32775	
1077	0	32792	32761	
1078	0	32804	32859	
1079	0	32756	32820	
1080	0	32740	32832	
1081	0	32774	32814	
1082	0	32814	32710	
1083	0	32833	32738	
1084	0	32820	32874	
1085	0	32749	32910	
1086	0	32782	32774	
1087	0	32805	32784	
1088	0	32784	32731	
1089	0	32842	32799	
1090	0	32840	32869	
1091	0	32754	32870	
1092	0	32836	32804	
1093	0	32797	32651	
1094	0	32760	32824	
1095	0	32816	32871	
1096	0	32756	32911	
1097	0	32800	32861	
1098	0	32772	32830	
1099	0	32770	32847	
1100	0	32716	32802	
1101	0	32775	32713	
1102	0	32750	32741	
1103	0	32762	32786	
1104	0	32785	32854	
1105	0	32849	32738	
1106	0	32833	32752	
1107	0	32814	32717	
1108	0	32848	32849	
1109	0	32789	32830	
1110	0	32808	32809	
1111	0	32736	32808	
1112	0	32768	32784	
1113	0	32845	32707	
1114	0	32806	32867	
1115	0	32745	32834	
1116	0	32733	32851	
1117	0	32788	32800	
1118	0	32788	32734	
1119	0	32733	32740	
1120	0	32808	32724	
1121	0	32825	32694	
1122	0	32720	32848	
1123	0	32792	32859	
1124	0	32840	32834	
1125	0	32856	32775	
1126	0	32754	32812	
1127	0	32812	32774	
1128	0	32750	32720	
1129	0	32826	32806	
1130	0	32851	32821	
1131	0	32880	32842	
1132	0	32744	32754	
1133	0	32866	32741	
1134	0	32873	32837	
1135	0	32766	32773	
1136	0	32716	32811	
1137	0	32799	32862	
1138	0	32802	32827	
1139	0	32744	32753	
1140	0	32768	32713	
1141	0	32736	32873	
1142	0	32791	32848	
1143	0	32832	32809	
1144	0	32800	32701	
1145	0	32744	32775	
1146	0	32808	32951	
1147	0	32793	32804	
1148	0	32872	32775	
1149	0	32865	32744	
1150	0	32788	32730	
1151	0	32808	32799	
1152	0	32748	32775	
1153	0	32780	32850	
1154	0	32834	32692	
1155	0	32794	32829	
1156	0	32792	32855	
1157	0	32808	32815	
1158	0	32832	32784	
1159	0	32744	32757	
1160	0	32772	32814	
1161	0	32820	32808	
1162	0	32743	32886	
1163	0	32851	32728	
1164	0	32800	32701	
1165	0	32808	32850	
1166	0	32780	32839	
1167	0	32794	32707	
1168	0	32779	32845	
1169	0	32775	32799	
1170	0	32882	32831	
1171	0	32858	32688	
1172	0	32759	32812	
1173	0	32796	32827	
1174	0	32753	32832	
1175	0	32775	32786	
1176	0	32811	32873	
1177	0	32732	32916	
1178	0	32792	32775	
1179	0	32784	32788	
1180	0	32805	32736	
1181	0	32763	32707	
1182	0	32783	32775	
1183	0	32738	32850	
1184	0	32754	32819	
1185	0	32732	32813	
1186	0	32825	32797	
1187	0	32800	32848	
1188	0	32809	32671	
1189	0	32848	32751	
1190	0	32775	32864	
1191	0	32812	32876	
1192	0	32770	32797	
1193	0	32788	32813	
1194	0	32756	32759	
1195	0	32808	32905	
1196	0	32720	32872	
1197	0	32752	32832	
1198	0	32756	32861	
1199	0	32764	32805	
1200	0	32744	32856	
1201	0	32752	32850	
1202	0	32784	32812	
1203	0	32760	32828	
1204	0	32796	32825	
1205	0	32764	32702	
1206	0	32750	32683	
1207	0	32783	32767	
1208	0	32843	32828	
1209	0	32812	32813	
1210	0	32884	32810	
1211	0	32829	32758	
1212	0	32826	32747	
1213	0	32858	32737	
1214	0	32904	32642	
1215	0	32912	32603	
1216	0	32945	32654	
1217	0	32897	32676	
1218	0	32914	32598	
1219	0	32888	32624	
1220	0	32940	32668	
1221	0	32917	32705	
1222	0	32836	32684	
1223	0	32848	32858	
1224	0	32780	32841	
1225	0	32780	32803	
1226	0	32732	32810	
1227	0	32676	32842	
1228	0	32656	32938	
1229	0	32706	32938	
1230	0	32650	32860	
1231	0	32704	32927	
1232	0	32636	32897	
1233	0	32723	32903	
1234	0	32682	32973	
1235	0	32673	33119	
1236	0	32612	33099	
1237	0	32560	33089	
1238	0	32594	33115	
1239	0	32672	33052	
1240	0	32712	33095	
1241	0	32672	33050	
1242	0	32722	32992	
1243	0	32750	32876	
1244	0	32844	32737	
1245	0	32844	32924	
1246	0	32770	32836	
1247	0	32804	32740	
1248	0	32857	32747	
1249	0	32800	32815	
1250	0	32840	32696	
1251	0	32790	32707	
1252	0	32920	32663	
1253	0	32888	32647	
1254	0	32832	32742	
1255	0	32876	32697	
1256	0	32834	32739	
1257	0	32809	32637	
1258	0	32873	32708	
1259	0	32825	32729	
1260	0	32900	32695	
1261	0	32816	32647	
1262	0	32780	32679	
1263	0	32868	32795	
1264	0	32832	32804	
1265	0	32800	32741	
1266	0	32816	32719	
1267	0	32852	32715	
1268	0	32800	32760	
1269	0	32826	32823	
1270	0	32823	32804	
1271	0	32784	32742	
1272	0	32744	32775	
1273	0	32782	32891	
1274	0	32756	32888	
1275	0	32812	32754	
1276	0	32770	32845	
1277	0	32836	32742	
1278	0	32736	32716	
1279	0	32804	32760	
1280	0	32750	32840	
1281	0	32839	32875	
1282	0	32766	32729	
1283	0	32817	32886	
1284	0	32798	32775	
1285	0	32818	32763	
1286	0	32812	32806	
1287	0	32824	32820	
1288	0	32797	32848	
1289	0	32812	32743	
1290	0	32818	32699	
1291	0	32810	32895	
1292	0	32856	32816	
1293	0	32813	32775	
1294	0	32805	32714	
1295	0	32777	32795	
1296	0	32796	32849	
1297	0	32728	32739	
1298	0	32796	32858	
1299	0	32793	32744	
1300	0	32753	32903	
1301	0	32796	32809	
1302	0	32747	32799	
1303	0	32790	32789	
1304	0	32846	32704	
1305	0	32738	32833	
1306	0	32768	32858	
1307	0	32860	32813	
1308	0	32830	32756	
1309	0	32766	32659	
1310	0	32796	32703	
1311	0	32850	32818	
1312	0	32775	32844	
1313	0	32790	32809	
1314	0	32856	32825	
1315	0	32781	32823	
1316	0	32732	32759	
1317	0	32741	32674	
1318	0	32706	32797	
1319	0	32784	32815	
1320	0	32769	32847	
1321	0	32762	32775	
1322	0	32792	32804	
1323	0	32840	32805	
1324	0	32796	32734	
1325	0	32820	32703	
1326	0	32809	32789	
1327	0	32820	32820	
1328	0	32844	32842	
1329	0	32849	32784	
1330	0	32801	32870	
1331	0	32839	32770	
1332	0	32828	32706	
1333	0	32848	32752	
1334	0	32746	32864	
1335	0	32752	32854	
1336	0	32772	32816	
1337	0	32812	32817	
1338	0	32740	32890	
1339	0	32751	32792	
1340	0	32706	32871	
1341	0	32824	32773	
1342	0	32811	32727	
1343	0	32808	32670	
1344	0	32776	32824	
1345	0	32805	32831	
1346	0	32796	32838	
1347	0	32834	32877	
1348	0	32840	32724	
1349	0	32792	32705	
1350	0	32751	32802	
1351	0	32794	32899	
1352	0	32870	32775	
1353	0	32753	32784	
1354	0	32817	32676	
1355	0	32744	32805	
1356	0	32771	32836	
1357	0	32724	32864	
1358	0	32710	32868	
1359	0	32858	32794	
1360	0	32749	32782	
1361	0	32747	32700	
1362	0	32792	32837	
1363	0	32741	32834	
1364	0	32810	32916	
1365	0	32820	32784	
1366	0	32820	32775	
1367	0	32906	32732	
1368	0	32827	32732	
1369	0	32792	32875	
1370	0	32768	32765	
1371	0	32832	32810	
1372	0	32811	32719	
1373	0	32824	32736	
1374	0	32802	32852	
1375	0	32802	32870	
1376	0	32828	32759	
1377	0	32777	32861	
1378	0	32726	32862	
1379	0	32750	32728	
1380	0	32777	32744	
1381	0	32781	32855	
1382	0	32744	32868	
1383	0	32761	32816	
1384	0	32768	32768	
1385	0	32818	32836	
1386	0	32852	32864	
1387	0	32832	32707	
1388	0	32872	32701	
1389	0	32804	32720	
1390	0	32844	32794	
1391	0	32821	32852	
1392	0	32916	32805	
1393	0	32766	32746	
1394	0	32812	32775	
1395	0	32736	32829	
1396	0	32752	32819	
1397	0	32853	32774	
1398	0	32775	32854	
1399	0	32792	32714	
1400	0	32758	32814	
1401	0	32840	32832	
1402	0	32708	32802	
1403	0	32749	32790	
1404	0	32784	32868	
1405	0	32802	32772	
1406	0	32725	32662	
1407	0	32797	32730	
1408	0	32832	32733	
1409	0	32864	32794	
1410	0	32840	32937	
1411	0	32802	32796	
1412	0	32756	32743	
1413	0	32832	32794	
1414	0	32774	32858	
1415	0	32804	32827	
1416	0	32866	32835	
1417	0	32776	32808	
1418	0	32768	32775	
1419	0	32754	32686	
1420	0	32748	32690	
1421	0	32822	32837	
1422	0	32749	32759	
1423	0	32810	32832	
1424	0	32824	32782	
1425	0	32793	32703	
1426	0	32760	32838	
1427	0	32848	32820	
1428	0	32748	32818	
1429	0	32812	32854	
1430	0	32829	32822	
1431	0	32788	32788	
1432	0	32809	32772	
1433	0	32764	32799	
1434	0	32828	32815	
1435	0	32797	32857	
1436	0	32772	32871	
1437	0	32804	32820	
1438	0	32785	32835	
1439	0	32715	32722	
1440	0	32786	32761	
1441	0	32772	32764	
1442	0	32741	32727	
1443	0	32796	32807	
1444	0	32828	32824	
1445	0	32801	32854	
1446	0	32766	32758	
1447	0	32792	32787	
1448	0	32818	32835	
1449	0	32781	32775	
1450	0	32829	32711	
1451	0	32816	32827	
1452	0	32816	32817	
1453	0	32836	32856	
1454	0	32775	32879	
1455	0	32788	32816	
1456	0	32848	32764	
1457	0	32750	32752	
1458	0	32765	32765	
1459	0	32743	32738	
1460	0	32832	32784	
1461	0	32821	32775	
1462	0	32756	32888	
1463	0	32742	32815	
1464	0	32750	32857	
1465	0	32814	32800	
1466	0	32745	32714	
1467	0	32806	32671	
1468	0	32730	32859	
1469	0	32833	32883	
1470	0	32819	32805	
1471	0	32768	32884	
1472	0	32788	32903	
1473	0	32800	32883	
1474	0	32802	32889	
1475	0	32824	32843	
1476	0	32762	32835	
1477	0	32800	32770	
1478	0	32796	32809	
1479	0	32807	32764	
1480	0	32771	32698	
1481	0	32764	32827	
1482	0	32792	32817	
1483	0	32838	32896	
1484	0	32828	32815	
1485	0	32708	32767	
1486	0	32832	32773	
1487	0	32800	32758	
1488	0	32765	32765	
1489	0	32844	32775	
1490	0	32844	32715	
1491	0	32782	32774	
1492	0	32804	32876	
1493	0	32775	32836	
1494	0	32768	32850	
1495	0	32809	32907	
1496	0	32764	32848	
1497	0	32718	32754	
1498	0	32789	32760	
1499	0	32832	32775	
1500	0	32731	32848	
1501	0	32770	32754	
1502	0	32800	32805	
1503	0	32772	32867	
1504	0	32748	32840	
1505	0	32873	32803	
1506	0	32821	32775	
1507	0	32828	32839	
1508	0	32840	32861	
1509	0	32824	32699	
1510	0	32788	32770	
1511	0	32796	32827	
1512	0	32796	32831	
1513	0	32854	32880	
1514	0	32834	32821	
1515	0	32788	32818	
1516	0	32824	32726	
1517	0	32712	32806	
1518	0	32876	32909	
1519	0	32796	32775	
1520	0	32736	32734	
1521	0	32742	32764	
1522	0	32812	32900	
1523	0	32844	32856	
1524	0	32812	32832	
1525	0	32754	32844	
1526	0	32796	32700	
1527	0	32804	32699	
1528	0	32820	32768	
1529	0	32838	32807	
1530	0	32844	32809	
1531	0	32823	32775	
1532	0	32828	32887	
1533	0	32794	32758	
1534	0	32773	32786	
1535	0	32819	32902	
1536	0	32752	32839	
1537	0	32761	32893	
1538	0	32818	32755	
1539	0	32804	32807	
1540	0	32794	32787	
1541	0	32760	32803	
1542	0	32762	32733	
1543	0	32788	32766	
1544	0	32870	32702	
1545	0	32796	32763	
1546	0	32782	32800	
1547	0	32852	32820	
1548	0	32832	32814	
1549	0	32786	32871	
1550	0	32798	32727	
1551	0	32818	32765	
1552	0	32790	32733	
1553	0	32784	32880	
1554	0	32782	32740	
1555	0	32824	32711	
1556	0	32745	32725	
1557	0	32801	32714	
1558	0	32850	32875	
1559	0	32760	32969	
1560	0	32728	32948	
1561	0	32748	32973	
1562	0	32788	32887	
1563	0	32813	32796	
1564	0	32774	32605	
1565	0	32848	32711	
1566	0	32754	32720	
1567	0	32840	32763	
1568	0	32812	32772	
1569	0	32816	32785	
1570	0	32809	32717	
1571	0	32822	32770	
1572	0	32825	32890	
1573	0	32828	32771	
1574	0	32817	32694	
1575	0	32752	32690	
1576	0	32836	32829	
1577	0	32784	32811	
1578	0	32860	32775	
1579	0	32808	32844	
1580	0	32852	32793	
1581	0	32780	32719	
1582	0	32819	32807	
1583	0	32820	32832	
1584	0	32756	32825	
1585	0	32804	32775	
1586	0	32842	32832	
1587	0	32816	32718	
1588	0	32820	32730	
1589	0	32792	32770	
1590	0	32788	32754	
1591	0	32914	32734	
1592	0	32773	32962	
1593	0	32804	32832	
1594	0	32750	32807	
1595	0	32756	32813	
1596	0	32744	32835	
1597	0	32826	32837	
1598	0	32845	32754	
1599	0	32784	32711	
1600	0	32792	32722	
1601	0	32712	32817	
1602	0	32820	32799	
1603	0	32808	32840	
1604	0	32834	32797	
1605	0	32800	32751	
1606	0	32792	32819	
1607	0	32852	32851	
1608	0	32790	32743	
1609	0	32809	32762	
1610	0	32786	32826	
1611	0	32756	32720	
1612	0	32834	32773	
1613	0	32802	32771	
1614	0	32800	32736	
1615	0	32752	32744	
1616	0	32788	32810	
1617	0	32772	32882	
1618	0	32749	32818	
1619	0	32800	32894	
1620	0	32756	32830	
1621	0	32758	32713	
1622	0	32849	32744	
1623	0	32820	32728	
1624	0	32781	32797	
1625	0	32815	32886	
1626	0	32788	32740	
1627	0	32810	32826	
1628	0	32754	32792	
1629	0	32862	32797	
1630	0	32840	32757	
1631	0	32836	32829	
1632	0	32810	32745	
1633	0	32792	32811	
1634	0	32796	32790	
1635	0	32728	32848	
1636	0	32792	32754	
1637	0	32775	32811	
1638	0	32816	32784	
1639	0	32816	32732	
1640	0	32784	32743	
1641	0	32758	32731	
1642	0	32793	32742	
1643	0	32820	32766	
1644	0	32840	32740	
1645	0	32788	32846	
1646	0	32800	32882	
1647	0	32852	32858	
1648	0	32790	32841	
1649	0	32868	32832	
1650	0	32800	32763	
1651	0	32850	32748	
1652	0	32788	32716	
1653	0	32816	32757	
1654	0	32796	32823	
1655	0	32736	32822	
1656	0	32784	32829	
1657	0	32740	32764	
1658	0	32790	32769	
1659	0	32766	32855	
1660	0	32770	32840	
1661	0	32700	32775	
1662	0	32750	32882	
1663	0	32814	32769	
1664	0	32760	32715	
1665	0	32775	32732	
1666	0	32832	32795	
1667	0	32862	32816	
1668	0	32844	32815	
1669	0	32844	32903	
1670	0	32816	32842	
1671	0	32820	32804	
1672	0	32856	32797	
1673	0	32805	32775	
1674	0	32818	32812	
1675	0	32720	32839	
1676	0	32812	32806	
1677	0	32824	32771	
1678	0	32793	32826	
1679	0	32726	32815	
1680	0	32808	32745	
1681	0	32793	32809	
1682	0	32748	32806	
1683	0	32866	32884	
1684	0	32780	32775	
1685	0	32797	32819	
1686	0	32734	32868	
1687	0	32736	32825	
1688	0	32818	32715	
1689	0	32808	32761	
1690	0	32804	32691	
1691	0	32827	32724	
1692	0	32775	32840	
1693	0	32813	32756	
1694	0	32792	32852	
1695	0	32784	32839	
1696	0	32768	32784	
1697	0	32868	32818	
1698	0	32842	32886	
1699	0	32729	32714	
1700	0	32820	32690	
1701	0	32784	32824	
1702	0	32784	32850	
1703	0	32736	32767	
1704	0	32756	32722	
1705	0	32820	32827	
1706	0	32797	32808	
1707	0	32808	32788	
1708	0	32816	32747	
1709	0	32840	32884	
1710	0	32756	32818	
1711	0	32812	32690	
1712	0	32764	32787	
1713	0	32850	32875	
1714	0	32782	32870	
1715	0	32760	32764	
1716	0	32812	32844	
1717	0	32820	32842	
1718	0	32720	32749	
1719	0	32741	32836	
1720	0	32772	32825	
1721	0	32780	32701	
1722	0	32793	32775	
1723	0	32792	32870	
1724	0	32775	32813	
1725	0	32844	32757	
1726	0	32808	32837	
1727	0	32780	32842	
1728	0	32824	32786	
1729	0	32832	32800	
1730	0	32824	32694	
1731	0	32833	32801	
1732	0	32846	32819	
1733	0	32756	32839	
1734	0	32858	32828	
1735	0	32712	32813	
1736	0	32758	32813	
1737	0	32747	32733	
1738	0	32754	32706	
1739	0	32755	32775	
1740	0	32800	32824	
1741	0	32744	32902	
1742	0	32804	32808	
1743	0	32833	32789	
1744	0	32786	32740	
1745	0	32762	32733	
1746	0	32882	32775	
1747	0	32870	32706	
1748	0	32836	32830	
1749	0	32820	32859	
1750	0	32834	32834	
1751	0	32812	32835	
1752	0	32796	32840	
1753	0	32811	32770	
1754	0	32775	32734	
1755	0	32848	32773	
1756	0	32758	32741	
1757	0	32800	32888	
1758	0	32775	32818	
1759	0	32794	32794	
1760	0	32823	32836	
1761	0	32664	32724	
1762	0	32775	32704	
1763	0	32769	32758	
1764	0	32741	32908	
1765	0	32760	32875	
1766	0	32838	32818	
1767	0	32800	32872	
1768	0	32753	32757	
1769	0	32828	32807	
1770	0	32794	32864	
1771	0	32869	32650	
1772	0	32737	32791	
1773	0	32690	32876	
1774	0	32722	32894	
1775	0	32816	32853	
1776	0	32826	32758	
1777	0	32785	32716	
1778	0	32728	32753	
1779	0	32816	32730	
1780	0	32736	32954	
1781	0	32784	32813	
1782	0	32794	32775	
1783	0	32768	32754	
1784	0	32744	32676	
1785	0	32864	32754	
1786	0	32858	32752	
1787	0	32769	32886	
1788	0	32756	32845	
1789	0	32762	32839	
1790	0	32820	32794	
1791	0	32866	32711	
1792	0	32796	32707	
1793	0	32740	32800	
1794	0	32799	32805	
1795	0	32716	32805	
1796	0	32772	32931	
1797	0	32736	32882	
1798	0	32764	32858	
1799	0	32764	32838	
1800	0	32813	32784	
1801	0	32724	32692	
1802	0	32778	32718	
1803	0	32736	32835	
1804	0	32821	32853	
1805	0	32832	32788	
1806	0	32744	32789	
1807	0	32808	32784	
1808	0	32834	32728	
1809	0	32832	32686	
1810	0	32786	32748	
1811	0	32787	32848	
1812	0	32808	32797	
1813	0	32786	32820	
1814	0	32816	32862	
1815	0	32768	32845	
1816	0	32738	32824	
1817	0	32831	32808	
1818	0	32780	32888	
1819	0	32769	32817	
1820	0	32760	32870	
1821	0	32879	32824	
1822	0	32852	32784	
1823	0	32796	32784	
1824	0	32813	32784	
1825	0	32736	32754	
1826	0	32768	32713	
1827	0	32861	32752	
1828	0	32828	32870	
1829	0	32774	32919	
1830	0	32854	32816	
1831	0	32820	32771	
1832	0	32790	32867	
1833	0	32836	32837	
1834	0	32808	32826	
1835	0	32762	32773	
1836	0	32775	32750	
1837	0	32730	32706	
1838	0	32764	32763	
1839	0	32758	32760	
1840	0	32804	32796	
1841	0	32710	32850	
1842	0	32821	32829	
1843	0	32846	32808	
1844	0	32808	32736	
1845	0	32786	32694	
1846	0	32816	32802	
1847	0	32755	32786	
1848	0	32872	32805	
1849	0	32774	32662	
1850	0	32788	32804	
1851	0	32788	32886	
1852	0	32797	32799	
1853	0	32766	32742	
1854	0	32752	32826	
1855	0	32710	32730	
1856	0	32840	32863	
1857	0	32828	32830	
1858	0	32733	32815	
1859	0	32801	32844	
1860	0	32748	32748	
1861	0	32775	32821	
1862	0	32752	32769	
1863	0	32738	32775	
1864	0	32804	32793	
1865	0	32850	32868	
1866	0	32818	32755	
1867	0	32872	32768	
1868	0	32829	32799	
1869	0	32848	32807	
1870	0	32776	32806	
1871	0	32827	32819	
1872	0	32788	32805	
1873	0	32776	32821	
1874	0	32775	32742	
1875	0	32792	32729	
1876	0	32817	32869	
1877	0	32764	32856	
1878	0	32732	32825	
1879	0	32748	32789	
1880	0	32730	32674	
1881	0	32792	32861	
1882	0	32745	32797	
1883	0	32812	32772	
1884	0	32788	32795	
1885	0	32818	32775	
1886	0	32824	32736	
1887	0	32786	32844	
1888	0	32800	32907	
1889	0	32821	32766	
1890	0	32796	32741	
1891	0	32856	32775	
1892	0	32752	32826	
1893	0	32797	32830	
1894	0	32796	32809	
1895	0	32788	32818	
1896	0	32816	32820	
1897	0	32820	32798	
1898	0	32793	32763	
1899	0	32852	32669	
1900	0	32796	32723	
1901	0	32841	32879	
1902	0	32751	32868	
1903	0	32781	32868	
1904	0	32810	32773	
1905	0	32848	32822	
1906	0	32806	32770	
1907	0	32837	32782	
1908	0	32764	32750	
1909	0	32818	32723	
1910	0	32812	32769	
1911	0	32793	32775	
1912	0	32793	32847	
1913	0	32792	32799	
1914	0	32812	32767	
1915	0	32774	32787	
1916	0	32648	32893	
1917	0	32752	32862	
1918	0	32788	32842	
1919	0	32786	32769	
1920	0	32726	32771	
1921	0	32780	32763	
1922	0	32756	32775	
1923	0	32762	32813	
1924	0	32848	32876	
1925	0	32896	32800	
1926	0	32784	32791	
1927	0	32773	32763	
1928	0	32805	32720	
1929	0	32856	32824	
1930	0	32775	32820	
1931	0	32808	32805	
1932	0	32838	32817	
1933	0	32764	32674	
1934	0	32788	32808	
1935	0	32792	32844	
1936	0	32758	32850	
1937	0	32746	32784	
1938	0	32760	32757	
1939	0	32765	32685	
1940	0	32828	32826	
1941	0	32800	32897	
1942	0	32792	32749	
1943	0	32744	32752	
1944	0	32835	32741	
1945	0	32840	32715	
1946	0	32829	32687	
1947	0	32808	32759	
1948	0	32804	32911	
1949	0	32752	32829	
1950	0	32850	32864	
1951	0	32820	32810	
1952	0	32806	32843	
1953	0	32750	32739	
1954	0	32804	32688	
1955	0	32804	32866	
1956	0	32880	32849	
1957	0	32760	32855	
1958	0	32768	32713	
1959	0	32805	32796	
1960	0	32756	32801	
1961	0	32796	32764	
1962	0	32773	32728	
1963	0	32768	32775	
1964	0	32840	32855	
1965	0	32912	32787	
1966	0	32828	32790	
1967	0	32796	32827	
1968	0	32788	32744	
1969	0	32780	32765	
1970	0	32824	32893	
1971	0	32836	32850	
1972	0	32752	32825	
1973	0	32782	32784	
1974	0	32732	32726	
1975	0	32775	32761	
1976	0	32745	32790	
1977	0	32718	32842	
1978	0	32799	32902	
1979	0	32720	32826	
1980	0	32743	32765	
1981	0	32808	32720	
1982	0	32780	32751	
1983	0	32844	32865	
1984	0	32727	32822	
1985	0	32795	32784	
1986	0	32834	32790	
1987	0	32800	32740	
1988	0	32855	32702	
1989	0	32824	32751	
1990	0	32804	32816	
1991	0	32836	32812	
1992	0	32820	32813	
1993	0	32764	32785	
1994	0	32866	32827	
1995	0	32756	32740	
1996	0	32750	32698	
1997	0	32816	32786	
1998	0	32752	32793	
1999	0	32809	32842	
2000	0	32780	32775	
2001	0	32792	32809	
2002	0	32866	32813	
2003	0	32804	32748	
2004	0	32818	32818	
2005	0	32854	32835	
2006	0	32792	32896	
2007	0	32760	32811	
2008	0	32771	32838	
2009	0	32836	32745	
2010	0	32796	32775	
2011	0	32854	32865	
2012	0	32777	32834	
2013	0	32752	32759	
2014	0	32805	32797	
2015	0	32812	32832	
2016	0	32806	32787	
2017	0	32854	32739	
2018	0	32740	32706	
2019	0	32784	32769	
2020	0	32780	32855	
2021	0	32728	32812	
2022	0	32824	32865	
2023	0	32746	32808	
2024	0	32738	32721	
2025	0	32836	32822	
2026	0	32768	32773	
2027	0	32796	32791	
2028	0	32797	32806	
2029	0	32836	32714	
2030	0	32848	32715	
2031	0	32846	32772	
2032	0	32768	32761	
2033	0	32809	32827	
2034	0	32868	32820	
2035	0	32754	32879	
2036	0	32779	32834	
2037	0	32768	32863	
2038	0	32793	32748	
2039	0	32774	32694	
2040	0	32726	32823	
2041	0	32754	32840	
2042	0	32818	32856	
2043	0	32796	32818	
2044	0	32834	32813	
2045	0	32752	32767	
2046	0	32857	32697	
2047	0	32848	32748	
2048	0	32860	32724	
2049	0	32844	32793	
2050	0	32768	32805	
2051	0	32792	32837	
2052	0	32786	32834	
2053	0	32842	32847	
2054	0	32740	32824	
2055	0	32808	32873	
2056	0	32778	32789	
2057	0	32745	32843	
2058	0	32816	32839	
2059	0	32770	32733	
2060	0	32767	32727	
2061	0	32797	32854	
2062	0	32838	32881	
2063	0	32792	32806	
2064	0	32836	32820	
2065	0	32832	32765	
2066	0	32730	32702	
2067	0	32854	32748	
2068	0	32788	32792	
2069	0	32836	32804	
2070	0	32846	32817	
2071	0	32816	32819	
2072	0	32880	32793	
2073	0	32788	32765	
2074	0	32828	32740	
2075	0	32773	32805	
2076	0	32740	32863	
2077	0	32809	32889	
2078	0	32713	32805	
2079	0	32740	32841	
2080	0	32722	32818	
2081	0	32775	32861	
2082	0	32750	32711	
2083	0	32814	32858	
2084	0	32828	32808	
2085	0	32760	32835	
2086	0	32806	32661	
2087	0	32802	32714	
2088	0	32875	32811	
2089	0	32826	32852	
2090	0	32828	32814	
2091	0	32850	32743	
2092	0	32808	32707	
2093	0	32857	32758	
2094	0	32816	32836	
2095	0	32816	32766	
2096	0	32856	32667	
2097	0	32888	32696	
2098	0	32882	32569	
2099	0	32936	32539	
2100	0	32902	32615	
2101	0	32880	32631	
2102	0	32962	32605	
2103	0	32932	32722	
2104	0	32912	32677	
2105	0	32904	32733	
2106	0	32882	32778	
2107	0	32834	32690	
2108	0	32864	32773	
2109	0	32720	32762	
2110	0	32706	33021	
2111	0	32748	32823	
2112	0	32740	32902	
2113	0	32688	32854	
2114	0	32685	32847	
2115	0	32636	33034	
2116	0	32616	33022	
2117	0	32696	32943	
2118	0	32644	33026	
2119	0	32616	33027	
2120	0	32545	33051	
2121	0	32608	33030	
2122	0	32608	33022	
2123	0	32613	33128	
2124	0	32696	33142	
2125	0	32748	32979	
2126	0	32778	32939	
2127	0	32824	32785	
2128	0	32821	32811	
2129	0	32833	32876	
2130	0	32812	32816	
2131	0	32893	32848	
2132	0	32850	32741	
2133	0	32884	32744	
2134	0	32843	32726	
2135	0	32848	32742	
2136	0	32864	32739	
2137	0	32844	32614	
2138	0	32882	32647	
2139	0	32720	32613	
2140	0	32852	32613	
2141	0	32900	32612	
2142	0	32896	32701	
2143	0	32835	32721	
2144	0	32880	32766	
2145	0	32828	32745	
2146	0	32797	32751	
2147	0	32840	32706	
2148	0	32786	32775	
2149	0	32842	32787	
2150	0	32835	32758	
2151	0	32806	32871	
2152	0	32805	32758	
2153	0	32797	32804	
2154	0	32792	32799	
2155	0	32720	32825	
2156	0	32805	32678	
2157	0	32775	32756	
2158	0	32768	32758	
2159	0	32784	32769	
2160	0	32848	32706	
2161	0	32812	32917	
2162	0	32795	32872	
2163	0	32796	32809	
2164	0	32790	32834	
2165	0	32780	32869	
2166	0	32788	32826	
2167	0	32788	32859	
2168	0	32804	32685	
2169	0	32800	32756	
2170	0	32772	32879	
2171	0	32774	32816	
2172	0	32749	32738	
2173	0	32764	32808	
2174	0	32782	32888	
2175	0	32724	32798	
2176	0	32771	32815	
2177	0	32775	32803	
2178	0	32760	32756	
2179	0	32817	32775	
2180	0	32740	32726	
2181	0	32818	32744	
2182	0	32824	32821	
2183	0	32750	32894	
2184	0	32837	32805	
2185	0	32852	32801	
2186	0	32958	32763	
2187	0	32816	32726	
2188	0	32767	32775	
2189	0	32796	32710	
2190	0	32820	32716	
2191	0	32813	32757	
2192	0	32788	32836	
2193	0	32756	32789	
2194	0	32793	32741	
2195	0	32788	32869	
2196	0	32812	32833	
2197	0	32796	32858	
2198	0	32744	32804	
2199	0	32802	32880	
2200	0	32748	32901	
2201	0	32761	32875	
2202	0	32806	32829	
2203	0	32816	32765	
2204	0	32789	32716	
2205	0	32799	32746	
2206	0	32816	32752	
2207	0	32788	32871	
2208	0	32772	32844	
2209	0	32768	32815	
2210	0	32808	32871	
2211	0	32860	32775	
2212	0	32821	32785	
2213	0	32806	32848	
2214	0	32814	32772	
2215	0	32740	32722	
2216	0	32816	32745	
2217	0	32725	32830	
2218	0	32740	32866	
2219	0	32775	32819	
2220	0	32792	32835	
2221	0	32824	32656	
2222	0	32800	32702	
2223	0	32860	32799	
2224	0	32812	32867	
2225	0	32771	32775	
2226	0	32797	32773	
2227	0	32760	32871	
2228	0	32836	32744	
2229	0	32771	32749	
2230	0	32809	32807	
2231	0	32844	32799	
2232	0	32784	32738	
2233	0	32708	32768	
2234	0	32740	32763	
2235	0	32833	32756	
2236	0	32754	32775	
2237	0	32740	32825	
2238	0	32717	32903	
2239	0	32754	32854	
2240	0	32757	32789	
2241	0	32780	32763	
2242	0	32754	32866	
2243	0	32848	32813	
2244	0	32816	32682	
2245	0	32848	32775	
2246	0	32748	32788	
2247	0	32848	32812	
2248	0	32796	32913	
2249	0	32869	32742	
2250	0	32846	32834	
2251	0	32794	32869	
2252	0	32810	32820	
2253	0	32820	32799	
2254	0	32769	32750	
2255	0	32826	32706	
2256	0	32804	32750	
2257	0	32832	32739	
2258	0	32782	32750	
2259	0	32721	32872	
2260	0	32802	32847	
2261	0	32818	32802	
2262	0	32848	32727	
2263	0	32762	32736	
2264	0	32801	32728	
2265	0	32771	32720	
2266	0	32841	32772	
2267	0	32784	32893	
2268	0	32828	32817	
2269	0	32814	32751	
2270	0	32852	32700	
2271	0	32829	32862	
2272	0	32765	32818	
2273	0	32824	32804	
2274	0	32746	32745	
2275	0	32754	32896	
2276	0	32778	32816	
2277	0	32825	32770	
2278	0	32792	32719	
2279	0	32800	32878	
2280	0	32770	32788	
2281	0	32804	32829	
2282	0	32762	32756	
2283	0	32837	32710	
2284	0	32784	32896	
2285	0	32842	32795	
2286	0	32824	32792	
2287	0	32850	32690	
2288	0	32845	32734	
2289	0	32770	32876	
2290	0	32737	32803	
2291	0	32804	32861	
2292	0	32786	32705	
2293	0	32844	32871	
2294	0	32817	32890	
2295	0	32752	32832	
2296	0	32784	32733	
2297	0	32793	32773	
2298	0	32742	32816	
2299	0	32840	32831	
2300	0	32838	32736	
2301	0	32728	32763	
2302	0	32816	32831	
2303	0	32805	32882	
2304	0	32844	32874	
2305	0	32775	32751	
2306	0	32837	32717	
2307	0	32812	32790	
2308	0	32840	32837	
2309	0	32848	32817	
2310	0	32811	32802	
2311	0	32774	32797	
2312	0	32802	32775	
2313	0	32724	32683	
2314	0	32768	32794	
2315	0	32820	32686	
2316	0	32772	32809	
2317	0	32864	32839	
2318	0	32786	32970	
2319	0	32696	33008	
2320	0	32748	32962	
2321	0	32833	32843	
2322	0	32786	32621	
2323	0	32878	32629	
2324	0	32824	32696	
2325	0	32822	32792	
2326	0	32818	32714	
2327	0	32816	32687	
2328	0	32836	32727	
2329	0	32810	32740	
2330	0	32792	32757	
2331	0	32754	32823	
2332	0	32790	32898	
2333	0	32782	32824	
2334	0	32758	32863	
2335	0	32905	32818	
2336	0	32856	32744	
2337	0	32788	32834	
2338	0	32805	32866	
2339	0	32800	32838	
2340	0	32840	32720	
2341	0	32766	32768	
2342	0	32756	32861	
2343	0	32760	32794	
2344	0	32752	32787	
2345	0	32826	32686	
2346	0	32869	32754	
2347	0	32867	32834	
2348	0	32785	32851	
2349	0	32884	32727	
2350	0	32818	32759	
2351	0	32782	32860	
2352	0	32827	32836	
2353	0	32775	32859	
2354	0	32737	32801	
2355	0	32736	32850	
2356	0	32724	32871	
2357	0	32836	32728	
2358	0	32828	32790	
2359	0	32738	32884	
2360	0	32762	32775	
2361	0	32720	32708	
2362	0	32819	32746	
2363	0	32720	32899	
2364	0	32832	32763	
2365	0	32841	32763	
2366	0	32788	32775	
2367	0	32838	32775	
2368	0	32809	32824	
2369	0	32850	32882	
2370	0	32808	32767	
2371	0	32836	32775	
2372	0	32765	32855	
2373	0	32700	32908	
2374	0	32837	32839	
2375	0	32850	32815	
2376	0	32762	32838	
2377	0	32737	32839	
2378	0	32763	32754	
2379	0	32697	32708	
2380	0	32712	32889	
2381	0	32804	32836	
2382	0	32748	32791	
2383	0	32832	32775	
2384	0	32848	32706	
2385	0	32816	32834	
2386	0	32706	32786	
2387	0	32896	32829	
2388	0	32816	32801	
2389	0	32816	32728	
2390	0	32760	32785	
2391	0	32866	32871	
2392	0	32796	32786	
2393	0	32752	32871	
2394	0	32760	32753	
2395	0	32736	32752	
2396	0	32825	32824	
2397	0	32822	32857	
2398	0	32724	32832	
2399	0	32768	32831	
2400	0	32784	32734	
2401	0	32816	32743	
2402	0	32841	32869	
2403	0	32786	32802	
2404	0	32784	32825	
2405	0	32828	32829	
2406	0	32796	32722	
2407	0	32757	32738	
2408	0	32852	32764	
2409	0	32818	32879	
2410	0	32801	32831	
2411	0	32768	32791	
2412	0	32784	32704	
2413	0	32757	32791	
2414	0	32748	32678	
2415	0	32800	32801	
2416	0	32724	32824	
2417	0	32784	32802	
2418	0	32768	32792	
2419	0	32862	32850	
2420	0	32782	32718	
2421	0	32800	32714	
2422	0	32838	32723	
2423	0	32808	32860	
2424	0	32768	32795	
2425	0	32848	32838	
2426	0	32801	32775	
2427	0	32812	32763	
2428	0	32810	32813	
2429	0	32801	32823	
2430	0	32801	32710	
2431	0	32810	32762	
2432	0	32816	32859	
2433	0	32812	32861	
2434	0	32785	32818	
2435	0	32769	32716	
2436	0	32832	32725	
2437	0	32744	32818	
2438	0	32784	32886	
2439	0	32774	32799	
2440	0	32789	32739	
2441	0	32828	32758	
2442	0	32800	32749	
2443	0	32788	32870	
2444	0	32744	32710	
2445	0	32860	32712	
2446	0	32837	32813	
2447	0	32856	32834	
2448	0	32844	32824	
2449	0	32835	32692	
2450	0	32822	32884	
2451	0	32850	32852	
2452	0	32794	32765	
2453	0	32770	32786	
2454	0	32812	32735	
2455	0	32790	32773	
2456	0	32761	32822	
2457	0	32869	32887	
2458	0	32779	32767	
2459	0	32789	32733	
2460	0	32784	32743	
2461	0	32798	32739	
2462	0	32824	32894	
2463	0	32776	32827	
2464	0	32814	32808	
2465	0	32836	32730	
2466	0	32808	32804	
2467	0	32796	32918	
2468	0	32760	32775	
2469	0	32834	32803	
2470	0	32796	32728	
2471	0	32837	32739	
2472	0	32792	32914	
2473	0	32824	32816	
2474	0	32790	32787	
2475	0	32748	32799	
2476	0	32780	32750	
2477	0	32766	32757	
2478	0	32812	32852	
2479	0	32763	32859	
2480	0	32820	32815	
2481	0	32776	32819	
2482	0	32849	32722	
2483	0	32801	32775	
2484	0	32792	32839	
2485	0	32856	32850	
2486	0	32848	32891	
2487	0	32833	32775	
2488	0	32842	32730	
2489	0	32840	32717	
2490	0	32752	32836	
2491	0	32780	32843	
2492	0	32840	32800	
2493	0	32777	32864	
2494	0	32794	32793	
2495	0	32784	32708	
2496	0	32762	32744	
2497	0	32752	32815	
2498	0	32767	32850	
2499	0	32710	32890	
2500	0	32770	32890	
2501	0	32820	32861	
2502	0	32802	32800	
2503	0	32754	32818	
2504	0	32816	32753	
2505	0	32792	32723	
2506	0	32836	32706	
2507	0	32812	32856	
2508	0	32831	32863	
2509	0	32834	32817	
2510	0	32824	32796	
2511	0	32848	32767	
2512	0	32772	32741	
2513	0	32752	32706	
2514	0	32756	32807	
2515	0	32808	32804	
2516	0	32770	32800	
2517	0	32789	32692	
2518	0	32736	32758	
2519	0	32782	32812	
2520	0	32794	32857	
2521	0	32750	32809	
2522	0	32870	32748	
2523	0	32795	32707	
2524	0	32820	32857	
2525	0	32823	32775	
2526	0	32804	32761	
2527	0	32766	32695	
2528	0	32859	32836	
2529	0	32724	32816	
2530	0	32796	32707	
2531	0	32760	32871	
2532	0	32773	32824	
2533	0	32820	32832	
2534	0	32797	32841	
2535	0	32752	32757	
2536	0	32768	32750	
2537	0	32860	32891	
2538	0	32800	32822	
2539	0	32796	32679	
2540	0	32802	32805	
2541	0	32786	32809	
2542	0	32796	32752	
2543	0	32762	32824	
2544	0	32784	32854	
2545	0	32808	32743	
2546	0	32775	32757	
2547	0	32844	32771	
2548	0	32816	32720	
2549	0	32760	32829	
2550	0	32799	32808	
2551	0	32812	32865	
2552	0	32781	32786	
2553	0	32856	32837	
2554	0	32812	32736	
2555	0	32799	32745	
2556	0	32754	32839	
2557	0	32800	32856	
2558	0	32784	32760	
2559	0	32736	32786	
2560	0	32738	32878	
2561	0	32826	32738	
2562	0	32824	32723	
2563	0	32819	32838	
2564	0	32870	32911	
2565	0	32842	32879	
2566	0	32814	32903	
2567	0	32754	32726	
2568	0	32745	32706	
2569	0	32804	32834	
2570	0	32796	32803	
2571	0	32752	32810	
2572	0	32812	32849	
2573	0	32788	32676	
2574	0	32788	32740	
2575	0	32760	32879	
2576	0	32844	32873	
2577	0	32847	32756	
2578	0	32754	32868	
2579	0	32766	32745	
2580	0	32780	32735	
2581	0	32762	32758	
2582	0	32780	32703	
2583	0	32838	32869	
2584	0	32786	32792	
2585	0	32852	32775	
2586	0	32796	32827	
2587	0	32834	32761	
2588	0	32784	32769	
2589	0	32816	32910	
2590	0	32804	32832	
2591	0	32764	32775	
2592	0	32781	32817	
2593	0	32788	32750	
2594	0	32820	32741	
2595	0	32792	32861	
2596	0	32803	32847	
2597	0	32836	32763	
2598	0	32772	32837	
2599	0	32812	32724	
2600	0	32766	32701	
2601	0	32737	32803	
2602	0	32808	32775	
2603	0	32790	32855	
2604	0	32756	32814	
2605	0	32793	32814	
2606	0	32834	32764	
2607	0	32784	32845	
2608	0	32848	32698	
2609	0	32842	32746	
2610	0	32860	32847	
2611	0	32772	32933	
2612	0	32712	32853	
2613	0	32796	32912	
2614	0	32841	32873	
2615	0	32809	32815	
2616	0	32752	32775	
2617	0	32712	32747	
2618	0	32765	32752	
2619	0	32775	32796	
2620	0	32782	32861	
2621	0	32801	32715	
2622	0	32770	32712	
2623	0	32773	32681	
2624	0	32888	32805	
2625	0	32808	32846	
2626	0	32846	32775	
2627	0	32756	32861	
2628	0	32801	32803	
2629	0	32775	32749	
2630	0	32808	32727	
2631	0	32740	32781	
2632	0	32784	32821	
2633	0	32856	32765	
2634	0	32824	32843	
2635	0	32781	32702	
2636	0	32756	32743	
2637	0	32737	32866	
2638	0	32724	32832	
2639	0	32834	32815	
2640	0	32740	32745	
2641	0	32850	32705	
2642	0	32784	32774	
2643	0	32852	32873	
2644	0	32812	32837	
2645	0	32856	32808	
2646	0	32808	32721	
2647	0	32837	32683	
2648	0	32812	32614	
2649	0	32850	32660	
2650	0	32803	32873	
2651	0	32818	32969	
2652	0	32770	33051	
2653	0	32802	33016	
2654	0	32832	32956	
2655	0	32820	32707	
2656	0	32762	32562	
2657	0	32755	32629	
2658	0	32733	32790	
2659	0	32852	32715	
2660	0	32651	32724	
2661	0	32792	32716	
2662	0	32794	32844	
2663	0	32794	32775	
2664	0	32816	32835	
2665	0	32823	32754	
2666	0	32838	32788	
2667	0	32824	32812	
2668	0	32801	32870	
2669	0	32832	32826	
2670	0	32777	32888	
2671	0	32804	32750	
2672	0	32772	32747	
2673	0	32797	32738	
2674	0	32805	32852	
2675	0	32772	32856	
2676	0	32700	32771	
2677	0	32848	32775	
2678	0	32771	32760	
2679	0	32744	32720	
2680	0	32766	32736	
2681	0	32740	32878	
2682	0	32760	32822	
2683	0	32834	32818	
2684	0	32837	32686	
2685	0	32802	32762	
2686	0	32804	32892	
2687	0	32868	32807	
2688	0	32824	32851	
2689	0	32852	32740	
2690	0	32885	32813	
2691	0	32829	32815	
2692	0	32756	32876	
2693	0	32802	32903	
2694	0	32816	32827	
2695	0	32775	32800	
2696	0	32765	32828	
2697	0	32812	32696	
2698	0	32797	32718	
2699	0	32728	32876	
2700	0	32808	32839	
2701	0	32810	32784	
2702	0	32806	32736	
2703	0	32793	32769	
2704	0	32829	32864	
2705	0	32804	32818	
2706	0	32832	32808	
2707	0	32818	32738	
2708	0	32778	32792	
2709	0	32808	32809	
2710	0	32844	32829	
2711	0	32737	32811	
2712	0	32813	32723	
2713	0	32740	32731	
2714	0	32772	32842	
2715	0	32774	32789	
2716	0	32810	32757	
2717	0	32833	32810	
2718	0	32766	32774	
2719	0	32725	32886	
2720	0	32760	32898	
2721	0	32824	32827	
2722	0	32860	32796	
2723	0	32794	32743	
2724	0	32844	32752	
2725	0	32732	32826	
2726	0	32792	32803	
2727	0	32736	32775	
2728	0	32860	32711	
2729	0	32827	32760	
2730	0	32868	32877	
2731	0	32828	32861	
2732	0	32792	32763	
2733	0	32778	32772	
2734	0	32800	32681	
2735	0	32704	32847	
2736	0	32766	32775	
2737	0	32810	32821	
2738	0	32809	32839	
2739	0	32772	32711	
2740	0	32773	32724	
2741	0	32789	32920	
2742	0	32832	32797	
2743	0	32785	32797	
2744	0	32788	32851	
2745	0	32857	32927	
2746	0	32801	32833	
2747	0	32848	32752	
2748	0	32752	32794	
2749	0	32844	32844	
2750	0	32827	32763	
2751	0	32860	32695	
2752	0	32736	32726	
2753	0	32768	32811	
2754	0	32770	32800	
2755	0	32746	32797	
2756	0	32762	32663	
2757	0	32756	32898	
2758	0	32792	32870	
2759	0	32772	32862	
2760	0	32780	32753	
2761	0	32844	32799	
2762	0	32758	32870	
2763	0	32784	32738	
2764	0	32731	32804	
2765	0	32832	32844	
2766	0	32804	32820	
2767	0	32840	32720	
2768	0	32796	32674	
2769	0	32824	32711	
2770	0	32778	32715	
2771	0	32850	32787	
2772	0	32778	32868	
2773	0	32800	32860	
2774	0	32816	32784	
2775	0	32801	32770	
2776	0	32742	32792	
2777	0	32748	32894	
2778	0	32801	32876	
2779	0	32780	32792	
2780	0	32750	32724	
2781	0	32848	32727	
2782	0	32773	32921	
2783	0	32820	32835	
2784	0	32808	32835	
2785	0	32898	32732	
2786	0	32807	32860	
2787	0	32768	32794	
2788	0	32816	32810	
2789	0	32792	32775	
2790	0	32804	32751	
2791	0	32786	32812	
2792	0	32760	32884	
2793	0	32869	32813	
2794	0	32812	32764	
2795	0	32748	32697	
2796	0	32768	32775	
2797	0	32760	32902	
2798	0	32824	32830	
2799	0	32856	32754	
2800	0	32716	32739	
2801	0	32821	32717	
2802	0	32740	32851	
2803	0	32739	32882	
2804	0	32832	32847	
2805	0	32764	32840	
2806	0	32796	32707	
2807	0	32882	32762	
2808	0	32842	32824	
2809	0	32769	32768	
2810	0	32790	32735	
2811	0	32776	32786	
2812	0	32850	32893	
2813	0	32824	32866	
2814	0	32712	32702	
2815	0	32792	32765	
2816	0	32864	32764	
2817	0	32760	32861	
2818	0	32747	32760	
2819	0	32817	32810	
2820	0	32793	32775	
2821	0	32868	32791	
2822	0	32763	32884	
2823	0	32795	32811	
2824	0	32815	32813	
2825	0	32818	32775	
2826	0	32821	32769	
2827	0	32944	32828	
2828	0	32776	32841	
2829	0	32812	32811	
2830	0	32821	32821	
2831	0	32792	32793	
2832	0	32748	32775	
2833	0	32786	32704	
2834	0	32800	32893	
2835	0	32725	32773	
2836	0	32750	32816	
2837	0	32736	32699	
2838	0	32800	32883	
2839	0	32736	32760	
2840	0	32804	32873	
2841	0	32786	32697	
2842	0	32800	32775	
2843	0	32756	32823	
2844	0	32802	32831	
2845	0	32868	32746	
2846	0	32828	32696	
2847	0	32766	32844	
2848	0	32777	32874	
2849	0	32853	32784	
2850	0	32838	32888	
2851	0	32792	32742	
2852	0	32788	32861	
2853	0	32744	32891	
2854	0	32800	32871	
2855	0	32772	32746	
2856	0	32764	32796	
2857	0	32760	32808	
2858	0	32804	32816	
2859	0	32813	32870	
2860	0	32720	32702	
2861	0	32824	32823	
2862	0	32754	32827	
2863	0	32826	32728	
2864	0	32773	32805	
2865	0	32816	32792	
2866	0	32852	32791	
2867	0	32789	32770	
2868	0	32886	32877	
2869	0	32830	32786	
2870	0	32736	32762	
2871	0	32801	32767	
2872	0	32781	32788	
2873	0	32784	32802	
2874	0	32805	32805	
2875	0	32706	32835	
2876	0	32848	32838	
2877	0	32769	32707	
2878	0	32780	32851	
2879	0	32738	32892	
2880	0	32740	32763	
2881	0	32824	32692	
2882	0	32803	32838	
2883	0	32800	32839	
2884	0	32799	32832	
2885	0	32813	32866	
2886	0	32828	32722	
2887	0	32852	32852	
2888	0	32775	32843	
2889	0	32803	32854	
2890	0	32848	32766	
2891	0	32769	32743	
2892	0	32884	32791	
2893	0	32742	32867	
2894	0	32804	32757	
2895	0	32762	32831	
2896	0	32822	32740	
2897	0	32766	32748	
2898	0	32840	32697	
2899	0	32745	32763	
2900	0	32794	32699	
2901	0	32775	32713	
2902	0	32780	32880	
2903	0	32797	32813	
2904	0	32838	32761	
2905	0	32779	32696	
2906	0	32822	32710	
2907	0	32760	32831	
2908	0	32734	32881	
2909	0	32808	32872	
2910	0	32864	32758	
2911	0	32818	32765	
2912	0	32768	32802	
2913	0	32752	32743	
2914	0	32890	32735	
2915	0	32846	32969	
2916	0	32730	32854	
2917	0	32732	32683	
2918	0	32797	32731	
2919	0	32809	32816	
2920	0	32837	32861	
2921	0	32786	32839	
2922	0	32776	32799	
2923	0	32787	32719	
2924	0	32775	32752	
2925	0	32772	32823	
2926	0	32864	32818	
2927	0	32808	32848	
2928	0	32834	32834	
2929	0	32752	32781	
2930	0	32824	32775	
2931	0	32752	32690	
2932	0	32724	32806	
2933	0	32816	32820	
2934	0	32764	32775	
2935	0	32717	32808	
2936	0	32848	32794	
2937	0	32768	32818	
2938	0	32740	32859	
2939	0	32742	32751	
2940	0	32836	32825	
2941	0	32736	32763	
2942	0	32752	32805	
2943	0	32746	32832	
2944	0	32816	32809	
2945	0	32820	32807	
2946	0	32864	32742	
2947	0	32736	32850	
2948	0	32864	32833	
2949	0	32890	32839	
2950	0	32817	32772	
2951	0	32753	32797	
2952	0	32843	32735	
2953	0	32805	32791	
2954	0	32788	32929	
2955	0	32722	32791	
2956	0	32748	32830	
2957	0	32740	32867	
2958	0	32768	32721	
2959	0	32732	32843	
2960	0	32768	32945	
2961	0	32737	32788	
2962	0	32764	32818	
2963	0	32818	32740	
2964	0	32770	32715	
2965	0	32826	32815	
2966	0	32746	32791	
2967	0	32770	32775	
2968	0	32756	32711	
2969	0	32848	32785	
2970	0	32759	32834	
2971	0	32828	32808	
2972	0	32808	32702	
2973	0	32852	32610	
2974	0	32858	32746	
2975	0	32902	32683	
2976	0	32884	32710	
2977	0	32868	32528	
2978	0	32903	32567	
2979	0	32913	32706	
2980	0	32956	32578	
2981	0	32976	32626	
2982	0	32904	32579	
2983	0	32904	32691	
2984	0	32873	32774	
2985	0	32903	32720	
2986	0	32824	32830	
2987	0	32876	32819	
2988	0	32708	32932	
2989	0	32680	32979	
2990	0	32642	32851	
2991	0	32752	32924	
2992	0	32722	32909	
2993	0	32741	32921	
2994	0	32604	32890	
2995	0	32642	32967	
2996	0	32718	32903	
2997	0	32660	32967	
2998	0	32533	33042	
2999	0	32658	33115	
3000	0	32602	33077	
3001	0	32608	33082	
3002	0	32708	33016	
3003	0	32692	33085	
3004	0	32761	32977	
3005	0	32775	32850	
3006	0	32828	32896	
3007	0	32858	32866	
3008	0	32800	32839	
3009	0	32800	32868	
3010	0	32752	32818	
3011	0	32838	32760	
3012	0	32774	32691	
3013	0	32844	32712	
3014	0	32852	32611	
3015	0	32858	32692	
3016	0	32820	32759	
3017	0	32916	32740	
3018	0	32868	32704	
3019	0	32811	32687	
3020	0	32844	32702	
3021	0	32872	32652	
3022	0	32832	32711	
3023	0	32877	32724	
3024	0	32871	32699	
3025	0	32882	32717	
3026	0	32768	32804	
3027	0	32842	32686	
3028	0	32830	32684	
3029	0	32784	32796	
3030	0	32861	32840	
3031	0	32766	32841	
3032	0	32784	32809	
3033	0	32810	32743	
3034	0	32884	32739	
3035	0	32787	32739	
3036	0	32756	32694	
3037	0	32724	32735	
3038	0	32730	32845	
3039	0	32737	32871	
3040	0	32788	32884	
3041	0	32796	32807	
3042	0	32788	32821	
3043	0	32784	32873	
3044	0	32832	32707	
3045	0	32812	32735	
3046	0	32836	32754	
3047	0	32868	32758	
3048	0	32800	32745	
3049	0	32760	32786	
3050	0	32833	32753	
3051	0	32801	32903	
3052	0	32778	32786	
3053	0	32770	32838	
3054	0	32780	32783	
3055	0	32827	32696	
3056	0	32742	32828	
3057	0	32824	32839	
3058	0	32824	32839	
3059	0	32772	32723	
3060	0	32852	32785	
3061	0	32792	32838	
3062	0	32792	32835	
3063	0	32827	32749	
3064	0	32834	32751	
3065	0	32808	32771	
3066	0	32822	32762	
3067	0	32877	32736	
3068	0	32771	32775	
3069	0	32828	32824	
3070	0	32801	32743	
3071	0	32784	32830	
3072	0	32822	32702	
3073	0	32731	32837	
3074	0	32792	32793	
3075	0	32800	32800	
3076	0	32802	32716	
3077	0	32696	32684	
3078	0	32752	32711	
3079	0	32797	32686	
3080	0	32788	32775	
3081	0	32792	32903	
3082	0	32737	32869	
3083	0	32780	32772	
3084	0	32834	32828	
3085	0	32815	32727	
3086	0	32856	32736	
3087	0	32793	32723	
3088	0	32809	32819	
3089	0	32736	32649	
3090	0	32781	32801	
3091	0	32825	32802	
3092	0	32790	32927	
3093	0	32818	32847	
3094	0	32775	32829	
3095	0	32724	32773	
3096	0	32829	32804	
3097	0	32754	32831	
3098	0	32750	32816	
3099	0	32803	32821	
3100	0	32812	32787	
3101	0	32772	32810	
3102	0	32790	32739	
3103	0	32733	32682	
3104	0	32844	32672	
3105	0	32841	32813	
3106	0	32812	32882	
3107	0	32797	32808	
3108	0	32848	32831	
3109	0	32832	32829	
3110	0	32785	32811	
3111	0	32850	32752	
3112	0	32833	32735	
3113	0	32832	32866	
3114	0	32762	32868	
3115	0	32736	32818	
3116	0	32736	32839	
3117	0	32688	32812	
3118	0	32784	32711	
3119	0	32802	32707	
3120	0	32802	32804	
3121	0	32762	32846	
3122	0	32786	32772	
3123	0	32853	32833	
3124	0	32812	32743	
3125	0	32828	32740	
3126	0	32784	32746	
3127	0	32839	32871	
3128	0	32896	32838	
3129	0	32857	32796	
3130	0	32768	32844	
3131	0	32784	32821	
3132	0	32796	32722	
3133	0	32864	32749	
3134	0	32770	32824	
3135	0	32757	32928	
3136	0	32792	32894	
3137	0	32732	32780	
3138	0	32804	32827	
3139	0	32750	32720	
3140	0	32730	32798	
3141	0	32861	32812	
3142	0	32744	32836	
3143	0	32764	32866	
3144	0	32852	32875	
3145	0	32793	32759	
3146	0	32842	32727	
3147	0	32797	32954	
3148	0	32820	32794	
3149	0	32810	32794	
3150	0	32834	32678	
3151	0	32831	32797	
3152	0	32764	32871	
3153	0	32794	32807	
3154	0	32836	32770	
3155	0	32781	32739	
3156	0	32800	32826	
3157	0	32704	32914	
3158	0	32780	32768	
3159	0	32768	32814	
3160	0	32798	32671	
3161	0	32878	32728	
3162	0	32774	32759	
3163	0	32775	32928	
3164	0	32800	32814	
3165	0	32816	32794	
3166	0	32773	32717	
3167	0	32825	32746	
3168	0	32780	32848	
3169	0	32780	32816	
3170	0	32817	32722	
3171	0	32804	32852	
3172	0	32772	32824	
3173	0	32769	32717	
3174	0	32804	32793	
3175	0	32714	32823	
3176	0	32768	32867	
3177	0	32818	32759	
3178	0	32809	32841	
3179	0	32782	32726	
3180	0	32713	32819	
3181	0	32880	32871	
3182	0	32752	32775	
3183	0	32844	32805	
3184	0	32864	32813	
3185	0	32784	32850	
3186	0	32792	32825	
3187	0	32802	32759	
3188	0	32784	32730	
3189	0	32860	32831	
3190	0	32799	32880	
3191	0	32848	32807	
3192	0	32752	32775	
3193	0	32804	32786	
3194	0	32801	32754	
3195	0	32764	32785	
3196	0	32780	32813	
3197	0	32818	32868	
3198	0	32800	32775	
3199	0	32706	32805	
3200	0	32766	32743	
3201	0	32874	32751	
3202	0	32786	32853	
3203	0	32760	32851	
3204	0	32801	32807	
3205	0	32768	32862	
3206	0	32850	32795	
3207	0	32858	32742	
3208	0	32828	32749	
3209	0	32808	32844	
3210	0	32758	32866	
3211	0	32746	32875	
3212	0	32784	32807	
3213	0	32758	32804	
3214	0	32786	32706	
3215	0	32818	32742	
3216	0	32769	32767	
3217	0	32784	32899	
3218	0	32775	32865	
3219	0	32840	32816	
3220	0	32744	32880	
3221	0	32862	32805	
3222	0	32792	32744	
3223	0	32760	32708	
3224	0	32868	32802	
3225	0	32798	32787	
3226	0	32864	32894	
3227	0	32748	32812	
3228	0	32727	32855	
3229	0	32764	32699	
3230	0	32879	32684	
3231	0	32799	32743	
3232	0	32828	32789	
3233	0	32778	32858	
3234	0	32872	32775	
3235	0	32712	32796	
3236	0	32800	32839	
3237	0	32750	32839	
3238	0	32777	32769	
3239	0	32792	32738	
3240	0	32788	32772	
3241	0	32809	32846	
3242	0	32775	32805	
3243	0	32786	32850	
3244	0	32741	32910	
3245	0	32821	32802	
3246	0	32852	32758	
3247	0	32896	32834	
3248	0	32840	32764	
3249	0	32764	32684	
3250	0	32805	32695	
3251	0	32748	32942	
3252	0	32778	32793	
3253	0	32801	32832	
3254	0	32844	32656	
3255	0	32807	32699	
3256	0	32800	32844	
3257	0	32720	32829	
3258	0	32786	32801	
3259	0	32692	32759	
3260	0	32772	32879	
3261	0	32796	32846	
3262	0	32775	32771	
3263	0	32745	32861	
3264	0	32789	32760	
3265	0	32856	32829	
3266	0	32836	32816	
3267	0	32774	32870	
3268	0	32751	32756	
3269	0	32804	32802	
3270	0	32880	32878	
3271	0	32824	32857	
3272	0	32806	32857	
3273	0	32772	32900	
3274	0	32792	32892	
3275	0	32730	32727	
3276	0	32721	32732	
3277	0	32756	32701	
3278	0	32788	32730	
3279	0	32796	32809	
3280	0	32890	32807	
3281	0	32765	32896	
3282	0	32756	32772	
3283	0	32848	32827	
3284	0	32896	32756	
3285	0	32796	32786	
3286	0	32775	32735	
3287	0	32766	32766	
3288	0	32820	32852	
3289	0	32857	32820	
3290	0	32820	32842	
3291	0	32836	32831	
3292	0	32758	32746	
3293	0	32840	32775	
3294	0	32796	32698	
3295	0	32729	32740	
3296	0	32712	32818	
3297	0	32814	32832	
3298	0	32754	32787	
3299	0	32850	32842	
3300	0	32792	32800	
3301	0	32790	32686	
3302	0	32748	32648	
3303	0	32752	32763	
3304	0	32800	32762	
3305	0	32772	32824	
3306	0	32788	32866	
3307	0	32778	32793	
3308	0	32864	32697	
3309	0	32820	32791	
3310	0	32869	32797	
3311	0	32792	32756	
3312	0	32840	32726	
3313	0	32792	32654	
3314	0	32756	32832	
3315	0	32748	32805	
3316	0	32736	32813	
3317	0	32788	32759	
3318	0	32808	32813	
3319	0	32796	32835	
3320	0	32746	32747	
3321	0	32808	32812	
3322	0	32784	32788	
3323	0	32840	32767	
3324	0	32754	32860	
3325	0	32774	32775	
3326	0	32832	32837	
3327	0	32784	32680	
3328	0	32804	32822	
3329	0	32902	32836	
3330	0	32781	32841	
3331	0	32833	32816	
3332	0	32852	32879	
3333	0	32708	32733	
3334	0	32856	32726	
3335	0	32826	32806	
3336	0	32744	32850	
3337	0	32736	32869	
3338	0	32828	32728	
3339	0	32864	32810	
3340	0	32754	32749	
3341	0	32729	32832	
3342	0	32800	32872	
3343	0	32788	32775	
3344	0	32792	32678	
3345	0	32796	32707	
3346	0	32876	32716	
3347	0	32761	32834	
3348	0	32769	32831	
3349	0	32828	32754	
3350	0	32812	32801	
3351	0	32826	32782	
3352	0	32764	32687	
3353	0	32782	32775	
3354	0	32804	32921	
3355	0	32820	32834	
3356	0	32734	32743	
3357	0	32760	32805	
3358	0	32740	32775	
3359	0	32800	32841	
3360	0	32844	32775	
3361	0	32818	32687	
3362	0	32775	32786	
3363	0	32809	32863	
3364	0	32773	32866	
3365	0	32831	32808	
3366	0	32817	32721	
3367	0	32832	32874	
3368	0	32784	32794	
3369	0	32873	32726	
3370	0	32816	32768	
3371	0	32764	32825	
3372	0	32786	32834	
3373	0	32816	32790	
3374	0	32780	32723	
3375	0	32833	32766	
3376	0	32775	32683	
3377	0	32832	32726	
3378	0	32792	32736	
3379	0	32768	32717	
3380	0	32772	32763	
3381	0	32834	32749	
3382	0	32817	32879	
3383	0	32808	32900	
3384	0	32804	32767	
3385	0	32824	32811	
3386	0	32820	32856	
3387	0	32796	32811	
3388	0	32786	32840	
3389	0	32910	32809	
3390	0	32809	32795	
3391	0	32789	32882	
3392	0	32750	32820	
3393	0	32750	32754	
3394	0	32840	32854	
3395	0	32723	32830	
3396	0	32754	32839	
3397	0	32808	32825	
3398	0	32780	32844	
3399	0	32804	32867	
3400	0	32774	32834	
3401	0	32840	32832	
3402	0	32773	32871	
3403	0	32844	32819	
3404	0	32862	32801	
3405	0	32800	32834	
3406	0	32762	32813	
3407	0	32775	32893	
3408	0	32914	32722	
3409	0	32765	32758	
3410	0	32740	32723	
3411	0	32826	32877	
3412	0	32830	32868	
3413	0	32792	32792	
3414	0	32782	32846	
3415	0	32797	32895	
3416	0	32712	32837	
3417	0	32774	32852	
3418	0	32729	32825	
3419	0	32686	32773	
3420	0	32734	32731	
3421	0	32888	32687	
3422	0	32796	32662	
3423	0	32784	32768	
3424	0	32830	32739	
3425	0	32774	32719	
3426	0	32856	32789	
3427	0	32852	32802	
3428	0	32874	32841	
3429	0	32797	32851	
3430	0	32752	32852	
3431	0	32874	32827	
3432	0	32824	32761	
3433	0	32754	32851	
3434	0	32760	32851	
3435	0	32832	32706	
3436	0	32776	32717	
3437	0	32775	32764	
3438	0	32753	32797	
3439	0	32754	32791	
3440	0	32808	32751	
3441	0	32818	32704	
3442	0	32788	32816	
3443	0	32828	32793	
3444	0	32850	32852	
3445	0	32813	32866	
3446	0	32828	32877	
3447	0	32850	32833	
3448	0	32795	32859	
3449	0	32752	32854	
3450	0	32775	32848	
3451	0	32762	32828	
3452	0	32788	32888	
3453	0	32784	32840	
3454	0	32774	32796	
3455	0	32756	32824	
3456	0	32796	32794	
3457	0	32761	32809	
3458	0	32760	32759	
3459	0	32756	32755	
3460	0	32846	32719	
3461	0	32789	32840	
3462	0	32768	32839	
3463	0	32810	32794	
3464	0	32839	32786	
3465	0	32836	32868	
3466	0	32864	32710	
3467	0	32800	32739	
3468	0	32804	32711	
3469	0	32752	32762	
3470	0	32836	32891	
3471	0	32788	32884	
3472	0	32814	32815	
3473	0	32813	32850	
3474	0	32740	32754	
3475	0	32727	32855	
3476	0	32826	32871	
3477	0	32787	32815	
3478	0	32808	32750	
3479	0	32825	32672	
3480	0	32797	32787	
3481	0	32728	32845	
3482	0	32775	32861	
3483	0	32810	32769	
3484	0	32714	32787	
3485	0	32849	32867	
3486	0	32824	32738	
3487	0	32834	32769	
3488	0	32781	32815	
3489	0	32808	32862	
3490	0	32882	32841	
3491	0	32780	32763	
3492	0	32775	32739	
3493	0	32744	32767	
3494	0	32864	32839	
3495	0	32812	32863	
3496	0	32792	32829	
3497	0	32788	32830	
3498	0	32752	32775	
3499	0	32754	32799	
3500	0	32800	32860	
3501	0	32774	32849	
3502	0	32816	32722	
3503	0	32849	32703	
3504	0	32788	32642	
3505	0	32853	32701	
3506	0	32824	32747	
3507	0	32793	32886	
3508	0	32780	32808	
3509	0	32832	32789	
3510	0	32814	32753	
3511	0	32856	32818	
3512	0	32775	32839	
3513	0	32775	32888	
3514	0	32816	32827	
3515	0	32814	32698	
3516	0	32800	32841	
3517	0	32807	32807	
3518	0	32680	32801	
3519	0	32785	32758	
3520	0	32754	32848	
3521	0	32872	32769	
3522	0	32826	32829	
3523	0	32802	32693	
3524	0	32760	32711	
3525	0	32804	32867	
3526	0	32888	32913	
3527	0	32832	32868	
3528	0	32800	32815	
3529	0	32793	32839	
3530	0	32816	32815	
3531	0	32794	32799	
3532	0	32766	32833	
3533	0	32805	32720	
3534	0	32848	32790	
3535	0	32799	32919	
3536	0	32768	32880	
3537	0	32724	32798	
3538	0	32712	32775	
3539	0	32776	32876	
3540	0	32820	32704	
3541	0	32768	32798	
3542	0	32780	32833	
3543	0	32800	32790	
3544	0	32788	32893	
3545	0	32816	32829	
3546	0	32796	32775	
3547	0	32849	32775	
3548	0	32808	32828	
3549	0	32795	32725	
3550	0	32828	32820	
3551	0	32796	32843	
3552	0	32822	32856	
3553	0	32828	32761	
3554	0	32774	32751	
3555	0	32830	32710	
3556	0	32794	32820	
3557	0	32752	32848	
3558	0	32860	32807	
3559	0	32777	32888	
3560	0	32736	32690	
3561	0	32765	32792	
3562	0	32775	32846	
3563	0	32772	32816	
3564	0	32812	32761	
3565	0	32881	32734	
3566	0	32840	32837	
3567	0	32836	32836	
3568	0	32797	32784	
3569	0	32837	32760	
3570	0	32788	32718	
3571	0	32733	32839	
3572	0	32788	32836	
3573	0	32789	32769	
3574	0	32775	32851	
3575	0	32741	32743	
3576	0	32834	32764	
3577	0	32794	32858	
3578	0	32726	32854	
3579	0	32808	32805	
3580	0	32840	32801	
3581	0	32836	32799	
3582	0	32728	32799	
3583	0	32774	32795	
3584	0	32820	32845	
3585	0	32810	32854	
3586	0	32781	32756	
3587	0	32824	32858	
3588	0	32824	32773	
3589	0	32810	32711	
3590	0	32780	32844	
3591	0	32801	32788	
3592	0	32857	32676	
3593	0	32770	32787	
3594	0	32832	32775	
3595	0	32829	32886	
3596	0	32786	32835	
3597	0	32768	32695	
3598	0	32772	32899	
3599	0	32793	32775	
3600	0	32812	32749	
3601	0	32782	32775	
3602	0	32732	32907	
3603	0	32821	32839	
3604	0	32756	32754	
3605	0	32852	32919	
3606	0	32848	32775	
3607	0	32762	32673	
3608	0	32758	32773	
3609	0	32790	32818	
3610	0	32788	32832	
3611	0	32828	32839	
3612	0	32752	32735	
3613	0	32785	32848	
3614	0	32802	32794	
3615	0	32771	32792	
3616	0	32820	32739	
3617	0	32796	32831	
3618	0	32793	32855	
3619	0	32725	32760	
3620	0	32728	32872	
3621	0	32728	32837	
3622	0	32841	32754	
3623	0	32852	32880	
3624	0	32792	32790	
3625	0	32782	32704	
3626	0	32838	32858	
3627	0	32811	32829	
3628	0	32818	32801	
3629	0	32792	32839	
3630	0	32786	32747	
3631	0	32778	32850	
3632	0	32848	32791	
3633	0	32800	32688	
3634	0	32764	32836	
3635	0	32764	32762	
3636	0	32773	32702	
3637	0	32832	32861	
3638	0	32808	32775	
3639	0	32810	32823	
3640	0	32740	32811	
3641	0	32824	32851	
3642	0	32780	32841	
3643	0	32936	32768	
3644	0	32816	32864	
3645	0	32772	32853	
3646	0	32824	32707	
3647	0	32788	32885	
3648	0	32788	32743	
3649	0	32794	32719	
3650	0	32870	32845	
3651	0	32760	32833	
3652	0	32832	32756	
3653	0	32802	32818	
3654	0	32776	32768	
3655	0	32745	32850	
3656	0	32702	32772	
3657	0	32865	32787	
3658	0	32799	32760	
3659	0	32794	32751	
3660	0	32764	32748	
3661	0	32736	32860	
3662	0	32769	32775	
3663	0	32852	32758	
3664	0	32769	32856	
3665	0	32836	32885	
3666	0	32838	32755	
3667	0	32820	32674	
3668	0	32768	32828	
3669	0	32836	32850	
3670	0	32862	32859	
3671	0	32828	32835	
3672	0	32858	32735	
3673	0	32748	32810	
3674	0	32918	32739	
3675	0	32698	32852	
3676	0	32797	32830	
3677	0	32720	32819	
3678	0	32720	32863	
3679	0	32784	32710	
3680	0	32802	32724	
3681	0	32796	32717	
3682	0	32812	32888	
3683	0	32728	32801	
3684	0	32882	32854	
3685	0	32833	32733	
3686	0	32846	32828	
3687	0	32807	32844	
3688	0	32837	32699	
3689	0	32784	32900	
3690	0	32837	32824	
3691	0	32833	32694	
3692	0	32820	32774	
3693	0	32720	32832	
3694	0	32720	32805	
3695	0	32796	32874	
3696	0	32762	32824	
3697	0	32732	32730	
3698	0	32821	32831	
3699	0	32765	32766	
3700	0	32776	32694	
3701	0	32786	32727	
3702	0	32824	32847	
3703	0	32821	32833	
3704	0	32784	32680	
3705	0	32786	32799	
3706	0	32813	32901	
3707	0	32808	32809	
3708	0	32918	32694	
3709	0	32789	32849	
3710	0	32729	32820	
3711	0	32738	32698	
3712	0	32797	32725	
3713	0	32792	32929	
3714	0	32779	32871	
3715	0	32764	32742	
3716	0	32812	32792	
3717	0	32804	32950	
3718	0	32720	32811	
3719	0	32766	32686	
3720	0	32782	32816	
3721	0	32736	32838	
3722	0	32834	32799	
3723	0	32800	32816	
3724	0	32820	32811	
3725	0	32792	32790	
3726	0	32874	32760	
3727	0	32793	32786	
3728	0	32892	32832	
3729	0	32752	32804	
3730	0	32762	32775	
3731	0	32804	32835	
3732	0	32854	32775	
3733	0	32844	32749	
3734	0	32742	32775	
3735	0	32760	32824	
3736	0	32740	32728	
3737	0	32792	32872	
3738	0	32754	32798	
3739	0	32800	32731	
3740	0	32777	32843	
3741	0	32844	32809	
3742	0	32797	32752	
3743	0	32845	32762	
3744	0	32817	32810	
3745	0	32906	32883	
3746	0	32810	32830	
3747	0	32816	32711	
3748	0	32720	32681	
3749	0	32774	32900	
3750	0	32834	32866	
3751	0	32769	32876	
3752	0	32772	32731	
3753	0	32834	32774	
3754	0	32786	32830	
3755	0	32788	32851	
3756	0	32796	32763	
3757	0	32756	32676	
3758	0	32816	32832	
3759	0	32764	32852	
3760	0	32764	32775	
3761	0	32773	32683	
3762	0	32775	32757	
3763	0	32792	32841	
3764	0	32836	32787	
3765	0	32848	32821	
3766	0	32787	32767	
3767	0	32800	32712	
3768	0	32775	32851	
3769	0	32827	32956	
3770	0	32873	32775	
3771	0	32768	32868	
3772	0	32792	32707	
3773	0	32737	32874	
3774	0	32768	32809	
3775	0	32764	32824	
3776	0	32828	32799	
3777	0	32676	32736	
3778	0	32892	32864	
3779	0	32784	32821	
3780	0	32775	32737	
3781	0	32772	32732	
3782	0	32764	32710	
3783	0	32856	32771	
3784	0	32802	32850	
3785	0	32824	32853	
3786	0	32862	32712	
3787	0	32825	32797	
3788	0	32716	32853	
3789	0	32828	32829	
3790	0	32796	32827	
3791	0	32796	32711	
3792	0	32820	32717	
3793	0	32796	32766	
3794	0	32801	32888	
3795	0	32772	32873	
3796	0	32756	32773	
3797	0	32790	32869	
3798	0	32760	33002	
3799	0	32867	32967	
3800	0	32762	32884	
3801	0	32797	32700	
3802	0	32788	32585	
3803	0	32793	32610	
3804	0	32810	32772	
3805	0	32832	32805	
3806	0	32836	32761	
3807	0	32836	32812	
3808	0	32848	32775	
3809	0	32812	32847	
3810	0	32743	32781	
3811	0	32769	32878	
3812	0	32805	32724	
3813	0	32809	32773	
3814	0	32802	32858	
3815	0	32829	32775	
3816	0	32771	32846	
3817	0	32758	32773	
3818	0	32796	32656	
3819	0	32744	32808	
3820	0	32754	32809	
3821	0	32749	32837	
3822	0	32768	32670	
3823	0	32818	32683	
3824	0	32784	32869	
3825	0	32788	32793	
3826	0	32816	32812	
3827	0	32812	32703	
3828	0	32833	32758	
3829	0	32824	32848	
3830	0	32804	32829	
3831	0	32856	32763	
3832	0	32804	32811	
3833	0	32792	32819	
3834	0	32824	32802	
3835	0	32722	32817	
3836	0	32736	32694	
3837	0	32800	32846	
3838	0	32772	32799	
3839	0	32748	32703	
3840	0	32784	32839	
3841	0	32808	32835	
3842	0	32790	32799	
3843	0	32837	32732	
3844	0	32764	32800	
3845	0	32848	32825	
3846	0	32904	32755	
3847	0	32796	32846	
3848	0	32805	32702	
3849	0	32884	32810	
3850	0	32820	32930	
3851	0	32811	32812	
3852	0	32756	32714	
3853	0	32820	32799	
3854	0	32754	32869	
3855	0	32850	32813	
3856	0	32741	32811	
3857	0	32788	32732	
3858	0	32789	32752	
3859	0	32768	32799	
3860	0	32796	32847	
3861	0	32757	32816	
3862	0	32784	32694	
3863	0	32825	32791	
3864	0	32804	32901	
3865	0	32848	32775	
3866	0	32812	32808	
3867	0	32788	32685	
3868	0	32789	32728	
3869	0	32836	32802	
3870	0	32814	32858	
3871	0	32786	32889	
3872	0	32761	32765	
3873	0	32832	32775	
3874	0	32830	32722	
3875	0	32752	32863	
3876	0	32768	32792	
3877	0	32709	32674	
3878	0	32833	32877	
3879	0	32736	32812	
3880	0	32758	32724	
3881	0	32821	32711	
3882	0	32806	32898	
3883	0	32794	32795	
3884	0	32801	32821	
3885	0	32816	32758	
3886	0	32805	32815	
3887	0	32824	32896	
3888	0	32732	32843	
3889	0	32770	32694	
3890	0	32768	32887	
3891	0	32762	32748	
3892	0	32782	32743	
3893	0	32711	32736	
3894	0	32784	32876	
3895	0	32698	32869	
3896	0	32762	32790	
3897	0	32790	32758	
3898	0	32798	32712	
3899	0	32836	32676	
3900	0	32840	32688	
3901	0	32892	32681	
3902	0	32902	32671	
3903	0	32976	32612	
3904	0	32930	32547	
3905	0	33008	32606	
3906	0	33000	32568	
3907	0	32976	32592	
3908	0	32983	32680	
3909	0	32910	32670	
3910	0	32933	32791	
3911	0	32916	32721	
3912	0	32898	32712	
3913	0	32836	32742	
3914	0	32805	32788	
3915	0	32676	32872	
3916	0	32676	32956	
3917	0	32660	32846	
3918	0	32720	32896	
3919	0	32720	32775	
3920	0	32684	32824	
3921	0	32666	32935	
3922	0	32605	32964	
3923	0	32790	32955	
3924	0	32591	32976	
3925	0	32510	32935	
3926	0	32544	32992	
3927	0	32632	32989	
3928	0	32678	33095	
3929	0	32698	33152	
3930	0	32792	33165	
3931	0	32833	33030	
3932	0	32845	32915	
3933	0	32906	32889	
3934	0	32767	33030	
3935	0	32816	32965	
3936	0	32762	32889	
3937	0	32756	32810	
3938	0	32780	32761	
3939	0	32804	32706	
3940	0	32809	32711	
3941	0	32805	32754	
3942	0	32820	32706	
3943	0	32859	32615	
3944	0	32809	32651	
3945	0	32871	32636	
3946	0	32880	32671	
3947	0	32888	32591	
3948	0	32836	32617	
3949	0	32811	32694	
3950	0	32800	32596	
3951	0	32808	32671	
3952	0	32954	32716	
3953	0	32868	32768	
3954	0	32884	32792	
3955	0	32852	32678	
3956	0	32872	32758	
3957	0	32796	32768	
3958	0	32784	32783	
3959	0	32769	32707	
3960	0	32797	32879	
3961	0	32764	32862	
3962	0	32817	32811	
3963	0	32760	32805	
3964	0	32764	32699	
3965	0	32680	32818	
3966	0	32704	32835	
3967	0	32816	32846	
3968	0	32820	32770	
3969	0	32832	32759	
3970	0	32889	32741	
3971	0	32868	32819	
3972	0	32864	32786	
3973	0	32913	32871	
3974	0	32885	32775	
3975	0	32888	32602	
3976	0	32788	32856	
3977	0	32854	32844	
3978	0	32814	32746	
3979	0	32820	32836	
3980	0	32729	32771	
3981	0	32775	32708	
3982	0	32720	32704	
3983	0	32775	32911	
3984	0	32794	32824	
3985	0	32912	32723	
3986	0	32758	32732	
3987	0	32781	32850	
3988	0	32741	32857	
3989	0	32630	32802	
3990	0	32660	32770	
3991	0	32668	32754	
3992	0	32704	32763	
3993	0	32794	32805	
3994	0	32813	32874	
3995	0	32800	32921	
3996	0	32868	32839	
3997	0	32826	32810	
3998	0	32832	32769	
3999	0	32890	32839	
4000	0	32754	32759	
4001	0	32704	32703	
4002	0	32829	32652	
4003	0	32796	32648	
4004	0	32804	32701	
4005	0	32888	32815	
4006	0	32850	32790	
4007	0	32796	32869	
4008	0	32704	33031	
4009	0	32805	32976	
4010	0	32952	32924	
4011	0	32904	32924	
4012	0	32898	32827	
4013	0	32977	32802	
4014	0	32960	32775	
4015	0	32932	32662	
4016	0	32828	32543	
4017	0	32647	32613	
4018	0	32644	32625	
4019	0	32656	32903	
4020	0	32733	32748	
4021	0	32742	32692	
4022	0	32668	32727	
4023	0	32741	32717	
4024	0	32700	32747	
4025	0	32781	32792	
4026	0	32672	32839	
4027	0	32770	32791	
4028	0	32841	32874	
4029	0	32828	32851	
4030	0	32841	32868	
4031	0	32804	32801	
4032	0	32804	32827	
4033	0	32838	32918	
4034	0	32848	32985	
4035	0	32764	32768	
4036	0	32790	32722	
4037	0	32772	32727	
4038	0	32772	32973	
4039	0	32754	33018	
4040	0	32810	32896	
4041	0	32822	32703	
4042	0	32828	32551	
4043	0	32813	32482	
4044	0	32856	32498	
4045	0	32800	32736	
4046	0	32811	32774	
4047	0	32827	32696	
4048	0	32853	32672	
4049	0	32793	32658	
4050	0	32804	32743	
4051	0	32763	32775	
4052	0	32792	32836	
4053	0	32824	33005	
4054	0	32796	33142	
4055	0	32789	33012	
4056	0	32804	32846	
4057	0	32714	32784	
4058	0	32800	32706	
4059	0	32805	32728	
4060	0	32800	32821	
4061	0	32748	32811	
4062	0	32848	32990	
4063	0	32760	33031	
4064	0	32805	33021	
4065	0	32809	32866	
4066	0	32756	32599	
4067	0	32838	32605	
4068	0	32862	32553	
4069	0	32810	32499	
4070	0	32848	32560	
4071	0	32796	32767	
4072	0	32804	32863	
4073	0	32798	32680	
4074	0	32809	32656	
4075	0	32828	32765	
4076	0	32820	32740	
4077	0	32718	32824	
4078	0	32752	32922	
4079	0	32856	32917	
4080	0	32848	32807	
4081	0	32808	32953	
4082	0	32840	33060	
4083	0	32840	32707	
4084	0	32866	32774	
4085	0	32860	32812	
4086	0	32870	32832	
4087	0	32826	32886	
4088	0	32808	33031	
4089	0	32775	33050	
4090	0	32754	33312	
4091	0	32696	33364	
4092	0	32763	32941	
4093	0	32804	32607	
4094	0	32837	32323	
4095	0	32800	32139	
4096	0	32744	32198	
4097	0	32668	32550	
4098	0	32784	32775	
4099	0	32809	32805	
4100	0	32752	32825	
4101	0	32748	32846	
4102	0	32772	32773	
4103	0	32808	32851	
4104	0	32864	32732	
4105	0	32864	32703	
4106	0	32792	32882	
4107	0	32857	32804	
4108	0	32738	32886	
4109	0	32784	32774	
4110	0	32836	32941	
4111	0	32794	32979	
4112	0	32793	32848	
4113	0	32704	32888	
4114	0	32788	32734	
4115	0	32862	32669	
4116	0	32790	32802	
4117	0	32764	32851	
4118	0	32730	32844	
4119	0	32724	32749	
4120	0	32772	32571	
4121	0	32850	32484	
4122	0	32794	32519	
4123	0	32799	32604	
4124	0	32772	32917	
4125	0	32800	32928	
4126	0	32808	33055	
4127	0	32846	33222	
4128	0	32780	33202	
4129	0	32880	32988	
4130	0	32956	32800	
4131	0	32914	32740	
4132	0	32832	32682	
4133	0	32844	32902	
4134	0	32819	33098	
4135	0	32770	33041	
4136	0	32760	32587	
4137	0	32718	32428	
4138	0	32728	32205	
4139	0	32712	32200	
4140	0	32666	32262	
4141	0	32732	32596	
4142	0	32802	32971	
4143	0	32892	32916	
4144	0	32775	32851	
4145	0	32846	32634	
4146	0	32860	32677	
4147	0	32749	33129	
4148	0	32796	33546	
4149	0	32729	33497	
4150	0	32741	32983	
4151	0	32800	32935	
4152	0	32850	32568	
4153	0	32840	32564	
4154	0	32874	32350	
4155	0	32741	32327	
4156	0	32758	32678	
4157	0	32769	32873	
4158	0	32882	32854	
4159	0	32828	32873	
4160	0	32754	33099	
4161	0	32722	33199	
4162	0	32744	33209	
4163	0	32880	32983	
4164	0	32816	32634	
4165	0	32828	32219	
4166	0	32810	32492	
4167	0	32836	32871	
4168	0	32792	33007	
4169	0	32818	32796	
4170	0	32846	32768	
4171	0	32784	32581	
4172	0	32732	32566	
4173	0	32808	32637	
4174	0	32800	32654	
4175	0	32746	32735	
4176	0	32820	32772	
4177	0	32864	32794	
4178	0	32770	32807	
4179	0	32708	33186	
4180	0	32788	33026	
4181	0	32828	32723	
4182	0	32742	32608	
4183	0	32736	32543	
4184	0	32770	32103	
4185	0	32778	32198	
4186	0	32740	32263	
4187	0	32801	32784	
4188	0	32850	33479	
4189	0	32756	33563	
4190	0	32828	33200	
4191	0	32756	33084	
4192	0	32773	32669	
4193	0	32826	32344	
4194	0	32740	32527	
4195	0	32796	32925	
4196	0	32892	32943	
4197	0	32919	33151	
4198	0	32872	33200	
4199	0	32720	33395	
4200	0	32746	33211	
4201	0	32728	32637	
4202	0	32720	31894	
4203	0	32949	31502	
4204	0	33042	32504	
4205	0	32954	33418	
4206	0	32896	33443	
4207	0	32784	32464	
4208	0	32668	32163	
4209	0	32572	32425	
4210	0	32666	33104	
4211	0	32584	33671	
4212	0	32544	33255	
4213	0	32546	32637	
4214	0	32528	32632	
4215	0	32613	32804	
4216	0	32841	32683	
4217	0	32860	32898	
4218	0	32978	32668	
4219	0	32928	32427	
4220	0	32768	32554	
4221	0	32829	32505	
4222	0	33040	32329	
4223	0	32976	32692	
4224	0	32973	32928	
4225	0	32864	32859	
4226	0	32832	33052	
4227	0	32774	32819	
4228	0	32704	32870	
4229	0	32671	33047	
4230	0	32668	33673	
4231	0	32714	33470	
4232	0	32741	33364	
4233	0	32785	33287	
4234	0	32827	33084	
4235	0	32850	32279	
4236	0	32938	32562	
4237	0	33044	32212	
4238	0	33116	31588	
4239	0	32933	31691	
4240	0	32750	32041	
4241	0	32618	32983	
4242	0	32605	33633	
4243	0	32720	33604	
4244	0	32916	32626	
4245	0	33068	32477	
4246	0	33183	31944	
4247	0	33076	32464	
4248	0	32904	32952	
4249	0	32764	33215	
4250	0	32588	33132	
4251	0	32528	33764	
4252	0	32538	33817	
4253	0	32512	33117	
4254	0	32630	32643	
4255	0	32710	32457	
4256	0	32665	32479	
4257	0	32758	31822	
4258	0	32801	31554	
4259	0	32780	32882	
4260	0	32873	34704	
4261	0	32838	34184	
4262	0	32948	33258	
4263	0	32814	33015	
4264	0	32933	31664	
4265	0	33067	29994	
4266	0	33072	30567	
4267	0	33036	31881	
4268	0	32998	32958	
4269	0	32877	33933	
4270	0	32740	34590	
4271	0	32584	34513	
4272	0	32558	33490	
4273	0	32480	33548	
4274	0	32489	33506	
4275	0	32496	32928	
4276	0	32536	32729	
4277	0	32736	32984	
4278	0	32787	32876	
4279	0	32904	32442	
4280	0	33020	31943	
4281	0	32928	31961	
4282	0	33096	31613	
4283	0	33060	32074	
4284	0	33050	31982	
4285	0	32880	32200	
4286	0	32836	31845	
4287	0	32956	32486	
4288	0	32978	33088	
4289	0	32888	34530	
4290	0	32636	35036	
4291	0	32630	34767	
4292	0	32632	33604	
4293	0	32620	31985	
4294	0	32468	32175	
4295	0	32508	32485	
4296	0	32480	31675	
4297	0	32778	32272	
4298	0	32734	33234	
4299	0	32920	33027	
4300	0	33099	33464	
4301	0	33304	33738	
4302	0	33309	33330	
4303	0	33149	31856	
4304	0	33360	31423	
4305	0	32982	31592	
4306	0	32713	32701	
4307	0	32413	33380	
4308	0	32161	33276	
4309	0	32054	32246	
4310	0	32200	32743	
4311	0	32356	33923	
4312	0	32426	33234	
4313	0	32693	32730	
4314	0	33016	32743	
4315	0	33136	32832	
4316	0	33060	33140	
4317	0	33114	32807	
4318	0	32970	32839	
4319	0	32990	32728	
4320	0	32917	32503	
4321	0	33012	32383	
4322	0	32937	32677	
4323	0	32742	32141	
4324	0	32775	32888	
4325	0	32661	33070	
4326	0	32700	33791	
4327	0	32775	33234	
4328	0	32775	33193	
4329	0	32864	32605	
4330	0	32780	30970	
4331	0	32530	31574	
4332	0	32624	32775	
4333	0	32734	34434	
4334	0	32913	34467	
4335	0	33058	32339	
4336	0	33198	31652	
4337	0	33074	31970	
4338	0	33180	31934	
4339	0	33136	33176	
4340	0	32904	34788	
4341	0	32637	33930	
4342	0	32912	31851	
4343	0	32836	31765	
4344	0	32740	32998	
4345	0	32813	33039	
4346	0	32704	32748	
4347	0	32617	32551	
4348	0	32684	32824	
4349	0	32356	32545	
4350	0	32120	32800	
4351	0	32136	33707	
4352	0	32388	32668	
4353	0	32974	32677	
4354	0	33232	33144	
4355	0	33404	31785	
4356	0	33561	31651	
4357	0	33456	31781	
4358	0	33212	31578	
4359	0	32784	32786	
4360	0	32505	34612	
4361	0	32396	34912	
4362	0	32406	33577	
4363	0	32502	32656	
4364	0	32484	32627	
4365	0	32452	32675	
4366	0	32437	32625	
4367	0	32554	33165	
4368	0	32682	33526	
4369	0	32826	33481	
4370	0	32796	33117	
4371	0	32786	32852	
4372	0	32872	33280	
4373	0	32828	32685	
4374	0	32816	30869	
4375	0	32848	30579	
4376	0	32840	31439	
4377	0	32908	33209	
4378	0	33308	34213	
4379	0	33281	33874	
4380	0	33302	34173	
4381	0	33118	33871	
4382	0	32985	32248	
4383	0	32531	30709	
4384	0	32276	30409	
4385	0	32012	31442	
4386	0	31992	32886	
4387	0	32355	34338	
4388	0	32678	33501	
4389	0	32976	32917	
4390	0	33276	33607	
4391	0	33132	33542	
4392	0	33026	32999	
4393	0	33186	33248	
4394	0	33056	32875	
4395	0	33104	32086	
4396	0	32848	31376	
4397	0	32600	31419	
4398	0	32622	32294	
4399	0	32656	33206	
4400	0	33308	33031	
4401	0	33422	32457	
4402	0	33573	32957	
4403	0	33458	33743	
4404	0	33236	33799	
4405	0	32826	31940	
4406	0	32764	32519	
4407	0	32960	33330	
4408	0	32626	34055	
4409	0	32132	33287	
4410	0	31842	33159	
4411	0	31534	33401	
4412	0	31500	33522	
4413	0	31784	32668	
4414	0	32230	32860	
4415	0	32732	32608	
4416	0	32893	32322	
4417	0	33044	32199	
4418	0	32928	32289	
4419	0	32966	31631	
4420	0	33082	31206	
4421	0	33458	31782	
4422	0	33505	32850	
4423	0	33078	33671	
4424	0	32946	33730	
4425	0	32768	34118	
4426	0	32690	33932	
4427	0	32646	32784	
4428	0	32692	32743	
4429	0	32726	32304	
4430	0	32764	31998	
4431	0	32917	32123	
4432	0	33116	31781	
4433	0	33181	32059	
4434	0	33130	33111	
4435	0	32964	32626	
4436	0	32820	32317	
4437	0	32906	33420	
4438	0	32636	34365	
4439	0	32400	34511	
4440	0	32374	33055	
4441	0	32552	32217	
4442	0	32728	31626	
4443	0	32706	32805	
4444	0	32730	33588	
4445	0	32720	33690	
4446	0	32636	32982	
4447	0	32741	32371	
4448	0	32940	32740	
4449	0	33554	32389	
4450	0	34354	32167	
4451	0	33900	32139	
4452	0	32989	32791	
4453	0	32584	33823	
4454	0	31972	34032	
4455	0	31724	33091	
4456	0	31854	33309	
4457	0	32011	33033	
4458	0	32177	32860	
4459	0	32454	32532	
4460	0	32556	31988	
4461	0	32740	31780	
4462	0	33044	31502	
4463	0	33234	31682	
4464	0	33276	32263	
4465	0	33282	32791	
4466	0	33074	33052	
4467	0	33072	33181	
4468	0	32888	33495	
4469	0	33385	32605	
4470	0	33700	32525	
4471	0	33496	32537	
4472	0	33172	32184	
4473	0	32774	31742	
4474	0	32336	32099	
4475	0	32032	34058	
4476	0	31892	36144	
4477	0	32162	35025	
4478	0	32227	33415	
4479	0	32016	33134	
4480	0	32452	32694	
4481	0	32720	32957	
4482	0	32912	32285	
4483	0	33350	31986	
4484	0	33357	31444	
4485	0	33270	31592	
4486	0	33181	32083	
4487	0	33114	32445	
4488	0	32348	32293	
4489	0	32208	32517	
4490	0	32314	34196	
4491	0	32969	34322	
4492	0	32936	32815	
4493	0	32930	32408	
4494	0	32996	32721	
4495	0	33006	33559	
4496	0	33064	33671	
4497	0	32880	34004	
4498	0	32742	33476	
4499	0	33034	32864	
4500	0	33028	30267	
4501	0	32668	28989	
4502	0	32488	31318	
4503	0	32500	34144	
4504	0	32517	36046	
4505	0	32704	33902	
4506	0	32790	33476	
4507	0	32774	33600	
4508	0	32980	31413	
4509	0	33480	31434	
4510	0	33674	31176	
4511	0	33560	30460	
4512	0	33411	31751	
4513	0	32766	33996	
4514	0	32290	34447	
4515	0	32056	34016	
4516	0	32268	34001	
4517	0	32384	35004	
4518	0	32272	34502	
4519	0	32126	32893	
4520	0	32144	30340	
4521	0	32304	30460	
4522	0	32469	32442	
4523	0	32612	32900	
4524	0	32496	33351	
4525	0	32868	33697	
4526	0	33400	33671	
4527	0	33460	32826	
4528	0	33148	33241	
4529	0	33293	32898	
4530	0	33087	33208	
4531	0	32791	32438	
4532	0	32796	31574	
4533	0	32364	30856	
4534	0	32048	30964	
4535	0	32117	31943	
4536	0	32204	33888	
4537	0	32492	33827	
4538	0	32952	32854	
4539	0	33666	33338	
4540	0	34367	33332	
4541	0	33948	33135	
4542	0	33276	32675	
4543	0	32856	33159	
4544	0	32581	32903	
4545	0	32228	32825	
4546	0	32074	33422	
4547	0	31941	33983	
4548	0	32400	33504	
4549	0	32810	32162	
4550	0	33180	31433	
4551	0	33216	32195	
4552	0	32694	32421	
4553	0	32518	31986	
4554	0	32677	32996	
4555	0	32888	32819	
4556	0	33232	33287	
4557	0	33398	32980	
4558	0	33489	32455	
4559	0	33624	32750	
4560	0	33400	33993	
4561	0	32906	33372	
4562	0	32326	33042	
4563	0	31700	32314	
4564	0	31692	31687	
4565	0	32200	31111	
4566	0	32686	32933	
4567	0	33420	34048	
4568	0	33814	34025	
4569	0	34032	34364	
4570	0	34092	32733	
4571	0	33602	31617	
4572	0	32936	32796	
4573	0	32144	33422	
4574	0	31824	32548	
4575	0	31340	32232	
4576	0	31078	32196	
4577	0	31200	32784	
4578	0	31166	32671	
4579	0	31938	31471	
4580	0	32640	32969	
4581	0	33092	33918	
4582	0	33384	33642	
4583	0	33516	32711	
4584	0	33568	32724	
4585	0	33345	33420	
4586	0	33150	34242	
4587	0	33252	32573	
4588	0	33328	31843	
4589	0	33610	32064	
4590	0	34244	31216	
4591	0	34328	32057	
4592	0	33842	33351	
4593	0	32852	34084	
4594	0	31954	34646	
4595	0	31258	31694	
4596	0	30928	30285	
4597	0	31044	31581	
4598	0	31452	31765	
4599	0	32620	33984	
4600	0	33420	34628	
4601	0	32114	34538	
4602	0	32120	33262	
4603	0	32288	32563	
4604	0	32460	33410	
4605	0	33053	32706	
4606	0	33688	32227	
4607	0	34024	33350	
4608	0	34380	34814	
4609	0	34414	33723	
4610	0	34236	32733	
4611	0	33749	32397	
4612	0	33332	32136	
4613	0	32945	31371	
4614	0	32562	31688	
4615	0	32112	32281	
4616	0	31712	32443	
4617	0	31738	32841	
4618	0	32196	32768	
4619	0	32484	32722	
4620	0	32744	33391	
4621	0	32964	33922	
4622	0	33168	33767	
4623	0	32932	32957	
4624	0	32884	32740	
4625	0	32824	31224	
4626	0	32632	30855	
4627	0	32788	30394	
4628	0	32742	30888	
4629	0	32546	33993	
4630	0	32526	34151	
4631	0	32440	33982	
4632	0	32712	34564	
4633	0	32836	34162	
4634	0	32874	32724	
4635	0	32796	32020	
4636	0	32882	32508	
4637	0	33342	33042	
4638	0	33444	32998	
4639	0	33118	32656	
4640	0	32984	32656	
4641	0	32326	33192	
4642	0	32210	32383	
4643	0	33040	32350	
4644	0	33286	32698	
4645	0	33026	32690	
4646	0	32748	32694	
4647	0	32236	32348	
4648	0	31965	33223	
4649	0	32118	32708	
4650	0	32284	32072	
4651	0	32938	32192	
4652	0	33249	32942	
4653	0	32868	33394	
4654	0	32612	32969	
4655	0	32641	32946	
4656	0	32559	33719	
4657	0	32848	33449	
4658	0	33076	32999	
4659	0	33195	33232	
4660	0	33349	33474	
4661	0	33298	32663	
4662	0	33802	31775	
4663	0	33648	31760	
4664	0	33120	31893	
4665	0	32338	31805	
4666	0	31814	32077	
4667	0	32000	32738	
4668	0	32233	33890	
4669	0	32468	34980	
4670	0	33270	34761	
4671	0	32932	32888	
4672	0	32677	31746	
4673	0	32456	31751	
4674	0	32448	30891	
4675	0	32111	30516	
4676	0	32175	32349	
4677	0	32612	33640	
4678	0	32720	34096	
4679	0	32807	34880	
4680	0	33170	35772	
4681	0	32904	35170	
4682	0	32765	32568	
4683	0	33032	30719	
4684	0	33261	30043	
4685	0	33792	30609	
4686	0	34120	32529	
4687	0	33579	33717	
4688	0	33212	33180	
4689	0	32412	32208	
4690	0	31776	34222	
4691	0	31840	34752	
4692	0	31992	33684	
4693	0	32532	32827	
4694	0	33436	31844	
4695	0	33680	31543	
4696	0	34052	30773	
4697	0	34164	31193	
4698	0	33398	33624	
4699	0	32706	34362	
4700	0	32168	33148	
4701	0	31762	32306	
4702	0	31266	32191	
4703	0	31150	33363	
4704	0	31706	33247	
4705	0	32249	33151	
4706	0	32820	32291	
4707	0	33378	32084	
4708	0	33680	33100	
4709	0	33294	33389	
4710	0	33220	33538	
4711	0	32997	32325	
4712	0	32912	32511	
4713	0	32948	31951	
4714	0	32767	31822	
4715	0	32528	34048	
4716	0	32472	34793	
4717	0	32636	34188	
4718	0	33314	33483	
4719	0	33796	32489	
4720	0	33808	31308	
4721	0	33186	32047	
4722	0	32832	32459	
4723	0	32364	32421	
4724	0	31944	32469	
4725	0	31976	32384	
4726	0	31700	31886	
4727	0	31700	31481	
4728	0	32044	33159	
4729	0	32712	33106	
4730	0	33100	33858	
4731	0	33620	34336	
4732	0	33682	33683	
4733	0	33314	33351	
4734	0	33170	32676	
4735	0	32916	33230	
4736	0	32886	33181	
4737	0	32868	33190	
4738	0	32908	32733	
4739	0	33040	32212	
4740	0	32596	32250	
4741	0	32700	31814	
4742	0	32932	31848	
4743	0	33092	32697	
4744	0	33081	31732	
4745	0	32795	32380	
4746	0	32760	33714	
4747	0	32494	33048	
4748	0	32442	31879	
4749	0	32440	32288	
4750	0	32413	33453	
4751	0	32736	33868	
4752	0	33664	33449	
4753	0	33482	33522	
4754	0	33260	34034	
4755	0	32634	33058	
4756	0	32773	31543	
4757	0	32571	31693	
4758	0	32461	30759	
4759	0	32668	33097	
4760	0	32344	33010	
4761	0	31816	32684	
4762	0	31664	32903	
4763	0	32361	32437	
4764	0	33148	31569	
4765	0	33572	34270	
4766	0	33676	35120	
4767	0	33624	34538	
4768	0	33640	32514	
4769	0	33252	32984	
4770	0	32968	34290	
4771	0	32800	34038	
4772	0	32313	32827	
4773	0	32242	32674	
4774	0	32086	32375	
4775	0	32388	31956	
4776	0	32504	31704	
4777	0	32774	31856	
4778	0	32924	32032	
4779	0	32957	32489	
4780	0	32900	32420	
4781	0	32944	32389	
4782	0	32884	32457	
4783	0	32865	32797	
4784	0	32754	33287	
4785	0	32740	33432	
4786	0	32784	33244	
4787	0	32969	32132	
4788	0	32951	31560	
4789	0	33039	31049	
4790	0	33208	31588	
4791	0	33092	32805	
4792	0	32746	34707	
4793	0	32588	34745	
4794	0	32816	34037	
4795	0	32691	33302	
4796	0	32436	33273	
4797	0	32629	32400	
4798	0	32634	31691	
4799	0	32480	32098	
4800	0	32448	33138	
4801	0	32408	33236	
4802	0	33076	32284	
4803	0	33656	32448	
4804	0	33892	32788	
4805	0	33088	33693	
4806	0	33104	33948	
4807	0	32888	32893	
4808	0	32492	32359	
4809	0	32365	31954	
4810	0	32624	32665	
4811	0	32732	32041	
4812	0	32968	30851	
4813	0	33376	31703	
4814	0	33558	32962	
4815	0	33592	32815	
4816	0	33252	33812	
4817	0	31888	34172	
4818	0	30066	33618	
4819	0	30422	33746	
4820	0	31056	32578	
4821	0	31751	32306	
4822	0	32608	32738	
4823	0	33506	33829	
4824	0	34590	33110	
4825	0	34560	32966	
4826	0	34136	33351	
4827	0	34096	32558	
4828	0	33481	32210	
4829	0	32883	32233	
4830	0	31757	32466	
4831	0	32137	32559	
4832	0	32637	32633	
4833	0	32372	32217	
4834	0	32494	32802	
4835	0	32912	33270	
4836	0	33618	33192	
4837	0	33963	33028	
4838	0	34184	33376	
4839	0	33772	33335	
4840	0	32746	32637	
4841	0	31964	32532	
4842	0	31589	32613	
4843	0	31265	32263	
4844	0	31227	32432	
4845	0	31840	32415	
4846	0	32524	32368	
4847	0	33253	32066	
4848	0	33636	32466	
4849	0	33500	32917	
4850	0	33156	33655	
4851	0	32934	32844	
4852	0	32512	31716	
4853	0	32644	31864	
4854	0	33556	32796	
4855	0	33294	33880	
4856	0	33140	34296	
4857	0	32952	33313	
4858	0	32805	34150	
4859	0	33046	33440	
4860	0	33034	31720	
4861	0	32580	31675	
4862	0	32320	30645	
4863	0	32340	32843	
4864	0	32018	33355	
4865	0	32162	32087	
4866	0	32706	33852	
4867	0	33032	34701	
4868	0	33092	33829	
4869	0	32864	32706	
4870	0	32733	32373	
4871	0	32752	32210	
4872	0	32680	32212	
4873	0	32826	32283	
4874	0	32637	31736	
4875	0	32716	32017	
4876	0	33096	32769	
4877	0	33204	32978	
4878	0	32936	32937	
4879	0	32716	33214	
4880	0	32646	32208	
4881	0	33024	32708	
4882	0	33140	33526	
4883	0	32696	33170	
4884	0	33020	35024	
4885	0	32660	34452	
4886	0	32618	33282	
4887	0	32814	32349	
4888	0	32832	32568	
4889	0	32889	33658	
4890	0	33116	32697	
4891	0	33138	32790	
4892	0	33120	32775	
4893	0	32860	33047	
4894	0	32674	31717	
4895	0	32206	31048	
4896	0	32164	29701	
4897	0	32426	30841	
4898	0	32644	34118	
4899	0	32556	35556	
4900	0	32358	35227	
4901	0	32336	34400	
4902	0	32397	32253	
4903	0	32842	31311	
4904	0	32976	32022	
4905	0	32936	32662	
4906	0	33802	34265	
4907	0	33872	33699	
4908	0	33320	32989	
4909	0	34050	31950	
4910	0	33927	31988	
4911	0	32788	29641	
4912	0	32041	32008	
4913	0	31470	33168	
4914	0	30884	34472	
4915	0	30720	34420	
4916	0	31178	33799	
4917	0	32604	33781	
4918	0	33506	33030	
4919	0	34026	32236	
4920	0	34380	32288	
4921	0	34172	33141	
4922	0	33337	32543	
4923	0	33044	32051	
4924	0	33128	31832	
4925	0	33601	32431	
4926	0	33156	32706	
4927	0	32837	32813	
4928	0	32264	33102	
4929	0	31296	33013	
4930	0	30708	32698	
4931	0	30608	32477	
4932	0	31492	32436	
4933	0	32615	32940	
4934	0	33560	33223	
4935	0	34048	32745	
4936	0	33828	32427	
4937	0	33645	32903	
4938	0	33330	32600	
4939	0	33394	32722	
4940	0	33348	31878	
4941	0	33042	31449	
4942	0	33158	32676	
4943	0	32904	34566	
4944	0	32626	33744	
4945	0	32184	32455	
4946	0	32578	33945	
4947	0	32458	34492	
4948	0	32446	33013	
4949	0	32564	31568	
4950	0	32328	32353	
4951	0	32572	32644	
4952	0	32568	32672	
4953	0	32704	32309	
4954	0	33618	32240	
4955	0	34580	33093	
4956	0	33712	33545	
4957	0	33460	32896	
4958	0	33092	32918	
4959	0	32471	33363	
4960	0	31772	32846	
4961	0	31687	32585	
4962	0	32139	32339	
4963	0	32764	32409	
4964	0	33500	31465	
4965	0	33825	32617	
4966	0	34128	35504	
4967	0	33762	34930	
4968	0	32848	33018	
4969	0	31904	32176	
4970	0	31552	32075	
4971	0	31060	31878	
4972	0	31324	31079	
4973	0	32344	29804	
4974	0	32836	31782	
4975	0	33232	34661	
4976	0	33130	35018	
4977	0	32514	33655	
4978	0	32088	33584	
4979	0	31984	33202	
4980	0	32520	32818	
4981	0	32992	33036	
4982	0	33499	32679	
4983	0	34520	32367	
4984	0	34026	31963	
4985	0	34114	32593	
4986	0	33654	32429	
4987	0	32776	32557	
4988	0	32056	33030	
4989	0	31172	32943	
4990	0	31418	33053	
4991	0	32109	32430	
4992	0	32805	32290	
4993	0	32982	32528	
4994	0	32537	33541	
4995	0	32764	32900	
4996	0	33008	32569	
4997	0	32766	33098	
4998	0	33094	33283	
4999	0	33105	33458	
5000	0	33512	33351	
5001	0	33240	32883	
5002	0	33033	31808	
5003	0	33228	31457	
5004	0	33274	32280	
5005	0	32929	32813	
5006	0	32587	32935	
5007	0	32372	34163	
5008	0	32484	33976	
5009	0	32562	33400	
5010	0	32632	32625	
5011	0	32714	32547	
5012	0	32812	31904	
5013	0	32772	31164	
5014	0	32782	31878	
5015	0	33296	33440	
5016	0	33295	33900	
5017	0	33076	33787	
5018	0	32688	33475	
5019	0	31761	32598	
5020	0	31820	31989	
5021	0	32226	32051	
5022	0	32972	31799	
5023	0	33496	31736	
5024	0	33568	31922	
5025	0	32574	33528	
5026	0	32750	35143	
5027	0	32774	33174	
5028	0	32584	32679	
5029	0	32736	31751	
5030	0	33156	32457	
5031	0	32944	33678	
5032	0	33054	33287	
5033	0	32960	32967	
5034	0	32850	33040	
5035	0	32188	32886	
5036	0	31821	32329	
5037	0	31964	32740	
5038	0	32888	32562	
5039	0	33493	32648	
5040	0	34379	32200	
5041	0	34432	32599	
5042	0	34080	32973	
5043	0	33650	32801	
5044	0	33369	31070	
5045	0	32316	32201	
5046	0	31472	34810	
5047	0	31292	34148	
5048	0	31100	32790	
5049	0	31353	32865	
5050	0	32013	33001	
5051	0	32493	32409	
5052	0	33056	32297	
5053	0	33251	32978	
5054	0	33570	33627	
5055	0	33024	33111	
5056	0	32664	32423	
5057	0	32593	32813	
5058	0	32607	32924	
5059	0	33240	32713	
5060	0	33799	32613	
5061	0	33840	32424	
5062	0	33400	32218	
5063	0	33255	33027	
5064	0	32654	32942	
5065	0	32217	33252	
5066	0	31580	32815	
5067	0	31128	32615	
5068	0	31068	33219	
5069	0	31416	33460	
5070	0	32824	33316	
5071	0	33624	32097	
5072	0	33656	32564	
5073	0	33900	32639	
5074	0	33744	32071	
5075	0	33312	32407	
5076	0	32962	33300	
5077	0	32416	33159	
5078	0	32699	32190	
5079	0	33017	31506	
5080	0	33414	32436	
5081	0	33504	33046	
5082	0	33232	32688	
5083	0	32964	31815	
5084	0	33020	31202	
5085	0	32998	34014	
5086	0	32784	34290	
5087	0	32724	34418	
5088	0	33289	33434	
5089	0	33628	33044	
5090	0	33576	32593	
5091	0	32373	32332	
5092	0	30934	32263	
5093	0	30096	33346	
5094	0	30352	33336	
5095	0	31744	32792	
5096	0	33092	32920	
5097	0	33818	33120	
5098	0	33996	32543	
5099	0	33916	32532	
5100	0	34172	32915	
5101	0	33554	32788	
5102	0	33192	32600	
5103	0	32680	31941	
5104	0	32140	32130	
5105	0	31501	31788	
5106	0	31673	32404	
5107	0	32076	33458	
5108	0	32480	32615	
5109	0	32988	33328	
5110	0	33493	34529	
5111	0	33398	33655	
5112	0	33261	33003	
5113	0	33282	32624	
5114	0	33799	32701	
5115	0	33736	32605	
5116	0	33524	32665	
5117	0	33188	32829	
5118	0	32384	32975	
5119	0	32348	32581	
5120	0	32368	32512	
5121	0	32211	32569	
5122	0	32103	32686	
5123	0	31588	33071	
5124	0	31328	32857	
5125	0	32114	32643	
5126	0	33148	32509	
5127	0	33708	32757	
5128	0	33930	32758	
5129	0	33836	32682	
5130	0	33124	32654	
5131	0	32762	32585	
5132	0	32537	33061	
5133	0	32490	33453	
5134	0	32196	33117	
5135	0	32234	31893	
5136	0	32229	31995	
5137	0	32024	32103	
5138	0	32274	32462	
5139	0	32640	32617	
5140	0	33040	33070	
5141	0	33522	33632	
5142	0	33578	34094	
5143	0	33444	33562	
5144	0	32956	32420	
5145	0	32684	32460	
5146	0	32944	32156	
5147	0	33206	32598	
5148	0	33561	32517	
5149	0	33597	32558	
5150	0	33294	32668	
5151	0	32512	33280	
5152	0	31480	33300	
5153	0	31155	33672	
5154	0	31384	33253	
5155	0	32102	32361	
5156	0	33384	32788	
5157	0	34192	32826	
5158	0	34196	32293	
5159	0	33765	32587	
5160	0	32729	33277	
5161	0	32064	32915	
5162	0	31546	32515	
5163	0	32504	32456	
5164	0	34020	32514	
5165	0	34360	33250	
5166	0	33876	32882	
5167	0	33160	32791	
5168	0	32344	32959	
5169	0	31540	32944	
5170	0	31220	32680	
5171	0	31572	32397	
5172	0	31998	32535	
5173	0	32234	33052	
5174	0	33122	33027	
5175	0	33768	33057	
5176	0	33444	32839	
5177	0	33228	33076	
5178	0	32704	33081	
5179	0	32274	32549	
5180	0	31836	32351	
5181	0	31544	32120	
5182	0	31968	32032	
5183	0	33219	32439	
5184	0	34008	32955	
5185	0	34025	33512	
5186	0	33796	32667	
5187	0	33184	32484	
5188	0	32263	32441	
5189	0	32161	32864	
5190	0	32853	33156	
5191	0	33145	33441	
5192	0	32780	33309	
5193	0	33144	33252	
5194	0	32992	32906	
5195	0	32301	32775	
5196	0	32020	32727	
5197	0	32408	32950	
5198	0	32898	32692	
5199	0	33137	32806	
5200	0	33400	32548	
5201	0	33177	32460	
5202	0	32840	32674	
5203	0	32879	32152	
5204	0	32972	32006	
5205	0	32788	32524	
5206	0	32713	33984	
5207	0	32683	33582	
5208	0	32564	32651	
5209	0	32500	32632	
5210	0	32673	32914	
5211	0	32896	32890	
5212	0	33109	32605	
5213	0	33154	32515	
5214	0	32692	32150	
5215	0	32113	32142	
5216	0	32272	32409	
5217	0	32588	33127	
5218	0	33301	33634	
5219	0	33434	33360	
5220	0	33372	33445	
5221	0	32978	33184	
5222	0	32713	32834	
5223	0	32768	32805	
5224	0	32495	32775	
5225	0	32450	32350	
5226	0	32350	32256	
5227	0	32488	32654	
5228	0	32708	32444	
5229	0	32909	32576	
5230	0	33030	32934	
5231	0	33088	33154	
5232	0	33120	32916	
5233	0	32896	32487	
5234	0	32994	32640	
5235	0	32755	33170	
5236	0	32696	32827	
5237	0	32668	32736	
5238	0	32640	32937	
5239	0	32592	32976	
5240	0	32669	32827	
5241	0	32834	32656	
5242	0	32928	32749	
5243	0	32868	32754	
5244	0	32976	32647	
5245	0	32866	32716	
5246	0	32932	32675	
5247	0	32884	32674	
5248	0	32856	32604	
5249	0	32858	32820	
5250	0	32724	32731	
5251	0	32786	32766	
5252	0	32696	32955	
5253	0	32676	33127	
5254	0	32702	32622	
5255	0	32738	32819	
5256	0	32848	33055	
5257	0	32729	32850	
5258	0	32720	32802	
5259	0	32790	32638	
5260	0	32820	32883	
5261	0	32784	32639	
5262	0	32756	32486	
5263	0	32716	32285	
5264	0	32891	32593	
5265	0	32962	32966	
5266	0	32928	33196	
5267	0	32860	32976	
5268	0	32900	32966	
5269	0	32864	33071	
5270	0	32736	33248	
5271	0	32840	32760	
5272	0	32804	32465	
5273	0	32790	32395	
5274	0	32712	32613	
5275	0	32864	32797	
5276	0	32749	32995	
5277	0	32846	33090	
5278	0	32790	32813	
5279	0	32782	32740	
5280	0	32715	32496	
5281	0	32714	32781	
5282	0	32728	32898	
5283	0	32696	32939	
5284	0	32768	32697	
5285	0	32741	32690	
5286	0	32712	32870	
5287	0	32788	32912	
5288	0	32717	33074	
5289	0	32698	32848	
5290	0	32810	32874	
5291	0	32848	32713	
5292	0	32830	32702	
5293	0	32915	32978	
5294	0	32850	32812	
5295	0	32864	32365	
5296	0	32810	32366	
5297	0	32776	32526	
5298	0	32820	32578	
5299	0	32816	32639	
5300	0	32758	32933	
5301	0	32651	33317	
5302	0	32618	33253	
5303	0	32568	32726	
5304	0	32558	32681	
5305	0	32720	32682	
5306	0	32890	32604	
5307	0	32897	32697	
5308	0	32990	32765	
5309	0	33092	32966	
5310	0	33214	33052	
5311	0	33148	33143	
5312	0	32848	32654	
5313	0	32301	32485	
5314	0	32928	32553	
5315	0	33508	32705	
5316	0	33480	32925	
5317	0	33008	33049	
5318	0	32540	32875	
5319	0	31975	32813	
5320	0	31634	32734	
5321	0	31564	32722	
5322	0	32041	32769	
5323	0	32696	32796	
5324	0	33315	32733	
5325	0	33320	32708	
5326	0	33168	32750	
5327	0	33176	32802	
5328	0	33261	32869	
5329	0	33080	32751	
5330	0	32972	32710	
5331	0	32817	32789	
5332	0	32740	32836	
5333	0	32696	32780	
5334	0	32652	32859	
5335	0	32621	32775	
5336	0	32640	32841	
5337	0	32670	32856	
5338	0	32692	32829	
5339	0	32915	32964	
5340	0	32990	32834	
5341	0	32976	32848	
5342	0	32913	32739	
5343	0	32860	32866	
5344	0	32853	32642	
5345	0	32828	32775	
5346	0	32801	32968	
5347	0	32839	32871	
5348	0	32740	32878	
5349	0	32802	32871	
5350	0	32766	32550	
5351	0	32706	32688	
5352	0	32580	32745	
5353	0	32726	32727	
5354	0	32709	32739	
5355	0	32824	32873	
5356	0	32946	32905	
5357	0	32940	32823	
5358	0	33094	32926	
5359	0	32957	32972	
5360	0	32740	32976	
5361	0	32582	32820	
5362	0	32596	32795	
5363	0	32680	32791	
5364	0	32630	32657	
5365	0	33032	32692	
5366	0	33040	32636	
5367	0	33028	32845	
5368	0	33000	33019	
5369	0	33014	33112	
5370	0	32764	32775	
5371	0	32464	32680	
5372	0	32402	32620	
5373	0	32274	32821	
5374	0	32386	32903	
5375	0	32708	32867	
5376	0	32976	32872	
5377	0	33032	32729	
5378	0	32908	32676	
5379	0	32984	32626	
5380	0	32902	32773	
5381	0	32810	32823	
5382	0	32280	32831	
5383	0	32450	32766	
5384	0	32775	32750	
5385	0	33078	32787	
5386	0	33154	32671	
5387	0	33152	32628	
5388	0	33108	32625	
5389	0	32996	32694	
5390	0	32960	32788	
5391	0	32864	32717	
5392	0	32788	32798	
5393	0	32650	32738	
5394	0	32726	32719	
5395	0	32622	32654	
5396	0	32544	32797	
5397	0	32624	32760	
5398	0	32724	32790	
5399	0	32738	32708	
5400	0	32696	32767	
5401	0	32808	32745	
5402	0	32692	32677	
5403	0	32846	32720	
5404	0	32852	32767	
5405	0	32727	32730	
5406	0	32804	32808	
5407	0	32832	32895	
5408	0	32556	32818	
5409	0	32621	32799	
5410	0	32824	32799	
5411	0	33152	32866	
5412	0	33124	32935	
5413	0	33088	33012	
5414	0	33104	33001	
5415	0	33268	32885	
5416	0	33176	32823	
5417	0	32770	32802	
5418	0	32738	32828	
5419	0	32596	32850	
5420	0	32430	32807	
5421	0	32364	32668	
5422	0	32433	32662	
5423	0	32402	32760	
5424	0	32464	32775	
5425	0	32737	32865	
5426	0	32738	32771	
5427	0	32837	32671	
5428	0	32892	32697	
5429	0	32866	32743	
5430	0	32720	32807	
5431	0	32792	32688	
5432	0	32788	32804	
5433	0	32646	32836	
5434	0	32775	32888	
5435	0	32892	32828	
5436	0	33076	32895	
5437	0	33188	32868	
5438	0	33138	32822	
5439	0	33040	32846	
5440	0	33004	32882	
5441	0	32829	32849	
5442	0	32738	32811	
5443	0	32587	32804	
5444	0	32711	32879	
5445	0	32612	32903	
5446	0	32608	32926	
5447	0	32666	32930	
5448	0	32816	32918	
5449	0	32873	32897	
5450	0	32942	32870	
5451	0	32902	32804	
5452	0	32877	32700	
5453	0	32877	32739	
5454	0	32906	32784	
5455	0	32832	32670	
5456	0	32752	32647	
5457	0	32712	32694	
5458	0	32677	32699	
5459	0	32660	32752	
5460	0	32606	32695	
5461	0	32628	32654	
5462	0	32696	32744	
5463	0	32856	32816	
5464	0	32896	32713	
5465	0	32872	32742	
5466	0	32808	32696	
5467	0	32773	32812	
5468	0	32676	32831	
5469	0	32841	32701	
5470	0	32972	32683	
5471	0	33148	32714	
5472	0	33065	32749	
5473	0	32818	32848	
5474	0	32748	32846	
5475	0	32524	32850	
5476	0	32346	32853	
5477	0	32376	32867	
5478	0	32476	32878	
5479	0	32694	33029	
5480	0	33058	32908	
5481	0	33451	32822	
5482	0	33896	32737	
5483	0	33682	32749	
5484	0	33188	32711	
5485	0	32644	32700	
5486	0	32180	32737	
5487	0	31833	32682	
5488	0	31792	32697	
5489	0	32161	32822	
5490	0	32552	32847	
5491	0	32954	32724	
5492	0	33095	32810	
5493	0	32885	32788	
5494	0	32611	32793	
5495	0	32263	32692	
5496	0	32520	32650	
5497	0	33210	32675	
5498	0	33444	32664	
5499	0	33552	32696	
5500	0	33664	32696	
5501	0	33090	32848	
5502	0	32792	32785	
5503	0	32312	32772	
5504	0	32588	32775	
5505	0	32732	32647	
5506	0	32816	32736	
5507	0	33076	32632	
5508	0	33289	32745	
5509	0	32809	32935	
5510	0	32442	32949	
5511	0	32564	32873	
5512	0	32590	32884	
5513	0	32412	32951	
5514	0	31904	32646	
5515	0	31898	32664	
5516	0	31940	32664	
5517	0	32188	32735	
5518	0	32800	32909	
5519	0	33188	32927	
5520	0	33414	32980	
5521	0	33244	32813	
5522	0	33512	32821	
5523	0	34052	32739	
5524	0	34148	32734	
5525	0	33750	32743	
5526	0	33214	32891	
5527	0	32352	32730	
5528	0	31527	32733	
5529	0	31442	32733	
5530	0	31862	32765	
5531	0	32732	32710	
5532	0	32880	32843	
5533	0	32869	32818	
5534	0	32896	32875	
5535	0	32584	32942	
5536	0	32472	32908	
5537	0	32572	32791	
5538	0	32744	32744	
5539	0	32856	32733	
5540	0	32877	32596	
5541	0	33090	32654	
5542	0	33409	32669	
5543	0	33560	32842	
5544	0	33852	32775	
5545	0	33540	32811	
5546	0	33312	32871	
5547	0	33204	32759	
5548	0	32592	32793	
5549	0	32073	32706	
5550	0	31657	32862	
5551	0	31542	32795	
5552	0	31924	32791	
5553	0	32296	32878	
5554	0	32901	32808	
5555	0	33288	32820	
5556	0	33404	32875	
5557	0	33285	32717	
5558	0	33101	32862	
5559	0	32810	32919	
5560	0	32844	32684	
5561	0	33093	32724	
5562	0	32932	32680	
5563	0	32836	32732	
5564	0	32556	32790	
5565	0	32502	32867	
5566	0	32190	32888	
5567	0	32356	32857	
5568	0	32486	32742	
5569	0	32745	32855	
5570	0	32978	32885	
5571	0	33208	32747	
5572	0	33216	32756	
5573	0	33168	32839	
5574	0	33064	32927	
5575	0	33027	32814	
5576	0	32944	32920	
5577	0	32840	32770	
5578	0	32784	32590	
5579	0	32760	32684	
5580	0	32656	32665	
5581	0	32662	32767	
5582	0	32598	32718	
5583	0	32549	32787	
5584	0	32812	32643	
5585	0	33058	32662	
5586	0	33046	32887	
5587	0	32820	33059	
5588	0	32836	33184	
5589	0	32558	33024	
5590	0	32577	32690	
5591	0	32508	32681	
5592	0	32562	32607	
5593	0	32797	32788	
5594	0	32692	32802	
5595	0	32932	32849	
5596	0	33216	32735	
5597	0	33209	32708	
5598	0	33097	32775	
5599	0	32842	32850	
5600	0	32829	32775	
5601	0	33874	32876	
5602	0	33604	32945	
5603	0	33772	32880	
5604	0	33112	32856	
5605	0	31980	32856	
5606	0	30568	32768	
5607	0	29588	32841	
5608	0	29740	32792	
5609	0	31032	32882	
5610	0	32460	32839	
5611	0	34180	32713	
5612	0	35084	32687	
5613	0	34685	32674	
5614	0	34034	32799	
5615	0	33490	32728	
5616	0	33232	32890	
5617	0	32924	32917	
5618	0	32808	32863	
5619	0	32714	32831	
5620	0	32713	32762	
5621	0	32646	32738	
5622	0	32693	32677	
5623	0	32364	32692	
5624	0	32388	32656	
5625	0	32589	32771	
5626	0	32912	32816	
5627	0	32862	32834	
5628	0	32912	32775	
5629	0	32972	32775	
5630	0	33016	32679	
5631	0	32769	32726	
5632	0	32676	32695	
5633	0	32700	32660	
5634	0	33024	32686	
5635	0	32972	32791	
5636	0	32592	32783	
5637	0	32722	32658	
5638	0	32788	32758	
5639	0	32868	32790	
5640	0	33019	32903	
5641	0	33095	32940	
5642	0	32936	32922	
5643	0	32777	32796	
5644	0	32832	32718	
5645	0	32804	32808	
5646	0	32605	32822	
5647	0	32290	32840	
5648	0	32153	32795	
5649	0	32138	32736	
5650	0	32477	32826	
5651	0	33042	32782	
5652	0	33117	32797	
5653	0	33076	32701	
5654	0	33044	32858	
5655	0	33400	32680	
5656	0	33148	32595	
5657	0	32924	32750	
5658	0	32646	32598	
5659	0	32480	32782	
5660	0	32417	32946	
5661	0	32484	32950	
5662	0	32834	32875	
5663	0	33200	32836	
5664	0	33289	32761	
5665	0	32872	32708	
5666	0	32504	32665	
5667	0	32308	32614	
5668	0	32320	32766	
5669	0	32512	32890	
5670	0	33011	32990	
5671	0	32784	33124	
5672	0	32848	33114	
5673	0	32797	32830	
5674	0	32764	32830	
5675	0	32848	32863	
5676	0	32924	32720	
5677	0	33289	32745	
5678	0	33462	32784	
5679	0	33448	32754	
5680	0	33040	32787	
5681	0	32790	32799	
5682	0	32864	32809	
5683	0	32866	32669	
5684	0	32824	32823	
5685	0	32416	32789	
5686	0	32025	32799	
5687	0	31479	32852	
5688	0	30964	32832	
5689	0	30992	32884	
5690	0	31995	32926	
5691	0	33282	32834	
5692	0	34094	32939	
5693	0	34311	32758	
5694	0	33956	32728	
5695	0	33432	32612	
5696	0	33162	32667	
5697	0	33270	32839	
5698	0	33186	32716	
5699	0	32984	32832	
5700	0	32756	32903	
5701	0	32702	32985	
5702	0	32788	32818	
5703	0	32760	32673	
5704	0	32633	32766	
5705	0	32709	32760	
5706	0	32807	32773	
5707	0	32564	32681	
5708	0	32452	32732	
5709	0	32304	32637	
5710	0	32228	32610	
5711	0	32201	32651	
5712	0	32441	32749	
5713	0	32790	32872	
5714	0	32924	32770	
5715	0	33022	32742	
5716	0	33322	32790	
5717	0	33301	32686	
5718	0	33152	32662	
5719	0	32872	32696	
5720	0	32896	32676	
5721	0	32800	32747	
5722	0	32906	32592	
5723	0	32925	32670	
5724	0	33084	32743	
5725	0	33276	32709	
5726	0	33181	32758	
5727	0	33032	32761	
5728	0	32636	32741	
5729	0	32297	32756	
5730	0	32120	32752	
5731	0	32120	32686	
5732	0	32496	32734	
5733	0	32728	32867	
5734	0	33178	32850	
5735	0	33204	32745	
5736	0	33081	32918	
5737	0	32982	32906	
5738	0	32862	32851	
5739	0	32672	32982	
5740	0	32616	33095	
5741	0	32572	33024	
5742	0	32564	33087	
5743	0	32481	33092	
5744	0	32227	33057	
5745	0	32364	32936	
5746	0	32504	32898	
5747	0	32600	32974	
5748	0	32932	32990	
5749	0	32994	32957	
5750	0	32928	32901	
5751	0	32794	32878	
5752	0	32768	32791	
5753	0	32809	32800	
5754	0	32738	32751	
5755	0	32942	32743	
5756	0	32944	32803	
5757	0	33031	32695	
5758	0	33116	32702	
5759	0	32992	32761	
5760	0	32880	32762	
5761	0	32703	32794	
5762	0	32628	32732	
5763	0	32620	32687	
5764	0	32884	32637	
5765	0	32796	32644	
5766	0	32582	32636	
5767	0	32576	32704	
5768	0	32674	32706	
5769	0	32811	32790	
5770	0	32840	32947	
5771	0	32840	32903	
5772	0	32984	32797	
5773	0	33064	32837	
5774	0	33178	32792	
5775	0	33065	32714	
5776	0	32972	32736	
5777	0	32775	32755	
5778	0	32652	32771	
5779	0	32549	32775	
5780	0	32402	32637	
5781	0	32454	32686	
5782	0	32548	32741	
5783	0	32686	32751	
5784	0	32778	32791	
5785	0	33048	32675	
5786	0	33256	32736	
5787	0	33232	32783	
5788	0	33022	32712	
5789	0	32840	32750	
5790	0	32745	32854	
5791	0	32676	32903	
5792	0	32568	32893	
5793	0	32496	32954	
5794	0	32448	32935	
5795	0	32584	32815	
5796	0	32826	32824	
5797	0	32936	32775	
5798	0	32864	32871	
5799	0	32775	32871	
5800	0	32742	32890	
5801	0	32861	32921	
5802	0	32954	32831	
5803	0	32873	32692	
5804	0	32732	32859	
5805	0	32620	32846	
5806	0	32744	32855	
5807	0	32918	32842	
5808	0	33220	32677	
5809	0	33464	32576	
5810	0	33632	32592	
5811	0	33474	32632	
5812	0	32985	32803	
5813	0	32395	32766	
5814	0	31809	32966	
5815	0	31569	33081	
5816	0	31816	32812	
5817	0	32201	32879	
5818	0	32804	32819	
5819	0	32984	32739	
5820	0	33108	32635	
5821	0	32998	32647	
5822	0	32881	32711	
5823	0	32968	32741	
5824	0	33100	32760	
5825	0	33234	32849	
5826	0	32936	32791	
5827	0	32901	32775	
5828	0	32598	32795	
5829	0	32528	32802	
5830	0	32742	32743	
5831	0	32858	32742	
5832	0	32824	32775	
5833	0	32726	32851	
5834	0	32793	32754	
5835	0	32864	32794	
5836	0	32908	32661	
5837	0	32857	32775	
5838	0	32898	32921	
5839	0	32856	32824	
5840	0	32876	32817	
5841	0	32832	32810	
5842	0	32780	32861	
5843	0	32768	32841	
5844	0	32866	32729	
5845	0	32828	32733	
5846	0	32844	32836	
5847	0	32872	32664	
5848	0	32838	32728	
5849	0	32826	32688	
5850	0	32677	32764	
5851	0	32652	32775	
5852	0	32760	32817	
5853	0	32776	32817	
5854	0	32653	32863	
5855	0	32700	32821	
5856	0	32778	32796	
5857	0	32810	32775	
5858	0	32816	32754	
5859	0	32748	32775	
5860	0	32842	32826	
5861	0	32802	32804	
5862	0	32824	32863	
5863	0	32837	32907	
5864	0	32773	32839	
5865	0	32805	32775	
5866	0	32764	32848	
5867	0	32810	32805	
5868	0	32846	32772	
5869	0	32928	32771	
5870	0	32842	32652	
5871	0	32748	32702	
5872	0	32698	32819	
5873	0	32712	32740	
5874	0	32766	32761	
5875	0	32722	32756	
5876	0	32756	32756	
5877	0	32732	32788	
5878	0	32758	32850	
5879	0	32821	32955	
5880	0	32770	32853	
5881	0	32816	32811	
5882	0	32849	32805	
5883	0	32900	32820	
5884	0	32776	32796	
5885	0	32748	32939	
5886	0	32758	32743	
5887	0	32728	32697	
5888	0	32838	32775	
5889	0	32868	32807	
5890	0	32882	32864	
5891	0	33040	32886	
5892	0	32936	32930	
5893	0	32856	32835	
5894	0	32696	32775	
5895	0	32515	32775	
5896	0	32504	32773	
5897	0	32630	32832	
5898	0	32736	32826	
5899	0	32676	32805	
5900	0	32842	32819	
5901	0	32852	32718	
5902	0	32905	32742	
5903	0	32960	32677	
5904	0	32853	32794	
5905	0	32794	32784	
5906	0	32900	32858	
5907	0	32924	32815	
5908	0	32839	32869	
5909	0	32758	32859	
5910	0	32760	32820	
5911	0	32688	32733	
5912	0	32768	32642	
5913	0	32645	32713	
5914	0	32728	32765	
5915	0	32736	32951	
5916	0	32800	32939	
5917	0	32790	32858	
5918	0	32766	32807	
5919	0	32797	32722	
5920	0	32772	32668	
5921	0	32756	32732	
5922	0	32868	32745	
5923	0	32888	32747	
5924	0	32888	32741	
5925	0	32906	32729	
5926	0	32814	32725	
5927	0	32836	32784	
5928	0	32675	32816	
5929	0	32797	32745	
5930	0	32892	32727	
5931	0	32674	32820	
5932	0	32568	32800	
5933	0	32536	32775	
5934	0	32669	32821	
5935	0	32860	32879	
5936	0	32928	32804	
5937	0	32973	32859	
5938	0	32956	32903	
5939	0	32954	32686	
5940	0	32916	32644	
5941	0	32852	32749	
5942	0	32940	32850	
5943	0	32901	32882	
5944	0	32858	32901	
5945	0	32835	32818	
5946	0	32780	32801	
5947	0	32764	32755	
5948	0	32760	32775	
5949	0	32696	32836	
5950	0	32716	32829	
5951	0	32804	32770	
5952	0	32760	32727	
5953	0	32632	32697	
5954	0	32721	32678	
5955	0	32729	32745	
5956	0	32796	32775	
5957	0	32800	32932	
5958	0	32770	32764	
5959	0	32773	32811	
5960	0	32886	32679	
5961	0	32827	32790	
5962	0	32833	32917	
5963	0	32736	32820	
5964	0	32744	32855	
5965	0	32836	32822	
5966	0	32877	32761	
5967	0	32838	32787	
5968	0	32917	32844	
5969	0	32856	32871	
5970	0	32822	32763	
5971	0	32724	32815	
5972	0	32733	32739	
5973	0	32736	32750	
5974	0	32816	32858	
5975	0	32838	32805	
5976	0	32848	32772	
5977	0	32861	32820	
5978	0	32801	32794	
5979	0	32906	32876	
5980	0	32840	32748	
5981	0	32724	32705	
5982	0	32791	32712	
5983	0	32882	32642	
5984	0	32648	32748	
5985	0	32776	32802	
5986	0	32760	32721	
5987	0	32720	32692	
5988	0	32736	32775	
5989	0	32605	32709	
5990	0	32774	32740	
5991	0	32780	32866	
5992	0	32858	32775	
5993	0	32872	32907	
5994	0	32858	32890	
5995	0	32710	32820	
5996	0	32586	32772	
5997	0	32800	32971	
5998	0	32941	32869	
5999	0	32893	32760	
6000	0	32855	32724	
6001	0	32890	32731	
6002	0	32876	32785	
6003	0	32888	32773	
6004	0	32774	32760	
6005	0	32704	32741	
6006	0	32788	32699	
6007	0	32881	32805	
6008	0	32892	32907	
6009	0	32864	32861	
6010	0	32742	32741	
6011	0	32760	32816	
6012	0	32784	32836	
6013	0	32713	32788	
6014	0	32761	32807	
6015	0	32745	32730	
6016	0	32805	32788	
6017	0	32840	32747	
6018	0	32794	32871	
6019	0	32816	32886	
6020	0	32866	32878	
6021	0	32846	32820	
6022	0	32924	32692	
6023	0	32884	32802	
6024	0	32904	32750	
6025	0	32964	32724	
6026	0	32935	32745	
