# OpenSignals Text File Format. Version 1
# {"00:07:80:D8:AA:AB": {"position": 0, "device": "biosignalsplux", "device name": "00:07:80:D8:AA:AB", "device connection": "BTH00:07:80:D8:AA:AB", "sampling rate": 1000, "resolution": [16, 16], "firmware version": 773, "comments": "", "keywords": "", "mode": 0, "sync interval": 2, "date": "2023-2-23", "time": "14:15:12.903", "channels": [1, 2], "sensor": ["EMG", "EMG"], "label": ["CH1", "CH2"], "column": ["nSeq", "DI", "CH1", "CH2"], "special": [{}, {}], "digital IO": [0, 1], "convertedValues": 0}}
# EndOfHeader
0	0	32792	32856	
1	0	32792	32799	
2	0	32852	32812	
3	0	32834	32889	
4	0	32796	32846	
5	0	32790	32835	
6	0	32860	32768	
7	0	32788	32722	
8	0	32744	32662	
9	0	32824	32671	
10	0	32840	32653	
11	0	32793	32696	
12	0	32807	32775	
13	0	32746	32690	
14	0	32890	32744	
15	0	32819	32720	
16	0	32820	32727	
17	0	32803	32742	
18	0	32820	32719	
19	0	32860	32797	
20	0	32768	32756	
21	0	32829	32839	
22	0	32836	32833	
23	0	32757	32818	
24	0	32785	32778	
25	0	32837	32765	
26	0	32842	32832	
27	0	32843	32852	
28	0	32819	32840	
29	0	32766	32870	
30	0	32858	32826	
31	0	32800	32832	
32	0	32836	32731	
33	0	32840	32825	
34	0	32778	32821	
35	0	32710	32812	
36	0	32775	32820	
37	0	32788	32797	
38	0	32842	32792	
39	0	32827	32824	
40	0	32842	32838	
41	0	32760	32806	
42	0	32844	32797	
43	0	32840	32771	
44	0	32777	32882	
45	0	32762	32811	
46	0	32856	32799	
47	0	32784	32748	
48	0	32765	32859	
49	0	32880	32879	
50	0	32789	32864	
51	0	32744	32791	
52	0	32775	32724	
53	0	32828	32688	
54	0	32756	32676	
55	0	32820	32765	
56	0	32793	32741	
57	0	32790	32756	
58	0	32908	32775	
59	0	32828	32828	
60	0	32780	32758	
61	0	32790	32824	
62	0	32760	32864	
63	0	32828	32809	
64	0	32802	32810	
65	0	32773	32815	
66	0	32774	32863	
67	0	32768	32891	
68	0	32820	32806	
69	0	32761	32828	
70	0	32866	32801	
71	0	32775	32823	
72	0	32816	32837	
73	0	32844	32798	
74	0	32804	32774	
75	0	32792	32816	
76	0	32838	32736	
77	0	32777	32799	
78	0	32775	32886	
79	0	32834	32833	
80	0	32818	32767	
81	0	32862	32818	
82	0	32828	32850	
83	0	32776	32823	
84	0	32793	32852	
85	0	32800	32840	
86	0	32828	32863	
87	0	32793	32804	
88	0	32846	32797	
89	0	32736	32751	
90	0	32882	32813	
91	0	32720	32831	
92	0	32722	32819	
93	0	32844	32825	
94	0	32818	32713	
95	0	32821	32822	
96	0	32808	32841	
97	0	32802	32743	
98	0	32898	32739	
99	0	32857	32790	
100	0	32816	32724	
101	0	32764	32720	
102	0	32794	32720	
103	0	32836	32756	
104	0	32797	32750	
105	0	32788	32805	
106	0	32805	32829	
107	0	32760	32893	
108	0	32754	32863	
109	0	32828	32828	
110	0	32856	32808	
111	0	32825	32894	
112	0	32790	32768	
113	0	32745	32758	
114	0	32801	32799	
115	0	32758	32726	
116	0	32824	32736	
117	0	32868	32764	
118	0	32836	32712	
119	0	32750	32742	
120	0	32715	32702	
121	0	32826	32734	
122	0	32801	32762	
123	0	32804	32747	
124	0	32801	32686	
125	0	32890	32838	
126	0	32802	32820	
127	0	32813	32806	
128	0	32754	32808	
129	0	32741	32764	
130	0	32800	32832	
131	0	32770	32793	
132	0	32792	32851	
133	0	32837	32791	
134	0	32836	32837	
135	0	32794	32844	
136	0	32820	32922	
137	0	32774	32837	
138	0	32837	32839	
139	0	32840	32786	
140	0	32786	32788	
141	0	32795	32764	
142	0	32794	32756	
143	0	32800	32871	
144	0	32856	32805	
145	0	32808	32800	
146	0	32775	32851	
147	0	32784	32857	
148	0	32868	32660	
149	0	32784	32748	
150	0	32784	32711	
151	0	32768	32826	
152	0	32768	32845	
153	0	32809	32876	
154	0	32854	32801	
155	0	32850	32704	
156	0	32864	32798	
157	0	32792	32843	
158	0	32797	32860	
159	0	32773	32900	
160	0	32790	32854	
161	0	32794	32832	
162	0	32796	32801	
163	0	32754	32713	
164	0	32836	32775	
165	0	32800	32797	
166	0	32780	32775	
167	0	32821	32800	
168	0	32812	32685	
169	0	32760	32713	
170	0	32837	32825	
171	0	32824	32853	
172	0	32785	32826	
173	0	32824	32771	
174	0	32775	32823	
175	0	32800	32735	
176	0	32864	32906	
177	0	32804	32797	
178	0	32816	32779	
179	0	32816	32775	
180	0	32751	32876	
181	0	32869	32851	
182	0	32864	32873	
183	0	32793	32837	
184	0	32782	32887	
185	0	32856	32891	
186	0	32848	32796	
187	0	32780	32875	
188	0	32882	32798	
189	0	32798	32764	
190	0	32744	32696	
191	0	32800	32790	
192	0	32740	32923	
193	0	32716	32762	
194	0	32830	32677	
195	0	32843	32749	
196	0	32800	32721	
197	0	32828	32750	
198	0	32834	32840	
199	0	32829	32856	
200	0	32770	32837	
201	0	32712	32843	
202	0	32848	32882	
203	0	32812	32835	
204	0	32775	32832	
205	0	32768	32775	
206	0	32745	32730	
207	0	32811	32925	
208	0	32756	32793	
209	0	32832	32834	
210	0	32848	32768	
211	0	32744	32829	
212	0	32813	32835	
213	0	32788	32829	
214	0	32784	32805	
215	0	32768	32775	
216	0	32832	32769	
217	0	32820	32811	
218	0	32873	32897	
219	0	32825	32832	
220	0	32848	32805	
221	0	32818	32769	
222	0	32777	32832	
223	0	32816	32775	
224	0	32788	32748	
225	0	32722	32685	
226	0	32796	32768	
227	0	32832	32815	
228	0	32834	32817	
229	0	32758	32856	
230	0	32782	32844	
231	0	32819	32801	
232	0	32760	32798	
233	0	32765	32892	
234	0	32878	32840	
235	0	32796	32854	
236	0	32832	32820	
237	0	32794	32726	
238	0	32804	32843	
239	0	32884	32848	
240	0	32788	32767	
241	0	32784	32715	
242	0	32803	32802	
243	0	32828	32847	
244	0	32756	32814	
245	0	32848	32834	
246	0	32766	32839	
247	0	32775	32782	
248	0	32744	32805	
249	0	32878	32839	
250	0	32769	32840	
251	0	32852	32918	
252	0	32844	32870	
253	0	32800	32875	
254	0	32752	32848	
255	0	32805	32890	
256	0	32781	32801	
257	0	32778	32838	
258	0	32796	32818	
259	0	32826	32684	
260	0	32789	32850	
261	0	32712	32808	
262	0	32809	32804	
263	0	32805	32875	
264	0	32788	32829	
265	0	32770	32831	
266	0	32784	32794	
267	0	32778	32724	
268	0	32762	32735	
269	0	32872	32768	
270	0	32796	32903	
271	0	32913	32839	
272	0	32844	32903	
273	0	32809	32805	
274	0	32733	32832	
275	0	32824	32757	
276	0	32819	32775	
277	0	32810	32802	
278	0	32802	32751	
279	0	32840	32814	
280	0	32752	32898	
281	0	32796	32938	
282	0	32812	32925	
283	0	32750	32775	
284	0	32797	32678	
285	0	32784	32650	
286	0	32848	32610	
287	0	32808	32707	
288	0	32820	32747	
289	0	32776	32850	
290	0	32848	32839	
291	0	32796	32820	
292	0	32800	32794	
293	0	32816	32809	
294	0	32824	32830	
295	0	32756	32878	
296	0	32780	32911	
297	0	32816	32810	
298	0	32780	32848	
299	0	32828	32797	
300	0	32796	32741	
301	0	32813	32704	
302	0	32860	32687	
303	0	32824	32842	
304	0	32832	32824	
305	0	32828	32843	
306	0	32780	32829	
307	0	32756	32876	
308	0	32752	32839	
309	0	32856	32893	
310	0	32804	32826	
311	0	32798	32884	
312	0	32786	32784	
313	0	32842	32741	
314	0	32786	32775	
315	0	32736	32870	
316	0	32776	32877	
317	0	32824	32876	
318	0	32792	32869	
319	0	32796	32896	
320	0	32817	32799	
321	0	32836	32721	
322	0	32810	32660	
323	0	32797	32804	
324	0	32828	32834	
325	0	32812	32798	
326	0	32816	32843	
327	0	32872	32754	
328	0	32812	32790	
329	0	32780	32736	
330	0	32884	32675	
331	0	32914	32692	
332	0	32882	32685	
333	0	32848	32713	
334	0	32944	32696	
335	0	32872	32617	
336	0	32988	32680	
337	0	32952	32588	
338	0	32964	32592	
339	0	32955	32681	
340	0	32892	32746	
341	0	32900	32730	
342	0	32818	32764	
343	0	32856	32903	
344	0	32775	32903	
345	0	32706	32891	
346	0	32700	32790	
347	0	32694	32882	
348	0	32696	32858	
349	0	32696	32887	
350	0	32726	32916	
351	0	32724	32980	
352	0	32724	33018	
353	0	32646	33001	
354	0	32688	33038	
355	0	32633	32992	
356	0	32624	33020	
357	0	32668	32990	
358	0	32665	33040	
359	0	32696	32963	
360	0	32804	33001	
361	0	32728	32934	
362	0	32748	32889	
363	0	32792	32857	
364	0	32856	32888	
365	0	32728	32950	
366	0	32786	32943	
367	0	32838	32775	
368	0	32842	32775	
369	0	32848	32613	
370	0	32910	32636	
371	0	32924	32647	
372	0	32864	32745	
373	0	32873	32773	
374	0	32784	32804	
375	0	32864	32671	
376	0	32824	32608	
377	0	32810	32576	
378	0	32880	32662	
379	0	32944	32710	
380	0	32850	32735	
381	0	32863	32754	
382	0	32864	32762	
383	0	32775	32820	
384	0	32773	32805	
385	0	32837	32754	
386	0	32854	32710	
387	0	32806	32804	
388	0	32757	32772	
389	0	32804	32706	
390	0	32869	32697	
391	0	32792	32728	
392	0	32796	32770	
393	0	32810	32736	
394	0	32748	32827	
395	0	32836	32835	
396	0	32752	32868	
397	0	32864	32820	
398	0	32858	32844	
399	0	32744	32820	
400	0	32844	32857	
401	0	32820	32717	
402	0	32768	32715	
403	0	32822	32808	
404	0	32808	32813	
405	0	32868	32828	
406	0	32753	32902	
407	0	32773	32786	
408	0	32709	32688	
409	0	32835	32695	
410	0	32825	32783	
411	0	32808	32826	
412	0	32754	32858	
413	0	32780	32927	
414	0	32754	32774	
415	0	32844	32740	
416	0	32824	32760	
417	0	32862	32701	
418	0	32754	32735	
419	0	32860	32819	
420	0	32764	32818	
421	0	32824	32861	
422	0	32840	32868	
423	0	32808	32868	
424	0	32814	32838	
425	0	32832	32806	
426	0	32768	32791	
427	0	32793	32823	
428	0	32775	32766	
429	0	32779	32741	
430	0	32840	32719	
431	0	32860	32762	
432	0	32808	32824	
433	0	32796	32812	
434	0	32880	32802	
435	0	32748	32886	
436	0	32856	32831	
437	0	32847	32875	
438	0	32788	32856	
439	0	32789	32859	
440	0	32818	32730	
441	0	32736	32903	
442	0	32793	32879	
443	0	32804	32825	
444	0	32805	32884	
445	0	32816	32818	
446	0	32733	32718	
447	0	32734	32767	
448	0	32832	32868	
449	0	32822	32775	
450	0	32770	32780	
451	0	32873	32823	
452	0	32832	32810	
453	0	32904	32810	
454	0	32838	32861	
455	0	32788	32884	
456	0	32778	32859	
457	0	32752	32793	
458	0	32836	32876	
459	0	32810	32851	
460	0	32815	32758	
461	0	32820	32796	
462	0	32800	32752	
463	0	32775	32761	
464	0	32818	32804	
465	0	32798	32836	
466	0	32722	32824	
467	0	32834	32848	
468	0	32864	32907	
469	0	32768	32820	
470	0	32812	32813	
471	0	32765	32837	
472	0	32825	32783	
473	0	32804	32732	
474	0	32769	32765	
475	0	32848	32854	
476	0	32850	32764	
477	0	32772	32861	
478	0	32788	32808	
479	0	32842	32834	
480	0	32804	32846	
481	0	32784	32745	
482	0	32800	32759	
483	0	32836	32707	
484	0	32800	32720	
485	0	32773	32713	
486	0	32829	32833	
487	0	32788	32860	
488	0	32824	32853	
489	0	32832	32774	
490	0	32825	32883	
491	0	32797	32858	
492	0	32789	32728	
493	0	32792	32808	
494	0	32884	32820	
495	0	32818	32791	
496	0	32848	32772	
497	0	32775	32744	
498	0	32876	32863	
499	0	32824	32850	
500	0	32776	32808	
501	0	32752	32803	
502	0	32812	32844	
503	0	32796	32829	
504	0	32832	32766	
505	0	32824	32751	
506	0	32766	32724	
507	0	32812	32911	
508	0	32833	32868	
509	0	32796	32967	
510	0	32793	32882	
511	0	32810	32820	
512	0	32848	32810	
513	0	32792	32775	
514	0	32828	32802	
515	0	32816	32839	
516	0	32866	32880	
517	0	32760	32901	
518	0	32824	32864	
519	0	32833	32816	
520	0	32770	32807	
521	0	32804	32741	
522	0	32864	32740	
523	0	32838	32694	
524	0	32698	32745	
525	0	32840	32706	
526	0	32786	32868	
527	0	32825	32802	
528	0	32820	32763	
529	0	32800	32684	
530	0	32753	32720	
531	0	32785	32774	
532	0	32824	32836	
533	0	32796	32852	
534	0	32850	32915	
535	0	32811	32809	
536	0	32828	32936	
537	0	32788	32870	
538	0	32824	32822	
539	0	32771	32770	
540	0	32832	32698	
541	0	32791	32880	
542	0	32756	32814	
543	0	32818	32773	
544	0	32860	32821	
545	0	32832	32911	
546	0	32808	32805	
547	0	32760	32680	
548	0	32914	32775	
549	0	32837	32859	
550	0	32801	32740	
551	0	32816	32842	
552	0	32792	32868	
553	0	32796	32813	
554	0	32805	32856	
555	0	32784	32832	
556	0	32884	32840	
557	0	32780	32879	
558	0	32856	32824	
559	0	32834	32898	
560	0	32765	32724	
561	0	32840	32775	
562	0	32763	32784	
563	0	32871	32827	
564	0	32792	32813	
565	0	32810	32765	
566	0	32728	32811	
567	0	32748	32815	
568	0	32841	32807	
569	0	32796	32866	
570	0	32780	32799	
571	0	32800	32791	
572	0	32808	32839	
573	0	32818	32899	
574	0	32832	32871	
575	0	32848	32903	
576	0	32820	32902	
577	0	32832	32881	
578	0	32798	32888	
579	0	32849	32866	
580	0	32809	32825	
581	0	32808	32796	
582	0	32780	32884	
583	0	32744	32829	
584	0	32814	32847	
585	0	32783	32942	
586	0	32769	32840	
587	0	32808	32837	
588	0	32808	32790	
589	0	32832	32813	
590	0	32788	32824	
591	0	32786	32775	
592	0	32770	32758	
593	0	32824	32812	
594	0	32793	32807	
595	0	32788	32754	
596	0	32826	32740	
597	0	32868	32733	
598	0	32804	32812	
599	0	32854	32837	
600	0	32684	32892	
601	0	32800	32886	
602	0	32797	32908	
603	0	32785	32839	
604	0	32804	32868	
605	0	32784	32846	
606	0	32840	32786	
607	0	32772	32915	
608	0	32852	32837	
609	0	32832	32794	
610	0	32776	32796	
611	0	32732	32815	
612	0	32814	32774	
613	0	32800	32839	
614	0	32820	32775	
615	0	32808	32718	
616	0	32744	32686	
617	0	32764	32731	
618	0	32900	32847	
619	0	32790	32880	
620	0	32786	32903	
621	0	32841	32895	
622	0	32790	32858	
623	0	32760	32924	
624	0	32860	32844	
625	0	32764	32871	
626	0	32780	32808	
627	0	32872	32806	
628	0	32856	32828	
629	0	32900	32850	
630	0	32784	32910	
631	0	32740	32799	
632	0	32788	32772	
633	0	32800	32696	
634	0	32801	32764	
635	0	32840	32861	
636	0	32809	32711	
637	0	32832	32775	
638	0	32796	32878	
639	0	32793	32863	
640	0	32784	32824	
641	0	32824	32839	
642	0	32793	32796	
643	0	32808	32671	
644	0	32824	32716	
645	0	32804	32747	
646	0	32850	32850	
647	0	32781	32800	
648	0	32772	32945	
649	0	32843	32852	
650	0	32796	32797	
651	0	32836	32711	
652	0	32750	32719	
653	0	32804	32746	
654	0	32844	32873	
655	0	32750	32802	
656	0	32830	32792	
657	0	32854	32894	
658	0	32835	32754	
659	0	32801	32739	
660	0	32816	32729	
661	0	32824	32710	
662	0	32810	32742	
663	0	32780	32788	
664	0	32784	32809	
665	0	32796	32834	
666	0	32804	32824	
667	0	32852	32802	
668	0	32788	32829	
669	0	32824	32753	
670	0	32840	32880	
671	0	32780	32773	
672	0	32873	32763	
673	0	32751	32766	
674	0	32832	32768	
675	0	32775	32788	
676	0	32756	32726	
677	0	32878	32706	
678	0	32724	32800	
679	0	32856	32844	
680	0	32844	32908	
681	0	32816	32764	
682	0	32852	32840	
683	0	32768	32813	
684	0	32766	32868	
685	0	32814	32705	
686	0	32792	32691	
687	0	32828	32775	
688	0	32805	32794	
689	0	32824	32880	
690	0	32772	32870	
691	0	32832	32791	
692	0	32784	32771	
693	0	32859	32846	
694	0	32840	32847	
695	0	32785	32768	
696	0	32718	32679	
697	0	32826	32824	
698	0	32837	32760	
699	0	32828	32830	
700	0	32740	32932	
701	0	32834	32795	
702	0	32804	32771	
703	0	32872	32712	
704	0	32780	32712	
705	0	32856	32723	
706	0	32804	32756	
707	0	32831	32764	
708	0	32856	32775	
709	0	32748	32863	
710	0	32804	32817	
711	0	32866	32852	
712	0	32766	32894	
713	0	32796	32823	
714	0	32864	32809	
715	0	32784	32762	
716	0	32804	32663	
717	0	32753	32676	
718	0	32740	32749	
719	0	32840	32706	
720	0	32864	32712	
721	0	32808	32764	
722	0	32765	32835	
723	0	32802	32788	
724	0	32832	32770	
725	0	32873	32752	
726	0	32868	32809	
727	0	32774	32709	
728	0	32775	32720	
729	0	32762	32791	
730	0	32801	32704	
731	0	32782	32775	
732	0	32840	32728	
733	0	32800	32823	
734	0	32820	32734	
735	0	32781	32852	
736	0	32788	32894	
737	0	32804	32788	
738	0	32848	32742	
739	0	32748	32746	
740	0	32818	32804	
741	0	32812	32775	
742	0	32814	32900	
743	0	32793	32811	
744	0	32816	32804	
745	0	32784	32767	
746	0	32805	32786	
747	0	32773	32834	
748	0	32805	32775	
749	0	32812	32851	
750	0	32792	32746	
751	0	32860	32711	
752	0	32864	32759	
753	0	32820	32767	
754	0	32890	32842	
755	0	32846	32786	
756	0	32774	32756	
757	0	32824	32829	
758	0	32848	32848	
759	0	32808	32904	
760	0	32810	32910	
761	0	32832	32899	
762	0	32760	32844	
763	0	32844	32775	
764	0	32732	32719	
765	0	32780	32800	
766	0	32812	32808	
767	0	32804	32805	
768	0	32746	32770	
769	0	32780	32855	
770	0	32803	32888	
771	0	32768	32856	
772	0	32822	32718	
773	0	32797	32736	
774	0	32808	32764	
775	0	32764	32804	
776	0	32800	32815	
777	0	32837	32808	
778	0	32857	32850	
779	0	32844	32727	
780	0	32796	32840	
781	0	32814	32907	
782	0	32790	32850	
783	0	32824	32838	
784	0	32751	32716	
785	0	32778	32712	
786	0	32816	32740	
787	0	32792	32729	
788	0	32792	32827	
789	0	32778	32907	
790	0	32840	32805	
791	0	32832	32722	
792	0	32830	32728	
793	0	32800	32763	
794	0	32816	32762	
795	0	32809	32726	
796	0	32881	32829	
797	0	32740	32906	
798	0	32776	32822	
799	0	32832	32740	
800	0	32808	32772	
801	0	32821	32833	
802	0	32745	32818	
803	0	32768	32839	
804	0	32820	32733	
805	0	32788	32817	
806	0	32848	32842	
807	0	32792	32874	
808	0	32840	32828	
809	0	32780	32903	
810	0	32780	32829	
811	0	32755	32817	
812	0	32833	32829	
813	0	32765	32747	
814	0	32764	32710	
815	0	32712	32680	
816	0	32805	32728	
817	0	32801	32768	
818	0	32820	32882	
819	0	32808	32772	
820	0	32801	32809	
821	0	32836	32860	
822	0	32812	32839	
823	0	32823	32716	
824	0	32824	32739	
825	0	32792	32738	
826	0	32781	32791	
827	0	32844	32790	
828	0	32852	32836	
829	0	32832	32807	
830	0	32806	32904	
831	0	32852	32879	
832	0	32764	32764	
833	0	32832	32707	
834	0	32832	32740	
835	0	32791	32802	
836	0	32804	32775	
837	0	32810	32814	
838	0	32809	32925	
839	0	32865	32677	
840	0	32838	32742	
841	0	32776	32825	
842	0	32724	32872	
843	0	32838	32812	
844	0	32770	32866	
845	0	32824	32847	
846	0	32808	32775	
847	0	32832	32700	
848	0	32792	32788	
849	0	32808	32837	
850	0	32796	32837	
851	0	32800	32797	
852	0	32826	32762	
853	0	32736	32716	
854	0	32880	32775	
855	0	32754	32812	
856	0	32798	32805	
857	0	32784	32927	
858	0	32788	33003	
859	0	32792	32915	
860	0	32854	32775	
861	0	32833	32672	
862	0	32788	32643	
863	0	32730	32686	
864	0	32780	32724	
865	0	32812	32740	
866	0	32850	32867	
867	0	32736	32728	
868	0	32830	32853	
869	0	32865	32850	
870	0	32816	32845	
871	0	32796	32837	
872	0	32796	32795	
873	0	32796	32712	
874	0	32800	32717	
875	0	32834	32814	
876	0	32852	32775	
877	0	32842	32867	
878	0	32812	32844	
879	0	32769	32786	
880	0	32820	32704	
881	0	32816	32794	
882	0	32832	32828	
883	0	32792	32820	
884	0	32809	32879	
885	0	32828	32848	
886	0	32801	32690	
887	0	32820	32746	
888	0	32805	32823	
889	0	32841	32888	
890	0	32808	32844	
891	0	32748	32788	
892	0	32790	32692	
893	0	32850	32736	
894	0	32904	32869	
895	0	32805	32837	
896	0	32765	32817	
897	0	32774	32789	
898	0	32828	32771	
899	0	32813	32847	
900	0	32790	32711	
901	0	32820	32748	
902	0	32856	32820	
903	0	32775	32851	
904	0	32776	32902	
905	0	32801	32852	
906	0	32802	32706	
907	0	32792	32736	
908	0	32828	32764	
909	0	32790	32844	
910	0	32774	32756	
911	0	32755	32788	
912	0	32801	32765	
913	0	32808	32890	
914	0	32797	32918	
915	0	32832	32813	
916	0	32736	32713	
917	0	32816	32844	
918	0	32804	32869	
919	0	32804	32736	
920	0	32820	32760	
921	0	32842	32775	
922	0	32868	32836	
923	0	32764	32822	
924	0	32800	32894	
925	0	32800	32868	
926	0	32801	32744	
927	0	32828	32708	
928	0	32820	32839	
929	0	32860	32861	
930	0	32759	32805	
931	0	32818	32838	
932	0	32774	32833	
933	0	32830	32764	
934	0	32792	32710	
935	0	32870	32812	
936	0	32822	32787	
937	0	32787	32800	
938	0	32818	32775	
939	0	32790	32831	
940	0	32865	32827	
941	0	32772	32791	
942	0	32716	32784	
943	0	32778	32789	
944	0	32817	32841	
945	0	32796	32848	
946	0	32808	32819	
947	0	32800	32826	
948	0	32802	32727	
949	0	32796	32651	
950	0	32782	32814	
951	0	32790	32860	
952	0	32801	32854	
953	0	32740	32919	
954	0	32846	32865	
955	0	32784	32810	
956	0	32760	32711	
957	0	32743	32725	
958	0	32796	32797	
959	0	32816	32829	
960	0	32739	32820	
961	0	32778	32872	
962	0	32831	32807	
963	0	32854	32724	
964	0	32837	32742	
965	0	32864	32748	
966	0	32804	32742	
967	0	32812	32833	
968	0	32850	32761	
969	0	32836	32642	
970	0	32856	32750	
971	0	32960	32723	
972	0	32972	32656	
973	0	32944	32547	
974	0	32958	32566	
975	0	32906	32637	
976	0	32922	32750	
977	0	32904	32678	
978	0	32856	32560	
979	0	32921	32681	
980	0	32820	32856	
981	0	32729	32852	
982	0	32670	33003	
983	0	32674	32824	
984	0	32705	32793	
985	0	32741	32863	
986	0	32709	32845	
987	0	32788	32963	
988	0	32644	32907	
989	0	32712	32911	
990	0	32700	32990	
991	0	32692	33014	
992	0	32613	33135	
993	0	32592	33060	
994	0	32716	33016	
995	0	32644	33139	
996	0	32712	33109	
997	0	32685	32959	
998	0	32800	32903	
999	0	32866	32899	
1000	0	32712	32878	
1001	0	32901	32898	
1002	0	32758	32873	
1003	0	32778	32887	
1004	0	32770	32758	
1005	0	32890	32760	
1006	0	32830	32720	
1007	0	32888	32740	
1008	0	32822	32748	
1009	0	32884	32667	
1010	0	32828	32598	
1011	0	32786	32752	
1012	0	32808	32775	
1013	0	32862	32749	
1014	0	32852	32658	
1015	0	32930	32721	
1016	0	32908	32750	
1017	0	32840	32733	
1018	0	32882	32725	
1019	0	32896	32801	
1020	0	32800	32640	
1021	0	32912	32694	
1022	0	32792	32839	
1023	0	32788	32752	
1024	0	32744	32775	
1025	0	32792	32816	
1026	0	32752	32800	
1027	0	32786	32836	
1028	0	32850	32768	
1029	0	32797	32797	
1030	0	32721	32815	
1031	0	32774	32832	
1032	0	32774	32836	
1033	0	32792	32831	
1034	0	32832	32874	
1035	0	32728	32811	
1036	0	32818	32839	
1037	0	32797	32859	
1038	0	32816	32845	
1039	0	32836	32839	
1040	0	32800	32834	
1041	0	32813	32861	
1042	0	32732	32854	
1043	0	32782	32825	
1044	0	32776	32773	
1045	0	32810	32824	
1046	0	32801	32830	
1047	0	32820	32837	
1048	0	32824	32803	
1049	0	32784	32775	
1050	0	32792	32750	
1051	0	32884	32736	
1052	0	32764	32758	
1053	0	32746	32740	
1054	0	32817	32742	
1055	0	32732	32751	
1056	0	32817	32718	
1057	0	32840	32722	
1058	0	32884	32724	
1059	0	32720	32850	
1060	0	32788	32814	
1061	0	32826	32832	
1062	0	32832	32852	
1063	0	32780	32850	
1064	0	32802	32725	
1065	0	32796	32758	
1066	0	32775	32786	
1067	0	32844	32799	
1068	0	32816	32724	
1069	0	32808	32724	
1070	0	32782	32809	
1071	0	32712	32839	
1072	0	32756	32818	
1073	0	32852	32830	
1074	0	32808	32804	
1075	0	32812	32882	
1076	0	32820	32864	
1077	0	32732	32873	
1078	0	32796	32836	
1079	0	32845	32843	
1080	0	32733	32893	
1081	0	32816	32775	
1082	0	32827	32804	
1083	0	32848	32694	
1084	0	32792	32755	
1085	0	32792	32770	
1086	0	32824	32774	
1087	0	32759	32670	
1088	0	32872	32725	
1089	0	32774	32738	
1090	0	32856	32889	
1091	0	32852	32850	
1092	0	32792	32826	
1093	0	32798	32857	
1094	0	32838	32867	
1095	0	32864	32852	
1096	0	32805	32821	
1097	0	32800	32808	
1098	0	32824	32706	
1099	0	32734	32693	
1100	0	32724	32787	
1101	0	32832	32866	
1102	0	32866	32775	
1103	0	32816	32860	
1104	0	32846	32824	
1105	0	32802	32882	
1106	0	32804	32884	
1107	0	32798	32796	
1108	0	32782	32730	
1109	0	32832	32775	
1110	0	32852	32862	
1111	0	32793	32811	
1112	0	32854	32822	
1113	0	32752	32850	
1114	0	32872	32836	
1115	0	32768	32824	
1116	0	32739	32832	
1117	0	32808	32764	
1118	0	32777	32787	
1119	0	32804	32725	
1120	0	32892	32754	
1121	0	32824	32775	
1122	0	32789	32744	
1123	0	32782	32806	
1124	0	32848	32850	
1125	0	32772	32769	
1126	0	32818	32769	
1127	0	32732	32824	
1128	0	32824	32846	
1129	0	32808	32882	
1130	0	32800	32794	
1131	0	32775	32847	
1132	0	32762	32838	
1133	0	32860	32729	
1134	0	32780	32720	
1135	0	32775	32886	
1136	0	32856	32804	
1137	0	32836	32786	
1138	0	32834	32812	
1139	0	32780	32795	
1140	0	32796	32751	
1141	0	32812	32740	
1142	0	32788	32837	
1143	0	32836	32851	
1144	0	32841	32854	
1145	0	32841	32882	
1146	0	32799	32780	
1147	0	32752	32700	
1148	0	32788	32784	
1149	0	32828	32829	
1150	0	32852	32918	
1151	0	32792	33027	
1152	0	32809	32992	
1153	0	32842	32775	
1154	0	32779	32602	
1155	0	32792	32527	
1156	0	32804	32713	
1157	0	32824	32765	
1158	0	32761	32848	
1159	0	32752	32805	
1160	0	32780	32655	
1161	0	32760	32828	
1162	0	32780	32864	
1163	0	32916	32836	
1164	0	32744	32941	
1165	0	32821	32821	
1166	0	32812	32723	
1167	0	32743	32788	
1168	0	32801	32797	
1169	0	32809	32839	
1170	0	32796	32819	
1171	0	32812	32784	
1172	0	32844	32829	
1173	0	32805	32734	
1174	0	32829	32706	
1175	0	32790	32839	
1176	0	32816	32836	
1177	0	32830	32807	
1178	0	32779	32832	
1179	0	32800	32864	
1180	0	32792	32775	
1181	0	32818	32838	
1182	0	32880	32736	
1183	0	32820	32743	
1184	0	32840	32736	
1185	0	32784	32810	
1186	0	32780	32808	
1187	0	32777	32825	
1188	0	32729	32781	
1189	0	32816	32786	
1190	0	32793	32832	
1191	0	32864	32828	
1192	0	32838	32917	
1193	0	32816	32769	
1194	0	32765	32724	
1195	0	32761	32771	
1196	0	32876	32775	
1197	0	32760	32822	
1198	0	32868	32886	
1199	0	32782	32886	
1200	0	32739	32841	
1201	0	32844	32730	
1202	0	32848	32743	
1203	0	32764	32886	
1204	0	32792	32860	
1205	0	32848	32814	
1206	0	32840	32758	
1207	0	32741	32864	
1208	0	32812	32825	
1209	0	32744	32797	
1210	0	32826	32772	
1211	0	32808	32802	
1212	0	32775	32735	
1213	0	32808	32802	
1214	0	32777	32839	
1215	0	32800	32861	
1216	0	32775	32724	
1217	0	32812	32882	
1218	0	32822	32814	
1219	0	32800	32761	
1220	0	32816	32868	
1221	0	32869	32887	
1222	0	32849	32854	
1223	0	32768	32860	
1224	0	32754	32847	
1225	0	32772	32720	
1226	0	32700	32762	
1227	0	32785	32771	
1228	0	32834	32818	
1229	0	32800	32862	
1230	0	32756	32887	
1231	0	32856	32811	
1232	0	32824	32769	
1233	0	32848	32733	
1234	0	32800	32674	
1235	0	32788	32775	
1236	0	32748	32832	
1237	0	32842	32792	
1238	0	32814	32825	
1239	0	32821	32882	
1240	0	32762	32850	
1241	0	32788	32804	
1242	0	32772	32876	
1243	0	32792	32747	
1244	0	32762	32717	
1245	0	32738	32806	
1246	0	32778	32784	
1247	0	32754	32799	
1248	0	32746	32805	
1249	0	32800	32853	
1250	0	32818	32871	
1251	0	32864	32843	
1252	0	32837	32768	
1253	0	32812	32719	
1254	0	32724	32736	
1255	0	32773	32857	
1256	0	32816	32750	
1257	0	32792	32793	
1258	0	32856	32850	
1259	0	32832	32822	
1260	0	32830	32674	
1261	0	32836	32788	
1262	0	32836	32790	
1263	0	32793	32847	
1264	0	32722	32886	
1265	0	32764	32836	
1266	0	32784	32752	
1267	0	32792	32899	
1268	0	32787	32890	
1269	0	32880	32894	
1270	0	32724	32744	
1271	0	32813	32771	
1272	0	32924	32782	
1273	0	32804	32700	
1274	0	32842	32671	
1275	0	32825	32739	
1276	0	32745	32856	
1277	0	32796	32803	
1278	0	32822	32873	
1279	0	32916	32877	
1280	0	32826	32831	
1281	0	32828	32743	
1282	0	32793	32743	
1283	0	32824	32758	
1284	0	32854	32817	
1285	0	32856	32792	
1286	0	32856	32877	
1287	0	32813	32845	
1288	0	32775	32734	
1289	0	32788	32816	
1290	0	32797	32833	
1291	0	32848	32820	
1292	0	32813	32802	
1293	0	32800	32821	
1294	0	32793	32812	
1295	0	32797	32857	
1296	0	32821	32748	
1297	0	32864	32805	
1298	0	32850	32852	
1299	0	32817	32833	
1300	0	32778	32811	
1301	0	32756	32691	
1302	0	32824	32691	
1303	0	32808	32702	
1304	0	32820	32761	
1305	0	32809	32740	
1306	0	32790	32799	
1307	0	32864	32846	
1308	0	32882	32714	
1309	0	32718	32656	
1310	0	32845	32834	
1311	0	32772	32831	
1312	0	32817	32818	
1313	0	32832	32772	
1314	0	32834	32848	
1315	0	32844	32809	
1316	0	32924	32630	
1317	0	32768	32715	
1318	0	32878	32763	
1319	0	32864	32842	
1320	0	32803	32832	
1321	0	32818	32864	
1322	0	32796	32869	
1323	0	32736	32782	
1324	0	32788	32722	
1325	0	32785	32745	
1326	0	32864	32736	
1327	0	32802	32733	
1328	0	32838	32851	
1329	0	32820	32784	
1330	0	32790	32798	
1331	0	32810	32814	
1332	0	32772	32813	
1333	0	32832	32881	
1334	0	32816	32903	
1335	0	32784	32787	
1336	0	32897	32808	
1337	0	32766	32697	
1338	0	32900	32767	
1339	0	32834	32741	
1340	0	32752	32767	
1341	0	32777	32775	
1342	0	32856	32775	
1343	0	32832	32722	
1344	0	32832	32671	
1345	0	32810	32729	
1346	0	32798	32716	
1347	0	32893	32769	
1348	0	32804	32935	
1349	0	32826	32879	
1350	0	32888	32850	
1351	0	32804	32805	
1352	0	32808	32882	
1353	0	32784	32838	
1354	0	32797	32896	
1355	0	32796	32764	
1356	0	32797	32775	
1357	0	32820	32868	
1358	0	32820	32823	
1359	0	32880	32932	
1360	0	32864	32850	
1361	0	32873	32936	
1362	0	32786	32812	
1363	0	32764	32846	
1364	0	32765	32832	
1365	0	32832	32752	
1366	0	32802	32827	
1367	0	32738	32843	
1368	0	32829	32785	
1369	0	32788	32758	
1370	0	32864	32816	
1371	0	32774	32827	
1372	0	32776	32703	
1373	0	32754	32754	
1374	0	32832	32809	
1375	0	32750	32715	
1376	0	32797	32749	
1377	0	32772	32775	
1378	0	32786	32752	
1379	0	32846	32775	
1380	0	32796	32794	
1381	0	32816	32757	
1382	0	32872	32710	
1383	0	32804	32811	
1384	0	32826	32755	
1385	0	32792	32893	
1386	0	32812	32896	
1387	0	32754	32752	
1388	0	32750	32765	
1389	0	32842	32743	
1390	0	32775	32685	
1391	0	32796	32775	
1392	0	32820	32739	
1393	0	32848	32891	
1394	0	32750	32874	
1395	0	32736	32818	
1396	0	32824	32840	
1397	0	32836	32816	
1398	0	32874	32829	
1399	0	32793	32843	
1400	0	32832	32831	
1401	0	32852	32836	
1402	0	32826	32815	
1403	0	32859	32770	
1404	0	32756	32856	
1405	0	32808	32833	
1406	0	32762	32898	
1407	0	32790	32948	
1408	0	32772	32864	
1409	0	32809	32826	
1410	0	32868	32739	
1411	0	32797	32738	
1412	0	32731	32716	
1413	0	32812	32745	
1414	0	32804	32740	
1415	0	32800	32699	
1416	0	32858	32738	
1417	0	32790	32688	
1418	0	32796	32654	
1419	0	32846	32706	
1420	0	32816	32705	
1421	0	32800	32728	
1422	0	32736	32765	
1423	0	32862	32709	
1424	0	32864	32752	
1425	0	32792	32727	
1426	0	32778	32813	
1427	0	32800	32713	
1428	0	32722	32715	
1429	0	32809	32754	
1430	0	32780	32744	
1431	0	32731	32837	
1432	0	32828	32814	
1433	0	32780	32818	
1434	0	32792	32929	
1435	0	32825	32838	
1436	0	32764	32803	
1437	0	32778	32713	
1438	0	32810	32739	
1439	0	32800	32827	
1440	0	32790	32708	
1441	0	32763	32834	
1442	0	32764	32752	
1443	0	32786	32821	
1444	0	32821	32775	
1445	0	32869	32789	
1446	0	32864	32828	
1447	0	32820	32809	
1448	0	32828	32839	
1449	0	32842	32880	
1450	0	32796	32861	
1451	0	32784	32903	
1452	0	32808	32793	
1453	0	32824	32792	
1454	0	32805	32756	
1455	0	32802	32704	
1456	0	32820	32767	
1457	0	32788	32710	
1458	0	32778	32745	
1459	0	32813	32858	
1460	0	32775	32834	
1461	0	32775	32837	
1462	0	32812	32809	
1463	0	32764	32756	
1464	0	32829	32871	
1465	0	32816	32816	
1466	0	32714	32785	
1467	0	32816	32722	
1468	0	32822	32736	
1469	0	32800	32821	
1470	0	32796	32894	
1471	0	32872	32868	
1472	0	32814	32924	
1473	0	32856	32821	
1474	0	32804	32792	
1475	0	32796	32722	
1476	0	32778	32702	
1477	0	32782	32717	
1478	0	32820	32715	
1479	0	32838	32868	
1480	0	32802	32828	
1481	0	32816	32711	
1482	0	32778	32707	
1483	0	32816	32813	
1484	0	32770	32815	
1485	0	32738	32858	
1486	0	32770	32743	
1487	0	32792	32759	
1488	0	32804	32679	
1489	0	32716	32864	
1490	0	32824	32896	
1491	0	32760	32794	
1492	0	32812	32815	
1493	0	32784	32836	
1494	0	32775	32848	
1495	0	32902	32864	
1496	0	32784	32853	
1497	0	32786	32876	
1498	0	32824	32860	
1499	0	32790	32791	
1500	0	32844	32647	
1501	0	32884	32775	
1502	0	32786	32710	
1503	0	32796	32784	
1504	0	32784	32792	
1505	0	32748	32862	
1506	0	32884	32793	
1507	0	32832	32832	
1508	0	32841	32854	
1509	0	32876	32858	
1510	0	32816	32866	
1511	0	32796	32861	
1512	0	32784	32880	
1513	0	32760	32788	
1514	0	32790	32760	
1515	0	32832	32739	
1516	0	32788	32788	
1517	0	32867	32791	
1518	0	32764	32751	
1519	0	32752	32780	
1520	0	32768	32864	
1521	0	32778	32869	
1522	0	32796	32793	
1523	0	32866	32789	
1524	0	32812	32809	
1525	0	32804	32810	
1526	0	32864	32800	
1527	0	32819	32825	
1528	0	32726	32829	
1529	0	32734	32944	
1530	0	32864	32862	
1531	0	32825	32802	
1532	0	32840	32837	
1533	0	32784	32819	
1534	0	32860	32764	
1535	0	32774	32749	
1536	0	32794	32748	
1537	0	32876	32746	
1538	0	32839	32742	
1539	0	32824	32852	
1540	0	32840	32861	
1541	0	32776	32801	
1542	0	32779	32834	
1543	0	32778	32832	
1544	0	32796	32775	
1545	0	32832	32775	
1546	0	32807	32811	
1547	0	32865	32892	
1548	0	32793	32760	
1549	0	32857	32740	
1550	0	32804	32818	
1551	0	32756	32809	
1552	0	32798	32808	
1553	0	32840	32775	
1554	0	32840	32788	
1555	0	32754	32873	
1556	0	32740	32770	
1557	0	32708	32804	
1558	0	32796	32850	
1559	0	32762	32844	
1560	0	32825	32838	
1561	0	32861	32836	
1562	0	32796	32753	
1563	0	32873	32879	
1564	0	32828	32850	
1565	0	32760	32762	
1566	0	32828	32711	
1567	0	32784	32711	
1568	0	32784	32732	
1569	0	32825	32830	
1570	0	32770	32800	
1571	0	32770	32679	
1572	0	32764	32804	
1573	0	32808	32801	
1574	0	32904	32799	
1575	0	32789	32815	
1576	0	32824	32867	
1577	0	32810	32856	
1578	0	32813	32827	
1579	0	32818	32866	
1580	0	32808	32771	
1581	0	32773	32829	
1582	0	32697	32858	
1583	0	32840	32814	
1584	0	32792	32718	
1585	0	32800	32711	
1586	0	32856	32787	
1587	0	32812	32676	
1588	0	32812	32707	
1589	0	32853	32806	
1590	0	32797	32795	
1591	0	32807	32800	
1592	0	32800	32836	
1593	0	32760	32832	
1594	0	32700	32905	
1595	0	32737	32913	
1596	0	32699	32869	
1597	0	32745	32876	
1598	0	32780	32811	
1599	0	32746	32813	
1600	0	32772	32825	
1601	0	32728	32752	
1602	0	32756	32872	
1603	0	32890	32784	
1604	0	32860	32759	
1605	0	32806	32750	
1606	0	32887	32775	
1607	0	32848	32767	
1608	0	32882	32769	
1609	0	32901	32773	
1610	0	32933	32686	
1611	0	32964	32678	
1612	0	32948	32647	
1613	0	32946	32672	
1614	0	32932	32656	
1615	0	32933	32706	
1616	0	32912	32734	
1617	0	32834	32610	
1618	0	32900	32739	
1619	0	32892	32845	
1620	0	32856	32869	
1621	0	32720	32946	
1622	0	32800	32826	
1623	0	32780	32799	
1624	0	32666	32726	
1625	0	32756	32826	
1626	0	32648	32775	
1627	0	32738	32825	
1628	0	32645	32854	
1629	0	32701	32843	
1630	0	32732	32850	
1631	0	32666	32915	
1632	0	32706	33010	
1633	0	32699	32997	
1634	0	32716	33079	
1635	0	32640	33024	
1636	0	32708	32988	
1637	0	32706	32903	
1638	0	32754	32827	
1639	0	32766	32851	
1640	0	32808	32847	
1641	0	32772	32959	
1642	0	32800	32946	
1643	0	32836	32832	
1644	0	32882	32803	
1645	0	32864	32740	
1646	0	32818	32752	
1647	0	32933	32742	
1648	0	32804	32725	
1649	0	32864	32707	
1650	0	32868	32722	
1651	0	32840	32728	
1652	0	32813	32706	
1653	0	32809	32748	
1654	0	32829	32812	
1655	0	32856	32734	
1656	0	32890	32852	
1657	0	32864	32729	
1658	0	32870	32819	
1659	0	32916	32784	
1660	0	32802	32824	
1661	0	32877	32765	
1662	0	32816	32790	
1663	0	32784	32744	
1664	0	32815	32721	
1665	0	32830	32768	
1666	0	32774	32741	
1667	0	32786	32748	
1668	0	32840	32730	
1669	0	32786	32832	
1670	0	32744	32788	
1671	0	32760	32824	
1672	0	32784	32823	
1673	0	32785	32848	
1674	0	32816	32828	
1675	0	32758	32864	
1676	0	32852	32846	
1677	0	32827	32865	
1678	0	32765	32844	
1679	0	32822	32818	
1680	0	32837	32824	
1681	0	32797	32841	
1682	0	32772	32791	
1683	0	32879	32834	
1684	0	32773	32768	
1685	0	32786	32797	
1686	0	32762	32841	
1687	0	32758	32877	
1688	0	32794	32811	
1689	0	32797	32820	
1690	0	32756	32727	
1691	0	32835	32809	
1692	0	32758	32807	
1693	0	32756	32794	
1694	0	32792	32864	
1695	0	32805	32728	
1696	0	32834	32827	
1697	0	32740	32775	
1698	0	32893	32835	
1699	0	32789	32837	
1700	0	32776	32802	
1701	0	32844	32869	
1702	0	32792	32785	
1703	0	32824	32827	
1704	0	32758	32749	
1705	0	32740	32733	
1706	0	32826	32737	
1707	0	32844	32740	
1708	0	32814	32752	
1709	0	32816	32807	
1710	0	32792	32714	
1711	0	32868	32720	
1712	0	32824	32772	
1713	0	32893	32715	
1714	0	32792	32751	
1715	0	32768	32775	
1716	0	32836	32824	
1717	0	32748	32911	
1718	0	32790	32950	
1719	0	32805	32864	
1720	0	32774	32823	
1721	0	32828	32786	
1722	0	32824	32812	
1723	0	32768	32835	
1724	0	32761	32827	
1725	0	32842	32844	
1726	0	32752	32846	
1727	0	32736	32811	
1728	0	32812	32864	
1729	0	32800	32903	
1730	0	32816	32859	
1731	0	32816	32832	
1732	0	32816	32756	
1733	0	32796	32884	
1734	0	32824	32887	
1735	0	32802	32841	
1736	0	32764	32839	
1737	0	32874	32789	
1738	0	32824	32719	
1739	0	32800	32825	
1740	0	32785	32852	
1741	0	32814	32852	
1742	0	32800	32784	
1743	0	32834	32847	
1744	0	32793	32822	
1745	0	32846	32838	
1746	0	32773	32874	
1747	0	32852	32853	
1748	0	32809	32826	
1749	0	32792	32861	
1750	0	32743	32825	
1751	0	32882	32813	
1752	0	32715	32848	
1753	0	32880	32750	
1754	0	32788	32832	
1755	0	32824	32888	
1756	0	32824	32857	
1757	0	32848	32816	
1758	0	32772	32752	
1759	0	32768	32829	
1760	0	32791	32875	
1761	0	32820	32868	
1762	0	32769	32786	
1763	0	32862	32903	
1764	0	32752	32922	
1765	0	32792	32941	
1766	0	32784	32850	
1767	0	32772	32667	
1768	0	32832	32712	
1769	0	32800	32696	
1770	0	32758	32857	
1771	0	32778	32818	
1772	0	32832	32814	
1773	0	32801	32821	
1774	0	32856	32852	
1775	0	32868	32970	
1776	0	32801	32859	
1777	0	32740	32789	
1778	0	32804	32646	
1779	0	32790	32702	
1780	0	32760	32720	
1781	0	32796	32765	
1782	0	32841	32734	
1783	0	32770	32852	
1784	0	32784	32710	
1785	0	32868	32738	
1786	0	32768	32760	
1787	0	32844	32766	
1788	0	32774	32736	
1789	0	32858	32864	
1790	0	32762	32812	
1791	0	32776	32839	
1792	0	32832	32775	
1793	0	32848	32814	
1794	0	32762	32833	
1795	0	32756	32867	
1796	0	32866	32864	
1797	0	32870	32800	
1798	0	32811	32758	
1799	0	32824	32750	
1800	0	32812	32734	
1801	0	32773	32736	
1802	0	32746	32765	
1803	0	32808	32741	
1804	0	32828	32836	
1805	0	32754	32798	
1806	0	32801	32775	
1807	0	32796	32845	
1808	0	32825	32770	
1809	0	32788	32835	
1810	0	32769	32789	
1811	0	32808	32770	
1812	0	32840	32810	
1813	0	32857	32813	
1814	0	32833	32825	
1815	0	32768	32830	
1816	0	32826	32752	
1817	0	32845	32825	
1818	0	32766	32827	
1819	0	32814	32872	
1820	0	32760	32916	
1821	0	32796	32842	
1822	0	32792	32775	
1823	0	32740	32832	
1824	0	32825	32888	
1825	0	32838	32763	
1826	0	32808	32674	
1827	0	32808	32741	
1828	0	32860	32806	
1829	0	32850	32855	
1830	0	32796	32840	
1831	0	32800	32828	
1832	0	32730	32841	
1833	0	32796	32729	
1834	0	32768	32760	
1835	0	32832	32791	
1836	0	32848	32868	
1837	0	32868	32820	
1838	0	32740	32918	
1839	0	32792	32858	
1840	0	32771	32811	
1841	0	32771	32768	
1842	0	32856	32747	
1843	0	32768	32838	
1844	0	32832	32872	
1845	0	32752	32885	
1846	0	32765	32869	
1847	0	32804	32869	
1848	0	32800	32851	
1849	0	32800	32689	
1850	0	32840	32743	
1851	0	32836	32809	
1852	0	32819	32691	
1853	0	32792	32702	
1854	0	32762	32783	
1855	0	32795	32670	
1856	0	32830	32711	
1857	0	32860	32758	
1858	0	32774	32879	
1859	0	32856	32865	
1860	0	32904	32790	
1861	0	32800	32857	
1862	0	32762	32835	
1863	0	32728	32834	
1864	0	32840	32740	
1865	0	32772	32711	
1866	0	32852	32663	
1867	0	32785	32847	
1868	0	32745	32775	
1869	0	32780	32871	
1870	0	32788	32873	
1871	0	32843	32835	
1872	0	32752	32734	
1873	0	32832	32742	
1874	0	32788	32734	
1875	0	32773	32817	
1876	0	32778	32817	
1877	0	32778	32848	
1878	0	32848	32827	
1879	0	32801	32815	
1880	0	32876	32829	
1881	0	32738	32903	
1882	0	32808	32775	
1883	0	32783	32708	
1884	0	32836	32816	
1885	0	32881	32815	
1886	0	32768	32831	
1887	0	32786	32855	
1888	0	32843	32775	
1889	0	32848	32737	
1890	0	32764	32828	
1891	0	32788	32845	
1892	0	32822	32844	
1893	0	32788	32835	
1894	0	32761	32829	
1895	0	32758	32816	
1896	0	32749	32765	
1897	0	32786	32775	
1898	0	32780	32864	
1899	0	32864	32803	
1900	0	32788	32783	
1901	0	32803	32839	
1902	0	32859	32754	
1903	0	32796	32722	
1904	0	32849	32833	
1905	0	32732	32877	
1906	0	32852	32888	
1907	0	32760	32880	
1908	0	32842	32873	
1909	0	32768	32775	
1910	0	32744	32795	
1911	0	32853	32842	
1912	0	32813	32844	
1913	0	32808	32802	
1914	0	32764	32806	
1915	0	32745	32745	
1916	0	32820	32651	
1917	0	32829	32728	
1918	0	32832	32843	
1919	0	32864	32937	
1920	0	32800	32882	
1921	0	32846	32878	
1922	0	32844	32914	
1923	0	32775	32820	
1924	0	32804	32748	
1925	0	32824	32683	
1926	0	32769	32733	
1927	0	32875	32729	
1928	0	32854	32820	
1929	0	32820	32842	
1930	0	32812	32759	
1931	0	32762	32738	
1932	0	32786	32800	
1933	0	32816	32827	
1934	0	32748	32823	
1935	0	32764	32967	
1936	0	32824	32799	
1937	0	32842	32721	
1938	0	32736	32716	
1939	0	32761	32771	
1940	0	32789	32710	
1941	0	32797	32722	
1942	0	32870	32707	
1943	0	32825	32800	
1944	0	32812	32807	
1945	0	32865	32765	
1946	0	32767	32775	
1947	0	32788	32738	
1948	0	32762	32831	
1949	0	32834	32814	
1950	0	32810	32800	
1951	0	32816	32823	
1952	0	32840	32886	
1953	0	32784	32882	
1954	0	32788	32829	
1955	0	32848	32775	
1956	0	32803	32856	
1957	0	32828	32743	
1958	0	32845	32808	
1959	0	32814	32868	
1960	0	32786	32783	
1961	0	32840	32814	
1962	0	32792	32808	
1963	0	32816	32824	
1964	0	32826	32812	
1965	0	32861	32889	
1966	0	32784	32856	
1967	0	32832	32837	
1968	0	32852	32864	
1969	0	32828	32849	
1970	0	32810	32794	
1971	0	32800	32848	
1972	0	32812	32742	
1973	0	32770	32873	
1974	0	32830	32855	
1975	0	32840	32877	
1976	0	32796	32834	
1977	0	32790	32852	
1978	0	32812	32850	
1979	0	32784	32861	
1980	0	32825	32912	
1981	0	32676	32797	
1982	0	32857	32810	
1983	0	32836	32859	
1984	0	32832	32860	
1985	0	32832	32793	
1986	0	32744	32809	
1987	0	32714	32792	
1988	0	32800	32794	
1989	0	32805	32840	
1990	0	32888	32858	
1991	0	32816	32829	
1992	0	32824	32866	
1993	0	32808	32811	
1994	0	32764	32791	
1995	0	32800	32871	
1996	0	32816	32800	
1997	0	32838	32775	
1998	0	32890	32800	
1999	0	32852	32804	
2000	0	32764	32775	
2001	0	32852	32775	
2002	0	32832	32717	
2003	0	32840	32754	
2004	0	32784	32742	
2005	0	32780	32699	
2006	0	32716	32804	
2007	0	32736	32845	
2008	0	32768	32790	
2009	0	32891	32773	
2010	0	32780	32766	
2011	0	32715	32701	
2012	0	32748	32824	
2013	0	32786	32843	
2014	0	32772	32890	
2015	0	32836	32771	
2016	0	32850	32791	
2017	0	32784	32786	
2018	0	32745	32742	
2019	0	32882	32742	
2020	0	32820	32746	
2021	0	32736	32712	
2022	0	32825	32724	
2023	0	32756	32814	
2024	0	32860	32818	
2025	0	32820	32818	
2026	0	32824	32820	
2027	0	32802	32762	
2028	0	32858	32844	
2029	0	32770	32756	
2030	0	32844	32820	
2031	0	32760	32844	
2032	0	32798	32851	
2033	0	32834	32882	
2034	0	32812	32858	
2035	0	32742	32843	
2036	0	32808	32775	
2037	0	32790	32813	
2038	0	32834	32764	
2039	0	32792	32706	
2040	0	32812	32763	
2041	0	32768	32826	
2042	0	32834	32792	
2043	0	32788	32813	
2044	0	32816	32837	
2045	0	32768	32869	
2046	0	32792	32839	
2047	0	32854	32857	
2048	0	32772	32859	
2049	0	32784	32767	
2050	0	32813	32670	
2051	0	32758	32712	
2052	0	32840	32892	
2053	0	32800	32850	
2054	0	32816	32740	
2055	0	32801	32720	
2056	0	32835	32789	
2057	0	32852	32720	
2058	0	32834	32709	
2059	0	32714	32709	
2060	0	32773	32734	
2061	0	32784	32767	
2062	0	32784	32817	
2063	0	32776	32839	
2064	0	32880	32860	
2065	0	32732	32769	
2066	0	32820	32858	
2067	0	32837	32795	
2068	0	32844	32818	
2069	0	32806	32863	
2070	0	32824	32915	
2071	0	32702	32799	
2072	0	32900	32844	
2073	0	32836	32701	
2074	0	32793	32749	
2075	0	32794	32753	
2076	0	32752	32696	
2077	0	32845	32800	
2078	0	32896	32766	
2079	0	32760	32758	
2080	0	32769	32810	
2081	0	32754	32768	
2082	0	32832	32824	
2083	0	32833	32869	
2084	0	32776	32839	
2085	0	32841	32829	
2086	0	32741	32775	
2087	0	32752	32818	
2088	0	32896	32827	
2089	0	32836	32773	
2090	0	32786	32795	
2091	0	32790	32805	
2092	0	32853	32896	
2093	0	32801	32905	
2094	0	32792	32861	
2095	0	32784	32843	
2096	0	32877	32894	
2097	0	32816	32839	
2098	0	32784	32771	
2099	0	32812	32870	
2100	0	32760	32793	
2101	0	32764	32754	
2102	0	32824	32769	
2103	0	32784	32845	
2104	0	32816	32843	
2105	0	32816	32838	
2106	0	32736	32828	
2107	0	32775	32912	
2108	0	32844	32814	
2109	0	32744	32773	
2110	0	32813	32814	
2111	0	32805	32726	
2112	0	32852	32743	
2113	0	32796	32680	
2114	0	32826	32739	
2115	0	32809	32752	
2116	0	32824	32843	
2117	0	32844	32715	
2118	0	32820	32868	
2119	0	32786	32744	
2120	0	32821	32868	
2121	0	32800	32833	
2122	0	32800	32878	
2123	0	32797	32883	
2124	0	32824	32867	
2125	0	32852	32825	
2126	0	32846	32879	
2127	0	32773	32769	
2128	0	32706	32800	
2129	0	32820	32788	
2130	0	32844	32775	
2131	0	32820	32734	
2132	0	32808	32840	
2133	0	32797	32793	
2134	0	32796	32846	
2135	0	32822	32728	
2136	0	32736	32786	
2137	0	32777	32846	
2138	0	32743	32829	
2139	0	32768	32722	
2140	0	32894	32871	
2141	0	32816	32860	
2142	0	32750	32857	
2143	0	32872	32837	
2144	0	32796	32813	
2145	0	32775	32848	
2146	0	32824	32899	
2147	0	32738	32835	
2148	0	32811	32867	
2149	0	32813	32864	
2150	0	32800	32820	
2151	0	32870	32946	
2152	0	32852	32879	
2153	0	32741	32870	
2154	0	32924	32932	
2155	0	32786	32853	
2156	0	32868	32802	
2157	0	32824	32775	
2158	0	32822	32773	
2159	0	32812	32859	
2160	0	32764	32908	
2161	0	32818	32842	
2162	0	32812	32915	
2163	0	32797	32892	
2164	0	32712	32866	
2165	0	32775	32775	
2166	0	32829	32851	
2167	0	32808	32890	
2168	0	32764	32919	
2169	0	32826	32869	
2170	0	32744	32752	
2171	0	32802	32745	
2172	0	32862	32724	
2173	0	32789	32740	
2174	0	32829	32884	
2175	0	32841	32804	
2176	0	32800	32852	
2177	0	32778	32847	
2178	0	32762	32861	
2179	0	32842	32768	
2180	0	32796	32913	
2181	0	32864	32857	
2182	0	32884	32828	
2183	0	32804	32857	
2184	0	32775	32735	
2185	0	32816	32732	
2186	0	32775	32809	
2187	0	32776	32735	
2188	0	32788	32695	
2189	0	32801	32694	
2190	0	32772	32781	
2191	0	32852	32781	
2192	0	32824	32769	
2193	0	32794	32812	
2194	0	32785	32851	
2195	0	32825	32782	
2196	0	32843	32816	
2197	0	32768	32832	
2198	0	32737	32907	
2199	0	32826	32811	
2200	0	32848	32760	
2201	0	32784	32800	
2202	0	32758	32782	
2203	0	32856	32860	
2204	0	32808	32925	
2205	0	32832	32831	
2206	0	32829	32794	
2207	0	32817	32782	
2208	0	32730	32789	
2209	0	32809	32731	
2210	0	32816	32852	
2211	0	32816	32805	
2212	0	32844	32801	
2213	0	32856	32890	
2214	0	32792	32809	
2215	0	32840	32814	
2216	0	32792	32805	
2217	0	32824	32787	
2218	0	32784	32911	
2219	0	32740	32735	
2220	0	32816	32708	
2221	0	32792	32758	
2222	0	32810	32860	
2223	0	32800	32809	
2224	0	32805	32830	
2225	0	32796	32804	
2226	0	32812	32907	
2227	0	32776	32718	
2228	0	32775	32720	
2229	0	32768	32775	
2230	0	32809	32789	
2231	0	32827	32836	
2232	0	32796	32925	
2233	0	32826	32805	
2234	0	32778	32781	
2235	0	32808	32761	
2236	0	32821	32784	
2237	0	32794	32786	
2238	0	32786	32712	
2239	0	32708	32722	
2240	0	32830	32694	
2241	0	32848	32742	
2242	0	32824	32704	
2243	0	32760	32724	
2244	0	32766	32810	
2245	0	32807	32706	
2246	0	32824	32676	
2247	0	32804	32681	
2248	0	32841	32741	
2249	0	32864	32699	
2250	0	32854	32672	
2251	0	32950	32695	
2252	0	32870	32669	
2253	0	32904	32677	
2254	0	32903	32603	
2255	0	32928	32629	
2256	0	32894	32701	
2257	0	33052	32630	
2258	0	33001	32679	
2259	0	32950	32695	
2260	0	32864	32763	
2261	0	32842	32618	
2262	0	32779	32772	
2263	0	32716	32797	
2264	0	32696	32863	
2265	0	32736	32788	
2266	0	32664	32804	
2267	0	32720	32826	
2268	0	32736	32771	
2269	0	32680	32868	
2270	0	32673	32942	
2271	0	32720	32988	
2272	0	32740	32933	
2273	0	32673	33017	
2274	0	32652	33138	
2275	0	32576	33135	
2276	0	32668	33093	
2277	0	32738	33037	
2278	0	32672	33031	
2279	0	32752	32956	
2280	0	32745	32836	
2281	0	32824	32813	
2282	0	32816	32832	
2283	0	32766	32870	
2284	0	32812	32774	
2285	0	32888	32732	
2286	0	32844	32718	
2287	0	32829	32676	
2288	0	32856	32742	
2289	0	32842	32711	
2290	0	32830	32687	
2291	0	32906	32681	
2292	0	32864	32762	
2293	0	32838	32684	
2294	0	32842	32760	
2295	0	32879	32707	
2296	0	32846	32804	
2297	0	32901	32747	
2298	0	32832	32727	
2299	0	32885	32712	
2300	0	32790	32668	
2301	0	32797	32664	
2302	0	32756	32701	
2303	0	32783	32750	
2304	0	32814	32770	
2305	0	32808	32751	
2306	0	32764	32712	
2307	0	32809	32671	
2308	0	32836	32832	
2309	0	32822	32825	
2310	0	32764	32815	
2311	0	32784	32829	
2312	0	32804	32864	
2313	0	32844	32751	
2314	0	32784	32722	
2315	0	32796	32732	
2316	0	32813	32770	
2317	0	32800	32704	
2318	0	32825	32796	
2319	0	32809	32804	
2320	0	32833	32873	
2321	0	32831	32819	
2322	0	32832	32864	
2323	0	32837	32856	
2324	0	32768	32883	
2325	0	32792	32889	
2326	0	32784	32839	
2327	0	32797	32790	
2328	0	32774	32824	
2329	0	32797	32923	
2330	0	32833	32891	
2331	0	32788	32912	
2332	0	32852	32868	
2333	0	32807	32816	
2334	0	32752	32828	
2335	0	32784	32756	
2336	0	32798	32724	
2337	0	32856	32750	
2338	0	32801	32722	
2339	0	32848	32720	
2340	0	32742	32709	
2341	0	32774	32859	
2342	0	32724	32870	
2343	0	32752	32757	
2344	0	32820	32793	
2345	0	32844	32825	
2346	0	32872	32882	
2347	0	32773	32809	
2348	0	32864	32797	
2349	0	32773	32740	
2350	0	32864	32740	
2351	0	32754	32775	
2352	0	32848	32816	
2353	0	32820	32816	
2354	0	32762	32815	
2355	0	32780	32797	
2356	0	32804	32861	
2357	0	32824	32775	
2358	0	32836	32732	
2359	0	32804	32742	
2360	0	32796	32731	
2361	0	32748	32832	
2362	0	32794	32879	
2363	0	32832	32829	
2364	0	32788	32704	
2365	0	32805	32914	
2366	0	32844	32844	
2367	0	32812	32837	
2368	0	32824	32728	
2369	0	32736	32719	
2370	0	32826	32845	
2371	0	32788	32814	
2372	0	32808	32822	
2373	0	32792	32692	
2374	0	32764	32767	
2375	0	32856	32832	
2376	0	32772	32796	
2377	0	32796	32839	
2378	0	32874	32808	
2379	0	32820	32838	
2380	0	32774	32844	
2381	0	32761	32829	
2382	0	32820	32845	
2383	0	32739	32839	
2384	0	32832	32924	
2385	0	32769	32874	
2386	0	32842	32888	
2387	0	32828	32871	
2388	0	32846	32814	
2389	0	32840	32832	
2390	0	32797	32864	
2391	0	32764	32858	
2392	0	32834	32877	
2393	0	32771	32833	
2394	0	32805	32831	
2395	0	32829	32846	
2396	0	32844	32852	
2397	0	32748	32817	
2398	0	32788	32804	
2399	0	32808	32773	
2400	0	32796	32788	
2401	0	32740	32877	
2402	0	32822	32805	
2403	0	32781	32839	
2404	0	32814	32883	
2405	0	32838	32768	
2406	0	32770	32696	
2407	0	32781	32783	
2408	0	32780	32868	
2409	0	32796	32800	
2410	0	32836	32846	
2411	0	32828	32775	
2412	0	32784	32759	
2413	0	32795	32784	
2414	0	32792	32820	
2415	0	32820	32786	
2416	0	32824	32882	
2417	0	32812	32872	
2418	0	32792	32813	
2419	0	32747	32756	
2420	0	32868	32725	
2421	0	32752	32825	
2422	0	32797	32731	
2423	0	32828	32789	
2424	0	32772	32844	
2425	0	32848	32836	
2426	0	32818	32962	
2427	0	32776	32809	
2428	0	32838	32742	
2429	0	32852	32754	
2430	0	32751	32805	
2431	0	32774	32888	
2432	0	32768	32894	
2433	0	32744	32738	
2434	0	32808	32741	
2435	0	32802	32704	
2436	0	32784	32804	
2437	0	32794	32818	
2438	0	32918	32818	
2439	0	32802	32818	
2440	0	32800	32868	
2441	0	32797	32873	
2442	0	32840	32775	
2443	0	32784	32720	
2444	0	32808	32773	
2445	0	32850	32788	
2446	0	32804	32759	
2447	0	32690	32918	
2448	0	32864	32755	
2449	0	32804	32835	
2450	0	32760	32842	
2451	0	32784	32772	
2452	0	32828	32760	
2453	0	32810	32887	
2454	0	32858	32740	
2455	0	32837	32731	
2456	0	32854	32753	
2457	0	32875	32775	
2458	0	32777	32768	
2459	0	32750	32843	
2460	0	32774	32901	
2461	0	32745	32882	
2462	0	32839	32890	
2463	0	32788	32866	
2464	0	32812	32711	
2465	0	32720	32758	
2466	0	32820	32857	
2467	0	32792	32794	
2468	0	32836	32803	
2469	0	32800	32797	
2470	0	32764	32892	
2471	0	32840	32916	
2472	0	32824	32855	
2473	0	32794	32775	
2474	0	32793	32711	
2475	0	32770	32763	
2476	0	32754	32769	
2477	0	32792	32737	
2478	0	32852	32817	
2479	0	32836	32857	
2480	0	32797	32918	
2481	0	32844	32802	
2482	0	32805	32790	
2483	0	32752	32688	
2484	0	32816	32702	
2485	0	32764	32711	
2486	0	32724	32857	
2487	0	32759	32775	
2488	0	32834	32724	
2489	0	32865	32775	
2490	0	32870	32802	
2491	0	32738	32873	
2492	0	32740	32801	
2493	0	32813	32870	
2494	0	32780	32725	
2495	0	32792	32696	
2496	0	32750	32770	
2497	0	32775	32702	
2498	0	32842	32748	
2499	0	32800	32832	
2500	0	32780	32854	
2501	0	32844	32775	
2502	0	32768	32871	
2503	0	32824	32818	
2504	0	32808	32861	
2505	0	32798	32818	
2506	0	32756	32805	
2507	0	32796	32869	
2508	0	32784	32855	
2509	0	32804	32806	
2510	0	32818	32774	
2511	0	32816	32775	
2512	0	32816	32815	
2513	0	32846	32788	
2514	0	32764	32829	
2515	0	32810	32856	
2516	0	32738	32908	
2517	0	32772	32857	
2518	0	32792	32728	
2519	0	32840	32686	
2520	0	32774	32756	
2521	0	32754	32795	
2522	0	32769	32838	
2523	0	32824	32830	
2524	0	32824	32852	
2525	0	32876	32869	
2526	0	32818	32787	
2527	0	32784	32804	
2528	0	32769	32832	
2529	0	32708	32857	
2530	0	32800	32837	
2531	0	32780	32814	
2532	0	32800	32875	
2533	0	32832	32806	
2534	0	32804	32888	
2535	0	32832	32856	
2536	0	32780	32882	
2537	0	32752	32910	
2538	0	32776	32833	
2539	0	32821	32857	
2540	0	32732	32867	
2541	0	32808	32804	
2542	0	32792	32874	
2543	0	32884	32859	
2544	0	32808	32879	
2545	0	32812	32799	
2546	0	32765	32862	
2547	0	32704	32856	
2548	0	32859	32839	
2549	0	32795	32852	
2550	0	32772	32810	
2551	0	32850	32939	
2552	0	32814	32755	
2553	0	32840	32838	
2554	0	32808	32797	
2555	0	32737	32799	
2556	0	32772	32850	
2557	0	32816	32804	
2558	0	32812	32856	
2559	0	32774	32801	
2560	0	32842	32835	
2561	0	32852	32666	
2562	0	32800	32775	
2563	0	32835	32748	
2564	0	32792	32670	
2565	0	32818	32647	
2566	0	32813	32791	
2567	0	32845	32770	
2568	0	32797	32811	
2569	0	32811	32798	
2570	0	32850	32903	
2571	0	32800	32925	
2572	0	32804	32826	
2573	0	32770	32715	
2574	0	32760	32739	
2575	0	32861	32802	
2576	0	32860	32846	
2577	0	32762	32788	
2578	0	32832	32791	
2579	0	32763	32791	
2580	0	32842	32743	
2581	0	32781	32772	
2582	0	32756	32868	
2583	0	32837	32770	
2584	0	32786	32727	
2585	0	32832	32726	
2586	0	32809	32710	
2587	0	32797	32698	
2588	0	32774	32767	
2589	0	32780	32800	
2590	0	32804	32848	
2591	0	32826	32909	
2592	0	32749	32823	
2593	0	32802	32850	
2594	0	32841	32903	
2595	0	32840	32797	
2596	0	32792	32871	
2597	0	32840	32809	
2598	0	32836	32879	
2599	0	32850	32896	
2600	0	32810	32810	
2601	0	32821	32868	
2602	0	32752	32815	
2603	0	32816	32818	
2604	0	32832	32824	
2605	0	32787	32784	
2606	0	32816	32828	
2607	0	32769	32775	
2608	0	32814	32757	
2609	0	32852	32728	
2610	0	32808	32698	
2611	0	32834	32734	
2612	0	32792	32654	
2613	0	32788	32804	
2614	0	32786	32854	
2615	0	32792	32828	
2616	0	32749	32905	
2617	0	32843	32841	
2618	0	32768	32774	
2619	0	32818	32674	
2620	0	32865	32583	
2621	0	32812	32576	
2622	0	32880	32711	
2623	0	32796	32758	
2624	0	32813	32797	
2625	0	32834	32791	
2626	0	32840	32773	
2627	0	32784	32835	
2628	0	32822	32850	
2629	0	32837	32784	
2630	0	32808	32764	
2631	0	32803	32877	
2632	0	32762	32800	
2633	0	32832	32859	
2634	0	32843	32841	
2635	0	32820	32863	
2636	0	32774	32898	
2637	0	32824	32922	
2638	0	32812	32860	
2639	0	32790	32775	
2640	0	32829	32841	
2641	0	32818	32845	
2642	0	32818	32805	
2643	0	32808	32829	
2644	0	32796	32828	
2645	0	32772	32853	
2646	0	32782	32862	
2647	0	32792	32851	
2648	0	32786	32812	
2649	0	32808	32754	
2650	0	32821	32829	
2651	0	32848	32850	
2652	0	32802	32819	
2653	0	32846	32826	
2654	0	32780	32748	
2655	0	32809	32700	
2656	0	32857	32720	
2657	0	32769	32775	
2658	0	32730	32744	
2659	0	32864	32755	
2660	0	32704	32740	
2661	0	32740	32815	
2662	0	32824	32808	
2663	0	32816	32803	
2664	0	32786	32796	
2665	0	32760	32797	
2666	0	32730	32763	
2667	0	32804	32868	
2668	0	32800	32816	
2669	0	32832	32842	
2670	0	32820	32888	
2671	0	32873	32871	
2672	0	32792	32856	
2673	0	32745	32875	
2674	0	32780	32871	
2675	0	32780	32856	
2676	0	32804	32879	
2677	0	32822	32822	
2678	0	32792	32823	
2679	0	32808	32944	
2680	0	32824	32854	
2681	0	32775	32764	
2682	0	32800	32820	
2683	0	32803	32822	
2684	0	32798	32794	
2685	0	32797	32747	
2686	0	32836	32775	
2687	0	32852	32889	
2688	0	32872	32823	
2689	0	32833	32850	
2690	0	32784	32767	
2691	0	32784	32681	
2692	0	32788	32743	
2693	0	32754	32743	
2694	0	32782	32704	
2695	0	32854	32720	
2696	0	32818	32727	
2697	0	32824	32775	
2698	0	32840	32833	
2699	0	32808	32839	
2700	0	32790	32795	
2701	0	32792	32883	
2702	0	32768	32829	
2703	0	32834	32775	
2704	0	32784	32833	
2705	0	32802	32788	
2706	0	32816	32853	
2707	0	32792	32829	
2708	0	32812	32935	
2709	0	32761	32843	
2710	0	32821	32807	
2711	0	32896	32841	
2712	0	32784	32858	
2713	0	32792	32925	
2714	0	32844	32867	
2715	0	32851	32888	
2716	0	32829	32844	
2717	0	32770	32840	
2718	0	32791	32920	
2719	0	32796	32842	
2720	0	32776	32862	
2721	0	32775	32925	
2722	0	32824	32825	
2723	0	32805	32792	
2724	0	32775	32839	
2725	0	32802	32814	
2726	0	32842	32805	
2727	0	32810	32775	
2728	0	32760	32822	
2729	0	32792	32796	
2730	0	32764	32785	
2731	0	32788	32838	
2732	0	32818	32817	
2733	0	32772	32839	
2734	0	32866	32927	
2735	0	32812	32889	
2736	0	32784	32831	
2737	0	32820	32783	
2738	0	32821	32760	
2739	0	32813	32745	
2740	0	32818	32692	
2741	0	32778	32791	
2742	0	32760	32791	
2743	0	32812	32870	
2744	0	32744	32896	
2745	0	32784	32875	
2746	0	32834	32840	
2747	0	32840	32754	
2748	0	32839	32735	
2749	0	32760	32744	
2750	0	32868	32791	
2751	0	32795	32742	
2752	0	32784	32742	
2753	0	32826	32720	
2754	0	32730	32753	
2755	0	32832	32711	
2756	0	32888	32694	
2757	0	32804	32784	
2758	0	32764	32698	
2759	0	32856	32786	
2760	0	32810	32804	
2761	0	32780	32710	
2762	0	32789	32750	
2763	0	32796	32707	
2764	0	32827	32688	
2765	0	32793	32733	
2766	0	32771	32745	
2767	0	32752	32824	
2768	0	32838	32828	
2769	0	32861	32836	
2770	0	32773	32890	
2771	0	32842	32824	
2772	0	32832	32828	
2773	0	32808	32816	
2774	0	32804	32772	
2775	0	32842	32791	
2776	0	32784	32860	
2777	0	32864	32766	
2778	0	32834	32743	
2779	0	32856	32775	
2780	0	32834	32764	
2781	0	32740	32818	
2782	0	32832	32756	
2783	0	32829	32755	
2784	0	32816	32703	
2785	0	32773	32860	
2786	0	32814	32866	
2787	0	32713	32836	
2788	0	32804	32866	
2789	0	32792	32871	
2790	0	32786	32973	
2791	0	32850	32768	
2792	0	32820	32824	
2793	0	32820	32790	
2794	0	32794	32861	
2795	0	32805	32732	
2796	0	32792	32737	
2797	0	32800	32726	
2798	0	32860	32794	
2799	0	32792	32729	
2800	0	32764	32755	
2801	0	32840	32780	
2802	0	32792	32897	
2803	0	32812	32939	
2804	0	32804	32952	
2805	0	32740	32875	
2806	0	32775	32841	
2807	0	32786	32850	
2808	0	32902	32882	
2809	0	32832	32793	
2810	0	32820	32696	
2811	0	32760	32688	
2812	0	32800	32841	
2813	0	32769	32900	
2814	0	32784	32825	
2815	0	32770	32775	
2816	0	32866	32787	
2817	0	32784	32840	
2818	0	32786	32838	
2819	0	32794	32775	
2820	0	32784	32819	
2821	0	32788	32869	
2822	0	32768	32857	
2823	0	32788	32849	
2824	0	32806	32854	
2825	0	32856	32845	
2826	0	32775	32797	
2827	0	32784	32893	
2828	0	32796	32897	
2829	0	32854	32687	
2830	0	32784	32772	
2831	0	32836	32864	
2832	0	32824	32838	
2833	0	32754	32829	
2834	0	32837	32876	
2835	0	32756	32784	
2836	0	32819	32739	
2837	0	32820	32758	
2838	0	32789	32784	
2839	0	32810	32773	
2840	0	32809	32699	
2841	0	32768	32733	
2842	0	32750	32723	
2843	0	32770	32818	
2844	0	32860	32744	
2845	0	32888	32676	
2846	0	32801	32765	
2847	0	32775	32710	
2848	0	32816	32866	
2849	0	32836	32847	
2850	0	32824	32758	
2851	0	32804	32759	
2852	0	32744	32706	
2853	0	32818	32706	
2854	0	32796	32738	
2855	0	32812	32732	
2856	0	32832	32804	
2857	0	32826	32843	
2858	0	32821	32875	
2859	0	32820	32809	
2860	0	32793	32807	
2861	0	32760	32819	
2862	0	32822	32715	
2863	0	32762	32756	
2864	0	32792	32758	
2865	0	32805	32812	
2866	0	32808	32740	
2867	0	32816	32788	
2868	0	32754	32775	
2869	0	32848	32718	
2870	0	32796	32715	
2871	0	32834	32752	
2872	0	32820	32814	
2873	0	32812	32839	
2874	0	32838	32841	
2875	0	32808	32843	
2876	0	32812	32766	
2877	0	32796	32775	
2878	0	32808	32790	
2879	0	32754	32840	
2880	0	32772	32851	
2881	0	32786	32893	
2882	0	32816	32838	
2883	0	32788	32789	
2884	0	32760	32775	
2885	0	32834	32775	
2886	0	32816	32760	
2887	0	32824	32775	
2888	0	32784	32732	
2889	0	32761	32808	
2890	0	32733	32770	
2891	0	32750	32736	
2892	0	32777	32767	
2893	0	32836	32854	
2894	0	32756	32866	
2895	0	32816	32791	
2896	0	32805	32863	
2897	0	32792	32754	
2898	0	32877	32786	
2899	0	32768	32820	
2900	0	32826	32686	
2901	0	32797	32698	
2902	0	32833	32717	
2903	0	32838	32662	
2904	0	32810	32680	
2905	0	32832	32676	
2906	0	32862	32640	
2907	0	33024	32621	
2908	0	32954	32559	
2909	0	32937	32654	
2910	0	32992	32721	
2911	0	32962	32652	
2912	0	32962	32710	
2913	0	32868	32752	
2914	0	32882	32755	
2915	0	32848	32756	
2916	0	32828	32843	
2917	0	32768	32910	
2918	0	32775	32902	
2919	0	32644	32864	
2920	0	32740	32935	
2921	0	32752	32860	
2922	0	32736	32756	
2923	0	32671	32861	
2924	0	32652	32814	
2925	0	32720	32987	
2926	0	32724	33000	
2927	0	32649	32987	
2928	0	32661	33093	
2929	0	32624	33088	
2930	0	32556	33122	
2931	0	32585	33126	
2932	0	32705	33042	
2933	0	32684	33040	
2934	0	32729	33053	
2935	0	32788	32806	
2936	0	32748	32798	
2937	0	32834	32831	
2938	0	32818	32939	
2939	0	32776	32816	
2940	0	32828	32741	
2941	0	32880	32696	
2942	0	32837	32667	
2943	0	32912	32589	
2944	0	32816	32726	
2945	0	32866	32720	
2946	0	32812	32708	
2947	0	32867	32760	
2948	0	32861	32680	
2949	0	32938	32715	
2950	0	32842	32713	
2951	0	32864	32742	
2952	0	32846	32761	
2953	0	32869	32664	
2954	0	32864	32646	
2955	0	32828	32676	
2956	0	32851	32676	
2957	0	32785	32710	
2958	0	32854	32763	
2959	0	32764	32775	
2960	0	32805	32829	
2961	0	32858	32772	
2962	0	32832	32893	
2963	0	32748	32820	
2964	0	32794	32857	
2965	0	32764	32762	
2966	0	32844	32841	
2967	0	32797	32860	
2968	0	32780	32858	
2969	0	32852	32901	
2970	0	32809	32830	
2971	0	32824	32808	
2972	0	32780	32868	
2973	0	32808	32873	
2974	0	32848	32864	
2975	0	32820	32818	
2976	0	32794	32906	
2977	0	32832	32892	
2978	0	32828	32921	
2979	0	32784	32796	
2980	0	32776	32857	
2981	0	32796	32817	
2982	0	32756	32841	
2983	0	32810	32846	
2984	0	32826	32760	
2985	0	32808	32828	
2986	0	32838	32807	
2987	0	32812	32871	
2988	0	32805	32844	
2989	0	32842	32798	
2990	0	32812	32860	
2991	0	32814	32894	
2992	0	32816	32861	
2993	0	32784	32825	
2994	0	32840	32788	
2995	0	32762	32796	
2996	0	32806	32747	
2997	0	32866	32780	
2998	0	32754	32741	
2999	0	32788	32793	
3000	0	32812	32819	
3001	0	32844	32726	
3002	0	32848	32826	
3003	0	32774	32847	
3004	0	32809	32818	
3005	0	32788	32814	
3006	0	32740	32783	
3007	0	32808	32775	
3008	0	32812	32685	
3009	0	32796	32703	
3010	0	32772	32786	
3011	0	32816	32787	
3012	0	32861	32795	
3013	0	32819	32892	
3014	0	32838	32870	
3015	0	32775	32834	
3016	0	32788	32852	
3017	0	32801	32793	
3018	0	32832	32797	
3019	0	32833	32846	
3020	0	32796	32890	
3021	0	32808	32860	
3022	0	32780	32805	
3023	0	32876	32726	
3024	0	32782	32866	
3025	0	32822	32760	
3026	0	32754	32715	
3027	0	32788	32738	
3028	0	32789	32716	
3029	0	32826	32749	
3030	0	32802	32765	
3031	0	32765	32745	
3032	0	32772	32731	
3033	0	32790	32805	
3034	0	32868	32791	
3035	0	32784	32805	
3036	0	32800	32772	
3037	0	32797	32786	
3038	0	32808	32872	
3039	0	32834	32765	
3040	0	32856	32832	
3041	0	32772	32789	
3042	0	32801	32775	
3043	0	32797	32792	
3044	0	32790	32826	
3045	0	32808	32825	
3046	0	32848	32840	
3047	0	32780	32797	
3048	0	32804	32701	
3049	0	32848	32849	
3050	0	32810	32791	
3051	0	32816	32862	
3052	0	32792	32823	
3053	0	32832	32775	
3054	0	32740	32802	
3055	0	32828	32830	
3056	0	32858	32844	
3057	0	32788	32831	
3058	0	32836	32857	
3059	0	32808	32817	
3060	0	32863	32858	
3061	0	32744	32846	
3062	0	32750	32787	
3063	0	32824	32796	
3064	0	32741	32775	
3065	0	32842	32722	
3066	0	32780	32771	
3067	0	32738	32775	
3068	0	32856	32775	
3069	0	32818	32787	
3070	0	32760	32826	
3071	0	32837	32835	
3072	0	32784	32787	
3073	0	32814	32821	
3074	0	32784	32793	
3075	0	32810	32808	
3076	0	32773	32800	
3077	0	32864	32761	
3078	0	32752	32849	
3079	0	32843	32822	
3080	0	32812	32857	
3081	0	32712	32714	
3082	0	32728	32833	
3083	0	32786	32797	
3084	0	32765	32707	
3085	0	32792	32836	
3086	0	32824	32793	
3087	0	32804	32882	
3088	0	32832	32843	
3089	0	32741	32800	
3090	0	32812	32877	
3091	0	32805	32745	
3092	0	32820	32742	
3093	0	32845	32647	
3094	0	32848	32644	
3095	0	32794	32767	
3096	0	32798	32752	
3097	0	32857	32962	
3098	0	32859	33039	
3099	0	32808	33050	
3100	0	32780	32874	
3101	0	32798	32737	
3102	0	32770	32670	
3103	0	32828	32647	
3104	0	32776	32820	
3105	0	32808	32841	
3106	0	32828	32752	
3107	0	32832	32765	
3108	0	32771	32658	
3109	0	32772	32710	
3110	0	32737	32850	
3111	0	32769	32812	
3112	0	32793	32859	
3113	0	32808	32832	
3114	0	32848	32825	
3115	0	32775	32830	
3116	0	32864	32870	
3117	0	32860	32951	
3118	0	32808	32812	
3119	0	32804	32829	
3120	0	32779	32824	
3121	0	32852	32850	
3122	0	32826	32873	
3123	0	32816	32909	
3124	0	32842	32876	
3125	0	32797	32909	
3126	0	32782	32857	
3127	0	32800	32828	
3128	0	32736	32927	
3129	0	32792	32871	
3130	0	32741	32888	
3131	0	32840	32846	
3132	0	32816	32841	
3133	0	32794	32833	
3134	0	32866	32713	
3135	0	32842	32718	
3136	0	32786	32721	
3137	0	32771	32696	
3138	0	32744	32737	
3139	0	32800	32710	
3140	0	32790	32714	
3141	0	32860	32758	
3142	0	32784	32710	
3143	0	32772	32728	
3144	0	32820	32718	
3145	0	32801	32792	
3146	0	32786	32761	
3147	0	32736	32826	
3148	0	32784	32847	
3149	0	32828	32819	
3150	0	32762	32799	
3151	0	32773	32857	
3152	0	32817	32839	
3153	0	32836	32772	
3154	0	32804	32837	
3155	0	32801	32774	
3156	0	32812	32754	
3157	0	32768	32805	
3158	0	32818	32784	
3159	0	32808	32758	
3160	0	32725	32839	
3161	0	32792	32903	
3162	0	32789	32808	
3163	0	32817	32706	
3164	0	32748	32729	
3165	0	32816	32745	
3166	0	32904	32679	
3167	0	32778	32797	
3168	0	32807	32871	
3169	0	32792	32793	
3170	0	32786	32786	
3171	0	32788	32856	
3172	0	32860	32818	
3173	0	32821	32883	
3174	0	32775	32852	
3175	0	32804	32786	
3176	0	32756	32828	
3177	0	32852	32903	
3178	0	32782	32855	
3179	0	32745	32816	
3180	0	32800	32856	
3181	0	32740	32869	
3182	0	32808	32863	
3183	0	32816	32792	
3184	0	32800	32750	
3185	0	32844	32838	
3186	0	32744	32853	
3187	0	32838	32888	
3188	0	32816	32847	
3189	0	32756	32866	
3190	0	32744	32873	
3191	0	32790	32954	
3192	0	32797	32825	
3193	0	32824	32818	
3194	0	32808	32899	
3195	0	32816	32880	
3196	0	32764	32903	
3197	0	32826	32866	
3198	0	32824	32797	
3199	0	32792	32816	
3200	0	32793	32785	
3201	0	32852	32802	
3202	0	32785	32864	
3203	0	32792	32860	
3204	0	32795	32714	
3205	0	32856	32742	
3206	0	32832	32806	
3207	0	32784	32752	
3208	0	32836	32723	
3209	0	32880	32707	
3210	0	32752	32741	
3211	0	32816	32761	
3212	0	32826	32725	
3213	0	32814	32754	
3214	0	32816	32879	
3215	0	32772	32805	
3216	0	32780	32826	
3217	0	32893	32872	
3218	0	32775	32793	
3219	0	32808	32789	
3220	0	32796	32775	
3221	0	32836	32830	
3222	0	32788	32907	
3223	0	32788	32881	
3224	0	32788	32818	
3225	0	32836	32837	
3226	0	32836	32855	
3227	0	32734	32872	
3228	0	32813	32871	
3229	0	32772	32828	
3230	0	32775	32835	
3231	0	32773	32847	
3232	0	32772	32824	
3233	0	32784	32835	
3234	0	32856	32866	
3235	0	32706	32801	
3236	0	32775	32846	
3237	0	32859	32852	
3238	0	32854	32830	
3239	0	32832	32804	
3240	0	32769	32818	
3241	0	32812	32718	
3242	0	32841	32740	
3243	0	32896	32762	
3244	0	32777	32786	
3245	0	32768	32840	
3246	0	32760	32839	
3247	0	32861	32859	
3248	0	32840	32826	
3249	0	32774	32936	
3250	0	32824	32807	
3251	0	32786	32901	
3252	0	32850	32866	
3253	0	32814	32864	
3254	0	32775	32839	
3255	0	32840	32884	
3256	0	32782	32861	
3257	0	32808	32800	
3258	0	32798	32853	
3259	0	32764	32855	
3260	0	32840	32883	
3261	0	32806	32863	
3262	0	32820	32863	
3263	0	32856	32837	
3264	0	32761	32850	
3265	0	32816	32824	
3266	0	32805	32863	
3267	0	32832	32775	
3268	0	32745	32846	
3269	0	32736	32902	
3270	0	32760	32768	
3271	0	32768	32812	
3272	0	32804	32838	
3273	0	32834	32716	
3274	0	32844	32706	
3275	0	32852	32732	
3276	0	32760	32775	
3277	0	32788	32694	
3278	0	32844	32744	
3279	0	32864	32716	
3280	0	32796	32819	
3281	0	32812	32839	
3282	0	32858	32852	
3283	0	32844	32835	
3284	0	32774	32830	
3285	0	32790	32864	
3286	0	32754	32863	
3287	0	32824	32838	
3288	0	32804	32793	
3289	0	32837	32797	
3290	0	32848	32839	
3291	0	32767	32843	
3292	0	32772	32787	
3293	0	32800	32797	
3294	0	32812	32838	
3295	0	32773	32763	
3296	0	32805	32826	
3297	0	32882	32804	
3298	0	32840	32850	
3299	0	32802	32857	
3300	0	32809	32832	
3301	0	32820	32860	
3302	0	32714	32848	
3303	0	32784	32861	
3304	0	32808	32788	
3305	0	32824	32837	
3306	0	32826	32770	
3307	0	32772	32831	
3308	0	32746	32816	
3309	0	32623	32809	
3310	0	32734	32772	
3311	0	32832	32754	
3312	0	32744	32772	
3313	0	32740	32734	
3314	0	32754	32718	
3315	0	32880	32713	
3316	0	32944	32646	
3317	0	33045	32630	
3318	0	32900	32766	
3319	0	32985	32762	
3320	0	32878	32782	
3321	0	32906	32754	
3322	0	32852	32706	
3323	0	32804	32710	
3324	0	32754	32760	
3325	0	32732	32775	
3326	0	32704	32865	
3327	0	32706	32818	
3328	0	32786	32881	
3329	0	32750	32871	
3330	0	32753	32828	
3331	0	32732	32826	
3332	0	32769	32843	
3333	0	32817	32837	
3334	0	32822	32818	
3335	0	32832	32827	
3336	0	32836	32770	
3337	0	32869	32740	
3338	0	32808	32726	
3339	0	32786	32824	
3340	0	32784	32754	
3341	0	32844	32839	
3342	0	32765	32774	
3343	0	32820	32738	
3344	0	32732	32823	
3345	0	32826	32775	
3346	0	32788	32835	
3347	0	32821	32871	
3348	0	32760	32845	
3349	0	32842	32797	
3350	0	32844	32866	
3351	0	32812	32848	
3352	0	32786	32856	
3353	0	32780	32726	
3354	0	32802	32800	
3355	0	32788	32866	
3356	0	32816	32856	
3357	0	32854	32775	
3358	0	32828	32775	
3359	0	32832	32707	
3360	0	32822	32775	
3361	0	32800	32724	
3362	0	32834	32801	
3363	0	32760	32793	
3364	0	32793	32805	
3365	0	32808	32805	
3366	0	32775	32849	
3367	0	32817	32848	
3368	0	32824	32805	
3369	0	32760	32831	
3370	0	32790	32808	
3371	0	32775	32801	
3372	0	32856	32807	
3373	0	32820	32821	
3374	0	32799	32750	
3375	0	32744	32758	
3376	0	32763	32909	
3377	0	32812	32863	
3378	0	32740	32832	
3379	0	32872	32870	
3380	0	32789	32899	
3381	0	32860	32854	
3382	0	32789	32850	
3383	0	32760	32848	
3384	0	32766	32838	
3385	0	32728	32902	
3386	0	32810	32860	
3387	0	32756	32924	
3388	0	32876	32857	
3389	0	32772	32842	
3390	0	32889	32954	
3391	0	32917	32861	
3392	0	32835	32876	
3393	0	32908	32822	
3394	0	32816	32800	
3395	0	32810	32789	
3396	0	32852	32825	
3397	0	32837	32869	
3398	0	32824	32820	
3399	0	32780	32788	
3400	0	32828	32884	
3401	0	32841	32767	
3402	0	32736	32831	
3403	0	32786	32805	
3404	0	32710	32828	
3405	0	32745	32836	
3406	0	32730	32806	
3407	0	32746	32818	
3408	0	32788	32826	
3409	0	32844	32868	
3410	0	32803	32891	
3411	0	32842	32813	
3412	0	32829	32826	
3413	0	32796	32863	
3414	0	32850	32820	
3415	0	32788	32882	
3416	0	32856	32696	
3417	0	32826	32775	
3418	0	32832	32722	
3419	0	32750	32738	
3420	0	32846	32816	
3421	0	32810	32839	
3422	0	32875	32738	
3423	0	32720	32734	
3424	0	32764	32790	
3425	0	32808	32820	
3426	0	32890	32846	
3427	0	32800	32760	
3428	0	32780	32686	
3429	0	32780	32725	
3430	0	32864	32803	
3431	0	32736	32819	
3432	0	32789	32852	
3433	0	32785	32802	
3434	0	32820	32813	
3435	0	32844	32762	
3436	0	32842	32844	
3437	0	32865	32807	
3438	0	32844	32854	
3439	0	32860	32870	
3440	0	32820	32856	
3441	0	32728	32841	
3442	0	32780	32868	
3443	0	32712	32731	
3444	0	32784	32783	
3445	0	32752	32792	
3446	0	32818	32729	
3447	0	32834	32717	
3448	0	32826	32749	
3449	0	32811	32833	
3450	0	32788	32838	
3451	0	32793	32801	
3452	0	32820	32797	
3453	0	32792	32784	
3454	0	32789	32803	
3455	0	32836	32847	
3456	0	32820	32898	
3457	0	32772	32792	
3458	0	32740	32823	
3459	0	32802	32828	
3460	0	32921	32854	
3461	0	32744	32789	
3462	0	32818	32827	
3463	0	32828	32785	
3464	0	32832	32771	
3465	0	32848	32840	
3466	0	32808	32828	
3467	0	32800	32800	
3468	0	32824	32896	
3469	0	32756	32805	
3470	0	32768	32837	
3471	0	32812	32868	
3472	0	32832	32892	
3473	0	32748	32805	
3474	0	32825	32804	
3475	0	32866	32772	
3476	0	32812	32772	
3477	0	32788	32825	
3478	0	32850	32861	
3479	0	32824	32870	
3480	0	32804	32907	
3481	0	32858	32872	
3482	0	32808	32832	
3483	0	32764	32774	
3484	0	32828	32713	
3485	0	32829	32745	
3486	0	32786	32800	
3487	0	32829	32816	
3488	0	32836	32813	
3489	0	32809	32797	
3490	0	32818	32831	
3491	0	32805	32903	
3492	0	32756	32878	
3493	0	32771	32799	
3494	0	32752	32860	
3495	0	32776	32792	
3496	0	32808	32818	
3497	0	32897	32856	
3498	0	32784	32858	
3499	0	32866	32864	
3500	0	32764	32879	
3501	0	32807	32921	
3502	0	32808	32888	
3503	0	32788	32869	
3504	0	32738	32891	
3505	0	32808	32839	
3506	0	32746	32711	
3507	0	32824	32731	
3508	0	32837	32738	
3509	0	32868	32723	
3510	0	32780	32738	
3511	0	32758	32742	
3512	0	32788	32748	
3513	0	32812	32859	
3514	0	32786	32815	
3515	0	32804	32811	
3516	0	32828	32789	
3517	0	32772	32802	
3518	0	32836	32825	
3519	0	32769	32846	
3520	0	32788	32802	
3521	0	32829	32794	
3522	0	32832	32838	
3523	0	32820	32846	
3524	0	32848	32864	
3525	0	32808	32834	
3526	0	32827	32818	
3527	0	32760	32689	
3528	0	32800	32797	
3529	0	32829	32706	
3530	0	32802	32888	
3531	0	32804	32839	
3532	0	32798	32682	
3533	0	32816	32743	
3534	0	32856	32820	
3535	0	32762	32871	
3536	0	32785	32852	
3537	0	32804	32768	
3538	0	32842	32752	
3539	0	32860	32801	
3540	0	32750	32892	
3541	0	32840	32745	
3542	0	32797	32734	
3543	0	32780	32750	
3544	0	32778	32726	
3545	0	32772	32827	
3546	0	32684	32825	
3547	0	32795	32920	
3548	0	32769	32828	
3549	0	32868	32816	
3550	0	32804	32786	
3551	0	32834	32802	
3552	0	32742	32815	
3553	0	32848	32868	
3554	0	32764	32860	
3555	0	32822	32834	
3556	0	32828	32851	
3557	0	32873	32751	
3558	0	32864	32731	
3559	0	32896	32700	
3560	0	32808	32685	
3561	0	32807	32624	
3562	0	32858	32724	
3563	0	32882	32584	
3564	0	32838	32596	
3565	0	32888	32518	
3566	0	32932	32577	
3567	0	32936	32636	
3568	0	32984	32601	
3569	0	32928	32551	
3570	0	32932	32594	
3571	0	32914	32651	
3572	0	32828	32666	
3573	0	32865	32867	
3574	0	32820	32832	
3575	0	32736	32902	
3576	0	32714	32963	
3577	0	32704	32903	
3578	0	32709	32877	
3579	0	32636	32872	
3580	0	32696	32832	
3581	0	32733	32906	
3582	0	32605	32991	
3583	0	32664	32908	
3584	0	32774	32983	
3585	0	32716	33024	
3586	0	32645	33184	
3587	0	32596	33158	
3588	0	32628	32971	
3589	0	32658	33000	
3590	0	32647	33040	
3591	0	32710	32905	
3592	0	32800	32796	
3593	0	32784	32824	
3594	0	32774	32794	
3595	0	32776	32804	
3596	0	32756	32757	
3597	0	32810	32723	
3598	0	32884	32671	
3599	0	32877	32674	
3600	0	32878	32658	
3601	0	32882	32620	
3602	0	32858	32621	
3603	0	32861	32635	
3604	0	32880	32734	
3605	0	32864	32704	
3606	0	32840	32695	
3607	0	32880	32669	
3608	0	32884	32706	
3609	0	32842	32744	
3610	0	32850	32749	
3611	0	32877	32752	
3612	0	32775	32642	
3613	0	32848	32670	
3614	0	32866	32724	
3615	0	32829	32740	
3616	0	32800	32701	
3617	0	32846	32741	
3618	0	32784	32804	
3619	0	32828	32773	
3620	0	32827	32780	
3621	0	32770	32806	
3622	0	32840	32867	
3623	0	32764	32868	
3624	0	32772	32824	
3625	0	32824	32854	
3626	0	32852	32839	
3627	0	32802	32808	
3628	0	32784	32836	
3629	0	32797	32793	
3630	0	32808	32767	
3631	0	32808	32825	
3632	0	32808	32820	
3633	0	32809	32894	
3634	0	32844	32912	
3635	0	32820	32895	
3636	0	32810	32832	
3637	0	32772	32864	
3638	0	32752	32889	
3639	0	32809	32797	
3640	0	32801	32824	
3641	0	32797	32719	
3642	0	32801	32846	
3643	0	32788	32793	
3644	0	32770	32793	
3645	0	32768	32808	
3646	0	32832	32804	
3647	0	32744	32836	
3648	0	32775	32795	
3649	0	32896	32819	
3650	0	32793	32887	
3651	0	32820	32916	
3652	0	32731	32844	
3653	0	32801	32859	
3654	0	32850	32890	
3655	0	32846	32775	
3656	0	32848	32774	
3657	0	32744	32768	
3658	0	32823	32750	
3659	0	32796	32890	
3660	0	32816	32764	
3661	0	32828	32839	
3662	0	32800	32814	
3663	0	32800	32772	
3664	0	32750	32760	
3665	0	32851	32762	
3666	0	32737	32775	
3667	0	32808	32736	
3668	0	32804	32718	
3669	0	32823	32806	
3670	0	32797	32742	
3671	0	32820	32712	
3672	0	32829	32742	
3673	0	32775	32827	
3674	0	32858	32851	
3675	0	32766	32837	
3676	0	32888	32775	
3677	0	32841	32741	
3678	0	32752	32775	
3679	0	32864	32867	
3680	0	32768	32861	
3681	0	32775	32848	
3682	0	32750	32740	
3683	0	32792	32754	
3684	0	32830	32839	
3685	0	32706	32853	
3686	0	32836	32830	
3687	0	32788	32890	
3688	0	32865	32576	
3689	0	32768	32797	
3690	0	32793	32828	
3691	0	32805	32825	
3692	0	32786	32753	
3693	0	32854	32762	
3694	0	32768	32740	
3695	0	32793	32797	
3696	0	32780	32824	
3697	0	32775	32903	
3698	0	32832	32835	
3699	0	32836	32882	
3700	0	32781	32801	
3701	0	32808	32838	
3702	0	32836	32789	
3703	0	32824	32824	
3704	0	32748	32820	
3705	0	32842	32815	
3706	0	32868	32796	
3707	0	32840	32738	
3708	0	32864	32707	
3709	0	32740	32694	
3710	0	32764	32736	
3711	0	32836	32796	
3712	0	32780	32888	
3713	0	32790	32846	
3714	0	32814	32879	
3715	0	32828	32834	
3716	0	32768	32848	
3717	0	32816	32844	
3718	0	32870	32811	
3719	0	32752	32775	
3720	0	32852	32834	
3721	0	32848	32839	
3722	0	32816	32748	
3723	0	32818	32722	
3724	0	32848	32765	
3725	0	32800	32733	
3726	0	32788	32724	
3727	0	32876	32746	
3728	0	32829	32719	
3729	0	32769	32830	
3730	0	32837	32902	
3731	0	32784	32850	
3732	0	32782	32775	
3733	0	32813	32865	
3734	0	32741	32896	
3735	0	32802	32822	
3736	0	32790	32775	
3737	0	32832	32804	
3738	0	32838	32808	
3739	0	32917	32851	
3740	0	32732	32869	
3741	0	32792	32898	
3742	0	32827	32850	
3743	0	32888	32860	
3744	0	32836	32847	
3745	0	32678	32824	
3746	0	32836	32828	
3747	0	32760	32831	
3748	0	32861	32766	
3749	0	32793	32719	
3750	0	32805	32807	
3751	0	32836	32748	
3752	0	32802	32763	
3753	0	32822	32723	
3754	0	32820	32679	
3755	0	32788	32722	
3756	0	32762	32824	
3757	0	32805	32816	
3758	0	32882	32924	
3759	0	32824	32857	
3760	0	32811	32737	
3761	0	32768	32732	
3762	0	32768	32783	
3763	0	32813	32713	
3764	0	32856	32754	
3765	0	32809	32738	
3766	0	32801	32822	
3767	0	32806	32796	
3768	0	32788	32818	
3769	0	32824	32768	
3770	0	32821	32854	
3771	0	32832	32787	
3772	0	32780	32822	
3773	0	32760	32756	
3774	0	32852	32813	
3775	0	32836	32882	
3776	0	32892	32829	
3777	0	32800	32796	
3778	0	32814	32852	
3779	0	32813	32788	
3780	0	32786	32835	
3781	0	32819	32825	
3782	0	32812	32692	
3783	0	32797	32812	
3784	0	32832	32902	
3785	0	32750	32858	
3786	0	32824	32848	
3787	0	32846	32851	
3788	0	32804	32815	
3789	0	32793	32739	
3790	0	32825	32848	
3791	0	32832	32902	
3792	0	32800	32775	
3793	0	32827	32760	
3794	0	32839	32793	
3795	0	32761	32811	
3796	0	32740	32791	
3797	0	32848	32850	
3798	0	32864	32818	
3799	0	32818	32839	
3800	0	32824	32775	
3801	0	32804	32676	
3802	0	32764	32876	
3803	0	32720	32813	
3804	0	32837	32819	
3805	0	32865	32847	
3806	0	32872	32835	
3807	0	32730	32795	
3808	0	32778	32774	
3809	0	32828	32874	
3810	0	32740	32752	
3811	0	32786	32835	
3812	0	32760	32815	
3813	0	32828	32805	
3814	0	32789	32878	
3815	0	32835	32866	
3816	0	32792	32786	
3817	0	32832	32889	
3818	0	32805	32786	
3819	0	32764	32775	
3820	0	32754	32764	
3821	0	32904	32740	
3822	0	32732	32711	
3823	0	32812	32712	
3824	0	32844	32688	
3825	0	32846	32761	
3826	0	32820	32737	
3827	0	32914	32773	
3828	0	32792	32728	
3829	0	32737	32773	
3830	0	32722	32752	
3831	0	32832	32717	
3832	0	32772	32711	
3833	0	32752	32733	
3834	0	32898	32745	
3835	0	32836	32797	
3836	0	32805	32699	
3837	0	32826	32788	
3838	0	32770	32726	
3839	0	32748	32816	
3840	0	32884	32828	
3841	0	32760	32834	
3842	0	32786	32795	
3843	0	32816	32810	
3844	0	32804	32836	
3845	0	32760	32795	
3846	0	32814	32896	
3847	0	32740	32912	
3848	0	32778	32875	
3849	0	32852	32775	
3850	0	32729	32751	
3851	0	32788	32803	
3852	0	32816	32770	
3853	0	32784	32794	
3854	0	32836	32766	
3855	0	32782	32771	
3856	0	32825	32751	
3857	0	32852	32797	
3858	0	32775	32715	
3859	0	32852	32726	
3860	0	32816	32762	
3861	0	32816	32706	
3862	0	32775	32702	
3863	0	32750	32720	
3864	0	32805	32820	
3865	0	32824	32786	
3866	0	32834	32814	
3867	0	32820	32748	
3868	0	32832	32801	
3869	0	32792	32850	
3870	0	32856	32805	
3871	0	32822	32663	
3872	0	32780	32744	
3873	0	32816	32770	
3874	0	32799	32816	
3875	0	32772	32903	
3876	0	32748	32854	
3877	0	32813	32836	
3878	0	32768	32820	
3879	0	32861	32839	
3880	0	32775	32760	
3881	0	32802	32809	
3882	0	32802	32814	
3883	0	32784	32758	
3884	0	32832	32694	
3885	0	32748	32713	
3886	0	32797	32752	
3887	0	32834	32787	
3888	0	32824	32848	
3889	0	32808	32733	
3890	0	32824	32700	
3891	0	32754	32769	
3892	0	32820	32884	
3893	0	32741	32726	
3894	0	32879	32770	
3895	0	32818	32811	
3896	0	32810	32711	
3897	0	32854	32758	
3898	0	32728	32869	
3899	0	32792	32818	
3900	0	32820	32709	
3901	0	32884	32770	
3902	0	32769	32863	
3903	0	32797	32902	
3904	0	32848	32818	
3905	0	32788	32843	
3906	0	32772	32813	
3907	0	32807	32764	
3908	0	32844	32711	
3909	0	32768	32762	
3910	0	32778	32796	
3911	0	32840	32878	
3912	0	32819	32892	
3913	0	32758	32829	
3914	0	32810	32845	
3915	0	32762	32819	
3916	0	32790	32837	
3917	0	32804	32715	
3918	0	32766	32699	
3919	0	32882	32841	
3920	0	32804	32856	
3921	0	32768	32827	
3922	0	32800	32802	
3923	0	32798	32839	
3924	0	32838	32797	
3925	0	32804	32763	
3926	0	32818	32758	
3927	0	32844	32775	
3928	0	32813	32864	
3929	0	32766	32908	
3930	0	32762	32865	
3931	0	32809	32765	
3932	0	32804	32813	
3933	0	32796	32765	
3934	0	32846	32824	
3935	0	32816	32848	
3936	0	32816	32841	
3937	0	32872	32733	
3938	0	32768	32703	
3939	0	32728	32808	
3940	0	32800	32736	
3941	0	32778	32718	
3942	0	32776	32711	
3943	0	32825	32721	
3944	0	32836	32775	
3945	0	32781	32766	
3946	0	32753	32741	
3947	0	32790	32869	
3948	0	32752	32773	
3949	0	32882	32834	
3950	0	32824	32839	
3951	0	32820	32850	
3952	0	32854	32845	
3953	0	32870	32809	
3954	0	32780	32788	
3955	0	32794	32855	
3956	0	32821	32793	
3957	0	32878	32809	
3958	0	32806	32849	
3959	0	32834	32709	
3960	0	32826	32791	
3961	0	32824	32898	
3962	0	32732	32839	
3963	0	32848	32788	
3964	0	32796	32832	
3965	0	32805	32768	
3966	0	32768	32798	
3967	0	32764	32740	
3968	0	32792	32684	
3969	0	32817	32816	
3970	0	32834	32804	
3971	0	32902	32794	
3972	0	32748	32856	
3973	0	32800	32855	
3974	0	32812	32870	
3975	0	32744	32807	
3976	0	32828	32800	
3977	0	32754	32742	
3978	0	32820	32729	
3979	0	32800	32695	
3980	0	32804	32733	
3981	0	32778	32771	
3982	0	32774	32868	
3983	0	32874	32820	
3984	0	32832	32842	
3985	0	32804	32811	
3986	0	32804	32797	
3987	0	32784	32736	
3988	0	32852	32744	
3989	0	32792	32894	
3990	0	32728	32818	
3991	0	32800	32869	
3992	0	32852	32767	
3993	0	32795	32738	
3994	0	32808	32761	
3995	0	32794	32692	
3996	0	32772	32760	
3997	0	32775	32837	
3998	0	32832	32876	
3999	0	32808	32833	
4000	0	32864	32885	
4001	0	32826	32866	
4002	0	32857	32838	
4003	0	32825	32710	
4004	0	32832	32709	
4005	0	32748	32719	
4006	0	32758	32700	
4007	0	32874	32757	
4008	0	32764	32828	
4009	0	32744	32862	
4010	0	32805	32821	
4011	0	32808	32782	
4012	0	32809	32902	
4013	0	32772	32823	
4014	0	32896	32853	
4015	0	32788	32830	
4016	0	32836	32862	
4017	0	32775	32765	
4018	0	32860	32786	
4019	0	32800	32680	
4020	0	32828	32720	
4021	0	32762	32813	
4022	0	32804	32861	
4023	0	32832	32811	
4024	0	32770	32864	
4025	0	32752	32842	
4026	0	32794	32786	
4027	0	32772	32822	
4028	0	32784	32847	
4029	0	32856	32866	
4030	0	32880	32774	
4031	0	32848	32843	
4032	0	32860	32775	
4033	0	32817	32775	
4034	0	32842	32825	
4035	0	32748	32805	
4036	0	32822	32869	
4037	0	32834	32861	
4038	0	32828	32767	
4039	0	32800	32802	
4040	0	32768	32852	
4041	0	32773	32738	
4042	0	32760	32704	
4043	0	32865	32775	
4044	0	32861	32771	
4045	0	32784	32774	
4046	0	32800	32756	
4047	0	32772	32813	
4048	0	32840	32838	
4049	0	32753	32780	
4050	0	32750	32832	
4051	0	32844	32813	
4052	0	32775	32811	
4053	0	32752	32775	
4054	0	32816	32764	
4055	0	32760	32714	
4056	0	32820	32775	
4057	0	32824	32836	
4058	0	32749	32839	
4059	0	32856	32774	
4060	0	32824	32651	
4061	0	32848	32849	
4062	0	32794	32811	
4063	0	32860	32807	
4064	0	32802	32878	
4065	0	32864	32834	
4066	0	32816	32875	
4067	0	32768	32866	
4068	0	32802	32862	
4069	0	32816	32813	
4070	0	32836	32722	
4071	0	32781	32738	
4072	0	32856	32775	
4073	0	32766	32750	
4074	0	32811	32870	
4075	0	32860	32839	
4076	0	32812	32884	
4077	0	32904	32905	
4078	0	32828	32824	
4079	0	32808	32735	
4080	0	32840	32799	
4081	0	32793	32705	
4082	0	32808	32774	
4083	0	32869	32795	
4084	0	32840	32857	
4085	0	32802	32879	
4086	0	32917	32821	
4087	0	32802	32790	
4088	0	32768	32750	
4089	0	32720	32809	
4090	0	32872	32852	
4091	0	32820	32785	
4092	0	32808	32891	
4093	0	32768	32832	
4094	0	32756	32830	
4095	0	32840	32832	
4096	0	32880	32863	
4097	0	32840	32765	
4098	0	32775	32775	
4099	0	32832	32734	
4100	0	32780	32751	
4101	0	32828	32764	
4102	0	32854	32726	
4103	0	32829	32687	
4104	0	32808	32718	
4105	0	32762	32824	
4106	0	32720	32820	
4107	0	32736	32796	
4108	0	32800	32819	
4109	0	32797	32907	
4110	0	32848	32680	
4111	0	32688	32702	
4112	0	32860	32851	
4113	0	32820	32866	
4114	0	32775	32818	
4115	0	32842	32735	
4116	0	32760	32823	
4117	0	32856	32847	
4118	0	32800	32812	
4119	0	32828	32743	
4120	0	32775	32791	
4121	0	32816	32795	
4122	0	32900	32775	
4123	0	32802	32761	
4124	0	32764	32816	
4125	0	32736	32799	
4126	0	32809	32857	
4127	0	32736	32743	
4128	0	32784	32743	
4129	0	32750	32794	
4130	0	32772	32834	
4131	0	32776	32868	
4132	0	32834	32809	
4133	0	32842	32888	
4134	0	32801	32851	
4135	0	32828	32741	
4136	0	32736	32818	
4137	0	32812	32807	
4138	0	32749	32795	
4139	0	32865	32652	
4140	0	32828	32710	
4141	0	32764	32784	
4142	0	32804	32753	
4143	0	32837	32835	
4144	0	32755	32828	
4145	0	32840	32890	
4146	0	32776	32824	
4147	0	32756	32812	
4148	0	32804	32754	
4149	0	32823	32742	
4150	0	32810	32825	
4151	0	32804	32832	
4152	0	32825	32882	
4153	0	32820	32847	
4154	0	32793	32892	
4155	0	32780	32742	
4156	0	32828	32696	
4157	0	32762	32769	
4158	0	32772	32752	
4159	0	32788	32800	
4160	0	32752	32839	
4161	0	32816	32790	
4162	0	32741	32812	
4163	0	32832	32833	
4164	0	32800	32802	
4165	0	32803	32858	
4166	0	32804	32882	
4167	0	32816	32841	
4168	0	32818	32859	
4169	0	32828	32827	
4170	0	32789	32742	
4171	0	32792	32710	
4172	0	32750	32783	
4173	0	32765	32797	
4174	0	32792	32801	
4175	0	32760	32763	
4176	0	32798	32858	
4177	0	32801	32786	
4178	0	32832	32805	
4179	0	32768	32736	
4180	0	32804	32731	
4181	0	32768	32817	
4182	0	32730	32775	
4183	0	32800	32815	
4184	0	32794	32804	
4185	0	32868	32714	
4186	0	32856	32691	
4187	0	32897	32619	
4188	0	32842	32967	
4189	0	32852	33108	
4190	0	32861	33079	
4191	0	32873	32896	
4192	0	32752	32836	
4193	0	32898	32786	
4194	0	32810	32756	
4195	0	32838	32820	
4196	0	32836	32843	
4197	0	32784	32835	
4198	0	32805	32800	
4199	0	32746	32764	
4200	0	32857	32736	
4201	0	32805	32805	
4202	0	32810	32820	
4203	0	32714	32775	
4204	0	32804	32769	
4205	0	32796	32784	
4206	0	32837	32860	
4207	0	32784	32846	
4208	0	32800	32859	
4209	0	32826	32863	
4210	0	32865	32824	
4211	0	32845	32903	
4212	0	32720	33018	
4213	0	32848	32848	
4214	0	32800	32784	
4215	0	32816	32726	
4216	0	32820	32721	
4217	0	32754	32726	
4218	0	32810	32834	
4219	0	32728	32853	
4220	0	32800	32744	
4221	0	32808	32775	
4222	0	32774	32775	
4223	0	32770	32740	
4224	0	32850	32705	
4225	0	32807	32736	
4226	0	32804	32726	
4227	0	32838	32730	
4228	0	32868	32712	
4229	0	32872	32775	
4230	0	32794	32712	
4231	0	32833	32729	
4232	0	32844	32678	
4233	0	32813	32644	
4234	0	32856	32713	
4235	0	32878	32647	
4236	0	33028	32652	
4237	0	33002	32604	
4238	0	32957	32615	
4239	0	32938	32673	
4240	0	32948	32672	
4241	0	32892	32628	
4242	0	32872	32741	
4243	0	32848	32792	
4244	0	32802	32792	
4245	0	32765	32764	
4246	0	32850	32810	
4247	0	32622	32919	
4248	0	32716	32841	
4249	0	32744	32888	
4250	0	32677	32860	
4251	0	32634	32948	
4252	0	32652	32907	
4253	0	32724	32937	
4254	0	32722	33021	
4255	0	32748	32991	
4256	0	32644	33058	
4257	0	32644	33106	
4258	0	32578	33078	
4259	0	32652	33140	
4260	0	32650	33046	
4261	0	32690	32907	
4262	0	32701	32985	
4263	0	32826	32917	
4264	0	32800	32865	
4265	0	32772	32923	
4266	0	32760	32758	
4267	0	32730	32913	
4268	0	32829	33044	
4269	0	32877	32964	
4270	0	32947	32775	
4271	0	32978	32647	
4272	0	32906	32595	
4273	0	32869	32658	
4274	0	32850	32821	
4275	0	32882	32763	
4276	0	32834	32744	
4277	0	32888	32764	
4278	0	32832	32719	
4279	0	32916	32658	
4280	0	32822	32750	
4281	0	32800	32647	
4282	0	32746	32750	
4283	0	32812	32604	
4284	0	32792	32652	
4285	0	32844	32699	
4286	0	32824	32797	
4287	0	32888	32787	
4288	0	32882	32895	
4289	0	32932	32936	
4290	0	32899	32856	
4291	0	32828	32806	
4292	0	32840	32767	
4293	0	32818	32696	
4294	0	32671	32676	
4295	0	32856	32706	
4296	0	32748	32690	
4297	0	32791	32772	
4298	0	32773	32807	
4299	0	32734	32927	
4300	0	32782	32988	
4301	0	32838	33008	
4302	0	32700	32924	
4303	0	32850	32866	
4304	0	32802	32810	
4305	0	32836	32913	
4306	0	32786	32825	
4307	0	32845	32696	
4308	0	32736	32736	
4309	0	32810	32773	
4310	0	32789	32765	
4311	0	32752	32674	
4312	0	32684	32722	
4313	0	32733	32690	
4314	0	32816	32700	
4315	0	32818	32812	
4316	0	32812	32987	
4317	0	32872	32994	
4318	0	32824	32975	
4319	0	32882	32731	
4320	0	32876	32643	
4321	0	32858	32510	
4322	0	32882	32660	
4323	0	32876	32805	
4324	0	32784	32767	
4325	0	32760	32738	
4326	0	32785	32807	
4327	0	32760	32878	
4328	0	32712	33002	
4329	0	32780	33068	
4330	0	32827	32968	
4331	0	32768	32897	
4332	0	32828	32864	
4333	0	32775	32820	
4334	0	32800	32816	
4335	0	32750	32954	
4336	0	32788	32912	
4337	0	32807	32775	
4338	0	32754	32771	
4339	0	32820	32870	
4340	0	32816	32873	
4341	0	32864	32822	
4342	0	32840	32784	
4343	0	32816	32671	
4344	0	32813	32802	
4345	0	32646	32792	
4346	0	32828	32821	
4347	0	32792	32750	
4348	0	32812	32773	
4349	0	32768	32681	
4350	0	32832	32690	
4351	0	32825	32739	
4352	0	32836	32857	
4353	0	32701	32821	
4354	0	32704	32850	
4355	0	32736	32839	
4356	0	32775	32823	
4357	0	32918	32688	
4358	0	32965	32676	
4359	0	32964	32716	
4360	0	32904	32663	
4361	0	32832	32681	
4362	0	32856	32697	
4363	0	32842	32656	
4364	0	32797	32799	
4365	0	32740	32799	
4366	0	32760	32752	
4367	0	32793	32754	
4368	0	32778	32870	
4369	0	32809	32856	
4370	0	32723	32893	
4371	0	32744	32908	
4372	0	32816	32844	
4373	0	32792	32860	
4374	0	32868	32774	
4375	0	32825	32784	
4376	0	32802	32698	
4377	0	32818	32742	
4378	0	32781	32803	
4379	0	32784	32764	
4380	0	32805	32726	
4381	0	32785	32884	
4382	0	32758	32846	
4383	0	32816	32818	
4384	0	32770	32840	
4385	0	32828	32918	
4386	0	32808	33019	
4387	0	32828	32967	
4388	0	32878	32790	
4389	0	32796	32667	
4390	0	32821	32679	
4391	0	32746	32620	
4392	0	32857	32690	
4393	0	32814	32657	
4394	0	32852	32701	
4395	0	32726	32868	
4396	0	32797	32910	
4397	0	32836	32726	
4398	0	32852	32805	
4399	0	32776	32847	
4400	0	32796	32908	
4401	0	32804	32968	
4402	0	32769	33069	
4403	0	32850	33236	
4404	0	32858	33111	
4405	0	32808	32988	
4406	0	32740	32732	
4407	0	32773	32660	
4408	0	32793	32569	
4409	0	32800	32557	
4410	0	32788	32578	
4411	0	32752	32706	
4412	0	32896	32626	
4413	0	32848	32656	
4414	0	32832	32647	
4415	0	32736	32707	
4416	0	32818	33091	
4417	0	32745	33019	
4418	0	32800	32850	
4419	0	32786	32730	
4420	0	32792	32750	
4421	0	32832	32664	
4422	0	32876	32622	
4423	0	32916	32764	
4424	0	32896	32852	
4425	0	32850	33014	
4426	0	32800	33079	
4427	0	32770	32871	
4428	0	32775	32738	
4429	0	32786	32685	
4430	0	32801	32595	
4431	0	32890	32639	
4432	0	32870	32556	
4433	0	32775	32426	
4434	0	32776	32615	
4435	0	32816	32731	
4436	0	32756	32990	
4437	0	32853	32957	
4438	0	32909	32891	
4439	0	32786	32788	
4440	0	32876	32672	
4441	0	32856	32711	
4442	0	32761	32699	
4443	0	32805	32622	
4444	0	32810	32668	
4445	0	32782	32818	
4446	0	32880	32775	
4447	0	32778	32744	
4448	0	32775	32797	
4449	0	32816	32812	
4450	0	32729	32889	
4451	0	32794	32789	
4452	0	32900	32918	
4453	0	32880	32792	
4454	0	32770	32825	
4455	0	32700	32775	
4456	0	32792	32759	
4457	0	32780	32737	
4458	0	32848	32759	
4459	0	32849	32812	
4460	0	32824	32724	
4461	0	32806	32816	
4462	0	32848	32827	
4463	0	32840	32827	
4464	0	32776	32839	
4465	0	32768	32859	
4466	0	32770	32847	
4467	0	32774	32757	
4468	0	32808	32725	
4469	0	32795	32685	
4470	0	32780	32705	
4471	0	32784	32805	
4472	0	32868	32745	
4473	0	32848	32804	
4474	0	32774	32968	
4475	0	32816	32936	
4476	0	32775	32812	
4477	0	32842	32892	
4478	0	32848	32802	
4479	0	32821	32820	
4480	0	32708	32943	
4481	0	32812	32857	
4482	0	32775	32856	
4483	0	32832	32658	
4484	0	32824	32488	
4485	0	32868	32564	
4486	0	32804	32583	
4487	0	32830	32775	
4488	0	32714	32839	
4489	0	32780	32814	
4490	0	32828	32919	
4491	0	32804	32828	
4492	0	32753	32877	
4493	0	32824	32713	
4494	0	32800	32804	
4495	0	32813	32880	
4496	0	32770	32857	
4497	0	32826	32846	
4498	0	32724	32824	
4499	0	32777	32807	
4500	0	32834	32775	
4501	0	32849	32812	
4502	0	32800	32821	
4503	0	32764	32855	
4504	0	32796	32784	
4505	0	32828	32751	
4506	0	32821	32767	
4507	0	32768	32703	
4508	0	32776	32758	
4509	0	32840	32701	
4510	0	32822	32750	
4511	0	32786	32733	
4512	0	32778	32775	
4513	0	32738	32747	
4514	0	32832	32822	
4515	0	32760	32849	
4516	0	32767	32844	
4517	0	32775	32832	
4518	0	32808	32847	
4519	0	32788	32858	
4520	0	32750	32812	
4521	0	32826	32826	
4522	0	32720	32859	
4523	0	32820	32871	
4524	0	32764	32895	
4525	0	32817	32794	
4526	0	32784	32865	
4527	0	32744	32788	
4528	0	32864	32759	
4529	0	32784	32713	
4530	0	32820	32729	
4531	0	32818	32857	
4532	0	32743	32867	
4533	0	32806	32845	
4534	0	32886	32827	
4535	0	32796	32846	
4536	0	32812	32829	
4537	0	32828	32721	
4538	0	32776	32717	
4539	0	32840	32768	
4540	0	32801	32751	
4541	0	32848	32770	
4542	0	32758	32721	
4543	0	32825	32684	
4544	0	32744	32738	
4545	0	32790	32761	
4546	0	32776	32722	
4547	0	32852	32794	
4548	0	32838	32752	
4549	0	32856	32697	
4550	0	32871	32678	
4551	0	32790	32809	
4552	0	32829	32805	
4553	0	32812	32717	
4554	0	32796	32832	
4555	0	32800	32856	
4556	0	32808	32814	
4557	0	32784	32854	
4558	0	32824	32888	
4559	0	32775	32795	
4560	0	32813	32790	
4561	0	32840	32733	
4562	0	32748	32839	
4563	0	32802	32790	
4564	0	32832	32812	
4565	0	32748	32799	
4566	0	32834	32734	
4567	0	32848	32746	
4568	0	32797	32693	
4569	0	32809	32836	
4570	0	32764	32864	
4571	0	32817	32786	
4572	0	32844	32857	
4573	0	32772	32747	
4574	0	32764	32829	
4575	0	32829	32815	
4576	0	32808	32813	
4577	0	32869	32756	
4578	0	32796	32771	
4579	0	32824	32844	
4580	0	32802	32792	
4581	0	32760	32772	
4582	0	32832	32877	
4583	0	32809	32840	
4584	0	32812	32840	
4585	0	32832	32983	
4586	0	32776	32873	
4587	0	32793	32809	
4588	0	32794	32775	
4589	0	32864	32756	
4590	0	32848	32674	
4591	0	32811	32584	
4592	0	32792	32617	
4593	0	32812	32696	
4594	0	32789	32766	
4595	0	32781	32840	
4596	0	32772	32857	
4597	0	32864	32858	
4598	0	32816	32861	
4599	0	32884	32813	
4600	0	32818	32879	
4601	0	32806	32840	
4602	0	32841	32905	
4603	0	32852	32787	
4604	0	32774	32709	
4605	0	32738	32720	
4606	0	32800	32815	
4607	0	32774	32884	
4608	0	32792	32828	
4609	0	32798	32892	
4610	0	32774	32787	
4611	0	32784	32773	
4612	0	32762	32830	
4613	0	32772	32869	
4614	0	32752	32797	
4615	0	32780	32839	
4616	0	32804	32838	
4617	0	32869	32840	
4618	0	32864	32715	
4619	0	32880	32697	
4620	0	32873	32741	
4621	0	32801	32740	
4622	0	32794	32639	
4623	0	32812	32628	
4624	0	32780	32621	
4625	0	32752	32761	
4626	0	32813	32814	
4627	0	32792	32867	
4628	0	32752	32864	
4629	0	32819	32900	
4630	0	32832	32887	
4631	0	32856	32970	
4632	0	32898	32818	
4633	0	32804	32702	
4634	0	32752	32792	
4635	0	32788	32814	
4636	0	32758	32775	
4637	0	32832	32871	
4638	0	32848	32775	
4639	0	32772	32741	
4640	0	32805	32737	
4641	0	32821	32879	
4642	0	32784	32841	
4643	0	32801	32804	
4644	0	32754	32702	
4645	0	32849	32825	
4646	0	32908	32797	
4647	0	32764	32748	
4648	0	32740	32861	
4649	0	32770	32870	
4650	0	32768	32857	
4651	0	32780	32661	
4652	0	32868	32759	
4653	0	32749	32797	
4654	0	32824	32828	
4655	0	32810	32866	
4656	0	32901	32818	
4657	0	32844	32790	
4658	0	32783	32728	
4659	0	32800	32740	
4660	0	32745	32674	
4661	0	32826	32845	
4662	0	32804	32847	
4663	0	32825	32790	
4664	0	32780	32768	
4665	0	32760	32718	
4666	0	32848	32827	
4667	0	32857	32889	
4668	0	32860	32883	
4669	0	32812	32814	
4670	0	32763	32772	
4671	0	32858	32736	
4672	0	32768	32764	
4673	0	32796	32720	
4674	0	32818	32846	
4675	0	32754	32821	
4676	0	32805	32804	
4677	0	32800	32852	
4678	0	32788	32838	
4679	0	32850	32711	
4680	0	32864	32711	
4681	0	32796	32881	
4682	0	32775	32800	
4683	0	32722	32836	
4684	0	32832	32862	
4685	0	32816	32860	
4686	0	32840	32771	
4687	0	32824	32703	
4688	0	32768	32780	
4689	0	32814	32842	
4690	0	32797	32742	
4691	0	32764	32823	
4692	0	32834	32946	
4693	0	32850	32839	
4694	0	32850	32756	
4695	0	32768	32786	
4696	0	32840	32748	
4697	0	32736	32670	
4698	0	32812	32696	
4699	0	32860	32792	
4700	0	32836	32817	
4701	0	32740	32822	
4702	0	32796	32824	
4703	0	32802	32876	
4704	0	32798	32745	
4705	0	32808	32840	
4706	0	32804	32791	
4707	0	32786	32803	
4708	0	32784	32736	
4709	0	32837	32691	
4710	0	32837	32758	
4711	0	32800	32686	
4712	0	32787	32720	
4713	0	32816	32775	
4714	0	32840	32828	
4715	0	32842	32756	
4716	0	32808	32797	
4717	0	32816	32774	
4718	0	32817	32852	
4719	0	32785	32812	
4720	0	32786	32834	
4721	0	32820	32841	
4722	0	32899	32889	
4723	0	32829	32818	
4724	0	32699	32737	
4725	0	32780	32768	
4726	0	32762	32747	
4727	0	32746	32797	
4728	0	32778	32829	
4729	0	32820	32837	
4730	0	32780	32850	
4731	0	32816	32851	
4732	0	32816	32907	
4733	0	32800	32808	
4734	0	32829	32725	
4735	0	32877	32659	
4736	0	32816	32706	
4737	0	32795	32710	
4738	0	32792	32829	
4739	0	32806	32787	
4740	0	32796	32767	
4741	0	32828	32775	
4742	0	32840	32775	
4743	0	32762	32866	
4744	0	32824	32912	
4745	0	32740	32748	
4746	0	32784	32859	
4747	0	32764	32813	
4748	0	32880	32736	
4749	0	32880	32676	
4750	0	32784	32887	
4751	0	32822	32838	
4752	0	32718	32879	
4753	0	32814	32795	
4754	0	32838	32802	
4755	0	32766	32855	
4756	0	32788	32821	
4757	0	32826	32729	
4758	0	32800	32717	
4759	0	32833	32790	
4760	0	32792	32770	
4761	0	32792	32741	
4762	0	32778	32729	
4763	0	32851	32801	
4764	0	32848	32746	
4765	0	32736	32814	
4766	0	32818	32854	
4767	0	32836	32886	
4768	0	32738	32818	
4769	0	32800	32874	
4770	0	32820	32910	
4771	0	32760	32879	
4772	0	32834	32836	
4773	0	32864	32792	
4774	0	32748	32775	
4775	0	32796	32775	
4776	0	32872	32769	
4777	0	32808	32743	
4778	0	32812	32903	
4779	0	32732	32809	
4780	0	32756	32844	
4781	0	32804	32782	
4782	0	32836	32849	
4783	0	32744	32901	
4784	0	32750	32856	
4785	0	32804	32824	
4786	0	32790	32909	
4787	0	32838	32825	
4788	0	32796	32813	
4789	0	32758	32773	
4790	0	32768	32865	
4791	0	32838	32824	
4792	0	32805	32765	
4793	0	32840	32847	
4794	0	32834	32870	
4795	0	32808	32907	
4796	0	32848	32864	
4797	0	32804	32826	
4798	0	32816	32728	
4799	0	32764	32742	
4800	0	32856	32675	
4801	0	32794	32812	
4802	0	32802	32818	
4803	0	32808	32911	
4804	0	32805	32848	
4805	0	32797	32812	
4806	0	32774	32817	
4807	0	32828	32816	
4808	0	32844	32935	
4809	0	32824	32841	
4810	0	32802	32816	
4811	0	32824	32916	
4812	0	32784	32845	
4813	0	32760	32838	
4814	0	32841	32870	
4815	0	32848	32726	
4816	0	32874	32759	
4817	0	32848	32774	
4818	0	32788	32719	
4819	0	32820	32785	
4820	0	32802	32733	
4821	0	32809	32720	
4822	0	32846	32859	
4823	0	32720	32786	
4824	0	32808	32804	
4825	0	32880	32830	
4826	0	32778	32816	
4827	0	32788	32876	
4828	0	32844	32839	
4829	0	32783	32760	
4830	0	32736	32755	
4831	0	32792	32766	
4832	0	32858	32711	
4833	0	32774	32761	
4834	0	32762	32789	
4835	0	32794	32763	
4836	0	32832	32839	
4837	0	32790	32900	
4838	0	32740	32729	
4839	0	32856	32863	
4840	0	32832	32884	
4841	0	32804	32816	
4842	0	32834	32822	
4843	0	32820	32786	
4844	0	32784	32793	
4845	0	32804	32877	
4846	0	32832	32863	
4847	0	32816	32852	
4848	0	32825	32908	
4849	0	32766	32792	
4850	0	32752	32801	
4851	0	32784	32721	
4852	0	32858	32748	
4853	0	32816	32661	
4854	0	32803	32748	
4855	0	32824	32795	
4856	0	32844	32864	
4857	0	32772	32816	
4858	0	32784	32916	
4859	0	32801	32738	
4860	0	32796	32749	
4861	0	32804	32720	
4862	0	32828	32801	
4863	0	32892	32824	
4864	0	32784	32823	
4865	0	32804	32825	
4866	0	32762	32791	
4867	0	32775	32868	
4868	0	32786	32861	
4869	0	32828	32832	
4870	0	32832	32920	
4871	0	32777	32846	
4872	0	32772	32824	
4873	0	32761	32901	
4874	0	32728	32751	
4875	0	32832	32680	
4876	0	32805	32735	
4877	0	32772	32813	
4878	0	32812	32714	
4879	0	32793	32846	
4880	0	32853	32850	
4881	0	32808	32787	
4882	0	32869	32793	
4883	0	32804	32791	
4884	0	32745	32731	
4885	0	32946	32839	
4886	0	32834	32831	
4887	0	32852	32726	
4888	0	32762	32739	
4889	0	32974	32634	
4890	0	32920	32620	
4891	0	32888	32652	
4892	0	32930	32684	
4893	0	32999	32627	
4894	0	32944	32663	
4895	0	32908	32679	
4896	0	32896	32723	
4897	0	32868	32679	
4898	0	32984	32628	
4899	0	32852	32719	
4900	0	32750	32753	
4901	0	32744	32797	
4902	0	32677	32808	
4903	0	32729	32882	
4904	0	32686	32825	
4905	0	32694	32977	
4906	0	32742	32882	
4907	0	32632	32972	
4908	0	32660	32994	
4909	0	32774	33010	
4910	0	32684	32982	
4911	0	32640	33021	
4912	0	32644	33058	
4913	0	32668	33151	
4914	0	32669	33103	
4915	0	32644	33168	
4916	0	32732	33053	
4917	0	32701	33003	
4918	0	32786	32973	
4919	0	32808	32854	
4920	0	32784	32824	
4921	0	32813	32861	
4922	0	32800	32903	
4923	0	32837	32863	
4924	0	32786	32766	
4925	0	32836	32626	
4926	0	32870	32656	
4927	0	32850	32785	
4928	0	32837	32671	
4929	0	32773	32728	
4930	0	32853	32724	
4931	0	32920	32694	
4932	0	32866	32665	
4933	0	32836	32594	
4934	0	32900	32670	
4935	0	32824	32759	
4936	0	32902	32738	
4937	0	32852	32735	
4938	0	32893	32813	
4939	0	32837	32717	
4940	0	32778	32775	
4941	0	32789	32751	
4942	0	32848	32843	
4943	0	32769	32839	
4944	0	32793	32838	
4945	0	32758	32812	
4946	0	32816	32788	
4947	0	32790	32775	
4948	0	32748	32786	
4949	0	32816	32824	
4950	0	32764	32748	
4951	0	32848	32796	
4952	0	32792	32763	
4953	0	32840	32732	
4954	0	32868	32793	
4955	0	32808	32787	
4956	0	32808	32811	
4957	0	32888	32823	
4958	0	32797	32848	
4959	0	32836	32835	
4960	0	32801	32826	
4961	0	32728	32760	
4962	0	32759	32642	
4963	0	32792	32792	
4964	0	32788	32920	
4965	0	32740	32882	
4966	0	32764	32775	
4967	0	32864	32740	
4968	0	32876	32775	
4969	0	32857	32828	
4970	0	32836	32832	
4971	0	32804	32787	
4972	0	32830	32775	
4973	0	32826	32778	
4974	0	32812	32775	
4975	0	32808	32852	
4976	0	32804	32764	
4977	0	32825	32704	
4978	0	32754	32721	
4979	0	32792	32864	
4980	0	32746	32785	
4981	0	32775	32845	
4982	0	32920	32890	
4983	0	32785	32872	
4984	0	32758	32888	
4985	0	32784	32933	
4986	0	32805	32756	
4987	0	32754	32696	
4988	0	32820	32676	
4989	0	32828	32738	
4990	0	32760	32744	
4991	0	32818	32738	
4992	0	32796	32825	
4993	0	32811	32730	
4994	0	32820	32821	
4995	0	32728	32771	
4996	0	32856	32813	
4997	0	32789	32835	
4998	0	32780	32893	
4999	0	32754	32918	
5000	0	32758	32853	
5001	0	32782	32790	
5002	0	32848	32739	
5003	0	32792	32728	
5004	0	32804	32888	
5005	0	32813	32683	
5006	0	32775	32784	
5007	0	32816	32772	
5008	0	32836	32700	
5009	0	32840	32856	
5010	0	32772	32866	
5011	0	32812	32866	
5012	0	32780	32755	
5013	0	32745	32804	
5014	0	32804	32858	
5015	0	32864	32874	
5016	0	32784	32826	
5017	0	32842	32790	
5018	0	32848	32730	
5019	0	32804	32702	
5020	0	32862	32758	
5021	0	32844	32756	
5022	0	32770	32767	
5023	0	32746	32784	
5024	0	32792	32751	
5025	0	32764	32699	
5026	0	32728	32769	
5027	0	32864	32711	
5028	0	32795	32708	
5029	0	32788	32728	
5030	0	32839	32850	
5031	0	32788	32740	
5032	0	32736	32813	
5033	0	32820	32880	
5034	0	32775	32871	
5035	0	32854	32752	
5036	0	32804	32663	
5037	0	32760	32658	
5038	0	32772	32810	
5039	0	32862	32804	
5040	0	32816	32847	
5041	0	32824	32818	
5042	0	32814	32903	
5043	0	32870	32843	
5044	0	32795	32670	
5045	0	32732	32775	
5046	0	32776	32688	
5047	0	32804	32805	
5048	0	32787	32836	
5049	0	32870	32903	
5050	0	32773	32743	
5051	0	32832	32790	
5052	0	32828	32961	
5053	0	32876	32866	
5054	0	32804	32896	
5055	0	32810	32720	
5056	0	32752	32746	
5057	0	32771	32902	
5058	0	32838	32826	
5059	0	32836	32902	
5060	0	32784	32793	
5061	0	32749	32786	
5062	0	32816	32742	
5063	0	32760	32742	
5064	0	32792	32854	
5065	0	32848	32788	
5066	0	32812	32817	
5067	0	32756	32860	
5068	0	32740	32828	
5069	0	32840	32843	
5070	0	32824	32854	
5071	0	32826	32858	
5072	0	32744	32738	
5073	0	32860	32762	
5074	0	32760	32763	
5075	0	32832	32726	
5076	0	32818	32671	
5077	0	32850	32860	
5078	0	32857	32843	
5079	0	32840	32792	
5080	0	32766	32836	
5081	0	32766	32871	
5082	0	32832	32839	
5083	0	32760	32775	
5084	0	32748	32712	
5085	0	32838	32839	
5086	0	32854	32825	
5087	0	32804	32877	
5088	0	32773	32854	
5089	0	32796	32923	
5090	0	32738	32860	
5091	0	32756	32890	
5092	0	32788	32786	
5093	0	32762	32850	
5094	0	32758	32836	
5095	0	32775	32740	
5096	0	32836	32801	
5097	0	32790	32733	
5098	0	32796	32873	
5099	0	32856	32813	
5100	0	32793	32818	
5101	0	32778	32775	
5102	0	32878	32824	
5103	0	32792	32803	
5104	0	32808	32767	
5105	0	32814	32825	
5106	0	32856	32762	
5107	0	32788	32746	
5108	0	32780	32882	
5109	0	32804	32804	
5110	0	32784	32622	
5111	0	32850	32739	
5112	0	32784	32807	
5113	0	32849	32828	
5114	0	32760	32872	
5115	0	32820	32862	
5116	0	32784	32884	
5117	0	32826	32796	
5118	0	32837	32813	
5119	0	32814	32871	
5120	0	32768	32839	
5121	0	32802	32800	
5122	0	32720	32717	
5123	0	32770	32722	
5124	0	32775	32752	
5125	0	32828	32870	
5126	0	32809	32826	
5127	0	32761	32826	
5128	0	32858	32741	
5129	0	32733	32805	
5130	0	32816	32855	
5131	0	32848	32898	
5132	0	32748	32848	
5133	0	32822	32790	
5134	0	32834	32772	
5135	0	32857	32763	
5136	0	32784	32839	
5137	0	32804	32766	
5138	0	32788	32751	
5139	0	32802	32710	
5140	0	32800	32717	
5141	0	32804	32750	
5142	0	32804	32682	
5143	0	32882	32839	
5144	0	32799	32850	
5145	0	32779	32811	
5146	0	32834	32762	
5147	0	32880	32739	
5148	0	32836	32860	
5149	0	32870	32774	
5150	0	32771	32831	
5151	0	32752	32826	
5152	0	32748	32840	
5153	0	32752	32754	
5154	0	32816	32903	
5155	0	32780	32812	
5156	0	32804	32868	
5157	0	32761	32841	
5158	0	32752	32612	
5159	0	32866	32644	
5160	0	32792	32775	
5161	0	32732	32824	
5162	0	32773	32867	
5163	0	32820	32827	
5164	0	32842	32763	
5165	0	32772	32888	
5166	0	32832	32836	
5167	0	32864	32943	
5168	0	32812	32895	
5169	0	32812	32858	
5170	0	32773	32826	
5171	0	32823	32876	
5172	0	32824	32849	
5173	0	32796	32743	
5174	0	32776	32676	
5175	0	32801	32704	
5176	0	32780	32769	
5177	0	32811	32804	
5178	0	32794	32786	
5179	0	32827	32715	
5180	0	32775	32542	
5181	0	32775	32710	
5182	0	32742	32864	
5183	0	32836	32985	
5184	0	32776	33100	
5185	0	32816	32990	
5186	0	32816	32848	
5187	0	32801	32818	
5188	0	32832	32735	
5189	0	32883	32586	
5190	0	32898	32716	
5191	0	32810	32666	
5192	0	32802	32742	
5193	0	32796	32887	
5194	0	32828	32809	
5195	0	32742	32640	
5196	0	32824	32645	
5197	0	32804	32829	
5198	0	32801	32839	
5199	0	32832	32915	
5200	0	32840	32944	
5201	0	32852	32901	
5202	0	32797	32882	
5203	0	32802	32829	
5204	0	32864	32908	
5205	0	32836	32898	
5206	0	32788	32721	
5207	0	32685	32743	
5208	0	32870	32676	
5209	0	32754	32866	
5210	0	32850	32874	
5211	0	32784	32900	
5212	0	32862	32886	
5213	0	32884	32843	
5214	0	32777	32880	
5215	0	32860	32742	
5216	0	32809	32729	
5217	0	32820	32772	
5218	0	32744	32827	
5219	0	32832	32671	
5220	0	32756	32713	
5221	0	32901	32844	
5222	0	32812	32796	
5223	0	32733	32578	
5224	0	32880	32561	
5225	0	32817	32668	
5226	0	32832	32754	
5227	0	32775	32819	
5228	0	32812	32911	
5229	0	32772	32900	
5230	0	32884	33007	
5231	0	32836	33018	
5232	0	32808	32851	
5233	0	32712	32819	
5234	0	32721	32754	
5235	0	32846	32786	
5236	0	32844	32728	
5237	0	32860	32672	
5238	0	32788	32658	
5239	0	32796	32825	
5240	0	32760	32871	
5241	0	32722	32850	
5242	0	32766	32811	
5243	0	32816	32832	
5244	0	32792	32904	
5245	0	32857	32844	
5246	0	32809	32775	
5247	0	32829	32805	
5248	0	32816	32760	
5249	0	32826	32819	
5250	0	32720	32760	
5251	0	32802	32795	
5252	0	32683	32707	
5253	0	32808	32633	
5254	0	32844	32716	
5255	0	32878	32829	
5256	0	32888	32927	
5257	0	32840	32937	
5258	0	32808	32928	
5259	0	32752	32911	
5260	0	32876	33005	
5261	0	32778	33000	
5262	0	32849	32813	
5263	0	32814	32742	
5264	0	32816	32680	
5265	0	32818	32585	
5266	0	32812	32489	
5267	0	32788	32560	
5268	0	32784	32790	
5269	0	32793	32857	
5270	0	32816	32793	
5271	0	32712	32732	
5272	0	32778	32668	
5273	0	32775	32640	
5274	0	32810	33064	
5275	0	32850	33085	
5276	0	32802	33072	
5277	0	32788	33051	
5278	0	32748	33135	
5279	0	32768	32740	
5280	0	32808	32571	
5281	0	32792	32481	
5282	0	32836	32292	
5283	0	32898	32437	
5284	0	32832	32702	
5285	0	32822	32968	
5286	0	32774	33038	
5287	0	32752	33039	
5288	0	32816	32999	
5289	0	32797	32992	
5290	0	32788	32919	
5291	0	32824	32829	
5292	0	32714	32765	
5293	0	32726	32699	
5294	0	32796	32736	
5295	0	32788	32775	
5296	0	32836	32750	
5297	0	32754	32739	
5298	0	32846	32617	
5299	0	32850	32680	
5300	0	32894	32835	
5301	0	32805	32992	
5302	0	32868	32925	
5303	0	32816	32833	
5304	0	32740	32752	
5305	0	32794	32642	
5306	0	32800	32651	
5307	0	32832	32761	
5308	0	32791	32823	
5309	0	32758	32813	
5310	0	32720	32797	
5311	0	32861	32877	
5312	0	32805	32899	
5313	0	32792	32890	
5314	0	32918	32898	
5315	0	32780	32775	
5316	0	32840	32694	
5317	0	32806	32715	
5318	0	32764	32701	
5319	0	32805	32734	
5320	0	32775	32800	
5321	0	32774	32816	
5322	0	32728	32816	
5323	0	32803	32791	
5324	0	32816	32602	
5325	0	32758	32495	
5326	0	32772	32647	
5327	0	32775	32792	
5328	0	32824	32935	
5329	0	32852	32886	
5330	0	32749	32849	
5331	0	32803	32844	
5332	0	32900	32880	
5333	0	32827	32824	
5334	0	32728	32617	
5335	0	32816	32596	
5336	0	32774	32527	
5337	0	32832	32676	
5338	0	32865	32959	
5339	0	32888	33214	
5340	0	32702	33268	
5341	0	32880	33287	
5342	0	32969	32998	
5343	0	32864	32843	
5344	0	32824	32577	
5345	0	32840	32429	
5346	0	32768	32547	
5347	0	32786	32668	
5348	0	32820	32782	
5349	0	32802	32654	
5350	0	32775	32822	
5351	0	32792	33111	
5352	0	32788	33086	
5353	0	32808	32998	
5354	0	32780	32579	
5355	0	32756	32316	
5356	0	32864	32235	
5357	0	32813	32328	
5358	0	32748	32533	
5359	0	32724	32836	
5360	0	32762	32893	
5361	0	32776	32926	
5362	0	32760	33076	
5363	0	32916	33081	
5364	0	32774	33049	
5365	0	32842	32969	
5366	0	32872	33042	
5367	0	32837	32863	
5368	0	32832	32768	
5369	0	32875	32998	
5370	0	32868	32992	
5371	0	32818	32892	
5372	0	32786	32409	
5373	0	32822	32294	
5374	0	32900	32314	
5375	0	32837	32312	
5376	0	32830	32640	
5377	0	32758	32954	
5378	0	32852	33415	
5379	0	32792	33353	
5380	0	32684	33184	
5381	0	32740	32942	
5382	0	32736	32621	
5383	0	32672	32676	
5384	0	32729	32844	
5385	0	32690	32455	
5386	0	32711	32732	
5387	0	32899	32240	
5388	0	32892	32515	
5389	0	32900	32830	
5390	0	32778	33394	
5391	0	32804	33476	
5392	0	32864	33023	
5393	0	32821	33071	
5394	0	32922	33306	
5395	0	32885	32903	
5396	0	32916	32655	
5397	0	32842	32506	
5398	0	32748	32338	
5399	0	32802	32537	
5400	0	32865	32809	
5401	0	32820	32603	
5402	0	32832	32564	
5403	0	32783	32512	
5404	0	32749	32764	
5405	0	32704	32692	
5406	0	32825	32436	
5407	0	32980	32811	
5408	0	32966	32896	
5409	0	32880	32918	
5410	0	32768	32668	
5411	0	32712	32938	
5412	0	32748	32775	
5413	0	32692	33107	
5414	0	32674	33264	
5415	0	32712	33241	
5416	0	32736	33127	
5417	0	32744	32775	
5418	0	32868	32493	
5419	0	32840	32358	
5420	0	32890	32303	
5421	0	32912	32585	
5422	0	32810	32808	
5423	0	32820	33068	
5424	0	32824	32958	
5425	0	32772	33191	
5426	0	32730	33085	
5427	0	32778	33154	
5428	0	32728	33006	
5429	0	32790	32550	
5430	0	32802	32614	
5431	0	32792	32592	
5432	0	32852	32628	
5433	0	32898	32732	
5434	0	32861	32739	
5435	0	32848	32470	
5436	0	32790	32686	
5437	0	32869	32913	
5438	0	32860	32775	
5439	0	32766	32911	
5440	0	32880	33140	
5441	0	32781	32998	
5442	0	32648	33381	
5443	0	32716	33197	
5444	0	32813	32899	
5445	0	32784	32530	
5446	0	32804	32385	
5447	0	32858	32370	
5448	0	32832	32087	
5449	0	32800	32423	
5450	0	32793	32884	
5451	0	32740	33003	
5452	0	32813	33245	
5453	0	32849	33069	
5454	0	32792	32884	
5455	0	32826	32944	
5456	0	32780	32893	
5457	0	32844	32952	
5458	0	32852	32808	
5459	0	32917	32553	
5460	0	32816	32976	
5461	0	32802	33089	
5462	0	32837	33219	
5463	0	32800	33294	
5464	0	32752	33074	
5465	0	32704	32877	
5466	0	32808	32294	
5467	0	32929	31588	
5468	0	33117	31929	
5469	0	32944	32078	
5470	0	33016	32806	
5471	0	32940	33135	
5472	0	32900	33339	
5473	0	32884	33528	
5474	0	32810	33231	
5475	0	32756	32892	
5476	0	32637	32940	
5477	0	32560	32647	
5478	0	32528	32583	
5479	0	32576	32646	
5480	0	32548	32640	
5481	0	32588	32813	
5482	0	32620	32833	
5483	0	32732	32764	
5484	0	32766	32647	
5485	0	32819	32748	
5486	0	32796	32711	
5487	0	32818	32976	
5488	0	32800	32794	
5489	0	32828	32601	
5490	0	32868	32662	
5491	0	32924	32855	
5492	0	32924	33138	
5493	0	32930	33100	
5494	0	32910	32990	
5495	0	32944	32846	
5496	0	32900	32736	
5497	0	32928	32797	
5498	0	32864	32715	
5499	0	32803	32786	
5500	0	32796	33188	
5501	0	32732	33380	
5502	0	32704	33021	
5503	0	32758	32814	
5504	0	32786	32947	
5505	0	32736	32965	
5506	0	32790	32849	
5507	0	32808	32617	
5508	0	32888	32440	
5509	0	32872	32243	
5510	0	32900	31842	
5511	0	32868	32000	
5512	0	32884	32805	
5513	0	32818	33071	
5514	0	32756	32972	
5515	0	32742	33298	
5516	0	32752	33424	
5517	0	32838	33700	
5518	0	32896	33229	
5519	0	32868	33077	
5520	0	32920	32794	
5521	0	32929	32089	
5522	0	32838	32241	
5523	0	32824	32244	
5524	0	32760	32233	
5525	0	32714	32918	
5526	0	32732	33310	
5527	0	32614	33414	
5528	0	32682	33030	
5529	0	32776	32751	
5530	0	32790	32565	
5531	0	32760	32510	
5532	0	32756	32276	
5533	0	32690	31926	
5534	0	32681	32212	
5535	0	32725	32636	
5536	0	32736	32712	
5537	0	32696	33012	
5538	0	32775	33252	
5539	0	32822	33310	
5540	0	32926	33055	
5541	0	32950	32952	
5542	0	32944	32551	
5543	0	32944	32390	
5544	0	33092	32280	
5545	0	33093	32068	
5546	0	32982	32405	
5547	0	32941	32691	
5548	0	32916	32975	
5549	0	32859	33040	
5550	0	32808	33014	
5551	0	32856	32844	
5552	0	32980	33162	
5553	0	33000	33538	
5554	0	32876	33030	
5555	0	32738	32618	
5556	0	32612	32500	
5557	0	32512	32301	
5558	0	32568	32276	
5559	0	32557	32513	
5560	0	32616	32583	
5561	0	32624	32862	
5562	0	32589	32992	
5563	0	32728	33359	
5564	0	32810	33372	
5565	0	32746	33132	
5566	0	32578	33094	
5567	0	32545	32839	
5568	0	32644	32710	
5569	0	32606	32607	
5570	0	32700	32775	
5571	0	32752	33212	
5572	0	32832	33301	
5573	0	32894	33085	
5574	0	32902	32918	
5575	0	32816	32861	
5576	0	32880	32866	
5577	0	32768	33190	
5578	0	32853	33452	
5579	0	32916	33386	
5580	0	32864	33414	
5581	0	33162	32941	
5582	0	33132	32378	
5583	0	33154	32164	
5584	0	33149	32103	
5585	0	33084	31904	
5586	0	32962	31797	
5587	0	32738	31780	
5588	0	32584	32420	
5589	0	32521	32962	
5590	0	32420	33175	
5591	0	32484	32916	
5592	0	32464	32706	
5593	0	32517	32722	
5594	0	32707	32953	
5595	0	32809	33063	
5596	0	32836	33024	
5597	0	32856	33301	
5598	0	32792	33244	
5599	0	32801	31859	
5600	0	32760	31389	
5601	0	32786	31644	
5602	0	32806	32420	
5603	0	32888	33540	
5604	0	32940	33916	
5605	0	32862	33909	
5606	0	32904	33755	
5607	0	32905	33003	
5608	0	32872	32391	
5609	0	32848	32366	
5610	0	32890	32200	
5611	0	32786	32258	
5612	0	32864	32704	
5613	0	32784	32989	
5614	0	32884	33223	
5615	0	32848	33235	
5616	0	32960	33567	
5617	0	33070	33397	
5618	0	33040	32833	
5619	0	33049	32684	
5620	0	32800	32566	
5621	0	32725	32607	
5622	0	32632	32166	
5623	0	32459	32600	
5624	0	32392	32775	
5625	0	32572	33127	
5626	0	32650	33317	
5627	0	32890	33049	
5628	0	32912	32750	
5629	0	33008	32269	
5630	0	33123	32212	
5631	0	32950	31868	
5632	0	32824	31688	
5633	0	32820	32135	
5634	0	32690	33311	
5635	0	32730	33484	
5636	0	32694	33208	
5637	0	32660	33052	
5638	0	32805	33292	
5639	0	32932	32974	
5640	0	33028	32727	
5641	0	33145	32623	
5642	0	33044	32918	
5643	0	32948	33112	
5644	0	32944	32818	
5645	0	32876	32775	
5646	0	32733	32817	
5647	0	32582	32786	
5648	0	32545	32599	
5649	0	32775	32755	
5650	0	32708	33343	
5651	0	32724	33091	
5652	0	32676	32822	
5653	0	32498	32351	
5654	0	32522	32292	
5655	0	32512	32636	
5656	0	32436	32840	
5657	0	32416	33211	
5658	0	32397	33156	
5659	0	32729	33546	
5660	0	32978	33606	
5661	0	32936	32901	
5662	0	33034	32715	
5663	0	33031	32458	
5664	0	33130	32053	
5665	0	33224	31864	
5666	0	33268	32726	
5667	0	33232	33206	
5668	0	33040	33352	
5669	0	32780	32796	
5670	0	32618	32456	
5671	0	32836	32160	
5672	0	32820	31630	
5673	0	32944	31955	
5674	0	32904	32210	
5675	0	32800	32706	
5676	0	32469	33255	
5677	0	32420	33982	
5678	0	32522	33968	
5679	0	32676	33655	
5680	0	32714	33370	
5681	0	32829	32797	
5682	0	32728	32324	
5683	0	32736	32318	
5684	0	32984	32641	
5685	0	32946	32647	
5686	0	32900	32584	
5687	0	32736	33617	
5688	0	32852	34047	
5689	0	32652	33514	
5690	0	32536	32850	
5691	0	32756	32334	
5692	0	33013	31636	
5693	0	33354	31530	
5694	0	33268	32243	
5695	0	32932	32723	
5696	0	32836	32690	
5697	0	32836	33233	
5698	0	32590	33047	
5699	0	32336	33398	
5700	0	32272	33224	
5701	0	32304	33523	
5702	0	32589	33676	
5703	0	33010	33634	
5704	0	33116	33274	
5705	0	33200	32403	
5706	0	33036	32080	
5707	0	32876	32114	
5708	0	32805	31860	
5709	0	32878	32037	
5710	0	32739	32596	
5711	0	32608	32567	
5712	0	32724	32720	
5713	0	32720	32760	
5714	0	32840	32964	
5715	0	32968	33142	
5716	0	33016	32813	
5717	0	32888	33088	
5718	0	32764	32548	
5719	0	32660	32208	
5720	0	32578	32471	
5721	0	32610	33298	
5722	0	32732	33000	
5723	0	32752	32910	
5724	0	32864	33178	
5725	0	32694	33118	
5726	0	32748	33097	
5727	0	32932	32589	
5728	0	33000	32763	
5729	0	32914	32025	
5730	0	32826	32157	
5731	0	32724	32967	
5732	0	32666	33192	
5733	0	32992	33107	
5734	0	33252	32819	
5735	0	33146	33318	
5736	0	33174	33604	
5737	0	32898	33319	
5738	0	32868	33180	
5739	0	32868	32936	
5740	0	32692	32746	
5741	0	32416	32138	
5742	0	32304	32883	
5743	0	32412	32971	
5744	0	32649	32682	
5745	0	32760	32540	
5746	0	32672	32128	
5747	0	32796	32319	
5748	0	32656	32651	
5749	0	32868	32702	
5750	0	33049	32383	
5751	0	33052	32372	
5752	0	33076	32596	
5753	0	32726	33335	
5754	0	32425	33322	
5755	0	32372	32732	
5756	0	32664	32589	
5757	0	32924	32545	
5758	0	33048	32938	
5759	0	32946	33551	
5760	0	33024	34019	
5761	0	33132	33124	
5762	0	33080	32553	
5763	0	33121	32449	
5764	0	32671	32792	
5765	0	32484	32951	
5766	0	32420	32743	
5767	0	32740	32803	
5768	0	32972	33067	
5769	0	33164	32558	
5770	0	33344	32263	
5771	0	33070	32198	
5772	0	32756	32270	
5773	0	32524	33311	
5774	0	32368	33459	
5775	0	32428	33538	
5776	0	32577	32392	
5777	0	32824	32998	
5778	0	32864	32573	
5779	0	32638	32390	
5780	0	32409	32124	
5781	0	32448	32389	
5782	0	32536	32455	
5783	0	32152	32669	
5784	0	32224	32446	
5785	0	32506	32700	
5786	0	32746	33149	
5787	0	33078	33683	
5788	0	33300	33543	
5789	0	33532	33230	
5790	0	33722	33372	
5791	0	33684	33414	
5792	0	33364	32239	
5793	0	33269	32253	
5794	0	33012	31816	
5795	0	32756	32282	
5796	0	33208	33882	
5797	0	33488	33362	
5798	0	33292	33271	
5799	0	32453	33325	
5800	0	31962	32891	
5801	0	31751	32366	
5802	0	31848	31991	
5803	0	32080	32589	
5804	0	31968	32557	
5805	0	32232	32519	
5806	0	32594	32599	
5807	0	32920	33425	
5808	0	32893	33634	
5809	0	32944	33434	
5810	0	33079	32940	
5811	0	33036	32431	
5812	0	32956	32014	
5813	0	33077	32294	
5814	0	33024	33059	
5815	0	32966	33561	
5816	0	32684	33284	
5817	0	32740	33266	
5818	0	32875	33127	
5819	0	33077	32599	
5820	0	33134	32595	
5821	0	33068	31972	
5822	0	33120	31810	
5823	0	33140	31720	
5824	0	32895	32360	
5825	0	32541	33792	
5826	0	32555	34065	
5827	0	32548	34130	
5828	0	32516	33410	
5829	0	32396	32373	
5830	0	32634	32664	
5831	0	32622	32123	
5832	0	32844	32882	
5833	0	32966	32973	
5834	0	33112	33031	
5835	0	33040	34311	
5836	0	33060	34192	
5837	0	33072	32682	
5838	0	32904	32028	
5839	0	32690	31569	
5840	0	32818	31612	
5841	0	32920	31917	
5842	0	33147	32585	
5843	0	33432	31208	
5844	0	33188	32855	
5845	0	32873	33929	
5846	0	32252	33823	
5847	0	32266	33277	
5848	0	32466	32765	
5849	0	32516	32864	
5850	0	32508	32421	
5851	0	32848	32328	
5852	0	32944	32493	
5853	0	32745	32258	
5854	0	32430	31751	
5855	0	32358	32400	
5856	0	32517	33100	
5857	0	32605	33316	
5858	0	32648	34107	
5859	0	33070	34247	
5860	0	33318	33578	
5861	0	33454	33293	
5862	0	33558	33226	
5863	0	33356	32947	
5864	0	33324	31897	
5865	0	32970	32240	
5866	0	32432	32036	
5867	0	31982	30979	
5868	0	31868	32158	
5869	0	31814	33640	
5870	0	32236	33634	
5871	0	32520	33199	
5872	0	32696	33785	
5873	0	32928	33631	
5874	0	33348	32563	
5875	0	33472	31149	
5876	0	33376	31367	
5877	0	33045	32720	
5878	0	32799	33846	
5879	0	32608	33810	
5880	0	32276	33164	
5881	0	32216	32173	
5882	0	32524	31986	
5883	0	32740	32890	
5884	0	32960	33508	
5885	0	33190	32479	
5886	0	33752	32249	
5887	0	33668	31816	
5888	0	33460	31780	
5889	0	33264	32372	
5890	0	33024	32429	
5891	0	32801	32741	
5892	0	32532	32773	
5893	0	32280	33159	
5894	0	32120	34089	
5895	0	32220	33760	
5896	0	32420	33589	
5897	0	32714	33199	
5898	0	32964	32671	
5899	0	32974	32166	
5900	0	33192	33358	
5901	0	33344	33317	
5902	0	33320	32338	
5903	0	32948	32370	
5904	0	32658	33400	
5905	0	32336	32827	
5906	0	32139	32221	
5907	0	32082	32278	
5908	0	32476	32539	
5909	0	32456	32455	
5910	0	32898	32375	
5911	0	33224	32759	
5912	0	33394	32959	
5913	0	33316	33052	
5914	0	33056	32944	
5915	0	32939	32598	
5916	0	32924	32556	
5917	0	33016	32868	
5918	0	33073	33447	
5919	0	33277	33208	
5920	0	33580	32919	
5921	0	33674	32771	
5922	0	33144	33010	
5923	0	32421	33432	
5924	0	31707	33329	
5925	0	31132	32744	
5926	0	31030	32896	
5927	0	31274	32736	
5928	0	31864	32098	
5929	0	32726	31908	
5930	0	33310	32618	
5931	0	33618	33510	
5932	0	33684	33456	
5933	0	33762	33319	
5934	0	33508	32818	
5935	0	33274	31888	
5936	0	33201	32802	
5937	0	33252	32510	
5938	0	33104	32850	
5939	0	32646	32883	
5940	0	32432	31980	
5941	0	32324	32384	
5942	0	32258	32181	
5943	0	32185	32410	
5944	0	32330	33637	
5945	0	32742	33105	
5946	0	33476	32349	
5947	0	33484	31844	
5948	0	33704	32310	
5949	0	33408	33686	
5950	0	32804	33610	
5951	0	32564	33186	
5952	0	32324	33205	
5953	0	32367	33636	
5954	0	32436	33565	
5955	0	32464	33336	
5956	0	32500	32232	
5957	0	32502	32391	
5958	0	32941	32668	
5959	0	33128	32690	
5960	0	33168	32443	
5961	0	33090	32668	
5962	0	32809	33634	
5963	0	32800	33058	
5964	0	32586	32022	
5965	0	32815	32379	
5966	0	32920	32183	
5967	0	33204	32228	
5968	0	33246	32376	
5969	0	33050	33534	
5970	0	33118	33821	
5971	0	32850	33247	
5972	0	32552	32308	
5973	0	32476	32518	
5974	0	32469	33081	
5975	0	32441	33359	
5976	0	32494	32831	
5977	0	32610	32101	
5978	0	32792	31951	
5979	0	33019	32663	
5980	0	33098	32808	
5981	0	32996	33092	
5982	0	32832	32996	
5983	0	32860	32319	
5984	0	32848	32670	
5985	0	32668	33478	
5986	0	32620	34050	
5987	0	32603	33504	
5988	0	32586	32699	
5989	0	32937	32786	
5990	0	33085	32868	
5991	0	33228	32666	
5992	0	32920	32400	
5993	0	32392	32356	
5994	0	32256	31413	
5995	0	32496	31761	
5996	0	32500	32169	
5997	0	32424	32193	
5998	0	32468	33197	
5999	0	32470	33639	
6000	0	32888	33986	
6001	0	33368	33438	
6002	0	33241	33201	
6003	0	33486	32340	
6004	0	33384	32925	
6005	0	33038	33329	
6006	0	32730	32722	
6007	0	32704	32210	
6008	0	32457	32092	
6009	0	32652	32351	
6010	0	33233	32711	
6011	0	33309	33920	
6012	0	33303	33266	
6013	0	33344	33179	
6014	0	33024	32709	
6015	0	32413	32946	
6016	0	31708	32768	
6017	0	31636	32391	
6018	0	31907	31949	
6019	0	32008	32604	
6020	0	32356	32915	
6021	0	33061	33434	
6022	0	33168	33097	
6023	0	33276	33135	
6024	0	33648	33149	
6025	0	33632	32320	
6026	0	33286	31820	
