# OpenSignals Text File Format. Version 1
# {"00:07:80:8C:0A:39": {"position": 0, "device": "biosignalsplux", "device name": "00:07:80:8C:0A:39", "device connection": "BTH00:07:80:8C:0A:39", "sampling rate": 1000, "resolution": [16, 16], "firmware version": 776, "comments": "", "keywords": "", "mode": 0, "sync interval": 2, "date": "2023-3-16", "time": "10:24:21.719", "channels": [1, 2], "sensor": ["EMG", "EMG"], "label": ["CH1", "CH2"], "column": ["nSeq", "DI", "CH1", "CH2"], "special": [{"SpO2": [80, 40, 5, 4, 3, 3]}, {"SpO2": [80, 40, 5, 4, 3, 3]}, {"SpO2": [80, 40, 5, 4, 3, 3]}, {"SpO2": [80, 40, 5, 4, 3, 3]}, {"SpO2": [80, 40, 5, 4, 3, 3]}, {"SpO2": [80, 40, 5, 4, 3, 3]}, {"SpO2": [80, 40, 5, 4, 3, 3]}, {"SpO2": [80, 40, 5, 4, 3, 3]}], "digital IO": [0, 1], "sleeve color": ["gray", "yellow"], "convertedValues": 0}}
# EndOfHeader
0	0	32820	32782	
1	0	32772	32839	
2	0	32836	32839	
3	0	32816	32836	
4	0	32840	32668	
5	0	32788	32704	
6	0	32860	32732	
7	0	32948	32784	
8	0	32884	32615	
9	0	32804	32743	
10	0	32778	32632	
11	0	32768	32828	
12	0	32818	32774	
13	0	32786	32759	
14	0	32868	32730	
15	0	32796	32788	
16	0	32808	32764	
17	0	32802	32769	
18	0	32772	32670	
19	0	32740	32700	
20	0	32744	32710	
21	0	32744	32772	
22	0	32772	32802	
23	0	32776	32808	
24	0	32812	32770	
25	0	32766	32748	
26	0	32752	32732	
27	0	32810	32804	
28	0	32852	32772	
29	0	32820	32736	
30	0	32796	32732	
31	0	32820	32674	
32	0	32836	32728	
33	0	32840	32698	
34	0	32858	32856	
35	0	32832	32868	
36	0	32792	32760	
37	0	32810	32788	
38	0	32848	32890	
39	0	32840	32822	
40	0	32778	32759	
41	0	32834	32670	
42	0	32756	32798	
43	0	32796	32804	
44	0	32802	32743	
45	0	32914	32766	
46	0	32838	32758	
47	0	32814	32727	
48	0	32868	32712	
49	0	32742	32693	
50	0	32834	32792	
51	0	32798	32807	
52	0	32832	32730	
53	0	32748	32614	
54	0	32748	32864	
55	0	32708	32912	
56	0	32780	32764	
57	0	32748	32826	
58	0	32798	32794	
59	0	32852	32808	
60	0	32824	32812	
61	0	32814	32772	
62	0	32770	32740	
63	0	32832	32772	
64	0	32800	32795	
65	0	32816	32817	
66	0	32854	32802	
67	0	32848	32868	
68	0	32768	32756	
69	0	32826	32818	
70	0	32808	32702	
71	0	32900	32815	
72	0	32812	32686	
73	0	32798	32775	
74	0	32824	32816	
75	0	32868	32750	
76	0	32820	32872	
77	0	32794	32798	
78	0	32814	32816	
79	0	32820	32841	
80	0	32794	32846	
81	0	32824	32798	
82	0	32800	32790	
83	0	32840	32766	
84	0	32752	32646	
85	0	32818	32706	
86	0	32800	32664	
87	0	32752	32732	
88	0	32856	32684	
89	0	32796	32686	
90	0	32800	32839	
91	0	32784	32692	
92	0	32768	32821	
93	0	32808	32704	
94	0	32776	32800	
95	0	32820	32766	
96	0	32837	32755	
97	0	32856	32734	
98	0	32838	32711	
99	0	32804	32667	
100	0	32834	32740	
101	0	32805	32660	
102	0	32808	32671	
103	0	32804	32855	
104	0	32836	32775	
105	0	32770	32794	
106	0	32810	32807	
107	0	32796	32788	
108	0	32788	32748	
109	0	32768	32824	
110	0	32800	32686	
111	0	32860	32820	
112	0	32828	32850	
113	0	32824	32871	
114	0	32846	32846	
115	0	32740	32726	
116	0	32792	32708	
117	0	32832	32775	
118	0	32840	32742	
119	0	32805	32724	
120	0	32760	32838	
121	0	32856	32766	
122	0	32848	32738	
123	0	32820	32674	
124	0	32828	32732	
125	0	32750	32648	
126	0	32848	32772	
127	0	32784	32812	
128	0	32754	32825	
129	0	32796	32736	
130	0	32830	32860	
131	0	32826	32768	
132	0	32794	32816	
133	0	32812	32620	
134	0	32888	32678	
135	0	32816	32650	
136	0	32820	32760	
137	0	32824	32767	
138	0	32800	32743	
139	0	32814	32802	
140	0	32812	32858	
141	0	32796	32772	
142	0	32780	32808	
143	0	32860	32842	
144	0	32822	32800	
145	0	32774	32839	
146	0	32776	32805	
147	0	32788	32804	
148	0	32756	32742	
149	0	32780	32772	
150	0	32776	32832	
151	0	32796	32742	
152	0	32816	32852	
153	0	32794	32812	
154	0	32864	32818	
155	0	32876	32869	
156	0	32788	32872	
157	0	32800	32822	
158	0	32762	32820	
159	0	32904	32711	
160	0	32864	32704	
161	0	32808	32748	
162	0	32780	32647	
163	0	32778	32662	
164	0	32834	32700	
165	0	32766	32775	
166	0	32756	32775	
167	0	32772	32806	
168	0	32740	32798	
169	0	32744	32807	
170	0	32782	32828	
171	0	32778	32756	
172	0	32864	32762	
173	0	32800	32726	
174	0	32828	32886	
175	0	32772	32756	
176	0	32780	32736	
177	0	32734	32766	
178	0	32868	32742	
179	0	32790	32775	
180	0	32820	32757	
181	0	32844	32796	
182	0	32820	32814	
183	0	32836	32869	
184	0	32852	32859	
185	0	32796	32812	
186	0	32846	32824	
187	0	32856	32724	
188	0	32830	32792	
189	0	32860	32730	
190	0	32804	32650	
191	0	32776	32798	
192	0	32764	32741	
193	0	32804	32760	
194	0	32842	32798	
195	0	32808	32806	
196	0	32818	32754	
197	0	32750	32742	
198	0	32844	32860	
199	0	32780	32836	
200	0	32794	32775	
201	0	32816	32844	
202	0	32752	32824	
203	0	32876	32767	
204	0	32810	32756	
205	0	32832	32772	
206	0	32824	32814	
207	0	32852	32883	
208	0	32804	32722	
209	0	32780	32708	
210	0	32828	32660	
211	0	32814	32764	
212	0	32766	32698	
213	0	32828	32690	
214	0	32840	32698	
215	0	32874	32844	
216	0	32752	32862	
217	0	32796	32860	
218	0	32820	32775	
219	0	32743	32783	
220	0	32836	32775	
221	0	32816	32772	
222	0	32868	32736	
223	0	32778	32806	
224	0	32852	32736	
225	0	32776	32840	
226	0	32810	32724	
227	0	32892	32772	
228	0	32774	32765	
229	0	32772	32753	
230	0	32804	32868	
231	0	32828	32834	
232	0	32816	32775	
233	0	32810	32862	
234	0	32780	32760	
235	0	32788	32692	
236	0	32740	32700	
237	0	32764	32574	
238	0	32840	32751	
239	0	32752	32806	
240	0	32796	32839	
241	0	32848	32792	
242	0	32868	32794	
243	0	32828	32786	
244	0	32924	32775	
245	0	32844	32746	
246	0	32842	32804	
247	0	32810	32756	
248	0	32812	32761	
249	0	32780	32724	
250	0	32788	32736	
251	0	32775	32690	
252	0	32824	32717	
253	0	32904	32794	
254	0	32732	32768	
255	0	32832	32828	
256	0	32868	32680	
257	0	32860	32726	
258	0	32813	32815	
259	0	32884	32908	
260	0	32858	32808	
261	0	32792	32774	
262	0	32856	32676	
263	0	32760	32742	
264	0	32764	32767	
265	0	32786	32604	
266	0	32760	32650	
267	0	32782	32604	
268	0	32768	32615	
269	0	32814	32647	
270	0	32696	32704	
271	0	32702	32692	
272	0	32696	32640	
273	0	32760	32703	
274	0	32738	32647	
275	0	32670	32702	
276	0	32668	32774	
277	0	32840	32766	
278	0	32692	32764	
279	0	32798	32646	
280	0	32766	32759	
281	0	32698	32724	
282	0	32700	32770	
283	0	32732	32820	
284	0	32746	32771	
285	0	32740	32694	
286	0	32832	32626	
287	0	32752	32628	
288	0	32756	32648	
289	0	32652	32658	
290	0	32758	32666	
291	0	32716	32716	
292	0	32744	32642	
293	0	32764	32704	
294	0	32894	32724	
295	0	32872	32887	
296	0	32948	32916	
297	0	33096	33072	
298	0	33146	33132	
299	0	33256	33016	
300	0	33192	32982	
301	0	33156	32910	
302	0	33080	32774	
303	0	33064	32761	
304	0	33064	32784	
305	0	33032	32772	
306	0	33068	32746	
307	0	32980	32774	
308	0	32936	32918	
309	0	32892	32810	
310	0	32936	32822	
311	0	32864	32890	
312	0	32812	32828	
313	0	32760	32688	
314	0	32658	32685	
315	0	32708	32695	
316	0	32730	32640	
317	0	32702	32655	
318	0	32684	32640	
319	0	32674	32647	
320	0	32628	32544	
321	0	32648	32668	
322	0	32680	32720	
323	0	32680	32693	
324	0	32775	32732	
325	0	32644	32616	
326	0	32716	32664	
327	0	32724	32748	
328	0	32792	32684	
329	0	32810	32924	
330	0	32756	32760	
331	0	32804	32815	
332	0	32792	32775	
333	0	32878	32836	
334	0	32791	32802	
335	0	32774	32772	
336	0	32796	32743	
337	0	32817	32676	
338	0	32852	32719	
339	0	32804	32716	
340	0	32790	32752	
341	0	32836	32788	
342	0	32816	32775	
343	0	32834	32862	
344	0	32852	32858	
345	0	32848	32848	
346	0	32736	32855	
347	0	32804	32818	
348	0	32870	32683	
349	0	32762	32676	
350	0	32832	32750	
351	0	32860	32794	
352	0	32768	32742	
353	0	32804	32742	
354	0	32798	32758	
355	0	32820	32732	
356	0	32786	32727	
357	0	32768	32694	
358	0	32766	32740	
359	0	32828	32860	
360	0	32836	32740	
361	0	32796	32702	
362	0	32808	32775	
363	0	32794	32824	
364	0	32796	32810	
365	0	32800	32744	
366	0	32760	32679	
367	0	32780	32762	
368	0	32808	32755	
369	0	32848	32828	
370	0	32890	32772	
371	0	32788	32796	
372	0	32878	32702	
373	0	32823	32810	
374	0	32870	32843	
375	0	32844	32844	
376	0	32796	32774	
377	0	32760	32836	
378	0	32852	32756	
379	0	32790	32724	
380	0	32760	32644	
381	0	32810	32666	
382	0	32780	32788	
383	0	32844	32832	
384	0	32804	32820	
385	0	32848	32820	
386	0	32828	32772	
387	0	32776	32792	
388	0	32846	32704	
389	0	32812	32844	
390	0	32788	32775	
391	0	32832	32743	
392	0	32828	32694	
393	0	32836	32638	
394	0	32776	32744	
395	0	32832	32746	
396	0	32842	32712	
397	0	32800	32784	
398	0	32888	32836	
399	0	32840	32775	
400	0	32808	32804	
401	0	32756	32854	
402	0	32784	32647	
403	0	32828	32716	
404	0	32772	32694	
405	0	32792	32752	
406	0	32802	32710	
407	0	32806	32692	
408	0	32810	32775	
409	0	32764	32770	
410	0	32766	32774	
411	0	32776	32788	
412	0	32788	32844	
413	0	32836	32846	
414	0	32788	32735	
415	0	32856	32732	
416	0	32798	32689	
417	0	32848	32828	
418	0	32828	32756	
419	0	32765	32775	
420	0	32800	32815	
421	0	32808	32783	
422	0	32828	32726	
423	0	32814	32766	
424	0	32864	32705	
425	0	32764	32764	
426	0	32832	32775	
427	0	32812	32804	
428	0	32780	32678	
429	0	32836	32799	
430	0	32852	32743	
431	0	32824	32792	
432	0	32846	32828	
433	0	32844	32740	
434	0	32836	32808	
435	0	32852	32743	
436	0	32910	32715	
437	0	32808	32704	
438	0	32810	32791	
439	0	32804	32775	
440	0	32704	32764	
441	0	32788	32816	
442	0	32754	32727	
443	0	32772	32793	
444	0	32769	32868	
445	0	32736	32842	
446	0	32820	32836	
447	0	32878	32798	
448	0	32818	32832	
449	0	32860	32856	
450	0	32821	32838	
451	0	32816	32808	
452	0	32856	32788	
453	0	32798	32864	
454	0	32820	32772	
455	0	32788	32842	
456	0	32812	32798	
457	0	32800	32708	
458	0	32880	32714	
459	0	32810	32660	
460	0	32812	32700	
461	0	32844	32750	
462	0	32784	32758	
463	0	32788	32746	
464	0	32812	32646	
465	0	32708	32726	
466	0	32720	32744	
467	0	32866	32742	
468	0	32732	32694	
469	0	32852	32704	
470	0	32776	32668	
471	0	32820	32730	
472	0	32798	32758	
473	0	32856	32671	
474	0	32824	32840	
475	0	32816	32840	
476	0	32786	32748	
477	0	32868	32688	
478	0	32794	32770	
479	0	32840	32676	
480	0	32856	32688	
481	0	32792	32656	
482	0	32792	32737	
483	0	32852	32708	
484	0	32858	32680	
485	0	32812	32698	
486	0	32821	32711	
487	0	32796	32724	
488	0	32841	32733	
489	0	32756	32775	
490	0	32732	32720	
491	0	32848	32732	
492	0	32840	32692	
493	0	32774	32646	
494	0	32850	32697	
495	0	32848	32767	
496	0	32840	32725	
497	0	32836	32653	
498	0	32782	32742	
499	0	32760	32784	
500	0	32768	32698	
501	0	32836	32644	
502	0	32768	32702	
503	0	32804	32647	
504	0	32770	32654	
505	0	32796	32768	
506	0	32780	32694	
507	0	32808	32706	
508	0	32794	32744	
509	0	32792	32856	
510	0	32812	32846	
511	0	32762	32802	
512	0	32824	32743	
513	0	32820	32814	
514	0	32853	32728	
515	0	32808	32684	
516	0	32816	32788	
517	0	32842	32835	
518	0	32844	32808	
519	0	32892	32775	
520	0	32844	32775	
521	0	32808	32742	
522	0	32888	32732	
523	0	32880	32818	
524	0	32808	32732	
525	0	32769	32784	
526	0	32798	32759	
527	0	32812	32870	
528	0	32810	32746	
529	0	32818	32798	
530	0	32810	32768	
531	0	32836	32746	
532	0	32868	32812	
533	0	32892	32799	
534	0	32868	32841	
535	0	32814	32762	
536	0	32832	32823	
537	0	32850	32801	
538	0	32808	32775	
539	0	32764	32816	
540	0	32700	32775	
541	0	32716	32740	
542	0	32904	32751	
543	0	32850	32674	
544	0	32812	32682	
545	0	32780	32846	
546	0	32740	32775	
547	0	32780	32795	
548	0	32844	32892	
549	0	32796	32916	
550	0	32870	32767	
551	0	32748	32764	
552	0	32828	32750	
553	0	32808	32710	
554	0	32804	32609	
555	0	32860	32588	
556	0	32774	32760	
557	0	32785	32647	
558	0	32788	32814	
559	0	32852	32760	
560	0	32824	32750	
561	0	32817	32820	
562	0	32772	32760	
563	0	32816	32826	
564	0	32784	32737	
565	0	32810	32714	
566	0	32744	32688	
567	0	32808	32700	
568	0	32798	32760	
569	0	32849	32711	
570	0	32790	32762	
571	0	32816	32746	
572	0	32828	32864	
573	0	32796	32865	
574	0	32808	32834	
575	0	32816	32798	
576	0	32789	32856	
577	0	32820	32775	
578	0	32872	32743	
579	0	32832	32874	
580	0	32828	32762	
581	0	32860	32680	
582	0	32796	32692	
583	0	32784	32715	
584	0	32852	32726	
585	0	32860	32664	
586	0	32784	32684	
587	0	32784	32688	
588	0	32800	32656	
589	0	32760	32671	
590	0	32772	32760	
591	0	32730	32708	
592	0	32808	32766	
593	0	32766	32836	
594	0	32780	32862	
595	0	32848	32816	
596	0	32824	32796	
597	0	32872	32830	
598	0	32792	32704	
599	0	32844	32764	
600	0	32802	32751	
601	0	32836	32775	
602	0	32876	32692	
603	0	32848	32710	
604	0	32748	32760	
605	0	32772	32720	
606	0	32768	32834	
607	0	32796	32792	
608	0	32852	32868	
609	0	32744	32796	
610	0	32804	32841	
611	0	32780	32842	
612	0	32793	32822	
613	0	32750	32791	
614	0	32812	32772	
615	0	32760	32684	
616	0	32824	32676	
617	0	32784	32624	
618	0	32774	32762	
619	0	32836	32684	
620	0	32830	32660	
621	0	32784	32736	
622	0	32852	32775	
623	0	32832	32758	
624	0	32780	32844	
625	0	32878	32822	
626	0	32826	32807	
627	0	32786	32840	
628	0	32732	32894	
629	0	32752	32824	
630	0	32756	32748	
631	0	32764	32655	
632	0	32808	32694	
633	0	32832	32741	
634	0	32852	32684	
635	0	32830	32626	
636	0	32788	32698	
637	0	32870	32678	
638	0	32844	32634	
639	0	32816	32686	
640	0	32846	32800	
641	0	32844	32772	
642	0	32844	32854	
643	0	32848	32852	
644	0	32852	32826	
645	0	32784	32830	
646	0	32860	32775	
647	0	32801	32741	
648	0	32798	32794	
649	0	32848	32766	
650	0	32774	32804	
651	0	32808	32788	
652	0	32742	32774	
653	0	32834	32738	
654	0	32738	32770	
655	0	32804	32798	
656	0	32828	32910	
657	0	32836	32824	
658	0	32774	32844	
659	0	32824	32646	
660	0	32796	32746	
661	0	32826	32742	
662	0	32832	32756	
663	0	32808	32823	
664	0	32844	32832	
665	0	32854	32838	
666	0	32796	32775	
667	0	32812	32727	
668	0	32836	32700	
669	0	32792	32702	
670	0	32772	32613	
671	0	32798	32775	
672	0	32836	32852	
673	0	32774	32747	
674	0	32806	32809	
675	0	32794	32846	
676	0	32750	32764	
677	0	32820	32823	
678	0	32881	32775	
679	0	32802	32800	
680	0	32804	32876	
681	0	32776	32700	
682	0	32752	32682	
683	0	32832	32719	
684	0	32810	32740	
685	0	32744	32830	
686	0	32836	32814	
687	0	32788	32788	
688	0	32828	32756	
689	0	32820	32838	
690	0	32844	32839	
691	0	32856	32747	
692	0	32848	32826	
693	0	32852	32868	
694	0	32804	32836	
695	0	32808	32823	
696	0	32832	32772	
697	0	32870	32772	
698	0	32816	32807	
699	0	32840	32711	
700	0	32820	32744	
701	0	32808	32775	
702	0	32816	32732	
703	0	32740	32732	
704	0	32812	32860	
705	0	32792	32864	
706	0	32832	32708	
707	0	32844	32721	
708	0	32824	32716	
709	0	32804	32703	
710	0	32780	32642	
711	0	32752	32710	
712	0	32844	32750	
713	0	32810	32724	
714	0	32786	32775	
715	0	32844	32834	
716	0	32776	32790	
717	0	32784	32807	
718	0	32790	32903	
719	0	32780	32743	
720	0	32836	32876	
721	0	32808	32775	
722	0	32816	32718	
723	0	32840	32676	
724	0	32792	32746	
725	0	32798	32708	
726	0	32806	32723	
727	0	32864	32702	
728	0	32806	32742	
729	0	32801	32790	
730	0	32852	32816	
731	0	32762	32828	
732	0	32836	32884	
733	0	32832	32812	
734	0	32796	32755	
735	0	32840	32708	
736	0	32792	32740	
737	0	32764	32775	
738	0	32848	32791	
739	0	32796	32818	
740	0	32812	32768	
741	0	32766	32736	
742	0	32840	32814	
743	0	32840	32740	
744	0	32836	32846	
745	0	32736	32796	
746	0	32778	32868	
747	0	32780	32792	
748	0	32816	32692	
749	0	32806	32679	
750	0	32792	32702	
751	0	32868	32710	
752	0	32832	32655	
753	0	32854	32754	
754	0	32846	32744	
755	0	32816	32838	
756	0	32770	32693	
757	0	32740	32679	
758	0	32868	32846	
759	0	32848	32887	
760	0	32786	32803	
761	0	32796	32807	
762	0	32776	32800	
763	0	32800	32768	
764	0	32804	32834	
765	0	32760	32743	
766	0	32836	32775	
767	0	32838	32788	
768	0	32884	32682	
769	0	32784	32721	
770	0	32804	32763	
771	0	32856	32766	
772	0	32766	32710	
773	0	32754	32749	
774	0	32800	32799	
775	0	32788	32810	
776	0	32821	32775	
777	0	32814	32804	
778	0	32788	32824	
779	0	32834	32807	
780	0	32852	32706	
781	0	32860	32642	
782	0	32832	32574	
783	0	32816	32680	
784	0	32816	32674	
785	0	32792	32686	
786	0	32854	32802	
787	0	32818	32638	
788	0	32858	32682	
789	0	32806	32676	
790	0	32768	32760	
791	0	32756	32727	
792	0	32858	32680	
793	0	32802	32632	
794	0	32824	32670	
795	0	32784	32714	
796	0	32796	32742	
797	0	32800	32935	
798	0	32776	32836	
799	0	32824	32830	
800	0	32824	32803	
801	0	32814	32739	
802	0	32704	32693	
803	0	32766	32748	
804	0	32878	32754	
805	0	32856	32758	
806	0	32780	32775	
807	0	32776	32807	
808	0	32776	32734	
809	0	32821	32708	
810	0	32788	32788	
811	0	32804	32868	
812	0	32870	32848	
813	0	32832	32826	
814	0	32740	32732	
815	0	32810	32759	
816	0	32800	32724	
817	0	32736	32820	
818	0	32836	32806	
819	0	32872	32734	
820	0	32880	32710	
821	0	32836	32660	
822	0	32780	32720	
823	0	32796	32706	
824	0	32816	32878	
825	0	32844	32898	
826	0	32830	32768	
827	0	32780	32748	
828	0	32760	32702	
829	0	32780	32810	
830	0	32808	32775	
831	0	32804	32806	
832	0	32814	32774	
833	0	32769	32775	
834	0	32794	32708	
835	0	32804	32700	
836	0	32840	32782	
837	0	32832	32814	
838	0	32820	32794	
839	0	32838	32775	
840	0	32752	32764	
841	0	32836	32764	
842	0	32774	32808	
843	0	32748	32775	
844	0	32775	32814	
845	0	32788	32842	
846	0	32810	32767	
847	0	32734	32826	
848	0	32752	32647	
849	0	32836	32710	
850	0	32900	32815	
851	0	32858	32815	
852	0	32776	32739	
853	0	32874	32750	
854	0	32800	32774	
855	0	32840	32760	
856	0	32852	32802	
857	0	32868	32892	
858	0	32752	32725	
859	0	32704	32804	
860	0	32748	32766	
861	0	32744	32658	
862	0	32732	32670	
863	0	32766	32664	
864	0	32760	32770	
865	0	32824	32856	
866	0	32868	32760	
867	0	32864	32746	
868	0	32834	32788	
869	0	32834	32798	
870	0	32820	32742	
871	0	32792	32796	
872	0	32852	32686	
873	0	32846	32706	
874	0	32810	32742	
875	0	32860	32822	
876	0	32806	32732	
877	0	32759	32756	
878	0	32800	32804	
879	0	32768	32784	
880	0	32840	32860	
881	0	32884	32918	
882	0	32800	32760	
883	0	32848	32730	
884	0	32808	32775	
885	0	32884	32714	
886	0	32804	32722	
887	0	32834	32692	
888	0	32780	32732	
889	0	32828	32716	
890	0	32808	32678	
891	0	32852	32672	
892	0	32850	32716	
893	0	32746	32604	
894	0	32800	32705	
895	0	32816	32753	
896	0	32808	32660	
897	0	32816	32700	
898	0	32828	32692	
899	0	32822	32775	
900	0	32860	32743	
901	0	32816	32762	
902	0	32808	32666	
903	0	32788	32746	
904	0	32808	32794	
905	0	32800	32704	
906	0	32786	32742	
907	0	32796	32804	
908	0	32802	32736	
909	0	32792	32866	
910	0	32780	32839	
911	0	32752	32800	
912	0	32792	32826	
913	0	32764	32775	
914	0	32800	32790	
915	0	32864	32844	
916	0	32904	32775	
917	0	32828	32772	
918	0	32876	32754	
919	0	32840	32768	
920	0	32842	32772	
921	0	32784	32730	
922	0	32852	32764	
923	0	32802	32796	
924	0	32752	32775	
925	0	32834	32844	
926	0	32778	32798	
927	0	32796	32775	
928	0	32764	32823	
929	0	32830	32789	
930	0	32796	32870	
931	0	32764	32788	
932	0	32864	32800	
933	0	32804	32706	
934	0	32824	32704	
935	0	32784	32726	
936	0	32772	32688	
937	0	32828	32666	
938	0	32778	32740	
939	0	32844	32722	
940	0	32888	32647	
941	0	32788	32710	
942	0	32768	32702	
943	0	32828	32721	
944	0	32852	32706	
945	0	32792	32751	
946	0	32816	32716	
947	0	32896	32824	
948	0	32848	32794	
949	0	32824	32636	
950	0	32756	32728	
951	0	32780	32687	
952	0	32736	32732	
953	0	32930	32756	
954	0	32850	32708	
955	0	32784	32712	
956	0	32826	32719	
957	0	32752	32696	
958	0	32788	32756	
959	0	32784	32696	
960	0	32794	32746	
961	0	32858	32652	
962	0	32816	32646	
963	0	32798	32678	
964	0	32754	32682	
965	0	32784	32678	
966	0	32856	32740	
967	0	32748	32742	
968	0	32750	32856	
969	0	32744	32775	
970	0	32872	32820	
971	0	32788	32690	
972	0	32725	32744	
973	0	32770	32655	
974	0	32698	32682	
975	0	32840	32592	
976	0	32752	32628	
977	0	32736	32636	
978	0	32736	32686	
979	0	32734	32626	
980	0	32698	32708	
981	0	32744	32794	
982	0	32684	32758	
983	0	32638	32794	
984	0	32716	32865	
985	0	32706	32846	
986	0	32740	32718	
987	0	32820	32752	
988	0	32684	32786	
989	0	32775	32775	
990	0	32742	32764	
991	0	32720	32828	
992	0	32804	32775	
993	0	32816	32807	
994	0	32802	32724	
995	0	32824	32890	
996	0	32910	32872	
997	0	33016	33006	
998	0	33060	33174	
999	0	33172	33196	
1000	0	33098	33172	
1001	0	33200	33040	
1002	0	33192	32948	
1003	0	33072	32892	
1004	0	33052	32775	
1005	0	33044	32775	
1006	0	33084	32798	
1007	0	33076	32758	
1008	0	32938	32828	
1009	0	32920	32769	
1010	0	32870	32811	
1011	0	32850	32734	
1012	0	32716	32752	
1013	0	32740	32722	
1014	0	32732	32722	
1015	0	32614	32618	
1016	0	32668	32648	
1017	0	32660	32766	
1018	0	32708	32656	
1019	0	32728	32687	
1020	0	32736	32743	
1021	0	32704	32740	
1022	0	32754	32674	
1023	0	32726	32624	
1024	0	32724	32694	
1025	0	32712	32695	
1026	0	32724	32679	
1027	0	32756	32750	
1028	0	32764	32677	
1029	0	32794	32815	
1030	0	32840	32846	
1031	0	32792	32824	
1032	0	32864	32826	
1033	0	32836	32885	
1034	0	32794	32888	
1035	0	32782	32724	
1036	0	32796	32704	
1037	0	32852	32775	
1038	0	32881	32722	
1039	0	32832	32724	
1040	0	32800	32742	
1041	0	32816	32801	
1042	0	32778	32743	
1043	0	32856	32752	
1044	0	32856	32866	
1045	0	32880	32771	
1046	0	32744	32802	
1047	0	32766	32775	
1048	0	32788	32804	
1049	0	32848	32756	
1050	0	32764	32730	
1051	0	32804	32711	
1052	0	32806	32678	
1053	0	32820	32712	
1054	0	32782	32775	
1055	0	32844	32806	
1056	0	32768	32676	
1057	0	32810	32757	
1058	0	32852	32774	
1059	0	32830	32775	
1060	0	32812	32810	
1061	0	32744	32742	
1062	0	32764	32710	
1063	0	32816	32793	
1064	0	32808	32799	
1065	0	32784	32807	
1066	0	32816	32732	
1067	0	32808	32661	
1068	0	32716	32756	
1069	0	32810	32640	
1070	0	32784	32748	
1071	0	32774	32775	
1072	0	32816	32708	
1073	0	32844	32646	
1074	0	32852	32682	
1075	0	32813	32657	
1076	0	32800	32724	
1077	0	32880	32712	
1078	0	32820	32792	
1079	0	32896	32756	
1080	0	32808	32764	
1081	0	32768	32684	
1082	0	32848	32684	
1083	0	32768	32679	
1084	0	32792	32604	
1085	0	32766	32662	
1086	0	32746	32761	
1087	0	32792	32770	
1088	0	32820	32826	
1089	0	32838	32788	
1090	0	32880	32736	
1091	0	32822	32766	
1092	0	32884	32823	
1093	0	32865	32829	
1094	0	32726	32766	
1095	0	32816	32766	
1096	0	32870	32844	
1097	0	32862	32826	
1098	0	32812	32758	
1099	0	32786	32804	
1100	0	32716	32832	
1101	0	32804	32775	
1102	0	32770	32887	
1103	0	32868	32813	
1104	0	32778	32814	
1105	0	32778	32814	
1106	0	32766	32710	
1107	0	32838	32775	
1108	0	32776	32878	
1109	0	32744	32799	
1110	0	32828	32900	
1111	0	32880	32826	
1112	0	32866	32784	
1113	0	32820	32794	
1114	0	32800	32800	
1115	0	32836	32860	
1116	0	32812	32804	
1117	0	32760	32802	
1118	0	32800	32854	
1119	0	32832	32790	
1120	0	32775	32760	
1121	0	32728	32832	
1122	0	32796	32800	
1123	0	32840	32720	
1124	0	32732	32799	
1125	0	32836	32798	
1126	0	32846	32756	
1127	0	32815	32734	
1128	0	32808	32759	
1129	0	32816	32801	
1130	0	32784	32700	
1131	0	32778	32719	
1132	0	32856	32790	
1133	0	32836	32794	
1134	0	32824	32817	
1135	0	32900	32836	
1136	0	32804	32736	
1137	0	32858	32775	
1138	0	32844	32820	
1139	0	32786	32854	
1140	0	32810	32756	
1141	0	32844	32792	
1142	0	32822	32796	
1143	0	32836	32775	
1144	0	32878	32775	
1145	0	32792	32748	
1146	0	32780	32860	
1147	0	32820	32679	
1148	0	32820	32732	
1149	0	32756	32708	
1150	0	32804	32718	
1151	0	32789	32718	
1152	0	32793	32722	
1153	0	32810	32802	
1154	0	32716	32775	
1155	0	32794	32775	
1156	0	32826	32775	
1157	0	32896	32838	
1158	0	32788	32798	
1159	0	32804	32822	
1160	0	32810	32896	
1161	0	32794	32864	
1162	0	32756	32820	
1163	0	32776	32814	
1164	0	32784	32799	
1165	0	32816	32736	
1166	0	32808	32775	
1167	0	32736	32826	
1168	0	32796	32804	
1169	0	32848	32732	
1170	0	32894	32791	
1171	0	32824	32824	
1172	0	32816	32868	
1173	0	32844	32817	
1174	0	32872	32814	
1175	0	32868	32775	
1176	0	32894	32838	
1177	0	32738	32716	
1178	0	32752	32748	
1179	0	32780	32800	
1180	0	32772	32790	
1181	0	32728	32728	
1182	0	32832	32782	
1183	0	32720	32772	
1184	0	32804	32823	
1185	0	32820	32743	
1186	0	32808	32804	
1187	0	32830	32879	
1188	0	32836	32812	
1189	0	32790	32743	
1190	0	32836	32775	
1191	0	32852	32724	
1192	0	32816	32791	
1193	0	32744	32805	
1194	0	32872	32794	
1195	0	32756	32743	
1196	0	32878	32832	
1197	0	32756	32786	
1198	0	32800	32788	
1199	0	32772	32858	
1200	0	32824	32858	
1201	0	32838	32775	
1202	0	32836	32828	
1203	0	32804	32871	
1204	0	32782	32830	
1205	0	32852	32825	
1206	0	32780	32750	
1207	0	32838	32780	
1208	0	32768	32695	
1209	0	32796	32711	
1210	0	32752	32730	
1211	0	32868	32698	
1212	0	32778	32646	
1213	0	32838	32719	
1214	0	32756	32652	
1215	0	32876	32708	
1216	0	32796	32716	
1217	0	32816	32746	
1218	0	32860	32668	
1219	0	32785	32588	
1220	0	32744	32708	
1221	0	32808	32784	
1222	0	32808	32766	
1223	0	32818	32740	
1224	0	32836	32660	
1225	0	32764	32751	
1226	0	32848	32784	
1227	0	32860	32788	
1228	0	32832	32650	
1229	0	32804	32690	
1230	0	32804	32767	
1231	0	32792	32788	
1232	0	32872	32670	
1233	0	32908	32650	
1234	0	32884	32649	
1235	0	32872	32711	
1236	0	32804	32716	
1237	0	32810	32684	
1238	0	32738	32759	
1239	0	32768	32719	
1240	0	32792	32730	
1241	0	32794	32628	
1242	0	32764	32680	
1243	0	32836	32734	
1244	0	32746	32756	
1245	0	32778	32720	
1246	0	32808	32775	
1247	0	32768	32720	
1248	0	32820	32798	
1249	0	32764	32750	
1250	0	32774	32750	
1251	0	32816	32764	
1252	0	32828	32668	
1253	0	32880	32707	
1254	0	32836	32750	
1255	0	32804	32687	
1256	0	32792	32798	
1257	0	32792	32807	
1258	0	32846	32746	
1259	0	32798	32732	
1260	0	32882	32692	
1261	0	32824	32692	
1262	0	32824	32675	
1263	0	32778	32646	
1264	0	32769	32740	
1265	0	32814	32743	
1266	0	32764	32650	
1267	0	32790	32647	
1268	0	32828	32740	
1269	0	32810	32628	
1270	0	32798	32678	
1271	0	32802	32688	
1272	0	32822	32758	
1273	0	32816	32724	
1274	0	32852	32754	
1275	0	32740	32654	
1276	0	32846	32717	
1277	0	32784	32746	
1278	0	32808	32790	
1279	0	32800	32753	
1280	0	32792	32854	
1281	0	32832	32792	
1282	0	32756	32746	
1283	0	32774	32762	
1284	0	32780	32792	
1285	0	32782	32839	
1286	0	32786	32768	
1287	0	32792	32770	
1288	0	32856	32807	
1289	0	32848	32719	
1290	0	32874	32748	
1291	0	32800	32660	
1292	0	32784	32678	
1293	0	32840	32726	
1294	0	32844	32740	
1295	0	32858	32814	
1296	0	32816	32862	
1297	0	32862	32884	
1298	0	32768	32842	
1299	0	32734	32762	
1300	0	32818	32748	
1301	0	32784	32762	
1302	0	32784	32775	
1303	0	32754	32796	
1304	0	32804	32766	
1305	0	32798	32763	
1306	0	32796	32856	
1307	0	32820	32808	
1308	0	32812	32823	
1309	0	32758	32854	
1310	0	32752	32727	
1311	0	32716	32686	
1312	0	32824	32799	
1313	0	32844	32838	
1314	0	32938	32816	
1315	0	32828	32775	
1316	0	32844	32838	
1317	0	32796	32694	
1318	0	32828	32724	
1319	0	32824	32740	
1320	0	32776	32788	
1321	0	32804	32695	
1322	0	32844	32712	
1323	0	32816	32700	
1324	0	32796	32720	
1325	0	32840	32759	
1326	0	32790	32841	
1327	0	32820	32872	
1328	0	32780	32840	
1329	0	32864	32692	
1330	0	32794	32748	
1331	0	32820	32830	
1332	0	32796	32758	
1333	0	32806	32758	
1334	0	32748	32753	
1335	0	32830	32718	
1336	0	32800	32759	
1337	0	32772	32750	
1338	0	32828	32816	
1339	0	32788	32737	
1340	0	32848	32762	
1341	0	32804	32738	
1342	0	32844	32696	
1343	0	32848	32775	
1344	0	32764	32738	
1345	0	32816	32822	
1346	0	32864	32833	
1347	0	32810	32742	
1348	0	32800	32710	
1349	0	32808	32772	
1350	0	32788	32786	
1351	0	32772	32854	
1352	0	32832	32824	
1353	0	32794	32822	
1354	0	32860	32775	
1355	0	32760	32830	
1356	0	32780	32772	
1357	0	32800	32814	
1358	0	32880	32753	
1359	0	32814	32771	
1360	0	32809	32710	
1361	0	32762	32860	
1362	0	32820	32710	
1363	0	32828	32743	
1364	0	32768	32696	
1365	0	32804	32743	
1366	0	32820	32650	
1367	0	32846	32628	
1368	0	32868	32672	
1369	0	32864	32676	
1370	0	32820	32668	
1371	0	32790	32756	
1372	0	32774	32694	
1373	0	32822	32704	
1374	0	32752	32642	
1375	0	32816	32709	
1376	0	32734	32647	
1377	0	32812	32762	
1378	0	32768	32762	
1379	0	32766	32756	
1380	0	32832	32748	
1381	0	32852	32838	
1382	0	32792	32847	
1383	0	32808	32820	
1384	0	32804	32818	
1385	0	32860	32742	
1386	0	32876	32752	
1387	0	32792	32784	
1388	0	32836	32804	
1389	0	32792	32818	
1390	0	32888	32823	
1391	0	32800	32875	
1392	0	32856	32782	
1393	0	32854	32791	
1394	0	32820	32655	
1395	0	32868	32720	
1396	0	32809	32774	
1397	0	32822	32760	
1398	0	32836	32807	
1399	0	32804	32738	
1400	0	32790	32759	
1401	0	32860	32684	
1402	0	32800	32724	
1403	0	32832	32751	
1404	0	32762	32758	
1405	0	32800	32707	
1406	0	32800	32710	
1407	0	32824	32822	
1408	0	32724	32911	
1409	0	32878	32833	
1410	0	32818	32828	
1411	0	32804	32772	
1412	0	32852	32806	
1413	0	32756	32732	
1414	0	32848	32784	
1415	0	32780	32748	
1416	0	32816	32708	
1417	0	32746	32660	
1418	0	32836	32740	
1419	0	32858	32686	
1420	0	32796	32790	
1421	0	32828	32762	
1422	0	32784	32775	
1423	0	32784	32689	
1424	0	32746	32848	
1425	0	32769	32848	
1426	0	32792	32766	
1427	0	32888	32792	
1428	0	32814	32902	
1429	0	32688	32832	
1430	0	32824	32868	
1431	0	32860	32774	
1432	0	32856	32796	
1433	0	32800	32775	
1434	0	32856	32791	
1435	0	32804	32770	
1436	0	32760	32775	
1437	0	32845	32764	
1438	0	32864	32828	
1439	0	32874	32758	
1440	0	32912	32818	
1441	0	32854	32767	
1442	0	32826	32796	
1443	0	32816	32839	
1444	0	32804	32775	
1445	0	32804	32804	
1446	0	32808	32735	
1447	0	32741	32709	
1448	0	32772	32718	
1449	0	32794	32675	
1450	0	32810	32796	
1451	0	32818	32752	
1452	0	32680	32724	
1453	0	32772	32580	
1454	0	32826	32716	
1455	0	32860	32644	
1456	0	32844	32752	
1457	0	32874	32702	
1458	0	32820	32708	
1459	0	32774	32671	
1460	0	32716	32767	
1461	0	32736	32785	
1462	0	32826	32810	
1463	0	32802	32841	
1464	0	32840	32876	
1465	0	32868	32788	
1466	0	32856	32775	
1467	0	32788	32790	
1468	0	32832	32756	
1469	0	32836	32852	
1470	0	32804	32764	
1471	0	32858	32804	
1472	0	32808	32674	
1473	0	32812	32735	
1474	0	32812	32791	
1475	0	32814	32782	
1476	0	32868	32775	
1477	0	32753	32799	
1478	0	32796	32720	
1479	0	32828	32712	
1480	0	32768	32785	
1481	0	32808	32812	
1482	0	32828	32791	
1483	0	32808	32840	
1484	0	32878	32807	
1485	0	32812	32774	
1486	0	32836	32828	
1487	0	32826	32754	
1488	0	32791	32818	
1489	0	32840	32900	
1490	0	32798	32774	
1491	0	32872	32852	
1492	0	32772	32807	
1493	0	32840	32774	
1494	0	32798	32720	
1495	0	32816	32668	
1496	0	32838	32720	
1497	0	32772	32639	
1498	0	32788	32660	
1499	0	32836	32686	
1500	0	32780	32762	
1501	0	32812	32806	
1502	0	32836	32717	
1503	0	32776	32736	
1504	0	32798	32796	
1505	0	32780	32788	
1506	0	32788	32814	
1507	0	32774	32646	
1508	0	32808	32728	
1509	0	32794	32712	
1510	0	32836	32752	
1511	0	32768	32570	
1512	0	32768	32690	
1513	0	32798	32775	
1514	0	32828	32751	
1515	0	32844	32775	
1516	0	32848	32816	
1517	0	32761	32716	
1518	0	32832	32689	
1519	0	32775	32770	
1520	0	32822	32716	
1521	0	32834	32694	
1522	0	32820	32710	
1523	0	32820	32774	
1524	0	32786	32717	
1525	0	32808	32789	
1526	0	32792	32720	
1527	0	32772	32738	
1528	0	32816	32732	
1529	0	32844	32760	
1530	0	32808	32750	
1531	0	32852	32864	
1532	0	32836	32775	
1533	0	32832	32847	
1534	0	32784	32810	
1535	0	32788	32666	
1536	0	32820	32740	
1537	0	32857	32765	
1538	0	32728	32746	
1539	0	32786	32711	
1540	0	32844	32766	
1541	0	32820	32758	
1542	0	32804	32775	
1543	0	32832	32775	
1544	0	32836	32796	
1545	0	32768	32738	
1546	0	32800	32685	
1547	0	32860	32752	
1548	0	32816	32770	
1549	0	32780	32775	
1550	0	32776	32816	
1551	0	32788	32756	
1552	0	32820	32756	
1553	0	32848	32791	
1554	0	32848	32788	
1555	0	32832	32822	
1556	0	32808	32772	
1557	0	32856	32814	
1558	0	32892	32794	
1559	0	32868	32772	
1560	0	32764	32766	
1561	0	32800	32724	
1562	0	32866	32798	
1563	0	32848	32882	
1564	0	32782	32834	
1565	0	32806	32775	
1566	0	32804	32751	
1567	0	32788	32756	
1568	0	32768	32756	
1569	0	32818	32724	
1570	0	32760	32684	
1571	0	32902	32770	
1572	0	32784	32708	
1573	0	32748	32714	
1574	0	32794	32766	
1575	0	32794	32682	
1576	0	32848	32683	
1577	0	32928	32786	
1578	0	32838	32774	
1579	0	32742	32772	
1580	0	32824	32808	
1581	0	32734	32785	
1582	0	32852	32769	
1583	0	32824	32758	
1584	0	32734	32775	
1585	0	32762	32722	
1586	0	32764	32742	
1587	0	32832	32762	
1588	0	32844	32868	
1589	0	32798	32775	
1590	0	32808	32716	
1591	0	32836	32884	
1592	0	32832	32802	
1593	0	32832	32810	
1594	0	32860	32700	
1595	0	32792	32692	
1596	0	32844	32704	
1597	0	32838	32673	
1598	0	32744	32718	
1599	0	32774	32746	
1600	0	32756	32622	
1601	0	32824	32775	
1602	0	32804	32686	
1603	0	32828	32628	
1604	0	32796	32692	
1605	0	32900	32732	
1606	0	32732	32774	
1607	0	32788	32832	
1608	0	32840	32852	
1609	0	32816	32808	
1610	0	32840	32804	
1611	0	32812	32748	
1612	0	32892	32760	
1613	0	32796	32696	
1614	0	32796	32794	
1615	0	32852	32775	
1616	0	32788	32735	
1617	0	32836	32807	
1618	0	32834	32799	
1619	0	32848	32775	
1620	0	32768	32775	
1621	0	32806	32706	
1622	0	32768	32743	
1623	0	32812	32756	
1624	0	32770	32828	
1625	0	32812	32792	
1626	0	32786	32836	
1627	0	32836	32814	
1628	0	32802	32788	
1629	0	32772	32764	
1630	0	32836	32820	
1631	0	32824	32745	
1632	0	32828	32775	
1633	0	32782	32670	
1634	0	32826	32716	
1635	0	32766	32708	
1636	0	32840	32798	
1637	0	32828	32775	
1638	0	32832	32720	
1639	0	32826	32676	
1640	0	32856	32743	
1641	0	32792	32826	
1642	0	32828	32746	
1643	0	32920	32786	
1644	0	32744	32775	
1645	0	32804	32775	
1646	0	32832	32722	
1647	0	32796	32738	
1648	0	32820	32807	
1649	0	32844	32800	
1650	0	32786	32846	
1651	0	32870	32756	
1652	0	32832	32842	
1653	0	32784	32810	
1654	0	32814	32796	
1655	0	32844	32775	
1656	0	32802	32816	
1657	0	32832	32772	
1658	0	32892	32800	
1659	0	32764	32808	
1660	0	32784	32820	
1661	0	32764	32788	
1662	0	32812	32805	
1663	0	32772	32770	
1664	0	32740	32688	
1665	0	32746	32788	
1666	0	32812	32871	
1667	0	32782	32743	
1668	0	32836	32656	
1669	0	32842	32656	
1670	0	32824	32804	
1671	0	32872	32772	
1672	0	32888	32738	
1673	0	32840	32632	
1674	0	32860	32660	
1675	0	32824	32692	
1676	0	32812	32645	
1677	0	32866	32743	
1678	0	32830	32768	
1679	0	32712	32715	
1680	0	32800	32775	
1681	0	32766	32763	
1682	0	32764	32806	
1683	0	32766	32775	
1684	0	32752	32742	
1685	0	32720	32815	
1686	0	32708	32722	
1687	0	32746	32647	
1688	0	32729	32592	
1689	0	32776	32662	
1690	0	32746	32642	
1691	0	32720	32623	
1692	0	32688	32710	
1693	0	32692	32575	
1694	0	32712	32612	
1695	0	32806	32775	
1696	0	32768	32807	
1697	0	32772	32760	
1698	0	32692	32726	
1699	0	32680	32739	
1700	0	32724	32750	
1701	0	32752	32838	
1702	0	32768	32804	
1703	0	32664	32692	
1704	0	32748	32864	
1705	0	32884	32848	
1706	0	32924	32816	
1707	0	33032	32898	
1708	0	33182	32970	
1709	0	33176	33078	
1710	0	33234	32972	
1711	0	33214	32975	
1712	0	33058	32942	
1713	0	33036	32828	
1714	0	33088	32890	
1715	0	33058	32878	
1716	0	33056	32875	
1717	0	32996	32712	
1718	0	32924	32791	
1719	0	32958	32732	
1720	0	32889	32747	
1721	0	32792	32772	
1722	0	32724	32793	
1723	0	32756	32684	
1724	0	32744	32888	
1725	0	32682	32794	
1726	0	32742	32741	
1727	0	32756	32768	
1728	0	32804	32674	
1729	0	32676	32644	
1730	0	32704	32721	
1731	0	32596	32624	
1732	0	32676	32632	
1733	0	32652	32632	
1734	0	32684	32652	
1735	0	32692	32790	
1736	0	32748	32710	
1737	0	32724	32690	
1738	0	32802	32864	
1739	0	32800	32820	
1740	0	32776	32867	
1741	0	32702	32752	
1742	0	32802	32692	
1743	0	32852	32801	
1744	0	32864	32762	
1745	0	32788	32802	
1746	0	32854	32688	
1747	0	32876	32686	
1748	0	32796	32807	
1749	0	32812	32860	
1750	0	32728	32858	
1751	0	32788	32775	
1752	0	32756	32836	
1753	0	32752	32872	
1754	0	32802	32760	
1755	0	32864	32710	
1756	0	32752	32641	
1757	0	32878	32774	
1758	0	32762	32775	
1759	0	32836	32658	
1760	0	32817	32626	
1761	0	32828	32618	
1762	0	32844	32670	
1763	0	32846	32692	
1764	0	32798	32608	
1765	0	32802	32636	
1766	0	32728	32740	
1767	0	32812	32807	
1768	0	32808	32662	
1769	0	32769	32796	
1770	0	32802	32732	
1771	0	32828	32794	
1772	0	32868	32764	
1773	0	32860	32684	
1774	0	32836	32711	
1775	0	32860	32700	
1776	0	32844	32709	
1777	0	32782	32698	
1778	0	32830	32737	
1779	0	32800	32696	
1780	0	32804	32796	
1781	0	32816	32743	
1782	0	32750	32772	
1783	0	32728	32680	
1784	0	32888	32692	
1785	0	32856	32628	
1786	0	32758	32716	
1787	0	32814	32715	
1788	0	32796	32756	
1789	0	32744	32784	
1790	0	32866	32871	
1791	0	32794	32852	
1792	0	32756	32872	
1793	0	32800	32814	
1794	0	32800	32794	
1795	0	32812	32868	
1796	0	32824	32840	
1797	0	32728	32839	
1798	0	32836	32770	
1799	0	32820	32775	
1800	0	32804	32748	
1801	0	32816	32766	
1802	0	32842	32796	
1803	0	32886	32726	
1804	0	32884	32798	
1805	0	32800	32775	
1806	0	32798	32800	
1807	0	32821	32796	
1808	0	32768	32718	
1809	0	32756	32666	
1810	0	32844	32682	
1811	0	32838	32702	
1812	0	32824	32704	
1813	0	32808	32790	
1814	0	32834	32828	
1815	0	32808	32824	
1816	0	32756	32688	
1817	0	32848	32727	
1818	0	32800	32807	
1819	0	32828	32703	
1820	0	32808	32828	
1821	0	32802	32832	
1822	0	32824	32647	
1823	0	32804	32752	
1824	0	32834	32775	
1825	0	32816	32828	
1826	0	32820	32674	
1827	0	32804	32767	
1828	0	32808	32724	
1829	0	32828	32846	
1830	0	32856	32775	
1831	0	32841	32742	
1832	0	32852	32770	
1833	0	32744	32822	
1834	0	32816	32806	
1835	0	32728	32775	
1836	0	32782	32839	
1837	0	32792	32842	
1838	0	32884	32800	
1839	0	32782	32724	
1840	0	32754	32828	
1841	0	32825	32766	
1842	0	32860	32784	
1843	0	32924	32795	
1844	0	32772	32808	
1845	0	32856	32769	
1846	0	32740	32775	
1847	0	32876	32842	
1848	0	32804	32846	
1849	0	32812	32748	
1850	0	32834	32846	
1851	0	32816	32844	
1852	0	32862	32712	
1853	0	32822	32676	
1854	0	32834	32721	
1855	0	32756	32638	
1856	0	32832	32705	
1857	0	32778	32766	
1858	0	32862	32774	
1859	0	32840	32843	
1860	0	32828	32838	
1861	0	32814	32840	
1862	0	32764	32804	
1863	0	32792	32751	
1864	0	32812	32768	
1865	0	32804	32743	
1866	0	32825	32719	
1867	0	32796	32838	
1868	0	32790	32846	
1869	0	32788	32703	
1870	0	32768	32694	
1871	0	32814	32714	
1872	0	32788	32727	
1873	0	32804	32734	
1874	0	32804	32807	
1875	0	32870	32794	
1876	0	32764	32691	
1877	0	32768	32724	
1878	0	32846	32689	
1879	0	32834	32728	
1880	0	32860	32711	
1881	0	32856	32650	
1882	0	32824	32716	
1883	0	32820	32756	
1884	0	32812	32844	
1885	0	32828	32854	
1886	0	32866	32732	
1887	0	32784	32750	
1888	0	32852	32765	
1889	0	32804	32824	
1890	0	32830	32756	
1891	0	32824	32798	
1892	0	32748	32775	
1893	0	32772	32732	
1894	0	32786	32800	
1895	0	32816	32796	
1896	0	32808	32772	
1897	0	32760	32763	
1898	0	32888	32750	
1899	0	32844	32710	
1900	0	32860	32774	
1901	0	32816	32775	
1902	0	32798	32740	
1903	0	32776	32694	
1904	0	32850	32812	
1905	0	32772	32812	
1906	0	32729	32807	
1907	0	32848	32742	
1908	0	32800	32732	
1909	0	32812	32798	
1910	0	32732	32869	
1911	0	32732	32830	
1912	0	32800	32770	
1913	0	32744	32766	
1914	0	32828	32743	
1915	0	32808	32772	
1916	0	32880	32796	
1917	0	32912	32792	
1918	0	32816	32846	
1919	0	32844	32839	
1920	0	32856	32788	
1921	0	32864	32887	
1922	0	32828	32837	
1923	0	32784	32804	
1924	0	32814	32884	
1925	0	32826	32790	
1926	0	32892	32822	
1927	0	32844	32856	
1928	0	32794	32844	
1929	0	32814	32720	
1930	0	32764	32704	
1931	0	32846	32740	
1932	0	32796	32760	
1933	0	32836	32812	
1934	0	32822	32748	
1935	0	32808	32799	
1936	0	32764	32760	
1937	0	32832	32800	
1938	0	32780	32798	
1939	0	32784	32772	
1940	0	32798	32810	
1941	0	32768	32807	
1942	0	32792	32724	
1943	0	32812	32732	
1944	0	32802	32716	
1945	0	32868	32783	
1946	0	32820	32724	
1947	0	32832	32740	
1948	0	32876	32838	
1949	0	32768	32834	
1950	0	32896	32839	
1951	0	32768	32820	
1952	0	32816	32775	
1953	0	32782	32770	
1954	0	32856	32775	
1955	0	32830	32701	
1956	0	32920	32752	
1957	0	32834	32718	
1958	0	32756	32792	
1959	0	32789	32740	
1960	0	32836	32758	
1961	0	32816	32727	
1962	0	32756	32750	
1963	0	32748	32814	
1964	0	32816	32806	
1965	0	32784	32839	
1966	0	32872	32822	
1967	0	32808	32775	
1968	0	32804	32806	
1969	0	32824	32762	
1970	0	32804	32865	
1971	0	32796	32864	
1972	0	32782	32858	
1973	0	32782	32836	
1974	0	32776	32791	
1975	0	32780	32758	
1976	0	32752	32756	
1977	0	32852	32802	
1978	0	32804	32650	
1979	0	32800	32758	
1980	0	32780	32730	
1981	0	32814	32686	
1982	0	32804	32756	
1983	0	32848	32710	
1984	0	32820	32687	
1985	0	32746	32744	
1986	0	32776	32724	
1987	0	32784	32733	
1988	0	32792	32788	
1989	0	32812	32794	
1990	0	32832	32749	
1991	0	32784	32788	
1992	0	32828	32748	
1993	0	32754	32794	
1994	0	32840	32770	
1995	0	32846	32760	
1996	0	32864	32679	
1997	0	32842	32792	
1998	0	32804	32775	
1999	0	32820	32879	
2000	0	32798	32736	
2001	0	32838	32780	
2002	0	32808	32764	
2003	0	32852	32730	
2004	0	32830	32806	
2005	0	32812	32823	
2006	0	32764	32807	
2007	0	32680	32736	
2008	0	32756	32692	
2009	0	32732	32761	
2010	0	32828	32716	
2011	0	32788	32828	
2012	0	32846	32772	
2013	0	32824	32839	
2014	0	32820	32732	
2015	0	32802	32832	
2016	0	32868	32775	
2017	0	32828	32831	
2018	0	32756	32800	
2019	0	32830	32712	
2020	0	32812	32647	
2021	0	32796	32751	
2022	0	32846	32708	
2023	0	32828	32732	
2024	0	32784	32716	
2025	0	32868	32828	
2026	0	32748	32870	
2027	0	32810	32798	
2028	0	32780	32796	
2029	0	32868	32897	
2030	0	32804	32820	
2031	0	32780	32757	
2032	0	32836	32798	
2033	0	32864	32892	
2034	0	32778	32660	
2035	0	32798	32679	
2036	0	32848	32820	
2037	0	32788	32834	
2038	0	32828	32725	
2039	0	32766	32722	
2040	0	32804	32775	
2041	0	32868	32805	
2042	0	32896	32836	
2043	0	32736	32678	
2044	0	32800	32706	
2045	0	32879	32746	
2046	0	32842	32775	
2047	0	32824	32750	
2048	0	32860	32733	
2049	0	32775	32818	
2050	0	32834	32764	
2051	0	32746	32791	
2052	0	32802	32834	
2053	0	32808	32804	
2054	0	32852	32686	
2055	0	32852	32704	
2056	0	32772	32756	
2057	0	32824	32746	
2058	0	32828	32743	
2059	0	32796	32798	
2060	0	32806	32863	
2061	0	32778	32814	
2062	0	32800	32839	
2063	0	32800	32714	
2064	0	32798	32798	
2065	0	32790	32818	
2066	0	32810	32801	
2067	0	32832	32807	
2068	0	32856	32792	
2069	0	32816	32766	
2070	0	32820	32772	
2071	0	32748	32689	
2072	0	32772	32660	
2073	0	32846	32684	
2074	0	32808	32732	
2075	0	32796	32768	
2076	0	32814	32840	
2077	0	32898	32818	
2078	0	32824	32750	
2079	0	32808	32806	
2080	0	32824	32810	
2081	0	32832	32810	
2082	0	32800	32714	
2083	0	32820	32728	
2084	0	32824	32740	
2085	0	32832	32719	
2086	0	32756	32762	
2087	0	32781	32795	
2088	0	32752	32855	
2089	0	32772	32810	
2090	0	32798	32724	
2091	0	32864	32832	
2092	0	32792	32775	
2093	0	32781	32774	
2094	0	32830	32828	
2095	0	32848	32772	
2096	0	32832	32794	
2097	0	32878	32750	
2098	0	32836	32654	
2099	0	32810	32684	
2100	0	32778	32850	
2101	0	32792	32852	
2102	0	32825	32761	
2103	0	32876	32784	
2104	0	32808	32794	
2105	0	32725	32720	
2106	0	32776	32702	
2107	0	32804	32724	
2108	0	32764	32708	
2109	0	32774	32775	
2110	0	32752	32774	
2111	0	32816	32758	
2112	0	32816	32758	
2113	0	32852	32821	
2114	0	32904	32764	
2115	0	32836	32731	
2116	0	32744	32872	
2117	0	32822	32864	
2118	0	32846	32744	
2119	0	32864	32638	
2120	0	32784	32745	
2121	0	32856	32732	
2122	0	32766	32808	
2123	0	32778	32810	
2124	0	32772	32773	
2125	0	32768	32772	
2126	0	32738	32775	
2127	0	32836	32838	
2128	0	32784	32830	
2129	0	32820	32775	
2130	0	32828	32654	
2131	0	32878	32748	
2132	0	32756	32714	
2133	0	32816	32775	
2134	0	32896	32792	
2135	0	32790	32860	
2136	0	32824	32848	
2137	0	32876	32826	
2138	0	32826	32775	
2139	0	32804	32766	
2140	0	32884	32706	
2141	0	32826	32722	
2142	0	32828	32775	
2143	0	32836	32636	
2144	0	32856	32743	
2145	0	32800	32644	
2146	0	32880	32734	
2147	0	32746	32838	
2148	0	32856	32888	
2149	0	32764	32822	
2150	0	32820	32848	
2151	0	32860	32868	
2152	0	32828	32728	
2153	0	32808	32774	
2154	0	32808	32742	
2155	0	32724	32807	
2156	0	32770	32738	
2157	0	32804	32660	
2158	0	32830	32775	
2159	0	32714	32840	
2160	0	32824	32719	
2161	0	32860	32652	
2162	0	32788	32684	
2163	0	32826	32742	
2164	0	32752	32724	
2165	0	32848	32662	
2166	0	32780	32756	
2167	0	32836	32710	
2168	0	32744	32696	
2169	0	32832	32734	
2170	0	32866	32848	
2171	0	32810	32810	
2172	0	32780	32839	
2173	0	32828	32796	
2174	0	32812	32828	
2175	0	32812	32868	
2176	0	32750	32806	
2177	0	32728	32859	
2178	0	32816	32775	
2179	0	32816	32768	
2180	0	32836	32740	
2181	0	32808	32775	
2182	0	32848	32775	
2183	0	32800	32836	
2184	0	32810	32954	
2185	0	32780	32862	
2186	0	32824	32759	
2187	0	32832	32828	
2188	0	32740	32740	
2189	0	32814	32756	
2190	0	32804	32770	
2191	0	32792	32804	
2192	0	32876	32732	
2193	0	32832	32702	
2194	0	32800	32724	
2195	0	32802	32646	
2196	0	32824	32807	
2197	0	32852	32895	
2198	0	32764	32775	
2199	0	32801	32706	
2200	0	32792	32772	
2201	0	32798	32759	
2202	0	32812	32664	
2203	0	32772	32796	
2204	0	32852	32842	
2205	0	32804	32804	
2206	0	32834	32804	
2207	0	32776	32814	
2208	0	32786	32820	
2209	0	32896	32722	
2210	0	32860	32855	
2211	0	32826	32860	
2212	0	32788	32860	
2213	0	32754	32838	
2214	0	32794	32800	
2215	0	32852	32820	
2216	0	32752	32829	
2217	0	32834	32804	
2218	0	32736	32740	
2219	0	32778	32772	
2220	0	32816	32724	
2221	0	32868	32743	
2222	0	32836	32775	
2223	0	32876	32788	
2224	0	32872	32725	
2225	0	32840	32755	
2226	0	32796	32725	
2227	0	32804	32784	
2228	0	32776	32855	
2229	0	32816	32740	
2230	0	32804	32708	
2231	0	32820	32871	
2232	0	32842	32758	
2233	0	32810	32767	
2234	0	32748	32736	
2235	0	32768	32834	
2236	0	32864	32772	
2237	0	32768	32839	
2238	0	32736	32872	
2239	0	32728	32724	
2240	0	32824	32806	
2241	0	32789	32788	
2242	0	32804	32756	
2243	0	32772	32814	
2244	0	32796	32678	
2245	0	32798	32743	
2246	0	32782	32694	
2247	0	32810	32775	
2248	0	32764	32728	
2249	0	32796	32739	
2250	0	32880	32802	
2251	0	32802	32764	
2252	0	32804	32827	
2253	0	32816	32825	
2254	0	32906	32788	
2255	0	32944	32738	
2256	0	32868	32775	
2257	0	32831	32804	
2258	0	32810	32772	
2259	0	32792	32720	
2260	0	32778	32747	
2261	0	32814	32800	
2262	0	32788	32668	
2263	0	32820	32676	
2264	0	32780	32668	
2265	0	32824	32860	
2266	0	32772	32698	
2267	0	32792	32744	
2268	0	32804	32852	
2269	0	32888	32783	
2270	0	32788	32834	
2271	0	32796	32762	
2272	0	32852	32799	
2273	0	32836	32827	
2274	0	32824	32834	
2275	0	32876	32852	
2276	0	32814	32855	
2277	0	32816	32824	
2278	0	32856	32792	
2279	0	32832	32799	
2280	0	32828	32840	
2281	0	32854	32856	
2282	0	32760	32800	
2283	0	32761	32746	
2284	0	32852	32734	
2285	0	32854	32806	
2286	0	32772	32748	
2287	0	32815	32852	
2288	0	32806	32792	
2289	0	32788	32780	
2290	0	32820	32820	
2291	0	32774	32762	
2292	0	32794	32782	
2293	0	32796	32818	
2294	0	32802	32770	
2295	0	32868	32760	
2296	0	32858	32798	
2297	0	32800	32870	
2298	0	32836	32758	
2299	0	32772	32814	
2300	0	32874	32821	
2301	0	32774	32874	
2302	0	32788	32764	
2303	0	32836	32794	
2304	0	32804	32835	
2305	0	32816	32828	
2306	0	32784	32793	
2307	0	32848	32718	
2308	0	32830	32874	
2309	0	32784	32828	
2310	0	32782	32748	
2311	0	32804	32727	
2312	0	32776	32863	
2313	0	32796	32752	
2314	0	32760	32663	
2315	0	32788	32682	
2316	0	32848	32742	
2317	0	32836	32768	
2318	0	32776	32806	
2319	0	32788	32846	
2320	0	32888	32821	
2321	0	32888	32876	
2322	0	32824	32860	
2323	0	32860	32808	
2324	0	32824	32742	
2325	0	32852	32852	
2326	0	32808	32852	
2327	0	32830	32708	
2328	0	32804	32594	
2329	0	32838	32650	
2330	0	32808	32727	
2331	0	32788	32870	
2332	0	32796	32839	
2333	0	32792	32831	
2334	0	32754	32783	
2335	0	32848	32743	
2336	0	32786	32746	
2337	0	32804	32894	
2338	0	32802	32775	
2339	0	32742	32796	
2340	0	32792	32746	
2341	0	32820	32692	
2342	0	32848	32692	
2343	0	32798	32608	
2344	0	32800	32775	
2345	0	32840	32820	
2346	0	32842	32770	
2347	0	32816	32775	
2348	0	32844	32880	
2349	0	32816	32716	
2350	0	32790	32760	
2351	0	32812	32752	
2352	0	32836	32750	
2353	0	32780	32654	
2354	0	32768	32690	
2355	0	32801	32634	
2356	0	32792	32684	
2357	0	32798	32679	
2358	0	32812	32590	
2359	0	32752	32630	
2360	0	32756	32679	
2361	0	32704	32734	
2362	0	32692	32647	
2363	0	32754	32588	
2364	0	32708	32711	
2365	0	32612	32810	
2366	0	32738	32704	
2367	0	32704	32750	
2368	0	32750	32660	
2369	0	32758	32671	
2370	0	32740	32775	
2371	0	32740	32730	
2372	0	32772	32727	
2373	0	32695	32818	
2374	0	32774	32752	
2375	0	32696	32708	
2376	0	32740	32689	
2377	0	32704	32679	
2378	0	32698	32711	
2379	0	32662	32812	
2380	0	32810	32792	
2381	0	32832	32814	
2382	0	32772	32764	
2383	0	32756	32742	
2384	0	32860	32870	
2385	0	32897	32854	
2386	0	32970	33044	
2387	0	33044	33046	
2388	0	33180	33106	
2389	0	33168	33116	
2390	0	33184	33120	
2391	0	33196	32966	
2392	0	33104	32892	
2393	0	33090	32816	
2394	0	33092	32718	
2395	0	33058	32711	
2396	0	33028	32752	
2397	0	32976	32712	
2398	0	32910	32743	
2399	0	32968	32708	
2400	0	32872	32655	
2401	0	32800	32745	
2402	0	32734	32759	
2403	0	32720	32743	
2404	0	32684	32682	
2405	0	32680	32711	
2406	0	32680	32756	
2407	0	32704	32677	
2408	0	32660	32684	
2409	0	32664	32740	
2410	0	32676	32628	
2411	0	32736	32570	
2412	0	32652	32576	
2413	0	32700	32654	
2414	0	32696	32706	
2415	0	32752	32748	
2416	0	32772	32756	
2417	0	32720	32764	
2418	0	32708	32828	
2419	0	32736	32686	
2420	0	32768	32740	
2421	0	32824	32726	
2422	0	32792	32751	
2423	0	32804	32687	
2424	0	32900	32854	
2425	0	32806	32682	
2426	0	32929	32766	
2427	0	32828	32900	
2428	0	32794	32775	
2429	0	32896	32720	
2430	0	32820	32820	
2431	0	32730	32739	
2432	0	32762	32695	
2433	0	32832	32817	
2434	0	32824	32758	
2435	0	32828	32742	
2436	0	32826	32775	
2437	0	32832	32839	
2438	0	32788	32786	
2439	0	32804	32764	
2440	0	32804	32788	
2441	0	32814	32854	
2442	0	32884	32802	
2443	0	32882	32724	
2444	0	32764	32775	
2445	0	32772	32727	
2446	0	32720	32640	
2447	0	32776	32674	
2448	0	32828	32625	
2449	0	32792	32666	
2450	0	32820	32686	
2451	0	32896	32810	
2452	0	32764	32775	
2453	0	32824	32702	
2454	0	32820	32775	
2455	0	32780	32830	
2456	0	32804	32782	
2457	0	32792	32768	
2458	0	32772	32775	
2459	0	32808	32818	
2460	0	32792	32724	
2461	0	32836	32671	
2462	0	32796	32775	
2463	0	32832	32686	
2464	0	32804	32742	
2465	0	32848	32793	
2466	0	32844	32718	
2467	0	32834	32724	
2468	0	32860	32724	
2469	0	32794	32670	
2470	0	32784	32679	
2471	0	32810	32698	
2472	0	32852	32758	
2473	0	32806	32716	
2474	0	32828	32727	
2475	0	32812	32647	
2476	0	32872	32710	
2477	0	32824	32764	
2478	0	32804	32831	
2479	0	32896	32858	
2480	0	32808	32894	
2481	0	32868	32791	
2482	0	32712	32748	
2483	0	32796	32710	
2484	0	32752	32775	
2485	0	32832	32722	
2486	0	32826	32810	
2487	0	32808	32852	
2488	0	32780	32775	
2489	0	32884	32876	
2490	0	32832	32800	
2491	0	32784	32692	
2492	0	32842	32736	
2493	0	32810	32716	
2494	0	32800	32753	
2495	0	32776	32736	
2496	0	32820	32788	
2497	0	32812	32755	
2498	0	32786	32662	
2499	0	32876	32718	
2500	0	32862	32724	
2501	0	32764	32775	
2502	0	32820	32698	
2503	0	32888	32746	
2504	0	32880	32665	
2505	0	32776	32668	
2506	0	32800	32744	
2507	0	32812	32670	
2508	0	32806	32730	
2509	0	32816	32736	
2510	0	32800	32718	
2511	0	32792	32663	
2512	0	32808	32712	
2513	0	32828	32794	
2514	0	32744	32800	
2515	0	32746	32750	
2516	0	32804	32786	
2517	0	32832	32938	
2518	0	32848	32774	
2519	0	32890	32700	
2520	0	32804	32802	
2521	0	32872	32807	
2522	0	32852	32764	
2523	0	32778	32766	
2524	0	32814	32736	
2525	0	32800	32812	
2526	0	32816	32887	
2527	0	32704	32714	
2528	0	32712	32756	
2529	0	32750	32727	
2530	0	32844	32582	
2531	0	32854	32668	
2532	0	32828	32743	
2533	0	32828	32722	
2534	0	32788	32670	
2535	0	32816	32654	
2536	0	32874	32725	
2537	0	32820	32788	
2538	0	32790	32702	
2539	0	32812	32775	
2540	0	32758	32744	
2541	0	32872	32839	
2542	0	32800	32814	
2543	0	32874	32868	
2544	0	32788	32798	
2545	0	32900	32804	
2546	0	32836	32724	
2547	0	32826	32759	
2548	0	32860	32714	
2549	0	32778	32844	
2550	0	32800	32784	
2551	0	32804	32716	
2552	0	32826	32708	
2553	0	32848	32766	
2554	0	32848	32868	
2555	0	32776	32712	
2556	0	32872	32818	
2557	0	32804	32789	
2558	0	32744	32820	
2559	0	32810	32684	
2560	0	32767	32775	
2561	0	32740	32788	
2562	0	32785	32758	
2563	0	32812	32771	
2564	0	32840	32692	
2565	0	32792	32714	
2566	0	32820	32896	
2567	0	32800	32855	
2568	0	32808	32727	
2569	0	32746	32726	
2570	0	32816	32743	
2571	0	32800	32737	
2572	0	32744	32817	
2573	0	32820	32728	
2574	0	32798	32839	
2575	0	32796	32814	
2576	0	32844	32775	
2577	0	32800	32868	
2578	0	32892	32730	
2579	0	32832	32775	
2580	0	32788	32806	
2581	0	32820	32838	
2582	0	32864	32832	
2583	0	32812	32924	
2584	0	32872	32791	
2585	0	32800	32828	
2586	0	32802	32727	
2587	0	32776	32743	
2588	0	32818	32720	
2589	0	32866	32714	
2590	0	32800	32716	
2591	0	32864	32736	
2592	0	32804	32698	
2593	0	32858	32702	
2594	0	32856	32696	
2595	0	32810	32812	
2596	0	32808	32748	
2597	0	32836	32802	
2598	0	32836	32796	
2599	0	32806	32775	
2600	0	32810	32798	
2601	0	32772	32819	
2602	0	32776	32824	
2603	0	32832	32804	
2604	0	32832	32828	
2605	0	32774	32770	
2606	0	32792	32836	
2607	0	32824	32752	
2608	0	32864	32704	
2609	0	32816	32804	
2610	0	32792	32788	
2611	0	32804	32820	
2612	0	32808	32788	
2613	0	32804	32823	
2614	0	32854	32764	
2615	0	32770	32756	
2616	0	32802	32828	
2617	0	32806	32708	
2618	0	32796	32728	
2619	0	32876	32764	
2620	0	32774	32647	
2621	0	32844	32720	
2622	0	32820	32916	
2623	0	32792	32775	
2624	0	32850	32758	
2625	0	32792	32758	
2626	0	32808	32775	
2627	0	32828	32860	
2628	0	32836	32819	
2629	0	32826	32802	
2630	0	32776	32822	
2631	0	32792	32847	
2632	0	32804	32895	
2633	0	32788	32791	
2634	0	32800	32810	
2635	0	32776	32698	
2636	0	32876	32639	
2637	0	32828	32638	
2638	0	32794	32660	
2639	0	32864	32706	
2640	0	32818	32701	
2641	0	32830	32710	
2642	0	32784	32790	
2643	0	32740	32775	
2644	0	32792	32692	
2645	0	32788	32721	
2646	0	32800	32683	
2647	0	32808	32732	
2648	0	32784	32766	
2649	0	32798	32673	
2650	0	32821	32871	
2651	0	32804	32816	
2652	0	32808	32831	
2653	0	32776	32807	
2654	0	32900	32836	
2655	0	32900	32743	
2656	0	32832	32660	
2657	0	32830	32618	
2658	0	32832	32700	
2659	0	32852	32746	
2660	0	32790	32658	
2661	0	32794	32758	
2662	0	32800	32750	
2663	0	32741	32858	
2664	0	32794	32800	
2665	0	32788	32748	
2666	0	32902	32712	
2667	0	32846	32744	
2668	0	32830	32796	
2669	0	32832	32816	
2670	0	32836	32812	
2671	0	32834	32892	
2672	0	32824	32775	
2673	0	32820	32698	
2674	0	32788	32775	
2675	0	32764	32684	
2676	0	32786	32678	
2677	0	32740	32804	
2678	0	32820	32854	
2679	0	32834	32838	
2680	0	32820	32788	
2681	0	32872	32838	
2682	0	32848	32856	
2683	0	32856	32819	
2684	0	32788	32767	
2685	0	32684	32695	
2686	0	32872	32746	
2687	0	32788	32724	
2688	0	32790	32662	
2689	0	32780	32764	
2690	0	32748	32775	
2691	0	32792	32743	
2692	0	32830	32762	
2693	0	32764	32775	
2694	0	32738	32847	
2695	0	32728	32693	
2696	0	32816	32654	
2697	0	32828	32644	
2698	0	32792	32703	
2699	0	32856	32636	
2700	0	32716	32704	
2701	0	32864	32688	
2702	0	32836	32714	
2703	0	32896	32711	
2704	0	32796	32807	
2705	0	32814	32656	
2706	0	32744	32816	
2707	0	32806	32706	
2708	0	32740	32748	
2709	0	32798	32788	
2710	0	32880	32818	
2711	0	32879	32796	
2712	0	32830	32823	
2713	0	32820	32766	
2714	0	32828	32735	
2715	0	32788	32714	
2716	0	32760	32772	
2717	0	32782	32796	
2718	0	32796	32647	
2719	0	32764	32775	
2720	0	32770	32806	
2721	0	32836	32722	
2722	0	32824	32734	
2723	0	32816	32757	
2724	0	32760	32716	
2725	0	32732	32775	
2726	0	32770	32758	
2727	0	32796	32732	
2728	0	32796	32834	
2729	0	32838	32804	
2730	0	32804	32724	
2731	0	32754	32670	
2732	0	32756	32696	
2733	0	32772	32692	
2734	0	32834	32823	
2735	0	32854	32798	
2736	0	32772	32796	
2737	0	32732	32760	
2738	0	32776	32774	
2739	0	32784	32796	
2740	0	32860	32750	
2741	0	32820	32820	
2742	0	32804	32839	
2743	0	32854	32736	
2744	0	32780	32750	
2745	0	32832	32822	
2746	0	32794	32775	
2747	0	32868	32775	
2748	0	32844	32785	
2749	0	32832	32766	
2750	0	32820	32764	
2751	0	32752	32732	
2752	0	32816	32798	
2753	0	32782	32798	
2754	0	32792	32802	
2755	0	32776	32692	
2756	0	32850	32806	
2757	0	32836	32759	
2758	0	32740	32698	
2759	0	32769	32625	
2760	0	32784	32736	
2761	0	32823	32660	
2762	0	32802	32741	
2763	0	32816	32775	
2764	0	32872	32801	
2765	0	32778	32722	
2766	0	32804	32752	
2767	0	32696	32767	
2768	0	32858	32770	
2769	0	32792	32730	
2770	0	32834	32817	
2771	0	32852	32708	
2772	0	32788	32801	
2773	0	32828	32903	
2774	0	32844	32812	
2775	0	32836	32732	
2776	0	32746	32884	
2777	0	32798	32860	
2778	0	32738	32828	
2779	0	32864	32846	
2780	0	32814	32807	
2781	0	32888	32759	
2782	0	32804	32702	
2783	0	32824	32720	
2784	0	32872	32768	
2785	0	32842	32796	
2786	0	32756	32721	
2787	0	32764	32834	
2788	0	32810	32835	
2789	0	32754	32742	
2790	0	32788	32774	
2791	0	32856	32832	
2792	0	32732	32841	
2793	0	32756	32775	
2794	0	32762	32704	
2795	0	32800	32775	
2796	0	32784	32857	
2797	0	32764	32764	
2798	0	32808	32665	
2799	0	32768	32686	
2800	0	32776	32704	
2801	0	32796	32654	
2802	0	32784	32693	
2803	0	32804	32753	
2804	0	32832	32662	
2805	0	32836	32800	
2806	0	32848	32886	
2807	0	32848	32828	
2808	0	32866	32810	
2809	0	32860	32790	
2810	0	32800	32798	
2811	0	32792	32731	
2812	0	32832	32764	
2813	0	32818	32716	
2814	0	32769	32644	
2815	0	32784	32679	
2816	0	32790	32756	
2817	0	32800	32658	
2818	0	32756	32653	
2819	0	32820	32793	
2820	0	32788	32751	
2821	0	32872	32835	
2822	0	32781	32903	
2823	0	32806	32840	
2824	0	32850	32848	
2825	0	32816	32842	
2826	0	32836	32864	
2827	0	32824	32696	
2828	0	32881	32828	
2829	0	32824	32840	
2830	0	32880	32816	
2831	0	32772	32775	
2832	0	32798	32832	
2833	0	32780	32828	
2834	0	32784	32740	
2835	0	32792	32769	
2836	0	32816	32750	
2837	0	32800	32808	
2838	0	32740	32774	
2839	0	32756	32788	
2840	0	32828	32816	
2841	0	32782	32839	
2842	0	32790	32881	
2843	0	32804	32766	
2844	0	32888	32775	
2845	0	32792	32775	
2846	0	32836	32764	
2847	0	32848	32687	
2848	0	32815	32730	
2849	0	32920	32716	
2850	0	32824	32746	
2851	0	32866	32848	
2852	0	32848	32828	
2853	0	32780	32710	
2854	0	32740	32846	
2855	0	32764	32836	
2856	0	32776	32810	
2857	0	32788	32775	
2858	0	32724	32794	
2859	0	32808	32692	
2860	0	32808	32695	
2861	0	32806	32700	
2862	0	32800	32696	
2863	0	32856	32600	
2864	0	32798	32896	
2865	0	32768	32858	
2866	0	32810	32752	
2867	0	32886	32772	
2868	0	32804	32678	
2869	0	32768	32641	
2870	0	32756	32750	
2871	0	32795	32764	
2872	0	32788	32880	
2873	0	32800	32976	
2874	0	32812	32976	
2875	0	32884	32844	
2876	0	32824	32848	
2877	0	32716	32858	
2878	0	32858	32860	
2879	0	32788	32799	
2880	0	32688	32770	
2881	0	32752	32704	
2882	0	32740	32710	
2883	0	32762	32782	
2884	0	32752	32742	
2885	0	32728	32732	
2886	0	32804	32698	
2887	0	32868	32626	
2888	0	32740	32604	
2889	0	32856	32684	
2890	0	32820	32599	
2891	0	32772	32678	
2892	0	32910	32716	
2893	0	32922	32846	
2894	0	32880	32902	
2895	0	32764	32860	
2896	0	32796	32746	
2897	0	32800	32784	
2898	0	32810	32748	
2899	0	32768	32856	
2900	0	32830	32847	
2901	0	32806	32788	
2902	0	32824	32759	
2903	0	32804	32682	
2904	0	32792	32752	
2905	0	32752	32692	
2906	0	32860	32728	
2907	0	32914	32775	
2908	0	32864	32830	
2909	0	32720	32744	
2910	0	32766	32708	
2911	0	32818	32766	
2912	0	32668	32703	
2913	0	32720	32794	
2914	0	32776	32775	
2915	0	32752	32799	
2916	0	32836	32748	
2917	0	32764	32680	
2918	0	32796	32754	
2919	0	32840	32743	
2920	0	32856	32838	
2921	0	32876	32720	
2922	0	32868	32838	
2923	0	32864	32820	
2924	0	32912	32768	
2925	0	32836	32844	
2926	0	32834	32760	
2927	0	32816	32762	
2928	0	32800	32715	
2929	0	32880	32814	
2930	0	32840	32672	
2931	0	32864	32710	
2932	0	32880	32708	
2933	0	32812	32775	
2934	0	32824	32790	
2935	0	32798	32759	
2936	0	32812	32734	
2937	0	32824	32672	
2938	0	32740	32690	
2939	0	32794	32774	
2940	0	32732	32746	
2941	0	32710	32791	
2942	0	32772	32734	
2943	0	32820	32810	
2944	0	32820	32728	
2945	0	32786	32796	
2946	0	32862	32810	
2947	0	32884	32735	
2948	0	32876	32694	
2949	0	32884	32834	
2950	0	32860	32827	
2951	0	32840	32919	
2952	0	32888	32839	
2953	0	32840	32771	
2954	0	32808	32696	
2955	0	32846	32738	
2956	0	32772	32679	
2957	0	32780	32732	
2958	0	32788	32682	
2959	0	32798	32634	
2960	0	32840	32724	
2961	0	32864	32826	
2962	0	32880	32758	
2963	0	32786	32798	
2964	0	32754	32757	
2965	0	32720	32711	
2966	0	32625	32738	
2967	0	32792	32748	
2968	0	32824	32860	
2969	0	32712	32775	
2970	0	32828	32716	
2971	0	32868	32764	
2972	0	32804	32638	
2973	0	32876	32700	
2974	0	32904	32760	
2975	0	32792	32838	
2976	0	32798	32768	
2977	0	32836	32750	
2978	0	32840	32903	
2979	0	32840	32874	
2980	0	32834	32767	
2981	0	32794	32662	
2982	0	32744	32759	
2983	0	32834	32792	
2984	0	32854	32814	
2985	0	32822	32788	
2986	0	32752	32798	
2987	0	32812	32828	
2988	0	32840	32795	
2989	0	32766	32817	
2990	0	32840	32798	
2991	0	32752	32788	
2992	0	32775	32743	
2993	0	32810	32679	
2994	0	32808	32847	
2995	0	32756	32839	
2996	0	32874	32758	
2997	0	32852	32759	
2998	0	32832	32772	
2999	0	32868	32743	
3000	0	33016	32688	
3001	0	33086	32678	
3002	0	33004	32644	
3003	0	32764	32628	
3004	0	32684	32706	
3005	0	32628	32816	
3006	0	32670	32801	
3007	0	32634	32813	
3008	0	32540	32644	
3009	0	32680	32766	
3010	0	32564	32890	
3011	0	32596	32839	
3012	0	32656	32838	
3013	0	32672	32790	
3014	0	32769	32766	
3015	0	32818	32792	
3016	0	32804	32768	
3017	0	32820	32839	
3018	0	32740	32742	
3019	0	32756	32716	
3020	0	32752	32598	
3021	0	32740	32554	
3022	0	32796	32736	
3023	0	32802	32705	
3024	0	32746	32648	
3025	0	32718	32654	
3026	0	32736	32634	
3027	0	32636	32656	
3028	0	32668	32720	
3029	0	32728	32647	
3030	0	32800	32770	
3031	0	32826	32812	
3032	0	32932	32956	
3033	0	33102	33024	
3034	0	33144	33159	
3035	0	33108	33174	
3036	0	33204	33100	
3037	0	33157	32960	
3038	0	33084	32881	
3039	0	33124	32814	
3040	0	33198	32751	
3041	0	33176	32775	
3042	0	33088	32775	
3043	0	33052	32800	
3044	0	33048	32766	
3045	0	32976	32710	
3046	0	32920	32702	
3047	0	32849	32674	
3048	0	32762	32711	
3049	0	32807	32673	
3050	0	32820	32728	
3051	0	32704	32682	
3052	0	32648	32695	
3053	0	32668	32644	
3054	0	32644	32644	
3055	0	32589	32764	
3056	0	32604	32739	
3057	0	32480	32688	
3058	0	32564	32652	
3059	0	32588	32764	
3060	0	32584	32742	
3061	0	32700	32756	
3062	0	32708	32686	
3063	0	32742	32736	
3064	0	32823	32855	
3065	0	32792	32767	
3066	0	32876	32772	
3067	0	32840	32759	
3068	0	32868	32775	
3069	0	32904	32775	
3070	0	32856	32714	
3071	0	32892	32775	
3072	0	32796	32840	
3073	0	32800	32860	
3074	0	32876	32814	
3075	0	32800	32820	
3076	0	32848	32822	
3077	0	32768	32810	
3078	0	32728	32862	
3079	0	32812	32902	
3080	0	32856	32687	
3081	0	32792	32718	
3082	0	32764	32574	
3083	0	32644	32652	
3084	0	32820	32614	
3085	0	32670	32760	
3086	0	32740	32622	
3087	0	32816	32720	
3088	0	32772	32656	
3089	0	32788	32732	
3090	0	32830	32768	
3091	0	32836	32762	
3092	0	32824	32692	
3093	0	32880	32740	
3094	0	32828	32772	
3095	0	32944	32871	
3096	0	32862	32824	
3097	0	32840	32817	
3098	0	32892	32924	
3099	0	32900	32865	
3100	0	32856	32847	
3101	0	32960	32814	
3102	0	32840	32850	
3103	0	32764	32952	
3104	0	32810	32794	
3105	0	32760	32789	
3106	0	32708	32698	
3107	0	32728	32664	
3108	0	32732	32714	
3109	0	32672	32788	
3110	0	32682	32667	
3111	0	32756	32696	
3112	0	32800	32738	
3113	0	32734	32612	
3114	0	32728	32590	
3115	0	32826	32606	
3116	0	32838	32870	
3117	0	32876	32762	
3118	0	32900	32775	
3119	0	32976	32829	
3120	0	32952	32696	
3121	0	32792	32774	
3122	0	32936	32775	
3123	0	32856	32794	
3124	0	32844	32910	
3125	0	32740	32988	
3126	0	32724	32924	
3127	0	32728	32852	
3128	0	32806	32887	
3129	0	32768	32762	
3130	0	32822	32804	
3131	0	32844	32735	
3132	0	32820	32740	
3133	0	32840	32652	
3134	0	32814	32724	
3135	0	32832	32700	
3136	0	32808	32744	
3137	0	32756	32758	
3138	0	32716	32780	
3139	0	32752	32760	
3140	0	32820	32644	
3141	0	32880	32790	
3142	0	32878	32802	
3143	0	32858	32743	
3144	0	32854	32830	
3145	0	32896	32818	
3146	0	32856	32775	
3147	0	32812	32624	
3148	0	32768	32722	
3149	0	32806	32672	
3150	0	32756	32692	
3151	0	32764	32784	
3152	0	32764	32740	
3153	0	32760	32744	
3154	0	32810	32780	
3155	0	32780	32860	
3156	0	32864	32742	
3157	0	32798	32812	
3158	0	32924	32849	
3159	0	32838	32736	
3160	0	32880	32759	
3161	0	32736	32650	
3162	0	32768	32764	
3163	0	32852	32828	
3164	0	32808	32704	
3165	0	32756	32727	
3166	0	32740	32558	
3167	0	32704	32622	
3168	0	32692	32670	
3169	0	32740	32630	
3170	0	32758	32767	
3171	0	32802	32879	
3172	0	32876	32878	
3173	0	32820	32921	
3174	0	32850	32930	
3175	0	32874	32894	
3176	0	32910	32738	
3177	0	32860	32770	
3178	0	32888	32852	
3179	0	32898	32820	
3180	0	32880	32802	
3181	0	32832	32700	
3182	0	32828	32683	
3183	0	32888	32601	
3184	0	32804	32632	
3185	0	32778	32708	
3186	0	32768	32680	
3187	0	32712	32720	
3188	0	32760	32849	
3189	0	32712	32662	
3190	0	32752	32738	
3191	0	32788	32900	
3192	0	32840	32750	
3193	0	32788	32860	
3194	0	32900	32844	
3195	0	32828	32902	
3196	0	32816	32912	
3197	0	32812	32902	
3198	0	32878	32890	
3199	0	32918	32896	
3200	0	32992	32922	
3201	0	32960	32806	
3202	0	32888	32704	
3203	0	32732	32775	
3204	0	32664	32788	
3205	0	32676	32662	
3206	0	32636	32606	
3207	0	32692	32676	
3208	0	32682	32692	
3209	0	32756	32766	
3210	0	32746	32664	
3211	0	32734	32632	
3212	0	32676	32772	
3213	0	32790	32786	
3214	0	32708	32810	
3215	0	32740	32790	
3216	0	32816	32828	
3217	0	32868	32823	
3218	0	32828	32703	
3219	0	32954	32650	
3220	0	32984	32676	
3221	0	32960	32660	
3222	0	32744	32607	
3223	0	32740	32612	
3224	0	32876	32696	
3225	0	32836	32711	
3226	0	32837	32706	
3227	0	32872	32814	
3228	0	32878	32894	
3229	0	32860	32844	
3230	0	32740	32850	
3231	0	32728	32772	
3232	0	32734	32834	
3233	0	32708	32988	
3234	0	32740	33012	
3235	0	32804	32734	
3236	0	32868	32866	
3237	0	32924	32794	
3238	0	32866	32782	
3239	0	32940	32670	
3240	0	32968	32646	
3241	0	32860	32668	
3242	0	32823	32684	
3243	0	32738	32484	
3244	0	32808	32580	
3245	0	32800	32600	
3246	0	32753	32679	
3247	0	32832	32515	
3248	0	32824	32620	
3249	0	32898	32650	
3250	0	32776	32754	
3251	0	32728	32920	
3252	0	32732	33058	
3253	0	32744	33018	
3254	0	32788	32967	
3255	0	32742	32874	
3256	0	32764	32889	
3257	0	32620	32904	
3258	0	32672	32775	
3259	0	32768	32823	
3260	0	32802	32742	
3261	0	32840	32714	
3262	0	32920	32900	
3263	0	32832	32704	
3264	0	32897	32702	
3265	0	32830	32698	
3266	0	32900	32732	
3267	0	32936	32738	
3268	0	32906	32766	
3269	0	32844	32645	
3270	0	32848	32700	
3271	0	32808	32748	
3272	0	32804	32646	
3273	0	32876	32806	
3274	0	32852	32732	
3275	0	32916	32682	
3276	0	32778	32575	
3277	0	32736	32728	
3278	0	32730	32692	
3279	0	32848	32644	
3280	0	32812	32660	
3281	0	32770	32622	
3282	0	32712	32702	
3283	0	32720	32802	
3284	0	32746	32852	
3285	0	32778	32750	
3286	0	32868	32829	
3287	0	32928	32775	
3288	0	32852	32775	
3289	0	32888	32771	
3290	0	32832	32890	
3291	0	32881	32980	
3292	0	32880	32855	
3293	0	32840	32856	
3294	0	32726	32741	
3295	0	32772	32838	
3296	0	32740	32820	
3297	0	32772	32798	
3298	0	32756	32790	
3299	0	32792	32892	
3300	0	32842	32798	
3301	0	32928	32740	
3302	0	32990	32734	
3303	0	32980	32807	
3304	0	32922	32693	
3305	0	32896	32571	
3306	0	32820	32764	
3307	0	32756	32682	
3308	0	32678	32772	
3309	0	32682	32756	
3310	0	32632	32748	
3311	0	32772	32696	
3312	0	32696	32732	
3313	0	32718	32618	
3314	0	32718	32644	
3315	0	32768	32638	
3316	0	32856	32824	
3317	0	32828	32743	
3318	0	32776	32814	
3319	0	32852	32624	
3320	0	32821	32694	
3321	0	32824	32920	
3322	0	32740	32875	
3323	0	32814	32710	
3324	0	32828	32622	
3325	0	32952	32614	
3326	0	32988	32758	
3327	0	33050	32732	
3328	0	32974	32604	
3329	0	32784	32647	
3330	0	32892	32692	
3331	0	32798	32708	
3332	0	32716	32775	
3333	0	32720	32810	
3334	0	32784	32708	
3335	0	32808	32716	
3336	0	32716	32712	
3337	0	32868	32804	
3338	0	32768	32794	
3339	0	32478	32828	
3340	0	32662	32964	
3341	0	32596	33074	
3342	0	32644	33031	
3343	0	32720	32967	
3344	0	32856	33096	
3345	0	32825	33063	
3346	0	32792	32974	
3347	0	32928	32956	
3348	0	32876	32899	
3349	0	32916	32884	
3350	0	32936	32824	
3351	0	32870	32792	
3352	0	32858	32746	
3353	0	32716	32663	
3354	0	32868	32718	
3355	0	32876	32583	
3356	0	32932	32551	
3357	0	32960	32535	
3358	0	32770	32502	
3359	0	32596	32351	
3360	0	32692	32506	
3361	0	32738	32580	
3362	0	32842	32712	
3363	0	32860	32775	
3364	0	32850	32810	
3365	0	32710	32775	
3366	0	32744	32912	
3367	0	32860	32994	
3368	0	32838	32882	
3369	0	32896	32980	
3370	0	32884	33082	
3371	0	32736	33128	
3372	0	32724	32960	
3373	0	32740	32885	
3374	0	32732	32830	
3375	0	32816	32692	
3376	0	32864	32730	
3377	0	32881	32734	
3378	0	32820	32682	
3379	0	32868	32764	
3380	0	32856	32736	
3381	0	32816	32620	
3382	0	32836	32794	
3383	0	32878	32735	
3384	0	32900	32735	
3385	0	32820	32657	
3386	0	32892	32734	
3387	0	32754	32726	
3388	0	32792	32754	
3389	0	32810	32762	
3390	0	32744	32775	
3391	0	32747	32900	
3392	0	32720	32844	
3393	0	32784	32680	
3394	0	32858	32808	
3395	0	33016	32806	
3396	0	33236	32775	
3397	0	33188	32754	
3398	0	33012	32623	
3399	0	32852	32394	
3400	0	32636	32390	
3401	0	32604	32606	
3402	0	32524	32812	
3403	0	32560	32914	
3404	0	32577	32903	
3405	0	32564	33007	
3406	0	32644	32949	
3407	0	32724	32996	
3408	0	32824	32972	
3409	0	32760	32890	
3410	0	32666	32788	
3411	0	32808	32823	
3412	0	32832	32850	
3413	0	32844	32807	
3414	0	32796	32804	
3415	0	32736	32690	
3416	0	32756	32769	
3417	0	32780	32748	
3418	0	32864	32580	
3419	0	32792	32821	
3420	0	32920	32734	
3421	0	33054	32660	
3422	0	33060	32752	
3423	0	32974	32864	
3424	0	32904	32935	
3425	0	32840	32582	
3426	0	32820	32551	
3427	0	32732	32676	
3428	0	32700	32624	
3429	0	32748	32580	
3430	0	32724	32734	
3431	0	32714	32876	
3432	0	32860	32736	
3433	0	32826	32721	
3434	0	32776	32816	
3435	0	32856	32932	
3436	0	32836	32887	
3437	0	32868	32801	
3438	0	32834	32711	
3439	0	32802	32695	
3440	0	32884	32694	
3441	0	32896	32550	
3442	0	32796	32396	
3443	0	32908	32372	
3444	0	32820	32428	
3445	0	32912	32224	
3446	0	32676	32164	
3447	0	32740	32286	
3448	0	32638	32692	
3449	0	32692	32930	
3450	0	32798	33214	
3451	0	32780	33310	
3452	0	32820	33428	
3453	0	32796	33422	
3454	0	32780	33422	
3455	0	32842	33380	
3456	0	32860	33461	
3457	0	32928	33478	
3458	0	32980	33310	
3459	0	32798	33294	
3460	0	32836	33180	
3461	0	32832	33031	
3462	0	32788	33034	
3463	0	32720	32850	
3464	0	32752	32587	
3465	0	32922	32455	
3466	0	32908	32282	
3467	0	33008	32182	
3468	0	32956	32151	
3469	0	32764	32282	
3470	0	32660	32302	
3471	0	32598	32326	
3472	0	32564	32514	
3473	0	32746	32575	
3474	0	32832	32604	
3475	0	32824	32656	
3476	0	32818	32646	
3477	0	32706	32762	
3478	0	32692	32968	
3479	0	32800	32982	
3480	0	32828	33030	
3481	0	32948	33067	
3482	0	33112	32705	
3483	0	33126	32968	
3484	0	33184	32903	
3485	0	33304	32693	
3486	0	33114	32796	
3487	0	32900	32924	
3488	0	32656	32854	
3489	0	32544	32770	
3490	0	32548	32895	
3491	0	32448	32946	
3492	0	32388	32869	
3493	0	32436	32676	
3494	0	32540	32684	
3495	0	32504	32677	
3496	0	32616	32682	
3497	0	32848	32630	
3498	0	33084	32687	
3499	0	33136	32636	
3500	0	33074	32664	
3501	0	32522	32708	
3502	0	32476	32772	
3503	0	32672	32775	
3504	0	32740	32876	
3505	0	32916	32822	
3506	0	33040	32734	
3507	0	33274	32609	
3508	0	33508	32882	
3509	0	33392	32716	
3510	0	33208	32562	
3511	0	32952	32722	
3512	0	32737	32614	
3513	0	32530	32646	
3514	0	32456	32774	
3515	0	32404	32884	
3516	0	32260	32759	
3517	0	32288	32828	
3518	0	32358	32839	
3519	0	32436	32838	
3520	0	32608	32743	
3521	0	32688	32868	
3522	0	32774	32860	
3523	0	32844	32874	
3524	0	32982	32804	
3525	0	32874	32884	
3526	0	32928	32810	
3527	0	32824	32947	
3528	0	32874	32864	
3529	0	32940	32836	
3530	0	32922	32751	
3531	0	32964	32354	
3532	0	33010	32263	
3533	0	33018	32486	
3534	0	33036	32303	
3535	0	33024	32330	
3536	0	32914	32584	
3537	0	32836	32992	
3538	0	32792	33030	
3539	0	32842	33246	
3540	0	32788	33382	
3541	0	32812	33342	
3542	0	32880	33272	
3543	0	32866	33240	
3544	0	32924	33191	
3545	0	32872	32962	
3546	0	32676	32824	
3547	0	32774	32775	
3548	0	32826	32737	
3549	0	32804	32692	
3550	0	32754	32646	
3551	0	32700	32480	
3552	0	32768	32095	
3553	0	32756	32122	
3554	0	32680	32076	
3555	0	32728	32174	
3556	0	32744	32206	
3557	0	32836	32192	
3558	0	32879	32082	
3559	0	32892	32206	
3560	0	32772	32320	
3561	0	32822	32566	
3562	0	32808	33040	
3563	0	32844	33344	
3564	0	32816	33542	
3565	0	32902	33704	
3566	0	32988	33648	
3567	0	32920	33598	
3568	0	32944	33639	
3569	0	32784	33529	
3570	0	32676	33362	
3571	0	32720	33308	
3572	0	32836	33154	
3573	0	32732	33050	
3574	0	32696	32736	
3575	0	32816	32759	
3576	0	32768	32697	
3577	0	32728	32608	
3578	0	32848	32526	
3579	0	32754	32336	
3580	0	32734	32340	
3581	0	32727	32236	
3582	0	32716	32055	
3583	0	32768	32100	
3584	0	32834	32234	
3585	0	32924	32238	
3586	0	32860	32519	
3587	0	32844	32544	
3588	0	32786	32430	
3589	0	32821	32661	
3590	0	32808	32718	
3591	0	32840	32940	
3592	0	32934	32887	
3593	0	32874	32804	
3594	0	32864	32775	
3595	0	32948	32697	
3596	0	32976	32788	
3597	0	32606	32716	
3598	0	32542	32796	
3599	0	32720	32817	
3600	0	32784	32756	
3601	0	32812	32738	
3602	0	32784	32823	
3603	0	32768	32752	
3604	0	33080	32696	
3605	0	33092	32806	
3606	0	32940	32772	
3607	0	32804	32670	
3608	0	32656	32606	
3609	0	32700	32624	
3610	0	32850	32696	
3611	0	32780	32566	
3612	0	32760	32412	
3613	0	32760	32582	
3614	0	32880	32604	
3615	0	32716	32759	
3616	0	32622	32846	
3617	0	32646	32935	
3618	0	32580	33116	
3619	0	32644	33118	
3620	0	32644	33089	
3621	0	32748	32928	
3622	0	32654	32896	
3623	0	32650	32894	
3624	0	32616	32903	
3625	0	32686	32734	
3626	0	32756	32852	
3627	0	32860	32814	
3628	0	32856	32772	
3629	0	32830	32626	
3630	0	32834	32545	
3631	0	32816	32407	
3632	0	32800	32404	
3633	0	32764	32406	
3634	0	32776	32348	
3635	0	32802	32190	
3636	0	32840	32340	
3637	0	32872	32724	
3638	0	32896	32720	
3639	0	32897	32846	
3640	0	32824	32874	
3641	0	33008	33298	
3642	0	33208	33218	
3643	0	33194	33260	
3644	0	32880	33146	
3645	0	32932	33012	
3646	0	32772	33014	
3647	0	32606	32724	
3648	0	32530	32766	
3649	0	32426	32615	
3650	0	32484	32582	
3651	0	32590	32682	
3652	0	32632	32746	
3653	0	32824	32974	
3654	0	32948	32976	
3655	0	32992	32775	
3656	0	33018	32812	
3657	0	32972	32772	
3658	0	32904	32546	
3659	0	32880	32558	
3660	0	32884	32604	
3661	0	33104	32690	
3662	0	33082	32934	
3663	0	33146	33042	
3664	0	33096	33180	
3665	0	33108	33060	
3666	0	33060	33223	
3667	0	32932	33132	
3668	0	32908	32914	
3669	0	32880	32743	
3670	0	32868	32870	
3671	0	32914	32598	
3672	0	32840	32512	
3673	0	32768	32572	
3674	0	32788	32668	
3675	0	32656	32572	
3676	0	32780	32686	
3677	0	32732	32644	
3678	0	32660	32716	
3679	0	32716	32694	
3680	0	32714	32690	
3681	0	32732	32559	
3682	0	32764	32583	
3683	0	32756	32628	
3684	0	32662	32534	
3685	0	32656	32630	
3686	0	32660	32662	
3687	0	32756	32704	
3688	0	32732	32794	
3689	0	32854	32728	
3690	0	32920	32964	
3691	0	32984	32624	
3692	0	32944	32500	
3693	0	33062	32448	
3694	0	33102	32529	
3695	0	32962	32644	
3696	0	32766	32670	
3697	0	32632	32694	
3698	0	32596	32710	
3699	0	32616	32754	
3700	0	32622	32940	
3701	0	32530	32975	
3702	0	32628	32911	
3703	0	32716	32948	
3704	0	32704	32743	
3705	0	32740	32736	
3706	0	32754	32726	
3707	0	32936	32794	
3708	0	32808	32887	
3709	0	32868	32814	
3710	0	32756	32770	
3711	0	32736	32650	
3712	0	32756	32652	
3713	0	32732	32710	
3714	0	32900	32522	
3715	0	32888	32640	
3716	0	32928	32614	
3717	0	32884	32728	
3718	0	32848	32790	
3719	0	32812	32734	
3720	0	32856	32668	
3721	0	32840	32660	
3722	0	32836	32519	
3723	0	32888	32722	
3724	0	32804	32900	
3725	0	32904	32996	
3726	0	33002	32854	
3727	0	32927	32938	
3728	0	32808	32810	
3729	0	32780	32788	
3730	0	32740	32852	
3731	0	32732	32766	
3732	0	32640	32788	
3733	0	32632	32774	
3734	0	32664	32714	
3735	0	32636	32816	
3736	0	32628	32751	
3737	0	32740	32656	
3738	0	32770	32775	
3739	0	32868	32887	
3740	0	32928	32734	
3741	0	32900	32764	
3742	0	32924	32858	
3743	0	32861	32720	
3744	0	32900	32762	
3745	0	32818	32711	
3746	0	32876	32624	
3747	0	32796	32764	
3748	0	32952	32851	
3749	0	33004	32740	
3750	0	32928	32842	
3751	0	32866	32868	
3752	0	32766	32838	
3753	0	32620	32856	
3754	0	32668	32812	
3755	0	32692	32860	
3756	0	32668	32788	
3757	0	32736	32826	
3758	0	32744	32839	
3759	0	32760	32853	
3760	0	32808	32732	
3761	0	32804	32784	
3762	0	32794	32677	
3763	0	32794	32668	
3764	0	32852	32609	
3765	0	32846	32654	
3766	0	32965	32533	
3767	0	32956	32444	
3768	0	32846	32183	
3769	0	32949	32174	
3770	0	32908	32262	
3771	0	32992	32644	
3772	0	32858	32770	
3773	0	32972	32950	
3774	0	32900	33180	
3775	0	32876	33532	
3776	0	32864	33622	
3777	0	32712	33372	
3778	0	32774	33044	
3779	0	32640	32871	
3780	0	32580	32878	
3781	0	32460	32916	
3782	0	32528	32844	
3783	0	32590	32757	
3784	0	32548	32614	
3785	0	32540	32676	
3786	0	32670	32586	
3787	0	32700	32516	
3788	0	32780	32447	
3789	0	32906	32560	
3790	0	32892	32524	
3791	0	32956	32572	
3792	0	32886	32625	
3793	0	32870	32704	
3794	0	32854	32786	
3795	0	32806	32806	
3796	0	32840	32816	
3797	0	32968	32578	
3798	0	33050	32588	
3799	0	33064	32492	
3800	0	32972	32578	
3801	0	32984	32462	
3802	0	32904	32452	
3803	0	32898	32592	
3804	0	32768	32732	
3805	0	32710	32964	
3806	0	32732	32918	
3807	0	32704	32766	
3808	0	32628	32820	
3809	0	32672	32864	
3810	0	32744	32904	
3811	0	32774	32818	
3812	0	32816	32952	
3813	0	32816	32978	
3814	0	32746	32948	
3815	0	32780	32838	
3816	0	32742	32870	
3817	0	32722	32839	
3818	0	32804	32832	
3819	0	32704	32894	
3820	0	32742	32940	
3821	0	32786	32736	
3822	0	32860	32679	
3823	0	32890	32757	
3824	0	32900	32519	
3825	0	32962	31923	
3826	0	32916	32324	
3827	0	32940	32672	
3828	0	32928	32670	
3829	0	32916	32516	
3830	0	32896	32350	
3831	0	32920	32718	
3832	0	32934	33154	
3833	0	32956	33330	
3834	0	32824	33280	
3835	0	32746	33196	
3836	0	32712	33060	
3837	0	32704	33078	
3838	0	32708	33092	
3839	0	32576	32922	
3840	0	32754	32734	
3841	0	32624	32570	
3842	0	32728	32560	
3843	0	32736	32681	
3844	0	32790	32622	
3845	0	32870	32711	
3846	0	32792	32728	
3847	0	32828	32684	
3848	0	32782	32843	
3849	0	32780	32876	
3850	0	32812	32948	
3851	0	32800	32908	
3852	0	32746	32860	
3853	0	32836	32714	
3854	0	32944	32620	
3855	0	33146	32554	
3856	0	32958	32486	
3857	0	32946	32628	
3858	0	33052	32680	
3859	0	33186	32892	
3860	0	33148	32908	
3861	0	32946	32910	
3862	0	32750	32910	
3863	0	32567	32934	
3864	0	32422	33127	
3865	0	32420	33016	
3866	0	32422	32950	
3867	0	32476	32908	
3868	0	32470	32942	
3869	0	32584	32852	
3870	0	32628	32689	
3871	0	32748	32616	
3872	0	32784	32673	
3873	0	32840	32602	
3874	0	32996	32775	
3875	0	32932	32845	
3876	0	32897	32775	
3877	0	32866	32832	
3878	0	32840	32582	
3879	0	32892	32136	
3880	0	32968	31944	
3881	0	33020	32834	
3882	0	33132	33030	
3883	0	33078	32828	
3884	0	32834	32519	
3885	0	32816	32791	
3886	0	32916	32910	
3887	0	32844	33108	
3888	0	32692	33056	
3889	0	32756	32994	
3890	0	32870	32966	
3891	0	32732	32999	
3892	0	32708	32990	
3893	0	32746	32918	
3894	0	32716	32894	
3895	0	32818	32839	
3896	0	32849	32584	
3897	0	32840	32655	
3898	0	32776	32768	
3899	0	32828	32599	
3900	0	32832	32476	
3901	0	32916	32926	
3902	0	33032	32688	
3903	0	33028	32300	
3904	0	32980	32540	
3905	0	32896	32775	
3906	0	32812	32971	
3907	0	32624	32839	
3908	0	32516	32833	
3909	0	32642	33076	
3910	0	32630	32722	
3911	0	32609	32679	
3912	0	32664	32703	
3913	0	32728	32909	
3914	0	32740	33142	
3915	0	32816	33188	
3916	0	32960	33038	
3917	0	32881	32794	
3918	0	32820	32902	
3919	0	32920	32974	
3920	0	32864	32874	
3921	0	32676	32792	
3922	0	32614	32807	
3923	0	32648	32657	
3924	0	32746	32526	
3925	0	32748	32596	
3926	0	32794	32726	
3927	0	32792	32746	
3928	0	32854	32714	
3929	0	32852	32576	
3930	0	32780	32744	
3931	0	32900	32620	
3932	0	32842	32340	
3933	0	32976	32142	
3934	0	33044	32486	
3935	0	33094	32970	
3936	0	33052	32807	
3937	0	33122	32894	
3938	0	33194	32980	
3939	0	33160	33050	
3940	0	33000	33018	
3941	0	32740	33066	
3942	0	32700	33326	
3943	0	32560	33303	
3944	0	32624	32981	
3945	0	32608	32768	
3946	0	32546	32716	
3947	0	32576	32646	
3948	0	32585	32710	
3949	0	32544	32719	
3950	0	32512	32647	
3951	0	32572	32678	
3952	0	32786	32608	
3953	0	32714	32604	
3954	0	32821	32638	
3955	0	32925	32536	
3956	0	32860	32460	
3957	0	32850	32576	
3958	0	32804	32606	
3959	0	32836	32681	
3960	0	32860	32728	
3961	0	32916	32840	
3962	0	32992	32960	
3963	0	32960	32916	
3964	0	32932	32628	
3965	0	32920	32874	
3966	0	32934	32774	
3967	0	32924	32626	
3968	0	32836	32811	
3969	0	32926	32596	
3970	0	32846	32748	
3971	0	32714	33073	
3972	0	32800	33154	
3973	0	32856	33076	
3974	0	32964	32846	
3975	0	32918	32756	
3976	0	32920	32850	
3977	0	32836	32834	
3978	0	32779	32896	
3979	0	32706	32977	
3980	0	32752	32871	
3981	0	32869	32868	
3982	0	32874	32647	
3983	0	32744	32624	
3984	0	32868	32647	
3985	0	32744	32699	
3986	0	32696	32700	
3987	0	32704	32738	
3988	0	32712	32775	
3989	0	32700	32654	
3990	0	32832	32736	
3991	0	32844	32775	
3992	0	32768	32698	
3993	0	32756	32832	
3994	0	32808	32705	
3995	0	32704	32750	
3996	0	32810	32596	
3997	0	32756	32384	
3998	0	32778	32392	
3999	0	32816	32642	
4000	0	32964	33118	
4001	0	33044	33082	
4002	0	33044	32740	
4003	0	33020	32410	
4004	0	33080	32634	
4005	0	32936	32666	
4006	0	32904	32775	
4007	0	32774	32762	
4008	0	32772	32680	
4009	0	32748	32998	
4010	0	32768	33068	
4011	0	32948	33041	
4012	0	32810	32966	
4013	0	32766	32660	
4014	0	32786	32638	
4015	0	32656	32628	
4016	0	32544	32314	
4017	0	32528	32519	
4018	0	32552	32996	
4019	0	32488	32852	
4020	0	32692	32907	
4021	0	32824	32982	
4022	0	32808	32930	
4023	0	32944	32980	
4024	0	33152	32686	
4025	0	33100	32758	
4026	0	32932	32822	
4027	0	32936	32622	
4028	0	32732	32510	
4029	0	32632	32716	
4030	0	32620	32838	
4031	0	32618	32862	
4032	0	32614	32805	
4033	0	32600	32941	
4034	0	32632	32836	
4035	0	32770	32636	
4036	0	32788	32640	
4037	0	32846	32572	
4038	0	32938	32560	
4039	0	32900	32504	
4040	0	32879	32658	
4041	0	32892	32560	
4042	0	32816	32616	
4043	0	32952	32160	
4044	0	32904	32542	
4045	0	32900	33575	
4046	0	32920	33376	
4047	0	32958	32981	
4048	0	33016	32903	
4049	0	32940	32599	
4050	0	33056	32895	
4051	0	32936	32964	
4052	0	32900	33058	
4053	0	32932	32928	
4054	0	32842	32903	
4055	0	32736	32868	
4056	0	32676	32678	
4057	0	32588	32639	
4058	0	32554	32592	
4059	0	32604	32698	
4060	0	32644	32683	
4061	0	32688	32692	
4062	0	32656	32722	
4063	0	32670	32639	
4064	0	32766	32744	
4065	0	32828	32816	
4066	0	32848	32562	
4067	0	32788	32359	
4068	0	32754	32412	
4069	0	32760	32556	
4070	0	32784	32645	
4071	0	32940	32470	
4072	0	32900	32492	
4073	0	33026	32726	
4074	0	32960	33070	
4075	0	32902	33216	
4076	0	32888	33287	
4077	0	32806	33220	
4078	0	32817	33150	
4079	0	32804	32932	
4080	0	32724	32711	
4081	0	32884	32816	
4082	0	32876	32592	
4083	0	32872	32468	
4084	0	32804	32666	
4085	0	32912	32468	
4086	0	32814	32263	
4087	0	32804	32330	
4088	0	32804	32810	
4089	0	32696	32866	
4090	0	32764	32538	
4091	0	32756	32954	
4092	0	32812	32512	
4093	0	32812	33226	
4094	0	32764	33106	
4095	0	32776	32743	
4096	0	32776	32626	
4097	0	32960	32988	
4098	0	32952	32928	
4099	0	32872	32910	
4100	0	32880	33046	
4101	0	32806	33010	
4102	0	32708	32738	
4103	0	32816	32786	
4104	0	32924	32752	
4105	0	32902	32772	
4106	0	32798	32386	
4107	0	32860	32610	
4108	0	32900	32338	
4109	0	32847	32336	
4110	0	32808	32036	
4111	0	32892	32332	
4112	0	32964	32018	
4113	0	32936	33271	
4114	0	32768	33384	
4115	0	32732	32748	
4116	0	32674	33024	
4117	0	32592	33390	
4118	0	32572	33671	
4119	0	32648	33190	
4120	0	32682	32974	
4121	0	32634	32912	
4122	0	32560	32868	
4123	0	32574	32741	
4124	0	32820	32626	
4125	0	32870	32728	
4126	0	32948	32662	
4127	0	32772	32502	
4128	0	32854	32428	
4129	0	32844	32540	
4130	0	33008	32385	
4131	0	33068	32204	
4132	0	32872	32548	
4133	0	32824	32964	
4134	0	32824	32551	
4135	0	32756	32844	
4136	0	32886	32256	
4137	0	32850	32940	
4138	0	32716	32740	
4139	0	32628	32676	
4140	0	32604	32678	
4141	0	32696	32856	
4142	0	32932	33053	
4143	0	33052	32881	
4144	0	32932	32811	
4145	0	32872	32748	
4146	0	32732	32820	
4147	0	32580	32735	
4148	0	32676	32836	
4149	0	32934	32852	
4150	0	32872	32814	
4151	0	32816	32660	
4152	0	32884	32764	
4153	0	32780	32896	
4154	0	32745	32567	
4155	0	32776	32379	
4156	0	32770	32388	
4157	0	32878	32436	
4158	0	32837	33030	
4159	0	32800	33164	
4160	0	32868	32554	
4161	0	32988	32562	
4162	0	32910	31978	
4163	0	32904	32670	
4164	0	32860	32548	
4165	0	32892	32519	
4166	0	32830	32825	
4167	0	32808	32934	
4168	0	32756	33407	
4169	0	32690	33322	
4170	0	32664	33278	
4171	0	32624	33240	
4172	0	32636	32951	
4173	0	32608	32860	
4174	0	32628	32680	
4175	0	32928	32599	
4176	0	32904	32660	
4177	0	32894	32689	
4178	0	32908	32519	
4179	0	32952	32528	
4180	0	32956	32550	
4181	0	32800	32570	
4182	0	32828	32676	
4183	0	32898	32788	
4184	0	32812	32564	
4185	0	32832	32544	
4186	0	32792	32504	
4187	0	32784	32890	
4188	0	32844	32698	
4189	0	32809	32508	
4190	0	32734	33068	
4191	0	32776	32705	
4192	0	32964	32679	
4193	0	33036	33368	
4194	0	32944	33346	
4195	0	33088	33127	
4196	0	32986	32999	
4197	0	32848	32930	
4198	0	32736	32910	
4199	0	32540	32796	
4200	0	32672	32705	
4201	0	32634	32690	
4202	0	32656	32686	
4203	0	32566	32874	
4204	0	32544	32608	
4205	0	32592	32024	
4206	0	32688	31830	
4207	0	32692	32126	
4208	0	32792	33044	
4209	0	32728	31850	
4210	0	33024	31100	
4211	0	33124	33420	
4212	0	33238	34296	
4213	0	33146	32924	
4214	0	33046	32822	
4215	0	32808	32960	
4216	0	32828	32638	
4217	0	32712	33208	
4218	0	32632	33004	
4219	0	32548	33096	
4220	0	32460	33312	
4221	0	32500	33508	
4222	0	32476	33455	
4223	0	32612	33300	
4224	0	32696	33020	
4225	0	32820	32661	
4226	0	32828	32444	
4227	0	33020	32379	
4228	0	32952	32310	
4229	0	32736	32335	
4230	0	32748	32149	
4231	0	32776	32572	
4232	0	32688	32488	
4233	0	32608	31953	
4234	0	32644	32744	
4235	0	32760	32409	
4236	0	32668	31584	
4237	0	32928	31716	
4238	0	33360	31928	
4239	0	33332	32738	
4240	0	32950	33159	
4241	0	32728	33086	
4242	0	32592	33601	
4243	0	32364	33528	
4244	0	32274	33068	
4245	0	32202	33893	
4246	0	32492	33266	
4247	0	32456	32372	
4248	0	32628	32683	
4249	0	32800	32908	
4250	0	32868	33420	
4251	0	33114	33420	
4252	0	33302	33218	
4253	0	33412	33126	
4254	0	33322	32862	
4255	0	33208	32764	
4256	0	33088	32596	
4257	0	33140	32708	
4258	0	33068	32666	
4259	0	33036	32782	
4260	0	33016	32516	
4261	0	32980	32831	
4262	0	32950	32356	
4263	0	32988	32926	
4264	0	32960	32526	
4265	0	32958	32356	
4266	0	32888	32474	
4267	0	32808	32463	
4268	0	32736	32802	
4269	0	32618	32964	
4270	0	32546	33045	
4271	0	32500	33191	
4272	0	32520	32840	
4273	0	32572	32868	
4274	0	32662	32620	
4275	0	32672	32424	
4276	0	32750	32407	
4277	0	32808	31398	
4278	0	32904	31304	
4279	0	33120	32816	
4280	0	33096	33680	
4281	0	33098	33924	
4282	0	32960	33091	
4283	0	32572	32532	
4284	0	32466	33460	
4285	0	32564	33498	
4286	0	32592	33132	
4287	0	32700	32910	
4288	0	32616	32394	
4289	0	32778	32876	
4290	0	32800	33031	
4291	0	32852	32862	
4292	0	32822	32230	
4293	0	32888	32436	
4294	0	32922	32647	
4295	0	32884	32644	
4296	0	32772	32836	
4297	0	32810	32686	
4298	0	32756	32626	
4299	0	32868	32536	
4300	0	32790	32104	
4301	0	32796	32418	
4302	0	32826	32775	
4303	0	32844	32864	
4304	0	32772	32732	
4305	0	32768	32798	
4306	0	32800	32938	
4307	0	32812	33010	
4308	0	32760	33304	
4309	0	32820	32775	
4310	0	32746	32928	
4311	0	32952	32961	
4312	0	32876	30884	
4313	0	32724	32362	
4314	0	32772	33372	
4315	0	32904	32096	
4316	0	33012	32836	
4317	0	33150	33382	
4318	0	33088	33072	
4319	0	33032	33338	
4320	0	32876	33730	
4321	0	32748	33598	
4322	0	32580	32791	
4323	0	32596	32700	
4324	0	32576	32738	
4325	0	32588	32662	
4326	0	32433	32656	
4327	0	32412	32590	
4328	0	32360	32862	
4329	0	32664	32327	
4330	0	32868	32510	
4331	0	32888	32739	
4332	0	32932	32992	
4333	0	32830	32810	
4334	0	32868	33108	
4335	0	32824	32996	
4336	0	32834	32280	
4337	0	32854	32756	
4338	0	32940	32510	
4339	0	33044	32208	
4340	0	32968	32216	
4341	0	32944	32470	
4342	0	32920	32672	
4343	0	32976	32748	
4344	0	32824	32458	
4345	0	32652	32696	
4346	0	32692	33502	
4347	0	32724	33794	
4348	0	32704	32745	
4349	0	32970	32698	
4350	0	32872	32646	
4351	0	32898	32695	
4352	0	32810	33552	
4353	0	32724	32792	
4354	0	32724	32214	
4355	0	32808	33350	
4356	0	32970	31878	
4357	0	33136	32184	
4358	0	33240	32490	
4359	0	33072	33444	
4360	0	33040	32578	
4361	0	32958	32852	
4362	0	32788	32878	
4363	0	32620	33060	
4364	0	32486	33210	
4365	0	32292	33227	
4366	0	32308	32880	
4367	0	32394	32638	
4368	0	32580	32596	
4369	0	32548	32724	
4370	0	32690	32816	
4371	0	32800	33342	
4372	0	32808	32656	
4373	0	32800	32052	
4374	0	32962	32420	
4375	0	32964	32121	
4376	0	33040	32138	
4377	0	33024	32346	
4378	0	33052	32919	
4379	0	33248	32348	
4380	0	33374	33244	
4381	0	33092	34672	
4382	0	32850	33454	
4383	0	32816	32842	
4384	0	32632	33265	
4385	0	32654	33040	
4386	0	32542	32426	
4387	0	32508	32574	
4388	0	32472	32694	
4389	0	32518	32646	
4390	0	32640	32572	
4391	0	32568	32526	
4392	0	32784	32349	
4393	0	32812	31982	
4394	0	32840	31910	
4395	0	32788	33510	
4396	0	32940	33750	
4397	0	32936	31866	
4398	0	33310	31540	
4399	0	33220	31733	
4400	0	32854	32116	
4401	0	32846	33930	
4402	0	32732	34396	
4403	0	32606	34398	
4404	0	32576	33978	
4405	0	32559	33268	
4406	0	32808	32592	
4407	0	32900	32201	
4408	0	32856	32388	
4409	0	32772	32628	
4410	0	32656	32884	
4411	0	32988	32487	
4412	0	33012	32408	
4413	0	32948	32390	
4414	0	32850	32608	
4415	0	32780	32604	
4416	0	32740	32336	
4417	0	32734	33031	
4418	0	32688	32390	
4419	0	32592	32343	
4420	0	32744	31806	
4421	0	32942	31680	
4422	0	32894	33434	
4423	0	32900	33222	
4424	0	32876	33816	
4425	0	32932	33374	
4426	0	33000	32564	
4427	0	33008	33528	
4428	0	33056	34055	
4429	0	33316	33650	
4430	0	33148	32734	
4431	0	32880	32444	
4432	0	32752	32711	
4433	0	32520	32558	
4434	0	32500	32624	
4435	0	32516	32701	
4436	0	32388	32284	
4437	0	32604	32542	
4438	0	32768	32664	
4439	0	32630	32606	
4440	0	32544	33207	
4441	0	32676	32334	
4442	0	32740	32639	
4443	0	32780	31928	
4444	0	32778	30052	
4445	0	32804	32000	
4446	0	32920	34767	
4447	0	32900	33343	
4448	0	33000	32386	
4449	0	33302	33150	
4450	0	33452	34727	
4451	0	33252	33319	
4452	0	33066	33162	
4453	0	33092	32540	
4454	0	32818	31940	
4455	0	32704	32646	
4456	0	32504	32372	
4457	0	32368	31976	
4458	0	32536	33386	
4459	0	32652	33828	
4460	0	32694	31940	
4461	0	32702	31550	
4462	0	32640	32920	
4463	0	32896	33284	
4464	0	33070	32020	
4465	0	32864	32644	
4466	0	33018	31983	
4467	0	33076	33566	
4468	0	33082	34526	
4469	0	33084	33588	
4470	0	33204	33031	
4471	0	33128	33287	
4472	0	32688	32388	
4473	0	32372	32358	
4474	0	32324	32556	
4475	0	32196	32757	
4476	0	32256	32421	
4477	0	32384	32513	
4478	0	32462	32618	
4479	0	32638	32372	
4480	0	32624	32444	
4481	0	32640	32775	
4482	0	32732	33054	
4483	0	32824	33052	
4484	0	32824	32952	
4485	0	32932	32618	
4486	0	33012	32910	
4487	0	32994	32726	
4488	0	33150	31884	
4489	0	33064	32086	
4490	0	33052	32258	
4491	0	32832	32926	
4492	0	32848	33762	
4493	0	32840	31948	
4494	0	32788	32244	
4495	0	32920	31607	
4496	0	33016	32956	
4497	0	33205	34122	
4498	0	33096	34287	
4499	0	32868	33988	
4500	0	32844	33560	
4501	0	32824	32928	
4502	0	32716	32425	
4503	0	32578	32775	
4504	0	32704	32542	
4505	0	32612	32199	
4506	0	32844	32220	
4507	0	32748	32263	
4508	0	32628	32596	
4509	0	32688	32324	
4510	0	32706	32068	
4511	0	32852	32234	
4512	0	32792	32840	
4513	0	32758	32976	
4514	0	32802	33255	
4515	0	32782	32636	
4516	0	32796	33364	
4517	0	32812	32738	
4518	0	32850	32468	
4519	0	32868	32907	
4520	0	32934	32903	
4521	0	33058	32626	
4522	0	32872	32426	
4523	0	32906	32324	
4524	0	32996	32193	
4525	0	33044	32198	
4526	0	33012	31542	
4527	0	33028	33636	
4528	0	32808	34502	
4529	0	32652	33631	
4530	0	32708	33230	
4531	0	32712	32648	
4532	0	32864	32222	
4533	0	32854	33268	
4534	0	32916	32768	
4535	0	32808	33177	
4536	0	32852	32360	
4537	0	32846	32212	
4538	0	32824	33590	
4539	0	32640	32678	
4540	0	32544	32352	
4541	0	32564	32250	
4542	0	32788	33589	
4543	0	33016	33082	
4544	0	33076	32510	
4545	0	32908	31906	
4546	0	32900	32552	
4547	0	32744	33182	
4548	0	32320	33052	
4549	0	32280	32770	
4550	0	32388	32755	
4551	0	32360	32942	
4552	0	32336	33272	
4553	0	32524	32706	
4554	0	32628	32770	
4555	0	32844	32070	
4556	0	33103	32792	
4557	0	32904	32032	
4558	0	32868	32464	
4559	0	33084	32583	
4560	0	33024	32996	
4561	0	32945	33084	
4562	0	33056	32460	
4563	0	32946	33153	
4564	0	32998	33484	
4565	0	32936	32583	
4566	0	33156	32648	
4567	0	33313	32154	
4568	0	33284	32066	
4569	0	33196	32412	
4570	0	32798	32890	
4571	0	32622	33312	
4572	0	32644	33582	
4573	0	32728	33252	
4574	0	32764	33166	
4575	0	32656	33022	
4576	0	32502	32810	
4577	0	32564	32442	
4578	0	32612	32422	
4579	0	32540	32742	
4580	0	32604	32380	
4581	0	32692	32601	
4582	0	33012	32896	
4583	0	33032	32748	
4584	0	32816	32628	
4585	0	32718	32632	
4586	0	32741	31823	
4587	0	32816	31828	
4588	0	32804	31944	
4589	0	32922	32486	
4590	0	33062	33492	
4591	0	32936	34183	
4592	0	32880	33576	
4593	0	32856	33653	
4594	0	32868	33820	
4595	0	33200	33361	
4596	0	33270	33017	
4597	0	33112	32386	
4598	0	32952	32036	
4599	0	32696	32038	
4600	0	32590	32528	
4601	0	32490	32711	
4602	0	32464	32948	
4603	0	32380	32868	
4604	0	32304	32466	
4605	0	32494	32460	
4606	0	32480	32640	
4607	0	32430	32358	
4608	0	32380	32636	
4609	0	32714	33002	
4610	0	32952	32180	
4611	0	33188	31546	
4612	0	33280	31863	
4613	0	33552	32648	
4614	0	33548	33500	
4615	0	33604	32422	
4616	0	33288	33362	
4617	0	33086	32774	
4618	0	33194	34100	
4619	0	33192	34190	
4620	0	32842	33480	
4621	0	32416	33276	
4622	0	32084	33100	
4623	0	32204	32446	
4624	0	32372	32262	
4625	0	32440	32375	
4626	0	32402	32709	
4627	0	32428	32986	
4628	0	32500	32910	
4629	0	32518	32580	
4630	0	32560	32551	
4631	0	32596	32510	
4632	0	32656	32438	
4633	0	32846	32695	
4634	0	32900	32682	
4635	0	32904	32766	
4636	0	33026	32756	
4637	0	33166	31942	
4638	0	33077	32484	
4639	0	32996	32734	
4640	0	32994	32246	
4641	0	32798	32318	
4642	0	32760	33310	
4643	0	32896	33634	
4644	0	32784	33326	
4645	0	33014	32720	
4646	0	33236	32874	
4647	0	33124	32108	
4648	0	33060	32450	
4649	0	32900	32732	
4650	0	32774	32718	
4651	0	32676	32876	
4652	0	32630	32888	
4653	0	32540	32998	
4654	0	32644	33364	
4655	0	32680	33372	
4656	0	32696	32999	
4657	0	32652	32510	
4658	0	32712	32692	
4659	0	32888	32608	
4660	0	32864	32750	
4661	0	32904	32804	
4662	0	32836	32862	
4663	0	32986	32598	
4664	0	33044	32775	
4665	0	32996	31870	
4666	0	32944	32106	
4667	0	32908	32623	
4668	0	32860	33398	
4669	0	32922	32834	
4670	0	32868	32712	
4671	0	32842	32854	
4672	0	32840	32705	
4673	0	32626	32335	
4674	0	32672	32350	
4675	0	32618	32884	
4676	0	32506	32954	
4677	0	32588	33446	
4678	0	32645	33078	
4679	0	32944	32604	
4680	0	33200	32694	
4681	0	32885	32742	
4682	0	32804	32814	
4683	0	32624	32751	
4684	0	32648	32206	
4685	0	32638	32863	
4686	0	32704	32658	
4687	0	32806	32746	
4688	0	32938	33164	
4689	0	32836	32322	
4690	0	32980	32404	
4691	0	32676	33020	
4692	0	32588	32446	
4693	0	32760	33030	
4694	0	32884	32750	
4695	0	33040	32636	
4696	0	32760	32936	
4697	0	32820	33212	
4698	0	32814	33047	
4699	0	32764	33140	
4700	0	32864	33080	
4701	0	33121	32906	
4702	0	33000	32593	
4703	0	33048	32626	
4704	0	33080	32676	
4705	0	32852	32740	
4706	0	32856	32839	
4707	0	32666	32792	
4708	0	32780	32874	
4709	0	32716	32604	
4710	0	32708	32583	
4711	0	32570	32662	
4712	0	32532	32618	
4713	0	32544	32726	
4714	0	32516	32900	
4715	0	32692	32356	
4716	0	32524	32686	
4717	0	32558	33026	
4718	0	32678	32950	
4719	0	32844	32736	
4720	0	32940	32578	
4721	0	33224	32586	
4722	0	33406	33120	
4723	0	33112	33671	
4724	0	32992	32156	
4725	0	32876	31774	
4726	0	32680	32149	
4727	0	32836	32475	
4728	0	32918	33062	
4729	0	32630	33060	
4730	0	32732	33602	
4731	0	32836	33268	
4732	0	32770	32537	
4733	0	32704	32790	
4734	0	32732	32713	
4735	0	32756	32945	
4736	0	32794	32874	
4737	0	32744	32964	
4738	0	32792	32654	
4739	0	32798	32098	
4740	0	32800	32702	
4741	0	32900	32628	
4742	0	32764	32472	
4743	0	32752	32928	
4744	0	32912	32462	
4745	0	32992	32841	
4746	0	32944	33142	
4747	0	32802	33036	
4748	0	32688	32926	
4749	0	32944	32799	
4750	0	32996	32752	
4751	0	32858	32702	
4752	0	32888	32711	
4753	0	32768	32756	
4754	0	32724	32772	
4755	0	32860	32510	
4756	0	32836	32664	
4757	0	32748	32772	
4758	0	32724	32632	
4759	0	32652	32694	
4760	0	32800	32498	
4761	0	32720	32028	
4762	0	32768	32838	
4763	0	32664	33536	
4764	0	32600	32971	
4765	0	32588	33409	
4766	0	32740	32796	
4767	0	33032	32580	
4768	0	32934	33082	
4769	0	32800	32703	
4770	0	32806	32913	
4771	0	32836	32890	
4772	0	32848	32918	
4773	0	33184	33040	
4774	0	33256	32555	
4775	0	33160	32576	
4776	0	32918	32510	
4777	0	32536	32614	
4778	0	32356	32736	
4779	0	32481	32882	
4780	0	32380	33088	
4781	0	32382	32775	
4782	0	32500	32918	
4783	0	32640	32530	
4784	0	32656	32620	
4785	0	32996	32458	
4786	0	32964	32438	
4787	0	32856	32622	
4788	0	32816	33048	
4789	0	32968	32801	
4790	0	33057	32930	
4791	0	32784	32816	
4792	0	32692	32730	
4793	0	32772	32630	
4794	0	32756	32230	
4795	0	32854	31988	
4796	0	32984	31926	
4797	0	33268	31855	
4798	0	33356	31518	
4799	0	32992	31551	
4800	0	32834	31742	
4801	0	32820	32078	
4802	0	32716	31952	
4803	0	32394	32284	
4804	0	32380	33582	
4805	0	32492	33888	
4806	0	32546	33396	
4807	0	32380	33590	
4808	0	32394	34082	
4809	0	32472	34474	
4810	0	32452	34694	
4811	0	32640	34888	
4812	0	32732	34228	
4813	0	32732	33774	
4814	0	32688	33042	
4815	0	32636	33089	
4816	0	32644	32859	
4817	0	32692	32668	
4818	0	32718	32702	
4819	0	32956	32688	
4820	0	33096	32734	
4821	0	33008	32678	
4822	0	33044	32664	
4823	0	33244	32560	
4824	0	33332	32518	
4825	0	33252	32319	
4826	0	33344	32262	
4827	0	33572	32332	
4828	0	33380	32334	
4829	0	33132	32350	
4830	0	33018	32416	
4831	0	32928	32446	
4832	0	33034	32436	
4833	0	32984	32528	
4834	0	32948	32600	
4835	0	32740	32660	
4836	0	32900	32670	
4837	0	32864	32228	
4838	0	32796	32564	
4839	0	32778	32326	
4840	0	32702	32773	
4841	0	32528	32708	
4842	0	32544	32484	
4843	0	32590	33066	
4844	0	32612	33208	
4845	0	32748	32994	
4846	0	32620	32964	
4847	0	32648	32820	
4848	0	32740	32704	
4849	0	32856	32590	
4850	0	32804	32752	
4851	0	32678	32860	
4852	0	32608	32578	
4853	0	32592	32386	
4854	0	32766	32316	
4855	0	32736	32334	
4856	0	32840	32519	
4857	0	32892	32721	
4858	0	33012	33002	
4859	0	32932	33010	
4860	0	32826	32676	
4861	0	32792	32634	
4862	0	32998	33002	
4863	0	33144	33002	
4864	0	32916	33260	
4865	0	32626	32432	
4866	0	32632	32460	
4867	0	32714	33082	
4868	0	32818	33204	
4869	0	32664	33234	
4870	0	32506	33226	
4871	0	32466	33215	
4872	0	32700	32880	
4873	0	32788	32751	
4874	0	32604	32775	
4875	0	32656	32735	
4876	0	32700	32622	
4877	0	32680	32647	
4878	0	32821	32629	
4879	0	32792	32796	
4880	0	32868	32817	
4881	0	32928	32894	
4882	0	33182	32773	
4883	0	33292	32556	
4884	0	33372	32551	
4885	0	33070	32664	
4886	0	32980	32612	
4887	0	32936	32694	
4888	0	32876	32586	
4889	0	32708	32694	
4890	0	32657	32728	
4891	0	32726	32818	
4892	0	32632	32663	
4893	0	32672	32678	
4894	0	32664	32299	
4895	0	32808	31720	
4896	0	32802	31843	
4897	0	32622	31644	
4898	0	32564	31434	
4899	0	32672	31340	
4900	0	32646	31521	
4901	0	32688	32094	
4902	0	33016	32674	
4903	0	33041	34104	
4904	0	33086	33678	
4905	0	33164	33732	
4906	0	32924	34794	
4907	0	32576	35096	
4908	0	32492	35528	
4909	0	32528	35100	
4910	0	32714	34779	
4911	0	32796	34495	
4912	0	32624	33831	
4913	0	32319	33412	
4914	0	32320	32583	
4915	0	32506	32352	
4916	0	32976	31996	
4917	0	33038	32040	
4918	0	32937	32252	
4919	0	33092	32316	
4920	0	33264	32335	
4921	0	33328	32218	
4922	0	33368	32017	
4923	0	33256	31894	
4924	0	33076	31808	
4925	0	32869	31804	
4926	0	32926	31927	
4927	0	32790	31902	
4928	0	32484	31960	
4929	0	32748	31930	
4930	0	32952	32244	
4931	0	32940	32540	
4932	0	32672	32688	
4933	0	32556	32985	
4934	0	32560	32678	
4935	0	32516	33026	
4936	0	32676	33076	
4937	0	32776	32892	
4938	0	32776	33148	
4939	0	32560	33302	
4940	0	32552	33269	
4941	0	32448	32810	
4942	0	32512	32903	
4943	0	32708	32902	
4944	0	33008	33156	
4945	0	33052	32856	
4946	0	33032	32730	
4947	0	33406	32504	
4948	0	33340	32501	
4949	0	33126	32648	
4950	0	32916	32590	
4951	0	32792	32800	
4952	0	32862	32903	
4953	0	32744	32916	
4954	0	32488	32871	
4955	0	32484	32883	
4956	0	32458	33002	
4957	0	32436	32822	
4958	0	32882	32630	
4959	0	33154	32452	
4960	0	32826	32386	
4961	0	32842	32161	
4962	0	32846	32948	
4963	0	32808	32692	
4964	0	32912	32272	
4965	0	32892	32358	
4966	0	32864	32438	
4967	0	32812	32838	
4968	0	32784	32924	
4969	0	32688	32863	
4970	0	32584	33159	
4971	0	32656	33082	
4972	0	32712	32948	
4973	0	32806	33088	
4974	0	32894	32986	
4975	0	32812	32862	
4976	0	32816	32895	
4977	0	32791	32606	
4978	0	32752	32628	
4979	0	32876	32716	
4980	0	32740	32936	
4981	0	32834	33080	
4982	0	32700	32684	
4983	0	32780	32692	
4984	0	32956	32484	
4985	0	32896	32508	
4986	0	32762	32382	
4987	0	32824	32660	
4988	0	32948	32280	
4989	0	33054	32834	
4990	0	32860	33012	
4991	0	32706	32410	
4992	0	33012	32599	
4993	0	33016	32444	
4994	0	32974	32958	
4995	0	32824	33168	
4996	0	32848	33366	
4997	0	32902	33426	
4998	0	32760	33194	
4999	0	32618	33239	
5000	0	32748	32884	
5001	0	32738	32787	
5002	0	32640	32572	
5003	0	32608	32759	
5004	0	32548	32640	
5005	0	32756	32632	
5006	0	33132	32468	
5007	0	33038	32526	
5008	0	32882	32490	
5009	0	32808	32518	
5010	0	32558	32399	
5011	0	32470	32449	
5012	0	32686	32582	
5013	0	32888	32463	
5014	0	32964	32411	
5015	0	32928	32292	
5016	0	32740	31808	
5017	0	32704	32040	
5018	0	32845	32166	
5019	0	32804	32318	
5020	0	32868	32570	
5021	0	32864	33102	
5022	0	32748	33366	
5023	0	32782	33620	
5024	0	32834	33946	
5025	0	33060	34190	
5026	0	33106	34074	
5027	0	32712	34200	
5028	0	32708	34311	
5029	0	32468	34150	
5030	0	32560	33671	
5031	0	32660	33382	
5032	0	32740	33148	
5033	0	32698	33118	
5034	0	33008	32565	
5035	0	32968	32630	
5036	0	32776	32471	
5037	0	32946	31962	
5038	0	32904	32023	
5039	0	32900	32004	
5040	0	33028	32086	
5041	0	33002	32052	
5042	0	33118	32163	
5043	0	32968	32122	
5044	0	33100	32273	
5045	0	32876	31834	
5046	0	32726	31984	
5047	0	32876	31921	
5048	0	32856	32106	
5049	0	32764	32214	
5050	0	32900	32262	
5051	0	32852	32206	
5052	0	32680	32370	
5053	0	32508	32476	
5054	0	32610	32700	
5055	0	32588	32926	
5056	0	32624	33199	
5057	0	32782	33578	
5058	0	32714	33893	
5059	0	32582	33956	
5060	0	32592	33880	
5061	0	32806	33628	
5062	0	32816	33606	
5063	0	32948	33287	
5064	0	32820	33188	
5065	0	32834	32840	
5066	0	33016	32574	
5067	0	33152	32728	
5068	0	32792	32499	
5069	0	32350	32460	
5070	0	32728	32022	
5071	0	32896	31790	
5072	0	32988	31908	
5073	0	33196	31969	
5074	0	33060	32148	
5075	0	32994	32348	
5076	0	32904	32577	
5077	0	32966	32656	
5078	0	32880	32870	
5079	0	32676	32952	
5080	0	32764	33063	
5081	0	32656	33331	
5082	0	32824	33504	
5083	0	32896	33461	
5084	0	32664	33564	
5085	0	32496	33522	
5086	0	32688	33360	
5087	0	32664	33286	
5088	0	32590	33176	
5089	0	32696	32858	
5090	0	32708	32775	
5091	0	32908	32884	
5092	0	32928	32592	
5093	0	32858	32551	
5094	0	32932	32646	
5095	0	32896	32576	
5096	0	32864	32433	
5097	0	32916	32412	
5098	0	32756	32446	
5099	0	32700	32477	
5100	0	32876	32445	
5101	0	33056	32335	
5102	0	33036	32154	
5103	0	32836	32124	
5104	0	32784	32144	
5105	0	32756	32282	
5106	0	32740	32604	
5107	0	32650	32572	
5108	0	32604	32580	
5109	0	32752	32854	
5110	0	32652	32996	
5111	0	32596	33343	
5112	0	32734	33299	
5113	0	32962	32808	
5114	0	32928	32881	
5115	0	32754	32950	
5116	0	32932	32895	
5117	0	32964	32998	
5118	0	32946	32967	
5119	0	32906	32896	
5120	0	32884	32990	
5121	0	32900	32772	
5122	0	32936	32610	
5123	0	32938	32554	
5124	0	32847	32410	
5125	0	32832	32756	
5126	0	32528	32646	
5127	0	32584	32580	
5128	0	32840	32378	
5129	0	33080	32492	
5130	0	32844	32526	
5131	0	32840	32625	
5132	0	32774	32674	
5133	0	32720	32620	
5134	0	32696	32753	
5135	0	32708	32678	
5136	0	32684	32570	
5137	0	32764	32420	
5138	0	32652	32552	
5139	0	32724	32762	
5140	0	32892	32692	
5141	0	32916	32832	
5142	0	32902	32938	
5143	0	32940	32967	
5144	0	32982	33090	
5145	0	32756	33150	
5146	0	32768	33127	
5147	0	32841	33152	
5148	0	32736	33223	
5149	0	32932	33388	
5150	0	32884	33233	
5151	0	32640	33190	
5152	0	32608	33140	
5153	0	32756	33210	
5154	0	32948	32948	
5155	0	33090	32647	
5156	0	33024	32550	
5157	0	32888	32418	
5158	0	32744	32319	
5159	0	32540	32108	
5160	0	32776	31942	
5161	0	32692	31892	
5162	0	32968	31880	
5163	0	32880	31891	
5164	0	32800	31940	
5165	0	32636	32156	
5166	0	32708	32286	
5167	0	32922	32330	
5168	0	33016	32836	
5169	0	32690	33466	
5170	0	32668	33557	
5171	0	32716	33863	
5172	0	32702	33807	
5173	0	32738	33786	
5174	0	32702	33679	
5175	0	32758	33330	
5176	0	32772	33244	
5177	0	33036	32938	
5178	0	33100	32850	
5179	0	32788	32750	
5180	0	32792	32662	
5181	0	32784	32566	
5182	0	32846	32556	
5183	0	32800	32444	
5184	0	32608	32118	
5185	0	32490	32064	
5186	0	32464	31896	
5187	0	32720	31860	
5188	0	32838	32007	
5189	0	32953	32302	
5190	0	33090	32382	
5191	0	32948	32384	
5192	0	32688	32662	
5193	0	32722	32762	
5194	0	32868	32916	
5195	0	32840	33134	
5196	0	32828	33160	
5197	0	32972	32956	
5198	0	32930	33191	
5199	0	32856	32824	
5200	0	32868	32842	
5201	0	32832	33058	
5202	0	32817	32950	
5203	0	32808	32799	
5204	0	32812	32868	
5205	0	32878	32711	
5206	0	32774	32732	
5207	0	32764	32734	
5208	0	32760	32678	
5209	0	32852	32470	
5210	0	32904	32660	
5211	0	32748	32550	
5212	0	32696	32510	
5213	0	32828	32564	
5214	0	32928	32500	
5215	0	32866	32497	
5216	0	32836	32792	
5217	0	32764	32960	
5218	0	32892	32562	
5219	0	32816	32807	
5220	0	32796	32804	
5221	0	32848	32718	
5222	0	32660	33031	
5223	0	32746	33124	
5224	0	32802	32840	
5225	0	32800	33004	
5226	0	32794	33006	
5227	0	32808	33088	
5228	0	32832	32956	
5229	0	32855	32855	
5230	0	32752	32842	
5231	0	32750	32654	
5232	0	32858	32367	
5233	0	32942	32166	
5234	0	32826	32007	
5235	0	32492	32012	
5236	0	32668	31690	
5237	0	33002	31454	
5238	0	32890	31568	
5239	0	32960	31847	
5240	0	32852	32263	
5241	0	32792	32900	
5242	0	32860	33495	
5243	0	32808	33895	
5244	0	32704	34373	
5245	0	32800	34774	
5246	0	32724	34950	
5247	0	32696	34718	
5248	0	32752	34390	
5249	0	32868	34244	
5250	0	32812	33844	
5251	0	32812	33439	
5252	0	32844	32838	
5253	0	32848	32334	
5254	0	32820	32183	
5255	0	32772	32135	
5256	0	32784	32114	
5257	0	32872	32199	
5258	0	32776	32148	
5259	0	32712	32212	
5260	0	32720	32140	
5261	0	32816	32120	
5262	0	32886	32078	
5263	0	32900	32156	
5264	0	32578	32085	
5265	0	32708	32031	
5266	0	32896	32231	
5267	0	32848	32236	
5268	0	32828	32352	
5269	0	32640	32532	
5270	0	32770	32463	
5271	0	32884	32642	
5272	0	32868	32986	
5273	0	33002	33007	
5274	0	33002	33010	
5275	0	32844	33031	
5276	0	32764	32972	
5277	0	32740	33412	
5278	0	32764	33028	
5279	0	32756	32611	
5280	0	32742	32756	
5281	0	32728	33044	
5282	0	32796	33006	
5283	0	32804	32594	
5284	0	32878	32562	
5285	0	32874	32579	
5286	0	32822	32625	
5287	0	32774	32583	
5288	0	32720	32480	
5289	0	32758	32514	
5290	0	32808	32554	
5291	0	32762	32567	
5292	0	32792	32686	
5293	0	32888	32764	
5294	0	32800	32791	
5295	0	32860	32847	
5296	0	32820	32789	
5297	0	32752	32656	
5298	0	32734	32470	
5299	0	33016	32519	
5300	0	33060	32634	
5301	0	32930	32770	
5302	0	32760	32775	
5303	0	32808	32788	
5304	0	32748	32922	
5305	0	32772	32922	
5306	0	32820	32790	
5307	0	32700	32684	
5308	0	32716	32686	
5309	0	32816	32630	
5310	0	32936	32866	
5311	0	32864	32864	
5312	0	32756	32916	
5313	0	32844	32844	
5314	0	32838	32926	
5315	0	32760	33155	
5316	0	32750	33002	
5317	0	32880	33048	
5318	0	32862	32824	
5319	0	32836	32914	
5320	0	32764	32911	
5321	0	32724	33048	
5322	0	32806	32806	
5323	0	32864	32586	
5324	0	32844	32582	
5325	0	32788	32322	
5326	0	32772	32160	
5327	0	32906	32174	
5328	0	32768	32114	
5329	0	32764	32310	
5330	0	32828	32182	
5331	0	32865	32367	
5332	0	32784	32600	
5333	0	32784	32918	
5334	0	32824	33159	
5335	0	32768	33287	
5336	0	32856	33404	
5337	0	32792	33478	
5338	0	32916	33508	
5339	0	32972	33383	
5340	0	32940	33492	
5341	0	32948	33286	
5342	0	32924	33084	
5343	0	32852	33078	
5344	0	32708	32934	
5345	0	32746	32662	
5346	0	32760	32558	
5347	0	32660	32705	
5348	0	32744	32562	
5349	0	32696	32425	
5350	0	32700	32375	
5351	0	32772	32440	
5352	0	32689	32510	
5353	0	32632	32614	
5354	0	32764	32324	
5355	0	32716	32338	
5356	0	32644	32408	
5357	0	32658	32506	
5358	0	32624	32612	
5359	0	32688	32498	
5360	0	32470	32684	
5361	0	32752	32454	
5362	0	32842	32586	
5363	0	32728	32614	
5364	0	32878	32484	
5365	0	32894	32544	
5366	0	32826	32726	
5367	0	32889	32714	
5368	0	32792	32702	
5369	0	32592	32775	
5370	0	32624	32726	
5371	0	32704	32750	
5372	0	32846	32682	
5373	0	32708	32458	
5374	0	32832	32450	
5375	0	32952	32609	
5376	0	32876	32633	
5377	0	33028	32788	
5378	0	33090	33281	
5379	0	33256	33124	
5380	0	33380	33326	
5381	0	33324	33624	
5382	0	33066	33526	
5383	0	32890	33788	
5384	0	33092	33772	
5385	0	33142	33362	
5386	0	33118	33268	
5387	0	32988	33318	
5388	0	33040	33230	
5389	0	32932	33092	
5390	0	32916	32910	
5391	0	32800	32760	
5392	0	32822	32775	
5393	0	32800	32519	
5394	0	32760	32398	
5395	0	32556	32262	
5396	0	32514	32304	
5397	0	32528	32334	
5398	0	32668	32278	
5399	0	32620	32186	
5400	0	32676	32170	
5401	0	32680	32156	
5402	0	32648	32363	
5403	0	32618	32474	
5404	0	32692	32318	
5405	0	32892	32310	
5406	0	32864	32428	
5407	0	32736	32532	
5408	0	32836	32724	
5409	0	32772	32954	
5410	0	32770	33079	
5411	0	32788	33143	
5412	0	32940	33311	
5413	0	32892	33404	
5414	0	32780	33543	
5415	0	32746	33316	
5416	0	32906	33092	
5417	0	32796	33228	
5418	0	32702	33146	
5419	0	32776	32712	
5420	0	32768	32582	
5421	0	32840	32647	
5422	0	32800	32608	
5423	0	32778	32558	
5424	0	32808	32628	
5425	0	32820	32674	
5426	0	32736	32580	
5427	0	32860	32519	
5428	0	32802	32358	
5429	0	32790	32230	
5430	0	32728	32140	
5431	0	32824	32087	
5432	0	32828	32103	
5433	0	32784	32382	
5434	0	32572	32570	
5435	0	32808	32836	
5436	0	33012	32934	
5437	0	33060	33138	
5438	0	32848	33287	
5439	0	32656	33409	
5440	0	32832	33634	
5441	0	32964	33465	
5442	0	32952	33416	
5443	0	32852	33428	
5444	0	32800	33209	
5445	0	32836	32929	
5446	0	32800	32720	
5447	0	32704	32732	
5448	0	32680	32358	
5449	0	32774	32686	
5450	0	32772	32732	
5451	0	32810	32508	
5452	0	32784	32654	
5453	0	32893	32752	
5454	0	32792	32788	
5455	0	32678	32798	
5456	0	32788	32836	
5457	0	32748	32750	
5458	0	32804	32748	
5459	0	32772	32708	
5460	0	32812	32596	
5461	0	32822	32550	
5462	0	32860	32488	
5463	0	32840	32486	
5464	0	32748	32334	
5465	0	32748	32220	
5466	0	32766	32238	
5467	0	32788	32406	
5468	0	32844	32452	
5469	0	32736	32542	
5470	0	32604	32670	
5471	0	32570	32768	
5472	0	32768	32862	
5473	0	32769	32976	
5474	0	32908	32952	
5475	0	32868	33076	
5476	0	32848	33247	
5477	0	32904	33473	
5478	0	32944	33662	
5479	0	32830	33594	
5480	0	32818	33606	
5481	0	32868	33188	
5482	0	32968	33030	
5483	0	32888	32915	
5484	0	32828	32820	
5485	0	32824	32621	
5486	0	32804	32465	
5487	0	32868	32199	
5488	0	32664	31660	
5489	0	32752	31622	
5490	0	32896	31844	
5491	0	32706	31982	
5492	0	32740	32308	
5493	0	32804	32464	
5494	0	32788	32840	
5495	0	32720	33031	
5496	0	32833	33214	
5497	0	32922	33228	
5498	0	32852	33322	
5499	0	32888	33287	
5500	0	32936	33502	
5501	0	32962	33474	
5502	0	32956	33236	
5503	0	32820	33031	
5504	0	32764	32831	
5505	0	32804	32824	
5506	0	32783	32784	
5507	0	32844	32678	
5508	0	32728	32590	
5509	0	32768	32348	
5510	0	32742	32430	
5511	0	32802	32332	
5512	0	32828	32316	
5513	0	32776	32216	
5514	0	32832	32180	
5515	0	32732	32346	
5516	0	32672	32519	
5517	0	32860	32679	
5518	0	32774	32726	
5519	0	32768	33100	
5520	0	32794	33204	
5521	0	32788	33206	
5522	0	32856	33026	
5523	0	32940	32880	
5524	0	32922	32830	
5525	0	32838	32788	
5526	0	32890	32671	
5527	0	32822	32730	
5528	0	32740	32727	
5529	0	32700	32814	
5530	0	32680	32903	
5531	0	32768	32898	
5532	0	32822	32865	
5533	0	32788	32839	
5534	0	32800	32854	
5535	0	32752	32794	
5536	0	32646	32694	
5537	0	32736	32670	
5538	0	32720	32450	
5539	0	32590	32220	
5540	0	32714	32018	
5541	0	32834	32119	
5542	0	32952	32191	
5543	0	32900	32398	
5544	0	33108	32646	
5545	0	33058	32932	
5546	0	33016	33126	
5547	0	32926	33228	
5548	0	32922	33488	
5549	0	32906	33634	
5550	0	32676	33710	
5551	0	32852	33658	
5552	0	32932	33398	
5553	0	32848	33198	
5554	0	32804	33068	
5555	0	32752	32828	
5556	0	32712	32622	
5557	0	32640	32420	
5558	0	32725	32440	
5559	0	32738	32484	
5560	0	32736	32626	
5561	0	32772	32623	
5562	0	32708	32504	
5563	0	32680	32552	
5564	0	32848	32536	
5565	0	32798	32532	
5566	0	32856	32519	
5567	0	32854	32544	
5568	0	32802	32496	
5569	0	32804	32566	
5570	0	32884	32631	
5571	0	32880	32694	
5572	0	32832	32719	
5573	0	32794	32646	
5574	0	32852	32600	
5575	0	32894	32700	
5576	0	32760	32748	
5577	0	32768	32861	
5578	0	32849	32848	
5579	0	32828	32817	
5580	0	32804	32762	
5581	0	32848	32744	
5582	0	32828	32648	
5583	0	32964	32742	
5584	0	32900	32744	
5585	0	32954	32812	
5586	0	32878	32806	
5587	0	32821	32852	
5588	0	32692	32912	
5589	0	32664	32914	
5590	0	32686	32966	
5591	0	32624	33004	
5592	0	32798	32896	
5593	0	32879	32840	
5594	0	32884	32796	
5595	0	32848	32782	
5596	0	32896	32842	
5597	0	32896	32870	
5598	0	32846	32712	
5599	0	32916	32718	
5600	0	32864	32686	
5601	0	32884	32740	
5602	0	32832	32624	
5603	0	32818	32684	
5604	0	32786	33148	
5605	0	32836	32710	
5606	0	32836	32622	
5607	0	32766	32660	
5608	0	32764	32796	
5609	0	32872	32746	
5610	0	32856	32854	
5611	0	32768	32679	
5612	0	32740	32546	
5613	0	32775	32494	
5614	0	32748	32530	
5615	0	32766	32471	
5616	0	32726	32384	
5617	0	32596	32204	
5618	0	32696	32118	
5619	0	32884	32369	
5620	0	32816	32615	
5621	0	32878	32864	
5622	0	32870	33056	
5623	0	32982	33318	
5624	0	33112	33498	
5625	0	33060	33479	
5626	0	32822	33564	
5627	0	32820	33402	
5628	0	32880	33143	
5629	0	32820	33038	
5630	0	32716	32986	
5631	0	32753	32768	
5632	0	32748	32766	
5633	0	32766	32710	
5634	0	32688	32706	
5635	0	32746	32599	
5636	0	32728	32544	
5637	0	32740	32450	
5638	0	32770	32432	
5639	0	32734	32530	
5640	0	32712	32540	
5641	0	32772	32430	
5642	0	32906	32588	
5643	0	32900	32487	
5644	0	32884	32536	
5645	0	32898	32564	
5646	0	32880	32683	
5647	0	32862	32760	
5648	0	32864	32772	
5649	0	32806	32876	
5650	0	32768	32846	
5651	0	32790	32902	
5652	0	32720	32924	
5653	0	32692	33046	
5654	0	32740	32996	
5655	0	32744	32948	
5656	0	32764	32880	
5657	0	32830	32757	
5658	0	32752	32791	
5659	0	32816	32796	
5660	0	32846	32807	
5661	0	32804	32756	
5662	0	32840	32708	
5663	0	32778	32740	
5664	0	32804	32662	
5665	0	32760	32804	
5666	0	32760	32846	
5667	0	32805	32702	
5668	0	32764	32532	
5669	0	32844	32644	
5670	0	32804	32708	
5671	0	32906	32743	
5672	0	32862	32866	
5673	0	32852	32710	
5674	0	32776	32762	
5675	0	32768	32711	
5676	0	32856	32722	
5677	0	32790	32718	
5678	0	32748	32698	
5679	0	32832	32620	
5680	0	32840	32694	
5681	0	32800	32670	
5682	0	32824	32690	
5683	0	32722	32700	
5684	0	32716	32758	
5685	0	32744	32796	
5686	0	32748	32795	
5687	0	32724	32790	
5688	0	32788	32839	
5689	0	32900	32851	
5690	0	32834	32831	
5691	0	32798	32843	
5692	0	32900	32798	
5693	0	32988	32807	
5694	0	32912	32775	
5695	0	32920	32730	
5696	0	32930	32774	
5697	0	32944	32800	
5698	0	32910	32926	
5699	0	32752	32940	
5700	0	32644	32958	
5701	0	32688	32782	
5702	0	32732	32818	
5703	0	32852	32684	
5704	0	32792	32686	
5705	0	32700	32720	
5706	0	32728	32614	
5707	0	32762	32748	
5708	0	32770	32823	
5709	0	32816	32696	
5710	0	32784	32670	
5711	0	32756	32743	
5712	0	32824	32666	
5713	0	32820	32671	
5714	0	32770	32710	
5715	0	32756	32608	
5716	0	32812	32498	
5717	0	32752	32514	
5718	0	32884	32668	
5719	0	32832	32713	
5720	0	32832	32708	
5721	0	32842	32847	
5722	0	32856	32912	
5723	0	32836	32916	
5724	0	32728	32846	
5725	0	32836	32832	
5726	0	32832	32770	
5727	0	32784	32903	
5728	0	32774	32839	
5729	0	32804	32896	
5730	0	32804	32999	
5731	0	32720	33159	
5732	0	32788	32980	
5733	0	32892	32935	
5734	0	32900	32958	
5735	0	32864	32758	
5736	0	32848	32817	
5737	0	32796	32821	
5738	0	32844	32758	
5739	0	32810	32680	
5740	0	32844	32775	
5741	0	32952	32680	
5742	0	32932	32612	
5743	0	32884	32708	
5744	0	32880	32602	
5745	0	32872	32628	
5746	0	32796	32612	
5747	0	32838	32622	
5748	0	32736	32792	
5749	0	32834	32796	
5750	0	32836	32751	
5751	0	32732	32631	
5752	0	32749	32582	
5753	0	32716	32478	
5754	0	32742	32556	
5755	0	32692	32604	
5756	0	32708	32680	
5757	0	32760	32782	
5758	0	32772	32775	
5759	0	32886	32761	
5760	0	32964	32748	
5761	0	32926	32728	
5762	0	32914	32912	
5763	0	32928	33150	
5764	0	32852	33180	
5765	0	32748	33270	
5766	0	32840	33183	
5767	0	32772	33124	
5768	0	32764	32968	
5769	0	32778	32942	
5770	0	32776	32971	
5771	0	32824	32868	
5772	0	32822	32736	
5773	0	32808	32746	
5774	0	32848	32652	
5775	0	32648	32566	
5776	0	32736	32550	
5777	0	32878	32460	
5778	0	32768	32460	
5779	0	32812	32510	
5780	0	32754	32518	
5781	0	32800	32628	
5782	0	32756	32678	
5783	0	32848	32666	
5784	0	32888	32660	
5785	0	32864	32656	
5786	0	32804	32584	
5787	0	32816	32529	
5788	0	32856	32664	
5789	0	32788	32663	
5790	0	32786	32682	
5791	0	32802	32686	
5792	0	32832	32602	
5793	0	32840	32590	
5794	0	32706	32638	
5795	0	32794	32654	
5796	0	32838	32583	
5797	0	32800	32764	
5798	0	32772	32806	
5799	0	32746	32870	
5800	0	32784	32980	
5801	0	32856	32944	
5802	0	32864	32962	
5803	0	32768	32970	
5804	0	32836	32844	
5805	0	32836	32828	
5806	0	32856	32838	
5807	0	32736	32802	
5808	0	32820	32775	
5809	0	32784	32820	
5810	0	32788	32935	
5811	0	32804	32900	
5812	0	32820	32846	
5813	0	32816	32950	
5814	0	32906	32902	
5815	0	32832	32802	
5816	0	32928	32709	
5817	0	32860	32788	
5818	0	32908	32674	
5819	0	32784	32630	
5820	0	32796	32676	
5821	0	32780	32686	
5822	0	32848	32728	
5823	0	32736	32756	
5824	0	32716	32742	
5825	0	32746	32790	
5826	0	32814	32775	
5827	0	32854	32752	
5828	0	32860	32732	
5829	0	32808	32693	
5830	0	32824	32804	
5831	0	32756	32768	
5832	0	32804	32770	
5833	0	32792	32722	
5834	0	32792	32768	
5835	0	32858	32871	
5836	0	32804	32914	
5837	0	32848	32958	
5838	0	32858	32924	
5839	0	32700	32796	
5840	0	32722	32731	
5841	0	32796	32720	
5842	0	32792	32816	
5843	0	32836	32740	
5844	0	32816	32852	
5845	0	32760	32612	
5846	0	32810	32682	
5847	0	32830	32684	
5848	0	32760	32564	
5849	0	32736	32595	
5850	0	32744	32620	
5851	0	32808	32647	
5852	0	32852	32594	
5853	0	32896	32632	
5854	0	32840	32615	
5855	0	32748	32682	
5856	0	32764	32672	
5857	0	32754	32686	
5858	0	32860	32658	
5859	0	32808	32542	
5860	0	32808	32679	
5861	0	32794	32663	
5862	0	32828	32719	
5863	0	32840	32810	
5864	0	32762	32740	
5865	0	32808	32805	
5866	0	32916	32796	
5867	0	32876	32943	
5868	0	32760	32851	
5869	0	32750	32866	
5870	0	32824	32810	
5871	0	32852	32846	
5872	0	32832	32903	
5873	0	32764	32955	
5874	0	32880	32912	
5875	0	32864	32934	
5876	0	32792	32800	
5877	0	32828	32831	
5878	0	32776	32874	
5879	0	32788	32756	
5880	0	32848	32746	
5881	0	32796	32698	
5882	0	32820	32792	
5883	0	32784	32704	
5884	0	32830	32656	
5885	0	32804	32743	
5886	0	32710	32815	
5887	0	32764	32808	
5888	0	32836	32775	
5889	0	32830	32769	
5890	0	32836	32774	
5891	0	32812	32773	
5892	0	32852	32816	
5893	0	32798	32816	
5894	0	32784	32810	
5895	0	32796	32871	
5896	0	32900	32818	
5897	0	32796	32772	
5898	0	32884	32790	
5899	0	32916	32762	
5900	0	32916	32828	
5901	0	32816	32810	
5902	0	32748	32736	
5903	0	32788	32702	
5904	0	32758	32740	
5905	0	32728	32647	
5906	0	32816	32602	
5907	0	32734	32946	
5908	0	32760	32797	
5909	0	32752	32801	
5910	0	32736	32808	
5911	0	32685	32755	
5912	0	32776	32743	
5913	0	32784	32652	
5914	0	32780	32688	
5915	0	32656	32636	
5916	0	32760	32632	
5917	0	32748	32647	
5918	0	32774	32647	
5919	0	32694	32498	
5920	0	32696	32614	
5921	0	32652	32614	
5922	0	32684	32628	
5923	0	32720	32856	
5924	0	32714	32756	
5925	0	32736	32775	
5926	0	32666	32710	
5927	0	32728	32703	
5928	0	32712	32774	
5929	0	32688	32762	
5930	0	32752	32743	
5931	0	32772	32822	
5932	0	32744	32801	
5933	0	32766	32904	
5934	0	32858	32878	
5935	0	32884	32892	
5936	0	33012	33006	
5937	0	33222	33142	
5938	0	33308	33188	
5939	0	33336	33115	
5940	0	33308	33116	
5941	0	33296	33100	
5942	0	33232	32944	
5943	0	33162	32900	
5944	0	33128	32911	
5945	0	32976	32812	
5946	0	33002	32927	
5947	0	33016	32923	
5948	0	32936	32840	
5949	0	32900	32839	
5950	0	32832	32759	
5951	0	32716	32753	
5952	0	32690	32711	
5953	0	32648	32687	
5954	0	32586	32764	
5955	0	32670	32846	
5956	0	32656	32844	
5957	0	32702	32890	
5958	0	32596	32684	
5959	0	32564	32614	
5960	0	32612	32644	
5961	0	32540	32576	
5962	0	32628	32586	
5963	0	32656	32518	
5964	0	32676	32529	
5965	0	32792	32502	
5966	0	32784	32596	
5967	0	32708	32594	
5968	0	32726	32586	
5969	0	32732	32676	
5970	0	32884	32724	
5971	0	32700	32671	
5972	0	32922	32754	
5973	0	32840	32652	
5974	0	32802	32715	
5975	0	32908	32720	
5976	0	32784	32740	
5977	0	32880	32730	
5978	0	32800	32794	
5979	0	32868	32634	
5980	0	32730	32638	
5981	0	32792	32671	
5982	0	32769	32652	
5983	0	32934	32702	
5984	0	32856	32652	
5985	0	32800	32704	
5986	0	32802	32710	
5987	0	32824	32753	
5988	0	32716	32836	
5989	0	32816	32814	
5990	0	32836	32788	
5991	0	32876	32775	
5992	0	32836	32932	
5993	0	32820	32898	
5994	0	32804	32968	
5995	0	32776	32922	
5996	0	32788	32822	
5997	0	32746	32900	
5998	0	32702	32892	
5999	0	32760	32858	
6000	0	32820	32882	
6001	0	32864	32775	
6002	0	32794	32725	
6003	0	32876	32770	
6004	0	32756	32689	
6005	0	32792	32641	
6006	0	32784	32730	
6007	0	32784	32682	
6008	0	32744	32660	
6009	0	32824	32647	
6010	0	32804	32724	
6011	0	32670	32647	
6012	0	32696	32672	
