# OpenSignals Text File Format. Version 1
# {"00:07:80:8C:0A:39": {"position": 0, "device": "biosignalsplux", "device name": "00:07:80:8C:0A:39", "device connection": "BTH00:07:80:8C:0A:39", "sampling rate": 1000, "resolution": [16, 16], "firmware version": 776, "comments": "", "keywords": "", "mode": 0, "sync interval": 2, "date": "2023-3-17", "time": "14:49:32.879", "channels": [1, 2], "sensor": ["EMG", "EMG"], "label": ["CH1", "CH2"], "column": ["nSeq", "DI", "CH1", "CH2"], "special": [{"SpO2": [80, 40, 5, 4, 3, 3]}, {"SpO2": [80, 40, 5, 4, 3, 3]}, {"SpO2": [80, 40, 5, 4, 3, 3]}, {"SpO2": [80, 40, 5, 4, 3, 3]}, {"SpO2": [80, 40, 5, 4, 3, 3]}, {"SpO2": [80, 40, 5, 4, 3, 3]}, {"SpO2": [80, 40, 5, 4, 3, 3]}, {"SpO2": [80, 40, 5, 4, 3, 3]}], "digital IO": [0, 1], "sleeve color": ["gray", "yellow"], "convertedValues": 0}}
# EndOfHeader
0	0	32840	32709	
1	0	32862	32828	
2	0	32820	32786	
3	0	32806	32700	
4	0	32812	32775	
5	0	32844	32710	
6	0	32822	32674	
7	0	32768	32774	
8	0	32853	32767	
9	0	32864	32728	
10	0	32802	32799	
11	0	32800	32671	
12	0	32796	32698	
13	0	32790	32856	
14	0	32830	32758	
15	0	32854	32751	
16	0	32924	32794	
17	0	32796	32808	
18	0	32834	32772	
19	0	32878	32695	
20	0	32800	32768	
21	0	32896	32800	
22	0	32830	32798	
23	0	32804	32842	
24	0	32756	32864	
25	0	32748	32716	
26	0	32812	32756	
27	0	32820	32916	
28	0	32818	32775	
29	0	32820	32720	
30	0	32830	32666	
31	0	32902	32720	
32	0	32836	32810	
33	0	32848	32839	
34	0	32824	32834	
35	0	32812	32802	
36	0	32828	32727	
37	0	32768	32711	
38	0	32814	32756	
39	0	32864	32820	
40	0	32826	32718	
41	0	32810	32798	
42	0	32808	32756	
43	0	32776	32706	
44	0	32789	32740	
45	0	32784	32868	
46	0	32804	32775	
47	0	32824	32809	
48	0	32808	32830	
49	0	32760	32738	
50	0	32802	32663	
51	0	32772	32775	
52	0	32774	32798	
53	0	32838	32746	
54	0	32812	32784	
55	0	32824	32766	
56	0	32828	32704	
57	0	32790	32790	
58	0	32788	32736	
59	0	32784	32812	
60	0	32848	32724	
61	0	32828	32786	
62	0	32814	32712	
63	0	32774	32775	
64	0	32824	32790	
65	0	32904	32775	
66	0	32820	32680	
67	0	32880	32618	
68	0	32804	32793	
69	0	32737	32736	
70	0	32800	32816	
71	0	32824	32775	
72	0	32766	32788	
73	0	32744	32932	
74	0	32824	32812	
75	0	32772	32754	
76	0	32798	32872	
77	0	32830	32700	
78	0	32872	32724	
79	0	32844	32754	
80	0	32780	32828	
81	0	32804	32756	
82	0	32838	32796	
83	0	32820	32887	
84	0	32762	32697	
85	0	32732	32724	
86	0	32784	32775	
87	0	32780	32786	
88	0	32842	32729	
89	0	32832	32738	
90	0	32832	32834	
91	0	32832	32746	
92	0	32812	32812	
93	0	32824	32736	
94	0	32820	32670	
95	0	32775	32686	
96	0	32808	32810	
97	0	32774	32754	
98	0	32810	32775	
99	0	32820	32660	
100	0	32840	32808	
101	0	32778	32724	
102	0	32752	32825	
103	0	32864	32775	
104	0	32837	32844	
105	0	32808	32730	
106	0	32848	32796	
107	0	32834	32738	
108	0	32804	32692	
109	0	32756	32892	
110	0	32920	32772	
111	0	32764	32858	
112	0	32804	32728	
113	0	32720	32811	
114	0	32802	32806	
115	0	32824	32730	
116	0	32800	32816	
117	0	32784	32666	
118	0	32800	32673	
119	0	32788	32807	
120	0	32872	32750	
121	0	32848	32846	
122	0	32878	32722	
123	0	32810	32682	
124	0	32852	32823	
125	0	32820	32742	
126	0	32794	32820	
127	0	32784	32707	
128	0	32832	32794	
129	0	32788	32742	
130	0	32872	32862	
131	0	32756	32846	
132	0	32814	32814	
133	0	32872	32752	
134	0	32825	32826	
135	0	32858	32892	
136	0	32784	32767	
137	0	32782	32775	
138	0	32812	32764	
139	0	32816	32870	
140	0	32866	32716	
141	0	32840	32831	
142	0	32820	32774	
143	0	32800	32738	
144	0	32806	32790	
145	0	32808	32794	
146	0	32848	32806	
147	0	32862	32846	
148	0	32786	32760	
149	0	32800	32871	
150	0	32814	32822	
151	0	32900	32874	
152	0	32912	32902	
153	0	32932	32824	
154	0	32852	32808	
155	0	32952	32924	
156	0	32840	32820	
157	0	32848	32816	
158	0	32800	32740	
159	0	32794	32736	
160	0	32740	32628	
161	0	32668	32518	
162	0	32728	32484	
163	0	32628	32420	
164	0	32618	32402	
165	0	32556	32378	
166	0	32650	32476	
167	0	32764	32502	
168	0	32762	32634	
169	0	32724	32772	
170	0	32836	32876	
171	0	32852	32764	
172	0	32854	32814	
173	0	32842	32757	
174	0	32808	32866	
175	0	32856	32854	
176	0	32850	32966	
177	0	32772	32943	
178	0	32864	32974	
179	0	32916	32888	
180	0	32858	32918	
181	0	32896	32890	
182	0	32876	32938	
183	0	32878	32775	
184	0	32840	32886	
185	0	32846	32812	
186	0	32884	32812	
187	0	32864	32670	
188	0	32832	32708	
189	0	32860	32769	
190	0	32874	32867	
191	0	32776	32732	
192	0	32756	32796	
193	0	32858	32700	
194	0	32834	32720	
195	0	32792	32775	
196	0	32852	32766	
197	0	32790	32804	
198	0	32736	32704	
199	0	32808	32750	
200	0	32864	32862	
201	0	32768	32710	
202	0	32804	32816	
203	0	32774	32820	
204	0	32806	32828	
205	0	32784	32720	
206	0	32800	32794	
207	0	32786	32647	
208	0	32842	32807	
209	0	32844	32802	
210	0	32776	32786	
211	0	32808	32708	
212	0	32836	32740	
213	0	32784	32775	
214	0	32838	32638	
215	0	32798	32818	
216	0	32768	32740	
217	0	32796	32791	
218	0	32848	32775	
219	0	32816	32810	
220	0	32900	32775	
221	0	32812	32792	
222	0	32804	32720	
223	0	32830	32792	
224	0	32846	32864	
225	0	32804	32716	
226	0	32760	32686	
227	0	32800	32707	
228	0	32780	32852	
229	0	32780	32774	
230	0	32788	32798	
231	0	32904	32680	
232	0	32872	32696	
233	0	32764	32742	
234	0	32776	32730	
235	0	32824	32648	
236	0	32754	32756	
237	0	32808	32740	
238	0	32832	32822	
239	0	32812	32742	
240	0	32860	32736	
241	0	32804	32732	
242	0	32864	32814	
243	0	32788	32753	
244	0	32792	32775	
245	0	32808	32734	
246	0	32844	32748	
247	0	32784	32748	
248	0	32820	32769	
249	0	32888	32828	
250	0	32796	32719	
251	0	32796	32806	
252	0	32820	32834	
253	0	32820	32855	
254	0	32804	32680	
255	0	32780	32820	
256	0	32806	32742	
257	0	32772	32855	
258	0	32746	32695	
259	0	32788	32806	
260	0	32808	32772	
261	0	32792	32792	
262	0	32796	32732	
263	0	32816	32736	
264	0	32852	32775	
265	0	32816	32740	
266	0	32810	32770	
267	0	32766	32672	
268	0	32836	32814	
269	0	32872	32808	
270	0	32808	32782	
271	0	32825	32840	
272	0	32818	32666	
273	0	32784	32782	
274	0	32774	32775	
275	0	32817	32807	
276	0	32796	32710	
277	0	32838	32822	
278	0	32814	32807	
279	0	32822	32902	
280	0	32852	32700	
281	0	32794	32836	
282	0	32852	32830	
283	0	32804	32708	
284	0	32838	32660	
285	0	32888	32826	
286	0	32772	32748	
287	0	32844	32852	
288	0	32868	32866	
289	0	32882	32682	
290	0	32868	32693	
291	0	32856	32801	
292	0	32796	32724	
293	0	32852	32736	
294	0	32844	32718	
295	0	32782	32670	
296	0	32808	32832	
297	0	32800	32830	
298	0	32850	32864	
299	0	32828	32762	
300	0	32818	32736	
301	0	32708	32722	
302	0	32802	32716	
303	0	32804	32720	
304	0	32788	32804	
305	0	32832	32822	
306	0	32832	32710	
307	0	32792	32840	
308	0	32746	32794	
309	0	32816	32798	
310	0	32804	32792	
311	0	32804	32789	
312	0	32840	32880	
313	0	32776	32708	
314	0	32732	32754	
315	0	32836	32828	
316	0	32828	32865	
317	0	32816	32680	
318	0	32798	32699	
319	0	32798	32703	
320	0	32836	32730	
321	0	32860	32748	
322	0	32758	32701	
323	0	32788	32806	
324	0	32854	32903	
325	0	32844	32832	
326	0	32814	32722	
327	0	32768	32660	
328	0	32748	32734	
329	0	32816	32750	
330	0	32840	32775	
331	0	32790	32832	
332	0	32820	32839	
333	0	32826	32728	
334	0	32816	32808	
335	0	32812	32807	
336	0	32816	32705	
337	0	32825	32798	
338	0	32820	32754	
339	0	32794	32772	
340	0	32768	32842	
341	0	32874	32896	
342	0	32842	32804	
343	0	32796	32644	
344	0	32792	32743	
345	0	32788	32758	
346	0	32752	32897	
347	0	32824	32793	
348	0	32828	32679	
349	0	32822	32697	
350	0	32832	32740	
351	0	32760	32775	
352	0	32802	32664	
353	0	32774	32670	
354	0	32832	32798	
355	0	32848	32822	
356	0	32750	32775	
357	0	32824	32756	
358	0	32812	32742	
359	0	32834	32794	
360	0	32828	32737	
361	0	32848	32714	
362	0	32878	32848	
363	0	32736	32743	
364	0	32798	32861	
365	0	32818	32734	
366	0	32876	32736	
367	0	32804	32718	
368	0	32800	32839	
369	0	32774	32740	
370	0	32848	32812	
371	0	32808	32743	
372	0	32822	32836	
373	0	32814	32706	
374	0	32846	32672	
375	0	32784	32836	
376	0	32832	32804	
377	0	32812	32742	
378	0	32816	32828	
379	0	32824	32710	
380	0	32812	32834	
381	0	32840	32762	
382	0	32832	32822	
383	0	32804	32775	
384	0	32856	32775	
385	0	32840	32654	
386	0	32804	32804	
387	0	32804	32758	
388	0	32848	32788	
389	0	32844	32734	
390	0	32804	32668	
391	0	32760	32768	
392	0	32848	32816	
393	0	32760	32858	
394	0	32756	32724	
395	0	32810	32754	
396	0	32828	32775	
397	0	32804	32700	
398	0	32820	32832	
399	0	32844	32642	
400	0	32792	32720	
401	0	32826	32760	
402	0	32744	32775	
403	0	32812	32763	
404	0	32754	32734	
405	0	32822	32775	
406	0	32756	32720	
407	0	32752	32774	
408	0	32860	32736	
409	0	32868	32766	
410	0	32752	32732	
411	0	32820	32756	
412	0	32840	32826	
413	0	32840	32775	
414	0	32788	32804	
415	0	32832	32772	
416	0	32800	32766	
417	0	32850	32694	
418	0	32760	32632	
419	0	32830	32790	
420	0	32770	32818	
421	0	32802	32786	
422	0	32776	32748	
423	0	32800	32786	
424	0	32805	32775	
425	0	32880	32775	
426	0	32820	32672	
427	0	32832	32800	
428	0	32816	32700	
429	0	32880	32799	
430	0	32830	32784	
431	0	32826	32768	
432	0	32772	32750	
433	0	32826	32807	
434	0	32789	32818	
435	0	32792	32838	
436	0	32868	32848	
437	0	32824	32658	
438	0	32816	32815	
439	0	32746	32743	
440	0	32824	32888	
441	0	32812	32694	
442	0	32880	32766	
443	0	32786	32810	
444	0	32794	32664	
445	0	32812	32846	
446	0	32798	32714	
447	0	32812	32818	
448	0	32821	32728	
449	0	32780	32788	
450	0	32810	32700	
451	0	32800	32724	
452	0	32760	32775	
453	0	32852	32732	
454	0	32776	32740	
455	0	32864	32640	
456	0	32818	32810	
457	0	32840	32788	
458	0	32802	32844	
459	0	32788	32670	
460	0	32884	32828	
461	0	32840	32772	
462	0	32728	32908	
463	0	32784	32728	
464	0	32814	32876	
465	0	32808	32775	
466	0	32770	32628	
467	0	32782	32736	
468	0	32848	32754	
469	0	32802	32826	
470	0	32860	32710	
471	0	32852	32678	
472	0	32776	32816	
473	0	32804	32812	
474	0	32766	32804	
475	0	32756	32790	
476	0	32820	32793	
477	0	32788	32812	
478	0	32794	32687	
479	0	32790	32816	
480	0	32828	32810	
481	0	32848	32816	
482	0	32798	32740	
483	0	32840	32676	
484	0	32772	32828	
485	0	32816	32836	
486	0	32824	32732	
487	0	32842	32838	
488	0	32810	32762	
489	0	32858	32870	
490	0	32828	32652	
491	0	32862	32838	
492	0	32800	32684	
493	0	32896	32825	
494	0	32848	32655	
495	0	32802	32839	
496	0	32808	32756	
497	0	32814	32772	
498	0	32782	32626	
499	0	32844	32794	
500	0	32812	32692	
501	0	32824	32820	
502	0	32762	32815	
503	0	32816	32810	
504	0	32776	32846	
505	0	32768	32712	
506	0	32828	32720	
507	0	32780	32796	
508	0	32832	32708	
509	0	32770	32728	
510	0	32834	32724	
511	0	32832	32894	
512	0	32828	32763	
513	0	32852	32832	
514	0	32764	32699	
515	0	32862	32775	
516	0	32852	32836	
517	0	32846	32775	
518	0	32810	32711	
519	0	32836	32736	
520	0	32804	32868	
521	0	32828	32806	
522	0	32882	32652	
523	0	32860	32790	
524	0	32770	32727	
525	0	32732	32826	
526	0	32828	32656	
527	0	32772	32806	
528	0	32848	32842	
529	0	32842	32852	
530	0	32820	32692	
531	0	32788	32870	
532	0	32806	32800	
533	0	32856	32775	
534	0	32836	32769	
535	0	32800	32756	
536	0	32828	32692	
537	0	32768	32704	
538	0	32824	32712	
539	0	32762	32794	
540	0	32792	32751	
541	0	32828	32856	
542	0	32786	32692	
543	0	32816	32756	
544	0	32794	32756	
545	0	32780	32807	
546	0	32776	32768	
547	0	32842	32752	
548	0	32780	32775	
549	0	32822	32828	
550	0	32860	32700	
551	0	32848	32682	
552	0	32788	32792	
553	0	32828	32843	
554	0	32736	32814	
555	0	32832	32656	
556	0	32848	32864	
557	0	32830	32814	
558	0	32778	32656	
559	0	32840	32704	
560	0	32836	32740	
561	0	32794	32702	
562	0	32836	32708	
563	0	32778	32692	
564	0	32790	32808	
565	0	32828	32775	
566	0	32854	32849	
567	0	32820	32796	
568	0	32748	32682	
569	0	32788	32719	
570	0	32836	32772	
571	0	32814	32687	
572	0	32828	32774	
573	0	32774	32775	
574	0	32796	32734	
575	0	32728	32855	
576	0	32828	32714	
577	0	32812	32759	
578	0	32844	32846	
579	0	32774	32756	
580	0	32836	32748	
581	0	32812	32770	
582	0	32820	32846	
583	0	32800	32743	
584	0	32864	32839	
585	0	32756	32654	
586	0	32880	32768	
587	0	32844	32775	
588	0	32804	32804	
589	0	32764	32761	
590	0	32880	32715	
591	0	32816	32775	
592	0	32841	32746	
593	0	32860	32740	
594	0	32804	32846	
595	0	32804	32788	
596	0	32820	32663	
597	0	32806	32744	
598	0	32788	32884	
599	0	32798	32790	
600	0	32780	32772	
601	0	32790	32730	
602	0	32852	32808	
603	0	32816	32676	
604	0	32844	32730	
605	0	32888	32808	
606	0	32816	32771	
607	0	32736	32839	
608	0	32820	32710	
609	0	32888	32844	
610	0	32798	32775	
611	0	32848	32758	
612	0	32788	32731	
613	0	32820	32704	
614	0	32804	32810	
615	0	32744	32838	
616	0	32862	32762	
617	0	32842	32668	
618	0	32902	32802	
619	0	32766	32798	
620	0	32814	32760	
621	0	32716	32769	
622	0	32840	32758	
623	0	32856	32759	
624	0	32784	32820	
625	0	32792	32842	
626	0	32816	32710	
627	0	32830	32742	
628	0	32820	32870	
629	0	32852	32796	
630	0	32830	32836	
631	0	32750	32688	
632	0	32868	32682	
633	0	32798	32828	
634	0	32860	32772	
635	0	32796	32714	
636	0	32860	32839	
637	0	32780	32766	
638	0	32788	32806	
639	0	32844	32836	
640	0	32856	32784	
641	0	32788	32802	
642	0	32756	32656	
643	0	32780	32638	
644	0	32770	32806	
645	0	32905	32868	
646	0	32800	32839	
647	0	32772	32852	
648	0	32856	32727	
649	0	32816	32798	
650	0	32836	32794	
651	0	32864	32768	
652	0	32830	32844	
653	0	32828	32740	
654	0	32816	32674	
655	0	32852	32775	
656	0	32844	32775	
657	0	32792	32775	
658	0	32734	32840	
659	0	32804	32716	
660	0	32814	32672	
661	0	32734	32807	
662	0	32716	32758	
663	0	32796	32816	
664	0	32788	32670	
665	0	32762	32775	
666	0	32812	32824	
667	0	32796	32756	
668	0	32788	32772	
669	0	32828	32782	
670	0	32808	32666	
671	0	32798	32695	
672	0	32856	32720	
673	0	32824	32796	
674	0	32790	32841	
675	0	32832	32788	
676	0	32810	32791	
677	0	32844	32823	
678	0	32816	32764	
679	0	32814	32710	
680	0	32810	32792	
681	0	32844	32865	
682	0	32788	32775	
683	0	32796	32750	
684	0	32848	32688	
685	0	32800	32750	
686	0	32876	32806	
687	0	32810	32764	
688	0	32868	32791	
689	0	32788	32714	
690	0	32806	32722	
691	0	32792	32752	
692	0	32848	32743	
693	0	32834	32755	
694	0	32804	32638	
695	0	32756	32687	
696	0	32760	32750	
697	0	32792	32742	
698	0	32832	32839	
699	0	32800	32768	
700	0	32860	32689	
701	0	32824	32832	
702	0	32876	32818	
703	0	32798	32804	
704	0	32810	32868	
705	0	32848	32711	
706	0	32769	32814	
707	0	32764	32775	
708	0	32800	32775	
709	0	32832	32864	
710	0	32844	32716	
711	0	32724	32790	
712	0	32808	32775	
713	0	32852	32713	
714	0	32804	32846	
715	0	32834	32686	
716	0	32840	32708	
717	0	32754	32807	
718	0	32748	32800	
719	0	32826	32775	
720	0	32782	32844	
721	0	32868	32688	
722	0	32782	32810	
723	0	32798	32742	
724	0	32826	32774	
725	0	32784	32854	
726	0	32856	32702	
727	0	32828	32788	
728	0	32768	32764	
729	0	32824	32759	
730	0	32814	32750	
731	0	32852	32647	
732	0	32804	32760	
733	0	32804	32710	
734	0	32776	32852	
735	0	32800	32676	
736	0	32880	32826	
737	0	32806	32807	
738	0	32828	32804	
739	0	32746	32672	
740	0	32856	32719	
741	0	32824	32807	
742	0	32772	32790	
743	0	32816	32828	
744	0	32820	32696	
745	0	32826	32766	
746	0	32800	32832	
747	0	32788	32775	
748	0	32828	32798	
749	0	32806	32800	
750	0	32784	32720	
751	0	32760	32790	
752	0	32818	32753	
753	0	32796	32764	
754	0	32856	32696	
755	0	32828	32823	
756	0	32844	32774	
757	0	32794	32798	
758	0	32844	32714	
759	0	32764	32751	
760	0	32780	32764	
761	0	32784	32736	
762	0	32860	32876	
763	0	32840	32647	
764	0	32789	32826	
765	0	32800	32726	
766	0	32828	32734	
767	0	32804	32682	
768	0	32832	32775	
769	0	32852	32806	
770	0	32866	32712	
771	0	32878	32757	
772	0	32826	32795	
773	0	32816	32823	
774	0	32856	32775	
775	0	32822	32775	
776	0	32816	32772	
777	0	32772	32816	
778	0	32760	32760	
779	0	32814	32700	
780	0	32810	32750	
781	0	32872	32913	
782	0	32836	32646	
783	0	32848	32871	
784	0	32762	32738	
785	0	32816	32774	
786	0	32874	32706	
787	0	32804	32768	
788	0	32800	32742	
789	0	32798	32846	
790	0	32846	32719	
791	0	32806	32724	
792	0	32794	32893	
793	0	32812	32743	
794	0	32804	32775	
795	0	32780	32734	
796	0	32760	32800	
797	0	32792	32840	
798	0	32802	32840	
799	0	32826	32892	
800	0	32808	32756	
801	0	32864	32825	
802	0	32824	32818	
803	0	32868	32709	
804	0	32868	32798	
805	0	32834	32844	
806	0	32854	32903	
807	0	32852	32830	
808	0	32880	32820	
809	0	32836	32800	
810	0	32890	32818	
811	0	32846	32746	
812	0	32766	32812	
813	0	32724	32714	
814	0	32726	32658	
815	0	32712	32464	
816	0	32668	32510	
817	0	32756	32476	
818	0	32654	32534	
819	0	32692	32420	
820	0	32572	32324	
821	0	32660	32502	
822	0	32696	32618	
823	0	32730	32828	
824	0	32804	32774	
825	0	32788	32783	
826	0	32826	32894	
827	0	32844	32854	
828	0	32820	32876	
829	0	32892	32918	
830	0	32816	32946	
831	0	32888	32823	
832	0	32916	32874	
833	0	32924	32910	
834	0	32868	32930	
835	0	32904	32952	
836	0	32876	32935	
837	0	32868	32816	
838	0	32870	32698	
839	0	32878	32828	
840	0	32860	32796	
841	0	32856	32767	
842	0	32862	32852	
843	0	32876	32724	
844	0	32868	32840	
845	0	32892	32832	
846	0	32804	32756	
847	0	32792	32868	
848	0	32780	32719	
849	0	32838	32823	
850	0	32756	32806	
851	0	32758	32786	
852	0	32852	32686	
853	0	32832	32774	
854	0	32800	32738	
855	0	32792	32700	
856	0	32802	32684	
857	0	32820	32758	
858	0	32812	32692	
859	0	32830	32775	
860	0	32816	32684	
861	0	32826	32738	
862	0	32825	32742	
863	0	32756	32718	
864	0	32772	32743	
865	0	32776	32860	
866	0	32794	32748	
867	0	32864	32766	
868	0	32796	32830	
869	0	32836	32752	
870	0	32824	32830	
871	0	32788	32750	
872	0	32850	32842	
873	0	32848	32750	
874	0	32829	32846	
875	0	32756	32846	
876	0	32784	32752	
877	0	32768	32820	
878	0	32744	32714	
879	0	32836	32747	
880	0	32874	32737	
881	0	32857	32750	
882	0	32760	32796	
883	0	32814	32696	
884	0	32779	32618	
885	0	32718	32767	
886	0	32756	32704	
887	0	32882	32822	
888	0	32830	32775	
889	0	32810	32676	
890	0	32800	32830	
891	0	32768	32743	
892	0	32804	32910	
893	0	32764	32760	
894	0	32810	32828	
895	0	32772	32794	
896	0	32792	32746	
897	0	32774	32737	
898	0	32842	32807	
899	0	32810	32774	
900	0	32820	32822	
901	0	32780	32679	
902	0	32808	32798	
903	0	32824	32746	
904	0	32840	32692	
905	0	32774	32750	
906	0	32782	32748	
907	0	32897	32804	
908	0	32808	32752	
909	0	32832	32772	
910	0	32884	32775	
911	0	32824	32806	
912	0	32844	32754	
913	0	32860	32836	
914	0	32840	32750	
915	0	32768	32684	
916	0	32840	32684	
917	0	32856	32670	
918	0	32786	32804	
919	0	32776	32775	
920	0	32800	32862	
921	0	32775	32775	
922	0	32804	32671	
923	0	32768	32834	
924	0	32824	32775	
925	0	32832	32816	
926	0	32844	32730	
927	0	32844	32657	
928	0	32788	32828	
929	0	32798	32732	
930	0	32856	32802	
931	0	32842	32750	
932	0	32830	32668	
933	0	32828	32930	
934	0	32826	32839	
935	0	32860	32868	
936	0	32812	32720	
937	0	32786	32768	
938	0	32896	32764	
939	0	32834	32740	
940	0	32864	32743	
941	0	32832	32882	
942	0	32836	32818	
943	0	32788	32804	
944	0	32798	32676	
945	0	32784	32727	
946	0	32820	32775	
947	0	32836	32764	
948	0	32808	32846	
949	0	32794	32688	
950	0	32840	32640	
951	0	32812	32816	
952	0	32792	32784	
953	0	32788	32807	
954	0	32816	32876	
955	0	32860	32760	
956	0	32712	32807	
957	0	32782	32810	
958	0	32800	32814	
959	0	32840	32768	
960	0	32844	32790	
961	0	32760	32711	
962	0	32848	32775	
963	0	32800	32650	
964	0	32852	32834	
965	0	32802	32792	
966	0	32870	32812	
967	0	32798	32690	
968	0	32838	32721	
969	0	32848	32852	
970	0	32846	32752	
971	0	32836	32679	
972	0	32800	32823	
973	0	32878	32722	
974	0	32816	32810	
975	0	32816	32724	
976	0	32842	32731	
977	0	32764	32724	
978	0	32852	32742	
979	0	32836	32694	
980	0	32816	32742	
981	0	32818	32916	
982	0	32792	32775	
983	0	32764	32708	
984	0	32800	32668	
985	0	32814	32775	
986	0	32768	32786	
987	0	32752	32838	
988	0	32848	32724	
989	0	32820	32742	
990	0	32844	32764	
991	0	32824	32796	
992	0	32846	32743	
993	0	32724	32702	
994	0	32820	32694	
995	0	32810	32747	
996	0	32872	32762	
997	0	32824	32728	
998	0	32732	32730	
999	0	32825	32716	
1000	0	32764	32806	
1001	0	32830	32730	
1002	0	32840	32790	
1003	0	32852	32730	
1004	0	32816	32740	
1005	0	32776	32908	
1006	0	32860	32818	
1007	0	32816	32775	
1008	0	32836	32670	
1009	0	32768	32724	
1010	0	32824	32812	
1011	0	32848	32806	
1012	0	32732	32708	
1013	0	32768	32828	
1014	0	32780	32724	
1015	0	32808	32812	
1016	0	32812	32772	
1017	0	32830	32668	
1018	0	32822	32759	
1019	0	32792	32753	
1020	0	32838	32770	
1021	0	32808	32710	
1022	0	32800	32748	
1023	0	32712	32744	
1024	0	32816	32806	
1025	0	32838	32842	
1026	0	32832	32770	
1027	0	32812	32740	
1028	0	32840	32816	
1029	0	32832	32808	
1030	0	32794	32752	
1031	0	32820	32720	
1032	0	32848	32764	
1033	0	32862	32725	
1034	0	32806	32800	
1035	0	32780	32722	
1036	0	32724	32743	
1037	0	32820	32854	
1038	0	32809	32722	
1039	0	32894	32720	
1040	0	32817	32746	
1041	0	32788	32676	
1042	0	32792	32768	
1043	0	32822	32838	
1044	0	32772	32700	
1045	0	32804	32846	
1046	0	32828	32802	
1047	0	32815	32832	
1048	0	32792	32748	
1049	0	32846	32766	
1050	0	32800	32788	
1051	0	32810	32786	
1052	0	32710	32796	
1053	0	32808	32713	
1054	0	32784	32756	
1055	0	32840	32799	
1056	0	32784	32754	
1057	0	32784	32770	
1058	0	32788	32661	
1059	0	32814	32871	
1060	0	32844	32796	
1061	0	32832	32689	
1062	0	32752	32772	
1063	0	32782	32804	
1064	0	32760	32775	
1065	0	32778	32820	
1066	0	32770	32807	
1067	0	32868	32758	
1068	0	32796	32816	
1069	0	32888	32788	
1070	0	32846	32673	
1071	0	32796	32724	
1072	0	32842	32665	
1073	0	32856	32766	
1074	0	32832	32662	
1075	0	32784	32660	
1076	0	32770	32874	
1077	0	32814	32727	
1078	0	32760	32786	
1079	0	32804	32702	
1080	0	32804	32775	
1081	0	32760	32825	
1082	0	32752	32748	
1083	0	32806	32832	
1084	0	32836	32788	
1085	0	32836	32668	
1086	0	32774	32918	
1087	0	32784	32844	
1088	0	32808	32823	
1089	0	32801	32740	
1090	0	32814	32846	
1091	0	32788	32643	
1092	0	32792	32680	
1093	0	32788	32802	
1094	0	32804	32807	
1095	0	32888	32724	
1096	0	32836	32740	
1097	0	32830	32692	
1098	0	32772	32807	
1099	0	32832	32753	
1100	0	32854	32711	
1101	0	32838	32738	
1102	0	32836	32772	
1103	0	32852	32708	
1104	0	32744	32895	
1105	0	32782	32798	
1106	0	32820	32838	
1107	0	32817	32834	
1108	0	32766	32688	
1109	0	32846	32708	
1110	0	32812	32775	
1111	0	32800	32822	
1112	0	32834	32764	
1113	0	32832	32756	
1114	0	32790	32728	
1115	0	32880	32812	
1116	0	32790	32752	
1117	0	32832	32703	
1118	0	32836	32688	
1119	0	32858	32834	
1120	0	32808	32852	
1121	0	32806	32759	
1122	0	32862	32710	
1123	0	32836	32860	
1124	0	32814	32660	
1125	0	32764	32852	
1126	0	32748	32625	
1127	0	32878	32860	
1128	0	32868	32750	
1129	0	32800	32756	
1130	0	32734	32804	
1131	0	32740	32760	
1132	0	32836	32653	
1133	0	32834	32720	
1134	0	32798	32772	
1135	0	32838	32848	
1136	0	32746	32767	
1137	0	32840	32716	
1138	0	32824	32840	
1139	0	32788	32716	
1140	0	32880	32814	
1141	0	32808	32696	
1142	0	32836	32712	
1143	0	32825	32868	
1144	0	32856	32724	
1145	0	32774	32874	
1146	0	32782	32764	
1147	0	32780	32640	
1148	0	32808	32748	
1149	0	32984	32770	
1150	0	32752	32852	
1151	0	32874	32692	
1152	0	32792	32737	
1153	0	32836	32704	
1154	0	32814	32775	
1155	0	32766	32742	
1156	0	32820	32806	
1157	0	32784	32735	
1158	0	32792	32852	
1159	0	32772	32806	
1160	0	32786	32894	
1161	0	32804	32719	
1162	0	32830	32794	
1163	0	32842	32772	
1164	0	32724	32798	
1165	0	32878	32734	
1166	0	32832	32790	
1167	0	32756	32730	
1168	0	32772	32896	
1169	0	32870	32674	
1170	0	32848	32858	
1171	0	32760	32767	
1172	0	32716	32832	
1173	0	32790	32736	
1174	0	32814	32708	
1175	0	32864	32740	
1176	0	32832	32764	
1177	0	32854	32676	
1178	0	32866	32774	
1179	0	32798	32668	
1180	0	32852	32756	
1181	0	32848	32743	
1182	0	32788	32807	
1183	0	32824	32671	
1184	0	32842	32798	
1185	0	32848	32788	
1186	0	32768	32807	
1187	0	32856	32711	
1188	0	32796	32718	
1189	0	32844	32914	
1190	0	32848	32774	
1191	0	32860	32742	
1192	0	32845	32750	
1193	0	32756	32775	
1194	0	32760	32824	
1195	0	32844	32700	
1196	0	32860	32658	
1197	0	32814	32844	
1198	0	32732	32758	
1199	0	32842	32800	
1200	0	32798	32644	
1201	0	32846	32876	
1202	0	32792	32708	
1203	0	32820	32798	
1204	0	32790	32722	
1205	0	32752	32838	
1206	0	32764	32846	
1207	0	32792	32810	
1208	0	32844	32732	
1209	0	32760	32802	
1210	0	32788	32760	
1211	0	32860	32710	
1212	0	32720	32820	
1213	0	32856	32796	
1214	0	32866	32754	
1215	0	32832	32680	
1216	0	32844	32688	
1217	0	32858	32804	
1218	0	32802	32756	
1219	0	32812	32718	
1220	0	32710	32647	
1221	0	32822	32884	
1222	0	32858	32714	
1223	0	32810	32798	
1224	0	32794	32775	
1225	0	32772	32720	
1226	0	32812	32764	
1227	0	32784	32881	
1228	0	32876	32879	
1229	0	32816	32711	
1230	0	32792	32742	
1231	0	32842	32762	
1232	0	32808	32822	
1233	0	32734	32771	
1234	0	32790	32704	
1235	0	32868	32732	
1236	0	32760	32791	
1237	0	32820	32855	
1238	0	32824	32698	
1239	0	32824	32711	
1240	0	32840	32818	
1241	0	32834	32798	
1242	0	32814	32775	
1243	0	32812	32730	
1244	0	32824	32808	
1245	0	32772	32836	
1246	0	32856	32878	
1247	0	32796	32692	
1248	0	32820	32758	
1249	0	32726	32703	
1250	0	32748	32807	
1251	0	32836	32697	
1252	0	32844	32698	
1253	0	32892	32854	
1254	0	32788	32758	
1255	0	32788	32804	
1256	0	32852	32919	
1257	0	32860	32775	
1258	0	32824	32769	
1259	0	32800	32724	
1260	0	32836	32711	
1261	0	32828	32667	
1262	0	32804	32775	
1263	0	32808	32826	
1264	0	32768	32866	
1265	0	32872	32690	
1266	0	32824	32808	
1267	0	32792	32740	
1268	0	32786	32852	
1269	0	32840	32743	
1270	0	32808	32736	
1271	0	32828	32800	
1272	0	32788	32860	
1273	0	32810	32711	
1274	0	32804	32760	
1275	0	32844	32807	
1276	0	32844	32656	
1277	0	32800	32751	
1278	0	32798	32718	
1279	0	32804	32720	
1280	0	32848	32839	
1281	0	32864	32844	
1282	0	32868	32848	
1283	0	32892	32698	
1284	0	32810	32814	
1285	0	32738	32852	
1286	0	32776	32826	
1287	0	32836	32638	
1288	0	32776	32746	
1289	0	32806	32748	
1290	0	32868	32786	
1291	0	32800	32766	
1292	0	32784	32766	
1293	0	32780	32647	
1294	0	32848	32740	
1295	0	32872	32864	
1296	0	32880	32752	
1297	0	32860	32828	
1298	0	32780	32706	
1299	0	32752	32748	
1300	0	32768	32852	
1301	0	32788	32704	
1302	0	32804	32747	
1303	0	32812	32716	
1304	0	32844	32774	
1305	0	32804	32764	
1306	0	32856	32882	
1307	0	32792	32670	
1308	0	32800	32818	
1309	0	32775	32740	
1310	0	32812	32812	
1311	0	32804	32655	
1312	0	32784	32727	
1313	0	32772	32900	
1314	0	32844	32764	
1315	0	32828	32768	
1316	0	32782	32822	
1317	0	32744	32644	
1318	0	32762	32766	
1319	0	32856	32852	
1320	0	32800	32832	
1321	0	32800	32836	
1322	0	32874	32772	
1323	0	32786	32862	
1324	0	32898	32754	
1325	0	32854	32767	
1326	0	32786	32796	
1327	0	32832	32730	
1328	0	32792	32814	
1329	0	32844	32762	
1330	0	32772	32786	
1331	0	32800	32826	
1332	0	32824	32718	
1333	0	32788	32675	
1334	0	32826	32644	
1335	0	32768	32792	
1336	0	32820	32756	
1337	0	32806	32926	
1338	0	32784	32684	
1339	0	32826	32666	
1340	0	32750	32839	
1341	0	32844	32866	
1342	0	32746	32807	
1343	0	32846	32814	
1344	0	32808	32900	
1345	0	32858	32662	
1346	0	32842	32796	
1347	0	32816	32711	
1348	0	32796	32748	
1349	0	32780	32840	
1350	0	32836	32772	
1351	0	32784	32746	
1352	0	32876	32914	
1353	0	32852	32775	
1354	0	32795	32816	
1355	0	32796	32644	
1356	0	32788	32798	
1357	0	32806	32796	
1358	0	32836	32696	
1359	0	32814	32724	
1360	0	32848	32736	
1361	0	32804	32841	
1362	0	32912	32766	
1363	0	32864	32856	
1364	0	32830	32844	
1365	0	32786	32796	
1366	0	32810	32668	
1367	0	32740	32826	
1368	0	32784	32788	
1369	0	32740	32830	
1370	0	32790	32774	
1371	0	32800	32730	
1372	0	32832	32844	
1373	0	32812	32642	
1374	0	32832	32810	
1375	0	32824	32894	
1376	0	32776	32726	
1377	0	32868	32710	
1378	0	32812	32650	
1379	0	32836	32846	
1380	0	32728	32752	
1381	0	32784	32792	
1382	0	32860	32743	
1383	0	32800	32678	
1384	0	32784	32852	
1385	0	32832	32773	
1386	0	32812	32770	
1387	0	32814	32768	
1388	0	32782	32702	
1389	0	32808	32748	
1390	0	32824	32832	
1391	0	32840	32800	
1392	0	32744	32839	
1393	0	32826	32743	
1394	0	32792	32726	
1395	0	32784	32828	
1396	0	32794	32816	
1397	0	32780	32647	
1398	0	32778	32710	
1399	0	32812	32772	
1400	0	32778	32750	
1401	0	32752	32775	
1402	0	32838	32756	
1403	0	32828	32770	
1404	0	32832	32834	
1405	0	32872	32839	
1406	0	32798	32820	
1407	0	32834	32712	
1408	0	32756	32700	
1409	0	32820	32828	
1410	0	32888	32775	
1411	0	32829	32775	
1412	0	32864	32670	
1413	0	32804	32796	
1414	0	32840	32752	
1415	0	32788	32804	
1416	0	32888	32678	
1417	0	32836	32855	
1418	0	32794	32810	
1419	0	32832	32775	
1420	0	32810	32750	
1421	0	32788	32802	
1422	0	32724	32734	
1423	0	32824	32832	
1424	0	32880	32698	
1425	0	32848	32702	
1426	0	32768	32820	
1427	0	32820	32823	
1428	0	32780	32700	
1429	0	32864	32774	
1430	0	32846	32862	
1431	0	32764	32862	
1432	0	32810	32756	
1433	0	32832	32674	
1434	0	32834	32764	
1435	0	32824	32710	
1436	0	32896	32850	
1437	0	32866	32746	
1438	0	32844	32775	
1439	0	32844	32798	
1440	0	32820	32804	
1441	0	32800	32725	
1442	0	32744	32800	
1443	0	32792	32764	
1444	0	32886	32758	
1445	0	32872	32762	
1446	0	32802	32742	
1447	0	32828	32770	
1448	0	32820	32810	
1449	0	32796	32764	
1450	0	32810	32788	
1451	0	32850	32754	
1452	0	32830	32760	
1453	0	32828	32740	
1454	0	32828	32783	
1455	0	32834	32908	
1456	0	32820	32863	
1457	0	32900	32832	
1458	0	32874	32808	
1459	0	32836	32848	
1460	0	32844	32812	
1461	0	32816	32834	
1462	0	32824	32647	
1463	0	32784	32712	
1464	0	32688	32556	
1465	0	32620	32560	
1466	0	32672	32479	
1467	0	32710	32486	
1468	0	32668	32446	
1469	0	32672	32438	
1470	0	32640	32493	
1471	0	32718	32634	
1472	0	32738	32644	
1473	0	32816	32700	
1474	0	32808	32756	
1475	0	32820	32722	
1476	0	32852	32887	
1477	0	32836	32874	
1478	0	32836	32764	
1479	0	32872	32884	
1480	0	32808	32890	
1481	0	32940	32970	
1482	0	32864	32862	
1483	0	32840	32922	
1484	0	32896	32940	
1485	0	32816	32862	
1486	0	32920	32944	
1487	0	32876	32784	
1488	0	32812	32830	
1489	0	32894	32836	
1490	0	32836	32874	
1491	0	32826	32802	
1492	0	32852	32666	
1493	0	32864	32734	
1494	0	32868	32724	
1495	0	32852	32766	
1496	0	32804	32910	
1497	0	32770	32732	
1498	0	32812	32726	
1499	0	32812	32704	
1500	0	32858	32727	
1501	0	32920	32772	
1502	0	32840	32647	
1503	0	32766	32740	
1504	0	32778	32728	
1505	0	32784	32736	
1506	0	32840	32842	
1507	0	32784	32694	
1508	0	32708	32686	
1509	0	32772	32802	
1510	0	32836	32762	
1511	0	32808	32774	
1512	0	32860	32806	
1513	0	32772	32754	
1514	0	32830	32712	
1515	0	32786	32744	
1516	0	32768	32824	
1517	0	32828	32814	
1518	0	32820	32743	
1519	0	32836	32900	
1520	0	32824	32848	
1521	0	32816	32700	
1522	0	32788	32856	
1523	0	32784	32800	
1524	0	32828	32751	
1525	0	32752	32732	
1526	0	32792	32647	
1527	0	32752	32788	
1528	0	32800	32806	
1529	0	32852	32764	
1530	0	32816	32679	
1531	0	32801	32702	
1532	0	32808	32846	
1533	0	32780	32758	
1534	0	32788	32788	
1535	0	32808	32734	
1536	0	32812	32926	
1537	0	32750	32740	
1538	0	32780	32746	
1539	0	32868	32636	
1540	0	32772	32818	
1541	0	32840	32818	
1542	0	32804	32719	
1543	0	32824	32775	
1544	0	32762	32679	
1545	0	32800	32734	
1546	0	32820	32748	
1547	0	32788	32832	
1548	0	32824	32729	
1549	0	32808	32812	
1550	0	32848	32692	
1551	0	32780	32788	
1552	0	32832	32775	
1553	0	32782	32807	
1554	0	32792	32656	
1555	0	32844	32775	
1556	0	32810	32768	
1557	0	32790	32838	
1558	0	32798	32742	
1559	0	32896	32794	
1560	0	32804	32820	
1561	0	32896	32756	
1562	0	32796	32855	
1563	0	32818	32844	
1564	0	32858	32615	
1565	0	32828	32796	
1566	0	32840	32790	
1567	0	32828	32838	
1568	0	32816	32736	
1569	0	32754	32770	
1570	0	32736	32726	
1571	0	32858	32827	
1572	0	32802	32660	
1573	0	32754	32821	
1574	0	32808	32748	
1575	0	32736	32792	
1576	0	32824	32704	
1577	0	32824	32876	
1578	0	32852	32736	
1579	0	32796	32903	
1580	0	32780	32742	
1581	0	32852	32842	
1582	0	32800	32722	
1583	0	32802	32759	
1584	0	32880	32748	
1585	0	32785	32770	
1586	0	32792	32775	
1587	0	32826	32724	
1588	0	32778	32775	
1589	0	32798	32775	
1590	0	32740	32764	
1591	0	32812	32774	
1592	0	32808	32799	
1593	0	32852	32678	
1594	0	32856	32824	
1595	0	32812	32684	
1596	0	32836	32644	
1597	0	32848	32711	
1598	0	32853	32678	
1599	0	32836	32760	
1600	0	32812	32679	
1601	0	32826	32673	
1602	0	32822	32764	
1603	0	32796	32852	
1604	0	32792	32775	
1605	0	32768	32794	
1606	0	32756	32704	
1607	0	32792	32646	
1608	0	32800	32800	
1609	0	32852	32864	
1610	0	32818	32762	
1611	0	32828	32754	
1612	0	32782	32736	
1613	0	32802	32720	
1614	0	32810	32775	
1615	0	32796	32814	
1616	0	32796	32772	
1617	0	32844	32695	
1618	0	32784	32646	
1619	0	32812	32748	
1620	0	32820	32860	
1621	0	32872	32846	
1622	0	32812	32792	
1623	0	32826	32732	
1624	0	32800	32764	
1625	0	32786	32800	
1626	0	32808	32862	
1627	0	32778	32762	
1628	0	32844	32775	
1629	0	32804	32710	
1630	0	32817	32775	
1631	0	32918	32828	
1632	0	32792	32724	
1633	0	32848	32836	
1634	0	32830	32856	
1635	0	32828	32650	
1636	0	32800	32808	
1637	0	32804	32798	
1638	0	32782	32737	
1639	0	32810	32816	
1640	0	32784	32724	
1641	0	32832	32733	
1642	0	32856	32807	
1643	0	32800	32714	
1644	0	32796	32812	
1645	0	32804	32751	
1646	0	32848	32666	
1647	0	32824	32808	
1648	0	32814	32770	
1649	0	32814	32740	
1650	0	32748	32820	
1651	0	32775	32676	
1652	0	32812	32716	
1653	0	32847	32900	
1654	0	32818	32768	
1655	0	32808	32804	
1656	0	32804	32714	
1657	0	32774	32737	
1658	0	32812	32846	
1659	0	32876	32775	
1660	0	32826	32688	
1661	0	32856	32738	
1662	0	32796	32834	
1663	0	32772	32775	
1664	0	32792	32720	
1665	0	32724	32656	
1666	0	32840	32850	
1667	0	32792	32760	
1668	0	32832	32822	
1669	0	32802	32660	
1670	0	32824	32766	
1671	0	32804	32730	
1672	0	32808	32711	
1673	0	32854	32804	
1674	0	32804	32666	
1675	0	32820	32766	
1676	0	32778	32774	
1677	0	32736	32850	
1678	0	32804	32708	
1679	0	32784	32722	
1680	0	32816	32817	
1681	0	32830	32698	
1682	0	32828	32819	
1683	0	32796	32726	
1684	0	32776	32736	
1685	0	32844	32848	
1686	0	32814	32716	
1687	0	32846	32783	
1688	0	32836	32734	
1689	0	32812	32766	
1690	0	32848	32750	
1691	0	32760	32821	
1692	0	32808	32772	
1693	0	32775	32756	
1694	0	32792	32692	
1695	0	32784	32878	
1696	0	32836	32858	
1697	0	32848	32664	
1698	0	32786	32722	
1699	0	32788	32672	
1700	0	32808	32684	
1701	0	32810	32854	
1702	0	32748	32676	
1703	0	32836	32812	
1704	0	32804	32720	
1705	0	32820	32828	
1706	0	32792	32686	
1707	0	32908	32775	
1708	0	32776	32802	
1709	0	32860	32798	
1710	0	32798	32711	
1711	0	32810	32794	
1712	0	32740	32804	
1713	0	32778	32740	
1714	0	32789	32698	
1715	0	32838	32698	
1716	0	32792	32822	
1717	0	32820	32764	
1718	0	32798	32746	
1719	0	32812	32742	
1720	0	32808	32750	
1721	0	32792	32868	
1722	0	32776	32806	
1723	0	32776	32766	
1724	0	32804	32727	
1725	0	32880	32849	
1726	0	32865	32766	
1727	0	32804	32820	
1728	0	32864	32736	
1729	0	32854	32796	
1730	0	32799	32775	
1731	0	32799	32759	
1732	0	32814	32766	
1733	0	32848	32752	
1734	0	32782	32748	
1735	0	32792	32846	
1736	0	32782	32822	
1737	0	32812	32822	
1738	0	32836	32692	
1739	0	32730	32759	
1740	0	32760	32806	
1741	0	32849	32820	
1742	0	32844	32775	
1743	0	32812	32823	
1744	0	32782	32768	
1745	0	32868	32750	
1746	0	32928	32775	
1747	0	32780	32775	
1748	0	32808	32822	
1749	0	32884	32624	
1750	0	32824	32812	
1751	0	32884	32692	
1752	0	32738	32774	
1753	0	32830	32775	
1754	0	32860	32684	
1755	0	32772	32711	
1756	0	32840	32785	
1757	0	32880	32775	
1758	0	32848	32714	
1759	0	32856	32886	
1760	0	32832	32679	
1761	0	32800	32844	
1762	0	32748	32816	
1763	0	32804	32800	
1764	0	32872	32852	
1765	0	32772	32938	
1766	0	32808	32684	
1767	0	32784	32714	
1768	0	32832	32823	
1769	0	32796	32807	
1770	0	32820	32804	
1771	0	32900	32834	
1772	0	32830	32699	
1773	0	32822	32903	
1774	0	32874	32754	
1775	0	32810	32734	
1776	0	32762	32768	
1777	0	32812	32702	
1778	0	32788	32788	
1779	0	32850	32774	
1780	0	32764	32855	
1781	0	32816	32686	
1782	0	32890	32734	
1783	0	32828	32722	
1784	0	32784	32786	
1785	0	32780	32744	
1786	0	32766	32760	
1787	0	32720	32714	
1788	0	32764	32668	
1789	0	32896	32834	
1790	0	32784	32892	
1791	0	32840	32794	
1792	0	32788	32740	
1793	0	32876	32775	
1794	0	32908	32846	
1795	0	32816	32775	
1796	0	32844	32826	
1797	0	32820	32746	
1798	0	32800	32732	
1799	0	32790	32820	
1800	0	32764	32812	
1801	0	32806	32820	
1802	0	32798	32754	
1803	0	32794	32648	
1804	0	32708	32667	
1805	0	32806	32846	
1806	0	32772	32774	
1807	0	32782	32790	
1808	0	32869	32775	
1809	0	32848	32650	
1810	0	32768	32812	
1811	0	32816	32706	
1812	0	32872	32892	
1813	0	32836	32711	
1814	0	32809	32716	
1815	0	32840	32802	
1816	0	32786	32700	
1817	0	32790	32856	
1818	0	32776	32700	
1819	0	32862	32714	
1820	0	32820	32810	
1821	0	32864	32727	
1822	0	32780	32848	
1823	0	32816	32686	
1824	0	32742	32732	
1825	0	32788	32822	
1826	0	32816	32720	
1827	0	32848	32782	
1828	0	32800	32820	
1829	0	32840	32784	
1830	0	32756	32794	
1831	0	32808	32830	
1832	0	32810	32722	
1833	0	32804	32844	
1834	0	32804	32728	
1835	0	32850	32756	
1836	0	32832	32812	
1837	0	32772	32740	
1838	0	32810	32742	
1839	0	32842	32764	
1840	0	32788	32808	
1841	0	32832	32730	
1842	0	32772	32804	
1843	0	32760	32774	
1844	0	32828	32775	
1845	0	32862	32672	
1846	0	32820	32740	
1847	0	32816	32818	
1848	0	32806	32720	
1849	0	32808	32823	
1850	0	32762	32834	
1851	0	32840	32708	
1852	0	32852	32810	
1853	0	32823	32836	
1854	0	32832	32770	
1855	0	32840	32714	
1856	0	32804	32762	
1857	0	32822	32798	
1858	0	32836	32775	
1859	0	32758	32724	
1860	0	32754	32800	
1861	0	32820	32876	
1862	0	32860	32639	
1863	0	32804	32866	
1864	0	32852	32696	
1865	0	32884	32800	
1866	0	32760	32671	
1867	0	32852	32736	
1868	0	32860	32772	
1869	0	32776	32762	
1870	0	32832	32710	
1871	0	32772	32705	
1872	0	32792	32806	
1873	0	32738	32754	
1874	0	32776	32758	
1875	0	32774	32838	
1876	0	32836	32800	
1877	0	32840	32676	
1878	0	32870	32735	
1879	0	32768	32742	
1880	0	32828	32868	
1881	0	32780	32806	
1882	0	32806	32775	
1883	0	32788	32678	
1884	0	32794	32743	
1885	0	32788	32804	
1886	0	32794	32768	
1887	0	32824	32830	
1888	0	32784	32711	
1889	0	32880	32794	
1890	0	32812	32738	
1891	0	32776	32750	
1892	0	32860	32692	
1893	0	32778	32702	
1894	0	32784	32880	
1895	0	32824	32761	
1896	0	32832	32775	
1897	0	32870	32700	
1898	0	32752	32884	
1899	0	32788	32744	
1900	0	32766	32814	
1901	0	32846	32704	
1902	0	32764	32743	
1903	0	32868	32800	
1904	0	32880	32775	
1905	0	32848	32874	
1906	0	32792	32724	
1907	0	32768	32807	
1908	0	32728	32774	
1909	0	32842	32700	
1910	0	32836	32770	
1911	0	32820	32686	
1912	0	32850	32766	
1913	0	32760	32871	
1914	0	32756	32740	
1915	0	32864	32690	
1916	0	32808	32766	
1917	0	32772	32835	
1918	0	32840	32630	
1919	0	32804	32769	
1920	0	32844	32790	
1921	0	32808	32734	
1922	0	32788	32832	
1923	0	32834	32839	
1924	0	32760	32775	
1925	0	32830	32816	
1926	0	32756	32839	
1927	0	32816	32718	
1928	0	32852	32768	
1929	0	32880	32860	
1930	0	32826	32838	
1931	0	32796	32775	
1932	0	32796	32704	
1933	0	32816	32728	
1934	0	32816	32732	
1935	0	32800	32868	
1936	0	32860	32660	
1937	0	32888	32738	
1938	0	32828	32820	
1939	0	32820	32734	
1940	0	32772	32855	
1941	0	32798	32842	
1942	0	32834	32686	
1943	0	32824	32743	
1944	0	32738	32716	
1945	0	32836	32772	
1946	0	32824	32818	
1947	0	32760	32864	
1948	0	32840	32668	
1949	0	32836	32726	
1950	0	32854	32759	
1951	0	32840	32743	
1952	0	32792	32716	
1953	0	32822	32874	
1954	0	32812	32730	
1955	0	32820	32762	
1956	0	32812	32862	
1957	0	32768	32744	
1958	0	32770	32846	
1959	0	32808	32710	
1960	0	32774	32730	
1961	0	32864	32830	
1962	0	32808	32696	
1963	0	32820	32775	
1964	0	32788	32812	
1965	0	32740	32678	
1966	0	32838	32668	
1967	0	32740	32784	
1968	0	32842	32849	
1969	0	32826	32775	
1970	0	32812	32826	
1971	0	32769	32766	
1972	0	32774	32618	
1973	0	32788	32684	
1974	0	32828	32836	
1975	0	32794	32732	
1976	0	32868	32812	
1977	0	32824	32720	
1978	0	32794	32816	
1979	0	32849	32762	
1980	0	32812	32846	
1981	0	32838	32732	
1982	0	32812	32802	
1983	0	32836	32704	
1984	0	32770	32775	
1985	0	32788	32842	
1986	0	32812	32802	
1987	0	32808	32874	
1988	0	32774	32688	
1989	0	32800	32647	
1990	0	32782	32780	
1991	0	32832	32793	
1992	0	32900	32724	
1993	0	32792	32714	
1994	0	32804	32708	
1995	0	32820	32860	
1996	0	32870	32669	
1997	0	32824	32755	
1998	0	32848	32660	
1999	0	32756	32678	
2000	0	32796	32656	
2001	0	32784	32842	
2002	0	32764	32782	
2003	0	32792	32810	
2004	0	32752	32716	
2005	0	32756	32656	
2006	0	32804	32796	
2007	0	32738	32800	
2008	0	32816	32775	
2009	0	32836	32718	
2010	0	32896	32750	
2011	0	32800	32775	
2012	0	32836	32838	
2013	0	32808	32678	
2014	0	32832	32880	
2015	0	32776	32734	
2016	0	32766	32916	
2017	0	32720	32686	
2018	0	32836	32764	
2019	0	32814	32790	
2020	0	32800	32896	
2021	0	32816	32788	
2022	0	32748	32682	
2023	0	32756	32838	
2024	0	32838	32744	
2025	0	32838	32722	
2026	0	32844	32714	
2027	0	32838	32823	
2028	0	32874	32782	
2029	0	32778	32828	
2030	0	32792	32636	
2031	0	32847	32848	
2032	0	32824	32694	
2033	0	32798	32839	
2034	0	32788	32772	
2035	0	32864	32711	
2036	0	32788	32860	
2037	0	32798	32764	
2038	0	32824	32759	
2039	0	32842	32746	
2040	0	32800	32660	
2041	0	32804	32738	
2042	0	32800	32828	
2043	0	32806	32775	
2044	0	32788	32734	
2045	0	32788	32654	
2046	0	32768	32775	
2047	0	32872	32775	
2048	0	32792	32708	
2049	0	32842	32786	
2050	0	32856	32707	
2051	0	32820	32722	
2052	0	32834	32775	
2053	0	32788	32812	
2054	0	32850	32728	
2055	0	32808	32737	
2056	0	32758	32774	
2057	0	32804	32817	
2058	0	32804	32775	
2059	0	32868	32743	
2060	0	32832	32702	
2061	0	32788	32850	
2062	0	32770	32810	
2063	0	32810	32818	
2064	0	32796	32740	
2065	0	32814	32774	
2066	0	32800	32836	
2067	0	32768	32793	
2068	0	32846	32814	
2069	0	32826	32679	
2070	0	32838	32735	
2071	0	32766	32770	
2072	0	32730	32770	
2073	0	32768	32672	
2074	0	32804	32670	
2075	0	32816	32744	
2076	0	32820	32832	
2077	0	32874	32770	
2078	0	32874	32816	
2079	0	32808	32742	
2080	0	32838	32658	
2081	0	32774	32806	
2082	0	32864	32872	
2083	0	32856	32824	
2084	0	32812	32826	
2085	0	32820	32718	
2086	0	32827	32782	
2087	0	32780	32805	
2088	0	32768	32774	
2089	0	32824	32772	
2090	0	32798	32744	
2091	0	32852	32742	
2092	0	32772	32876	
2093	0	32878	32818	
2094	0	32808	32775	
2095	0	32880	32794	
2096	0	32810	32751	
2097	0	32916	32903	
2098	0	32860	32736	
2099	0	32834	32774	
2100	0	32806	32772	
2101	0	32800	32775	
2102	0	32852	32804	
2103	0	32868	32839	
2104	0	32814	32824	
2105	0	32818	32812	
2106	0	32808	32736	
2107	0	32782	32775	
2108	0	32792	32854	
2109	0	32740	32871	
2110	0	32860	32848	
2111	0	32800	32711	
2112	0	32836	32770	
2113	0	32890	32910	
2114	0	32856	32866	
2115	0	32828	32836	
2116	0	32888	32764	
2117	0	32938	32811	
2118	0	32828	32854	
2119	0	32796	32753	
2120	0	32758	32738	
2121	0	32712	32670	
2122	0	32692	32422	
2123	0	32732	32480	
2124	0	32642	32498	
2125	0	32616	32402	
2126	0	32544	32362	
2127	0	32642	32480	
2128	0	32672	32495	
2129	0	32760	32678	
2130	0	32744	32775	
2131	0	32844	32732	
2132	0	32924	32844	
2133	0	32820	32944	
2134	0	32768	32766	
2135	0	32836	32880	
2136	0	32902	32897	
2137	0	32825	32862	
2138	0	32820	32936	
2139	0	32872	32876	
2140	0	32916	32998	
2141	0	32906	32940	
2142	0	32866	32916	
2143	0	32846	32815	
2144	0	32820	32870	
2145	0	32892	32792	
2146	0	32830	32874	
2147	0	32856	32839	
2148	0	32856	32770	
2149	0	32844	32874	
2150	0	32810	32796	
2151	0	32884	32759	
2152	0	32834	32694	
2153	0	32748	32834	
2154	0	32806	32786	
2155	0	32916	32730	
2156	0	32788	32706	
2157	0	32804	32802	
2158	0	32762	32692	
2159	0	32772	32810	
2160	0	32808	32679	
2161	0	32768	32710	
2162	0	32786	32688	
2163	0	32884	32794	
2164	0	32836	32710	
2165	0	32764	32746	
2166	0	32824	32724	
2167	0	32772	32774	
2168	0	32768	32750	
2169	0	32832	32748	
2170	0	32834	32746	
2171	0	32818	32814	
2172	0	32844	32708	
2173	0	32808	32775	
2174	0	32800	32768	
2175	0	32748	32742	
2176	0	32768	32698	
2177	0	32806	32747	
2178	0	32793	32798	
2179	0	32756	32791	
2180	0	32748	32774	
2181	0	32836	32738	
2182	0	32860	32784	
2183	0	32816	32850	
2184	0	32770	32682	
2185	0	32816	32668	
2186	0	32860	32711	
2187	0	32848	32839	
2188	0	32776	32896	
2189	0	32800	32726	
2190	0	32808	32824	
2191	0	32804	32711	
2192	0	32812	32679	
2193	0	32808	32734	
2194	0	32868	32802	
2195	0	32780	32746	
2196	0	32822	32862	
2197	0	32800	32824	
2198	0	32808	32724	
2199	0	32832	32708	
2200	0	32820	32758	
2201	0	32804	32711	
2202	0	32828	32775	
2203	0	32752	32754	
2204	0	32786	32711	
2205	0	32856	32704	
2206	0	32846	32822	
2207	0	32734	32784	
2208	0	32816	32820	
2209	0	32812	32746	
2210	0	32836	32682	
2211	0	32858	32775	
2212	0	32884	32761	
2213	0	32776	32843	
2214	0	32754	32690	
2215	0	32842	32824	
2216	0	32775	32694	
2217	0	32833	32812	
2218	0	32840	32834	
2219	0	32788	32754	
2220	0	32776	32838	
2221	0	32786	32814	
2222	0	32780	32644	
2223	0	32852	32775	
2224	0	32828	32816	
2225	0	32860	32770	
2226	0	32720	32700	
2227	0	32820	32744	
2228	0	32790	32796	
2229	0	32836	32775	
2230	0	32816	32718	
2231	0	32846	32868	
2232	0	32866	32676	
2233	0	32736	32735	
2234	0	32802	32770	
2235	0	32800	32812	
2236	0	32832	32746	
2237	0	32800	32788	
2238	0	32776	32670	
2239	0	32858	32677	
2240	0	32790	32775	
2241	0	32802	32775	
2242	0	32810	32932	
2243	0	32778	32775	
2244	0	32908	32706	
2245	0	32828	32694	
2246	0	32816	32724	
2247	0	32754	32834	
2248	0	32834	32775	
2249	0	32824	32807	
2250	0	32890	32743	
2251	0	32814	32684	
2252	0	32790	32756	
2253	0	32852	32819	
2254	0	32826	32688	
2255	0	32814	32766	
2256	0	32760	32694	
2257	0	32824	32640	
2258	0	32776	32785	
2259	0	32808	32846	
2260	0	32826	32944	
2261	0	32800	32892	
2262	0	32794	32682	
2263	0	32804	32718	
2264	0	32824	32804	
2265	0	32816	32736	
2266	0	32792	32766	
2267	0	32754	32742	
2268	0	32804	32753	
2269	0	32808	32676	
2270	0	32890	32775	
2271	0	32820	32826	
2272	0	32808	32748	
2273	0	32842	32839	
2274	0	32842	32822	
2275	0	32820	32668	
2276	0	32796	32784	
2277	0	32768	32804	
2278	0	32866	32743	
2279	0	32772	32682	
2280	0	32804	32820	
2281	0	32820	32775	
2282	0	32772	32695	
2283	0	32774	32750	
2284	0	32732	32726	
2285	0	32820	32860	
2286	0	32816	32750	
2287	0	32774	32775	
2288	0	32832	32714	
2289	0	32820	32742	
2290	0	32882	32746	
2291	0	32864	32814	
2292	0	32820	32662	
2293	0	32792	32870	
2294	0	32800	32748	
2295	0	32816	32732	
2296	0	32790	32823	
2297	0	32840	32814	
2298	0	32804	32760	
2299	0	32860	32738	
2300	0	32810	32792	
2301	0	32800	32788	
2302	0	32838	32862	
2303	0	32780	32694	
2304	0	32852	32900	
2305	0	32786	32735	
2306	0	32760	32766	
2307	0	32852	32716	
2308	0	32806	32702	
2309	0	32764	32854	
2310	0	32808	32824	
2311	0	32832	32722	
2312	0	32808	32700	
2313	0	32836	32828	
2314	0	32820	32758	
2315	0	32896	32748	
2316	0	32814	32643	
2317	0	32752	32775	
2318	0	32772	32788	
2319	0	32808	32739	
2320	0	32854	32672	
2321	0	32804	32736	
2322	0	32852	32832	
2323	0	32804	32758	
2324	0	32892	32696	
2325	0	32804	32775	
2326	0	32808	32775	
2327	0	32836	32808	
2328	0	32792	32673	
2329	0	32780	32762	
2330	0	32816	32792	
2331	0	32840	32806	
2332	0	32784	32680	
2333	0	32828	32727	
2334	0	32828	32814	
2335	0	32832	32774	
2336	0	32806	32788	
2337	0	32824	32758	
2338	0	32840	32742	
2339	0	32786	32805	
2340	0	32706	32634	
2341	0	32836	32775	
2342	0	32858	32903	
2343	0	32730	32692	
2344	0	32838	32730	
2345	0	32800	32774	
2346	0	32841	32768	
2347	0	32792	32812	
2348	0	32812	32772	
2349	0	32784	32727	
2350	0	32824	32752	
2351	0	32752	32846	
2352	0	32732	32775	
2353	0	32768	32843	
2354	0	32828	32697	
2355	0	32856	32834	
2356	0	32774	32714	
2357	0	32834	32810	
2358	0	32888	32607	
2359	0	32822	32775	
2360	0	32856	32762	
2361	0	32798	32722	
2362	0	32790	32906	
2363	0	32804	32758	
2364	0	32800	32822	
2365	0	32784	32705	
2366	0	32834	32756	
2367	0	32826	32810	
2368	0	32748	32822	
2369	0	32848	32736	
2370	0	32784	32798	
2371	0	32874	32774	
2372	0	32778	32734	
2373	0	32852	32804	
2374	0	32800	32762	
2375	0	32810	32705	
2376	0	32824	32675	
2377	0	32820	32735	
2378	0	32788	32836	
2379	0	32820	32708	
2380	0	32772	32846	
2381	0	32808	32839	
2382	0	32852	32710	
2383	0	32814	32790	
2384	0	32870	32871	
2385	0	32748	32800	
2386	0	32804	32694	
2387	0	32758	32798	
2388	0	32762	32810	
2389	0	32812	32807	
2390	0	32788	32775	
2391	0	32769	32756	
2392	0	32808	32716	
2393	0	32792	32868	
2394	0	32872	32794	
2395	0	32850	32775	
2396	0	32808	32612	
2397	0	32752	32824	
2398	0	32820	32764	
2399	0	32784	32746	
2400	0	32822	32774	
2401	0	32788	32660	
2402	0	32836	32750	
2403	0	32784	32828	
2404	0	32800	32742	
2405	0	32868	32808	
2406	0	32817	32734	
2407	0	32864	32806	
2408	0	32780	32830	
2409	0	32760	32722	
2410	0	32760	32826	
2411	0	32804	32794	
2412	0	32774	32850	
2413	0	32784	32730	
2414	0	32834	32854	
2415	0	32820	32828	
2416	0	32844	32740	
2417	0	32840	32775	
2418	0	32784	32686	
2419	0	32816	32719	
2420	0	32784	32730	
2421	0	32832	32706	
2422	0	32820	32791	
2423	0	32848	32806	
2424	0	32769	32721	
2425	0	32812	32772	
2426	0	32812	32944	
2427	0	32780	32769	
2428	0	32856	32784	
2429	0	32876	32774	
2430	0	32800	32664	
2431	0	32872	32709	
2432	0	32838	32736	
2433	0	32868	32698	
2434	0	32819	32736	
2435	0	32840	32775	
2436	0	32834	32676	
2437	0	32776	32729	
2438	0	32836	32766	
2439	0	32848	32821	
2440	0	32752	32737	
2441	0	32800	32758	
2442	0	32784	32764	
2443	0	32808	32775	
2444	0	32864	32724	
2445	0	32734	32775	
2446	0	32788	32786	
2447	0	32826	32822	
2448	0	32892	32668	
2449	0	32796	32792	
2450	0	32840	32744	
2451	0	32798	32626	
2452	0	32716	32700	
2453	0	32764	32822	
2454	0	32744	32774	
2455	0	32812	32636	
2456	0	32836	32796	
2457	0	32850	32748	
2458	0	32822	32804	
2459	0	32820	32769	
2460	0	32820	32744	
2461	0	32860	32846	
2462	0	32804	32774	
2463	0	32830	32839	
2464	0	32746	32775	
2465	0	32868	32775	
2466	0	32836	32656	
2467	0	32778	32758	
2468	0	32802	32808	
2469	0	32846	32839	
2470	0	32816	32700	
2471	0	32769	32775	
2472	0	32810	32890	
2473	0	32864	32714	
2474	0	32866	32711	
2475	0	32868	32874	
2476	0	32792	32730	
2477	0	32784	32769	
2478	0	32842	32670	
2479	0	32852	32692	
2480	0	32790	32791	
2481	0	32812	32764	
2482	0	32836	32834	
2483	0	32812	32654	
2484	0	32848	32726	
2485	0	32736	32796	
2486	0	32756	32807	
2487	0	32768	32775	
2488	0	32774	32858	
2489	0	32848	32678	
2490	0	32881	32770	
2491	0	32796	32802	
2492	0	32834	32790	
2493	0	32828	32736	
2494	0	32786	32744	
2495	0	32848	32718	
2496	0	32796	32760	
2497	0	32788	32810	
2498	0	32780	32858	
2499	0	32871	32812	
2500	0	32818	32756	
2501	0	32796	32628	
2502	0	32804	32775	
2503	0	32756	32836	
2504	0	32774	32744	
2505	0	32826	32670	
2506	0	32790	32721	
2507	0	32800	32741	
2508	0	32824	32742	
2509	0	32802	32692	
2510	0	32824	32826	
2511	0	32876	32726	
2512	0	32852	32660	
2513	0	32796	32764	
2514	0	32802	32852	
2515	0	32820	32838	
2516	0	32796	32791	
2517	0	32844	32772	
2518	0	32840	32884	
2519	0	32816	32843	
2520	0	32796	32838	
2521	0	32820	32708	
2522	0	32812	32802	
2523	0	32800	32792	
2524	0	32812	32806	
2525	0	32788	32700	
2526	0	32782	32736	
2527	0	32780	32842	
2528	0	32800	32775	
2529	0	32852	32775	
2530	0	32772	32662	
2531	0	32840	32650	
2532	0	32796	32678	
2533	0	32804	32758	
2534	0	32872	32828	
2535	0	32808	32772	
2536	0	32816	32692	
2537	0	32828	32750	
2538	0	32804	32726	
2539	0	32872	32848	
2540	0	32852	32718	
2541	0	32860	32790	
2542	0	32820	32832	
2543	0	32768	32852	
2544	0	32740	32647	
2545	0	32796	32730	
2546	0	32836	32808	
2547	0	32872	32714	
2548	0	32808	32796	
2549	0	32840	32668	
2550	0	32818	32734	
2551	0	32784	32833	
2552	0	32758	32716	
2553	0	32824	32874	
2554	0	32862	32726	
2555	0	32828	32878	
2556	0	32824	32818	
2557	0	32760	32775	
2558	0	32826	32775	
2559	0	32812	32638	
2560	0	32794	32802	
2561	0	32788	32743	
2562	0	32788	32828	
2563	0	32836	32698	
2564	0	32752	32762	
2565	0	32780	32812	
2566	0	32884	32769	
2567	0	32804	32846	
2568	0	32832	32619	
2569	0	32808	32692	
2570	0	32752	32664	
2571	0	32792	32676	
2572	0	32836	32700	
2573	0	32744	32719	
2574	0	32784	32769	
2575	0	32804	32744	
2576	0	32822	32838	
2577	0	32772	32746	
2578	0	32858	32805	
2579	0	32810	32830	
2580	0	32825	32885	
2581	0	32810	32791	
2582	0	32858	32884	
2583	0	32810	32748	
2584	0	32864	32746	
2585	0	32830	32714	
2586	0	32712	32903	
2587	0	32872	32741	
2588	0	32864	32746	
2589	0	32816	32696	
2590	0	32866	32694	
2591	0	32836	32855	
2592	0	32828	32808	
2593	0	32832	32716	
2594	0	32780	32655	
2595	0	32828	32736	
2596	0	32796	32770	
2597	0	32810	32798	
2598	0	32818	32768	
2599	0	32836	32735	
2600	0	32816	32724	
2601	0	32844	32836	
2602	0	32806	32823	
2603	0	32888	32823	
2604	0	32768	32802	
2605	0	32772	32764	
2606	0	32840	32862	
2607	0	32852	32792	
2608	0	32828	32858	
2609	0	32864	32744	
2610	0	32832	32690	
2611	0	32836	32690	
2612	0	32840	32764	
2613	0	32732	32647	
2614	0	32796	32656	
2615	0	32836	32862	
2616	0	32874	32796	
2617	0	32804	32830	
2618	0	32730	32696	
2619	0	32834	32807	
2620	0	32804	32766	
2621	0	32828	32716	
2622	0	32784	32750	
2623	0	32752	32769	
2624	0	32840	32775	
2625	0	32792	32832	
2626	0	32760	32718	
2627	0	32846	32599	
2628	0	32836	32656	
2629	0	32848	32678	
2630	0	32862	32807	
2631	0	32804	32819	
2632	0	32796	32684	
2633	0	32820	32774	
2634	0	32752	32870	
2635	0	32800	33066	
2636	0	32872	32911	
2637	0	32864	32967	
2638	0	32860	32922	
2639	0	32732	32932	
2640	0	32868	32872	
2641	0	32808	32655	
2642	0	32810	32720	
2643	0	32764	32772	
2644	0	32820	32758	
2645	0	32760	32863	
2646	0	32716	32790	
2647	0	32712	32718	
2648	0	32740	32794	
2649	0	32656	32864	
2650	0	32756	32775	
2651	0	32888	32852	
2652	0	32840	32864	
2653	0	32780	32847	
2654	0	32846	32852	
2655	0	32852	32728	
2656	0	32834	32756	
2657	0	32780	32660	
2658	0	32808	32538	
2659	0	32818	32556	
2660	0	32830	32686	
2661	0	32844	32600	
2662	0	32856	32630	
2663	0	32852	32710	
2664	0	32832	32656	
2665	0	32868	32660	
2666	0	32846	32620	
2667	0	32836	32720	
2668	0	32840	32734	
2669	0	32844	32836	
2670	0	32834	32796	
2671	0	32854	32824	
2672	0	32781	32839	
2673	0	32800	33031	
2674	0	32756	32890	
2675	0	32796	32878	
2676	0	32776	32929	
2677	0	32812	32775	
2678	0	32730	32738	
2679	0	32816	32802	
2680	0	32784	32666	
2681	0	32802	32818	
2682	0	32780	32647	
2683	0	32832	32624	
2684	0	32844	32709	
2685	0	32786	32775	
2686	0	32852	32810	
2687	0	32814	32752	
2688	0	32788	32719	
2689	0	32810	32742	
2690	0	32896	32814	
2691	0	32884	32852	
2692	0	32800	32802	
2693	0	32774	32775	
2694	0	32820	32604	
2695	0	32784	32692	
2696	0	32812	32730	
2697	0	32916	32708	
2698	0	32890	32743	
2699	0	32845	32688	
2700	0	32840	32801	
2701	0	32872	32785	
2702	0	32808	32923	
2703	0	32800	32740	
2704	0	32750	32772	
2705	0	32724	32935	
2706	0	32722	32964	
2707	0	32730	32998	
2708	0	32816	33046	
2709	0	32844	32844	
2710	0	32874	32880	
2711	0	32826	32814	
2712	0	32800	32928	
2713	0	32896	32706	
2714	0	32936	32852	
2715	0	32904	32798	
2716	0	32900	32770	
2717	0	32784	32647	
2718	0	32732	32676	
2719	0	32904	32574	
2720	0	32784	32539	
2721	0	32712	32680	
2722	0	32744	32548	
2723	0	32644	32462	
2724	0	32656	32560	
2725	0	32580	32486	
2726	0	32636	32572	
2727	0	32628	32620	
2728	0	32672	32682	
2729	0	32766	32798	
2730	0	32656	32752	
2731	0	32778	32727	
2732	0	32800	33052	
2733	0	32836	33070	
2734	0	32880	33132	
2735	0	32892	33216	
2736	0	32970	33014	
2737	0	32896	33058	
2738	0	32924	32834	
2739	0	32976	32836	
2740	0	32944	32876	
2741	0	32888	32958	
2742	0	32836	33008	
2743	0	32902	32775	
2744	0	32844	32922	
2745	0	32880	32775	
2746	0	32822	32614	
2747	0	32794	32572	
2748	0	32824	32775	
2749	0	32960	32734	
2750	0	32775	32775	
2751	0	32800	32696	
2752	0	32840	32446	
2753	0	32788	32548	
2754	0	32912	32476	
2755	0	32776	32478	
2756	0	32724	32417	
2757	0	32856	32532	
2758	0	32812	32647	
2759	0	32800	32711	
2760	0	32892	32916	
2761	0	32820	32916	
2762	0	32816	32903	
2763	0	32828	33054	
2764	0	32834	32958	
2765	0	32810	32968	
2766	0	32882	33039	
2767	0	32868	33068	
2768	0	32848	33212	
2769	0	32738	33052	
2770	0	32782	32998	
2771	0	32864	32916	
2772	0	32842	32925	
2773	0	32770	32772	
2774	0	32820	32487	
2775	0	32672	32507	
2776	0	32608	32342	
2777	0	32734	32326	
2778	0	32720	32167	
2779	0	32776	32289	
2780	0	32652	32286	
2781	0	32610	32339	
2782	0	32584	32406	
2783	0	32584	32558	
2784	0	32708	32626	
2785	0	32770	32718	
2786	0	32708	32760	
2787	0	32752	32846	
2788	0	32788	32743	
2789	0	32842	32838	
2790	0	32974	32673	
2791	0	33070	32636	
2792	0	33042	32646	
2793	0	32980	32774	
2794	0	32860	32912	
2795	0	32812	32774	
2796	0	32852	32844	
2797	0	32884	32730	
2798	0	32830	32756	
2799	0	32834	32738	
2800	0	32756	32604	
2801	0	32780	32596	
2802	0	32844	32588	
2803	0	32760	32844	
2804	0	32916	32640	
2805	0	32868	32756	
2806	0	32802	32852	
2807	0	32732	32886	
2808	0	32870	33046	
2809	0	32820	33202	
2810	0	32968	33054	
2811	0	32876	33062	
2812	0	32916	32918	
2813	0	32936	32932	
2814	0	32762	32830	
2815	0	32724	32888	
2816	0	32612	32952	
2817	0	32692	32903	
2818	0	32706	32938	
2819	0	32660	32864	
2820	0	32754	32842	
2821	0	32708	32612	
2822	0	32812	32558	
2823	0	32692	32391	
2824	0	32860	32423	
2825	0	32952	32516	
2826	0	32852	32694	
2827	0	32912	32748	
2828	0	32964	32944	
2829	0	32978	32900	
2830	0	32952	33285	
2831	0	32996	33048	
2832	0	32920	33222	
2833	0	32912	33120	
2834	0	32892	33239	
2835	0	32850	32992	
2836	0	32680	32714	
2837	0	32688	32772	
2838	0	32562	32724	
2839	0	32572	32892	
2840	0	32648	32868	
2841	0	32710	32848	
2842	0	32856	32764	
2843	0	32862	32712	
2844	0	32744	32711	
2845	0	32854	32535	
2846	0	32824	32599	
2847	0	32718	32420	
2848	0	32804	32278	
2849	0	32748	32320	
2850	0	32704	32303	
2851	0	32824	32490	
2852	0	32824	32378	
2853	0	32868	32516	
2854	0	32892	32839	
2855	0	32904	33048	
2856	0	32900	33063	
2857	0	32784	32999	
2858	0	32724	33167	
2859	0	32758	33186	
2860	0	32876	32988	
2861	0	32860	32718	
2862	0	32924	32738	
2863	0	32992	32853	
2864	0	32928	33000	
2865	0	32888	32954	
2866	0	32708	32775	
2867	0	32832	32870	
2868	0	32854	32743	
2869	0	32976	32622	
2870	0	33152	32572	
2871	0	33108	32647	
2872	0	33128	32756	
2873	0	32766	32605	
2874	0	32684	32616	
2875	0	32560	32484	
2876	0	32480	32474	
2877	0	32444	32554	
2878	0	32390	32690	
2879	0	32524	32943	
2880	0	32820	32996	
2881	0	32666	33068	
2882	0	32752	33048	
2883	0	32810	32846	
2884	0	32836	32870	
2885	0	32820	32932	
2886	0	32824	32964	
2887	0	32820	32838	
2888	0	32672	32858	
2889	0	32656	32838	
2890	0	32732	32894	
2891	0	32960	32952	
2892	0	33106	32976	
2893	0	33376	32740	
2894	0	33208	32480	
2895	0	33124	32204	
2896	0	32968	32207	
2897	0	32898	32066	
2898	0	32704	31848	
2899	0	32592	32046	
2900	0	32672	32398	
2901	0	32784	32442	
2902	0	32860	32939	
2903	0	32720	33070	
2904	0	32768	33326	
2905	0	32852	33258	
2906	0	32738	33540	
2907	0	32824	33278	
2908	0	32740	33172	
2909	0	32656	33287	
2910	0	32644	33314	
2911	0	32712	33223	
2912	0	32760	33011	
2913	0	32752	32751	
2914	0	32740	32718	
2915	0	32832	32576	
2916	0	32788	32446	
2917	0	32842	32534	
2918	0	33116	32220	
2919	0	33080	32234	
2920	0	33044	32420	
2921	0	33100	32276	
2922	0	32673	32496	
2923	0	32672	32721	
2924	0	32736	32660	
2925	0	32830	32658	
2926	0	32900	32484	
2927	0	32788	32628	
2928	0	32740	32600	
2929	0	32640	32593	
2930	0	32736	32746	
2931	0	32766	32831	
2932	0	32865	33108	
2933	0	32984	33274	
2934	0	32616	33110	
2935	0	32624	33223	
2936	0	32564	33344	
2937	0	32468	33158	
2938	0	32628	32970	
2939	0	32908	32882	
2940	0	33352	33004	
2941	0	33464	33114	
2942	0	33304	32824	
2943	0	33150	32672	
2944	0	32730	32700	
2945	0	32550	32610	
2946	0	32344	32528	
2947	0	32592	32388	
2948	0	32848	32495	
2949	0	32824	32581	
2950	0	32652	32632	
2951	0	32900	32550	
2952	0	32804	32785	
2953	0	32878	32876	
2954	0	32814	32674	
2955	0	32680	32112	
2956	0	32600	31976	
2957	0	32399	32164	
2958	0	32526	32454	
2959	0	32596	32660	
2960	0	32568	32800	
2961	0	32842	33310	
2962	0	33100	33646	
2963	0	32894	33542	
2964	0	32906	33364	
2965	0	33100	33295	
2966	0	33156	33150	
2967	0	33002	33112	
2968	0	33036	32903	
2969	0	32722	32647	
2970	0	32610	32345	
2971	0	32536	32489	
2972	0	32868	32896	
2973	0	33048	32794	
2974	0	33038	32800	
2975	0	32902	32912	
2976	0	32948	32870	
2977	0	32948	32692	
2978	0	32906	32775	
2979	0	32896	32706	
2980	0	33108	32814	
2981	0	32840	32854	
2982	0	32775	32974	
2983	0	32924	32647	
2984	0	32660	32346	
2985	0	32872	32242	
2986	0	33140	32366	
2987	0	32852	32496	
2988	0	32890	32352	
2989	0	32458	32532	
2990	0	32480	32871	
2991	0	32324	33222	
2992	0	32174	33132	
2993	0	32232	33026	
2994	0	32676	32838	
2995	0	32788	32747	
2996	0	32604	32396	
2997	0	32418	32278	
2998	0	32370	32276	
2999	0	32572	32472	
3000	0	33008	32626	
3001	0	33130	32938	
3002	0	33028	33143	
3003	0	32992	33123	
3004	0	32748	32927	
3005	0	32698	33248	
3006	0	32784	33156	
3007	0	33068	32774	
3008	0	33112	32828	
3009	0	33324	32652	
3010	0	33172	32872	
3011	0	33268	32548	
3012	0	33036	32799	
3013	0	32830	32852	
3014	0	33102	32583	
3015	0	33104	32168	
3016	0	33244	32248	
3017	0	33376	32010	
3018	0	32982	32434	
3019	0	32668	32548	
3020	0	32212	32775	
3021	0	32132	33516	
3022	0	32396	33599	
3023	0	32328	33390	
3024	0	32580	33084	
3025	0	32668	33095	
3026	0	32380	33052	
3027	0	32448	32992	
3028	0	32484	32824	
3029	0	32764	32824	
3030	0	32796	32775	
3031	0	32844	32784	
3032	0	32784	32536	
3033	0	32812	32224	
3034	0	33144	32070	
3035	0	33180	32256	
3036	0	32996	32660	
3037	0	32752	32660	
3038	0	33168	32620	
3039	0	33080	32536	
3040	0	33064	32994	
3041	0	32796	33398	
3042	0	32792	33142	
3043	0	32368	32924	
3044	0	32248	33052	
3045	0	32036	32862	
3046	0	32148	32798	
3047	0	32500	32814	
3048	0	32482	32862	
3049	0	32414	32917	
3050	0	32352	32936	
3051	0	32996	32999	
3052	0	33712	32720	
3053	0	34100	32708	
3054	0	33900	32810	
3055	0	33736	32492	
3056	0	33327	32390	
3057	0	33346	32448	
3058	0	32900	32862	
3059	0	32792	33072	
3060	0	32728	32966	
3061	0	32468	32674	
3062	0	32640	32184	
3063	0	32524	31895	
3064	0	32934	32176	
3065	0	32502	32545	
3066	0	32600	32711	
3067	0	32682	32588	
3068	0	32684	32534	
3069	0	32992	32766	
3070	0	33118	32938	
3071	0	32558	33204	
3072	0	32742	33314	
3073	0	32724	32960	
3074	0	32762	32871	
3075	0	32610	32854	
3076	0	32448	32922	
3077	0	32872	32796	
3078	0	32816	32660	
3079	0	32544	32748	
3080	0	32868	33143	
3081	0	32952	33120	
3082	0	32580	32998	
3083	0	32624	32801	
3084	0	32752	32710	
3085	0	32588	32730	
3086	0	32696	32744	
3087	0	32738	32540	
3088	0	33088	32618	
3089	0	33402	33156	
3090	0	33644	33046	
3091	0	33436	32956	
3092	0	33554	33084	
3093	0	33208	32976	
3094	0	32968	32574	
3095	0	32794	32100	
3096	0	32164	32012	
3097	0	31836	32135	
3098	0	32168	31958	
3099	0	32720	31857	
3100	0	32584	32210	
3101	0	32836	32312	
3102	0	32934	32694	
3103	0	32692	33066	
3104	0	32572	33526	
3105	0	32372	33808	
3106	0	32228	33838	
3107	0	32710	33696	
3108	0	33308	33167	
3109	0	33380	32959	
3110	0	33372	32324	
3111	0	33238	32338	
3112	0	33084	32554	
3113	0	33316	32510	
3114	0	33620	32968	
3115	0	34222	32748	
3116	0	33160	32855	
3117	0	32446	32658	
3118	0	32516	32876	
3119	0	32278	32324	
3120	0	31876	32462	
3121	0	31682	32366	
3122	0	31656	32476	
3123	0	31728	32175	
3124	0	32216	32188	
3125	0	32330	32794	
3126	0	32874	32684	
3127	0	32680	32632	
3128	0	32972	33000	
3129	0	32832	33543	
3130	0	32820	33738	
3131	0	33100	33026	
3132	0	32906	33552	
3133	0	32404	34034	
3134	0	32016	33760	
3135	0	32384	33374	
3136	0	32814	33136	
3137	0	33116	32800	
3138	0	33048	32262	
3139	0	33116	32246	
3140	0	33434	32438	
3141	0	33258	32610	
3142	0	33308	32519	
3143	0	33140	32911	
3144	0	33032	32850	
3145	0	33030	32799	
3146	0	32706	32706	
3147	0	32624	32826	
3148	0	33580	32534	
3149	0	33592	32144	
3150	0	34324	32230	
3151	0	33568	32292	
3152	0	33158	32308	
3153	0	32968	32255	
3154	0	31976	32388	
3155	0	32476	32994	
3156	0	32072	33242	
3157	0	31496	33278	
3158	0	31812	33240	
3159	0	32320	33313	
3160	0	32996	33070	
3161	0	32912	32922	
3162	0	32814	32824	
3163	0	33204	32437	
3164	0	33062	32408	
3165	0	32552	32454	
3166	0	32488	32368	
3167	0	32744	32172	
3168	0	32488	32290	
3169	0	32972	32064	
3170	0	33160	31958	
3171	0	33120	32364	
3172	0	33488	32986	
3173	0	32964	33310	
3174	0	33176	33445	
3175	0	32712	33046	
3176	0	32884	32550	
3177	0	32682	32574	
3178	0	32504	32356	
3179	0	32390	32578	
3180	0	32848	33282	
3181	0	33392	33542	
3182	0	33048	33830	
3183	0	33120	33812	
3184	0	32916	33484	
3185	0	32516	32904	
3186	0	32288	32804	
3187	0	31928	32042	
3188	0	32336	32076	
3189	0	32548	32060	
3190	0	32824	31956	
3191	0	33416	31722	
3192	0	33560	31426	
3193	0	33287	31768	
3194	0	33232	32583	
3195	0	33384	32986	
3196	0	32804	33394	
3197	0	32164	33170	
3198	0	32404	33336	
3199	0	32912	33634	
3200	0	32626	33718	
3201	0	32896	33750	
3202	0	33208	33671	
3203	0	33204	33426	
3204	0	32948	33554	
3205	0	32172	33830	
3206	0	32288	33344	
3207	0	32468	32710	
3208	0	32720	32728	
3209	0	32660	33100	
3210	0	32736	33140	
3211	0	32970	33192	
3212	0	32944	33124	
3213	0	32928	32682	
3214	0	33462	32250	
3215	0	33300	32108	
3216	0	33072	31840	
3217	0	33376	31044	
3218	0	32302	31422	
3219	0	31978	31799	
3220	0	32644	32143	
3221	0	33040	32248	
3222	0	32524	32236	
3223	0	32520	32391	
3224	0	33002	32762	
3225	0	32820	32728	
3226	0	32548	32692	
3227	0	32078	32878	
3228	0	32202	32832	
3229	0	32378	33146	
3230	0	32528	33198	
3231	0	32772	33386	
3232	0	33040	33314	
3233	0	32856	33350	
3234	0	32924	33558	
3235	0	32920	31958	
3236	0	32220	31932	
3237	0	32220	32303	
3238	0	32786	32180	
3239	0	33532	32102	
3240	0	33844	31986	
3241	0	33812	31404	
3242	0	33632	31020	
3243	0	32496	32366	
3244	0	32156	34300	
3245	0	32244	34622	
3246	0	32676	35064	
3247	0	32792	35350	
3248	0	31968	35217	
3249	0	32312	34243	
3250	0	32406	33860	
3251	0	32676	34113	
3252	0	32622	34086	
3253	0	32700	33676	
3254	0	33342	32944	
3255	0	33928	32228	
3256	0	34132	31706	
3257	0	33454	31704	
3258	0	33124	31552	
3259	0	33120	31252	
3260	0	33068	31800	
3261	0	32444	32007	
3262	0	32004	31630	
3263	0	32190	31612	
3264	0	32310	31130	
3265	0	33013	31250	
3266	0	33130	31545	
3267	0	33110	32362	
3268	0	32746	33140	
3269	0	32768	33642	
3270	0	32956	33536	
3271	0	32854	33790	
3272	0	32262	33740	
3273	0	32576	33752	
3274	0	32792	33478	
3275	0	32890	33440	
3276	0	32968	33040	
3277	0	32766	32838	
3278	0	32724	32224	
3279	0	33084	31367	
3280	0	33346	31688	
3281	0	33344	31984	
3282	0	33178	32142	
3283	0	32618	32460	
3284	0	32292	32330	
3285	0	32360	32218	
3286	0	32712	31922	
3287	0	33016	32610	
3288	0	33116	33394	
3289	0	33258	33500	
3290	0	33812	33518	
3291	0	33040	33610	
3292	0	32486	33679	
3293	0	32188	33983	
3294	0	32486	33764	
3295	0	32680	33423	
3296	0	32516	33368	
3297	0	32104	32496	
3298	0	32180	32006	
3299	0	31962	32364	
3300	0	32464	32975	
3301	0	32828	32703	
3302	0	32850	31886	
3303	0	33544	32380	
3304	0	33114	32493	
3305	0	33426	32410	
3306	0	33386	32032	
3307	0	33120	32254	
3308	0	32800	32020	
3309	0	33208	31612	
3310	0	33060	31654	
3311	0	33210	32547	
3312	0	33128	32924	
3313	0	32724	33466	
3314	0	32506	34116	
3315	0	32412	34870	
3316	0	32582	35022	
3317	0	32582	35136	
3318	0	33136	34792	
3319	0	33128	34176	
3320	0	32520	33184	
3321	0	32108	31882	
3322	0	32320	32124	
3323	0	32204	32362	
3324	0	32462	31874	
3325	0	33238	31122	
3326	0	32205	30016	
3327	0	32214	30087	
3328	0	32694	30370	
3329	0	31996	30596	
3330	0	32916	30188	
3331	0	33114	30122	
3332	0	32376	30846	
3333	0	31458	32205	
3334	0	32192	33287	
3335	0	33116	33684	
3336	0	32684	34766	
3337	0	33584	35136	
3338	0	34788	35676	
3339	0	34336	36004	
3340	0	34548	36359	
3341	0	33652	37072	
3342	0	32924	36288	
3343	0	33200	35697	
3344	0	32808	34364	
3345	0	32640	33528	
3346	0	32988	32220	
3347	0	32928	32054	
3348	0	32592	31977	
3349	0	32484	31658	
3350	0	32340	31366	
3351	0	32012	31044	
3352	0	32800	30052	
3353	0	32650	30118	
3354	0	32592	30662	
3355	0	32344	30750	
3356	0	31584	30978	
3357	0	32060	30860	
3358	0	33068	31034	
3359	0	33192	31654	
3360	0	33344	32188	
3361	0	33259	33022	
3362	0	32692	33447	
3363	0	32272	33702	
3364	0	32632	33260	
3365	0	32750	33188	
3366	0	32588	33380	
3367	0	32412	33966	
3368	0	32496	33974	
3369	0	32500	33342	
3370	0	32578	32559	
3371	0	32778	33034	
3372	0	33612	33352	
3373	0	34142	33268	
3374	0	33968	32916	
3375	0	33272	33370	
3376	0	33662	33123	
3377	0	33308	32756	
3378	0	33012	33390	
3379	0	32146	33359	
3380	0	32638	33280	
3381	0	32428	33844	
3382	0	32288	33959	
3383	0	32502	33606	
3384	0	32692	32775	
3385	0	32572	31678	
3386	0	32746	29974	
3387	0	32492	30436	
3388	0	32384	30322	
3389	0	32222	30706	
3390	0	32664	31188	
3391	0	33326	31993	
3392	0	34064	32758	
3393	0	33670	33705	
3394	0	32718	33850	
3395	0	31834	33540	
3396	0	31968	33885	
3397	0	32356	34055	
3398	0	33340	33426	
3399	0	34508	32996	
3400	0	34081	33044	
3401	0	32592	33128	
3402	0	32720	33863	
3403	0	32940	34972	
3404	0	32460	35716	
3405	0	32156	34378	
3406	0	32154	34224	
3407	0	32772	33146	
3408	0	32788	30596	
3409	0	33360	29472	
3410	0	33252	29690	
3411	0	32505	30562	
3412	0	32416	31404	
3413	0	32352	31878	
3414	0	32576	32360	
3415	0	33164	33280	
3416	0	33118	33550	
3417	0	33426	34392	
3418	0	32584	34430	
3419	0	31824	33666	
3420	0	30888	33340	
3421	0	30868	33422	
3422	0	32548	33656	
3423	0	33242	33452	
3424	0	33596	32756	
3425	0	33384	32496	
3426	0	33826	31734	
3427	0	32828	31646	
3428	0	32868	31956	
3429	0	33256	32206	
3430	0	33460	32364	
3431	0	33606	32554	
3432	0	33786	33066	
3433	0	33304	33281	
3434	0	32774	33740	
3435	0	32158	33762	
3436	0	32284	33774	
3437	0	32558	33632	
3438	0	32660	33510	
3439	0	32850	33228	
3440	0	32362	32174	
3441	0	31932	31942	
3442	0	32036	31940	
3443	0	32400	30864	
3444	0	32458	30670	
3445	0	31428	30964	
3446	0	32268	32036	
3447	0	32642	33110	
3448	0	32604	33011	
3449	0	33908	33188	
3450	0	33812	33102	
3451	0	33816	32552	
3452	0	33520	32546	
3453	0	32886	32562	
3454	0	32508	33024	
3455	0	32428	33106	
3456	0	32964	33543	
3457	0	32752	33984	
3458	0	32584	34126	
3459	0	32754	34050	
3460	0	33218	33788	
3461	0	34044	33976	
3462	0	33860	33338	
3463	0	34180	32516	
3464	0	33164	31840	
3465	0	32724	31848	
3466	0	32516	32020	
3467	0	32276	32263	
3468	0	32860	32618	
3469	0	32500	32750	
3470	0	31990	32638	
3471	0	32250	32008	
3472	0	32716	31800	
3473	0	32992	31622	
3474	0	32780	32159	
3475	0	32324	31476	
3476	0	32410	31004	
3477	0	32432	31532	
3478	0	32614	31095	
3479	0	32740	31688	
3480	0	33236	32164	
3481	0	33170	31916	
3482	0	32908	32256	
3483	0	32750	33312	
3484	0	32524	33900	
3485	0	32124	34268	
3486	0	32612	34022	
3487	0	33410	35258	
3488	0	33104	35632	
3489	0	33596	35956	
3490	0	33088	35666	
3491	0	32983	35150	
3492	0	32706	33976	
3493	0	32476	33135	
3494	0	33026	32448	
3495	0	33180	31460	
3496	0	33132	30612	
3497	0	33416	31034	
3498	0	32892	30296	
3499	0	32832	29630	
3500	0	32574	30030	
3501	0	32320	30682	
3502	0	32356	31146	
3503	0	32548	31540	
3504	0	32814	32720	
3505	0	33592	34196	
3506	0	34128	34906	
3507	0	33676	35436	
3508	0	32952	35808	
3509	0	32446	35247	
3510	0	32324	34168	
3511	0	32704	33844	
3512	0	32576	33936	
3513	0	32367	33426	
3514	0	32010	32668	
3515	0	32222	32583	
3516	0	32364	33072	
3517	0	32975	32922	
3518	0	32608	32048	
3519	0	31848	32492	
3520	0	31992	32280	
3521	0	32018	31538	
3522	0	31976	31082	
3523	0	32330	31002	
3524	0	32832	29926	
3525	0	32746	30532	
3526	0	33056	30928	
3527	0	33240	31505	
3528	0	32946	32436	
3529	0	32944	32974	
3530	0	33188	33418	
3531	0	33380	34663	
3532	0	33474	34840	
3533	0	33656	35102	
3534	0	33304	34926	
3535	0	32802	34276	
3536	0	32364	32830	
3537	0	32152	31848	
3538	0	32236	31408	
3539	0	32444	32167	
3540	0	32894	32332	
3541	0	33868	32578	
3542	0	33652	33168	
3543	0	33404	33404	
3544	0	32584	33834	
3545	0	32682	34311	
3546	0	32853	34416	
3547	0	32566	34076	
3548	0	33088	33646	
3549	0	33180	32612	
3550	0	32780	32032	
3551	0	32624	31544	
3552	0	32690	30632	
3553	0	33104	30168	
3554	0	33212	30324	
3555	0	32928	30892	
3556	0	32536	31388	
3557	0	32176	32084	
3558	0	32434	32894	
3559	0	32725	33583	
3560	0	32778	33386	
3561	0	32712	33468	
3562	0	32692	33874	
3563	0	32532	33374	
3564	0	32684	32842	
3565	0	32432	32590	
3566	0	32378	32503	
3567	0	32932	32864	
3568	0	33682	33030	
3569	0	34000	33050	
3570	0	33400	33254	
3571	0	32880	33490	
3572	0	32786	33406	
3573	0	32536	33580	
3574	0	32432	31916	
3575	0	32608	30966	
3576	0	32898	31586	
3577	0	33080	32732	
3578	0	33072	33156	
3579	0	33008	33190	
3580	0	32672	33076	
3581	0	32796	32864	
3582	0	32600	32550	
3583	0	32604	32633	
3584	0	32856	32836	
3585	0	32862	32740	
3586	0	33028	32554	
3587	0	32268	32208	
3588	0	32454	31738	
3589	0	32684	32028	
3590	0	32840	33222	
3591	0	32904	33860	
3592	0	32876	35118	
3593	0	32952	35548	
3594	0	32912	35590	
3595	0	32839	35534	
3596	0	32720	34439	
3597	0	32484	33176	
3598	0	32480	31134	
3599	0	32782	30584	
3600	0	32884	30270	
3601	0	33262	29987	
3602	0	33286	29740	
3603	0	33008	31126	
3604	0	32988	32004	
3605	0	33102	32534	
3606	0	33042	32828	
3607	0	32816	32304	
3608	0	32658	32238	
3609	0	33240	32900	
3610	0	33288	32536	
3611	0	32160	33062	
3612	0	31545	33960	
3613	0	31956	33864	
3614	0	32150	34246	
3615	0	32134	34598	
3616	0	32872	35011	
3617	0	32578	35728	
3618	0	32552	35324	
3619	0	32688	35108	
3620	0	32872	34311	
3621	0	32750	33588	
3622	0	32820	33058	
3623	0	33118	32442	
3624	0	33052	32679	
3625	0	33382	32588	
3626	0	33602	32016	
3627	0	33166	31306	
3628	0	32928	30799	
3629	0	32770	30464	
3630	0	32580	30506	
3631	0	32368	30618	
3632	0	32506	30876	
3633	0	32756	30908	
3634	0	32756	30759	
3635	0	32878	30908	
3636	0	33068	30234	
3637	0	33102	30005	
3638	0	33008	30278	
3639	0	32868	31076	
3640	0	32852	32038	
3641	0	32856	33276	
3642	0	32917	34183	
3643	0	32834	34688	
3644	0	33064	35750	
3645	0	33210	36604	
3646	0	32970	36999	
3647	0	32736	36981	
3648	0	32432	36664	
3649	0	32594	36220	
3650	0	32544	35254	
3651	0	32664	34087	
3652	0	32992	32762	
3653	0	32694	31444	
3654	0	32512	30592	
3655	0	32628	30042	
3656	0	32670	29986	
3657	0	32866	30454	
3658	0	32928	31094	
3659	0	33064	31588	
3660	0	33224	32162	
3661	0	32924	32964	
3662	0	32716	33212	
3663	0	33020	33154	
3664	0	33082	32348	
3665	0	32980	32140	
3666	0	32866	31408	
3667	0	32864	30842	
3668	0	32704	30410	
3669	0	32676	30396	
3670	0	32652	30540	
3671	0	32516	31534	
3672	0	32584	31825	
3673	0	32624	31962	
3674	0	32800	32712	
3675	0	32940	33892	
3676	0	33104	34852	
3677	0	32832	36359	
3678	0	32879	36988	
3679	0	32968	37233	
3680	0	32878	37508	
3681	0	32820	37278	
3682	0	33070	36066	
3683	0	32968	34612	
3684	0	32852	33716	
3685	0	32844	32846	
3686	0	32768	31680	
3687	0	32578	30696	
3688	0	32560	30368	
3689	0	32664	28892	
3690	0	32662	28030	
3691	0	32828	28055	
3692	0	32708	28186	
3693	0	32628	28868	
3694	0	32938	30530	
3695	0	33066	31646	
3696	0	33024	33264	
3697	0	32836	33327	
3698	0	32433	33636	
3699	0	32356	34548	
3700	0	32399	35044	
3701	0	32650	35584	
3702	0	32774	36310	
3703	0	33186	36474	
3704	0	33296	35912	
3705	0	33320	35335	
3706	0	33108	34780	
3707	0	32919	33606	
3708	0	32808	33168	
3709	0	32608	33178	
3710	0	32536	32846	
3711	0	32736	33030	
3712	0	32668	33204	
3713	0	32588	33273	
3714	0	32748	32255	
3715	0	32792	31294	
3716	0	32776	30820	
3717	0	32775	30904	
3718	0	32598	31132	
3719	0	32500	30968	
3720	0	32736	29772	
3721	0	32752	30039	
3722	0	32744	30756	
3723	0	32872	31580	
3724	0	33068	32066	
3725	0	33166	32444	
3726	0	33026	33300	
3727	0	33096	33070	
3728	0	32992	33479	
3729	0	32852	33563	
3730	0	32820	33822	
3731	0	32864	34083	
3732	0	33036	34294	
3733	0	33116	34628	
3734	0	33004	34134	
3735	0	32828	34087	
3736	0	32940	34036	
3737	0	32798	33486	
3738	0	32628	32708	
3739	0	32554	32012	
3740	0	32616	31780	
3741	0	32656	31974	
3742	0	32564	31642	
3743	0	32612	31868	
3744	0	32648	31463	
3745	0	32748	31366	
3746	0	32802	31430	
3747	0	32888	31722	
3748	0	32750	31399	
3749	0	32650	31710	
3750	0	32844	32248	
3751	0	32868	32608	
3752	0	32940	32670	
3753	0	32926	32800	
3754	0	32816	33140	
3755	0	32978	33374	
3756	0	33120	33425	
3757	0	33280	33312	
3758	0	33168	33882	
3759	0	32908	34260	
3760	0	32744	33222	
3761	0	32624	32068	
3762	0	32548	32161	
3763	0	32576	32673	
3764	0	32384	32774	
3765	0	32408	32836	
3766	0	32436	33434	
3767	0	32386	33660	
3768	0	32546	34130	
3769	0	32640	34576	
3770	0	32936	34820	
3771	0	33092	34204	
3772	0	33244	33596	
3773	0	33122	33470	
3774	0	33072	33462	
3775	0	32960	33311	
3776	0	32950	32966	
3777	0	32880	32926	
3778	0	32672	32216	
3779	0	32664	31860	
3780	0	32624	31290	
3781	0	32706	31342	
3782	0	32834	31198	
3783	0	32904	31012	
3784	0	32858	30951	
3785	0	32992	31270	
3786	0	32992	31152	
3787	0	33000	30500	
3788	0	33000	30494	
3789	0	32904	30738	
3790	0	32812	31366	
3791	0	32728	32263	
3792	0	32632	33572	
3793	0	32714	34510	
3794	0	32614	35024	
3795	0	32726	35488	
3796	0	32762	35756	
3797	0	32712	35778	
3798	0	32828	35476	
3799	0	32880	35846	
3800	0	33048	36280	
3801	0	33094	35888	
3802	0	32906	34496	
3803	0	32584	33494	
3804	0	32496	32726	
3805	0	32824	32014	
3806	0	33132	31076	
3807	0	33160	30602	
3808	0	33000	30554	
3809	0	32868	30248	
3810	0	33002	30158	
3811	0	32922	30582	
3812	0	32724	31256	
3813	0	32484	32186	
3814	0	32450	32511	
3815	0	32380	32736	
3816	0	32334	32566	
3817	0	32556	32958	
3818	0	32652	32996	
3819	0	32852	33146	
3820	0	32952	33098	
3821	0	32950	33236	
3822	0	33014	33100	
3823	0	32780	32692	
3824	0	32716	32478	
3825	0	32792	32382	
3826	0	32848	32444	
3827	0	32818	32644	
3828	0	32840	32996	
3829	0	32812	33092	
3830	0	32714	33158	
3831	0	32752	32818	
3832	0	32736	32636	
3833	0	32808	32932	
3834	0	32724	32556	
3835	0	32724	32432	
3836	0	32878	32655	
3837	0	32912	32599	
3838	0	32982	32518	
3839	0	32960	32450	
3840	0	32952	32490	
3841	0	33010	32590	
3842	0	32972	32832	
3843	0	32850	33367	
3844	0	32846	33228	
3845	0	32920	32655	
3846	0	32764	32506	
3847	0	32760	32690	
3848	0	32832	32978	
3849	0	32928	32994	
3850	0	32842	32860	
3851	0	32768	32647	
3852	0	32844	32415	
3853	0	32844	32478	
3854	0	32760	32196	
3855	0	32748	31956	
3856	0	32816	32248	
3857	0	32820	33076	
3858	0	32712	33094	
3859	0	32716	33248	
3860	0	32712	32774	
3861	0	32628	32516	
3862	0	32610	32647	
3863	0	32588	32775	
3864	0	32800	33045	
3865	0	32806	33252	
3866	0	32852	33662	
3867	0	32844	33936	
3868	0	32864	34178	
3869	0	32898	34318	
3870	0	32968	34132	
3871	0	32932	33406	
3872	0	32944	33118	
3873	0	32956	32846	
3874	0	32880	32762	
3875	0	32832	32646	
3876	0	32866	32294	
3877	0	32858	32038	
3878	0	33172	32296	
3879	0	33112	32128	
3880	0	32924	31678	
3881	0	32740	31118	
3882	0	32538	30436	
3883	0	32476	30974	
3884	0	32528	31275	
3885	0	32484	31420	
3886	0	32642	31800	
3887	0	32805	32248	
3888	0	32846	32956	
3889	0	32840	33734	
3890	0	32824	34658	
3891	0	32860	35524	
3892	0	32790	35246	
3893	0	32792	34710	
3894	0	32852	34428	
3895	0	32760	33778	
3896	0	32848	33431	
3897	0	32792	32878	
3898	0	32850	32574	
3899	0	32762	32358	
3900	0	32796	32496	
3901	0	32800	32692	
3902	0	32818	32519	
3903	0	32908	32482	
3904	0	32940	32364	
3905	0	33008	32196	
3906	0	32994	32622	
3907	0	32904	32340	
3908	0	32908	32135	
3909	0	32744	32052	
3910	0	32664	32007	
3911	0	32798	31970	
3912	0	32728	32146	
3913	0	32800	32006	
3914	0	32958	32198	
3915	0	32870	32278	
3916	0	32852	32263	
3917	0	32864	32396	
3918	0	32880	32543	
3919	0	32914	32698	
3920	0	32916	32912	
3921	0	32900	33273	
3922	0	32802	33488	
3923	0	32676	33328	
3924	0	32744	33575	
3925	0	32650	33452	
3926	0	32650	33414	
3927	0	32740	33047	
3928	0	32836	32924	
3929	0	32798	32775	
3930	0	32804	32526	
3931	0	32912	32448	
3932	0	32912	32164	
3933	0	32872	32070	
3934	0	32864	32135	
3935	0	32864	32222	
3936	0	32788	32250	
3937	0	32688	32220	
3938	0	32736	32362	
3939	0	32720	32556	
3940	0	32654	32718	
3941	0	32632	32519	
3942	0	32680	32183	
3943	0	32820	32302	
3944	0	32948	32212	
3945	0	32932	32092	
3946	0	32913	32558	
3947	0	32888	32812	
3948	0	32836	33074	
3949	0	32780	33408	
3950	0	32752	33791	
3951	0	32668	34340	
3952	0	32684	34776	
3953	0	32688	34878	
3954	0	32718	34254	
3955	0	32780	33844	
3956	0	32810	33159	
3957	0	32856	32682	
3958	0	32900	32565	
3959	0	32776	32554	
3960	0	32804	32775	
3961	0	32900	32904	
3962	0	32844	33310	
3963	0	32758	33274	
3964	0	32936	33214	
3965	0	33004	33008	
3966	0	32964	32462	
3967	0	32856	32324	
3968	0	32806	32302	
3969	0	32576	32122	
3970	0	32448	32262	
3971	0	32652	31712	
3972	0	32766	31443	
3973	0	32806	31164	
3974	0	32788	31238	
3975	0	32776	31479	
3976	0	32912	31830	
3977	0	32844	32402	
3978	0	32734	32634	
3979	0	32916	33256	
3980	0	32900	33570	
3981	0	32930	33831	
3982	0	32884	33978	
3983	0	32858	33496	
3984	0	32768	33649	
3985	0	32764	33652	
3986	0	32688	33780	
3987	0	32700	33799	
3988	0	32810	33156	
3989	0	32868	32844	
3990	0	32876	32772	
3991	0	32792	32759	
3992	0	32784	32660	
3993	0	32744	32374	
3994	0	32888	32198	
3995	0	32764	32239	
3996	0	32816	32408	
3997	0	32904	32184	
3998	0	32864	32391	
3999	0	32872	32666	
4000	0	32836	32878	
4001	0	32852	33122	
4002	0	32900	33112	
4003	0	32912	33196	
4004	0	32856	32958	
4005	0	32970	32800	
4006	0	32864	32458	
4007	0	32768	32312	
4008	0	32746	32134	
4009	0	32692	32022	
4010	0	32784	32247	
4011	0	32672	32446	
4012	0	32775	32468	
4013	0	32714	32284	
4014	0	32676	32452	
4015	0	32692	32704	
4016	0	32783	32834	
4017	0	32806	32836	
4018	0	32860	32774	
4019	0	32808	32887	
4020	0	32804	32996	
4021	0	32772	32916	
4022	0	32822	32884	
4023	0	32884	32884	
4024	0	32852	32736	
4025	0	32872	32754	
4026	0	32876	32510	
4027	0	32920	32647	
4028	0	32728	32706	
4029	0	32736	32950	
4030	0	32774	33008	
4031	0	32852	32804	
4032	0	32904	32848	
4033	0	32898	32750	
4034	0	32772	33012	
4035	0	32798	32462	
4036	0	32728	32586	
4037	0	32626	32762	
4038	0	32640	32750	
4039	0	32576	32756	
4040	0	32668	32894	
4041	0	32704	32919	
4042	0	32854	32800	
4043	0	32920	32806	
4044	0	32900	32409	
4045	0	32868	32900	
4046	0	32848	33098	
4047	0	32855	33423	
4048	0	32781	33243	
4049	0	32862	33140	
4050	0	32894	33334	
4051	0	33056	33440	
4052	0	32968	33580	
4053	0	32938	33301	
4054	0	32868	33256	
4055	0	32800	33121	
4056	0	32748	32760	
4057	0	32728	32704	
4058	0	32724	32440	
4059	0	32732	32358	
4060	0	32680	32374	
4061	0	32700	32130	
4062	0	32704	31860	
4063	0	32716	31597	
4064	0	32802	31570	
4065	0	32980	31996	
4066	0	32906	32324	
4067	0	32868	32340	
4068	0	32860	32390	
4069	0	32796	32783	
4070	0	32660	33376	
4071	0	32774	33512	
4072	0	32742	33580	
4073	0	32852	33584	
4074	0	32920	33670	
4075	0	32976	33396	
4076	0	32960	33156	
4077	0	32932	33159	
4078	0	32834	32870	
4079	0	32844	32804	
4080	0	32888	32614	
4081	0	32782	32606	
4082	0	32790	32608	
4083	0	32700	32854	
4084	0	32748	32910	
4085	0	32760	32994	
4086	0	32750	32826	
4087	0	32758	32442	
4088	0	32762	32332	
4089	0	32708	32432	
4090	0	32752	32348	
4091	0	32786	32244	
4092	0	32918	32084	
4093	0	32898	32135	
4094	0	32786	32134	
4095	0	32718	32132	
4096	0	32692	32132	
4097	0	32772	32246	
4098	0	32810	32658	
4099	0	32858	32854	
4100	0	32836	33204	
4101	0	32818	33392	
4102	0	32788	33408	
4103	0	32856	33350	
4104	0	32858	33412	
4105	0	32874	33402	
4106	0	32916	33066	
4107	0	32850	33029	
4108	0	32954	33140	
4109	0	32876	32974	
4110	0	32856	32906	
4111	0	32848	32775	
4112	0	32892	32706	
4113	0	32944	32519	
4114	0	32844	32478	
4115	0	32820	32600	
4116	0	32800	32684	
4117	0	32900	32661	
4118	0	32860	32738	
4119	0	32892	32682	
4120	0	32820	32631	
4121	0	32702	32807	
4122	0	32804	32734	
4123	0	32750	32724	
4124	0	32722	32636	
4125	0	32648	32752	
4126	0	32608	32629	
4127	0	32618	32639	
4128	0	32741	32734	
4129	0	32880	32519	
4130	0	32844	32426	
4131	0	32790	32263	
4132	0	32784	32146	
4133	0	32802	32468	
4134	0	32910	32714	
4135	0	32916	33111	
4136	0	33020	32984	
4137	0	33076	33124	
4138	0	33036	33247	
4139	0	32904	33400	
4140	0	32864	33414	
4141	0	32728	33258	
4142	0	32652	33000	
4143	0	32800	33068	
4144	0	32564	33108	
4145	0	32592	33003	
4146	0	32556	32868	
4147	0	32744	32580	
4148	0	32780	32404	
4149	0	32840	32423	
4150	0	32780	32471	
4151	0	32948	32662	
4152	0	32992	32583	
4153	0	32870	32682	
4154	0	32804	32698	
4155	0	32892	32584	
4156	0	32828	32684	
4157	0	32870	32832	
4158	0	32792	32824	
4159	0	32868	32887	
4160	0	32956	32834	
4161	0	32940	32724	
4162	0	32878	32704	
4163	0	32688	32916	
4164	0	32698	32692	
4165	0	32872	32756	
4166	0	32744	32822	
4167	0	32816	32944	
4168	0	32872	32818	
4169	0	32838	32628	
4170	0	32823	32710	
4171	0	32788	32756	
4172	0	32920	32794	
4173	0	32856	32802	
4174	0	32860	32760	
4175	0	32894	32718	
4176	0	32928	32720	
4177	0	32858	32674	
4178	0	32804	32748	
4179	0	32759	32708	
4180	0	32670	32734	
4181	0	32824	32892	
4182	0	32902	32834	
4183	0	32960	32856	
4184	0	32952	32804	
4185	0	32858	32724	
4186	0	32802	32702	
4187	0	32640	32818	
4188	0	32652	32748	
4189	0	32726	32738	
4190	0	32772	32775	
4191	0	32708	32740	
4192	0	32740	32735	
4193	0	32856	32794	
4194	0	32788	32942	
4195	0	32846	32968	
4196	0	32900	32775	
4197	0	32903	32612	
4198	0	32864	32732	
4199	0	32820	32746	
4200	0	32836	32766	
4201	0	32888	32804	
4202	0	32800	32690	
4203	0	32696	32826	
4204	0	32880	32671	
4205	0	32980	32596	
4206	0	32788	32588	
4207	0	32704	32702	
4208	0	32834	32647	
4209	0	32780	32672	
4210	0	32822	32798	
4211	0	32876	32866	
4212	0	32810	33040	
4213	0	32800	33046	
4214	0	32856	32858	
4215	0	32844	32908	
4216	0	32874	32740	
4217	0	32766	32860	
4218	0	32732	32806	
4219	0	32656	32806	
4220	0	32740	32615	
4221	0	32712	32608	
4222	0	32680	32686	
4223	0	32776	32784	
4224	0	32840	32896	
4225	0	32784	32784	
4226	0	32680	32880	
4227	0	32808	32756	
4228	0	32750	32692	
4229	0	32800	32716	
4230	0	32842	32658	
4231	0	32902	32546	
4232	0	32932	32670	
4233	0	32929	32674	
4234	0	32836	32624	
4235	0	32828	32679	
4236	0	32846	32638	
4237	0	32952	32892	
4238	0	32936	32841	
4239	0	32994	32808	
4240	0	33044	32804	
4241	0	32978	32966	
4242	0	32976	32828	
4243	0	32776	32790	
4244	0	32796	32634	
4245	0	32702	32844	
4246	0	32508	32706	
4247	0	32426	32756	
4248	0	32430	32818	
4249	0	32444	32862	
4250	0	32680	32864	
4251	0	32598	32926	
4252	0	32666	32726	
4253	0	32742	32740	
4254	0	32764	32742	
4255	0	32940	32868	
4256	0	32992	32756	
4257	0	33040	32662	
4258	0	33048	32540	
4259	0	32948	32689	
4260	0	32894	32676	
4261	0	32917	32644	
4262	0	32874	32854	
4263	0	32888	32690	
4264	0	32836	32848	
4265	0	32950	32962	
4266	0	32836	32914	
4267	0	32807	32858	
4268	0	32788	32867	
4269	0	32796	32839	
4270	0	32740	33015	
4271	0	32688	32926	
4272	0	32646	32738	
4273	0	32712	32719	
4274	0	32618	32642	
4275	0	32692	32702	
4276	0	32756	32600	
4277	0	32854	32743	
4278	0	32898	32686	
4279	0	32972	32636	
4280	0	32896	32679	
4281	0	32864	32689	
4282	0	32904	32700	
4283	0	32938	32716	
4284	0	32862	32736	
4285	0	32776	32678	
4286	0	32796	32724	
4287	0	32714	32818	
4288	0	32824	32788	
4289	0	32820	32790	
4290	0	32882	32816	
4291	0	32936	32862	
4292	0	32912	32967	
4293	0	32887	32903	
4294	0	32922	32698	
4295	0	32932	32686	
4296	0	32952	32748	
4297	0	32872	32812	
4298	0	32760	32844	
4299	0	32664	33028	
4300	0	32636	33010	
4301	0	32664	32856	
4302	0	32626	32855	
4303	0	32704	32728	
4304	0	32742	32836	
4305	0	32806	32677	
4306	0	32840	32756	
4307	0	32956	32758	
4308	0	32796	32660	
4309	0	32768	32652	
4310	0	32680	32892	
4311	0	32736	32958	
4312	0	32736	32820	
4313	0	32764	32860	
4314	0	32890	32768	
4315	0	32880	32756	
4316	0	32988	32727	
4317	0	32990	32682	
4318	0	32942	32672	
4319	0	32848	32575	
4320	0	32752	32560	
4321	0	32720	32625	
4322	0	32740	32676	
4323	0	32820	32650	
4324	0	32894	32782	
4325	0	32896	32950	
4326	0	32900	32967	
4327	0	32888	32983	
4328	0	32892	32847	
4329	0	32840	32804	
4330	0	32888	32886	
4331	0	32810	32908	
4332	0	32760	32775	
4333	0	32756	32836	
4334	0	32636	32759	
4335	0	32724	32716	
4336	0	32688	32806	
4337	0	32856	32880	
4338	0	32880	32796	
4339	0	32844	32770	
4340	0	32956	32564	
4341	0	32976	32543	
4342	0	33036	32624	
4343	0	32948	32858	
4344	0	32794	32638	
4345	0	32910	32647	
4346	0	32841	32726	
4347	0	32972	32835	
4348	0	32902	32766	
4349	0	32680	32568	
4350	0	32684	32773	
4351	0	32788	32744	
4352	0	32628	32786	
4353	0	32636	32702	
4354	0	32644	32715	
4355	0	32684	32817	
4356	0	32652	32800	
4357	0	32600	32868	
4358	0	32590	32720	
4359	0	32664	32852	
4360	0	32708	32774	
4361	0	32752	32695	
4362	0	32800	32790	
4363	0	32890	32874	
4364	0	32856	32840	
4365	0	32902	32740	
4366	0	32927	32879	
4367	0	32848	32982	
4368	0	32868	32884	
4369	0	32930	32822	
4370	0	32892	32820	
4371	0	32904	32968	
4372	0	32848	32972	
4373	0	32828	32916	
4374	0	32924	32775	
4375	0	32784	32958	
4376	0	32864	32858	
4377	0	32764	32820	
4378	0	32832	32756	
4379	0	32804	32566	
4380	0	32764	32680	
4381	0	32832	32698	
4382	0	32844	32652	
4383	0	32808	32530	
4384	0	32782	32638	
4385	0	32826	32678	
4386	0	32848	32692	
4387	0	32862	32671	
4388	0	32784	32805	
4389	0	32764	32736	
4390	0	32724	32870	
4391	0	32742	32774	
4392	0	32672	32834	
4393	0	32796	32758	
4394	0	32846	32836	
4395	0	32848	32695	
4396	0	32780	32806	
4397	0	32848	32738	
4398	0	32856	32737	
4399	0	32790	32670	
4400	0	32886	32580	
4401	0	32770	32694	
4402	0	32764	32654	
4403	0	32740	32788	
4404	0	32774	32770	
4405	0	32792	32720	
4406	0	33004	32826	
4407	0	33060	32802	
4408	0	33174	32792	
4409	0	33138	32671	
4410	0	32970	32698	
4411	0	32832	32871	
4412	0	32570	32816	
4413	0	32540	32670	
4414	0	32492	32564	
4415	0	32442	32492	
4416	0	32728	32578	
4417	0	32660	32564	
4418	0	32716	32580	
4419	0	32790	32636	
4420	0	32724	32924	
4421	0	32804	32810	
4422	0	32788	33116	
4423	0	32780	32978	
4424	0	33002	32812	
4425	0	32924	32754	
4426	0	32894	32750	
4427	0	32792	32822	
4428	0	32852	32820	
4429	0	32814	32807	
4430	0	32860	32806	
4431	0	32848	32790	
4432	0	32850	32892	
4433	0	32818	32768	
4434	0	32892	32625	
4435	0	32860	32734	
4436	0	32840	32718	
4437	0	32836	32618	
4438	0	32844	32722	
4439	0	32932	32664	
4440	0	32880	32632	
4441	0	32796	32806	
4442	0	32844	32802	
4443	0	32816	32920	
4444	0	32716	32954	
4445	0	32842	32740	
4446	0	32836	32662	
4447	0	32840	32774	
4448	0	32889	32695	
4449	0	32900	32676	
4450	0	32986	32570	
4451	0	32886	32622	
4452	0	32964	32754	
4453	0	32800	32638	
4454	0	32860	32647	
4455	0	32842	32732	
4456	0	32896	32566	
4457	0	32946	32616	
4458	0	32928	32640	
4459	0	32848	32738	
4460	0	32848	32734	
4461	0	32812	32752	
4462	0	32645	32862	
4463	0	32512	32814	
4464	0	32548	32894	
4465	0	32509	32758	
4466	0	32632	32650	
4467	0	32616	32722	
4468	0	32724	32775	
4469	0	32712	32632	
4470	0	32808	32830	
4471	0	32912	32647	
4472	0	32918	32706	
4473	0	32872	32836	
4474	0	32864	32798	
4475	0	32808	32872	
4476	0	32812	32716	
4477	0	32888	32732	
4478	0	32892	32795	
4479	0	32904	32745	
4480	0	32896	32702	
4481	0	32874	32728	
4482	0	32808	32664	
4483	0	32846	32526	
4484	0	32804	32589	
4485	0	32896	32676	
4486	0	32924	32686	
4487	0	32832	32564	
4488	0	32784	32722	
4489	0	32776	32724	
4490	0	32856	32798	
4491	0	32856	32727	
4492	0	32734	32820	
4493	0	32736	32998	
4494	0	32724	32898	
4495	0	32860	32886	
4496	0	32838	32728	
4497	0	32794	32766	
4498	0	32832	32730	
4499	0	32860	32742	
4500	0	32820	32590	
4501	0	32788	32664	
4502	0	32824	32698	
4503	0	32724	32550	
4504	0	32790	32567	
4505	0	32788	32498	
4506	0	32794	32734	
4507	0	32817	33006	
4508	0	32828	33095	
4509	0	32822	32903	
4510	0	32814	33072	
4511	0	32778	33072	
4512	0	32844	32870	
4513	0	32794	32751	
4514	0	32742	32638	
4515	0	32732	32622	
4516	0	32666	32620	
4517	0	32688	32645	
4518	0	32730	32775	
4519	0	32804	32828	
4520	0	32816	32868	
4521	0	32696	32892	
4522	0	32812	32838	
4523	0	32866	33004	
4524	0	32857	33002	
4525	0	32960	33022	
4526	0	33016	32732	
4527	0	32942	32874	
4528	0	32836	32716	
4529	0	32870	32815	
4530	0	32766	32767	
4531	0	32756	32800	
4532	0	32832	32658	
4533	0	32748	32742	
4534	0	32712	32514	
4535	0	32744	32664	
4536	0	32780	32756	
4537	0	32764	32887	
4538	0	32876	32796	
4539	0	32836	32820	
4540	0	32820	32740	
4541	0	32704	32814	
4542	0	32785	32734	
4543	0	32880	32702	
4544	0	32838	32784	
4545	0	32840	32720	
4546	0	32844	32683	
4547	0	32768	32600	
4548	0	32772	32793	
4549	0	32914	32840	
4550	0	32832	32775	
4551	0	32736	32720	
4552	0	32708	32642	
4553	0	32708	32704	
4554	0	32752	32578	
4555	0	32810	32642	
4556	0	32892	32704	
4557	0	32856	32544	
4558	0	32860	32684	
4559	0	32856	32752	
4560	0	32840	32668	
4561	0	32840	32638	
4562	0	32780	32590	
4563	0	32692	32798	
4564	0	32752	32620	
4565	0	32800	32752	
4566	0	32894	32736	
4567	0	32968	32839	
4568	0	32948	32790	
4569	0	32862	32868	
4570	0	32778	32870	
4571	0	32766	32840	
4572	0	32678	32612	
4573	0	32766	32654	
4574	0	32654	32824	
4575	0	32644	32734	
4576	0	32654	32594	
4577	0	32640	32534	
4578	0	32788	32492	
4579	0	32852	32566	
4580	0	33010	32666	
4581	0	32928	32665	
4582	0	32776	32895	
4583	0	32658	32954	
4584	0	32724	32876	
4585	0	32856	33164	
4586	0	32806	33158	
4587	0	32800	33111	
4588	0	32828	32988	
4589	0	32772	32888	
4590	0	32764	32836	
4591	0	32858	32804	
4592	0	32744	32703	
4593	0	32856	32622	
4594	0	32864	32602	
4595	0	32990	32513	
4596	0	33006	32728	
4597	0	33004	32660	
4598	0	32806	32702	
4599	0	32684	32678	
4600	0	32692	32768	
4601	0	32756	32670	
4602	0	32702	32679	
4603	0	32636	32582	
4604	0	32686	32598	
4605	0	32764	32686	
4606	0	32830	32668	
4607	0	32834	32679	
4608	0	32800	32722	
4609	0	32832	32743	
4610	0	32748	32775	
4611	0	32856	32775	
4612	0	32860	32884	
4613	0	32840	32788	
4614	0	32816	32842	
4615	0	32824	32884	
4616	0	32822	32876	
4617	0	32780	32807	
4618	0	32846	32898	
4619	0	32756	32846	
4620	0	32740	32848	
4621	0	32830	32774	
4622	0	32720	32751	
4623	0	32844	32804	
4624	0	32926	32782	
4625	0	32892	32804	
4626	0	32792	32796	
4627	0	32834	32674	
4628	0	32814	32652	
4629	0	32824	32892	
4630	0	32824	32775	
4631	0	32876	32775	
4632	0	32744	32710	
4633	0	32736	32675	
4634	0	32688	32775	
4635	0	32746	32604	
4636	0	32704	32718	
4637	0	32714	32676	
4638	0	32796	32695	
4639	0	32718	32736	
4640	0	32784	32726	
4641	0	32994	32652	
4642	0	32896	32593	
4643	0	32806	32714	
4644	0	32764	32690	
4645	0	32820	32775	
4646	0	32760	32756	
4647	0	32820	32694	
4648	0	32812	32634	
4649	0	32888	32796	
4650	0	32780	32626	
4651	0	32820	32772	
4652	0	32872	32855	
4653	0	32816	32862	
4654	0	32788	32868	
4655	0	32796	32894	
4656	0	32866	32874	
4657	0	32870	32770	
4658	0	32916	32902	
4659	0	32832	32842	
4660	0	32810	32884	
4661	0	32840	32768	
4662	0	32846	32888	
4663	0	32860	32867	
4664	0	32872	32844	
4665	0	32880	32852	
4666	0	32812	32692	
4667	0	32840	32770	
4668	0	32808	32840	
4669	0	32802	32641	
4670	0	32748	32704	
4671	0	32796	32640	
4672	0	32748	32652	
4673	0	32732	32710	
4674	0	32724	32726	
4675	0	32740	32743	
4676	0	32754	32812	
4677	0	32770	32796	
4678	0	32776	32706	
4679	0	32746	32736	
4680	0	32842	32730	
4681	0	32908	32732	
4682	0	32852	32719	
4683	0	32952	32745	
4684	0	32924	32580	
4685	0	32944	32584	
4686	0	32836	32743	
4687	0	32808	32698	
4688	0	32728	32682	
4689	0	32648	32654	
4690	0	32752	32824	
4691	0	32832	33068	
4692	0	32748	33020	
4693	0	32732	33159	
4694	0	32886	33060	
4695	0	32766	33018	
4696	0	32780	33090	
4697	0	32892	32914	
4698	0	32876	32844	
4699	0	32872	32687	
4700	0	32900	32711	
4701	0	32774	32999	
4702	0	32744	32714	
4703	0	32820	32666	
4704	0	32808	32644	
4705	0	32862	32636	
4706	0	32768	32580	
4707	0	32865	32734	
4708	0	32774	32689	
4709	0	32774	32714	
4710	0	32784	32762	
4711	0	32736	32625	
4712	0	32776	32678	
4713	0	32858	32679	
4714	0	32912	32734	
4715	0	32926	32842	
4716	0	32958	32743	
4717	0	32978	32804	
4718	0	32928	32852	
4719	0	32964	32852	
4720	0	32928	32746	
4721	0	32916	32762	
4722	0	33038	32716	
4723	0	32880	32698	
4724	0	32714	32647	
4725	0	32772	32646	
4726	0	32672	32676	
4727	0	32716	32440	
4728	0	32704	32422	
4729	0	32574	32444	
4730	0	32512	32434	
4731	0	32410	32454	
4732	0	32536	32428	
4733	0	32560	32700	
4734	0	32624	32622	
4735	0	32720	32680	
4736	0	32775	32822	
4737	0	32810	32903	
4738	0	32900	32900	
4739	0	32864	32903	
4740	0	32832	32764	
4741	0	32886	32896	
4742	0	32884	33003	
4743	0	32908	32911	
4744	0	32924	32986	
4745	0	32948	32998	
4746	0	32836	32980	
4747	0	32848	32885	
4748	0	32832	32834	
4749	0	32842	32886	
4750	0	32913	32794	
4751	0	32954	32775	
4752	0	32880	32789	
4753	0	32922	32775	
4754	0	32836	32754	
4755	0	32716	32732	
4756	0	32781	32679	
4757	0	32804	32775	
4758	0	32792	32794	
4759	0	32780	32884	
4760	0	32710	32824	
4761	0	32810	32860	
4762	0	32700	32884	
4763	0	32758	32838	
4764	0	32836	32818	
4765	0	32798	32732	
4766	0	32804	32670	
4767	0	32814	32750	
4768	0	32810	32810	
4769	0	32852	32770	
4770	0	32832	32830	
4771	0	32848	32774	
4772	0	32868	32594	
4773	0	32912	32668	
4774	0	32820	32618	
4775	0	32866	32734	
4776	0	32800	32734	
4777	0	32900	32840	
4778	0	32860	32762	
4779	0	32764	32766	
4780	0	32736	32751	
4781	0	32694	32708	
4782	0	32766	32860	
4783	0	32814	32855	
4784	0	32776	32932	
4785	0	32740	32815	
4786	0	32746	32836	
4787	0	32698	32825	
4788	0	32760	32868	
4789	0	32858	32745	
4790	0	32904	32766	
4791	0	33010	32676	
4792	0	32858	32710	
4793	0	33032	32734	
4794	0	32988	32662	
4795	0	32988	32738	
4796	0	32856	32903	
4797	0	32864	32809	
4798	0	32804	32775	
4799	0	32850	32846	
4800	0	32776	32742	
4801	0	32882	32698	
4802	0	32612	32894	
4803	0	32532	32807	
4804	0	32386	32690	
4805	0	32446	32700	
4806	0	32488	32828	
4807	0	32644	32735	
4808	0	32634	32742	
4809	0	32722	32836	
4810	0	32828	32658	
4811	0	32932	32647	
4812	0	32990	32724	
4813	0	32933	32775	
4814	0	32892	32775	
4815	0	32898	32792	
4816	0	32896	32804	
4817	0	32898	32591	
4818	0	32858	32548	
4819	0	32924	32560	
4820	0	32905	32693	
4821	0	32836	32772	
4822	0	32808	32717	
4823	0	32850	32928	
4824	0	32834	32806	
4825	0	32776	32750	
4826	0	32718	32830	
4827	0	32800	32775	
4828	0	32796	32814	
4829	0	32749	32844	
4830	0	32840	32772	
4831	0	32910	32762	
4832	0	32880	32748	
4833	0	32876	32743	
4834	0	33064	32806	
4835	0	32910	32722	
4836	0	32778	32592	
4837	0	32740	32634	
4838	0	32794	32674	
4839	0	32824	32699	
4840	0	32968	32807	
4841	0	32888	32766	
4842	0	32920	32802	
4843	0	33016	32798	
4844	0	32864	32868	
4845	0	32740	32748	
4846	0	32712	32663	
4847	0	32552	32724	
4848	0	32586	32820	
4849	0	32536	32692	
4850	0	32552	32798	
4851	0	32600	32832	
4852	0	32702	32744	
4853	0	32792	32682	
4854	0	32844	32716	
4855	0	32852	32746	
4856	0	32852	32800	
4857	0	32928	32775	
4858	0	32944	32894	
4859	0	32860	32876	
4860	0	32864	32722	
4861	0	32852	32687	
4862	0	32832	32716	
4863	0	32818	32814	
4864	0	32932	32764	
4865	0	32872	32684	
4866	0	32880	32672	
4867	0	32882	32724	
4868	0	32836	32622	
4869	0	32796	32724	
4870	0	32862	32774	
4871	0	32870	32858	
4872	0	32828	32912	
4873	0	32914	32884	
4874	0	32900	32926	
4875	0	32830	32952	
4876	0	32876	32892	
4877	0	32802	32758	
4878	0	32862	32775	
4879	0	32922	32894	
4880	0	32852	32789	
4881	0	32808	32924	
4882	0	32756	32728	
4883	0	32796	32920	
4884	0	32712	32834	
4885	0	32736	32700	
4886	0	32752	32728	
4887	0	32736	32730	
4888	0	32808	32798	
4889	0	32736	32876	
4890	0	32816	32772	
4891	0	32864	32664	
4892	0	32864	32836	
4893	0	32876	32966	
4894	0	32878	32932	
4895	0	32792	32894	
4896	0	32828	32836	
4897	0	32764	32672	
4898	0	32764	32684	
4899	0	32764	32843	
4900	0	32788	32775	
4901	0	32744	32676	
4902	0	32714	32762	
4903	0	32810	32617	
4904	0	32876	32544	
4905	0	32776	32734	
4906	0	32884	32718	
4907	0	32938	32714	
4908	0	32946	32834	
4909	0	32992	32740	
4910	0	32948	32788	
4911	0	32856	32900	
4912	0	32964	32728	
4913	0	32904	32748	
4914	0	32848	32818	
4915	0	32824	32660	
4916	0	32776	32711	
4917	0	32680	32808	
4918	0	32808	32775	
4919	0	32988	32870	
4920	0	32856	32692	
4921	0	32772	32742	
4922	0	32696	32804	
4923	0	32566	32760	
4924	0	32580	32775	
4925	0	32620	32647	
4926	0	32650	32588	
4927	0	32738	32631	
4928	0	32888	32620	
4929	0	32984	32669	
4930	0	33032	32640	
4931	0	32836	32647	
4932	0	32940	32762	
4933	0	32872	32738	
4934	0	32748	32802	
4935	0	32652	32638	
4936	0	32638	32908	
4937	0	32596	32842	
4938	0	32552	32796	
4939	0	32652	32858	
4940	0	32773	32855	
4941	0	32836	32792	
4942	0	32894	32775	
4943	0	32880	32727	
4944	0	32946	32882	
4945	0	33030	32786	
4946	0	33120	32862	
4947	0	32913	32828	
4948	0	32838	32702	
4949	0	32756	32676	
4950	0	32732	32792	
4951	0	32764	32732	
4952	0	32798	32716	
4953	0	32804	32716	
4954	0	32832	32762	
4955	0	32752	32768	
4956	0	32784	32657	
4957	0	32882	32654	
4958	0	32845	32752	
4959	0	32842	32660	
4960	0	32889	32727	
4961	0	32916	32644	
4962	0	32964	32762	
4963	0	32856	32756	
4964	0	32848	32798	
4965	0	32794	32732	
4966	0	32756	32662	
4967	0	32724	32820	
4968	0	32772	32884	
4969	0	32766	32848	
4970	0	32736	32774	
4971	0	32793	32788	
4972	0	32732	32868	
4973	0	32778	32858	
4974	0	32736	32831	
4975	0	32796	32750	
4976	0	32780	32864	
4977	0	32836	32820	
4978	0	32876	32814	
4979	0	32784	32775	
4980	0	32834	32815	
4981	0	32908	32830	
4982	0	32826	32772	
4983	0	32772	32647	
4984	0	32860	32568	
4985	0	32864	32719	
4986	0	32814	32647	
4987	0	32828	32656	
4988	0	32780	32698	
4989	0	32908	32754	
4990	0	32922	32828	
4991	0	32872	32756	
4992	0	32842	32794	
4993	0	32806	32882	
4994	0	32768	33008	
4995	0	32836	32836	
4996	0	32836	32919	
4997	0	32762	32832	
4998	0	32706	32892	
4999	0	32636	32768	
5000	0	32712	32756	
5001	0	32748	32812	
5002	0	32796	32802	
5003	0	32900	32708	
5004	0	32888	32702	
5005	0	32890	32714	
5006	0	32816	32775	
5007	0	32896	32578	
5008	0	32836	32695	
5009	0	32798	32866	
5010	0	32878	32839	
5011	0	32868	32838	
5012	0	32780	32842	
5013	0	32828	32708	
5014	0	32844	32764	
5015	0	32868	32906	
5016	0	32792	32800	
5017	0	32766	32864	
5018	0	32736	32670	
5019	0	32748	32716	
5020	0	32702	32828	
5021	0	32854	32775	
5022	0	32780	32758	
5023	0	32728	32840	
5024	0	32678	32748	
5025	0	32676	32724	
5026	0	32656	32738	
5027	0	32823	32702	
5028	0	32884	32800	
5029	0	32906	32831	
5030	0	32948	32726	
5031	0	32868	32554	
5032	0	32780	32692	
5033	0	32712	32767	
5034	0	32806	32690	
5035	0	32805	32770	
5036	0	32846	32744	
5037	0	32838	32720	
5038	0	32884	32674	
5039	0	32938	32708	
5040	0	32888	32790	
5041	0	32892	32752	
5042	0	32816	32760	
5043	0	32872	32650	
5044	0	32772	32740	
5045	0	32776	32806	
5046	0	32728	32656	
5047	0	32730	32814	
5048	0	32744	32834	
5049	0	32784	32670	
5050	0	32856	32796	
5051	0	32743	32864	
5052	0	32744	32814	
5053	0	32782	32820	
5054	0	32876	32751	
5055	0	32900	32722	
5056	0	32910	32836	
5057	0	32766	32834	
5058	0	32856	32830	
5059	0	32890	32798	
5060	0	32920	32700	
5061	0	32884	32742	
5062	0	32872	32820	
5063	0	32888	32760	
5064	0	32858	32771	
5065	0	32798	32756	
5066	0	32752	32831	
5067	0	32780	32604	
5068	0	32764	32775	
5069	0	32788	32774	
5070	0	32776	32726	
5071	0	32872	32796	
5072	0	32830	32764	
5073	0	32848	32656	
5074	0	32824	32717	
5075	0	32711	32790	
5076	0	32736	32810	
5077	0	32784	32788	
5078	0	32766	32806	
5079	0	32766	32720	
5080	0	32832	32808	
5081	0	32760	32823	
5082	0	32834	32756	
5083	0	32840	32596	
5084	0	32804	32686	
5085	0	32832	32775	
5086	0	32708	32708	
5087	0	32726	32624	
5088	0	32792	32796	
5089	0	32776	32708	
5090	0	32832	32658	
5091	0	32896	32620	
5092	0	32840	32676	
5093	0	32784	32700	
5094	0	32742	32540	
5095	0	32812	32678	
5096	0	32780	32756	
5097	0	32898	32752	
5098	0	32918	32880	
5099	0	32896	32900	
5100	0	32884	32890	
5101	0	32816	33006	
5102	0	32856	33071	
5103	0	32880	33063	
5104	0	32784	32980	
5105	0	32804	32856	
5106	0	32900	32742	
5107	0	32842	32632	
5108	0	32864	32706	
5109	0	32802	32628	
5110	0	32798	32739	
5111	0	32742	32714	
5112	0	32742	32702	
5113	0	32690	32714	
5114	0	32724	32790	
5115	0	32704	32846	
5116	0	32680	32740	
5117	0	32824	32784	
5118	0	32780	32775	
5119	0	32804	32756	
5120	0	32926	32806	
5121	0	32896	32712	
5122	0	32846	32816	
5123	0	32896	32862	
5124	0	32848	32774	
5125	0	32850	32720	
5126	0	32862	32690	
5127	0	32896	32754	
5128	0	32914	32574	
5129	0	32840	32804	
5130	0	32840	32636	
5131	0	32844	32872	
5132	0	32772	32702	
5133	0	32743	32775	
5134	0	32720	32868	
5135	0	32684	32806	
5136	0	32660	32907	
5137	0	32696	32708	
5138	0	32712	32888	
5139	0	32740	32768	
5140	0	32740	32801	
5141	0	32800	32704	
5142	0	32908	32799	
5143	0	32932	32775	
5144	0	32952	32799	
5145	0	32900	32678	
5146	0	32920	32647	
5147	0	32904	32749	
5148	0	32953	32880	
5149	0	32900	32908	
5150	0	32854	32812	
5151	0	32794	32887	
5152	0	32826	32724	
5153	0	32856	32790	
5154	0	32826	32639	
5155	0	32840	32775	
5156	0	32748	32674	
5157	0	32782	32743	
5158	0	32844	32766	
5159	0	32768	32735	
5160	0	32763	32880	
5161	0	32764	32700	
5162	0	32772	32866	
5163	0	32698	32754	
5164	0	32686	32632	
5165	0	32732	32694	
5166	0	32818	32698	
5167	0	32782	32708	
5168	0	32940	32820	
5169	0	33014	32724	
5170	0	33012	32802	
5171	0	32966	32820	
5172	0	32842	32710	
5173	0	32758	32822	
5174	0	32846	32772	
5175	0	32960	32614	
5176	0	32852	32766	
5177	0	32720	32743	
5178	0	32640	32732	
5179	0	32620	32831	
5180	0	32584	32802	
5181	0	32648	32712	
5182	0	32736	32818	
5183	0	32806	32828	
5184	0	32772	32890	
5185	0	32820	32724	
5186	0	32928	32702	
5187	0	32844	32870	
5188	0	32948	32728	
5189	0	32910	32708	
5190	0	32838	32704	
5191	0	32866	32622	
5192	0	32880	32835	
5193	0	32848	32834	
5194	0	32806	32738	
5195	0	32892	32768	
5196	0	32944	32682	
5197	0	32900	32678	
5198	0	32836	32832	
5199	0	32764	32802	
5200	0	32824	32834	
5201	0	32800	32690	
5202	0	32780	32802	
5203	0	32736	32698	
5204	0	32764	32618	
5205	0	32692	32654	
5206	0	32812	32772	
5207	0	32864	32775	
5208	0	32872	32806	
5209	0	32806	32916	
5210	0	32864	32791	
5211	0	32812	32908	
5212	0	32844	32884	
5213	0	32896	32844	
5214	0	32848	32748	
5215	0	32856	32754	
5216	0	32916	32750	
5217	0	32870	32804	
5218	0	32842	32688	
5219	0	32860	32775	
5220	0	32892	32752	
5221	0	32860	32796	
5222	0	32856	32746	
5223	0	32814	32880	
5224	0	32768	32852	
5225	0	32821	32774	
5226	0	32744	32808	
5227	0	32680	32870	
5228	0	32776	32831	
5229	0	32918	32710	
5230	0	32818	32807	
5231	0	32788	32839	
5232	0	32756	32794	
5233	0	32736	32687	
5234	0	32848	32752	
5235	0	32772	32934	
5236	0	32808	32790	
5237	0	32756	32880	
5238	0	32724	32770	
5239	0	32748	32751	
5240	0	32794	32750	
5241	0	32884	32708	
5242	0	32812	32654	
5243	0	32760	32670	
5244	0	32833	32752	
5245	0	32818	32673	
5246	0	32856	32730	
5247	0	32817	32646	
5248	0	32844	32670	
5249	0	32832	32796	
5250	0	32796	32804	
5251	0	32814	32792	
5252	0	32804	32752	
5253	0	32728	32678	
5254	0	32756	32804	
5255	0	32822	32752	
5256	0	32818	32840	
5257	0	32904	32808	
5258	0	32868	32788	
5259	0	32836	32852	
5260	0	32854	32804	
5261	0	32816	32751	
5262	0	32786	32821	
5263	0	32836	32678	
5264	0	32804	32708	
5265	0	32856	32792	
5266	0	32832	32740	
5267	0	32824	32764	
5268	0	32774	32858	
5269	0	32784	32761	
5270	0	32800	32706	
5271	0	32810	32622	
5272	0	32852	32618	
5273	0	32786	32700	
5274	0	32892	32824	
5275	0	32968	32831	
5276	0	32908	32876	
5277	0	32864	32800	
5278	0	32800	32858	
5279	0	32836	32824	
5280	0	32814	32807	
5281	0	32804	32845	
5282	0	32798	32687	
5283	0	32944	32622	
5284	0	32956	32658	
5285	0	32888	32700	
5286	0	32852	32856	
5287	0	32740	32774	
5288	0	32752	32754	
5289	0	32634	32854	
5290	0	32708	32884	
5291	0	32706	32914	
5292	0	32760	32702	
5293	0	32754	32736	
5294	0	32792	32842	
5295	0	32774	32847	
5296	0	32700	32816	
5297	0	32744	32832	
5298	0	32776	32766	
5299	0	32804	32728	
5300	0	32820	32823	
5301	0	32866	32655	
5302	0	32880	32556	
5303	0	32940	32666	
5304	0	32848	32736	
5305	0	32948	32770	
5306	0	32946	32836	
5307	0	32900	32740	
5308	0	32812	32816	
5309	0	32814	32696	
5310	0	32784	32682	
5311	0	32740	32734	
5312	0	32774	32846	
5313	0	32792	32832	
5314	0	32804	32764	
5315	0	32853	32770	
5316	0	32920	32854	
5317	0	32864	32749	
5318	0	32824	32679	
5319	0	32760	32614	
5320	0	32762	32704	
5321	0	32820	32688	
5322	0	32796	32693	
5323	0	32798	32750	
5324	0	32780	32699	
5325	0	32774	32692	
5326	0	32792	32689	
5327	0	32782	32804	
5328	0	32818	32800	
5329	0	32796	32823	
5330	0	32816	32680	
5331	0	32732	32766	
5332	0	32714	32836	
5333	0	32744	32894	
5334	0	32832	32932	
5335	0	32877	32794	
5336	0	32868	32895	
5337	0	32832	32838	
5338	0	32788	32808	
5339	0	32788	32878	
5340	0	32744	32804	
5341	0	32774	32840	
5342	0	32828	32804	
5343	0	32832	32919	
5344	0	32860	32849	
5345	0	32902	32826	
5346	0	32920	32968	
5347	0	32876	32806	
5348	0	32850	32788	
5349	0	32900	32822	
5350	0	32904	32818	
5351	0	32964	32892	
5352	0	32864	32715	
5353	0	32956	32852	
5354	0	32904	32866	
5355	0	32862	32775	
5356	0	32748	32746	
5357	0	32800	32704	
5358	0	32684	32711	
5359	0	32656	32636	
5360	0	32706	32486	
5361	0	32648	32342	
5362	0	32704	32308	
5363	0	32680	32312	
5364	0	32644	32428	
5365	0	32696	32391	
5366	0	32692	32614	
5367	0	32712	32616	
5368	0	32756	32628	
5369	0	32718	32810	
5370	0	32810	32775	
5371	0	32744	32890	
5372	0	32766	32858	
5373	0	32840	32882	
5374	0	32856	32829	
5375	0	32852	32991	
5376	0	32934	32884	
5377	0	32916	32950	
5378	0	32864	32972	
5379	0	32936	32839	
5380	0	32830	32922	
5381	0	32796	32942	
5382	0	32892	32868	
5383	0	32916	32924	
5384	0	32896	32766	
5385	0	32908	32732	
5386	0	32790	32706	
5387	0	32890	32703	
5388	0	32824	32766	
5389	0	32828	32679	
5390	0	32872	32664	
5391	0	32856	32766	
5392	0	32768	32761	
5393	0	32812	32652	
5394	0	32876	32732	
5395	0	32748	32775	
5396	0	32760	32796	
5397	0	32784	32782	
5398	0	32834	32708	
5399	0	32800	32744	
5400	0	32744	32825	
5401	0	32808	32910	
5402	0	32818	32820	
5403	0	32764	32766	
5404	0	32724	32806	
5405	0	32772	32665	
5406	0	32772	32666	
5407	0	32826	32798	
5408	0	32800	32738	
5409	0	32788	32720	
5410	0	32834	32775	
5411	0	32892	32672	
5412	0	32820	32806	
5413	0	32806	32786	
5414	0	32764	32663	
5415	0	32760	32570	
5416	0	32880	32775	
5417	0	32808	32724	
5418	0	32726	32775	
5419	0	32758	32688	
5420	0	32726	32682	
5421	0	32700	32889	
5422	0	32740	32788	
5423	0	32716	32919	
5424	0	32896	32806	
5425	0	32912	32806	
5426	0	32988	32798	
5427	0	32904	32878	
5428	0	32924	32732	
5429	0	32808	32618	
5430	0	32760	32678	
5431	0	32748	32708	
5432	0	32700	32740	
5433	0	32796	32662	
5434	0	32836	32654	
5435	0	32840	32810	
5436	0	32884	32714	
5437	0	32800	32807	
5438	0	32792	32734	
5439	0	32804	32788	
5440	0	32756	32808	
5441	0	32792	32756	
5442	0	32884	32852	
5443	0	32760	32678	
5444	0	32796	32639	
5445	0	32700	32736	
5446	0	32744	32692	
5447	0	32748	32732	
5448	0	32808	32686	
5449	0	32812	32810	
5450	0	32824	32932	
5451	0	32840	32943	
5452	0	32919	32932	
5453	0	32794	32836	
5454	0	32778	32746	
5455	0	32800	32872	
5456	0	32800	32774	
5457	0	32844	32858	
5458	0	32784	32702	
5459	0	32740	32788	
5460	0	32804	32768	
5461	0	32846	32708	
5462	0	32880	32822	
5463	0	32800	32843	
5464	0	32850	32726	
5465	0	32836	32655	
5466	0	32852	32796	
5467	0	32828	32840	
5468	0	32784	32732	
5469	0	32748	32748	
5470	0	32704	32692	
5471	0	32760	32700	
5472	0	32724	32822	
5473	0	32644	32750	
5474	0	32740	32758	
5475	0	32694	32732	
5476	0	32680	32706	
5477	0	32684	32683	
5478	0	32728	32615	
5479	0	32810	32758	
5480	0	32757	32807	
5481	0	32864	32881	
5482	0	32848	32809	
5483	0	32950	32830	
5484	0	32904	32718	
5485	0	32926	32708	
5486	0	32882	32698	
5487	0	32828	32866	
5488	0	32876	32722	
5489	0	32878	32752	
5490	0	32806	32711	
5491	0	32840	32678	
5492	0	32770	32762	
5493	0	32852	32772	
5494	0	32848	32786	
5495	0	32772	32756	
5496	0	32868	32732	
5497	0	32816	32764	
5498	0	32848	32792	
5499	0	32904	32702	
5500	0	32920	32720	
5501	0	32902	32775	
5502	0	32878	32790	
5503	0	32858	32690	
5504	0	32852	32775	
5505	0	32870	32798	
5506	0	32782	32744	
5507	0	32886	32775	
5508	0	32824	32710	
5509	0	32840	32686	
5510	0	32776	32764	
5511	0	32856	32804	
5512	0	32884	32826	
5513	0	32824	32679	
5514	0	32836	32772	
5515	0	32872	32830	
5516	0	32848	32718	
5517	0	32812	32855	
5518	0	32776	32847	
5519	0	32864	32740	
5520	0	32844	32758	
5521	0	32748	32756	
5522	0	32780	32716	
5523	0	32760	32772	
5524	0	32716	32662	
5525	0	32782	32835	
5526	0	32736	32902	
5527	0	32732	32804	
5528	0	32772	32689	
5529	0	32792	32630	
5530	0	32732	32679	
5531	0	32760	32678	
5532	0	32800	32846	
5533	0	32776	32622	
5534	0	32768	32738	
5535	0	32768	32759	
5536	0	32800	32740	
5537	0	32760	32710	
5538	0	32822	32782	
5539	0	32908	32903	
5540	0	32913	32934	
5541	0	32988	32865	
5542	0	32888	32880	
5543	0	32928	32804	
5544	0	32920	32802	
5545	0	32860	32862	
5546	0	32858	32756	
5547	0	32878	32775	
5548	0	32850	32743	
5549	0	32906	32618	
5550	0	32834	32722	
5551	0	32948	32692	
5552	0	32890	32774	
5553	0	32878	32700	
5554	0	32926	32760	
5555	0	32854	32828	
5556	0	32778	32775	
5557	0	32672	32670	
5558	0	32630	32738	
5559	0	32672	32694	
5560	0	32624	32740	
5561	0	32724	32849	
5562	0	32784	32871	
5563	0	32806	32866	
5564	0	32784	32740	
5565	0	32812	32716	
5566	0	32820	32796	
5567	0	32808	32760	
5568	0	32848	32711	
5569	0	32816	32772	
5570	0	32928	32662	
5571	0	32864	32647	
5572	0	32848	32700	
5573	0	32912	32748	
5574	0	32806	32691	
5575	0	32796	32666	
5576	0	32772	32775	
5577	0	32793	32738	
5578	0	32772	32798	
5579	0	32826	32826	
5580	0	32800	32900	
5581	0	32796	32922	
5582	0	32716	32774	
5583	0	32708	32788	
5584	0	32664	32700	
5585	0	32708	32775	
5586	0	32732	32895	
5587	0	32712	32775	
5588	0	32816	32798	
5589	0	32840	32870	
5590	0	32872	32734	
5591	0	32850	32798	
5592	0	32808	32804	
5593	0	32792	32906	
5594	0	32818	32772	
5595	0	32872	32764	
5596	0	32888	32831	
5597	0	32912	32836	
5598	0	32860	32726	
5599	0	32848	32752	
5600	0	32868	32700	
5601	0	32844	32742	
5602	0	32846	32692	
5603	0	32858	32774	
5604	0	32828	32610	
5605	0	32804	32682	
5606	0	32788	32670	
5607	0	32728	32764	
5608	0	32850	32718	
5609	0	32828	32663	
5610	0	32872	32794	
5611	0	32896	32770	
5612	0	32788	32804	
5613	0	32772	32747	
5614	0	32794	32775	
5615	0	32772	32910	
5616	0	32750	32712	
5617	0	32752	32692	
5618	0	32774	32736	
5619	0	32768	32680	
5620	0	32736	32740	
5621	0	32808	32871	
5622	0	32870	32892	
5623	0	32914	32824	
5624	0	32906	32858	
5625	0	32752	32708	
5626	0	32778	32670	
5627	0	32740	32718	
5628	0	32766	32676	
5629	0	32674	32816	
5630	0	32720	32775	
5631	0	32676	32850	
5632	0	32832	32800	
5633	0	32764	32747	
5634	0	32818	32804	
5635	0	32888	32764	
5636	0	32896	32688	
5637	0	32820	32796	
5638	0	32860	32831	
5639	0	32892	32766	
5640	0	32798	32770	
5641	0	32873	32775	
5642	0	32816	32634	
5643	0	32840	32820	
5644	0	32730	32775	
5645	0	32784	32728	
5646	0	32816	32658	
5647	0	32904	32672	
5648	0	32824	32840	
5649	0	32844	32732	
5650	0	32836	32882	
5651	0	32832	32799	
5652	0	32804	32816	
5653	0	32892	32796	
5654	0	32792	32762	
5655	0	32868	32726	
5656	0	32842	32710	
5657	0	32732	32872	
5658	0	32860	32738	
5659	0	32860	32766	
5660	0	32860	32722	
5661	0	32818	32856	
5662	0	32824	32758	
5663	0	32804	32812	
5664	0	32784	32702	
5665	0	32744	32774	
5666	0	32844	32834	
5667	0	32808	32684	
5668	0	32800	32838	
5669	0	32844	32823	
5670	0	32816	32775	
5671	0	32840	32812	
5672	0	32812	32692	
5673	0	32716	32720	
5674	0	32744	32839	
5675	0	32812	32788	
5676	0	32724	32766	
5677	0	32677	32710	
5678	0	32744	32656	
5679	0	32762	32714	
5680	0	32748	32756	
5681	0	32752	32734	
5682	0	32782	32832	
5683	0	32744	32658	
5684	0	32748	32663	
5685	0	32728	32864	
5686	0	32820	32878	
5687	0	32782	32839	
5688	0	32878	32687	
5689	0	32904	32838	
5690	0	32884	32820	
5691	0	32936	32836	
5692	0	32860	32727	
5693	0	32866	32796	
5694	0	32896	32834	
5695	0	32848	32663	
5696	0	32849	32830	
5697	0	32929	32806	
5698	0	32882	32716	
5699	0	32828	32770	
5700	0	32924	32814	
5701	0	32848	32852	
5702	0	32846	32874	
5703	0	32848	32678	
5704	0	32766	32702	
5705	0	32768	32736	
5706	0	32768	32791	
5707	0	32788	32772	
5708	0	32772	32766	
5709	0	32836	32679	
5710	0	32734	32716	
5711	0	32768	32702	
5712	0	32788	32646	
5713	0	32712	32758	
5714	0	32750	32676	
5715	0	32752	32804	
5716	0	32812	32716	
5717	0	32796	32796	
5718	0	32834	32689	
5719	0	32848	32684	
5720	0	32824	32698	
5721	0	32868	32801	
5722	0	32898	32740	
5723	0	32806	32775	
5724	0	32820	32926	
5725	0	32808	32807	
5726	0	32800	32799	
5727	0	32830	32791	
5728	0	32812	32766	
5729	0	32784	32812	
5730	0	32823	32788	
5731	0	32806	32792	
5732	0	32868	32743	
5733	0	32964	32748	
5734	0	32960	32626	
5735	0	32820	32687	
5736	0	32772	32746	
5737	0	32674	32786	
5738	0	32640	32706	
5739	0	32692	32720	
5740	0	32660	32740	
5741	0	32730	32726	
5742	0	32724	32828	
5743	0	32818	32918	
5744	0	32880	32790	
5745	0	32936	32770	
5746	0	32974	32820	
5747	0	32880	32792	
5748	0	32884	32673	
5749	0	32804	32762	
5750	0	32764	32807	
5751	0	32798	32766	
5752	0	32876	32786	
5753	0	32740	32752	
5754	0	32848	32886	
5755	0	32862	32821	
5756	0	32820	32863	
5757	0	32804	32775	
5758	0	32758	32796	
5759	0	32796	32815	
5760	0	32808	32704	
5761	0	32718	32784	
5762	0	32820	32836	
5763	0	32836	32784	
5764	0	32814	32872	
5765	0	32733	32660	
5766	0	32844	32676	
5767	0	32876	32802	
5768	0	32782	32806	
5769	0	32832	32847	
5770	0	32858	32812	
5771	0	32788	32706	
5772	0	32834	32732	
5773	0	32752	32692	
5774	0	32758	32741	
5775	0	32746	32784	
5776	0	32740	32720	
5777	0	32686	32734	
5778	0	32762	32775	
5779	0	32816	32692	
5780	0	32748	32736	
5781	0	32828	32750	
5782	0	32920	32849	
5783	0	32856	32840	
5784	0	32872	32830	
5785	0	32888	32863	
5786	0	32840	32826	
5787	0	32818	32834	
5788	0	32844	32743	
5789	0	32856	32674	
5790	0	32880	32686	
5791	0	32902	32792	
5792	0	32889	32758	
5793	0	32874	32748	
5794	0	32782	32756	
5795	0	32784	32696	
5796	0	32756	32812	
5797	0	32776	32706	
5798	0	32816	32828	
5799	0	32854	32708	
5800	0	32824	32740	
5801	0	32812	32768	
5802	0	32816	32796	
5803	0	32816	32836	
5804	0	32796	32761	
5805	0	32864	32758	
5806	0	32812	32754	
5807	0	32788	32849	
5808	0	32790	32807	
5809	0	32736	32870	
5810	0	32796	32852	
5811	0	32798	32890	
5812	0	32912	32740	
5813	0	32864	32668	
5814	0	32808	32740	
5815	0	32740	32746	
5816	0	32830	32594	
5817	0	32716	32743	
5818	0	32798	32750	
5819	0	32844	32608	
5820	0	32812	32710	
5821	0	32784	32724	
5822	0	32932	32788	
5823	0	32842	32764	
5824	0	32876	32807	
5825	0	32858	32850	
5826	0	32744	32890	
5827	0	32760	32678	
5828	0	32758	32726	
5829	0	32792	32884	
5830	0	32738	32756	
5831	0	32764	32726	
5832	0	32810	32732	
5833	0	32824	32772	
5834	0	32840	32839	
5835	0	32808	32806	
5836	0	32804	32818	
5837	0	32892	32748	
5838	0	33016	32775	
5839	0	32954	32762	
5840	0	32848	32754	
5841	0	32704	32740	
5842	0	32712	32710	
5843	0	32644	32704	
5844	0	32688	32766	
5845	0	32674	32764	
5846	0	32752	32698	
5847	0	32742	32728	
5848	0	32816	32784	
5849	0	32866	32661	
5850	0	32876	32679	
5851	0	32860	32807	
5852	0	32904	32743	
5853	0	32908	32808	
5854	0	32900	32666	
5855	0	32852	32662	
5856	0	32824	32775	
5857	0	32884	32714	
5858	0	32830	32980	
5859	0	32880	32760	
5860	0	32842	32748	
5861	0	32843	32847	
5862	0	32788	32770	
5863	0	32728	32704	
5864	0	32704	32626	
5865	0	32740	32644	
5866	0	32708	32708	
5867	0	32700	32738	
5868	0	32752	32710	
5869	0	32818	32863	
5870	0	32754	32775	
5871	0	32776	32700	
5872	0	32788	32775	
5873	0	32772	32772	
5874	0	32892	32828	
5875	0	32872	32748	
5876	0	32848	32748	
5877	0	32938	32769	
5878	0	32832	32822	
5879	0	32850	32838	
5880	0	32806	32870	
5881	0	32850	32804	
5882	0	32790	32732	
5883	0	32748	32758	
5884	0	32794	32788	
5885	0	32872	32748	
5886	0	32756	32852	
5887	0	32808	32716	
5888	0	32808	32678	
5889	0	32736	32816	
5890	0	32812	32818	
5891	0	32838	32871	
5892	0	32868	32686	
5893	0	32928	32758	
5894	0	32922	32878	
5895	0	32820	32775	
5896	0	32840	32775	
5897	0	32760	32692	
5898	0	32804	32751	
5899	0	32882	32752	
5900	0	32864	32775	
5901	0	32824	32722	
5902	0	32832	32630	
5903	0	32904	32774	
5904	0	32780	32708	
5905	0	32960	32775	
5906	0	32852	32775	
5907	0	32884	32667	
5908	0	32818	32739	
5909	0	32756	32772	
5910	0	32775	32672	
5911	0	32754	32752	
5912	0	32726	32852	
5913	0	32790	32704	
5914	0	32750	32654	
5915	0	32908	32744	
5916	0	32780	32726	
5917	0	32732	32752	
5918	0	32796	32676	
5919	0	32680	32756	
5920	0	32722	32888	
5921	0	32824	32719	
5922	0	32780	32760	
5923	0	32878	32814	
5924	0	32906	32844	
5925	0	32848	32791	
5926	0	32892	32746	
5927	0	32784	32746	
5928	0	32796	32823	
5929	0	32810	32775	
5930	0	32776	32722	
5931	0	32784	32698	
5932	0	32756	32638	
5933	0	32782	32874	
5934	0	32852	32859	
5935	0	32812	32750	
5936	0	32808	32806	
5937	0	32824	32740	
5938	0	32848	32775	
5939	0	32860	32695	
5940	0	32812	32775	
5941	0	32794	32812	
5942	0	32846	32806	
5943	0	32766	32828	
5944	0	32820	32818	
5945	0	32876	32804	
5946	0	32856	32632	
5947	0	32832	32628	
5948	0	32860	32748	
5949	0	32800	32770	
5950	0	32892	32741	
5951	0	32784	32775	
5952	0	32777	32786	
5953	0	32836	32718	
5954	0	32820	32638	
5955	0	32848	32772	
5956	0	32912	32736	
5957	0	32868	32794	
5958	0	32916	32786	
5959	0	32800	32676	
5960	0	32760	32858	
5961	0	32756	32820	
5962	0	32740	32882	
5963	0	32688	32958	
5964	0	32772	32884	
5965	0	32852	32838	
5966	0	32832	32961	
5967	0	32764	32854	
5968	0	32848	32860	
5969	0	32848	32840	
5970	0	32872	32712	
5971	0	32814	32770	
5972	0	32832	32831	
5973	0	32904	32988	
5974	0	32900	32900	
5975	0	32984	32820	
5976	0	32940	32806	
5977	0	32800	32860	
5978	0	32976	32689	
5979	0	32846	32686	
5980	0	32756	32512	
5981	0	32660	32567	
5982	0	32660	32381	
5983	0	32560	32444	
5984	0	32561	32458	
5985	0	32480	32412	
5986	0	32472	32376	
5987	0	32574	32612	
5988	0	32652	32702	
5989	0	32702	32690	
5990	0	32754	32704	
5991	0	32828	32770	
5992	0	32800	32775	
5993	0	32944	32913	
5994	0	32920	32869	
5995	0	32948	32912	
5996	0	32904	32822	
5997	0	32936	32756	
5998	0	32968	32846	
5999	0	32916	32851	
6000	0	32946	32864	
6001	0	32844	32880	
6002	0	32936	32958	
6003	0	32856	32644	
6004	0	32836	32714	
6005	0	32800	32788	
6006	0	32772	32732	
6007	0	32760	32708	
6008	0	32872	32734	
6009	0	32826	32775	
6010	0	32792	32654	
6011	0	32760	32804	
6012	0	32768	32820	
