# OpenSignals Text File Format. Version 1
# {"00:07:80:8C:0A:39": {"position": 0, "device": "biosignalsplux", "device name": "00:07:80:8C:0A:39", "device connection": "BTH00:07:80:8C:0A:39", "sampling rate": 1000, "resolution": [16, 16], "firmware version": 776, "comments": "", "keywords": "", "mode": 0, "sync interval": 2, "date": "2023-3-20", "time": "10:46:29.709", "channels": [1, 2], "sensor": ["EMG", "EMG"], "label": ["CH1", "CH2"], "column": ["nSeq", "DI", "CH1", "CH2"], "special": [{"SpO2": [80, 40, 5, 4, 3, 3]}, {"SpO2": [80, 40, 5, 4, 3, 3]}, {"SpO2": [80, 40, 5, 4, 3, 3]}, {"SpO2": [80, 40, 5, 4, 3, 3]}, {"SpO2": [80, 40, 5, 4, 3, 3]}, {"SpO2": [80, 40, 5, 4, 3, 3]}, {"SpO2": [80, 40, 5, 4, 3, 3]}, {"SpO2": [80, 40, 5, 4, 3, 3]}], "digital IO": [0, 1], "sleeve color": ["gray", "yellow"], "convertedValues": 0}}
# EndOfHeader
0	0	32788	32724	
1	0	32822	32760	
2	0	32840	32787	
3	0	32884	32821	
4	0	32828	32782	
5	0	32834	32708	
6	0	32806	32668	
7	0	32836	32679	
8	0	32736	32858	
9	0	32832	32772	
10	0	32810	32832	
11	0	32872	32687	
12	0	32790	32756	
13	0	32794	32814	
14	0	32803	32760	
15	0	32820	32663	
16	0	32801	32740	
17	0	32862	32756	
18	0	32834	32804	
19	0	32822	32710	
20	0	32796	32756	
21	0	32752	32824	
22	0	32846	32772	
23	0	32910	32760	
24	0	32768	32615	
25	0	32852	32698	
26	0	32848	32834	
27	0	32796	32824	
28	0	32790	32791	
29	0	32796	32679	
30	0	32880	32684	
31	0	32774	32716	
32	0	32740	32808	
33	0	32816	32824	
34	0	32788	32870	
35	0	32804	32764	
36	0	32836	32616	
37	0	32800	32816	
38	0	32848	32772	
39	0	32764	32727	
40	0	32784	32822	
41	0	32810	32647	
42	0	32820	32666	
43	0	32808	32789	
44	0	32812	32772	
45	0	32780	32910	
46	0	32832	32768	
47	0	32872	32690	
48	0	32832	32812	
49	0	32768	32726	
50	0	32820	32743	
51	0	32786	32875	
52	0	32820	32804	
53	0	32846	32756	
54	0	32800	32760	
55	0	32812	32718	
56	0	32776	32832	
57	0	32840	32782	
58	0	32838	32810	
59	0	32763	32768	
60	0	32828	32839	
61	0	32816	32726	
62	0	32784	32672	
63	0	32808	32682	
64	0	32836	32856	
65	0	32824	32796	
66	0	32754	32743	
67	0	32792	32772	
68	0	32788	32802	
69	0	32822	32720	
70	0	32768	32682	
71	0	32812	32764	
72	0	32832	32810	
73	0	32848	32836	
74	0	32808	32788	
75	0	32788	32742	
76	0	32842	32736	
77	0	32800	32702	
78	0	32786	32804	
79	0	32812	32836	
80	0	32760	32775	
81	0	32812	32844	
82	0	32816	32676	
83	0	32821	32775	
84	0	32830	32686	
85	0	32804	32752	
86	0	32738	32838	
87	0	32856	32736	
88	0	32826	32769	
89	0	32848	32794	
90	0	32788	32768	
91	0	32834	32708	
92	0	32791	32710	
93	0	32792	32801	
94	0	32868	32839	
95	0	32832	32762	
96	0	32812	32862	
97	0	32752	32628	
98	0	32784	32796	
99	0	32810	32810	
100	0	32912	32704	
101	0	32844	32750	
102	0	32798	32660	
103	0	32806	32794	
104	0	32848	32775	
105	0	32810	32791	
106	0	32800	32768	
107	0	32750	32714	
108	0	32864	32828	
109	0	32808	32810	
110	0	32824	32673	
111	0	32796	32772	
112	0	32836	32775	
113	0	32858	32712	
114	0	32826	32844	
115	0	32820	32834	
116	0	32818	32718	
117	0	32780	32796	
118	0	32832	32855	
119	0	32774	32762	
120	0	32756	32726	
121	0	32804	32692	
122	0	32896	32820	
123	0	32776	32852	
124	0	32804	32760	
125	0	32864	32743	
126	0	32826	32668	
127	0	32832	32743	
128	0	32786	32700	
129	0	32806	32814	
130	0	32764	32903	
131	0	32812	32748	
132	0	32872	32775	
133	0	32810	32736	
134	0	32792	32824	
135	0	32868	32816	
136	0	32828	32714	
137	0	32772	32842	
138	0	32772	32868	
139	0	32798	32824	
140	0	32860	32812	
141	0	32772	32674	
142	0	32808	32808	
143	0	32808	32874	
144	0	32816	32796	
145	0	32780	32789	
146	0	32782	32662	
147	0	32844	32860	
148	0	32808	32872	
149	0	32780	32645	
150	0	32788	32708	
151	0	32800	32860	
152	0	32800	32700	
153	0	32820	32800	
154	0	32804	32816	
155	0	32798	32662	
156	0	32808	32854	
157	0	32856	32852	
158	0	32858	32759	
159	0	32860	32806	
160	0	32766	32668	
161	0	32748	32799	
162	0	32780	32824	
163	0	32800	32698	
164	0	32796	32839	
165	0	32808	32860	
166	0	32812	32762	
167	0	32834	32752	
168	0	32792	32708	
169	0	32784	32775	
170	0	32824	32855	
171	0	32872	32852	
172	0	32840	32862	
173	0	32857	32728	
174	0	32792	32765	
175	0	32796	32665	
176	0	32792	32743	
177	0	32768	32825	
178	0	32784	32728	
179	0	32864	32806	
180	0	32824	32722	
181	0	32848	32862	
182	0	32832	32766	
183	0	32740	32775	
184	0	32788	32775	
185	0	32792	32693	
186	0	32816	32791	
187	0	32824	32646	
188	0	32784	32822	
189	0	32840	32807	
190	0	32793	32743	
191	0	32768	32723	
192	0	32828	32746	
193	0	32904	32804	
194	0	32808	32630	
195	0	32808	32864	
196	0	32848	32836	
197	0	32820	32710	
198	0	32860	32748	
199	0	32846	32702	
200	0	32768	32760	
201	0	32772	32828	
202	0	32828	32824	
203	0	32802	32794	
204	0	32828	32652	
205	0	32804	32760	
206	0	32796	32746	
207	0	32876	32828	
208	0	32740	32768	
209	0	32836	32711	
210	0	32820	32764	
211	0	32826	32764	
212	0	32790	32802	
213	0	32832	32682	
214	0	32860	32834	
215	0	32852	32738	
216	0	32824	32694	
217	0	32770	32720	
218	0	32868	32663	
219	0	32844	32738	
220	0	32776	32722	
221	0	32796	32792	
222	0	32810	32882	
223	0	32834	32799	
224	0	32840	32800	
225	0	32780	32714	
226	0	32778	32740	
227	0	32756	32740	
228	0	32792	32818	
229	0	32872	32816	
230	0	32778	32738	
231	0	32798	32754	
232	0	32832	32663	
233	0	32792	32769	
234	0	32820	32814	
235	0	32836	32660	
236	0	32800	32855	
237	0	32876	32808	
238	0	32844	32718	
239	0	32778	32794	
240	0	32796	32838	
241	0	32850	32730	
242	0	32752	32758	
243	0	32816	32737	
244	0	32852	32804	
245	0	32806	32839	
246	0	32744	32760	
247	0	32775	32794	
248	0	32760	32838	
249	0	32780	32679	
250	0	32836	32766	
251	0	32812	32836	
252	0	32832	32740	
253	0	32854	32712	
254	0	32748	32840	
255	0	32814	32742	
256	0	32748	32775	
257	0	32880	32850	
258	0	32848	32703	
259	0	32782	32720	
260	0	32836	32752	
261	0	32796	32730	
262	0	32820	32742	
263	0	32808	32774	
264	0	32760	32856	
265	0	32804	32758	
266	0	32844	32792	
267	0	32796	32728	
268	0	32798	32695	
269	0	32804	32738	
270	0	32786	32774	
271	0	32836	32790	
272	0	32808	32806	
273	0	32776	32798	
274	0	32768	32820	
275	0	32860	32748	
276	0	32808	32775	
277	0	32756	32774	
278	0	32808	32704	
279	0	32832	32764	
280	0	32832	32837	
281	0	32812	32671	
282	0	32852	32796	
283	0	32788	32724	
284	0	32778	32714	
285	0	32794	32647	
286	0	32766	32706	
287	0	32790	32746	
288	0	32808	32750	
289	0	32790	32725	
290	0	32828	32757	
291	0	32872	32762	
292	0	32824	32708	
293	0	32872	32804	
294	0	32824	32894	
295	0	32864	32746	
296	0	32828	32732	
297	0	32804	32739	
298	0	32824	32839	
299	0	32808	32807	
300	0	32824	32699	
301	0	32800	32712	
302	0	32888	32724	
303	0	32836	32775	
304	0	32790	32724	
305	0	32810	32750	
306	0	32801	32726	
307	0	32784	32654	
308	0	32760	32766	
309	0	32780	32706	
310	0	32808	32852	
311	0	32702	32884	
312	0	32822	32766	
313	0	32824	32766	
314	0	32852	32663	
315	0	32788	32746	
316	0	32822	32888	
317	0	32832	32808	
318	0	32805	32748	
319	0	32774	32726	
320	0	32784	32706	
321	0	32862	32764	
322	0	32776	32775	
323	0	32808	32770	
324	0	32772	32680	
325	0	32836	32704	
326	0	32832	32874	
327	0	32808	32678	
328	0	32796	32774	
329	0	32808	32867	
330	0	32816	32724	
331	0	32832	32700	
332	0	32838	32736	
333	0	32800	32838	
334	0	32768	32770	
335	0	32840	32612	
336	0	32810	32760	
337	0	32796	32839	
338	0	32820	32788	
339	0	32800	32767	
340	0	32852	32660	
341	0	32812	32692	
342	0	32772	32775	
343	0	32792	32775	
344	0	32834	32740	
345	0	32816	32756	
346	0	32804	32854	
347	0	32804	32864	
348	0	32788	32752	
349	0	32780	32742	
350	0	32764	32679	
351	0	32840	32758	
352	0	32756	32811	
353	0	32836	32884	
354	0	32820	32775	
355	0	32846	32818	
356	0	32788	32836	
357	0	32828	32756	
358	0	32808	32815	
359	0	32784	32798	
360	0	32828	32754	
361	0	32832	32806	
362	0	32836	32699	
363	0	32798	32754	
364	0	32836	32647	
365	0	32816	32792	
366	0	32774	32876	
367	0	32796	32756	
368	0	32838	32870	
369	0	32809	32818	
370	0	32824	32808	
371	0	32902	32646	
372	0	32822	32818	
373	0	32824	32712	
374	0	32790	32732	
375	0	32760	32775	
376	0	32748	32753	
377	0	32766	32796	
378	0	32828	32804	
379	0	32808	32682	
380	0	32780	32792	
381	0	32762	32846	
382	0	32816	32692	
383	0	32816	32768	
384	0	32820	32692	
385	0	32784	32828	
386	0	32810	32758	
387	0	32789	32664	
388	0	32768	32844	
389	0	32770	32774	
390	0	32840	32765	
391	0	32794	32847	
392	0	32868	32839	
393	0	32866	32718	
394	0	32762	32816	
395	0	32792	32798	
396	0	32844	32775	
397	0	32798	32838	
398	0	32856	32774	
399	0	32808	32760	
400	0	32856	32775	
401	0	32794	32786	
402	0	32792	32846	
403	0	32760	32758	
404	0	32796	32716	
405	0	32864	32675	
406	0	32784	32700	
407	0	32792	32804	
408	0	32840	32752	
409	0	32788	32676	
410	0	32820	32740	
411	0	32780	32775	
412	0	32778	32714	
413	0	32858	32852	
414	0	32856	32842	
415	0	32840	32702	
416	0	32754	32738	
417	0	32828	32760	
418	0	32820	32640	
419	0	32820	32727	
420	0	32816	32862	
421	0	32796	32808	
422	0	32844	32760	
423	0	32880	32829	
424	0	32760	32756	
425	0	32856	32751	
426	0	32812	32676	
427	0	32846	32832	
428	0	32812	32735	
429	0	32818	32750	
430	0	32812	32752	
431	0	32804	32670	
432	0	32812	32812	
433	0	32792	32764	
434	0	32846	32718	
435	0	32832	32804	
436	0	32836	32684	
437	0	32848	32798	
438	0	32808	32812	
439	0	32845	32734	
440	0	32798	32816	
441	0	32782	32758	
442	0	32840	32702	
443	0	32738	32762	
444	0	32820	32748	
445	0	32812	32774	
446	0	32840	32761	
447	0	32770	32750	
448	0	32788	32748	
449	0	32836	32738	
450	0	32792	32810	
451	0	32794	32714	
452	0	32800	32825	
453	0	32804	32854	
454	0	32864	32834	
455	0	32762	32788	
456	0	32794	32724	
457	0	32824	32794	
458	0	32836	32804	
459	0	32884	32710	
460	0	32800	32738	
461	0	32850	32743	
462	0	32836	32688	
463	0	32868	32839	
464	0	32818	32798	
465	0	32768	32670	
466	0	32860	32854	
467	0	32788	32896	
468	0	32834	32750	
469	0	32774	32808	
470	0	32780	32682	
471	0	32834	32832	
472	0	32806	32730	
473	0	32788	32804	
474	0	32868	32774	
475	0	32872	32836	
476	0	32820	32742	
477	0	32740	32758	
478	0	32784	32647	
479	0	32770	32718	
480	0	32808	32742	
481	0	32810	32872	
482	0	32854	32678	
483	0	32808	32822	
484	0	32786	32806	
485	0	32764	32711	
486	0	32846	32764	
487	0	32748	32766	
488	0	32844	32702	
489	0	32864	32734	
490	0	32756	32728	
491	0	32856	32794	
492	0	32876	32788	
493	0	32816	32814	
494	0	32778	32728	
495	0	32842	32710	
496	0	32832	32732	
497	0	32772	32812	
498	0	32840	32812	
499	0	32792	32834	
500	0	32772	32852	
501	0	32788	32686	
502	0	32748	32700	
503	0	32793	32726	
504	0	32836	32786	
505	0	32782	32762	
506	0	32788	32804	
507	0	32784	32775	
508	0	32820	32639	
509	0	32804	32724	
510	0	32785	32767	
511	0	32892	32743	
512	0	32900	32694	
513	0	32832	32737	
514	0	32868	32600	
515	0	32764	32752	
516	0	32932	32703	
517	0	32880	32668	
518	0	32804	32712	
519	0	32842	32756	
520	0	32865	32660	
521	0	32844	32706	
522	0	32908	32732	
523	0	32865	32592	
524	0	32908	32624	
525	0	32884	32628	
526	0	32880	32708	
527	0	32880	32736	
528	0	32896	32618	
529	0	32882	32708	
530	0	32888	32680	
531	0	32804	32852	
532	0	32868	32830	
533	0	32808	32764	
534	0	32820	32878	
535	0	32708	32816	
536	0	32728	32932	
537	0	32670	32876	
538	0	32644	32956	
539	0	32716	32836	
540	0	32684	33025	
541	0	32720	33031	
542	0	32652	33031	
543	0	32628	32940	
544	0	32672	32880	
545	0	32668	32916	
546	0	32596	33066	
547	0	32620	32948	
548	0	32672	32942	
549	0	32660	32882	
550	0	32620	33007	
551	0	32688	33072	
552	0	32762	33012	
553	0	32816	32904	
554	0	32752	32772	
555	0	32868	32748	
556	0	32904	32710	
557	0	32888	32690	
558	0	32912	32596	
559	0	32898	32614	
560	0	32938	32558	
561	0	32920	32605	
562	0	32860	32622	
563	0	32852	32662	
564	0	32882	32666	
565	0	32820	32618	
566	0	32832	32696	
567	0	32775	32628	
568	0	32816	32752	
569	0	32824	32775	
570	0	32876	32802	
571	0	32814	32858	
572	0	32792	32852	
573	0	32792	32812	
574	0	32832	32786	
575	0	32804	32758	
576	0	32812	32831	
577	0	32792	32768	
578	0	32776	32775	
579	0	32746	32798	
580	0	32782	32769	
581	0	32836	32760	
582	0	32808	32807	
583	0	32832	32804	
584	0	32802	32792	
585	0	32808	32706	
586	0	32874	32775	
587	0	32896	32610	
588	0	32804	32796	
589	0	32820	32826	
590	0	32848	32672	
591	0	32800	32740	
592	0	32828	32718	
593	0	32788	32755	
594	0	32788	32747	
595	0	32804	32720	
596	0	32860	32655	
597	0	32864	32775	
598	0	32897	32647	
599	0	32812	32784	
600	0	32892	32774	
601	0	32840	32828	
602	0	32808	32816	
603	0	32848	32775	
604	0	32816	32786	
605	0	32814	32695	
606	0	32848	32828	
607	0	32816	32754	
608	0	32798	32736	
609	0	32820	32788	
610	0	32832	32688	
611	0	32836	32848	
612	0	32816	32770	
613	0	32826	32628	
614	0	32824	32798	
615	0	32836	32794	
616	0	32800	32664	
617	0	32920	32768	
618	0	32890	32732	
619	0	32903	32704	
620	0	32786	32742	
621	0	32822	32716	
622	0	32852	32718	
623	0	32786	32762	
624	0	32846	32730	
625	0	32796	32753	
626	0	32812	32709	
627	0	32770	32743	
628	0	32782	32806	
629	0	32862	32596	
630	0	32830	32727	
631	0	32824	32764	
632	0	32828	32848	
633	0	32812	32832	
634	0	32788	32682	
635	0	32808	32780	
636	0	32804	32767	
637	0	32788	32722	
638	0	32792	32701	
639	0	32746	32856	
640	0	32836	32900	
641	0	32848	32732	
642	0	32752	32833	
643	0	32788	32886	
644	0	32864	32727	
645	0	32780	32775	
646	0	32790	32664	
647	0	32760	32807	
648	0	32776	32872	
649	0	32784	32855	
650	0	32888	32822	
651	0	32828	32772	
652	0	32816	32775	
653	0	32772	32678	
654	0	32794	32771	
655	0	32752	32820	
656	0	32808	32676	
657	0	32812	32775	
658	0	32790	32708	
659	0	32784	32806	
660	0	32878	32668	
661	0	32796	32804	
662	0	32788	32818	
663	0	32772	32714	
664	0	32796	32770	
665	0	32800	32832	
666	0	32843	32672	
667	0	32860	32711	
668	0	32824	32775	
669	0	32844	32766	
670	0	32738	32786	
671	0	32832	32820	
672	0	32760	32812	
673	0	32798	32740	
674	0	32784	32780	
675	0	32824	32836	
676	0	32798	32844	
677	0	32824	32732	
678	0	32832	32748	
679	0	32848	32766	
680	0	32820	32759	
681	0	32744	32714	
682	0	32812	32799	
683	0	32788	32743	
684	0	32784	32764	
685	0	32744	32642	
686	0	32828	32746	
687	0	32828	32719	
688	0	32800	32636	
689	0	32838	32775	
690	0	32792	32775	
691	0	32772	32746	
692	0	32746	32830	
693	0	32856	32748	
694	0	32776	32696	
695	0	32760	32775	
696	0	32824	32754	
697	0	32822	32764	
698	0	32904	32770	
699	0	32828	32711	
700	0	32880	32792	
701	0	32768	32775	
702	0	32824	32730	
703	0	32824	32762	
704	0	32776	32719	
705	0	32900	32740	
706	0	32852	32743	
707	0	32818	32646	
708	0	32820	32788	
709	0	32804	32740	
710	0	32806	32860	
711	0	32774	32758	
712	0	32816	32766	
713	0	32838	32735	
714	0	32888	32834	
715	0	32832	32788	
716	0	32824	32784	
717	0	32776	32730	
718	0	32812	32785	
719	0	32860	32826	
720	0	32834	32678	
721	0	32820	32758	
722	0	32840	32668	
723	0	32782	32814	
724	0	32804	32841	
725	0	32824	32647	
726	0	32750	32766	
727	0	32792	32759	
728	0	32772	32775	
729	0	32824	32828	
730	0	32864	32698	
731	0	32824	32763	
732	0	32824	32732	
733	0	32788	32832	
734	0	32732	32832	
735	0	32828	32706	
736	0	32808	32814	
737	0	32746	32746	
738	0	32776	32811	
739	0	32824	32764	
740	0	32817	32689	
741	0	32808	32874	
742	0	32865	32800	
743	0	32756	32678	
744	0	32868	32740	
745	0	32752	32698	
746	0	32826	32825	
747	0	32738	32804	
748	0	32860	32724	
749	0	32812	32800	
750	0	32770	32784	
751	0	32824	32685	
752	0	32844	32838	
753	0	32836	32722	
754	0	32772	32816	
755	0	32830	32810	
756	0	32817	32734	
757	0	32866	32732	
758	0	32792	32756	
759	0	32808	32788	
760	0	32800	32807	
761	0	32802	32712	
762	0	32880	32814	
763	0	32782	32830	
764	0	32754	32712	
765	0	32848	32771	
766	0	32796	32752	
767	0	32802	32732	
768	0	32814	32676	
769	0	32800	32792	
770	0	32798	32764	
771	0	32884	32712	
772	0	32836	32775	
773	0	32772	32756	
774	0	32844	32737	
775	0	32800	32711	
776	0	32800	32758	
777	0	32783	32848	
778	0	32796	32860	
779	0	32854	32692	
780	0	32804	32790	
781	0	32760	32756	
782	0	32810	32764	
783	0	32838	32752	
784	0	32848	32804	
785	0	32804	32812	
786	0	32788	32780	
787	0	32820	32712	
788	0	32848	32752	
789	0	32768	32764	
790	0	32808	32806	
791	0	32834	32862	
792	0	32794	32822	
793	0	32876	32807	
794	0	32808	32770	
795	0	32740	32736	
796	0	32828	32788	
797	0	32836	32732	
798	0	32776	32766	
799	0	32796	32706	
800	0	32838	32762	
801	0	32818	32703	
802	0	32836	32732	
803	0	32792	32694	
804	0	32786	32684	
805	0	32786	32704	
806	0	32821	32711	
807	0	32828	32736	
808	0	32832	32753	
809	0	32772	32807	
810	0	32780	32775	
811	0	32870	32790	
812	0	32774	32846	
813	0	32804	32884	
814	0	32836	32856	
815	0	32852	32839	
816	0	32846	32852	
817	0	32796	32812	
818	0	32820	32784	
819	0	32802	32790	
820	0	32790	32686	
821	0	32828	32760	
822	0	32840	32736	
823	0	32782	32790	
824	0	32778	32888	
825	0	32830	32791	
826	0	32770	32766	
827	0	32808	32727	
828	0	32829	32762	
829	0	32732	32750	
830	0	32804	32796	
831	0	32824	32834	
832	0	32796	32850	
833	0	32748	32764	
834	0	32798	32848	
835	0	32812	32682	
836	0	32920	32828	
837	0	32768	32742	
838	0	32780	32862	
839	0	32790	32807	
840	0	32800	32750	
841	0	32834	32764	
842	0	32804	32807	
843	0	32816	32752	
844	0	32806	32794	
845	0	32868	32830	
846	0	32854	32836	
847	0	32784	32775	
848	0	32908	32737	
849	0	32790	32875	
850	0	32784	32775	
851	0	32796	32846	
852	0	32828	32810	
853	0	32808	32826	
854	0	32782	32686	
855	0	32790	32914	
856	0	32788	32858	
857	0	32832	32792	
858	0	32792	32818	
859	0	32788	32738	
860	0	32850	32772	
861	0	32748	32790	
862	0	32812	32830	
863	0	32805	32804	
864	0	32756	32802	
865	0	32874	32828	
866	0	32788	32750	
867	0	32772	32760	
868	0	32824	32806	
869	0	32824	32686	
870	0	32800	32774	
871	0	32856	32678	
872	0	32822	32801	
873	0	32792	32806	
874	0	32804	32770	
875	0	32816	32798	
876	0	32800	32684	
877	0	32759	32807	
878	0	32793	32750	
879	0	32864	32788	
880	0	32794	32832	
881	0	32824	32799	
882	0	32868	32788	
883	0	32834	32680	
884	0	32760	32878	
885	0	32820	32804	
886	0	32804	32716	
887	0	32822	32802	
888	0	32770	32718	
889	0	32744	32788	
890	0	32830	32743	
891	0	32766	32708	
892	0	32776	32772	
893	0	32866	32852	
894	0	32808	32828	
895	0	32750	32702	
896	0	32828	32752	
897	0	32764	32698	
898	0	32802	32734	
899	0	32876	32775	
900	0	32880	32796	
901	0	32824	32784	
902	0	32848	32746	
903	0	32792	32751	
904	0	32774	32810	
905	0	32808	32832	
906	0	32808	32892	
907	0	32788	32689	
908	0	32764	32808	
909	0	32804	32711	
910	0	32804	32706	
911	0	32820	32846	
912	0	32836	32684	
913	0	32758	32775	
914	0	32782	32700	
915	0	32828	32802	
916	0	32872	32812	
917	0	32836	32738	
918	0	32864	32724	
919	0	32824	32810	
920	0	32806	32804	
921	0	32784	32812	
922	0	32876	32742	
923	0	32820	32811	
924	0	32896	32719	
925	0	32868	32764	
926	0	32820	32746	
927	0	32852	32743	
928	0	32794	32746	
929	0	32808	32746	
930	0	32766	32768	
931	0	32822	32757	
932	0	32820	32775	
933	0	32800	32807	
934	0	32836	32830	
935	0	32762	32815	
936	0	32850	32710	
937	0	32860	32728	
938	0	32788	32755	
939	0	32836	32734	
940	0	32776	32826	
941	0	32812	32746	
942	0	32830	32808	
943	0	32812	32824	
944	0	32788	32774	
945	0	32792	32796	
946	0	32800	32748	
947	0	32852	32847	
948	0	32792	32758	
949	0	32808	32647	
950	0	32750	32689	
951	0	32778	32732	
952	0	32924	32824	
953	0	32816	32798	
954	0	32826	32682	
955	0	32816	32792	
956	0	32832	32799	
957	0	32864	32732	
958	0	32788	32810	
959	0	32782	32747	
960	0	32808	32674	
961	0	32844	32790	
962	0	32796	32852	
963	0	32820	32812	
964	0	32864	32756	
965	0	32820	32728	
966	0	32830	32788	
967	0	32849	32775	
968	0	32788	32618	
969	0	32888	32806	
970	0	32826	32804	
971	0	32796	32738	
972	0	32748	32768	
973	0	32772	32694	
974	0	32788	32828	
975	0	32766	32761	
976	0	32852	32772	
977	0	32816	32764	
978	0	32796	32666	
979	0	32912	32816	
980	0	32778	32696	
981	0	32856	32746	
982	0	32760	32770	
983	0	32848	32686	
984	0	32848	32796	
985	0	32806	32836	
986	0	32824	32748	
987	0	32766	32750	
988	0	32752	32806	
989	0	32756	32794	
990	0	32796	32748	
991	0	32824	32690	
992	0	32792	32848	
993	0	32856	32827	
994	0	32802	32699	
995	0	32818	32732	
996	0	32916	32860	
997	0	32800	32628	
998	0	32792	32828	
999	0	32876	32840	
1000	0	32788	32766	
1001	0	32830	32744	
1002	0	32788	32774	
1003	0	32816	32816	
1004	0	32792	32802	
1005	0	32836	32756	
1006	0	32804	32796	
1007	0	32820	32807	
1008	0	32836	32775	
1009	0	32832	32788	
1010	0	32792	32683	
1011	0	32768	32726	
1012	0	32864	32687	
1013	0	32812	32846	
1014	0	32798	32898	
1015	0	32812	32702	
1016	0	32848	32790	
1017	0	32852	32730	
1018	0	32862	32754	
1019	0	32784	32854	
1020	0	32826	32752	
1021	0	32868	32790	
1022	0	32780	32656	
1023	0	32778	32804	
1024	0	32843	32750	
1025	0	32832	32799	
1026	0	32790	32807	
1027	0	32794	32628	
1028	0	32802	32836	
1029	0	32828	32676	
1030	0	32730	32794	
1031	0	32824	32824	
1032	0	32828	32695	
1033	0	32780	32822	
1034	0	32818	32760	
1035	0	32834	32764	
1036	0	32816	32810	
1037	0	32818	32710	
1038	0	32772	32729	
1039	0	32844	32812	
1040	0	32820	32824	
1041	0	32800	32814	
1042	0	32784	32816	
1043	0	32856	32716	
1044	0	32798	32718	
1045	0	32790	32825	
1046	0	32792	32670	
1047	0	32752	32794	
1048	0	32820	32694	
1049	0	32794	32796	
1050	0	32780	32775	
1051	0	32882	32696	
1052	0	32785	32760	
1053	0	32864	32876	
1054	0	32788	32799	
1055	0	32860	32808	
1056	0	32856	32756	
1057	0	32848	32824	
1058	0	32874	32704	
1059	0	32834	32811	
1060	0	32776	32746	
1061	0	32808	32771	
1062	0	32808	32752	
1063	0	32804	32720	
1064	0	32768	32748	
1065	0	32776	32772	
1066	0	32904	32806	
1067	0	32822	32754	
1068	0	32796	32766	
1069	0	32812	32844	
1070	0	32786	32712	
1071	0	32828	32775	
1072	0	32764	32692	
1073	0	32824	32836	
1074	0	32764	32838	
1075	0	32812	32754	
1076	0	32804	32764	
1077	0	32856	32810	
1078	0	32838	32784	
1079	0	32820	32775	
1080	0	32880	32687	
1081	0	32808	32820	
1082	0	32722	32814	
1083	0	32792	32694	
1084	0	32816	32748	
1085	0	32828	32670	
1086	0	32824	32726	
1087	0	32824	32660	
1088	0	32828	32831	
1089	0	32776	32804	
1090	0	32844	32748	
1091	0	32852	32760	
1092	0	32798	32747	
1093	0	32780	32752	
1094	0	32769	32796	
1095	0	32874	32652	
1096	0	32920	32806	
1097	0	32852	32826	
1098	0	32832	32766	
1099	0	32776	32799	
1100	0	32814	32762	
1101	0	32876	32742	
1102	0	32785	32730	
1103	0	32790	32616	
1104	0	32834	32839	
1105	0	32796	32787	
1106	0	32806	32684	
1107	0	32770	32774	
1108	0	32800	32804	
1109	0	32852	32710	
1110	0	32826	32728	
1111	0	32844	32702	
1112	0	32818	32840	
1113	0	32840	32816	
1114	0	32776	32686	
1115	0	32804	32802	
1116	0	32842	32744	
1117	0	32872	32744	
1118	0	32760	32858	
1119	0	32836	32782	
1120	0	32804	32728	
1121	0	32780	32772	
1122	0	32796	32848	
1123	0	32781	32674	
1124	0	32780	32792	
1125	0	32764	32673	
1126	0	32824	32800	
1127	0	32864	32812	
1128	0	32860	32710	
1129	0	32840	32743	
1130	0	32804	32716	
1131	0	32800	32845	
1132	0	32842	32792	
1133	0	32824	32698	
1134	0	32808	32792	
1135	0	32820	32854	
1136	0	32796	32788	
1137	0	32804	32722	
1138	0	32822	32800	
1139	0	32856	32829	
1140	0	32872	32800	
1141	0	32741	32817	
1142	0	32822	32846	
1143	0	32804	32746	
1144	0	32860	32718	
1145	0	32848	32670	
1146	0	32746	32806	
1147	0	32778	32866	
1148	0	32888	32692	
1149	0	32836	32752	
1150	0	32764	32711	
1151	0	32812	32746	
1152	0	32802	32759	
1153	0	32812	32728	
1154	0	32748	32714	
1155	0	32824	32648	
1156	0	32768	32810	
1157	0	32836	32806	
1158	0	32820	32799	
1159	0	32820	32852	
1160	0	32838	32702	
1161	0	32820	32720	
1162	0	32816	32686	
1163	0	32824	32815	
1164	0	32848	32884	
1165	0	32766	32696	
1166	0	32872	32774	
1167	0	32828	32769	
1168	0	32764	32772	
1169	0	32810	32832	
1170	0	32844	32700	
1171	0	32764	32739	
1172	0	32788	32674	
1173	0	32852	32850	
1174	0	32824	32874	
1175	0	32792	32721	
1176	0	32892	32706	
1177	0	32780	32655	
1178	0	32808	32808	
1179	0	32832	32676	
1180	0	32844	32754	
1181	0	32804	32764	
1182	0	32826	32819	
1183	0	32806	32828	
1184	0	32782	32764	
1185	0	32796	32804	
1186	0	32768	32630	
1187	0	32818	32752	
1188	0	32826	32767	
1189	0	32808	32774	
1190	0	32800	32714	
1191	0	32832	32748	
1192	0	32816	32698	
1193	0	32754	32820	
1194	0	32900	32775	
1195	0	32804	32775	
1196	0	32812	32799	
1197	0	32832	32771	
1198	0	32824	32810	
1199	0	32864	32800	
1200	0	32812	32738	
1201	0	32846	32826	
1202	0	32854	32738	
1203	0	32810	32824	
1204	0	32792	32704	
1205	0	32804	32752	
1206	0	32768	32794	
1207	0	32828	32784	
1208	0	32820	32806	
1209	0	32784	32731	
1210	0	32836	32724	
1211	0	32832	32706	
1212	0	32794	32775	
1213	0	32768	32732	
1214	0	32814	32753	
1215	0	32816	32810	
1216	0	32816	32712	
1217	0	32808	32818	
1218	0	32816	32795	
1219	0	32816	32666	
1220	0	32800	32788	
1221	0	32856	32870	
1222	0	32842	32796	
1223	0	32824	32775	
1224	0	32820	32695	
1225	0	32854	32721	
1226	0	32774	32854	
1227	0	32796	32722	
1228	0	32832	32742	
1229	0	32836	32766	
1230	0	32845	32800	
1231	0	32802	32793	
1232	0	32810	32798	
1233	0	32756	32810	
1234	0	32814	32656	
1235	0	32796	32743	
1236	0	32800	32716	
1237	0	32792	32798	
1238	0	32852	32775	
1239	0	32788	32822	
1240	0	32808	32792	
1241	0	32792	32748	
1242	0	32785	32831	
1243	0	32768	32816	
1244	0	32792	32710	
1245	0	32848	32799	
1246	0	32878	32838	
1247	0	32838	32616	
1248	0	32780	32740	
1249	0	32778	32646	
1250	0	32808	32759	
1251	0	32812	32814	
1252	0	32788	32678	
1253	0	32776	32806	
1254	0	32780	32818	
1255	0	32852	32815	
1256	0	32824	32772	
1257	0	32800	32751	
1258	0	32820	32775	
1259	0	32846	32746	
1260	0	32788	32760	
1261	0	32760	32724	
1262	0	32916	32772	
1263	0	32844	32839	
1264	0	32760	32766	
1265	0	32824	32688	
1266	0	32800	32807	
1267	0	32808	32775	
1268	0	32892	32812	
1269	0	32826	32746	
1270	0	32784	32728	
1271	0	32800	32775	
1272	0	32836	32860	
1273	0	32812	32724	
1274	0	32826	32682	
1275	0	32817	32830	
1276	0	32788	32720	
1277	0	32824	32775	
1278	0	32804	32686	
1279	0	32780	32816	
1280	0	32828	32860	
1281	0	32792	32772	
1282	0	32782	32698	
1283	0	32824	32712	
1284	0	32798	32814	
1285	0	32834	32766	
1286	0	32848	32710	
1287	0	32830	32743	
1288	0	32828	32818	
1289	0	32836	32730	
1290	0	32800	32800	
1291	0	32848	32839	
1292	0	32824	32676	
1293	0	32800	32654	
1294	0	32778	32820	
1295	0	32844	32820	
1296	0	32782	32708	
1297	0	32798	32830	
1298	0	32772	32730	
1299	0	32864	32766	
1300	0	32796	32810	
1301	0	32844	32806	
1302	0	32800	32807	
1303	0	32780	32752	
1304	0	32752	32775	
1305	0	32782	32694	
1306	0	32816	32732	
1307	0	32776	32757	
1308	0	32836	32775	
1309	0	32776	32640	
1310	0	32826	32796	
1311	0	32836	32760	
1312	0	32792	32756	
1313	0	32836	32750	
1314	0	32862	32775	
1315	0	32792	32668	
1316	0	32788	32810	
1317	0	32800	32838	
1318	0	32798	32710	
1319	0	32753	32775	
1320	0	32776	32714	
1321	0	32816	32864	
1322	0	32804	32790	
1323	0	32764	32692	
1324	0	32818	32718	
1325	0	32788	32718	
1326	0	32848	32746	
1327	0	32864	32836	
1328	0	32853	32670	
1329	0	32840	32842	
1330	0	32856	32791	
1331	0	32780	32679	
1332	0	32808	32764	
1333	0	32792	32820	
1334	0	32816	32774	
1335	0	32744	32720	
1336	0	32830	32720	
1337	0	32786	32808	
1338	0	32846	32794	
1339	0	32836	32796	
1340	0	32816	32762	
1341	0	32832	32798	
1342	0	32834	32664	
1343	0	32809	32775	
1344	0	32798	32804	
1345	0	32820	32812	
1346	0	32732	32808	
1347	0	32828	32740	
1348	0	32816	32758	
1349	0	32864	32764	
1350	0	32824	32660	
1351	0	32744	32806	
1352	0	32780	32872	
1353	0	32780	32736	
1354	0	32868	32844	
1355	0	32836	32673	
1356	0	32800	32794	
1357	0	32816	32826	
1358	0	32832	32702	
1359	0	32844	32822	
1360	0	32740	32735	
1361	0	32816	32730	
1362	0	32792	32816	
1363	0	32775	32782	
1364	0	32825	32716	
1365	0	32844	32756	
1366	0	32816	32800	
1367	0	32768	32775	
1368	0	32800	32792	
1369	0	32790	32850	
1370	0	32820	32687	
1371	0	32808	32720	
1372	0	32896	32860	
1373	0	32818	32794	
1374	0	32772	32744	
1375	0	32786	32858	
1376	0	32798	32714	
1377	0	32832	32796	
1378	0	32834	32772	
1379	0	32782	32738	
1380	0	32788	32754	
1381	0	32852	32758	
1382	0	32826	32743	
1383	0	32806	32848	
1384	0	32788	32766	
1385	0	32852	32679	
1386	0	32844	32802	
1387	0	32800	32748	
1388	0	32760	32775	
1389	0	32814	32744	
1390	0	32826	32792	
1391	0	32844	32740	
1392	0	32832	32710	
1393	0	32740	32807	
1394	0	32834	32714	
1395	0	32780	32856	
1396	0	32836	32814	
1397	0	32834	32622	
1398	0	32804	32832	
1399	0	32760	32856	
1400	0	32820	32736	
1401	0	32784	32775	
1402	0	32844	32752	
1403	0	32880	32725	
1404	0	32828	32684	
1405	0	32809	32652	
1406	0	32816	32736	
1407	0	32892	32736	
1408	0	32800	32673	
1409	0	32784	32836	
1410	0	32780	32814	
1411	0	32752	32744	
1412	0	32792	32807	
1413	0	32770	32679	
1414	0	32816	32804	
1415	0	32792	32804	
1416	0	32849	32745	
1417	0	32802	32760	
1418	0	32736	32678	
1419	0	32822	32742	
1420	0	32788	32732	
1421	0	32810	32692	
1422	0	32824	32711	
1423	0	32820	32768	
1424	0	32832	32790	
1425	0	32834	32862	
1426	0	32840	32772	
1427	0	32832	32800	
1428	0	32784	32694	
1429	0	32770	32834	
1430	0	32764	32834	
1431	0	32800	32718	
1432	0	32840	32775	
1433	0	32816	32794	
1434	0	32774	32826	
1435	0	32778	32682	
1436	0	32826	32820	
1437	0	32812	32720	
1438	0	32834	32790	
1439	0	32836	32775	
1440	0	32780	32692	
1441	0	32760	32772	
1442	0	32778	32732	
1443	0	32728	32700	
1444	0	32850	32718	
1445	0	32828	32849	
1446	0	32852	32830	
1447	0	32750	32788	
1448	0	32796	32810	
1449	0	32857	32710	
1450	0	32824	32761	
1451	0	32824	32724	
1452	0	32812	32852	
1453	0	32838	32842	
1454	0	32828	32842	
1455	0	32808	32832	
1456	0	32782	32722	
1457	0	32776	32772	
1458	0	32794	32748	
1459	0	32740	32832	
1460	0	32852	32821	
1461	0	32830	32662	
1462	0	32834	32781	
1463	0	32772	32807	
1464	0	32824	32750	
1465	0	32856	32766	
1466	0	32792	32818	
1467	0	32756	32727	
1468	0	32822	32775	
1469	0	32804	32786	
1470	0	32792	32647	
1471	0	32796	32786	
1472	0	32792	32775	
1473	0	32860	32724	
1474	0	32824	32802	
1475	0	32844	32670	
1476	0	32832	32774	
1477	0	32782	32730	
1478	0	32788	32756	
1479	0	32816	32764	
1480	0	32768	32718	
1481	0	32776	32839	
1482	0	32853	32647	
1483	0	32836	32775	
1484	0	32816	32788	
1485	0	32796	32847	
1486	0	32772	32714	
1487	0	32814	32879	
1488	0	32804	32818	
1489	0	32820	32748	
1490	0	32822	32796	
1491	0	32868	32732	
1492	0	32824	32742	
1493	0	32832	32724	
1494	0	32748	32656	
1495	0	32810	32647	
1496	0	32826	32775	
1497	0	32834	32774	
1498	0	32792	32756	
1499	0	32820	32865	
1500	0	32800	32700	
1501	0	32842	32764	
1502	0	32816	32743	
1503	0	32836	32764	
1504	0	32784	32688	
1505	0	32820	32804	
1506	0	32832	32838	
1507	0	32812	32844	
1508	0	32772	32798	
1509	0	32832	32728	
1510	0	32832	32824	
1511	0	32830	32710	
1512	0	32852	32740	
1513	0	32832	32825	
1514	0	32876	32812	
1515	0	32796	32721	
1516	0	32761	32668	
1517	0	32816	32740	
1518	0	32806	32748	
1519	0	32856	32788	
1520	0	32798	32748	
1521	0	32804	32718	
1522	0	32820	32752	
1523	0	32804	32742	
1524	0	32834	32716	
1525	0	32744	32662	
1526	0	32821	32742	
1527	0	32816	32722	
1528	0	32860	32866	
1529	0	32816	32730	
1530	0	32832	32714	
1531	0	32832	32736	
1532	0	32826	32848	
1533	0	32748	32812	
1534	0	32792	32724	
1535	0	32848	32822	
1536	0	32860	32710	
1537	0	32788	32846	
1538	0	32812	32682	
1539	0	32786	32849	
1540	0	32768	32838	
1541	0	32812	32750	
1542	0	32706	32816	
1543	0	32804	32770	
1544	0	32840	32718	
1545	0	32820	32780	
1546	0	32816	32764	
1547	0	32772	32634	
1548	0	32820	32728	
1549	0	32897	32732	
1550	0	32926	32705	
1551	0	32904	32702	
1552	0	32844	32738	
1553	0	32824	32764	
1554	0	32898	32646	
1555	0	32822	32780	
1556	0	32868	32794	
1557	0	32856	32768	
1558	0	32866	32659	
1559	0	32906	32670	
1560	0	32876	32630	
1561	0	32920	32660	
1562	0	32856	32623	
1563	0	32912	32757	
1564	0	32889	32688	
1565	0	32910	32756	
1566	0	32844	32688	
1567	0	32874	32775	
1568	0	32830	32698	
1569	0	32874	32802	
1570	0	32836	32798	
1571	0	32834	32746	
1572	0	32756	32814	
1573	0	32724	32791	
1574	0	32708	32887	
1575	0	32716	33031	
1576	0	32664	32824	
1577	0	32692	32916	
1578	0	32692	32891	
1579	0	32700	32920	
1580	0	32628	32932	
1581	0	32706	32980	
1582	0	32634	32884	
1583	0	32624	32943	
1584	0	32592	32958	
1585	0	32613	33031	
1586	0	32608	33040	
1587	0	32606	33082	
1588	0	32644	32984	
1589	0	32664	32944	
1590	0	32660	32954	
1591	0	32818	32824	
1592	0	32750	32732	
1593	0	32888	32612	
1594	0	32962	32599	
1595	0	32896	32490	
1596	0	32912	32618	
1597	0	32886	32610	
1598	0	32912	32500	
1599	0	32937	32628	
1600	0	32916	32496	
1601	0	32918	32629	
1602	0	32908	32583	
1603	0	32848	32716	
1604	0	32872	32767	
1605	0	32826	32754	
1606	0	32872	32796	
1607	0	32820	32626	
1608	0	32874	32812	
1609	0	32802	32732	
1610	0	32766	32842	
1611	0	32804	32708	
1612	0	32785	32844	
1613	0	32804	32866	
1614	0	32824	32826	
1615	0	32778	32852	
1616	0	32844	32852	
1617	0	32830	32805	
1618	0	32812	32722	
1619	0	32810	32825	
1620	0	32848	32712	
1621	0	32868	32744	
1622	0	32860	32708	
1623	0	32816	32710	
1624	0	32864	32647	
1625	0	32796	32800	
1626	0	32770	32647	
1627	0	32788	32800	
1628	0	32834	32734	
1629	0	32848	32742	
1630	0	32784	32676	
1631	0	32804	32838	
1632	0	32792	32798	
1633	0	32800	32742	
1634	0	32878	32807	
1635	0	32844	32836	
1636	0	32798	32764	
1637	0	32821	32758	
1638	0	32804	32823	
1639	0	32814	32704	
1640	0	32800	32732	
1641	0	32864	32836	
1642	0	32824	32806	
1643	0	32900	32808	
1644	0	32848	32814	
1645	0	32804	32775	
1646	0	32902	32839	
1647	0	32832	32736	
1648	0	32828	32772	
1649	0	32896	32636	
1650	0	32888	32704	
1651	0	32808	32726	
1652	0	32798	32775	
1653	0	32804	32852	
1654	0	32788	32838	
1655	0	32836	32775	
1656	0	32848	32808	
1657	0	32828	32804	
1658	0	32840	32760	
1659	0	32864	32742	
1660	0	32820	32794	
1661	0	32888	32758	
1662	0	32836	32766	
1663	0	32854	32812	
1664	0	32808	32691	
1665	0	32802	32718	
1666	0	32800	32690	
1667	0	32920	32745	
1668	0	32864	32724	
1669	0	32804	32740	
1670	0	32792	32710	
1671	0	32800	32796	
1672	0	32781	32687	
1673	0	32762	32775	
1674	0	32758	32666	
1675	0	32845	32839	
1676	0	32764	32716	
1677	0	32780	32774	
1678	0	32764	32800	
1679	0	32800	32808	
1680	0	32756	32647	
1681	0	32790	32764	
1682	0	32780	32770	
1683	0	32824	32807	
1684	0	32842	32750	
1685	0	32776	32798	
1686	0	32736	32814	
1687	0	32808	32820	
1688	0	32802	32793	
1689	0	32824	32706	
1690	0	32844	32786	
1691	0	32804	32679	
1692	0	32836	32752	
1693	0	32844	32688	
1694	0	32794	32775	
1695	0	32794	32726	
1696	0	32784	32742	
1697	0	32838	32718	
1698	0	32784	32812	
1699	0	32836	32704	
1700	0	32824	32824	
1701	0	32872	32668	
1702	0	32792	32775	
1703	0	32772	32692	
1704	0	32752	32871	
1705	0	32808	32858	
1706	0	32748	32736	
1707	0	32842	32810	
1708	0	32892	32806	
1709	0	32792	32860	
1710	0	32804	32820	
1711	0	32845	32799	
1712	0	32750	32844	
1713	0	32844	32846	
1714	0	32800	32775	
1715	0	32834	32788	
1716	0	32812	32663	
1717	0	32816	32800	
1718	0	32788	32733	
1719	0	32782	32750	
1720	0	32806	32708	
1721	0	32844	32824	
1722	0	32785	32794	
1723	0	32752	32706	
1724	0	32790	32750	
1725	0	32824	32760	
1726	0	32844	32860	
1727	0	32800	32842	
1728	0	32738	32850	
1729	0	32824	32880	
1730	0	32794	32794	
1731	0	32878	32757	
1732	0	32806	32774	
1733	0	32812	32758	
1734	0	32706	32728	
1735	0	32856	32752	
1736	0	32774	32700	
1737	0	32806	32784	
1738	0	32812	32712	
1739	0	32798	32864	
1740	0	32796	32807	
1741	0	32800	32807	
1742	0	32794	32888	
1743	0	32844	32700	
1744	0	32814	32770	
1745	0	32832	32708	
1746	0	32828	32730	
1747	0	32788	32678	
1748	0	32820	32665	
1749	0	32876	32730	
1750	0	32788	32763	
1751	0	32808	32706	
1752	0	32804	32852	
1753	0	32768	32794	
1754	0	32836	32836	
1755	0	32900	32843	
1756	0	32796	32660	
1757	0	32792	32796	
1758	0	32844	32702	
1759	0	32788	32826	
1760	0	32824	32767	
1761	0	32784	32774	
1762	0	32824	32775	
1763	0	32804	32662	
1764	0	32840	32820	
1765	0	32804	32834	
1766	0	32846	32730	
1767	0	32860	32769	
1768	0	32784	32739	
1769	0	32832	32754	
1770	0	32806	32826	
1771	0	32865	32660	
1772	0	32832	32774	
1773	0	32882	32791	
1774	0	32836	32724	
1775	0	32780	32838	
1776	0	32796	32844	
1777	0	32776	32752	
1778	0	32876	32842	
1779	0	32800	32734	
1780	0	32772	32838	
1781	0	32802	32774	
1782	0	32768	32712	
1783	0	32848	32826	
1784	0	32796	32740	
1785	0	32780	32798	
1786	0	32804	32688	
1787	0	32808	32784	
1788	0	32856	32702	
1789	0	32828	32807	
1790	0	32816	32808	
1791	0	32804	32726	
1792	0	32836	32744	
1793	0	32800	32848	
1794	0	32756	32756	
1795	0	32788	32752	
1796	0	32852	32720	
1797	0	32808	32832	
1798	0	32806	32856	
1799	0	32809	32734	
1800	0	32832	32861	
1801	0	32832	32750	
1802	0	32764	32752	
1803	0	32820	32708	
1804	0	32775	32822	
1805	0	32764	32838	
1806	0	32796	32682	
1807	0	32820	32734	
1808	0	32832	32748	
1809	0	32832	32712	
1810	0	32816	32775	
1811	0	32840	32860	
1812	0	32792	32800	
1813	0	32772	32647	
1814	0	32832	32744	
1815	0	32792	32726	
1816	0	32832	32820	
1817	0	32804	32692	
1818	0	32828	32752	
1819	0	32842	32822	
1820	0	32800	32770	
1821	0	32816	32772	
1822	0	32823	32720	
1823	0	32761	32744	
1824	0	32818	32860	
1825	0	32800	32764	
1826	0	32804	32766	
1827	0	32812	32688	
1828	0	32816	32767	
1829	0	32804	32704	
1830	0	32822	32742	
1831	0	32806	32729	
1832	0	32796	32812	
1833	0	32904	32762	
1834	0	32752	32816	
1835	0	32784	32774	
1836	0	32812	32678	
1837	0	32796	32802	
1838	0	32784	32810	
1839	0	32826	32766	
1840	0	32752	32748	
1841	0	32800	32730	
1842	0	32808	32788	
1843	0	32796	32728	
1844	0	32828	32808	
1845	0	32814	32807	
1846	0	32816	32750	
1847	0	32802	32836	
1848	0	32824	32646	
1849	0	32800	32724	
1850	0	32828	32736	
1851	0	32784	32878	
1852	0	32864	32816	
1853	0	32846	32709	
1854	0	32844	32742	
1855	0	32775	32820	
1856	0	32810	32664	
1857	0	32829	32768	
1858	0	32768	32772	
1859	0	32820	32720	
1860	0	32892	32890	
1861	0	32834	32798	
1862	0	32784	32706	
1863	0	32774	32798	
1864	0	32854	32828	
1865	0	32784	32748	
1866	0	32754	32770	
1867	0	32834	32839	
1868	0	32828	32710	
1869	0	32796	32724	
1870	0	32796	32775	
1871	0	32802	32724	
1872	0	32826	32810	
1873	0	32828	32818	
1874	0	32801	32774	
1875	0	32872	32798	
1876	0	32848	32814	
1877	0	32808	32775	
1878	0	32828	32712	
1879	0	32740	32736	
1880	0	32750	32810	
1881	0	32818	32706	
1882	0	32822	32775	
1883	0	32842	32808	
1884	0	32832	32838	
1885	0	32800	32826	
1886	0	32772	32648	
1887	0	32824	32786	
1888	0	32816	32770	
1889	0	32816	32734	
1890	0	32832	32830	
1891	0	32810	32809	
1892	0	32844	32752	
1893	0	32792	32844	
1894	0	32816	32721	
1895	0	32810	32726	
1896	0	32840	32798	
1897	0	32838	32825	
1898	0	32814	32646	
1899	0	32830	32775	
1900	0	32840	32763	
1901	0	32804	32724	
1902	0	32792	32748	
1903	0	32772	32718	
1904	0	32808	32835	
1905	0	32812	32750	
1906	0	32816	32732	
1907	0	32840	32824	
1908	0	32840	32704	
1909	0	32775	32806	
1910	0	32792	32694	
1911	0	32776	32775	
1912	0	32816	32894	
1913	0	32826	32702	
1914	0	32804	32685	
1915	0	32816	32786	
1916	0	32824	32861	
1917	0	32800	32702	
1918	0	32856	32856	
1919	0	32796	32852	
1920	0	32836	32718	
1921	0	32796	32799	
1922	0	32852	32860	
1923	0	32784	32674	
1924	0	32872	32748	
1925	0	32812	32686	
1926	0	32824	32838	
1927	0	32781	32798	
1928	0	32820	32748	
1929	0	32814	32812	
1930	0	32872	32692	
1931	0	32798	32746	
1932	0	32900	32847	
1933	0	32814	32770	
1934	0	32824	32814	
1935	0	32832	32742	
1936	0	32804	32700	
1937	0	32748	32658	
1938	0	32760	32816	
1939	0	32836	32728	
1940	0	32812	32749	
1941	0	32832	32846	
1942	0	32840	32815	
1943	0	32794	32836	
1944	0	32832	32774	
1945	0	32776	32686	
1946	0	32778	32602	
1947	0	32796	32656	
1948	0	32848	32756	
1949	0	32790	32702	
1950	0	32808	32740	
1951	0	32832	32858	
1952	0	32788	32775	
1953	0	32820	32682	
1954	0	32842	32772	
1955	0	32852	32772	
1956	0	32878	32775	
1957	0	32840	32769	
1958	0	32854	32792	
1959	0	32860	32812	
1960	0	32762	32700	
1961	0	32872	32764	
1962	0	32756	32810	
1963	0	32820	32732	
1964	0	32740	32807	
1965	0	32832	32716	
1966	0	32800	32712	
1967	0	32840	32854	
1968	0	32792	32772	
1969	0	32748	32740	
1970	0	32828	32814	
1971	0	32780	32786	
1972	0	32792	32684	
1973	0	32760	32711	
1974	0	32828	32820	
1975	0	32904	32775	
1976	0	32856	32796	
1977	0	32792	32768	
1978	0	32800	32852	
1979	0	32818	32712	
1980	0	32848	32764	
1981	0	32814	32743	
1982	0	32768	32816	
1983	0	32804	32740	
1984	0	32784	32735	
1985	0	32786	32830	
1986	0	32804	32815	
1987	0	32784	32654	
1988	0	32770	32830	
1989	0	32824	32792	
1990	0	32824	32698	
1991	0	32842	32689	
1992	0	32764	32834	
1993	0	32788	32774	
1994	0	32830	32774	
1995	0	32864	32756	
1996	0	32818	32748	
1997	0	32784	32786	
1998	0	32802	32706	
1999	0	32840	32820	
2000	0	32804	32808	
2001	0	32820	32662	
2002	0	32836	32793	
2003	0	32788	32824	
2004	0	32806	32782	
2005	0	32816	32760	
2006	0	32824	32712	
2007	0	32812	32788	
2008	0	32752	32810	
2009	0	32775	32720	
2010	0	32812	32796	
2011	0	32788	32816	
2012	0	32828	32624	
2013	0	32858	32844	
2014	0	32794	32822	
2015	0	32874	32764	
2016	0	32820	32748	
2017	0	32840	32793	
2018	0	32822	32711	
2019	0	32840	32737	
2020	0	32800	32737	
2021	0	32752	32734	
2022	0	32776	32775	
2023	0	32836	32775	
2024	0	32794	32714	
2025	0	32820	32788	
2026	0	32802	32700	
2027	0	32792	32732	
2028	0	32840	32630	
2029	0	32798	32726	
2030	0	32896	32730	
2031	0	32804	32821	
2032	0	32808	32694	
2033	0	32784	32772	
2034	0	32868	32682	
2035	0	32828	32788	
2036	0	32774	32706	
2037	0	32812	32810	
2038	0	32792	32775	
2039	0	32770	32748	
2040	0	32804	32774	
2041	0	32802	32758	
2042	0	32760	32740	
2043	0	32832	32706	
2044	0	32800	32772	
2045	0	32772	32719	
2046	0	32852	32743	
2047	0	32832	32844	
2048	0	32804	32775	
2049	0	32792	32775	
2050	0	32740	32696	
2051	0	32796	32794	
2052	0	32864	32788	
2053	0	32810	32852	
2054	0	32836	32839	
2055	0	32808	32761	
2056	0	32804	32838	
2057	0	32796	32756	
2058	0	32852	32775	
2059	0	32796	32665	
2060	0	32770	32774	
2061	0	32820	32830	
2062	0	32784	32688	
2063	0	32828	32796	
2064	0	32828	32654	
2065	0	32810	32824	
2066	0	32808	32790	
2067	0	32788	32727	
2068	0	32792	32832	
2069	0	32808	32642	
2070	0	32816	32762	
2071	0	32848	32724	
2072	0	32812	32858	
2073	0	32794	32774	
2074	0	32840	32704	
2075	0	32792	32753	
2076	0	32840	32731	
2077	0	32810	32780	
2078	0	32796	32758	
2079	0	32756	32755	
2080	0	32816	32775	
2081	0	32872	32668	
2082	0	32796	32743	
2083	0	32830	32738	
2084	0	32780	32688	
2085	0	32802	32768	
2086	0	32772	32774	
2087	0	32822	32806	
2088	0	32826	32742	
2089	0	32828	32631	
2090	0	32792	32775	
2091	0	32784	32743	
2092	0	32838	32862	
2093	0	32822	32866	
2094	0	32856	32711	
2095	0	32844	32711	
2096	0	32748	32690	
2097	0	32840	32799	
2098	0	32852	32794	
2099	0	32804	32754	
2100	0	32820	32686	
2101	0	32820	32839	
2102	0	32804	32689	
2103	0	32816	32836	
2104	0	32732	32838	
2105	0	32814	32750	
2106	0	32798	32726	
2107	0	32810	32752	
2108	0	32736	32844	
2109	0	32850	32838	
2110	0	32888	32722	
2111	0	32800	32772	
2112	0	32818	32716	
2113	0	32796	32788	
2114	0	32848	32768	
2115	0	32808	32719	
2116	0	32808	32826	
2117	0	32892	32702	
2118	0	32806	32736	
2119	0	32802	32689	
2120	0	32808	32772	
2121	0	32836	32812	
2122	0	32774	32796	
2123	0	32786	32825	
2124	0	32832	32692	
2125	0	32834	32772	
2126	0	32828	32810	
2127	0	32840	32736	
2128	0	32830	32848	
2129	0	32782	32788	
2130	0	32808	32668	
2131	0	32778	32850	
2132	0	32788	32775	
2133	0	32798	32772	
2134	0	32868	32738	
2135	0	32836	32716	
2136	0	32806	32775	
2137	0	32826	32808	
2138	0	32824	32772	
2139	0	32788	32760	
2140	0	32788	32878	
2141	0	32792	32760	
2142	0	32820	32740	
2143	0	32820	32694	
2144	0	32778	32720	
2145	0	32758	32775	
2146	0	32894	32775	
2147	0	32860	32740	
2148	0	32846	32862	
2149	0	32804	32718	
2150	0	32756	32748	
2151	0	32824	32679	
2152	0	32824	32775	
2153	0	32824	32775	
2154	0	32810	32724	
2155	0	32752	32831	
2156	0	32840	32854	
2157	0	32764	32698	
2158	0	32794	32772	
2159	0	32800	32782	
2160	0	32788	32728	
2161	0	32812	32775	
2162	0	32848	32742	
2163	0	32880	32752	
2164	0	32784	32766	
2165	0	32820	32767	
2166	0	32794	32836	
2167	0	32808	32746	
2168	0	32812	32807	
2169	0	32778	32809	
2170	0	32808	32692	
2171	0	32828	32844	
2172	0	32860	32823	
2173	0	32748	32814	
2174	0	32826	32746	
2175	0	32804	32734	
2176	0	32848	32744	
2177	0	32849	32756	
2178	0	32752	32734	
2179	0	32844	32866	
2180	0	32848	32740	
2181	0	32858	32774	
2182	0	32796	32827	
2183	0	32838	32650	
2184	0	32784	32748	
2185	0	32824	32712	
2186	0	32833	32714	
2187	0	32774	32802	
2188	0	32800	32746	
2189	0	32828	32820	
2190	0	32828	32786	
2191	0	32804	32686	
2192	0	32838	32828	
2193	0	32820	32808	
2194	0	32762	32762	
2195	0	32800	32791	
2196	0	32780	32726	
2197	0	32716	32732	
2198	0	32760	32908	
2199	0	32856	32806	
2200	0	32800	32836	
2201	0	32848	32719	
2202	0	32828	32775	
2203	0	32784	32724	
2204	0	32756	32775	
2205	0	32808	32640	
2206	0	32812	32732	
2207	0	32844	32831	
2208	0	32840	32750	
2209	0	32780	32796	
2210	0	32788	32694	
2211	0	32832	32764	
2212	0	32836	32678	
2213	0	32816	32775	
2214	0	32808	32750	
2215	0	32838	32856	
2216	0	32768	32820	
2217	0	32808	32743	
2218	0	32796	32692	
2219	0	32856	32664	
2220	0	32804	32742	
2221	0	32844	32796	
2222	0	32780	32775	
2223	0	32848	32740	
2224	0	32838	32712	
2225	0	32772	32791	
2226	0	32760	32775	
2227	0	32804	32759	
2228	0	32780	32762	
2229	0	32832	32759	
2230	0	32868	32657	
2231	0	32828	32810	
2232	0	32804	32817	
2233	0	32816	32722	
2234	0	32810	32858	
2235	0	32844	32772	
2236	0	32842	32766	
2237	0	32812	32684	
2238	0	32760	32708	
2239	0	32836	32720	
2240	0	32800	32742	
2241	0	32840	32818	
2242	0	32834	32679	
2243	0	32796	32838	
2244	0	32816	32790	
2245	0	32816	32724	
2246	0	32826	32692	
2247	0	32820	32680	
2248	0	32840	32735	
2249	0	32802	32741	
2250	0	32874	32813	
2251	0	32820	32858	
2252	0	32828	32870	
2253	0	32736	32775	
2254	0	32792	32775	
2255	0	32764	32872	
2256	0	32852	32726	
2257	0	32844	32791	
2258	0	32808	32691	
2259	0	32816	32844	
2260	0	32826	32815	
2261	0	32838	32718	
2262	0	32822	32798	
2263	0	32832	32708	
2264	0	32768	32764	
2265	0	32794	32711	
2266	0	32922	32832	
2267	0	32752	32722	
2268	0	32778	32702	
2269	0	32852	32806	
2270	0	32804	32770	
2271	0	32800	32772	
2272	0	32864	32816	
2273	0	32828	32752	
2274	0	32812	32796	
2275	0	32844	32714	
2276	0	32776	32730	
2277	0	32816	32876	
2278	0	32832	32714	
2279	0	32744	32724	
2280	0	32876	32742	
2281	0	32764	32751	
2282	0	32820	32824	
2283	0	32842	32786	
2284	0	32820	32658	
2285	0	32780	32852	
2286	0	32728	32766	
2287	0	32832	32688	
2288	0	32892	32770	
2289	0	32830	32846	
2290	0	32892	32620	
2291	0	32854	32832	
2292	0	32806	32742	
2293	0	32816	32748	
2294	0	32844	32770	
2295	0	32840	32826	
2296	0	32800	32810	
2297	0	32840	32705	
2298	0	32780	32752	
2299	0	32821	32774	
2300	0	32876	32800	
2301	0	32816	32878	
2302	0	32780	32748	
2303	0	32828	32683	
2304	0	32792	32647	
2305	0	32944	32852	
2306	0	32834	32814	
2307	0	32748	32804	
2308	0	32812	32708	
2309	0	32758	32862	
2310	0	32796	32744	
2311	0	32828	32740	
2312	0	32806	32824	
2313	0	32824	32734	
2314	0	32788	32736	
2315	0	32808	32810	
2316	0	32844	32754	
2317	0	32860	32734	
2318	0	32836	32820	
2319	0	32836	32756	
2320	0	32864	32890	
2321	0	32798	32804	
2322	0	32750	32678	
2323	0	32804	32802	
2324	0	32796	32736	
2325	0	32836	32786	
2326	0	32756	32770	
2327	0	32808	32772	
2328	0	32874	32806	
2329	0	32786	32838	
2330	0	32868	32794	
2331	0	32832	32710	
2332	0	32856	32774	
2333	0	32790	32772	
2334	0	32860	32736	
2335	0	32828	32716	
2336	0	32832	32820	
2337	0	32768	32740	
2338	0	32828	32748	
2339	0	32784	32676	
2340	0	32784	32792	
2341	0	32868	32748	
2342	0	32888	32730	
2343	0	32760	32770	
2344	0	32840	32678	
2345	0	32832	32700	
2346	0	32900	32823	
2347	0	32812	32814	
2348	0	32870	32762	
2349	0	32794	32850	
2350	0	32802	32775	
2351	0	32760	32660	
2352	0	32816	32824	
2353	0	32800	32788	
2354	0	32824	32743	
2355	0	32820	32840	
2356	0	32874	32798	
2357	0	32834	32736	
2358	0	32842	32708	
2359	0	32812	32839	
2360	0	32824	32775	
2361	0	32820	32775	
2362	0	32820	32796	
2363	0	32800	32799	
2364	0	32780	32742	
2365	0	32860	32812	
2366	0	32770	32790	
2367	0	32792	32688	
2368	0	32816	32682	
2369	0	32830	32838	
2370	0	32912	32841	
2371	0	32758	32740	
2372	0	32800	32798	
2373	0	32820	32698	
2374	0	32812	32734	
2375	0	32760	32842	
2376	0	32846	32834	
2377	0	32802	32815	
2378	0	32760	32794	
2379	0	32808	32678	
2380	0	32828	32720	
2381	0	32896	32680	
2382	0	32768	32874	
2383	0	32776	32770	
2384	0	32808	32774	
2385	0	32788	32814	
2386	0	32786	32746	
2387	0	32820	32824	
2388	0	32840	32775	
2389	0	32868	32744	
2390	0	32836	32796	
2391	0	32792	32708	
2392	0	32748	32774	
2393	0	32806	32831	
2394	0	32788	32804	
2395	0	32838	32724	
2396	0	32836	32746	
2397	0	32788	32822	
2398	0	32801	32775	
2399	0	32804	32742	
2400	0	32832	32836	
2401	0	32812	32814	
2402	0	32800	32815	
2403	0	32828	32774	
2404	0	32810	32760	
2405	0	32758	32792	
2406	0	32792	32686	
2407	0	32810	32775	
2408	0	32824	32680	
2409	0	32828	32770	
2410	0	32793	32708	
2411	0	32816	32736	
2412	0	32756	32672	
2413	0	32834	32774	
2414	0	32816	32654	
2415	0	32816	32790	
2416	0	32828	32824	
2417	0	32826	32768	
2418	0	32816	32800	
2419	0	32844	32710	
2420	0	32804	32772	
2421	0	32852	32796	
2422	0	32800	32844	
2423	0	32856	32758	
2424	0	32804	32834	
2425	0	32752	32762	
2426	0	32760	32694	
2427	0	32844	32790	
2428	0	32766	32684	
2429	0	32816	32789	
2430	0	32824	32788	
2431	0	32802	32718	
2432	0	32802	32772	
2433	0	32792	32702	
2434	0	32812	32775	
2435	0	32794	32824	
2436	0	32816	32804	
2437	0	32856	32802	
2438	0	32786	32804	
2439	0	32820	32812	
2440	0	32788	32730	
2441	0	32836	32826	
2442	0	32836	32820	
2443	0	32854	32713	
2444	0	32832	32775	
2445	0	32792	32720	
2446	0	32776	32804	
2447	0	32828	32662	
2448	0	32812	32807	
2449	0	32802	32752	
2450	0	32788	32698	
2451	0	32872	32804	
2452	0	32830	32766	
2453	0	32792	32798	
2454	0	32780	32746	
2455	0	32818	32830	
2456	0	32790	32740	
2457	0	32776	32700	
2458	0	32748	32702	
2459	0	32852	32678	
2460	0	32844	32598	
2461	0	32816	32722	
2462	0	32780	32763	
2463	0	32848	32898	
2464	0	32812	32804	
2465	0	32812	32775	
2466	0	32792	32775	
2467	0	32812	32714	
2468	0	32752	32758	
2469	0	32856	32791	
2470	0	32870	32858	
2471	0	32836	32807	
2472	0	32865	32694	
2473	0	32820	32680	
2474	0	32796	32719	
2475	0	32756	32742	
2476	0	32822	32754	
2477	0	32802	32764	
2478	0	32812	32854	
2479	0	32822	32792	
2480	0	32816	32848	
2481	0	32836	32775	
2482	0	32776	32774	
2483	0	32832	32752	
2484	0	32824	32724	
2485	0	32832	32806	
2486	0	32848	32712	
2487	0	32820	32724	
2488	0	32769	32698	
2489	0	32782	32687	
2490	0	32840	32724	
2491	0	32812	32852	
2492	0	32752	32772	
2493	0	32760	32855	
2494	0	32836	32910	
2495	0	32826	32726	
2496	0	32856	32722	
2497	0	32832	32743	
2498	0	32808	32792	
2499	0	32832	32782	
2500	0	32764	32892	
2501	0	32708	32748	
2502	0	32900	32692	
2503	0	32764	32684	
2504	0	32808	32828	
2505	0	32782	32788	
2506	0	32784	32672	
2507	0	32812	32807	
2508	0	32824	32900	
2509	0	32824	32718	
2510	0	32836	32807	
2511	0	32728	32742	
2512	0	32848	32784	
2513	0	32800	32822	
2514	0	32820	32759	
2515	0	32820	32775	
2516	0	32800	32772	
2517	0	32816	32772	
2518	0	32836	32654	
2519	0	32861	32728	
2520	0	32832	32647	
2521	0	32848	32812	
2522	0	32764	32810	
2523	0	32812	32734	
2524	0	32836	32775	
2525	0	32852	32644	
2526	0	32762	32766	
2527	0	32860	32754	
2528	0	32810	32792	
2529	0	32828	32804	
2530	0	32820	32806	
2531	0	32772	32775	
2532	0	32808	32624	
2533	0	32828	32720	
2534	0	32800	32750	
2535	0	32840	32744	
2536	0	32800	32800	
2537	0	32792	32695	
2538	0	32808	32874	
2539	0	32804	32864	
2540	0	32818	32722	
2541	0	32760	32708	
2542	0	32886	32724	
2543	0	32740	32806	
2544	0	32804	32844	
2545	0	32744	32775	
2546	0	32864	32718	
2547	0	32757	32664	
2548	0	32792	32775	
2549	0	32868	32775	
2550	0	32794	32672	
2551	0	32782	32760	
2552	0	32856	32770	
2553	0	32808	32796	
2554	0	32784	32852	
2555	0	32844	32744	
2556	0	32788	32792	
2557	0	32816	32687	
2558	0	32780	32832	
2559	0	32808	32751	
2560	0	32868	32775	
2561	0	32788	32828	
2562	0	32784	32678	
2563	0	32798	32800	
2564	0	32820	32810	
2565	0	32820	32687	
2566	0	32788	32788	
2567	0	32801	32732	
2568	0	32790	32672	
2569	0	32792	32716	
2570	0	32804	32791	
2571	0	32740	32692	
2572	0	32852	32741	
2573	0	32832	32710	
2574	0	32800	32775	
2575	0	32898	32839	
2576	0	32822	32764	
2577	0	32784	32824	
2578	0	32810	32682	
2579	0	32842	32725	
2580	0	32788	32798	
2581	0	32812	32692	
2582	0	32812	32775	
2583	0	32824	32888	
2584	0	32808	32732	
2585	0	32784	32695	
2586	0	32824	32734	
2587	0	32820	32636	
2588	0	32853	32832	
2589	0	32758	32688	
2590	0	32796	32688	
2591	0	32840	32807	
2592	0	32802	32772	
2593	0	32794	32775	
2594	0	32828	32742	
2595	0	32870	32730	
2596	0	32842	32728	
2597	0	32756	32914	
2598	0	32830	32808	
2599	0	32869	32712	
2600	0	32808	32871	
2601	0	32784	32789	
2602	0	32800	32710	
2603	0	32832	32720	
2604	0	32840	32742	
2605	0	32824	32728	
2606	0	32856	32750	
2607	0	32790	32736	
2608	0	32808	32644	
2609	0	32780	32830	
2610	0	32900	32868	
2611	0	32816	32727	
2612	0	32794	32782	
2613	0	32824	32692	
2614	0	32794	32679	
2615	0	32828	32721	
2616	0	32792	32816	
2617	0	32801	32728	
2618	0	32778	32852	
2619	0	32796	32852	
2620	0	32800	32702	
2621	0	32781	32710	
2622	0	32792	32836	
2623	0	32832	32806	
2624	0	32784	32804	
2625	0	32840	32743	
2626	0	32816	32692	
2627	0	32818	32686	
2628	0	32856	32788	
2629	0	32868	32828	
2630	0	32824	32747	
2631	0	32828	32796	
2632	0	32798	32870	
2633	0	32804	32719	
2634	0	32760	32711	
2635	0	32848	32700	
2636	0	32808	32840	
2637	0	32796	32856	
2638	0	32836	32775	
2639	0	32828	32791	
2640	0	32760	32814	
2641	0	32832	32814	
2642	0	32826	32768	
2643	0	32764	32726	
2644	0	32824	32728	
2645	0	32856	32752	
2646	0	32800	32752	
2647	0	32824	32788	
2648	0	32784	32775	
2649	0	32860	32775	
2650	0	32802	32679	
2651	0	32728	32734	
2652	0	32804	32815	
2653	0	32852	32684	
2654	0	32810	32775	
2655	0	32834	32722	
2656	0	32794	32876	
2657	0	32840	32872	
2658	0	32800	32775	
2659	0	32776	32839	
2660	0	32852	32740	
2661	0	32822	32775	
2662	0	32830	32722	
2663	0	32808	32756	
2664	0	32782	32720	
2665	0	32812	32772	
2666	0	32760	32704	
2667	0	32768	32860	
2668	0	32776	32816	
2669	0	32788	32796	
2670	0	32796	32775	
2671	0	32768	32700	
2672	0	32876	32836	
2673	0	32792	32788	
2674	0	32821	32660	
2675	0	32864	32756	
2676	0	32906	32728	
2677	0	32916	32607	
2678	0	32846	32868	
2679	0	32852	32710	
2680	0	32844	32620	
2681	0	32900	32752	
2682	0	32844	32728	
2683	0	32836	32634	
2684	0	32880	32742	
2685	0	32841	32610	
2686	0	32788	32750	
2687	0	32924	32726	
2688	0	32848	32624	
2689	0	32926	32762	
2690	0	32876	32711	
2691	0	32876	32622	
2692	0	32865	32703	
2693	0	32888	32670	
2694	0	32824	32679	
2695	0	32804	32750	
2696	0	32800	32724	
2697	0	32796	32868	
2698	0	32844	32844	
2699	0	32798	32804	
2700	0	32732	32903	
2701	0	32736	32800	
2702	0	32688	32922	
2703	0	32652	32970	
2704	0	32753	32878	
2705	0	32732	33040	
2706	0	32700	32964	
2707	0	32652	32886	
2708	0	32702	33004	
2709	0	32740	32964	
2710	0	32704	33016	
2711	0	32508	32912	
2712	0	32638	32956	
2713	0	32628	32948	
2714	0	32618	32916	
2715	0	32638	33028	
2716	0	32704	33066	
2717	0	32676	32994	
2718	0	32778	32767	
2719	0	32798	32632	
2720	0	32892	32657	
2721	0	32880	32644	
2722	0	32932	32586	
2723	0	32932	32604	
2724	0	32946	32492	
2725	0	32874	32544	
2726	0	32844	32694	
2727	0	32866	32532	
2728	0	32878	32596	
2729	0	32874	32590	
2730	0	32864	32639	
2731	0	32884	32647	
2732	0	32832	32804	
2733	0	32840	32746	
2734	0	32888	32828	
2735	0	32816	32698	
2736	0	32820	32742	
2737	0	32844	32823	
2738	0	32824	32858	
2739	0	32832	32788	
2740	0	32858	32836	
2741	0	32846	32782	
2742	0	32820	32775	
2743	0	32740	32702	
2744	0	32824	32816	
2745	0	32788	32796	
2746	0	32840	32738	
2747	0	32848	32760	
2748	0	32816	32655	
2749	0	32832	32772	
2750	0	32812	32737	
2751	0	32804	32812	
2752	0	32848	32810	
2753	0	32740	32644	
2754	0	32844	32772	
2755	0	32800	32806	
2756	0	32826	32684	
2757	0	32878	32806	
2758	0	32812	32672	
2759	0	32824	32746	
2760	0	32852	32884	
2761	0	32860	32704	
2762	0	32892	32743	
2763	0	32824	32751	
2764	0	32872	32690	
2765	0	32780	32768	
2766	0	32820	32758	
2767	0	32788	32767	
2768	0	32760	32775	
2769	0	32830	32742	
2770	0	32842	32868	
2771	0	32796	32768	
2772	0	32840	32684	
2773	0	32836	32788	
2774	0	32858	32706	
2775	0	32848	32759	
2776	0	32824	32806	
2777	0	32792	32698	
2778	0	32846	32802	
2779	0	32860	32655	
2780	0	32816	32750	
2781	0	32814	32791	
2782	0	32792	32696	
2783	0	32840	32790	
2784	0	32890	32775	
2785	0	32840	32736	
2786	0	32828	32812	
2787	0	32838	32674	
2788	0	32826	32756	
2789	0	32820	32810	
2790	0	32764	32615	
2791	0	32890	32870	
2792	0	32840	32858	
2793	0	32804	32716	
2794	0	32820	32756	
2795	0	32820	32839	
2796	0	32804	32655	
2797	0	32816	32810	
2798	0	32774	32762	
2799	0	32802	32732	
2800	0	32820	32759	
2801	0	32832	32788	
2802	0	32806	32791	
2803	0	32816	32802	
2804	0	32784	32806	
2805	0	32840	32680	
2806	0	32742	32884	
2807	0	32772	32751	
2808	0	32708	32670	
2809	0	32816	32840	
2810	0	32804	32720	
2811	0	32756	32754	
2812	0	32864	32775	
2813	0	32876	32816	
2814	0	32800	32743	
2815	0	32804	32806	
2816	0	32782	32817	
2817	0	32748	32774	
2818	0	32800	32766	
2819	0	32780	32848	
2820	0	32864	32734	
2821	0	32772	32720	
2822	0	32852	32804	
2823	0	32764	32798	
2824	0	32796	32684	
2825	0	32868	32699	
2826	0	32752	32782	
2827	0	32832	32798	
2828	0	32764	32826	
2829	0	32864	32727	
2830	0	32822	32770	
2831	0	32764	32798	
2832	0	32800	32806	
2833	0	32832	32756	
2834	0	32768	32858	
2835	0	32824	32772	
2836	0	32808	32770	
2837	0	32804	32742	
2838	0	32840	32775	
2839	0	32768	32868	
2840	0	32800	32756	
2841	0	32852	32774	
2842	0	32916	32794	
2843	0	32868	32724	
2844	0	32824	32825	
2845	0	32764	32756	
2846	0	32800	32775	
2847	0	32722	32788	
2848	0	32760	32727	
2849	0	32764	32812	
2850	0	32806	32774	
2851	0	32864	32792	
2852	0	32786	32732	
2853	0	32810	32736	
2854	0	32814	32818	
2855	0	32856	32811	
2856	0	32824	32874	
2857	0	32846	32720	
2858	0	32856	32724	
2859	0	32816	32710	
2860	0	32774	32830	
2861	0	32786	32788	
2862	0	32830	32816	
2863	0	32820	32660	
2864	0	32800	32671	
2865	0	32824	32828	
2866	0	32760	32814	
2867	0	32828	32696	
2868	0	32802	32796	
2869	0	32816	32750	
2870	0	32812	32674	
2871	0	32802	32724	
2872	0	32830	32792	
2873	0	32798	32775	
2874	0	32768	32736	
2875	0	32874	32818	
2876	0	32810	32751	
2877	0	32830	32765	
2878	0	32812	32832	
2879	0	32832	32769	
2880	0	32820	32756	
2881	0	32810	32846	
2882	0	32772	32774	
2883	0	32784	32718	
2884	0	32816	32678	
2885	0	32798	32703	
2886	0	32864	32766	
2887	0	32812	32800	
2888	0	32800	32832	
2889	0	32832	32758	
2890	0	32804	32794	
2891	0	32804	32752	
2892	0	32792	32620	
2893	0	32826	32824	
2894	0	32822	32804	
2895	0	32868	32772	
2896	0	32816	32788	
2897	0	32828	32911	
2898	0	32792	32718	
2899	0	32822	32753	
2900	0	32836	32646	
2901	0	32774	32810	
2902	0	32772	32729	
2903	0	32820	32862	
2904	0	32825	32772	
2905	0	32852	32702	
2906	0	32846	32714	
2907	0	32770	32830	
2908	0	32768	32796	
2909	0	32824	32764	
2910	0	32800	32822	
2911	0	32820	32694	
2912	0	32872	32743	
2913	0	32836	32851	
2914	0	32828	32836	
2915	0	32788	32744	
2916	0	32800	32754	
2917	0	32828	32798	
2918	0	32800	32726	
2919	0	32844	32678	
2920	0	32888	32700	
2921	0	32824	32872	
2922	0	32776	32765	
2923	0	32810	32803	
2924	0	32748	32754	
2925	0	32852	32646	
2926	0	32800	32720	
2927	0	32828	32764	
2928	0	32828	32812	
2929	0	32850	32710	
2930	0	32894	32726	
2931	0	32752	32832	
2932	0	32788	32790	
2933	0	32868	32807	
2934	0	32804	32692	
2935	0	32798	32638	
2936	0	32820	32774	
2937	0	32860	32769	
2938	0	32828	32864	
2939	0	32784	32734	
2940	0	32758	32719	
2941	0	32838	32823	
2942	0	32832	32716	
2943	0	32800	32874	
2944	0	32852	32720	
2945	0	32776	32714	
2946	0	32836	32852	
2947	0	32816	32836	
2948	0	32744	32796	
2949	0	32844	32710	
2950	0	32808	32720	
2951	0	32804	32746	
2952	0	32860	32768	
2953	0	32810	32866	
2954	0	32764	32769	
2955	0	32832	32710	
2956	0	32852	32712	
2957	0	32834	32760	
2958	0	32836	32830	
2959	0	32804	32791	
2960	0	32804	32768	
2961	0	32830	32764	
2962	0	32788	32822	
2963	0	32826	32740	
2964	0	32728	32708	
2965	0	32781	32820	
2966	0	32784	32804	
2967	0	32840	32722	
2968	0	32844	32784	
2969	0	32764	32696	
2970	0	32832	32768	
2971	0	32816	32714	
2972	0	32768	32710	
2973	0	32844	32772	
2974	0	32792	32788	
2975	0	32828	32812	
2976	0	32812	32684	
2977	0	32828	32838	
2978	0	32816	32754	
2979	0	32780	32820	
2980	0	32880	32871	
2981	0	32872	32704	
2982	0	32748	32752	
2983	0	32804	32852	
2984	0	32840	32804	
2985	0	32752	32788	
2986	0	32768	32810	
2987	0	32844	32708	
2988	0	32832	32744	
2989	0	32842	32696	
2990	0	32796	32884	
2991	0	32775	32720	
2992	0	32846	32726	
2993	0	32785	32710	
2994	0	32775	32772	
2995	0	32784	32700	
2996	0	32826	32786	
2997	0	32786	32816	
2998	0	32854	32796	
2999	0	32852	32874	
3000	0	32778	32774	
3001	0	32804	32771	
3002	0	32796	32632	
3003	0	32836	32708	
3004	0	32866	32766	
3005	0	32772	32751	
3006	0	32776	32766	
3007	0	32732	32739	
3008	0	32772	32828	
3009	0	32816	32660	
3010	0	32724	32775	
3011	0	32762	32644	
3012	0	32858	32714	
3013	0	32776	32831	
3014	0	32876	32730	
3015	0	32828	32788	
3016	0	32752	32655	
3017	0	32820	32775	
3018	0	32850	32870	
3019	0	32824	32960	
3020	0	32868	32772	
3021	0	32814	32802	
3022	0	32786	32798	
3023	0	32780	32999	
3024	0	32806	32766	
3025	0	32794	32747	
3026	0	32812	32775	
3027	0	32788	32804	
3028	0	32756	32753	
3029	0	32788	32752	
3030	0	32762	32751	
3031	0	32806	32775	
3032	0	32856	32672	
3033	0	32810	32672	
3034	0	32804	32748	
3035	0	32840	32775	
3036	0	32808	32686	
3037	0	32866	32760	
3038	0	32784	32766	
3039	0	32784	32832	
3040	0	32756	32810	
3041	0	32816	32732	
3042	0	32848	32784	
3043	0	32844	32864	
3044	0	32828	32722	
3045	0	32816	32802	
3046	0	32856	32702	
3047	0	32792	32764	
3048	0	32736	32788	
3049	0	32832	32756	
3050	0	32872	32814	
3051	0	32808	32718	
3052	0	32796	32612	
3053	0	32768	32724	
3054	0	32766	32642	
3055	0	32796	32554	
3056	0	32882	32760	
3057	0	32748	32775	
3058	0	32832	32882	
3059	0	32832	32860	
3060	0	32816	32825	
3061	0	32816	32818	
3062	0	32920	32775	
3063	0	32886	32928	
3064	0	32856	32884	
3065	0	32752	32878	
3066	0	32784	32744	
3067	0	32772	32614	
3068	0	32756	32743	
3069	0	32768	32714	
3070	0	32800	32593	
3071	0	32796	32536	
3072	0	32844	32570	
3073	0	32832	32756	
3074	0	32800	32708	
3075	0	32798	32644	
3076	0	32832	32826	
3077	0	32818	32724	
3078	0	32808	32871	
3079	0	32746	32876	
3080	0	32812	32810	
3081	0	32832	32791	
3082	0	32840	32675	
3083	0	32856	32818	
3084	0	32780	32768	
3085	0	32812	32679	
3086	0	32806	32874	
3087	0	32784	32732	
3088	0	32800	32822	
3089	0	32756	32656	
3090	0	32806	32716	
3091	0	32756	32774	
3092	0	32756	32764	
3093	0	32816	32828	
3094	0	32888	32788	
3095	0	32852	32879	
3096	0	32920	32762	
3097	0	32810	32714	
3098	0	32848	32759	
3099	0	32830	32632	
3100	0	32768	32584	
3101	0	32792	32626	
3102	0	32912	32769	
3103	0	32840	32704	
3104	0	32808	32680	
3105	0	32760	32678	
3106	0	32776	32770	
3107	0	32840	32734	
3108	0	32794	32671	
3109	0	32870	32836	
3110	0	32842	32934	
3111	0	32760	32770	
3112	0	32784	32750	
3113	0	32788	32740	
3114	0	32881	32866	
3115	0	32836	32994	
3116	0	32864	32918	
3117	0	32844	33048	
3118	0	32824	32807	
3119	0	32776	32843	
3120	0	32816	32739	
3121	0	32800	32588	
3122	0	32784	32743	
3123	0	32766	32647	
3124	0	32856	32586	
3125	0	32774	32743	
3126	0	32824	32684	
3127	0	32790	32782	
3128	0	32840	32756	
3129	0	32796	32750	
3130	0	32850	32732	
3131	0	32830	32814	
3132	0	32806	32804	
3133	0	32788	32895	
3134	0	32880	32709	
3135	0	32876	32868	
3136	0	32830	32842	
3137	0	32872	32775	
3138	0	32832	32862	
3139	0	32862	32756	
3140	0	32762	32775	
3141	0	32764	32790	
3142	0	32756	32762	
3143	0	32756	32712	
3144	0	32788	32676	
3145	0	32808	32767	
3146	0	32784	32736	
3147	0	32826	32640	
3148	0	32836	32687	
3149	0	32832	32723	
3150	0	32864	32722	
3151	0	32834	32736	
3152	0	32824	32700	
3153	0	32788	32756	
3154	0	32796	32728	
3155	0	32824	32827	
3156	0	32810	32764	
3157	0	32810	32828	
3158	0	32772	32892	
3159	0	32828	32826	
3160	0	32752	32754	
3161	0	32732	32804	
3162	0	32814	32751	
3163	0	32846	32844	
3164	0	32814	32900	
3165	0	32774	32794	
3166	0	32816	32828	
3167	0	32760	32742	
3168	0	32734	32710	
3169	0	32848	32742	
3170	0	32834	32636	
3171	0	32754	32766	
3172	0	32808	32711	
3173	0	32864	32716	
3174	0	32756	32772	
3175	0	32832	32832	
3176	0	32832	32815	
3177	0	32872	32925	
3178	0	32836	32974	
3179	0	32752	32830	
3180	0	32766	32634	
3181	0	32836	32732	
3182	0	32824	32728	
3183	0	32824	32812	
3184	0	32832	32738	
3185	0	32840	32748	
3186	0	32860	32647	
3187	0	32840	32904	
3188	0	32840	32916	
3189	0	32884	32732	
3190	0	32812	32793	
3191	0	32806	32708	
3192	0	32732	32698	
3193	0	32746	32576	
3194	0	32780	32668	
3195	0	32820	32655	
3196	0	32836	32752	
3197	0	32884	32815	
3198	0	32796	32804	
3199	0	32760	32820	
3200	0	32856	32834	
3201	0	32828	32834	
3202	0	32868	32918	
3203	0	32816	32886	
3204	0	32762	32718	
3205	0	32804	32750	
3206	0	32800	32690	
3207	0	32780	32828	
3208	0	32822	32814	
3209	0	32826	32901	
3210	0	32786	32847	
3211	0	32756	32704	
3212	0	32756	32903	
3213	0	32808	32766	
3214	0	32836	32912	
3215	0	32880	32808	
3216	0	32788	32628	
3217	0	32792	32692	
3218	0	32794	32752	
3219	0	32832	32834	
3220	0	32834	32884	
3221	0	32800	32884	
3222	0	32788	32758	
3223	0	32824	32770	
3224	0	32800	32711	
3225	0	32832	32800	
3226	0	32746	32734	
3227	0	32732	32734	
3228	0	32824	32799	
3229	0	32808	32727	
3230	0	32826	32716	
3231	0	32800	32694	
3232	0	32786	32870	
3233	0	32788	32820	
3234	0	32856	32916	
3235	0	32800	32914	
3236	0	32872	32832	
3237	0	32800	32775	
3238	0	32768	32638	
3239	0	32828	32554	
3240	0	32852	32640	
3241	0	32826	32807	
3242	0	32748	32844	
3243	0	32834	32722	
3244	0	32886	32711	
3245	0	32796	32804	
3246	0	32798	32874	
3247	0	32856	32774	
3248	0	32756	32676	
3249	0	32788	32768	
3250	0	32820	32858	
3251	0	32860	32932	
3252	0	32846	32855	
3253	0	32812	32796	
3254	0	32844	32832	
3255	0	32856	32751	
3256	0	32856	32726	
3257	0	32832	32662	
3258	0	32892	32668	
3259	0	32814	32708	
3260	0	32775	32627	
3261	0	32798	32869	
3262	0	32826	32836	
3263	0	32752	32832	
3264	0	32786	32764	
3265	0	32788	32866	
3266	0	32750	32674	
3267	0	32768	32732	
3268	0	32752	32752	
3269	0	32788	32910	
3270	0	32840	32888	
3271	0	32762	32788	
3272	0	32810	32684	
3273	0	32798	32640	
3274	0	32826	32693	
3275	0	32848	32796	
3276	0	32762	32804	
3277	0	32840	32764	
3278	0	32830	32688	
3279	0	32752	32679	
3280	0	32830	32620	
3281	0	32804	32788	
3282	0	32796	32694	
3283	0	32822	32718	
3284	0	32808	32816	
3285	0	32776	32804	
3286	0	32834	32768	
3287	0	32846	32744	
3288	0	32802	32732	
3289	0	32810	32807	
3290	0	32792	32892	
3291	0	32812	32840	
3292	0	32810	32775	
3293	0	32836	32850	
3294	0	32872	32901	
3295	0	32974	32985	
3296	0	32798	32823	
3297	0	32808	32688	
3298	0	32762	32786	
3299	0	32760	32714	
3300	0	32836	32810	
3301	0	32810	32720	
3302	0	32800	32714	
3303	0	32858	32732	
3304	0	32808	32625	
3305	0	32816	32734	
3306	0	32816	32754	
3307	0	32736	32736	
3308	0	32788	32830	
3309	0	32772	32740	
3310	0	32856	32775	
3311	0	32796	32734	
3312	0	32816	32766	
3313	0	32832	32772	
3314	0	32808	32760	
3315	0	32800	32744	
3316	0	32692	32618	
3317	0	32816	32724	
3318	0	32814	32750	
3319	0	32828	32720	
3320	0	32808	32775	
3321	0	32836	32754	
3322	0	32864	32615	
3323	0	32808	32724	
3324	0	32758	32814	
3325	0	32724	32850	
3326	0	32856	32720	
3327	0	32740	32696	
3328	0	32780	32646	
3329	0	32804	32708	
3330	0	32808	32588	
3331	0	32846	32622	
3332	0	32804	32655	
3333	0	32852	32751	
3334	0	32772	32861	
3335	0	32896	32816	
3336	0	32744	32864	
3337	0	32808	32704	
3338	0	32812	32820	
3339	0	32848	32756	
3340	0	32796	32896	
3341	0	32770	32788	
3342	0	32830	32836	
3343	0	32836	32728	
3344	0	32816	32718	
3345	0	32812	32844	
3346	0	32804	32818	
3347	0	32780	32808	
3348	0	32820	32674	
3349	0	32856	32737	
3350	0	32794	32608	
3351	0	32736	32697	
3352	0	32832	32634	
3353	0	32816	32798	
3354	0	32788	32713	
3355	0	32816	32738	
3356	0	32800	32678	
3357	0	32856	32952	
3358	0	32840	32884	
3359	0	32884	32848	
3360	0	32809	32970	
3361	0	32825	32775	
3362	0	32790	32834	
3363	0	32720	32799	
3364	0	32704	32808	
3365	0	32768	32684	
3366	0	32900	32712	
3367	0	32794	32746	
3368	0	32900	32822	
3369	0	32852	32766	
3370	0	32776	32663	
3371	0	32824	32756	
3372	0	32840	32775	
3373	0	32784	32728	
3374	0	32862	32770	
3375	0	32782	32660	
3376	0	32812	32738	
3377	0	32826	32660	
3378	0	32858	32798	
3379	0	32824	32753	
3380	0	32770	32836	
3381	0	32826	32894	
3382	0	32808	32770	
3383	0	32740	32891	
3384	0	32776	32576	
3385	0	32800	32652	
3386	0	32816	32700	
3387	0	32840	32775	
3388	0	32740	32642	
3389	0	32864	32628	
3390	0	32800	32696	
3391	0	32772	32732	
3392	0	32808	32868	
3393	0	32818	32812	
3394	0	32862	32903	
3395	0	32802	32814	
3396	0	32844	32834	
3397	0	32864	32822	
3398	0	32730	32898	
3399	0	32752	32788	
3400	0	32806	32878	
3401	0	32762	32816	
3402	0	32800	32716	
3403	0	32780	32738	
3404	0	32754	32736	
3405	0	32862	32775	
3406	0	32872	32758	
3407	0	32812	32670	
3408	0	32864	32684	
3409	0	32872	32643	
3410	0	32744	32760	
3411	0	32786	32807	
3412	0	32774	32772	
3413	0	32796	32762	
3414	0	32784	32770	
3415	0	32828	32844	
3416	0	32834	32800	
3417	0	32884	32807	
3418	0	32862	32822	
3419	0	32760	32676	
3420	0	32740	32639	
3421	0	32721	32746	
3422	0	32764	32814	
3423	0	32800	32743	
3424	0	32840	32770	
3425	0	32868	32816	
3426	0	32872	32916	
3427	0	32846	32932	
3428	0	32784	32926	
3429	0	32832	32870	
3430	0	32776	32775	
3431	0	32804	32702	
3432	0	32790	32602	
3433	0	32820	32730	
3434	0	32846	32724	
3435	0	32808	32964	
3436	0	32856	32743	
3437	0	32798	32670	
3438	0	32796	32730	
3439	0	32840	32734	
3440	0	32812	32634	
3441	0	32712	32748	
3442	0	32756	32870	
3443	0	32744	32702	
3444	0	32756	32614	
3445	0	32760	32678	
3446	0	32788	32812	
3447	0	32804	32775	
3448	0	32884	32763	
3449	0	32812	32836	
3450	0	32868	33006	
3451	0	32858	32876	
3452	0	32816	32860	
3453	0	32844	32600	
3454	0	32836	32672	
3455	0	32840	32650	
3456	0	32842	32666	
3457	0	32800	32854	
3458	0	32736	32708	
3459	0	32740	32738	
3460	0	32768	32640	
3461	0	32784	32724	
3462	0	32786	32682	
3463	0	32828	32760	
3464	0	32844	32774	
3465	0	32752	32748	
3466	0	32812	32879	
3467	0	32832	32746	
3468	0	32828	32775	
3469	0	32788	32802	
3470	0	32868	32820	
3471	0	32842	32944	
3472	0	32884	32899	
3473	0	32852	32874	
3474	0	32876	32846	
3475	0	32766	32764	
3476	0	32796	32787	
3477	0	32800	32788	
3478	0	32784	32822	
3479	0	32794	32764	
3480	0	32724	32754	
3481	0	32794	32681	
3482	0	32768	32735	
3483	0	32712	32692	
3484	0	32808	32806	
3485	0	32820	32742	
3486	0	32812	32770	
3487	0	32908	32705	
3488	0	32871	32694	
3489	0	32824	32698	
3490	0	32821	32834	
3491	0	32888	32902	
3492	0	32864	32988	
3493	0	32830	32839	
3494	0	32848	32730	
3495	0	32828	32854	
3496	0	32804	32744	
3497	0	32752	32720	
3498	0	32832	32682	
3499	0	32824	32694	
3500	0	32808	32588	
3501	0	32736	32652	
3502	0	32716	32746	
3503	0	32728	32788	
3504	0	32856	32858	
3505	0	32804	32743	
3506	0	32772	32802	
3507	0	32796	32824	
3508	0	32788	32775	
3509	0	32749	32862	
3510	0	32892	32775	
3511	0	32832	32704	
3512	0	32804	32660	
3513	0	32796	32775	
3514	0	32844	32768	
3515	0	32872	32734	
3516	0	32844	32860	
3517	0	32844	32770	
3518	0	32832	32870	
3519	0	32772	32770	
3520	0	32800	32718	
3521	0	32812	32810	
3522	0	32776	32812	
3523	0	32858	32970	
3524	0	32832	32990	
3525	0	32840	32658	
3526	0	32804	32801	
3527	0	32780	32740	
3528	0	32880	32678	
3529	0	32808	32710	
3530	0	32800	32839	
3531	0	32817	32804	
3532	0	32812	32769	
3533	0	32788	32823	
3534	0	32888	32668	
3535	0	32800	32830	
3536	0	32830	32724	
3537	0	32868	32804	
3538	0	32788	32694	
3539	0	32810	32734	
3540	0	32834	32826	
3541	0	32779	32680	
3542	0	32822	32718	
3543	0	32760	32822	
3544	0	32696	32764	
3545	0	32736	32758	
3546	0	32864	32796	
3547	0	32856	32758	
3548	0	32798	32868	
3549	0	32794	32804	
3550	0	32840	32843	
3551	0	32800	32888	
3552	0	32844	32760	
3553	0	32834	32812	
3554	0	32810	32714	
3555	0	32868	32838	
3556	0	32882	32764	
3557	0	32850	32880	
3558	0	32812	32671	
3559	0	32804	32516	
3560	0	32836	32584	
3561	0	32748	32646	
3562	0	32756	32740	
3563	0	32772	32748	
3564	0	32820	32734	
3565	0	32816	32956	
3566	0	32840	32895	
3567	0	32872	32977	
3568	0	32814	32935	
3569	0	32896	32839	
3570	0	32842	32724	
3571	0	32866	32552	
3572	0	32828	32680	
3573	0	32776	32719	
3574	0	32820	32775	
3575	0	32864	32744	
3576	0	32856	32660	
3577	0	32808	32728	
3578	0	32836	32764	
3579	0	32814	32810	
3580	0	32740	33002	
3581	0	32856	32807	
3582	0	32744	32736	
3583	0	32744	32498	
3584	0	32792	32690	
3585	0	32808	32704	
3586	0	32856	32834	
3587	0	32858	32868	
3588	0	32796	32702	
3589	0	32788	32790	
3590	0	32832	33030	
3591	0	32856	32830	
3592	0	32818	32772	
3593	0	32800	32748	
3594	0	32842	32842	
3595	0	32798	32835	
3596	0	32752	32694	
3597	0	32784	32715	
3598	0	32832	32860	
3599	0	32852	32916	
3600	0	32852	32858	
3601	0	32804	32548	
3602	0	32741	32480	
3603	0	32752	32546	
3604	0	32788	32701	
3605	0	32812	32722	
3606	0	32860	32897	
3607	0	32844	32940	
3608	0	32896	32839	
3609	0	32740	32926	
3610	0	32864	32903	
3611	0	32780	32814	
3612	0	32820	32815	
3613	0	32744	32775	
3614	0	32800	32644	
3615	0	32826	32558	
3616	0	32804	32644	
3617	0	32797	32806	
3618	0	32848	32714	
3619	0	32800	32746	
3620	0	32880	32903	
3621	0	32840	32702	
3622	0	32796	32734	
3623	0	32800	32830	
3624	0	32834	32722	
3625	0	32864	32860	
3626	0	32766	32676	
3627	0	32764	32760	
3628	0	32804	33020	
3629	0	32792	32836	
3630	0	32840	32762	
3631	0	32820	32730	
3632	0	32820	32668	
3633	0	32788	32614	
3634	0	32808	32718	
3635	0	32752	32696	
3636	0	32820	32572	
3637	0	32900	32842	
3638	0	32896	32772	
3639	0	32800	32800	
3640	0	32846	32764	
3641	0	32812	32862	
3642	0	32798	32854	
3643	0	32792	32768	
3644	0	32780	32824	
3645	0	32756	32849	
3646	0	32764	32799	
3647	0	32762	32713	
3648	0	32804	32692	
3649	0	32800	32518	
3650	0	32820	32644	
3651	0	32886	32674	
3652	0	32849	32858	
3653	0	32800	32892	
3654	0	32810	32878	
3655	0	32864	32943	
3656	0	32884	32775	
3657	0	32864	32844	
3658	0	32780	32720	
3659	0	32820	32658	
3660	0	32768	32718	
3661	0	32714	32662	
3662	0	32740	32641	
3663	0	32792	32716	
3664	0	32840	32774	
3665	0	32832	32628	
3666	0	32772	32686	
3667	0	32814	32724	
3668	0	32868	32826	
3669	0	32808	32992	
3670	0	32864	32921	
3671	0	32868	32932	
3672	0	32800	32602	
3673	0	32844	32812	
3674	0	32844	33062	
3675	0	32820	32828	
3676	0	32770	32830	
3677	0	32784	32700	
3678	0	32756	32640	
3679	0	32822	32572	
3680	0	32792	32626	
3681	0	32832	32916	
3682	0	32788	32742	
3683	0	32832	32775	
3684	0	32832	32725	
3685	0	32890	32668	
3686	0	32868	32775	
3687	0	32860	32774	
3688	0	32800	32752	
3689	0	32808	32668	
3690	0	32836	32826	
3691	0	32864	32868	
3692	0	32824	32691	
3693	0	32722	32775	
3694	0	32802	32634	
3695	0	32774	32620	
3696	0	32832	32630	
3697	0	32768	32704	
3698	0	32848	32665	
3699	0	32868	32775	
3700	0	32872	32855	
3701	0	32872	32956	
3702	0	32816	32986	
3703	0	32856	32988	
3704	0	32770	33020	
3705	0	32754	32698	
3706	0	32810	32775	
3707	0	32820	32775	
3708	0	32772	32846	
3709	0	32760	32674	
3710	0	32780	32578	
3711	0	32832	32519	
3712	0	32824	32670	
3713	0	32832	32551	
3714	0	32839	32732	
3715	0	32774	32775	
3716	0	32834	32633	
3717	0	32836	32772	
3718	0	32898	32724	
3719	0	32872	32800	
3720	0	32868	32704	
3721	0	32752	32704	
3722	0	32880	32702	
3723	0	32896	32748	
3724	0	32916	32748	
3725	0	32916	32794	
3726	0	32856	32840	
3727	0	32900	32727	
3728	0	32878	32769	
3729	0	32964	32738	
3730	0	32914	32576	
3731	0	32812	32597	
3732	0	32849	32519	
3733	0	32792	32534	
3734	0	32868	32564	
3735	0	32939	32660	
3736	0	32872	32670	
3737	0	32832	32740	
3738	0	32864	32772	
3739	0	32804	32644	
3740	0	32848	32734	
3741	0	32740	32824	
3742	0	32758	33066	
3743	0	32760	33278	
3744	0	32724	33244	
3745	0	32708	33056	
3746	0	32704	32902	
3747	0	32696	32964	
3748	0	32636	33031	
3749	0	32632	33008	
3750	0	32660	33031	
3751	0	32738	32878	
3752	0	32734	32935	
3753	0	32634	33012	
3754	0	32672	32942	
3755	0	32680	33026	
3756	0	32666	32902	
3757	0	32662	32916	
3758	0	32692	32964	
3759	0	32676	32846	
3760	0	32764	32652	
3761	0	32820	32642	
3762	0	32888	32762	
3763	0	32872	32700	
3764	0	32944	32728	
3765	0	32950	32750	
3766	0	32968	32712	
3767	0	32932	32687	
3768	0	32888	32389	
3769	0	32860	32412	
3770	0	32900	32575	
3771	0	32888	32657	
3772	0	32888	32472	
3773	0	32820	32552	
3774	0	32792	32640	
3775	0	32784	32664	
3776	0	32780	32838	
3777	0	32830	32834	
3778	0	32756	32940	
3779	0	32806	32816	
3780	0	32774	32710	
3781	0	32900	32916	
3782	0	32884	32884	
3783	0	32806	32842	
3784	0	32812	32714	
3785	0	32804	32684	
3786	0	32792	32607	
3787	0	32764	32556	
3788	0	32790	32586	
3789	0	32790	32562	
3790	0	32768	32724	
3791	0	32828	32870	
3792	0	32850	32926	
3793	0	32860	32880	
3794	0	32830	32896	
3795	0	32856	32998	
3796	0	32760	32768	
3797	0	32764	32949	
3798	0	32792	32903	
3799	0	32756	32694	
3800	0	32848	32740	
3801	0	32838	32590	
3802	0	32784	32706	
3803	0	32860	32712	
3804	0	32798	32911	
3805	0	32856	32710	
3806	0	32836	32826	
3807	0	32824	32732	
3808	0	32832	32760	
3809	0	32832	32690	
3810	0	32884	32774	
3811	0	32830	32726	
3812	0	32868	32704	
3813	0	32792	32810	
3814	0	32808	32786	
3815	0	32780	32714	
3816	0	32772	32484	
3817	0	32868	32583	
3818	0	32916	32647	
3819	0	32912	32717	
3820	0	32840	32774	
3821	0	32860	32938	
3822	0	32868	33020	
3823	0	32768	32938	
3824	0	32760	32858	
3825	0	32784	32624	
3826	0	32800	32647	
3827	0	32892	32593	
3828	0	32784	32612	
3829	0	32912	32626	
3830	0	32801	32756	
3831	0	32850	32766	
3832	0	32886	32652	
3833	0	32860	32718	
3834	0	32852	32815	
3835	0	32844	32874	
3836	0	32876	32980	
3837	0	32796	32647	
3838	0	32837	32752	
3839	0	32756	32726	
3840	0	32768	32804	
3841	0	32708	32620	
3842	0	32812	32766	
3843	0	32804	32754	
3844	0	32764	32844	
3845	0	32800	32878	
3846	0	32769	32769	
3847	0	32748	32728	
3848	0	32804	32682	
3849	0	32808	32775	
3850	0	32792	32742	
3851	0	32776	32749	
3852	0	32856	32742	
3853	0	32824	32700	
3854	0	32828	32820	
3855	0	32756	32873	
3856	0	32804	32848	
3857	0	32832	32744	
3858	0	32840	32740	
3859	0	32804	32774	
3860	0	32772	32988	
3861	0	32748	32839	
3862	0	32824	32802	
3863	0	32848	32832	
3864	0	32796	32790	
3865	0	32840	32760	
3866	0	32808	32641	
3867	0	32800	32770	
3868	0	32846	32822	
3869	0	32724	32799	
3870	0	32810	32700	
3871	0	32820	32552	
3872	0	32852	32686	
3873	0	32826	32652	
3874	0	32781	32686	
3875	0	32800	32812	
3876	0	32880	32849	
3877	0	32796	32775	
3878	0	32828	32870	
3879	0	32792	32876	
3880	0	32826	32989	
3881	0	32780	32863	
3882	0	32844	32799	
3883	0	32804	32695	
3884	0	32772	32724	
3885	0	32792	32614	
3886	0	32872	32572	
3887	0	32868	32654	
3888	0	32844	32790	
3889	0	32816	32820	
3890	0	32884	32814	
3891	0	32844	32836	
3892	0	32832	32924	
3893	0	32776	32892	
3894	0	32750	32766	
3895	0	32824	32922	
3896	0	32818	32848	
3897	0	32742	32692	
3898	0	32798	32688	
3899	0	32788	32668	
3900	0	32778	32720	
3901	0	32724	32666	
3902	0	32828	32690	
3903	0	32784	32724	
3904	0	32788	32872	
3905	0	32808	32946	
3906	0	32796	32998	
3907	0	32832	32730	
3908	0	32766	32666	
3909	0	32760	32700	
3910	0	32836	32698	
3911	0	32816	32770	
3912	0	32848	32702	
3913	0	32821	32832	
3914	0	32834	32760	
3915	0	32824	32856	
3916	0	32880	32722	
3917	0	32740	32916	
3918	0	32832	32942	
3919	0	32844	32794	
3920	0	32828	32635	
3921	0	32874	32662	
3922	0	32738	32756	
3923	0	32750	32874	
3924	0	32844	32754	
3925	0	32866	32796	
3926	0	32888	32708	
3927	0	32784	32943	
3928	0	32784	32814	
3929	0	32738	32687	
3930	0	32856	32803	
3931	0	32832	32647	
3932	0	32828	32648	
3933	0	32804	32654	
3934	0	32780	32724	
3935	0	32820	32718	
3936	0	32740	32736	
3937	0	32780	32863	
3938	0	32820	32854	
3939	0	32820	32966	
3940	0	32770	32918	
3941	0	32816	32994	
3942	0	32858	32887	
3943	0	32802	32775	
3944	0	32768	32484	
3945	0	32864	32558	
3946	0	33000	32576	
3947	0	32944	32446	
3948	0	32758	32656	
3949	0	32728	32674	
3950	0	32756	32853	
3951	0	32750	32880	
3952	0	32676	32816	
3953	0	32748	32926	
3954	0	32748	33062	
3955	0	32834	32968	
3956	0	32832	32775	
3957	0	32892	32775	
3958	0	32792	32615	
3959	0	32848	32626	
3960	0	32872	32544	
3961	0	32838	32734	
3962	0	32844	32768	
3963	0	32942	32775	
3964	0	32828	32744	
3965	0	32788	32806	
3966	0	32800	32726	
3967	0	32852	32734	
3968	0	32836	32675	
3969	0	32786	32710	
3970	0	32760	32732	
3971	0	32752	32888	
3972	0	32748	32634	
3973	0	32760	32570	
3974	0	32730	32612	
3975	0	32724	32748	
3976	0	32757	32760	
3977	0	32820	32812	
3978	0	32810	32735	
3979	0	32812	32828	
3980	0	32832	32916	
3981	0	32832	32876	
3982	0	32836	32730	
3983	0	32852	32862	
3984	0	32820	32764	
3985	0	32810	32676	
3986	0	32790	32750	
3987	0	32794	32637	
3988	0	32802	32768	
3989	0	32900	32764	
3990	0	32932	32732	
3991	0	32876	32612	
3992	0	32824	32708	
3993	0	32762	32784	
3994	0	32798	32806	
3995	0	32776	32938	
3996	0	32820	32948	
3997	0	32772	32790	
3998	0	32744	32560	
3999	0	32784	32578	
4000	0	32738	32802	
4001	0	32784	32774	
4002	0	32752	32570	
4003	0	32826	32590	
4004	0	32784	32706	
4005	0	32808	32879	
4006	0	32882	32964	
4007	0	32758	32862	
4008	0	32828	32927	
4009	0	32696	32850	
4010	0	32814	32836	
4011	0	32800	32807	
4012	0	32832	32913	
4013	0	32828	32839	
4014	0	32816	32703	
4015	0	32792	32633	
4016	0	32858	32682	
4017	0	32892	32716	
4018	0	32852	32930	
4019	0	32828	33064	
4020	0	32820	32775	
4021	0	32796	32869	
4022	0	32784	32950	
4023	0	32788	32886	
4024	0	32726	32562	
4025	0	32800	32570	
4026	0	32775	32628	
4027	0	32720	32458	
4028	0	32791	32800	
4029	0	32805	32916	
4030	0	32764	32886	
4031	0	32816	32712	
4032	0	32796	32744	
4033	0	32888	32503	
4034	0	32940	32706	
4035	0	32944	32634	
4036	0	32864	32906	
4037	0	32996	33402	
4038	0	32916	34048	
4039	0	32901	33750	
4040	0	32760	33031	
4041	0	32712	32498	
4042	0	32560	31950	
4043	0	32530	31686	
4044	0	32528	31452	
4045	0	32640	31908	
4046	0	32736	32584	
4047	0	32820	33484	
4048	0	32920	33826	
4049	0	32940	33192	
4050	0	32900	32672	
4051	0	32776	32918	
4052	0	32880	33504	
4053	0	32976	33056	
4054	0	32884	32156	
4055	0	32822	32390	
4056	0	32748	32401	
4057	0	32728	32078	
4058	0	32902	32391	
4059	0	32844	32724	
4060	0	32761	33031	
4061	0	32692	32458	
4062	0	32616	31804	
4063	0	32652	30634	
4064	0	32760	30678	
4065	0	32770	31408	
4066	0	32766	32922	
4067	0	32776	34864	
4068	0	32828	35598	
4069	0	32890	36196	
4070	0	32860	35316	
4071	0	32788	33476	
4072	0	32832	31460	
4073	0	32888	30418	
4074	0	32852	30894	
4075	0	32844	31656	
4076	0	32766	32856	
4077	0	32796	33880	
4078	0	32758	34025	
4079	0	32802	34268	
4080	0	32872	34468	
4081	0	32916	33868	
4082	0	32848	33477	
4083	0	32936	33038	
4084	0	32784	32076	
4085	0	32832	31182	
4086	0	32920	32144	
4087	0	32800	32560	
4088	0	32812	32567	
4089	0	32796	32396	
4090	0	32748	31764	
4091	0	32764	30778	
4092	0	32812	30486	
4093	0	32808	31360	
4094	0	32772	32884	
4095	0	32830	33058	
4096	0	32780	33287	
4097	0	32852	33452	
4098	0	32830	33736	
4099	0	32808	33522	
4100	0	32792	33393	
4101	0	32844	33222	
4102	0	32824	33223	
4103	0	32886	33095	
4104	0	32874	32850	
4105	0	32860	32858	
4106	0	32824	32766	
4107	0	32780	32964	
4108	0	32792	32830	
4109	0	32786	32775	
4110	0	32788	32810	
4111	0	32916	32718	
4112	0	32764	32772	
4113	0	32740	32756	
4114	0	32792	32818	
4115	0	32804	32774	
4116	0	32771	32694	
4117	0	32804	32757	
4118	0	32840	32775	
4119	0	32810	32634	
4120	0	32812	32791	
4121	0	32804	32762	
4122	0	32812	33020	
4123	0	32816	33108	
4124	0	32792	32818	
4125	0	32740	32543	
4126	0	32786	32550	
4127	0	32772	32463	
4128	0	32826	32337	
4129	0	32828	32532	
4130	0	32844	32578	
4131	0	32784	32618	
4132	0	32880	32800	
4133	0	32940	32774	
4134	0	32872	32682	
4135	0	32832	32404	
4136	0	32752	32870	
4137	0	32758	33330	
4138	0	32844	33473	
4139	0	32804	33031	
4140	0	32902	32576	
4141	0	32808	32692	
4142	0	32788	32944	
4143	0	32888	33020	
4144	0	32836	32576	
4145	0	32817	32564	
4146	0	32816	32594	
4147	0	32848	32454	
4148	0	32804	32434	
4149	0	32768	32646	
4150	0	32788	32916	
4151	0	32804	33008	
4152	0	32728	32442	
4153	0	32760	32666	
4154	0	32778	33242	
4155	0	32896	33394	
4156	0	32786	33136	
4157	0	32876	33018	
4158	0	32804	33242	
4159	0	32876	32806	
4160	0	32772	31623	
4161	0	32792	31396	
4162	0	32812	31584	
4163	0	32826	31818	
4164	0	32776	32800	
4165	0	32728	33475	
4166	0	32712	33788	
4167	0	32752	33698	
4168	0	32804	33166	
4169	0	32742	32576	
4170	0	32758	32260	
4171	0	32884	32298	
4172	0	32896	32942	
4173	0	33128	33008	
4174	0	33100	32680	
4175	0	32944	32608	
4176	0	32820	32433	
4177	0	32680	32409	
4178	0	32562	32164	
4179	0	32482	32288	
4180	0	32466	33022	
4181	0	32814	33336	
4182	0	32990	33770	
4183	0	32964	33512	
4184	0	32968	32804	
4185	0	32934	32728	
4186	0	32852	32152	
4187	0	32680	32134	
4188	0	32752	32535	
4189	0	32664	32663	
4190	0	32656	32934	
4191	0	32736	32816	
4192	0	32696	32982	
4193	0	32712	32874	
4194	0	32836	33166	
4195	0	32946	33564	
4196	0	33000	33268	
4197	0	32986	33008	
4198	0	32926	32444	
4199	0	32864	31880	
4200	0	32864	31857	
4201	0	32778	32258	
4202	0	32836	33018	
4203	0	32788	33092	
4204	0	32814	33399	
4205	0	32816	33031	
4206	0	32928	31894	
4207	0	32920	32118	
4208	0	32908	32440	
4209	0	32922	32888	
4210	0	32748	33238	
4211	0	32732	33051	
4212	0	32744	32775	
4213	0	32844	32642	
4214	0	32820	32836	
4215	0	33044	32980	
4216	0	33012	33228	
4217	0	32868	33370	
4218	0	32632	33268	
4219	0	32524	32968	
4220	0	32412	32677	
4221	0	32412	32175	
4222	0	32630	32090	
4223	0	32784	32472	
4224	0	33002	32950	
4225	0	33000	32926	
4226	0	33022	33050	
4227	0	33056	33002	
4228	0	32960	32736	
4229	0	32940	32519	
4230	0	32972	32064	
4231	0	32908	32038	
4232	0	32935	32475	
4233	0	32992	32806	
4234	0	32984	33446	
4235	0	33024	33709	
4236	0	32916	33671	
4237	0	32732	33172	
4238	0	32584	33114	
4239	0	32520	32615	
4240	0	32608	32024	
4241	0	32552	31836	
4242	0	32520	32080	
4243	0	32572	32700	
4244	0	32672	33334	
4245	0	32716	33496	
4246	0	32704	33366	
4247	0	32772	32864	
4248	0	32812	32436	
4249	0	32704	32455	
4250	0	32776	32628	
4251	0	32860	32716	
4252	0	32754	32950	
4253	0	32950	32980	
4254	0	32984	32824	
4255	0	33053	32993	
4256	0	32996	32966	
4257	0	33012	32848	
4258	0	32924	32508	
4259	0	32830	32161	
4260	0	32794	31962	
4261	0	32788	32180	
4262	0	32732	32474	
4263	0	32768	32952	
4264	0	32696	32940	
4265	0	32760	32705	
4266	0	32712	32404	
4267	0	32760	32932	
4268	0	32762	33146	
4269	0	32844	33376	
4270	0	32874	33396	
4271	0	33020	33447	
4272	0	33014	33022	
4273	0	33090	32456	
4274	0	32996	32182	
4275	0	32908	32466	
4276	0	32780	32562	
4277	0	32652	32660	
4278	0	32596	32551	
4279	0	32544	32736	
4280	0	32754	33038	
4281	0	32806	32990	
4282	0	32866	32932	
4283	0	32800	32791	
4284	0	32810	32756	
4285	0	32670	32702	
4286	0	32692	32775	
4287	0	32884	32894	
4288	0	32838	33094	
4289	0	32824	33063	
4290	0	32816	33102	
4291	0	32810	33054	
4292	0	32964	33076	
4293	0	33032	32775	
4294	0	32982	32286	
4295	0	32884	32102	
4296	0	32910	32551	
4297	0	33128	32861	
4298	0	33272	32582	
4299	0	33158	32736	
4300	0	33194	32858	
4301	0	33088	32742	
4302	0	32636	33086	
4303	0	32268	32986	
4304	0	32120	32870	
4305	0	32266	32834	
4306	0	32204	32710	
4307	0	32472	32853	
4308	0	32760	32712	
4309	0	32930	32380	
4310	0	33020	32524	
4311	0	32992	32450	
4312	0	32808	32446	
4313	0	32440	32568	
4314	0	32408	32616	
4315	0	32376	32880	
4316	0	32472	33080	
4317	0	32420	33264	
4318	0	32532	32967	
4319	0	32956	32863	
4320	0	33140	32688	
4321	0	33218	32348	
4322	0	33130	32212	
4323	0	33088	32478	
4324	0	32994	33152	
4325	0	32886	33135	
4326	0	32760	33123	
4327	0	32832	33191	
4328	0	32708	33287	
4329	0	32672	32966	
4330	0	32652	32478	
4331	0	32670	32375	
4332	0	32728	31896	
4333	0	32668	31405	
4334	0	32672	32032	
4335	0	32848	32697	
4336	0	33068	32772	
4337	0	33108	32892	
4338	0	33186	33135	
4339	0	33056	33272	
4340	0	32968	33356	
4341	0	32864	33436	
4342	0	32756	32928	
4343	0	32792	32816	
4344	0	32722	32884	
4345	0	32682	32660	
4346	0	32764	32672	
4347	0	32816	32871	
4348	0	32842	33126	
4349	0	32836	32910	
4350	0	32852	32768	
4351	0	32900	32724	
4352	0	32892	32660	
4353	0	32868	32892	
4354	0	32772	32888	
4355	0	32742	32674	
4356	0	32792	32246	
4357	0	32778	31612	
4358	0	32792	31815	
4359	0	32864	32366	
4360	0	32940	32828	
4361	0	33128	33190	
4362	0	33058	32974	
4363	0	32792	32964	
4364	0	32776	32738	
4365	0	32876	33044	
4366	0	32840	32970	
4367	0	32668	32712	
4368	0	32460	32930	
4369	0	32418	32815	
4370	0	32338	32679	
4371	0	32290	32300	
4372	0	32472	32524	
4373	0	32388	32912	
4374	0	32664	32752	
4375	0	32944	32576	
4376	0	32986	32708	
4377	0	32952	32622	
4378	0	33008	32362	
4379	0	33016	32600	
4380	0	33288	32808	
4381	0	33296	32382	
4382	0	33136	32400	
4383	0	33040	32710	
4384	0	32788	32839	
4385	0	32540	32796	
4386	0	32392	33018	
4387	0	32552	33170	
4388	0	32704	32967	
4389	0	32808	32851	
4390	0	32836	32900	
4391	0	32886	33148	
4392	0	32944	33170	
4393	0	32816	33526	
4394	0	32851	33922	
4395	0	32968	33386	
4396	0	33106	32797	
4397	0	33108	32342	
4398	0	32960	31927	
4399	0	32856	32704	
4400	0	32772	33124	
4401	0	32584	32804	
4402	0	32584	32404	
4403	0	32548	31836	
4404	0	32578	31678	
4405	0	32626	32364	
4406	0	32664	32465	
4407	0	32856	32680	
4408	0	32758	32759	
4409	0	32906	32791	
4410	0	32928	32878	
4411	0	33046	32728	
4412	0	33056	32768	
4413	0	33112	32640	
4414	0	33048	32807	
4415	0	32844	33024	
4416	0	32636	32980	
4417	0	32516	33072	
4418	0	32616	33028	
4419	0	32682	32870	
4420	0	32848	33020	
4421	0	33016	32838	
4422	0	33024	32743	
4423	0	32928	32580	
4424	0	32904	32412	
4425	0	32874	32647	
4426	0	32780	33108	
4427	0	32796	33206	
4428	0	32860	32967	
4429	0	32784	32446	
4430	0	32692	32068	
4431	0	32908	32082	
4432	0	33040	32724	
4433	0	33060	33195	
4434	0	33068	33352	
4435	0	32956	33218	
4436	0	32836	33082	
4437	0	32996	33054	
4438	0	32924	32356	
4439	0	32674	32121	
4440	0	32552	32592	
4441	0	32456	32954	
4442	0	32240	33248	
4443	0	32432	32940	
4444	0	32800	32694	
4445	0	32912	32292	
4446	0	32964	32156	
4447	0	32940	32208	
4448	0	32928	32318	
4449	0	33208	32596	
4450	0	33164	32832	
4451	0	33159	32871	
4452	0	32972	32838	
4453	0	33108	32598	
4454	0	32945	32626	
4455	0	32946	32822	
4456	0	32920	33060	
4457	0	32684	33332	
4458	0	32368	33108	
4459	0	32368	33170	
4460	0	32608	32948	
4461	0	32692	32612	
4462	0	32536	32948	
4463	0	32482	32647	
4464	0	32882	32710	
4465	0	33072	32772	
4466	0	32984	32548	
4467	0	32926	32664	
4468	0	32722	32976	
4469	0	32878	32932	
4470	0	32800	32806	
4471	0	32720	32838	
4472	0	32588	32632	
4473	0	32865	32565	
4474	0	33000	32478	
4475	0	32934	32528	
4476	0	32880	32615	
4477	0	32992	32694	
4478	0	32964	32692	
4479	0	32920	33066	
4480	0	32866	33204	
4481	0	32928	33160	
4482	0	32976	32872	
4483	0	32948	32710	
4484	0	32768	32640	
4485	0	32760	32582	
4486	0	32940	32623	
4487	0	32808	32684	
4488	0	32762	32519	
4489	0	32912	32640	
4490	0	32868	32742	
4491	0	32720	32823	
4492	0	32744	32696	
4493	0	32700	32638	
4494	0	32834	32581	
4495	0	32800	32740	
4496	0	32788	32720	
4497	0	32714	32913	
4498	0	32932	32839	
4499	0	32956	32862	
4500	0	32817	32823	
4501	0	32614	32793	
4502	0	32192	32898	
4503	0	32212	32714	
4504	0	32118	32701	
4505	0	32340	32586	
4506	0	32700	32620	
4507	0	33112	32679	
4508	0	33340	32860	
4509	0	33488	32775	
4510	0	33704	32826	
4511	0	33654	32999	
4512	0	33268	32952	
4513	0	32892	32990	
4514	0	32728	32972	
4515	0	32584	32788	
4516	0	32789	32690	
4517	0	32604	32647	
4518	0	32524	32710	
4519	0	32448	32530	
4520	0	32380	32756	
4521	0	32480	32952	
4522	0	32632	33116	
4523	0	32516	33202	
4524	0	32546	33408	
4525	0	32684	33414	
4526	0	32948	33316	
4527	0	33260	33210	
4528	0	33408	33252	
4529	0	33548	33589	
4530	0	33318	33383	
4531	0	33594	32756	
4532	0	33438	32368	
4533	0	33352	31750	
4534	0	33038	31404	
4535	0	32460	31060	
4536	0	32114	30843	
4537	0	31976	31042	
4538	0	31864	31436	
4539	0	31824	31874	
4540	0	31820	32354	
4541	0	32368	32938	
4542	0	32580	33536	
4543	0	32836	33578	
4544	0	32960	33422	
4545	0	32864	33412	
4546	0	32968	33234	
4547	0	32884	33244	
4548	0	32858	33176	
4549	0	33150	33068	
4550	0	33352	32935	
4551	0	33196	33048	
4552	0	33058	32946	
4553	0	33188	33228	
4554	0	33192	33332	
4555	0	33188	33152	
4556	0	33052	32743	
4557	0	32801	32755	
4558	0	32638	32852	
4559	0	32804	32715	
4560	0	32908	32598	
4561	0	33010	32700	
4562	0	32952	32620	
4563	0	32778	32768	
4564	0	32808	32750	
4565	0	32244	32712	
4566	0	31606	32604	
4567	0	31812	32838	
4568	0	32484	32925	
4569	0	32572	32679	
4570	0	32392	32744	
4571	0	32616	32718	
4572	0	33082	32840	
4573	0	33404	32732	
4574	0	32896	32858	
4575	0	32748	32772	
4576	0	32786	32919	
4577	0	32916	32950	
4578	0	33148	32772	
4579	0	33424	32880	
4580	0	33620	32764	
4581	0	33532	32684	
4582	0	33432	32680	
4583	0	33026	32767	
4584	0	33034	32760	
4585	0	32803	32748	
4586	0	32350	32676	
4587	0	32340	32551	
4588	0	32540	32642	
4589	0	32594	33079	
4590	0	32532	33098	
4591	0	32593	32958	
4592	0	33232	32734	
4593	0	33258	32430	
4594	0	33024	32476	
4595	0	32768	32391	
4596	0	32518	32432	
4597	0	32724	32516	
4598	0	32848	32738	
4599	0	32652	32876	
4600	0	32496	32791	
4601	0	32364	33154	
4602	0	32400	33510	
4603	0	32676	33414	
4604	0	32740	33356	
4605	0	33038	32560	
4606	0	32990	32644	
4607	0	33100	32500	
4608	0	33188	31940	
4609	0	32822	32206	
4610	0	32520	32090	
4611	0	32612	31860	
4612	0	32544	32482	
4613	0	32692	32988	
4614	0	32960	32972	
4615	0	33094	32902	
4616	0	33084	32694	
4617	0	32940	32129	
4618	0	33010	32200	
4619	0	33122	32388	
4620	0	33104	32852	
4621	0	32886	32896	
4622	0	32736	32830	
4623	0	33058	33140	
4624	0	33156	33124	
4625	0	33008	32919	
4626	0	32788	32934	
4627	0	32660	32972	
4628	0	32433	32917	
4629	0	32002	32932	
4630	0	32440	33020	
4631	0	32770	32967	
4632	0	32921	32896	
4633	0	33002	32836	
4634	0	33026	32756	
4635	0	32892	32678	
4636	0	32863	32620	
4637	0	32688	32700	
4638	0	32569	32703	
4639	0	32532	32912	
4640	0	32494	32959	
4641	0	32640	32798	
4642	0	32866	32810	
4643	0	32820	32820	
4644	0	32836	32743	
4645	0	32874	32624	
4646	0	32836	32700	
4647	0	32860	32720	
4648	0	32742	32866	
4649	0	32772	32748	
4650	0	32804	32793	
4651	0	32802	32785	
4652	0	32886	32682	
4653	0	32876	32670	
4654	0	32922	32519	
4655	0	32956	32682	
4656	0	32964	32742	
4657	0	32880	32687	
4658	0	32756	32688	
4659	0	32720	32526	
4660	0	32816	32695	
4661	0	32888	32676	
4662	0	32954	32548	
4663	0	32990	32515	
4664	0	32936	32790	
4665	0	32782	32818	
4666	0	32836	32808	
4667	0	33000	32775	
4668	0	33072	32732	
4669	0	32924	32807	
4670	0	32792	32872	
4671	0	32682	32902	
4672	0	32472	33062	
4673	0	32268	33072	
4674	0	32156	33121	
4675	0	32184	33104	
4676	0	32312	33043	
4677	0	32452	32858	
4678	0	32770	32628	
4679	0	32864	32644	
4680	0	32984	32839	
4681	0	32968	32928	
4682	0	32780	33106	
4683	0	33036	33076	
4684	0	33032	33060	
4685	0	32868	33020	
4686	0	32776	32892	
4687	0	32506	32935	
4688	0	32516	32815	
4689	0	32638	32751	
4690	0	32580	32614	
4691	0	32670	32696	
4692	0	32908	32766	
4693	0	32938	32722	
4694	0	32924	32480	
4695	0	32964	32452	
4696	0	33137	32308	
4697	0	33068	32342	
4698	0	33002	32440	
4699	0	32976	32558	
4700	0	32906	32482	
4701	0	32870	32724	
4702	0	32766	32856	
4703	0	32708	33016	
4704	0	32842	33159	
4705	0	32864	32928	
4706	0	32700	32688	
4707	0	32804	32239	
4708	0	33056	32238	
4709	0	33596	32688	
4710	0	33562	32852	
4711	0	33380	33156	
4712	0	33160	33006	
4713	0	32676	32803	
4714	0	32452	32473	
4715	0	32134	31786	
4716	0	32308	31954	
4717	0	32226	32300	
4718	0	32352	32548	
4719	0	32624	32994	
4720	0	32556	33246	
4721	0	32344	33316	
4722	0	32314	33254	
4723	0	32804	33150	
4724	0	33172	32768	
4725	0	33050	32727	
4726	0	33022	32740	
4727	0	33140	32804	
4728	0	33140	32810	
4729	0	33100	32958	
4730	0	33089	32792	
4731	0	33068	32684	
4732	0	32918	32574	
4733	0	32900	32504	
4734	0	32673	32494	
4735	0	32772	32409	
4736	0	32928	32572	
4737	0	32630	32746	
4738	0	32696	32926	
4739	0	32740	32830	
4740	0	32612	32952	
4741	0	32636	32810	
4742	0	32572	32998	
4743	0	32556	32760	
4744	0	32998	32658	
4745	0	33072	32614	
4746	0	32980	32736	
4747	0	32984	32674	
4748	0	32864	32658	
4749	0	32792	32737	
4750	0	32602	32706	
4751	0	32720	32812	
4752	0	32896	32922	
4753	0	33004	33070	
4754	0	32930	32966	
4755	0	32924	32903	
4756	0	32774	32726	
4757	0	32700	32250	
4758	0	32748	32591	
4759	0	32924	32705	
4760	0	32988	32844	
4761	0	33048	32858	
4762	0	32988	32847	
4763	0	32836	32862	
4764	0	32534	32711	
4765	0	32688	32815	
4766	0	32714	32902	
4767	0	32814	32918	
4768	0	32856	32935	
4769	0	32892	32685	
4770	0	32844	32692	
4771	0	32872	32806	
4772	0	32918	32356	
4773	0	32972	32372	
4774	0	32910	32565	
4775	0	32920	32766	
4776	0	32852	32866	
4777	0	32808	33086	
4778	0	32784	33016	
4779	0	32832	32946	
4780	0	32858	33268	
4781	0	32776	32867	
4782	0	32808	32680	
4783	0	32738	32648	
4784	0	32788	32330	
4785	0	32784	32519	
4786	0	32706	32684	
4787	0	32732	32384	
4788	0	32728	32476	
4789	0	32752	32694	
4790	0	32816	33004	
4791	0	32800	33303	
4792	0	32788	33316	
4793	0	32796	33158	
4794	0	32756	32775	
4795	0	32748	32772	
4796	0	32788	32792	
4797	0	32800	32764	
4798	0	32806	32807	
4799	0	32818	32673	
4800	0	32768	32610	
4801	0	32736	32647	
4802	0	32757	32638	
4803	0	32814	32962	
4804	0	32820	32852	
4805	0	32825	32827	
4806	0	32754	32784	
4807	0	32800	32946	
4808	0	32892	32972	
4809	0	32818	32638	
4810	0	32720	32647	
4811	0	32728	32592	
4812	0	32698	32715	
4813	0	32820	33112	
4814	0	32846	32940	
4815	0	32860	32484	
4816	0	32948	32100	
4817	0	32924	32186	
4818	0	32898	32248	
4819	0	32892	32168	
4820	0	32844	32556	
4821	0	32768	32738	
4822	0	32730	32550	
4823	0	32718	32998	
4824	0	32676	33204	
4825	0	32692	33166	
4826	0	32732	32926	
4827	0	32762	32930	
4828	0	32820	32967	
4829	0	32752	32859	
4830	0	32856	32746	
4831	0	32872	32824	
4832	0	32880	32999	
4833	0	32800	32908	
4834	0	32632	32546	
4835	0	32696	32652	
4836	0	32748	33072	
4837	0	32808	32730	
4838	0	32808	32894	
4839	0	32782	33022	
4840	0	32816	32494	
4841	0	32848	32507	
4842	0	32834	32592	
4843	0	32840	32192	
4844	0	32724	32167	
4845	0	32792	32662	
4846	0	32780	32932	
4847	0	32844	32926	
4848	0	32882	32642	
4849	0	32852	32241	
4850	0	32858	32760	
4851	0	32908	32506	
4852	0	32922	32494	
4853	0	32920	32853	
4854	0	32832	32548	
4855	0	32808	32722	
4856	0	32782	32762	
4857	0	32772	32892	
4858	0	32796	33182	
4859	0	32770	33505	
4860	0	32780	33172	
4861	0	32741	33348	
4862	0	32818	33393	
4863	0	32736	32612	
4864	0	32736	32409	
4865	0	32728	32802	
4866	0	32756	32996	
4867	0	32717	32740	
4868	0	32740	32503	
4869	0	32648	32618	
4870	0	32720	32714	
4871	0	32836	32956	
4872	0	32792	32666	
4873	0	32820	32628	
4874	0	32904	33246	
4875	0	33016	33532	
4876	0	33112	33098	
4877	0	32932	32964	
4878	0	32908	32414	
4879	0	33028	32110	
4880	0	32913	32100	
4881	0	32820	32460	
4882	0	32776	32494	
4883	0	32700	32490	
4884	0	32773	32998	
4885	0	32852	33120	
4886	0	32824	33230	
4887	0	32900	33020	
4888	0	32800	32686	
4889	0	32836	32790	
4890	0	32804	32648	
4891	0	32816	32790	
4892	0	32736	32606	
4893	0	32764	32612	
4894	0	32698	32936	
4895	0	32736	32928	
4896	0	32716	32826	
4897	0	32772	32840	
4898	0	32816	32934	
4899	0	32940	32844	
4900	0	32960	32615	
4901	0	32942	32422	
4902	0	32988	32766	
4903	0	32844	32638	
4904	0	32816	32908	
4905	0	32776	32940	
4906	0	32804	32596	
4907	0	32826	32628	
4908	0	32776	32396	
4909	0	32792	32148	
4910	0	32852	32289	
4911	0	32988	32766	
4912	0	32924	33210	
4913	0	32868	33142	
4914	0	32808	32800	
4915	0	32758	32876	
4916	0	32604	33088	
4917	0	32716	33356	
4918	0	32686	33287	
4919	0	32716	32976	
4920	0	32689	32740	
4921	0	32782	32378	
4922	0	32828	32532	
4923	0	32826	32438	
4924	0	32888	32666	
4925	0	32948	32882	
4926	0	32918	32684	
4927	0	32868	32364	
4928	0	32796	32440	
4929	0	32782	33378	
4930	0	32826	33676	
4931	0	32908	33703	
4932	0	32836	33004	
4933	0	32830	31984	
4934	0	32794	31518	
4935	0	32824	31678	
4936	0	32744	32326	
4937	0	32712	32958	
4938	0	32764	33536	
4939	0	32776	33542	
4940	0	32744	33228	
4941	0	32628	32360	
4942	0	32790	32042	
4943	0	32940	31876	
4944	0	32960	32277	
4945	0	32940	32879	
4946	0	32988	32828	
4947	0	32804	33250	
4948	0	32936	33582	
4949	0	32968	33812	
4950	0	32768	33616	
4951	0	32545	33004	
4952	0	32708	33063	
4953	0	32788	32596	
4954	0	32856	32108	
4955	0	32784	32164	
4956	0	32856	32872	
4957	0	33074	32298	
4958	0	32844	32616	
4959	0	32746	32792	
4960	0	32564	32775	
4961	0	32441	32962	
4962	0	32420	32692	
4963	0	32532	32793	
4964	0	32688	32484	
4965	0	32848	32802	
4966	0	32870	32894	
4967	0	33032	33660	
4968	0	33141	33470	
4969	0	33064	32537	
4970	0	33000	32038	
4971	0	32916	31822	
4972	0	32768	31902	
4973	0	32768	32255	
4974	0	32856	32956	
4975	0	32860	33320	
4976	0	32808	32711	
4977	0	32748	32646	
4978	0	32732	33060	
4979	0	32784	32862	
4980	0	32894	32356	
4981	0	32850	32630	
4982	0	32864	33472	
4983	0	32920	33560	
4984	0	32724	33404	
4985	0	32656	32452	
4986	0	32638	31940	
4987	0	32870	32615	
4988	0	32820	33246	
4989	0	32776	33124	
4990	0	32838	32660	
4991	0	32824	32674	
4992	0	32802	32935	
4993	0	32756	33287	
4994	0	32676	33236	
4995	0	32784	32646	
4996	0	32808	32292	
4997	0	32882	32580	
4998	0	32912	33942	
4999	0	32788	34280	
5000	0	32640	33326	
5001	0	32674	32248	
5002	0	32484	30655	
5003	0	32516	31712	
5004	0	32588	32609	
5005	0	32795	32476	
5006	0	33182	32594	
5007	0	33120	32484	
5008	0	33204	32358	
5009	0	33370	32379	
5010	0	33406	32907	
5011	0	33212	32990	
5012	0	32970	33639	
5013	0	32752	33647	
5014	0	32808	33710	
5015	0	32752	33206	
5016	0	32472	32734	
5017	0	32548	32924	
5018	0	32656	33178	
5019	0	32962	32500	
5020	0	32934	32116	
5021	0	32906	32686	
5022	0	32756	33318	
5023	0	32518	33708	
5024	0	32548	33031	
5025	0	32426	31256	
5026	0	32490	31176	
5027	0	32648	33354	
5028	0	32764	34052	
5029	0	32742	33964	
5030	0	32840	32252	
5031	0	32725	30582	
5032	0	32670	30567	
5033	0	32832	32156	
5034	0	32900	33175	
5035	0	32912	33096	
5036	0	33072	32960	
5037	0	33250	32990	
5038	0	33336	33319	
5039	0	33184	33076	
5040	0	33144	33159	
5041	0	32976	33084	
5042	0	32716	32682	
5043	0	32646	32980	
5044	0	32496	32488	
5045	0	32544	32092	
5046	0	32724	32790	
5047	0	32764	33350	
5048	0	32864	33012	
5049	0	32872	32689	
5050	0	32816	32750	
5051	0	32912	32570	
5052	0	32864	32972	
5053	0	32800	33092	
5054	0	32814	33092	
5055	0	32676	32828	
5056	0	32652	32807	
5057	0	32648	32504	
5058	0	32820	33062	
5059	0	32670	32647	
5060	0	32752	31855	
5061	0	32676	32238	
5062	0	32764	32682	
5063	0	32832	32656	
5064	0	32730	32760	
5065	0	32870	33198	
5066	0	32769	33132	
5067	0	32817	33964	
5068	0	32740	33318	
5069	0	32914	32466	
5070	0	32940	31424	
5071	0	32596	31602	
5072	0	32644	32816	
5073	0	32770	33415	
5074	0	32972	33171	
5075	0	32978	32506	
5076	0	32904	31982	
5077	0	32848	32174	
5078	0	32864	32231	
5079	0	32730	32847	
5080	0	32720	33348	
5081	0	32892	32668	
5082	0	32832	32564	
5083	0	32852	32730	
5084	0	32784	32692	
5085	0	32750	33010	
5086	0	32766	32742	
5087	0	32658	32394	
5088	0	32744	33143	
5089	0	32830	32903	
5090	0	32792	32952	
5091	0	32860	32970	
5092	0	32916	32399	
5093	0	32910	32510	
5094	0	32896	32606	
5095	0	32678	32318	
5096	0	32760	31782	
5097	0	32772	31903	
5098	0	32832	32452	
5099	0	32896	32804	
5100	0	32774	32720	
5101	0	32880	32750	
5102	0	33144	33282	
5103	0	32832	33744	
5104	0	32718	33287	
5105	0	32762	33148	
5106	0	32912	32808	
5107	0	32762	32558	
5108	0	32754	32628	
5109	0	32910	32614	
5110	0	32866	32640	
5111	0	32868	32666	
5112	0	32864	32530	
5113	0	32880	32028	
5114	0	32804	32214	
5115	0	32798	32713	
5116	0	32768	33286	
5117	0	32700	33329	
5118	0	32790	32768	
5119	0	32732	32716	
5120	0	32790	32410	
5121	0	32784	32812	
5122	0	32828	32896	
5123	0	32870	32900	
5124	0	32724	33130	
5125	0	32760	33240	
5126	0	32792	33182	
5127	0	32696	33014	
5128	0	32832	33082	
5129	0	32752	32975	
5130	0	32724	32322	
5131	0	32836	32678	
5132	0	32856	33278	
5133	0	32872	33446	
5134	0	32852	33652	
5135	0	32800	33744	
5136	0	32894	33172	
5137	0	32726	32506	
5138	0	32720	32982	
5139	0	32816	33500	
5140	0	32840	33833	
5141	0	32860	33499	
5142	0	32764	33216	
5143	0	32812	33864	
5144	0	32780	34058	
5145	0	32776	33996	
5146	0	32840	34242	
5147	0	32852	34287	
5148	0	32910	33925	
5149	0	32892	33578	
5150	0	32932	34334	
5151	0	32812	35328	
5152	0	32932	35288	
5153	0	32900	33662	
5154	0	32812	32790	
5155	0	32744	33836	
5156	0	32764	33799	
5157	0	32652	33236	
5158	0	32648	33798	
5159	0	32716	34017	
5160	0	32742	33633	
5161	0	32792	33216	
5162	0	32810	33158	
5163	0	32832	32862	
5164	0	32984	32966	
5165	0	32920	32551	
5166	0	32846	32398	
5167	0	32810	32207	
5168	0	32780	32356	
5169	0	32738	32072	
5170	0	32868	31594	
5171	0	32792	30802	
5172	0	32712	31183	
5173	0	32704	31372	
5174	0	32718	31806	
5175	0	32808	31656	
5176	0	32720	31512	
5177	0	32728	31732	
5178	0	32648	31500	
5179	0	32756	31468	
5180	0	32774	31372	
5181	0	32788	31644	
5182	0	32816	31535	
5183	0	32924	31680	
5184	0	32984	31732	
5185	0	32864	31948	
5186	0	32824	31911	
5187	0	32802	32199	
5188	0	32822	32052	
5189	0	32872	31988	
5190	0	32765	32300	
5191	0	32760	32958	
5192	0	32632	32914	
5193	0	32712	32546	
5194	0	32768	32811	
5195	0	32842	32759	
5196	0	32848	32047	
5197	0	32770	32614	
5198	0	32776	32468	
5199	0	32828	32519	
5200	0	32758	32440	
5201	0	32800	32488	
5202	0	32716	32455	
5203	0	32784	32922	
5204	0	32812	32934	
5205	0	32884	32730	
5206	0	32906	32920	
5207	0	32960	33159	
5208	0	32952	32980	
5209	0	32942	32863	
5210	0	32824	32760	
5211	0	32884	33198	
5212	0	32776	33214	
5213	0	32836	33220	
5214	0	32824	33228	
5215	0	32792	33324	
5216	0	32828	33140	
5217	0	32918	32922	
5218	0	32932	32897	
5219	0	33040	33006	
5220	0	32944	33031	
5221	0	32868	32820	
5222	0	32753	32942	
5223	0	32720	33264	
5224	0	32704	33479	
5225	0	32760	33574	
5226	0	32840	33728	
5227	0	32752	33388	
5228	0	32876	32958	
5229	0	32896	32306	
5230	0	32912	31612	
5231	0	32896	31650	
5232	0	32924	31950	
5233	0	32852	32252	
5234	0	32876	32858	
5235	0	32852	32504	
5236	0	32770	32121	
5237	0	32744	32426	
5238	0	32740	32668	
5239	0	32742	32590	
5240	0	32748	32614	
5241	0	32812	32519	
5242	0	32788	32698	
5243	0	32820	32570	
5244	0	32800	32740	
5245	0	32842	32536	
5246	0	32726	32526	
5247	0	32728	32716	
5248	0	32816	32716	
5249	0	32752	32816	
5250	0	32804	32350	
5251	0	32768	32434	
5252	0	32748	32348	
5253	0	32742	32414	
5254	0	32808	32196	
5255	0	32688	32188	
5256	0	32724	32252	
5257	0	32710	32250	
5258	0	32868	32302	
5259	0	32850	32232	
5260	0	32836	32455	
5261	0	32870	32209	
5262	0	32770	32353	
5263	0	32804	32347	
5264	0	32792	32392	
5265	0	32720	32236	
5266	0	32896	32158	
5267	0	32888	32138	
5268	0	32894	32318	
5269	0	32932	32260	
5270	0	32826	32276	
5271	0	32888	31898	
5272	0	32870	32176	
5273	0	32868	32343	
5274	0	32792	32286	
5275	0	32772	32222	
5276	0	32838	32252	
5277	0	32788	32548	
5278	0	32676	32193	
5279	0	32776	32160	
5280	0	32756	32128	
5281	0	32744	32647	
5282	0	32900	32882	
5283	0	32934	32884	
5284	0	32910	32646	
5285	0	32752	32542	
5286	0	32730	32662	
5287	0	32692	32664	
5288	0	32796	32871	
5289	0	32778	33428	
5290	0	32834	33520	
5291	0	32904	33328	
5292	0	32932	33387	
5293	0	32928	33176	
5294	0	32884	33504	
5295	0	32800	33252	
5296	0	32744	33342	
5297	0	32784	33514	
5298	0	32880	33656	
5299	0	32876	33652	
5300	0	32804	33314	
5301	0	32772	33432	
5302	0	32856	33131	
5303	0	32792	33098	
5304	0	32736	33068	
5305	0	32772	32864	
5306	0	32724	32689	
5307	0	32800	32600	
5308	0	32824	32642	
5309	0	32844	32724	
5310	0	32902	32798	
5311	0	32952	32748	
5312	0	32840	32706	
5313	0	32726	32655	
5314	0	32904	32668	
5315	0	32832	32620	
5316	0	32872	32807	
5317	0	32896	32658	
5318	0	32896	32409	
5319	0	33000	32399	
5320	0	33194	32328	
5321	0	33536	32552	
5322	0	33716	32595	
5323	0	33408	32312	
5324	0	32986	32132	
5325	0	32676	32586	
5326	0	32322	32592	
5327	0	32076	32500	
5328	0	31970	32424	
5329	0	32092	32350	
5330	0	32156	32294	
5331	0	32420	32468	
5332	0	32700	32423	
5333	0	33009	32572	
5334	0	33156	32396	
5335	0	33208	32422	
5336	0	33224	32384	
5337	0	33124	32558	
5338	0	33040	32556	
5339	0	32844	32484	
5340	0	32802	32556	
5341	0	32758	32535	
5342	0	32656	32596	
5343	0	32588	32428	
5344	0	32618	32628	
5345	0	32660	32564	
5346	0	32764	32583	
5347	0	32732	32603	
5348	0	32698	32711	
5349	0	32708	32440	
5350	0	32684	32414	
5351	0	32764	32561	
5352	0	32796	32575	
5353	0	32826	32487	
5354	0	32740	32519	
5355	0	32816	32389	
5356	0	32800	32548	
5357	0	32744	32391	
5358	0	32768	32612	
5359	0	32788	33031	
5360	0	32788	32894	
5361	0	32792	33118	
5362	0	32788	33148	
5363	0	32729	33353	
5364	0	32756	33216	
5365	0	32790	33008	
5366	0	32754	32711	
5367	0	32840	32715	
5368	0	32884	32372	
5369	0	32874	32712	
5370	0	32838	33168	
5371	0	32820	33401	
5372	0	32798	33186	
5373	0	32836	33052	
5374	0	32848	33098	
5375	0	32848	32822	
5376	0	32912	32806	
5377	0	32800	33078	
5378	0	32792	32936	
5379	0	32834	33030	
5380	0	32904	33138	
5381	0	32802	33196	
5382	0	32728	33287	
5383	0	32746	33220	
5384	0	32760	33000	
5385	0	32788	33198	
5386	0	32674	33048	
5387	0	32904	32826	
5388	0	32816	32871	
5389	0	32774	33006	
5390	0	32848	33063	
5391	0	32788	33216	
5392	0	32782	33102	
5393	0	32908	33086	
5394	0	32882	33016	
5395	0	32912	33278	
5396	0	32808	33362	
5397	0	32796	33223	
5398	0	32820	33092	
5399	0	32800	32996	
5400	0	32796	33112	
5401	0	32820	33097	
5402	0	32904	33057	
5403	0	32868	33044	
5404	0	32876	32884	
5405	0	32802	32900	
5406	0	32778	32824	
5407	0	32732	32929	
5408	0	32770	32871	
5409	0	32839	32934	
5410	0	32698	33112	
5411	0	32816	32934	
5412	0	32848	33086	
5413	0	32826	33031	
5414	0	32752	32956	
5415	0	32788	32860	
5416	0	32772	32864	
5417	0	32762	32847	
5418	0	32856	32980	
5419	0	32744	32687	
5420	0	32812	32800	
5421	0	32776	32714	
5422	0	32768	32854	
5423	0	32712	32980	
5424	0	32770	33086	
5425	0	32760	33070	
5426	0	32700	32962	
5427	0	32778	32894	
5428	0	32782	32888	
5429	0	32872	32817	
5430	0	32908	33004	
5431	0	32916	32878	
5432	0	32826	32884	
5433	0	32838	32980	
5434	0	32816	33030	
5435	0	32816	33044	
5436	0	32776	32838	
5437	0	32814	32898	
5438	0	32804	33038	
5439	0	32684	32874	
5440	0	32758	32948	
5441	0	32848	33250	
5442	0	32884	33340	
5443	0	32896	33100	
5444	0	32764	32816	
5445	0	32756	33031	
5446	0	32788	32898	
5447	0	32820	32928	
5448	0	32796	32892	
5449	0	32760	32935	
5450	0	32802	32852	
5451	0	32796	32647	
5452	0	32828	32865	
5453	0	32808	32775	
5454	0	32746	32732	
5455	0	32792	32702	
5456	0	32876	32679	
5457	0	32836	32958	
5458	0	32804	32736	
5459	0	32693	32854	
5460	0	32768	32890	
5461	0	32712	32506	
5462	0	32824	32591	
5463	0	32778	32482	
5464	0	32762	32766	
5465	0	32748	33202	
5466	0	32820	33310	
5467	0	32842	33244	
5468	0	32826	33040	
5469	0	32836	33080	
5470	0	32776	32960	
5471	0	32864	33020	
5472	0	32808	33190	
5473	0	32816	32886	
5474	0	32788	32840	
5475	0	32780	32874	
5476	0	32834	33139	
5477	0	32928	33068	
5478	0	32884	33119	
5479	0	32900	33008	
5480	0	32888	33218	
5481	0	32824	33098	
5482	0	32776	32775	
5483	0	32768	32806	
5484	0	32748	32876	
5485	0	32816	32848	
5486	0	32772	32874	
5487	0	32796	32864	
5488	0	32800	32775	
5489	0	32828	32816	
5490	0	32816	32775	
5491	0	32821	32988	
5492	0	32760	32767	
5493	0	32752	32639	
5494	0	32832	32978	
5495	0	32952	32970	
5496	0	32878	32882	
5497	0	32788	32584	
5498	0	32790	32576	
5499	0	32748	32644	
5500	0	32800	32702	
5501	0	32776	32868	
5502	0	32744	32674	
5503	0	32776	32598	
5504	0	32786	32519	
5505	0	32788	32602	
5506	0	32840	32572	
5507	0	32780	32615	
5508	0	32744	32634	
5509	0	32836	32819	
5510	0	32752	32826	
5511	0	32800	32864	
5512	0	32798	32750	
5513	0	32836	32852	
5514	0	32896	32849	
5515	0	32904	32679	
5516	0	32896	32804	
5517	0	32804	32806	
5518	0	32794	32728	
5519	0	32728	32691	
5520	0	32820	32625	
5521	0	32780	32511	
5522	0	32828	32574	
5523	0	32816	32664	
5524	0	32832	32641	
5525	0	32776	32634	
5526	0	32768	32647	
5527	0	32806	32772	
5528	0	32786	32752	
5529	0	32744	32704	
5530	0	32836	32727	
5531	0	32770	32628	
5532	0	32852	32672	
5533	0	32780	32545	
5534	0	32816	32730	
5535	0	32848	32602	
5536	0	32954	32836	
5537	0	32864	32660	
5538	0	32864	32814	
5539	0	32812	32510	
5540	0	32832	32720	
5541	0	32904	32592	
5542	0	32970	32696	
5543	0	32904	32644	
5544	0	32888	32578	
5545	0	32848	32590	
5546	0	32956	32564	
5547	0	32902	32618	
5548	0	32916	32476	
5549	0	32936	32551	
5550	0	32878	32472	
5551	0	32834	32590	
5552	0	33002	32711	
5553	0	33008	32709	
5554	0	32908	32463	
5555	0	32880	32519	
5556	0	32840	32681	
5557	0	32884	32682	
5558	0	32818	32674	
5559	0	32706	32640	
5560	0	32730	32452	
5561	0	32696	32543	
5562	0	32704	32596	
5563	0	32628	32902	
5564	0	32736	32892	
5565	0	32756	32908	
5566	0	32602	32804	
5567	0	32612	32980	
5568	0	32689	32888	
5569	0	32734	32866	
5570	0	32698	32762	
5571	0	32510	32799	
5572	0	32556	32812	
5573	0	32676	32984	
5574	0	32644	33108	
5575	0	32604	33086	
5576	0	32704	33124	
5577	0	32660	33140	
5578	0	32736	32930	
5579	0	32768	32546	
5580	0	32840	32480	
5581	0	32844	32263	
5582	0	32834	32324	
5583	0	32898	32372	
5584	0	32852	32428	
5585	0	32890	32430	
5586	0	32980	32402	
5587	0	32932	32304	
5588	0	32908	32423	
5589	0	32992	32552	
5590	0	32868	32240	
5591	0	32866	32336	
5592	0	32856	32442	
5593	0	32860	32562	
5594	0	32884	32559	
5595	0	32792	32586	
5596	0	32776	32660	
5597	0	32808	32664	
5598	0	32800	32526	
5599	0	32798	32558	
5600	0	32794	32626	
5601	0	32804	32601	
5602	0	32846	32700	
5603	0	32836	32619	
5604	0	32736	32692	
5605	0	32888	32668	
5606	0	32860	32631	
5607	0	32886	32550	
5608	0	32886	32625	
5609	0	32878	32574	
5610	0	32816	32730	
5611	0	32812	32490	
5612	0	32866	32462	
5613	0	32904	32546	
5614	0	32894	32724	
5615	0	32864	32663	
5616	0	32820	32738	
5617	0	32828	32772	
5618	0	32820	32692	
5619	0	32798	32826	
5620	0	32806	32647	
5621	0	32828	32710	
5622	0	32826	32627	
5623	0	32834	32756	
5624	0	32844	32775	
5625	0	32874	32761	
5626	0	32840	32830	
5627	0	32800	32868	
5628	0	32792	32727	
5629	0	32796	32738	
5630	0	32740	32775	
5631	0	32802	32828	
5632	0	32792	32799	
5633	0	32834	32714	
5634	0	32774	32644	
5635	0	32688	32730	
5636	0	32720	32799	
5637	0	32760	32784	
5638	0	32824	32871	
5639	0	32816	32908	
5640	0	32828	32872	
5641	0	32720	32802	
5642	0	32778	32896	
5643	0	32804	32874	
5644	0	32836	32820	
5645	0	32760	32836	
5646	0	32744	32736	
5647	0	32856	32762	
5648	0	32852	32690	
5649	0	32784	32770	
5650	0	32784	32716	
5651	0	32896	32795	
5652	0	32872	32614	
5653	0	32828	32902	
5654	0	32808	32998	
5655	0	32914	32990	
5656	0	32866	33066	
5657	0	32877	33050	
5658	0	32772	33076	
5659	0	32868	32866	
5660	0	32894	33098	
5661	0	32832	33004	
5662	0	32728	33172	
5663	0	32744	33242	
5664	0	32712	33302	
5665	0	32812	33194	
5666	0	32798	33194	
5667	0	32794	33066	
5668	0	32876	33332	
5669	0	32784	33474	
5670	0	32824	33514	
5671	0	32796	33452	
5672	0	32756	33434	
5673	0	32748	33436	
5674	0	32898	33750	
5675	0	32980	34162	
5676	0	33008	34284	
5677	0	32840	34311	
5678	0	32821	34376	
5679	0	32764	34311	
5680	0	32820	34311	
5681	0	32832	34590	
5682	0	32800	34556	
5683	0	32776	34742	
5684	0	32792	34646	
5685	0	32800	34503	
5686	0	32752	34439	
5687	0	32820	34204	
5688	0	32772	34206	
5689	0	32834	34055	
5690	0	32772	34064	
5691	0	32848	33942	
5692	0	32856	33988	
5693	0	33024	33719	
5694	0	32938	33520	
5695	0	32972	33188	
5696	0	32896	32634	
5697	0	32774	32519	
5698	0	32688	32412	
5699	0	32792	32576	
5700	0	32780	32638	
5701	0	32836	32514	
5702	0	32712	32274	
5703	0	32768	32296	
5704	0	32696	32110	
5705	0	32640	32100	
5706	0	32704	31998	
5707	0	32924	32084	
5708	0	33048	32135	
5709	0	32832	31924	
5710	0	32796	31888	
5711	0	32800	31973	
5712	0	32846	32007	
5713	0	32836	31928	
5714	0	32796	32020	
5715	0	32798	31928	
5716	0	32862	32100	
5717	0	32916	32070	
5718	0	32773	32116	
5719	0	32832	32022	
5720	0	32849	32074	
5721	0	32796	31996	
5722	0	32796	31924	
5723	0	32872	31838	
5724	0	32772	31782	
5725	0	32838	31712	
5726	0	32772	31668	
5727	0	32768	31640	
5728	0	32774	31613	
5729	0	32876	31572	
5730	0	32918	31591	
5731	0	32826	31604	
5732	0	32792	31439	
5733	0	32850	31462	
5734	0	32876	31432	
5735	0	32894	31410	
5736	0	32880	31396	
5737	0	32868	31450	
5738	0	32844	31678	
5739	0	32828	31620	
5740	0	32788	31670	
5741	0	32862	31620	
5742	0	32792	31804	
5743	0	32804	32017	
5744	0	32808	31943	
5745	0	32682	32002	
5746	0	32750	32076	
5747	0	32812	32259	
5748	0	32874	32152	
5749	0	32836	32044	
5750	0	32896	31962	
5751	0	32900	32104	
5752	0	32856	31956	
5753	0	32804	32106	
5754	0	32802	32164	
5755	0	32834	32332	
5756	0	32842	32408	
5757	0	32842	32498	
5758	0	32770	32471	
5759	0	32796	32524	
5760	0	32784	32572	
5761	0	32788	32528	
5762	0	32770	32622	
5763	0	32816	32670	
5764	0	32816	32768	
5765	0	32784	32668	
5766	0	32770	32622	
5767	0	32732	32500	
5768	0	32804	32454	
5769	0	32820	32622	
5770	0	32928	32622	
5771	0	32830	32740	
5772	0	32784	32518	
5773	0	32876	32586	
5774	0	32868	32582	
5775	0	32862	32484	
5776	0	32808	32463	
5777	0	32890	32596	
5778	0	32824	32545	
5779	0	32760	32582	
5780	0	32760	32714	
5781	0	32828	32660	
5782	0	32744	32812	
5783	0	32780	32748	
5784	0	32812	32666	
5785	0	32740	32528	
5786	0	32822	32608	
5787	0	32820	32670	
5788	0	32785	32728	
5789	0	32790	32519	
5790	0	32784	32548	
5791	0	32824	32420	
5792	0	32916	32476	
5793	0	32814	32644	
5794	0	32904	32942	
5795	0	32832	32820	
5796	0	32846	32962	
5797	0	32862	33102	
5798	0	32868	33142	
5799	0	32820	33196	
5800	0	32656	33062	
5801	0	32712	32981	
5802	0	32734	33102	
5803	0	32892	33182	
5804	0	32908	33358	
5805	0	32792	33346	
5806	0	32830	33202	
5807	0	32840	33134	
5808	0	32760	32978	
5809	0	32840	33030	
5810	0	32872	32984	
5811	0	32826	33126	
5812	0	32832	33095	
5813	0	32812	33016	
5814	0	32834	32980	
5815	0	32812	32942	
5816	0	32808	33103	
5817	0	32862	33022	
5818	0	32798	32961	
5819	0	32756	32889	
5820	0	32746	32964	
5821	0	32744	32856	
5822	0	32796	32936	
5823	0	32786	32714	
5824	0	32744	32596	
5825	0	32760	32516	
5826	0	32752	32716	
5827	0	32763	32560	
5828	0	32800	32609	
5829	0	32874	32544	
5830	0	32964	32638	
5831	0	32810	32620	
5832	0	32812	32406	
5833	0	32826	32510	
5834	0	32814	32474	
5835	0	32802	32551	
5836	0	32832	32604	
5837	0	32856	32678	
5838	0	32825	32572	
5839	0	32816	32574	
5840	0	32766	32638	
5841	0	32782	32683	
5842	0	32748	32646	
5843	0	32806	32494	
5844	0	32824	32607	
5845	0	32754	32391	
5846	0	32810	32454	
5847	0	32804	32398	
5848	0	32848	32437	
5849	0	32782	32396	
5850	0	32810	32444	
5851	0	32824	32356	
5852	0	32900	32210	
5853	0	32872	32247	
5854	0	32868	32156	
5855	0	32792	32260	
5856	0	32730	32372	
5857	0	32752	32382	
5858	0	32801	32610	
5859	0	32834	32864	
5860	0	32784	32892	
5861	0	32798	32964	
5862	0	32796	32954	
5863	0	32752	33172	
5864	0	32728	33234	
5865	0	32836	33074	
5866	0	32776	33119	
5867	0	32804	33177	
5868	0	32824	33120	
5869	0	32786	33006	
5870	0	32848	33134	
5871	0	32898	33052	
5872	0	32864	33254	
5873	0	32838	33126	
5874	0	32820	33159	
5875	0	32826	33031	
5876	0	32828	33122	
5877	0	32808	33240	
5878	0	32792	33016	
5879	0	32796	33178	
5880	0	32788	33088	
5881	0	32740	33050	
5882	0	32770	33073	
5883	0	32800	33232	
5884	0	32754	33356	
5885	0	32848	33401	
5886	0	32822	33592	
5887	0	32758	33500	
5888	0	32838	33600	
5889	0	32808	33548	
5890	0	32858	33560	
5891	0	32872	33270	
5892	0	32852	33229	
5893	0	32894	33182	
5894	0	32804	33124	
5895	0	32804	33015	
5896	0	32780	32892	
5897	0	32812	32802	
5898	0	32820	32718	
5899	0	32854	32760	
5900	0	32838	32634	
5901	0	32786	32724	
5902	0	32854	32692	
5903	0	32846	32702	
5904	0	32720	32746	
5905	0	32790	32748	
5906	0	32772	32925	
5907	0	32856	32944	
5908	0	32864	33124	
5909	0	32881	33148	
5910	0	32904	33129	
5911	0	32908	33030	
5912	0	32806	33029	
5913	0	32909	33044	
5914	0	32796	33170	
5915	0	32880	33116	
5916	0	32876	33176	
5917	0	32848	33182	
5918	0	32796	33014	
5919	0	32802	32900	
5920	0	32760	32992	
5921	0	32952	33004	
5922	0	32816	32938	
5923	0	32796	32880	
5924	0	32784	33008	
5925	0	32748	32823	
5926	0	32794	32849	
5927	0	32732	32820	
5928	0	32792	32868	
5929	0	32776	32902	
5930	0	32792	32822	
5931	0	32824	32952	
5932	0	32804	32972	
5933	0	32834	32956	
5934	0	32796	32876	
5935	0	32786	32879	
5936	0	32860	33090	
5937	0	32880	33287	
5938	0	32856	33520	
5939	0	32810	33772	
5940	0	32748	33866	
5941	0	32784	33998	
5942	0	32756	33908	
5943	0	32748	33572	
5944	0	32684	33110	
5945	0	32810	32704	
5946	0	32798	32366	
5947	0	32814	32036	
5948	0	32804	31860	
5949	0	32776	31602	
5950	0	32820	31495	
5951	0	32830	31585	
5952	0	32832	31637	
5953	0	32859	31751	
5954	0	32872	31880	
5955	0	32802	31886	
5956	0	32824	32124	
5957	0	32900	32436	
5958	0	32888	32628	
5959	0	32838	32757	
5960	0	32804	32935	
5961	0	32770	33028	
5962	0	32784	33031	
5963	0	32810	32960	
5964	0	32732	33012	
5965	0	32692	33031	
5966	0	32792	33014	
5967	0	32830	33046	
5968	0	32674	33096	
5969	0	32728	32948	
5970	0	32756	32876	
5971	0	32772	32865	
5972	0	32844	32878	
5973	0	32800	32897	
5974	0	32944	32928	
5975	0	32865	32990	
5976	0	32856	32974	
5977	0	32788	32977	
5978	0	32866	33010	
5979	0	32812	33022	
5980	0	32776	32867	
5981	0	32770	32816	
5982	0	32786	32796	
5983	0	32768	32756	
5984	0	32756	32856	
5985	0	32768	32820	
5986	0	32816	32927	
5987	0	32776	32888	
5988	0	32788	32751	
5989	0	32752	32774	
5990	0	32784	32833	
5991	0	32892	32756	
5992	0	32868	32614	
5993	0	32832	32573	
5994	0	32936	32871	
5995	0	32880	32943	
5996	0	32888	32796	
5997	0	32840	32722	
5998	0	32792	32634	
5999	0	32846	32644	
6000	0	32796	32682	
6001	0	32824	32644	
6002	0	32680	32638	
6003	0	32744	32692	
6004	0	32788	32598	
6005	0	32778	32638	
6006	0	32850	32790	
6007	0	32948	32908	
6008	0	32800	32720	
6009	0	32896	32685	
6010	0	32824	32707	
6011	0	32860	32742	
6012	0	32844	32710	
