# OpenSignals Text File Format. Version 1
# {"00:07:80:8C:0A:39": {"position": 0, "device": "biosignalsplux", "device name": "00:07:80:8C:0A:39", "device connection": "BTH00:07:80:8C:0A:39", "sampling rate": 1000, "resolution": [16, 16], "firmware version": 776, "comments": "", "keywords": "", "mode": 0, "sync interval": 2, "date": "2023-3-17", "time": "15:17:47.737", "channels": [1, 2], "sensor": ["EMG", "EMG"], "label": ["CH1", "CH2"], "column": ["nSeq", "DI", "CH1", "CH2"], "special": [{"SpO2": [80, 40, 5, 4, 3, 3]}, {"SpO2": [80, 40, 5, 4, 3, 3]}, {"SpO2": [80, 40, 5, 4, 3, 3]}, {"SpO2": [80, 40, 5, 4, 3, 3]}, {"SpO2": [80, 40, 5, 4, 3, 3]}, {"SpO2": [80, 40, 5, 4, 3, 3]}, {"SpO2": [80, 40, 5, 4, 3, 3]}, {"SpO2": [80, 40, 5, 4, 3, 3]}], "digital IO": [0, 1], "sleeve color": ["gray", "yellow"], "convertedValues": 0}}
# EndOfHeader
0	0	32868	32824	
1	0	32842	32820	
2	0	32870	32799	
3	0	32864	32682	
4	0	32816	32798	
5	0	32828	32870	
6	0	32800	32910	
7	0	32742	32724	
8	0	32788	32702	
9	0	32788	32734	
10	0	32846	32818	
11	0	32800	32698	
12	0	32832	32679	
13	0	32828	32760	
14	0	32816	32742	
15	0	32764	32780	
16	0	32848	32714	
17	0	32780	32772	
18	0	32822	32687	
19	0	32802	32887	
20	0	32804	32738	
21	0	32758	32725	
22	0	32820	32841	
23	0	32816	32718	
24	0	32788	32767	
25	0	32804	32552	
26	0	32820	32730	
27	0	32838	32766	
28	0	32792	32698	
29	0	32822	32852	
30	0	32844	32662	
31	0	32804	32788	
32	0	32808	32720	
33	0	32814	32798	
34	0	32778	32862	
35	0	32788	32694	
36	0	32812	32834	
37	0	32816	32820	
38	0	32808	32802	
39	0	32800	32743	
40	0	32836	32786	
41	0	32808	32794	
42	0	32800	32775	
43	0	32804	32708	
44	0	32788	32832	
45	0	32830	32829	
46	0	32762	32768	
47	0	32816	32834	
48	0	32814	32742	
49	0	32836	32775	
50	0	32832	32697	
51	0	32824	32798	
52	0	32762	32716	
53	0	32841	32758	
54	0	32854	32848	
55	0	32832	32766	
56	0	32804	32834	
57	0	32764	32792	
58	0	32786	32762	
59	0	32808	32696	
60	0	32832	32772	
61	0	32822	32832	
62	0	32836	32668	
63	0	32810	32806	
64	0	32850	32756	
65	0	32794	32892	
66	0	32872	32740	
67	0	32818	32748	
68	0	32824	32788	
69	0	32764	32688	
70	0	32868	32804	
71	0	32780	32756	
72	0	32762	32804	
73	0	32848	32844	
74	0	32768	32714	
75	0	32778	32847	
76	0	32792	32686	
77	0	32849	32775	
78	0	32820	32744	
79	0	32876	32746	
80	0	32714	32896	
81	0	32790	32698	
82	0	32832	32766	
83	0	32848	32748	
84	0	32808	32888	
85	0	32782	32814	
86	0	32810	32710	
87	0	32824	32679	
88	0	32800	32666	
89	0	32736	32775	
90	0	32788	32718	
91	0	32820	32816	
92	0	32804	32796	
93	0	32838	32886	
94	0	32840	32832	
95	0	32876	32647	
96	0	32728	32676	
97	0	32836	32744	
98	0	32860	32735	
99	0	32834	32775	
100	0	32832	32734	
101	0	32812	32646	
102	0	32810	32796	
103	0	32828	32775	
104	0	32814	32840	
105	0	32826	32886	
106	0	32892	32702	
107	0	32866	32830	
108	0	32736	32764	
109	0	32804	32798	
110	0	32752	32644	
111	0	32836	32736	
112	0	32852	32775	
113	0	32868	32722	
114	0	32838	32706	
115	0	32752	32626	
116	0	32788	32760	
117	0	32762	32620	
118	0	32812	32796	
119	0	32810	32775	
120	0	32832	32801	
121	0	32800	32770	
122	0	32820	32852	
123	0	32824	32839	
124	0	32816	32871	
125	0	32836	32748	
126	0	32796	32664	
127	0	32788	32820	
128	0	32820	32743	
129	0	32793	32830	
130	0	32804	32682	
131	0	32800	32679	
132	0	32816	32678	
133	0	32766	32834	
134	0	32836	32760	
135	0	32812	32791	
136	0	32792	32839	
137	0	32874	32710	
138	0	32776	32792	
139	0	32842	32749	
140	0	32856	32817	
141	0	32856	32795	
142	0	32796	32718	
143	0	32804	32744	
144	0	32824	32888	
145	0	32812	32682	
146	0	32816	32818	
147	0	32840	32767	
148	0	32757	32775	
149	0	32864	32792	
150	0	32842	32694	
151	0	32804	32806	
152	0	32764	32826	
153	0	32784	32680	
154	0	32770	32807	
155	0	32824	32830	
156	0	32824	32821	
157	0	32769	32740	
158	0	32836	32748	
159	0	32864	32791	
160	0	32824	32828	
161	0	32876	32713	
162	0	32824	32775	
163	0	32834	32734	
164	0	32788	32756	
165	0	32804	32810	
166	0	32784	32732	
167	0	32802	32800	
168	0	32798	32762	
169	0	32858	32814	
170	0	32806	32706	
171	0	32826	32822	
172	0	32788	32748	
173	0	32854	32724	
174	0	32842	32817	
175	0	32860	32699	
176	0	32760	32714	
177	0	32812	32691	
178	0	32802	32798	
179	0	32912	32814	
180	0	32732	32794	
181	0	32808	32764	
182	0	32816	32820	
183	0	32794	32818	
184	0	32858	32734	
185	0	32816	32762	
186	0	32866	32760	
187	0	32746	32775	
188	0	32816	32692	
189	0	32784	32806	
190	0	32788	32775	
191	0	32832	32727	
192	0	32808	32764	
193	0	32788	32724	
194	0	32828	32712	
195	0	32778	32688	
196	0	32780	32846	
197	0	32808	32850	
198	0	32900	32775	
199	0	32754	32734	
200	0	32800	32698	
201	0	32786	32750	
202	0	32776	32758	
203	0	32760	32901	
204	0	32836	32800	
205	0	32764	32724	
206	0	32808	32800	
207	0	32816	32754	
208	0	32790	32864	
209	0	32768	32775	
210	0	32834	32650	
211	0	32864	32758	
212	0	32828	32788	
213	0	32852	32775	
214	0	32780	32852	
215	0	32768	32678	
216	0	32864	32678	
217	0	32794	32742	
218	0	32760	32802	
219	0	32796	32766	
220	0	32776	32798	
221	0	32804	32798	
222	0	32772	32732	
223	0	32888	32800	
224	0	32824	32695	
225	0	32796	32678	
226	0	32756	32676	
227	0	32784	32815	
228	0	32800	32772	
229	0	32814	32836	
230	0	32824	32775	
231	0	32824	32758	
232	0	32808	32754	
233	0	32814	32823	
234	0	32824	32823	
235	0	32808	32788	
236	0	32802	32840	
237	0	32758	32732	
238	0	32824	32788	
239	0	32852	32846	
240	0	32720	32802	
241	0	32848	32807	
242	0	32828	32772	
243	0	32792	32810	
244	0	32834	32718	
245	0	32832	32800	
246	0	32798	32728	
247	0	32858	32670	
248	0	32768	32762	
249	0	32712	32839	
250	0	32816	32810	
251	0	32750	32700	
252	0	32852	32772	
253	0	32752	32697	
254	0	32832	32814	
255	0	32860	32743	
256	0	32864	32874	
257	0	32790	32711	
258	0	32804	32720	
259	0	32792	32807	
260	0	32768	32814	
261	0	32836	32824	
262	0	32834	32858	
263	0	32860	32698	
264	0	32792	32710	
265	0	32821	32724	
266	0	32808	32734	
267	0	32816	32720	
268	0	32884	32858	
269	0	32782	32775	
270	0	32808	32814	
271	0	32764	32770	
272	0	32856	32743	
273	0	32780	32743	
274	0	32734	32703	
275	0	32820	32775	
276	0	32780	32724	
277	0	32794	32732	
278	0	32828	32788	
279	0	32832	32818	
280	0	32820	32754	
281	0	32784	32725	
282	0	32788	32774	
283	0	32808	32794	
284	0	32864	32796	
285	0	32804	32728	
286	0	32832	32742	
287	0	32846	32666	
288	0	32852	32764	
289	0	32836	32711	
290	0	32764	32766	
291	0	32740	32719	
292	0	32774	32807	
293	0	32764	32802	
294	0	32828	32768	
295	0	32764	32902	
296	0	32820	32736	
297	0	32784	32836	
298	0	32820	32657	
299	0	32860	32852	
300	0	32768	32684	
301	0	32824	32718	
302	0	32836	32740	
303	0	32804	32798	
304	0	32852	32742	
305	0	32804	32759	
306	0	32836	32775	
307	0	32842	32806	
308	0	32838	32775	
309	0	32790	32720	
310	0	32822	32719	
311	0	32848	32768	
312	0	32816	32754	
313	0	32806	32730	
314	0	32814	32614	
315	0	32745	32772	
316	0	32780	32775	
317	0	32808	32740	
318	0	32820	32772	
319	0	32880	32772	
320	0	32856	32864	
321	0	32852	32764	
322	0	32800	32732	
323	0	32840	32768	
324	0	32800	32818	
325	0	32802	32714	
326	0	32792	32744	
327	0	32808	32806	
328	0	32836	32754	
329	0	32816	32724	
330	0	32828	32786	
331	0	32844	32750	
332	0	32838	32760	
333	0	32812	32772	
334	0	32798	32711	
335	0	32830	32832	
336	0	32760	32789	
337	0	32748	32744	
338	0	32756	32734	
339	0	32804	32852	
340	0	32854	32806	
341	0	32844	32816	
342	0	32798	32738	
343	0	32806	32744	
344	0	32768	32756	
345	0	32762	32775	
346	0	32814	32726	
347	0	32880	32772	
348	0	32730	32806	
349	0	32786	32854	
350	0	32812	32647	
351	0	32790	32760	
352	0	32808	32756	
353	0	32852	32830	
354	0	32804	32840	
355	0	32796	32632	
356	0	32804	32773	
357	0	32802	32760	
358	0	32804	32774	
359	0	32868	32858	
360	0	32844	32682	
361	0	32848	32719	
362	0	32880	32798	
363	0	32848	32742	
364	0	32864	32802	
365	0	32826	32791	
366	0	32816	32758	
367	0	32788	32646	
368	0	32768	32839	
369	0	32800	32752	
370	0	32780	32758	
371	0	32804	32735	
372	0	32836	32640	
373	0	32780	32775	
374	0	32788	32775	
375	0	32764	32771	
376	0	32812	32700	
377	0	32776	32879	
378	0	32776	32803	
379	0	32830	32796	
380	0	32772	32660	
381	0	32768	32730	
382	0	32816	32815	
383	0	32776	32760	
384	0	32780	32844	
385	0	32908	32900	
386	0	32912	32644	
387	0	32816	32710	
388	0	32832	32801	
389	0	32816	32750	
390	0	32872	32800	
391	0	32776	32682	
392	0	32788	32789	
393	0	32826	32766	
394	0	32856	32814	
395	0	32788	32871	
396	0	32830	32699	
397	0	32812	32820	
398	0	32780	32783	
399	0	32816	32775	
400	0	32854	32775	
401	0	32804	32692	
402	0	32834	32818	
403	0	32816	32775	
404	0	32752	32727	
405	0	32796	32832	
406	0	32800	32859	
407	0	32822	32802	
408	0	32812	32745	
409	0	32800	32834	
410	0	32820	32802	
411	0	32816	32844	
412	0	32798	32832	
413	0	32744	32775	
414	0	32794	32812	
415	0	32810	32749	
416	0	32804	32656	
417	0	32800	32800	
418	0	32820	32820	
419	0	32848	32772	
420	0	32856	32790	
421	0	32836	32862	
422	0	32801	32676	
423	0	32836	32671	
424	0	32728	32760	
425	0	32796	32774	
426	0	32826	32793	
427	0	32810	32768	
428	0	32894	32764	
429	0	32788	32692	
430	0	32900	32703	
431	0	32932	32839	
432	0	32788	32770	
433	0	32778	32750	
434	0	32868	32832	
435	0	32834	32704	
436	0	32748	32757	
437	0	32768	32875	
438	0	32772	32710	
439	0	32860	32807	
440	0	32824	32831	
441	0	32834	32724	
442	0	32808	32756	
443	0	32860	32746	
444	0	32796	32766	
445	0	32794	32808	
446	0	32828	32772	
447	0	32794	32696	
448	0	32824	32800	
449	0	32832	32746	
450	0	32788	32678	
451	0	32812	32700	
452	0	32788	32775	
453	0	32812	32743	
454	0	32808	32862	
455	0	32894	32658	
456	0	32872	32694	
457	0	32810	32864	
458	0	32816	32760	
459	0	32772	32800	
460	0	32828	32828	
461	0	32785	32616	
462	0	32774	32844	
463	0	32814	32838	
464	0	32888	32744	
465	0	32856	32849	
466	0	32766	32711	
467	0	32832	32657	
468	0	32828	32728	
469	0	32788	32846	
470	0	32812	32871	
471	0	32792	32804	
472	0	32812	32849	
473	0	32822	32698	
474	0	32814	32702	
475	0	32744	32834	
476	0	32760	32774	
477	0	32878	32775	
478	0	32780	32686	
479	0	32828	32704	
480	0	32812	32796	
481	0	32888	32858	
482	0	32836	32758	
483	0	32833	32712	
484	0	32748	32742	
485	0	32806	32832	
486	0	32854	32772	
487	0	32806	32792	
488	0	32756	32850	
489	0	32774	32716	
490	0	32824	32678	
491	0	32800	32820	
492	0	32828	32812	
493	0	32834	32767	
494	0	32830	32796	
495	0	32742	32748	
496	0	32822	32774	
497	0	32810	32820	
498	0	32782	32801	
499	0	32826	32871	
500	0	32830	32786	
501	0	32756	32717	
502	0	32794	32670	
503	0	32802	32734	
504	0	32804	32720	
505	0	32782	32741	
506	0	32872	32767	
507	0	32802	32732	
508	0	32820	32796	
509	0	32814	32848	
510	0	32784	32732	
511	0	32800	32660	
512	0	32808	32756	
513	0	32808	32848	
514	0	32868	32774	
515	0	32864	32728	
516	0	32780	32738	
517	0	32860	32926	
518	0	32878	32852	
519	0	32836	32751	
520	0	32848	32692	
521	0	32870	32702	
522	0	32834	32742	
523	0	32786	32764	
524	0	32780	32772	
525	0	32760	32770	
526	0	32820	32832	
527	0	32824	32738	
528	0	32784	32755	
529	0	32820	32692	
530	0	32800	32820	
531	0	32816	32706	
532	0	32844	32870	
533	0	32720	32844	
534	0	32872	32675	
535	0	32794	32788	
536	0	32852	32660	
537	0	32862	32820	
538	0	32808	32775	
539	0	32742	32722	
540	0	32824	32750	
541	0	32848	32633	
542	0	32776	32862	
543	0	32852	32794	
544	0	32812	32848	
545	0	32792	32840	
546	0	32820	32766	
547	0	32682	32794	
548	0	32858	32744	
549	0	32824	32750	
550	0	32772	32712	
551	0	32812	32764	
552	0	32758	32694	
553	0	32796	32742	
554	0	32784	32770	
555	0	32926	32807	
556	0	32748	32824	
557	0	32788	32756	
558	0	32798	32775	
559	0	32808	32712	
560	0	32816	32748	
561	0	32764	32710	
562	0	32876	32884	
563	0	32840	32804	
564	0	32852	32772	
565	0	32820	32740	
566	0	32882	32806	
567	0	32784	32818	
568	0	32870	32807	
569	0	32760	32672	
570	0	32836	32824	
571	0	32870	32784	
572	0	32800	32639	
573	0	32858	32774	
574	0	32856	32704	
575	0	32784	32775	
576	0	32752	32768	
577	0	32824	32734	
578	0	32756	32680	
579	0	32778	32708	
580	0	32784	32882	
581	0	32802	32884	
582	0	32808	32854	
583	0	32800	32887	
584	0	32838	32690	
585	0	32776	32692	
586	0	32846	32766	
587	0	32816	32775	
588	0	32824	32818	
589	0	32780	32700	
590	0	32764	32775	
591	0	32838	32642	
592	0	32852	32802	
593	0	32788	32772	
594	0	32908	32846	
595	0	32796	32734	
596	0	32784	32815	
597	0	32800	32919	
598	0	32800	32736	
599	0	32804	32766	
600	0	32820	32705	
601	0	32798	32804	
602	0	32744	32720	
603	0	32876	32798	
604	0	32777	32668	
605	0	32868	32724	
606	0	32818	32615	
607	0	32834	32762	
608	0	32850	32724	
609	0	32822	32820	
610	0	32758	32830	
611	0	32796	32680	
612	0	32880	32734	
613	0	32856	32680	
614	0	32824	32847	
615	0	32804	32638	
616	0	32792	32775	
617	0	32840	32774	
618	0	32808	32748	
619	0	32864	32740	
620	0	32824	32849	
621	0	32794	32716	
622	0	32820	32788	
623	0	32816	32752	
624	0	32792	32775	
625	0	32798	32708	
626	0	32792	32730	
627	0	32888	32680	
628	0	32856	32750	
629	0	32825	32686	
630	0	32764	32798	
631	0	32824	32784	
632	0	32832	32796	
633	0	32776	32762	
634	0	32816	32866	
635	0	32836	32820	
636	0	32852	32812	
637	0	32752	32868	
638	0	32848	32736	
639	0	32804	32815	
640	0	32790	32742	
641	0	32824	32750	
642	0	32774	32738	
643	0	32804	32854	
644	0	32764	32686	
645	0	32764	32838	
646	0	32844	32775	
647	0	32808	32796	
648	0	32832	32808	
649	0	32824	32880	
650	0	32874	32832	
651	0	32860	32792	
652	0	32872	32920	
653	0	32898	32790	
654	0	32920	32830	
655	0	32860	32902	
656	0	32881	32794	
657	0	32784	32796	
658	0	32808	32642	
659	0	32710	32670	
660	0	32700	32498	
661	0	32684	32590	
662	0	32696	32584	
663	0	32680	32510	
664	0	32592	32438	
665	0	32712	32470	
666	0	32676	32484	
667	0	32746	32712	
668	0	32790	32716	
669	0	32784	32772	
670	0	32812	32844	
671	0	32756	32764	
672	0	32800	32756	
673	0	32808	32742	
674	0	32812	32775	
675	0	32764	32814	
676	0	32868	32844	
677	0	32844	32859	
678	0	32860	32934	
679	0	32832	32802	
680	0	32908	32944	
681	0	32846	32980	
682	0	32889	32834	
683	0	32884	32960	
684	0	32870	32820	
685	0	32832	32825	
686	0	32878	32814	
687	0	32906	32920	
688	0	32878	32775	
689	0	32822	32824	
690	0	32848	32887	
691	0	32814	32816	
692	0	32842	32736	
693	0	32756	32730	
694	0	32840	32740	
695	0	32774	32694	
696	0	32852	32758	
697	0	32812	32632	
698	0	32808	32754	
699	0	32836	32724	
700	0	32836	32800	
701	0	32792	32740	
702	0	32724	32762	
703	0	32810	32768	
704	0	32746	32836	
705	0	32760	32742	
706	0	32776	32830	
707	0	32872	32754	
708	0	32814	32810	
709	0	32786	32800	
710	0	32820	32680	
711	0	32840	32670	
712	0	32822	32679	
713	0	32804	32764	
714	0	32844	32714	
715	0	32830	32775	
716	0	32872	32794	
717	0	32824	32896	
718	0	32800	32844	
719	0	32872	32700	
720	0	32780	32770	
721	0	32792	32730	
722	0	32818	32826	
723	0	32810	32775	
724	0	32804	32814	
725	0	32792	32807	
726	0	32784	32828	
727	0	32836	32882	
728	0	32764	32676	
729	0	32804	32775	
730	0	32796	32734	
731	0	32736	32860	
732	0	32764	32756	
733	0	32780	32846	
734	0	32764	32768	
735	0	32844	32688	
736	0	32848	32756	
737	0	32772	32689	
738	0	32868	32838	
739	0	32840	32692	
740	0	32802	32837	
741	0	32852	32794	
742	0	32774	32758	
743	0	32790	32823	
744	0	32780	32694	
745	0	32822	32740	
746	0	32832	32706	
747	0	32846	32790	
748	0	32832	32757	
749	0	32876	32817	
750	0	32816	32860	
751	0	32860	32708	
752	0	32850	32774	
753	0	32784	32750	
754	0	32808	32748	
755	0	32770	32814	
756	0	32836	32790	
757	0	32748	32748	
758	0	32784	32732	
759	0	32844	32791	
760	0	32872	32838	
761	0	32824	32772	
762	0	32800	32868	
763	0	32744	32758	
764	0	32836	32834	
765	0	32796	32810	
766	0	32752	32820	
767	0	32812	32788	
768	0	32800	32734	
769	0	32868	32844	
770	0	32798	32805	
771	0	32764	32743	
772	0	32792	32710	
773	0	32852	32758	
774	0	32836	32764	
775	0	32856	32830	
776	0	32804	32708	
777	0	32840	32804	
778	0	32812	32730	
779	0	32736	32843	
780	0	32808	32730	
781	0	32780	32679	
782	0	32844	32775	
783	0	32836	32822	
784	0	32792	32775	
785	0	32796	32852	
786	0	32812	32724	
787	0	32884	32690	
788	0	32784	32844	
789	0	32846	32788	
790	0	32840	32731	
791	0	32776	32764	
792	0	32840	32686	
793	0	32824	32784	
794	0	32852	32720	
795	0	32868	32735	
796	0	32844	32775	
797	0	32832	32828	
798	0	32774	32838	
799	0	32800	32730	
800	0	32776	32786	
801	0	32742	32796	
802	0	32836	32688	
803	0	32872	32736	
804	0	32782	32816	
805	0	32844	32716	
806	0	32764	32823	
807	0	32892	32690	
808	0	32880	32846	
809	0	32804	32758	
810	0	32868	32678	
811	0	32812	32790	
812	0	32842	32795	
813	0	32888	32707	
814	0	32820	32871	
815	0	32896	32795	
816	0	32780	32756	
817	0	32814	32760	
818	0	32852	32758	
819	0	32804	32699	
820	0	32844	32751	
821	0	32815	32813	
822	0	32764	32822	
823	0	32780	32713	
824	0	32832	32836	
825	0	32804	32788	
826	0	32836	32664	
827	0	32918	32852	
828	0	32785	32828	
829	0	32752	32706	
830	0	32772	32700	
831	0	32844	32724	
832	0	32776	32857	
833	0	32756	32820	
834	0	32794	32712	
835	0	32764	32694	
836	0	32818	32690	
837	0	32844	32822	
838	0	32810	32791	
839	0	32812	32790	
840	0	32764	32772	
841	0	32824	32679	
842	0	32832	32764	
843	0	32766	32804	
844	0	32808	32703	
845	0	32866	32732	
846	0	32724	32858	
847	0	32796	32746	
848	0	32794	32794	
849	0	32836	32686	
850	0	32816	32838	
851	0	32844	32760	
852	0	32878	32684	
853	0	32838	32899	
854	0	32852	32818	
855	0	32808	32630	
856	0	32758	32834	
857	0	32776	32830	
858	0	32868	32808	
859	0	32808	32730	
860	0	32792	32658	
861	0	32832	32864	
862	0	32842	32866	
863	0	32782	32716	
864	0	32840	32740	
865	0	32766	32806	
866	0	32766	32834	
867	0	32792	32838	
868	0	32814	32724	
869	0	32848	32802	
870	0	32822	32730	
871	0	32816	32802	
872	0	32836	32772	
873	0	32842	32714	
874	0	32816	32674	
875	0	32840	32700	
876	0	32832	32734	
877	0	32816	32844	
878	0	32760	32828	
879	0	32788	32831	
880	0	32830	32762	
881	0	32806	32692	
882	0	32836	32740	
883	0	32826	32742	
884	0	32800	32802	
885	0	32816	32775	
886	0	32808	32746	
887	0	32800	32823	
888	0	32804	32818	
889	0	32826	32772	
890	0	32832	32676	
891	0	32772	32774	
892	0	32778	32740	
893	0	32840	32799	
894	0	32806	32826	
895	0	32788	32716	
896	0	32796	32775	
897	0	32772	32706	
898	0	32816	32758	
899	0	32816	32720	
900	0	32792	32788	
901	0	32776	32760	
902	0	32800	32772	
903	0	32752	32807	
904	0	32842	32628	
905	0	32842	32774	
906	0	32840	32716	
907	0	32784	32794	
908	0	32788	32682	
909	0	32802	32794	
910	0	32792	32678	
911	0	32800	32844	
912	0	32798	32738	
913	0	32816	32761	
914	0	32852	32806	
915	0	32796	32716	
916	0	32834	32852	
917	0	32792	32704	
918	0	32828	32822	
919	0	32818	32741	
920	0	32849	32884	
921	0	32878	32840	
922	0	32820	32788	
923	0	32804	32812	
924	0	32816	32642	
925	0	32774	32750	
926	0	32740	32710	
927	0	32824	32828	
928	0	32852	32806	
929	0	32880	32775	
930	0	32832	32856	
931	0	32796	32894	
932	0	32804	32743	
933	0	32838	32676	
934	0	32788	32762	
935	0	32844	32775	
936	0	32864	32788	
937	0	32812	32862	
938	0	32818	32712	
939	0	32828	32756	
940	0	32748	32750	
941	0	32820	32793	
942	0	32775	32774	
943	0	32824	32674	
944	0	32788	32811	
945	0	32850	32694	
946	0	32804	32728	
947	0	32814	32652	
948	0	32832	32766	
949	0	32892	32746	
950	0	32884	32811	
951	0	32808	32764	
952	0	32812	32654	
953	0	32852	32775	
954	0	32804	32718	
955	0	32790	32807	
956	0	32796	32792	
957	0	32820	32807	
958	0	32822	32754	
959	0	32756	32820	
960	0	32800	32714	
961	0	32808	32854	
962	0	32894	32775	
963	0	32826	32799	
964	0	32756	32624	
965	0	32818	32794	
966	0	32762	32686	
967	0	32714	32746	
968	0	32775	32785	
969	0	32804	32810	
970	0	32844	32718	
971	0	32756	32704	
972	0	32832	32716	
973	0	32832	32682	
974	0	32844	32708	
975	0	32826	32714	
976	0	32808	32740	
977	0	32820	32775	
978	0	32836	32751	
979	0	32812	32772	
980	0	32836	32660	
981	0	32824	32704	
982	0	32784	32698	
983	0	32876	32736	
984	0	32834	32740	
985	0	32836	32772	
986	0	32820	32823	
987	0	32842	32775	
988	0	32808	32775	
989	0	32840	32830	
990	0	32780	32852	
991	0	32772	32722	
992	0	32848	32840	
993	0	32808	32714	
994	0	32874	32794	
995	0	32836	32794	
996	0	32816	32732	
997	0	32756	32839	
998	0	32766	32727	
999	0	32788	32794	
1000	0	32860	32692	
1001	0	32844	32724	
1002	0	32866	32828	
1003	0	32796	32682	
1004	0	32800	32767	
1005	0	32850	32680	
1006	0	32770	32814	
1007	0	32782	32816	
1008	0	32856	32711	
1009	0	32792	32792	
1010	0	32888	32736	
1011	0	32780	32878	
1012	0	32848	32740	
1013	0	32852	32684	
1014	0	32848	32804	
1015	0	32822	32818	
1016	0	32816	32796	
1017	0	32826	32800	
1018	0	32750	32702	
1019	0	32792	32752	
1020	0	32806	32788	
1021	0	32752	32760	
1022	0	32784	32760	
1023	0	32812	32796	
1024	0	32830	32702	
1025	0	32792	32768	
1026	0	32796	32712	
1027	0	32814	32774	
1028	0	32780	32766	
1029	0	32810	32918	
1030	0	32792	32824	
1031	0	32796	32750	
1032	0	32856	32760	
1033	0	32840	32700	
1034	0	32798	32810	
1035	0	32796	32796	
1036	0	32812	32662	
1037	0	32840	32784	
1038	0	32748	32647	
1039	0	32790	32806	
1040	0	32862	32852	
1041	0	32874	32742	
1042	0	32784	32804	
1043	0	32778	32682	
1044	0	32824	32761	
1045	0	32812	32790	
1046	0	32858	32884	
1047	0	32816	32830	
1048	0	32806	32672	
1049	0	32812	32740	
1050	0	32823	32775	
1051	0	32750	32744	
1052	0	32782	32740	
1053	0	32840	32688	
1054	0	32842	32782	
1055	0	32836	32796	
1056	0	32800	32702	
1057	0	32820	32806	
1058	0	32808	32742	
1059	0	32762	32775	
1060	0	32794	32694	
1061	0	32796	32728	
1062	0	32846	32742	
1063	0	32740	32830	
1064	0	32864	32807	
1065	0	32812	32765	
1066	0	32884	32786	
1067	0	32798	32694	
1068	0	32816	32775	
1069	0	32774	32792	
1070	0	32778	32770	
1071	0	32788	32792	
1072	0	32816	32830	
1073	0	32792	32801	
1074	0	32796	32804	
1075	0	32808	32807	
1076	0	32802	32690	
1077	0	32868	32810	
1078	0	32778	32752	
1079	0	32816	32799	
1080	0	32844	32825	
1081	0	32828	32832	
1082	0	32768	32856	
1083	0	32790	32796	
1084	0	32828	32696	
1085	0	32792	32794	
1086	0	32852	32688	
1087	0	32844	32830	
1088	0	32812	32801	
1089	0	32710	32772	
1090	0	32826	32775	
1091	0	32834	32758	
1092	0	32796	32812	
1093	0	32825	32762	
1094	0	32812	32740	
1095	0	32820	32708	
1096	0	32814	32814	
1097	0	32812	32750	
1098	0	32812	32736	
1099	0	32814	32828	
1100	0	32804	32704	
1101	0	32872	32750	
1102	0	32840	32818	
1103	0	32788	32808	
1104	0	32806	32663	
1105	0	32824	32812	
1106	0	32790	32739	
1107	0	32826	32775	
1108	0	32930	32710	
1109	0	32820	32775	
1110	0	32792	32812	
1111	0	32784	32764	
1112	0	32828	32838	
1113	0	32764	32696	
1114	0	32764	32775	
1115	0	32904	32828	
1116	0	32770	32839	
1117	0	32774	32754	
1118	0	32820	32792	
1119	0	32798	32806	
1120	0	32812	32775	
1121	0	32836	32762	
1122	0	32832	32726	
1123	0	32842	32756	
1124	0	32840	32736	
1125	0	32768	32775	
1126	0	32804	32738	
1127	0	32814	32775	
1128	0	32792	32839	
1129	0	32872	32775	
1130	0	32836	32746	
1131	0	32840	32775	
1132	0	32868	32826	
1133	0	32823	32694	
1134	0	32816	32886	
1135	0	32772	32710	
1136	0	32812	32720	
1137	0	32824	32720	
1138	0	32866	32798	
1139	0	32808	32695	
1140	0	32816	32818	
1141	0	32828	32742	
1142	0	32800	32790	
1143	0	32820	32756	
1144	0	32870	32766	
1145	0	32766	32714	
1146	0	32852	32809	
1147	0	32816	32806	
1148	0	32796	32800	
1149	0	32752	32798	
1150	0	32804	32722	
1151	0	32760	32772	
1152	0	32776	32711	
1153	0	32808	32860	
1154	0	32832	32768	
1155	0	32816	32810	
1156	0	32916	32826	
1157	0	32836	32780	
1158	0	32772	32686	
1159	0	32764	32704	
1160	0	32868	32786	
1161	0	32816	32734	
1162	0	32826	32810	
1163	0	32770	32812	
1164	0	32814	32748	
1165	0	32800	32730	
1166	0	32792	32690	
1167	0	32870	32710	
1168	0	32910	32722	
1169	0	32830	32774	
1170	0	32824	32615	
1171	0	32802	32766	
1172	0	32775	32762	
1173	0	32808	32775	
1174	0	32760	32760	
1175	0	32804	32736	
1176	0	32766	32774	
1177	0	32802	32642	
1178	0	32788	32753	
1179	0	32808	32750	
1180	0	32786	32810	
1181	0	32784	32748	
1182	0	32828	32826	
1183	0	32820	32852	
1184	0	32774	32844	
1185	0	32768	32806	
1186	0	32824	32698	
1187	0	32828	32708	
1188	0	32842	32738	
1189	0	32808	32762	
1190	0	32780	32762	
1191	0	32832	32854	
1192	0	32832	32880	
1193	0	32816	32768	
1194	0	32760	32820	
1195	0	32856	32660	
1196	0	32838	32782	
1197	0	32800	32714	
1198	0	32780	32860	
1199	0	32808	32775	
1200	0	32854	32816	
1201	0	32876	32800	
1202	0	32804	32790	
1203	0	32818	32758	
1204	0	32856	32695	
1205	0	32808	32815	
1206	0	32796	32664	
1207	0	32836	32722	
1208	0	32842	32716	
1209	0	32844	32732	
1210	0	32778	32720	
1211	0	32828	32823	
1212	0	32808	32712	
1213	0	32858	32899	
1214	0	32836	32775	
1215	0	32789	32698	
1216	0	32826	32849	
1217	0	32816	32700	
1218	0	32792	32802	
1219	0	32728	32846	
1220	0	32780	32816	
1221	0	32912	32743	
1222	0	32800	32775	
1223	0	32800	32876	
1224	0	32804	32868	
1225	0	32790	32866	
1226	0	32852	32855	
1227	0	32856	32719	
1228	0	32824	32720	
1229	0	32792	32748	
1230	0	32844	32730	
1231	0	32784	32807	
1232	0	32824	32804	
1233	0	32870	32863	
1234	0	32828	32798	
1235	0	32856	32690	
1236	0	32796	32744	
1237	0	32846	32716	
1238	0	32768	32756	
1239	0	32832	32836	
1240	0	32804	32720	
1241	0	32780	32734	
1242	0	32814	32814	
1243	0	32766	32704	
1244	0	32772	32766	
1245	0	32784	32752	
1246	0	32856	32750	
1247	0	32772	32830	
1248	0	32776	32775	
1249	0	32784	32742	
1250	0	32776	32712	
1251	0	32892	32775	
1252	0	32852	32832	
1253	0	32820	32696	
1254	0	32804	32764	
1255	0	32776	32796	
1256	0	32844	32868	
1257	0	32800	32756	
1258	0	32820	32704	
1259	0	32772	32812	
1260	0	32736	32788	
1261	0	32756	32855	
1262	0	32812	32792	
1263	0	32860	32786	
1264	0	32736	32657	
1265	0	32813	32876	
1266	0	32854	32664	
1267	0	32876	32757	
1268	0	32904	32742	
1269	0	32878	32766	
1270	0	32874	32775	
1271	0	32848	32790	
1272	0	32756	32820	
1273	0	32816	32724	
1274	0	32808	32772	
1275	0	32810	32770	
1276	0	32816	32852	
1277	0	32780	32734	
1278	0	32824	32766	
1279	0	32818	32768	
1280	0	32741	32856	
1281	0	32778	32834	
1282	0	32876	32810	
1283	0	32848	32767	
1284	0	32748	32712	
1285	0	32804	32726	
1286	0	32772	32692	
1287	0	32824	32826	
1288	0	32826	32766	
1289	0	32816	32800	
1290	0	32830	32752	
1291	0	32820	32804	
1292	0	32790	32830	
1293	0	32774	32772	
1294	0	32820	32775	
1295	0	32888	32866	
1296	0	32820	32895	
1297	0	32778	32772	
1298	0	32836	32734	
1299	0	32798	32828	
1300	0	32866	32772	
1301	0	32780	32863	
1302	0	32769	32694	
1303	0	32816	32754	
1304	0	32794	32750	
1305	0	32848	32756	
1306	0	32832	32724	
1307	0	32830	32774	
1308	0	32796	32802	
1309	0	32812	32842	
1310	0	32804	32846	
1311	0	32832	32903	
1312	0	32804	32838	
1313	0	32844	32903	
1314	0	32806	32868	
1315	0	32850	32804	
1316	0	32724	32774	
1317	0	32764	32842	
1318	0	32820	32794	
1319	0	32834	32668	
1320	0	32868	32828	
1321	0	32834	32716	
1322	0	32826	32798	
1323	0	32832	32674	
1324	0	32788	32798	
1325	0	32814	32714	
1326	0	32788	32772	
1327	0	32814	32775	
1328	0	32912	32911	
1329	0	32924	32764	
1330	0	32914	32868	
1331	0	32868	32770	
1332	0	32840	32930	
1333	0	32856	32798	
1334	0	32830	32898	
1335	0	32800	32918	
1336	0	32752	32750	
1337	0	32776	32752	
1338	0	32776	32640	
1339	0	32638	32478	
1340	0	32712	32636	
1341	0	32684	32519	
1342	0	32708	32532	
1343	0	32656	32476	
1344	0	32616	32506	
1345	0	32660	32498	
1346	0	32712	32586	
1347	0	32836	32716	
1348	0	32802	32760	
1349	0	32794	32824	
1350	0	32842	32815	
1351	0	32804	32743	
1352	0	32878	32842	
1353	0	32784	32774	
1354	0	32828	32816	
1355	0	32824	32846	
1356	0	32922	32942	
1357	0	32792	32892	
1358	0	32852	32935	
1359	0	32944	32975	
1360	0	32896	32884	
1361	0	32872	32807	
1362	0	32892	32852	
1363	0	32860	32874	
1364	0	32844	32812	
1365	0	32862	32848	
1366	0	32886	32860	
1367	0	32836	32724	
1368	0	32822	32756	
1369	0	32888	32766	
1370	0	32784	32780	
1371	0	32852	32775	
1372	0	32844	32799	
1373	0	32780	32828	
1374	0	32856	32708	
1375	0	32812	32710	
1376	0	32776	32678	
1377	0	32792	32808	
1378	0	32804	32694	
1379	0	32800	32796	
1380	0	32788	32790	
1381	0	32756	32640	
1382	0	32824	32730	
1383	0	32788	32774	
1384	0	32774	32836	
1385	0	32804	32913	
1386	0	32830	32772	
1387	0	32764	32760	
1388	0	32794	32646	
1389	0	32764	32844	
1390	0	32874	32655	
1391	0	32834	32778	
1392	0	32800	32794	
1393	0	32832	32842	
1394	0	32858	32814	
1395	0	32820	32696	
1396	0	32728	32766	
1397	0	32780	32751	
1398	0	32792	32786	
1399	0	32800	32695	
1400	0	32836	32806	
1401	0	32844	32666	
1402	0	32824	32743	
1403	0	32832	32660	
1404	0	32816	32804	
1405	0	32840	32708	
1406	0	32800	32798	
1407	0	32804	32698	
1408	0	32782	32720	
1409	0	32844	32692	
1410	0	32808	32775	
1411	0	32790	32720	
1412	0	32812	32769	
1413	0	32874	32703	
1414	0	32784	32806	
1415	0	32832	32688	
1416	0	32836	32818	
1417	0	32772	32678	
1418	0	32784	32743	
1419	0	32786	32714	
1420	0	32808	32760	
1421	0	32774	32704	
1422	0	32840	32895	
1423	0	32812	32775	
1424	0	32848	32775	
1425	0	32774	32798	
1426	0	32816	32838	
1427	0	32832	32848	
1428	0	32852	32734	
1429	0	32836	32704	
1430	0	32782	32744	
1431	0	32874	32705	
1432	0	32788	32775	
1433	0	32760	32679	
1434	0	32840	32746	
1435	0	32808	32772	
1436	0	32864	32852	
1437	0	32834	32775	
1438	0	32824	32716	
1439	0	32832	32794	
1440	0	32764	32744	
1441	0	32826	32748	
1442	0	32760	32736	
1443	0	32828	32784	
1444	0	32808	32726	
1445	0	32812	32830	
1446	0	32822	32711	
1447	0	32806	32809	
1448	0	32812	32792	
1449	0	32832	32764	
1450	0	32824	32764	
1451	0	32746	32686	
1452	0	32864	32736	
1453	0	32872	32770	
1454	0	32776	32700	
1455	0	32836	32896	
1456	0	32796	32817	
1457	0	32850	32775	
1458	0	32830	32806	
1459	0	32868	32788	
1460	0	32814	32775	
1461	0	32820	32822	
1462	0	32828	32832	
1463	0	32782	32803	
1464	0	32832	32838	
1465	0	32796	32836	
1466	0	32808	32712	
1467	0	32796	32775	
1468	0	32852	32724	
1469	0	32794	32750	
1470	0	32814	32660	
1471	0	32814	32710	
1472	0	32792	32746	
1473	0	32772	32796	
1474	0	32836	32794	
1475	0	32824	32834	
1476	0	32772	32746	
1477	0	32856	32814	
1478	0	32762	32748	
1479	0	32816	32772	
1480	0	32840	32708	
1481	0	32802	32774	
1482	0	32800	32759	
1483	0	32814	32871	
1484	0	32832	32792	
1485	0	32785	32794	
1486	0	32844	32812	
1487	0	32868	32844	
1488	0	32824	32834	
1489	0	32826	32774	
1490	0	32820	32764	
1491	0	32784	32718	
1492	0	32788	32876	
1493	0	32824	32724	
1494	0	32768	32754	
1495	0	32842	32686	
1496	0	32840	32796	
1497	0	32764	32750	
1498	0	32794	32896	
1499	0	32816	32936	
1500	0	32834	32687	
1501	0	32764	32791	
1502	0	32832	32675	
1503	0	32840	32840	
1504	0	32824	32690	
1505	0	32772	32816	
1506	0	32816	32670	
1507	0	32808	32764	
1508	0	32764	32674	
1509	0	32828	32802	
1510	0	32784	32796	
1511	0	32864	32845	
1512	0	32808	32683	
1513	0	32792	32834	
1514	0	32816	32666	
1515	0	32834	32756	
1516	0	32748	32612	
1517	0	32838	32766	
1518	0	32758	32772	
1519	0	32824	32830	
1520	0	32802	32758	
1521	0	32808	32712	
1522	0	32840	32807	
1523	0	32832	32766	
1524	0	32834	32842	
1525	0	32775	32762	
1526	0	32750	32856	
1527	0	32820	32820	
1528	0	32776	32719	
1529	0	32764	32775	
1530	0	32832	32775	
1531	0	32792	32702	
1532	0	32869	32824	
1533	0	32792	32767	
1534	0	32786	32740	
1535	0	32828	32766	
1536	0	32810	32695	
1537	0	32812	32750	
1538	0	32760	32722	
1539	0	32800	32825	
1540	0	32858	32762	
1541	0	32856	32802	
1542	0	32804	32840	
1543	0	32840	32760	
1544	0	32834	32807	
1545	0	32808	32742	
1546	0	32788	32852	
1547	0	32784	32817	
1548	0	32844	32710	
1549	0	32828	32788	
1550	0	32832	32872	
1551	0	32788	32802	
1552	0	32842	32840	
1553	0	32840	32826	
1554	0	32870	32807	
1555	0	32852	32712	
1556	0	32794	32774	
1557	0	32796	32714	
1558	0	32766	32796	
1559	0	32782	32721	
1560	0	32826	32812	
1561	0	32820	32742	
1562	0	32834	32846	
1563	0	32756	32793	
1564	0	32744	32620	
1565	0	32796	32794	
1566	0	32848	32742	
1567	0	32848	32784	
1568	0	32848	32742	
1569	0	32774	32737	
1570	0	32778	32636	
1571	0	32828	32794	
1572	0	32842	32812	
1573	0	32844	32726	
1574	0	32868	32798	
1575	0	32764	32807	
1576	0	32840	32770	
1577	0	32828	32775	
1578	0	32792	32868	
1579	0	32792	32687	
1580	0	32804	32820	
1581	0	32772	32676	
1582	0	32852	32775	
1583	0	32776	32711	
1584	0	32724	32748	
1585	0	32792	32688	
1586	0	32770	32784	
1587	0	32804	32774	
1588	0	32738	32850	
1589	0	32856	32862	
1590	0	32760	32660	
1591	0	32792	32722	
1592	0	32788	32644	
1593	0	32876	32756	
1594	0	32806	32840	
1595	0	32808	32852	
1596	0	32804	32694	
1597	0	32832	32691	
1598	0	32840	32772	
1599	0	32794	32766	
1600	0	32794	32871	
1601	0	32758	32743	
1602	0	32824	32670	
1603	0	32856	32807	
1604	0	32872	32704	
1605	0	32816	32815	
1606	0	32756	32722	
1607	0	32884	32852	
1608	0	32786	32748	
1609	0	32820	32718	
1610	0	32804	32708	
1611	0	32756	32720	
1612	0	32804	32820	
1613	0	32836	32862	
1614	0	32808	32743	
1615	0	32820	32854	
1616	0	32808	32844	
1617	0	32804	32728	
1618	0	32792	32774	
1619	0	32752	32652	
1620	0	32844	32735	
1621	0	32810	32700	
1622	0	32808	32796	
1623	0	32810	32830	
1624	0	32808	32712	
1625	0	32824	32832	
1626	0	32786	32850	
1627	0	32786	32726	
1628	0	32740	32832	
1629	0	32786	32788	
1630	0	32808	32901	
1631	0	32832	32850	
1632	0	32780	32775	
1633	0	32840	32805	
1634	0	32748	32664	
1635	0	32828	32714	
1636	0	32848	32674	
1637	0	32840	32820	
1638	0	32796	32834	
1639	0	32836	32742	
1640	0	32794	32788	
1641	0	32804	32766	
1642	0	32818	32724	
1643	0	32802	32762	
1644	0	32852	32800	
1645	0	32840	32788	
1646	0	32800	32810	
1647	0	32772	32774	
1648	0	32856	32695	
1649	0	32808	32766	
1650	0	32776	32678	
1651	0	32804	32754	
1652	0	32824	32760	
1653	0	32836	32678	
1654	0	32794	32759	
1655	0	32804	32750	
1656	0	32840	32696	
1657	0	32782	32839	
1658	0	32836	32852	
1659	0	32802	32814	
1660	0	32852	32838	
1661	0	32776	32860	
1662	0	32798	32738	
1663	0	32806	32820	
1664	0	32832	32712	
1665	0	32832	32766	
1666	0	32784	32748	
1667	0	32824	32871	
1668	0	32808	32893	
1669	0	32868	32868	
1670	0	32888	32746	
1671	0	32816	32854	
1672	0	32772	32846	
1673	0	32844	32775	
1674	0	32820	32788	
1675	0	32780	32791	
1676	0	32816	32810	
1677	0	32788	32814	
1678	0	32826	32804	
1679	0	32808	32647	
1680	0	32784	32614	
1681	0	32864	32668	
1682	0	32804	32724	
1683	0	32872	32710	
1684	0	32804	32730	
1685	0	32800	32708	
1686	0	32826	32880	
1687	0	32826	32810	
1688	0	32788	32828	
1689	0	32852	32810	
1690	0	32784	32790	
1691	0	32836	32836	
1692	0	32812	32748	
1693	0	32736	32852	
1694	0	32824	32742	
1695	0	32876	32772	
1696	0	32809	32680	
1697	0	32798	32822	
1698	0	32782	32686	
1699	0	32714	32830	
1700	0	32856	32852	
1701	0	32816	32724	
1702	0	32836	32820	
1703	0	32896	32726	
1704	0	32808	32756	
1705	0	32808	32724	
1706	0	32836	32775	
1707	0	32800	32742	
1708	0	32864	32788	
1709	0	32804	32770	
1710	0	32740	32725	
1711	0	32856	32792	
1712	0	32768	32684	
1713	0	32752	32744	
1714	0	32872	32680	
1715	0	32852	32775	
1716	0	32816	32682	
1717	0	32824	32846	
1718	0	32810	32809	
1719	0	32788	32834	
1720	0	32778	32815	
1721	0	32848	32727	
1722	0	32804	32828	
1723	0	32866	32698	
1724	0	32804	32804	
1725	0	32792	32687	
1726	0	32774	32762	
1727	0	32856	32767	
1728	0	32796	32775	
1729	0	32736	32650	
1730	0	32764	32688	
1731	0	32804	32647	
1732	0	32744	32824	
1733	0	32848	32718	
1734	0	32820	32804	
1735	0	32888	32812	
1736	0	32844	32718	
1737	0	32750	32706	
1738	0	32836	32758	
1739	0	32856	32774	
1740	0	32898	32714	
1741	0	32844	32768	
1742	0	32760	32728	
1743	0	32782	32772	
1744	0	32740	32892	
1745	0	32828	32839	
1746	0	32786	32764	
1747	0	32810	32815	
1748	0	32820	32772	
1749	0	32776	32692	
1750	0	32820	32746	
1751	0	32848	32782	
1752	0	32804	32887	
1753	0	32790	32754	
1754	0	32740	32676	
1755	0	32846	32789	
1756	0	32808	32711	
1757	0	32780	32759	
1758	0	32864	32816	
1759	0	32838	32871	
1760	0	32810	32826	
1761	0	32826	32805	
1762	0	32806	32743	
1763	0	32814	32830	
1764	0	32804	32734	
1765	0	32806	32775	
1766	0	32838	32830	
1767	0	32774	32692	
1768	0	32832	32832	
1769	0	32860	32743	
1770	0	32826	32822	
1771	0	32836	32719	
1772	0	32836	32812	
1773	0	32808	32641	
1774	0	32748	32748	
1775	0	32768	32752	
1776	0	32828	32838	
1777	0	32824	32754	
1778	0	32804	32670	
1779	0	32782	32822	
1780	0	32732	32760	
1781	0	32844	32903	
1782	0	32774	32762	
1783	0	32810	32940	
1784	0	32838	32820	
1785	0	32806	32734	
1786	0	32804	32800	
1787	0	32760	32676	
1788	0	32802	32702	
1789	0	32794	32740	
1790	0	32804	32844	
1791	0	32802	32818	
1792	0	32808	32844	
1793	0	32804	32856	
1794	0	32886	32636	
1795	0	32830	32724	
1796	0	32840	32666	
1797	0	32788	32788	
1798	0	32804	32752	
1799	0	32768	32846	
1800	0	32810	32792	
1801	0	32838	32734	
1802	0	32756	32756	
1803	0	32840	32664	
1804	0	32802	32775	
1805	0	32824	32699	
1806	0	32844	32674	
1807	0	32812	32664	
1808	0	32856	32830	
1809	0	32838	32753	
1810	0	32876	32772	
1811	0	32840	32878	
1812	0	32800	32732	
1813	0	32760	32807	
1814	0	32804	32676	
1815	0	32824	32774	
1816	0	32816	32636	
1817	0	32724	32775	
1818	0	32804	32829	
1819	0	32856	32790	
1820	0	32752	32743	
1821	0	32812	32866	
1822	0	32796	32840	
1823	0	32786	32788	
1824	0	32838	32775	
1825	0	32888	32700	
1826	0	32782	32788	
1827	0	32832	32742	
1828	0	32748	32775	
1829	0	32792	32826	
1830	0	32814	32738	
1831	0	32844	32766	
1832	0	32816	32732	
1833	0	32826	32818	
1834	0	32748	32740	
1835	0	32770	32812	
1836	0	32840	32835	
1837	0	32796	32760	
1838	0	32808	32824	
1839	0	32764	32704	
1840	0	32800	32830	
1841	0	32796	32692	
1842	0	32828	32774	
1843	0	32874	32756	
1844	0	32900	32836	
1845	0	32848	32742	
1846	0	32868	32814	
1847	0	32836	32756	
1848	0	32820	32796	
1849	0	32818	32800	
1850	0	32836	32758	
1851	0	32808	32734	
1852	0	32788	32831	
1853	0	32828	32871	
1854	0	32872	32852	
1855	0	32792	32801	
1856	0	32772	32775	
1857	0	32832	32828	
1858	0	32796	32735	
1859	0	32808	32790	
1860	0	32772	32802	
1861	0	32792	32740	
1862	0	32816	32738	
1863	0	32814	32686	
1864	0	32800	32805	
1865	0	32850	32748	
1866	0	32836	32870	
1867	0	32820	32799	
1868	0	32820	32824	
1869	0	32826	32775	
1870	0	32800	32807	
1871	0	32852	32774	
1872	0	32832	32708	
1873	0	32796	32758	
1874	0	32800	32746	
1875	0	32736	32752	
1876	0	32890	32728	
1877	0	32892	32834	
1878	0	32834	32768	
1879	0	32812	32786	
1880	0	32796	32824	
1881	0	32796	32784	
1882	0	32808	32744	
1883	0	32796	32775	
1884	0	32792	32736	
1885	0	32848	32753	
1886	0	32804	32799	
1887	0	32816	32775	
1888	0	32912	32696	
1889	0	32816	32788	
1890	0	32760	32775	
1891	0	32800	32754	
1892	0	32772	32624	
1893	0	32868	32816	
1894	0	32804	32752	
1895	0	32836	32804	
1896	0	32814	32678	
1897	0	32792	32775	
1898	0	32792	32758	
1899	0	32800	32815	
1900	0	32802	32748	
1901	0	32790	32848	
1902	0	32844	32766	
1903	0	32800	32716	
1904	0	32808	32816	
1905	0	32862	32906	
1906	0	32800	32846	
1907	0	32864	32690	
1908	0	32752	32766	
1909	0	32840	32727	
1910	0	32788	32770	
1911	0	32814	32673	
1912	0	32832	32730	
1913	0	32748	32716	
1914	0	32840	32828	
1915	0	32814	32702	
1916	0	32778	32743	
1917	0	32840	32678	
1918	0	32808	32762	
1919	0	32864	32716	
1920	0	32792	32732	
1921	0	32824	32638	
1922	0	32796	32788	
1923	0	32812	32794	
1924	0	32811	32824	
1925	0	32804	32839	
1926	0	32800	32707	
1927	0	32842	32810	
1928	0	32864	32738	
1929	0	32808	32790	
1930	0	32876	32775	
1931	0	32788	32620	
1932	0	32792	32750	
1933	0	32838	32763	
1934	0	32770	32754	
1935	0	32840	32805	
1936	0	32836	32772	
1937	0	32796	32834	
1938	0	32826	32670	
1939	0	32840	32860	
1940	0	32868	32820	
1941	0	32734	32807	
1942	0	32804	32775	
1943	0	32788	32744	
1944	0	32792	32724	
1945	0	32748	32775	
1946	0	32874	32702	
1947	0	32832	32744	
1948	0	32776	32670	
1949	0	32816	32766	
1950	0	32764	32734	
1951	0	32800	32751	
1952	0	32792	32788	
1953	0	32844	32879	
1954	0	32850	32894	
1955	0	32790	32654	
1956	0	32844	32768	
1957	0	32752	32615	
1958	0	32796	32774	
1959	0	32866	32770	
1960	0	32906	32751	
1961	0	32780	32647	
1962	0	32814	32750	
1963	0	32758	32646	
1964	0	32852	32774	
1965	0	32840	32730	
1966	0	32836	32775	
1967	0	32796	32726	
1968	0	32824	32751	
1969	0	32814	32740	
1970	0	32778	32738	
1971	0	32788	32772	
1972	0	32788	32804	
1973	0	32820	32792	
1974	0	32836	32724	
1975	0	32784	32756	
1976	0	32844	32671	
1977	0	32764	32788	
1978	0	32820	32700	
1979	0	32776	32842	
1980	0	32800	32812	
1981	0	32760	32810	
1982	0	32820	32775	
1983	0	32822	32832	
1984	0	32784	32814	
1985	0	32788	32772	
1986	0	32810	32808	
1987	0	32796	32720	
1988	0	32784	32750	
1989	0	32784	32804	
1990	0	32842	32855	
1991	0	32788	32820	
1992	0	32824	32834	
1993	0	32848	32805	
1994	0	32816	32775	
1995	0	32872	32790	
1996	0	32806	32754	
1997	0	32802	32718	
1998	0	32792	32708	
1999	0	32832	32810	
2000	0	32810	32746	
2001	0	32832	32914	
2002	0	32844	32823	
2003	0	32838	32660	
2004	0	32866	32729	
2005	0	32790	32796	
2006	0	32832	32772	
2007	0	32836	32838	
2008	0	32842	32775	
2009	0	32884	32954	
2010	0	32870	32824	
2011	0	32916	32916	
2012	0	32848	32881	
2013	0	32872	32862	
2014	0	32802	32798	
2015	0	32808	32674	
2016	0	32626	32578	
2017	0	32672	32610	
2018	0	32666	32567	
2019	0	32732	32596	
2020	0	32748	32510	
2021	0	32568	32372	
2022	0	32656	32396	
2023	0	32644	32500	
2024	0	32772	32656	
2025	0	32790	32756	
2026	0	32794	32820	
2027	0	32836	32802	
2028	0	32824	32814	
2029	0	32844	32775	
2030	0	32784	32794	
2031	0	32832	32856	
2032	0	32844	32900	
2033	0	32844	32895	
2034	0	32864	32850	
2035	0	32912	32860	
2036	0	32926	32790	
2037	0	32888	32926	
2038	0	32912	32858	
2039	0	32856	32918	
2040	0	32908	32948	
2041	0	32912	32870	
2042	0	32822	32912	
2043	0	32846	32740	
2044	0	32860	32712	
2045	0	32828	32871	
2046	0	32848	32804	
2047	0	32848	32796	
2048	0	32792	32806	
2049	0	32824	32740	
2050	0	32864	32718	
2051	0	32750	32712	
2052	0	32792	32768	
2053	0	32846	32796	
2054	0	32800	32736	
2055	0	32808	32751	
2056	0	32816	32742	
2057	0	32814	32830	
2058	0	32768	32624	
2059	0	32756	32672	
2060	0	32798	32839	
2061	0	32840	32758	
2062	0	32804	32804	
2063	0	32820	32830	
2064	0	32766	32886	
2065	0	32842	32734	
2066	0	32824	32720	
2067	0	32768	32746	
2068	0	32775	32846	
2069	0	32872	32756	
2070	0	32768	32775	
2071	0	32800	32769	
2072	0	32808	32775	
2073	0	32828	32716	
2074	0	32832	32775	
2075	0	32808	32678	
2076	0	32816	32748	
2077	0	32768	32774	
2078	0	32852	32832	
2079	0	32776	32696	
2080	0	32858	32720	
2081	0	32824	32710	
2082	0	32824	32852	
2083	0	32838	32804	
2084	0	32824	32676	
2085	0	32762	32788	
2086	0	32832	32608	
2087	0	32808	32856	
2088	0	32842	32786	
2089	0	32900	32764	
2090	0	32816	32686	
2091	0	32784	32814	
2092	0	32798	32663	
2093	0	32824	32822	
2094	0	32784	32775	
2095	0	32814	32700	
2096	0	32832	32804	
2097	0	32848	32644	
2098	0	32768	32832	
2099	0	32820	32860	
2100	0	32868	32728	
2101	0	32828	32775	
2102	0	32804	32832	
2103	0	32776	32702	
2104	0	32772	32734	
2105	0	32828	32775	
2106	0	32775	32736	
2107	0	32785	32720	
2108	0	32762	32796	
2109	0	32864	32798	
2110	0	32828	32736	
2111	0	32860	32822	
2112	0	32860	32746	
2113	0	32824	32775	
2114	0	32804	32800	
2115	0	32784	32762	
2116	0	32788	32768	
2117	0	32840	32774	
2118	0	32832	32784	
2119	0	32740	32716	
2120	0	32832	32766	
2121	0	32820	32679	
2122	0	32788	32802	
2123	0	32778	32802	
2124	0	32798	32832	
2125	0	32772	32792	
2126	0	32848	32743	
2127	0	32788	32805	
2128	0	32799	32703	
2129	0	32772	32775	
2130	0	32856	32666	
2131	0	32850	32750	
2132	0	32840	32718	
2133	0	32778	32770	
2134	0	32820	32740	
2135	0	32816	32840	
2136	0	32816	32888	
2137	0	32860	32725	
2138	0	32746	32719	
2139	0	32848	32673	
2140	0	32824	32864	
2141	0	32834	32812	
2142	0	32802	32734	
2143	0	32764	32796	
2144	0	32820	32868	
2145	0	32862	32728	
2146	0	32828	32828	
2147	0	32840	32756	
2148	0	32824	32676	
2149	0	32840	32760	
2150	0	32868	32775	
2151	0	32798	32814	
2152	0	32836	32712	
2153	0	32794	32692	
2154	0	32804	32766	
2155	0	32828	32804	
2156	0	32830	32764	
2157	0	32712	32798	
2158	0	32834	32828	
2159	0	32884	32746	
2160	0	32830	32678	
2161	0	32804	32722	
2162	0	32774	32748	
2163	0	32774	32866	
2164	0	32820	32814	
2165	0	32794	32775	
2166	0	32808	32842	
2167	0	32831	32826	
2168	0	32804	32754	
2169	0	32894	32676	
2170	0	32836	32822	
2171	0	32808	32830	
2172	0	32828	32846	
2173	0	32768	32828	
2174	0	32734	32756	
2175	0	32852	32883	
2176	0	32848	32708	
2177	0	32774	32807	
2178	0	32836	32654	
2179	0	32844	32775	
2180	0	32764	32646	
2181	0	32844	32823	
2182	0	32860	32752	
2183	0	32816	32750	
2184	0	32830	32668	
2185	0	32804	32708	
2186	0	32748	32692	
2187	0	32812	32775	
2188	0	32836	32796	
2189	0	32856	32834	
2190	0	32824	32750	
2191	0	32832	32840	
2192	0	32864	32834	
2193	0	32788	32732	
2194	0	32832	32732	
2195	0	32800	32631	
2196	0	32804	32834	
2197	0	32774	32800	
2198	0	32868	32822	
2199	0	32806	32838	
2200	0	32792	32668	
2201	0	32864	32754	
2202	0	32764	32647	
2203	0	32856	32872	
2204	0	32862	32822	
2205	0	32849	32638	
2206	0	32834	32775	
2207	0	32756	32788	
2208	0	32808	32812	
2209	0	32768	32738	
2210	0	32872	32743	
2211	0	32798	32766	
2212	0	32796	32736	
2213	0	32804	32836	
2214	0	32836	32775	
2215	0	32740	32698	
2216	0	32820	32774	
2217	0	32870	32828	
2218	0	32792	32831	
2219	0	32844	32820	
2220	0	32732	32652	
2221	0	32810	32810	
2222	0	32748	32734	
2223	0	32792	32807	
2224	0	32810	32800	
2225	0	32762	32682	
2226	0	32832	32790	
2227	0	32836	32756	
2228	0	32852	32883	
2229	0	32770	32702	
2230	0	32768	32844	
2231	0	32812	32788	
2232	0	32836	32734	
2233	0	32832	32766	
2234	0	32872	32884	
2235	0	32808	32850	
2236	0	32816	32734	
2237	0	32830	32847	
2238	0	32800	32840	
2239	0	32858	32711	
2240	0	32804	32816	
2241	0	32784	32802	
2242	0	32824	32732	
2243	0	32792	32796	
2244	0	32802	32796	
2245	0	32780	32815	
2246	0	32794	32696	
2247	0	32832	32759	
2248	0	32804	32750	
2249	0	32874	32895	
2250	0	32772	32660	
2251	0	32788	32710	
2252	0	32828	32660	
2253	0	32756	32775	
2254	0	32752	32788	
2255	0	32772	32694	
2256	0	32800	32796	
2257	0	32848	32854	
2258	0	32834	32732	
2259	0	32838	32664	
2260	0	32836	32822	
2261	0	32854	32775	
2262	0	32804	32762	
2263	0	32816	32708	
2264	0	32756	32854	
2265	0	32788	32710	
2266	0	32792	32760	
2267	0	32828	32652	
2268	0	32890	32753	
2269	0	32804	32816	
2270	0	32786	32812	
2271	0	32826	32775	
2272	0	32804	32760	
2273	0	32832	32712	
2274	0	32864	32668	
2275	0	32844	32694	
2276	0	32808	32806	
2277	0	32894	32748	
2278	0	32794	32775	
2279	0	32844	32870	
2280	0	32740	32679	
2281	0	32832	32724	
2282	0	32858	32662	
2283	0	32714	32858	
2284	0	32776	32816	
2285	0	32824	32836	
2286	0	32820	32850	
2287	0	32836	32727	
2288	0	32844	32718	
2289	0	32784	32868	
2290	0	32802	32750	
2291	0	32878	32838	
2292	0	32780	32660	
2293	0	32852	32804	
2294	0	32784	32820	
2295	0	32762	32758	
2296	0	32820	32784	
2297	0	32830	32802	
2298	0	32864	32724	
2299	0	32860	32688	
2300	0	32852	32720	
2301	0	32790	32903	
2302	0	32778	32750	
2303	0	32810	32822	
2304	0	32900	32708	
2305	0	32796	32638	
2306	0	32783	32783	
2307	0	32820	32767	
2308	0	32778	32808	
2309	0	32828	32710	
2310	0	32808	32708	
2311	0	32792	32807	
2312	0	32824	32750	
2313	0	32816	32756	
2314	0	32828	32678	
2315	0	32816	32706	
2316	0	32768	32775	
2317	0	32830	32642	
2318	0	32796	32750	
2319	0	32864	32710	
2320	0	32816	32742	
2321	0	32808	32830	
2322	0	32844	32820	
2323	0	32800	32772	
2324	0	32844	32852	
2325	0	32812	32724	
2326	0	32802	32758	
2327	0	32776	32880	
2328	0	32828	32840	
2329	0	32876	32891	
2330	0	32824	32740	
2331	0	32794	32748	
2332	0	32796	32718	
2333	0	32848	32746	
2334	0	32756	32782	
2335	0	32738	32769	
2336	0	32808	32805	
2337	0	32780	32775	
2338	0	32826	32720	
2339	0	32816	32796	
2340	0	32866	32774	
2341	0	32770	32822	
2342	0	32788	32791	
2343	0	32878	32824	
2344	0	32862	32854	
2345	0	32804	32838	
2346	0	32820	32775	
2347	0	32832	32684	
2348	0	32780	32804	
2349	0	32824	32718	
2350	0	32774	32824	
2351	0	32862	32796	
2352	0	32862	32728	
2353	0	32808	32770	
2354	0	32760	32775	
2355	0	32780	32652	
2356	0	32842	32822	
2357	0	32800	32800	
2358	0	32824	32746	
2359	0	32778	32839	
2360	0	32844	32774	
2361	0	32768	32692	
2362	0	32808	32854	
2363	0	32824	32696	
2364	0	32824	32786	
2365	0	32734	32682	
2366	0	32848	32774	
2367	0	32848	32700	
2368	0	32860	32802	
2369	0	32832	32811	
2370	0	32780	32831	
2371	0	32824	32900	
2372	0	32849	32706	
2373	0	32846	32711	
2374	0	32836	32702	
2375	0	32848	32870	
2376	0	32832	32836	
2377	0	32740	32746	
2378	0	32774	32794	
2379	0	32800	32738	
2380	0	32788	32771	
2381	0	32842	32791	
2382	0	32832	32758	
2383	0	32794	32856	
2384	0	32786	32719	
2385	0	32832	32775	
2386	0	32840	32762	
2387	0	32784	32732	
2388	0	32814	32804	
2389	0	32800	32686	
2390	0	32860	32843	
2391	0	32816	32760	
2392	0	32800	32692	
2393	0	32832	32759	
2394	0	32856	32690	
2395	0	32775	32823	
2396	0	32774	32808	
2397	0	32758	32664	
2398	0	32796	32804	
2399	0	32828	32846	
2400	0	32812	32670	
2401	0	32828	32792	
2402	0	32838	32694	
2403	0	32874	32722	
2404	0	32774	32857	
2405	0	32768	32708	
2406	0	32788	32744	
2407	0	32832	32702	
2408	0	32864	32834	
2409	0	32808	32852	
2410	0	32800	32712	
2411	0	32842	32716	
2412	0	32736	32780	
2413	0	32788	32746	
2414	0	32812	32782	
2415	0	32816	32820	
2416	0	32786	32879	
2417	0	32800	32718	
2418	0	32888	32806	
2419	0	32864	32832	
2420	0	32812	32860	
2421	0	32832	32774	
2422	0	32788	32744	
2423	0	32808	32770	
2424	0	32872	32775	
2425	0	32784	32770	
2426	0	32846	32678	
2427	0	32800	32758	
2428	0	32862	32775	
2429	0	32804	32722	
2430	0	32774	32830	
2431	0	32736	32754	
2432	0	32724	32729	
2433	0	32804	32732	
2434	0	32830	32807	
2435	0	32784	32740	
2436	0	32920	32832	
2437	0	32782	32814	
2438	0	32752	32711	
2439	0	32812	32756	
2440	0	32862	32792	
2441	0	32780	32806	
2442	0	32796	32724	
2443	0	32840	32850	
2444	0	32800	32804	
2445	0	32828	32724	
2446	0	32804	32860	
2447	0	32828	32646	
2448	0	32792	32880	
2449	0	32834	32656	
2450	0	32808	32760	
2451	0	32836	32624	
2452	0	32772	32775	
2453	0	32760	32668	
2454	0	32809	32742	
2455	0	32812	32740	
2456	0	32780	32794	
2457	0	32778	32644	
2458	0	32792	32820	
2459	0	32800	32814	
2460	0	32928	32734	
2461	0	32834	32836	
2462	0	32858	32742	
2463	0	32778	32824	
2464	0	32824	32903	
2465	0	32830	32756	
2466	0	32860	32788	
2467	0	32778	32654	
2468	0	32796	32784	
2469	0	32786	32682	
2470	0	32812	32822	
2471	0	32792	32766	
2472	0	32774	32768	
2473	0	32824	32716	
2474	0	32796	32775	
2475	0	32768	32738	
2476	0	32838	32762	
2477	0	32768	32830	
2478	0	32868	32826	
2479	0	32842	32644	
2480	0	32844	32774	
2481	0	32794	32732	
2482	0	32808	32774	
2483	0	32824	32716	
2484	0	32874	32862	
2485	0	32756	32834	
2486	0	32770	32708	
2487	0	32776	32750	
2488	0	32800	32718	
2489	0	32788	32749	
2490	0	32882	32752	
2491	0	32904	32820	
2492	0	32840	32807	
2493	0	32828	32730	
2494	0	32842	32790	
2495	0	32896	32740	
2496	0	32784	32764	
2497	0	32810	32724	
2498	0	32828	32811	
2499	0	32772	32800	
2500	0	32784	32775	
2501	0	32822	32846	
2502	0	32802	32660	
2503	0	32726	32726	
2504	0	32796	32864	
2505	0	32868	32734	
2506	0	32820	32732	
2507	0	32884	32762	
2508	0	32900	32806	
2509	0	32808	32764	
2510	0	32800	32750	
2511	0	32800	32756	
2512	0	32800	32775	
2513	0	32810	32770	
2514	0	32778	32790	
2515	0	32832	32835	
2516	0	32818	32660	
2517	0	32852	32722	
2518	0	32762	32842	
2519	0	32804	32756	
2520	0	32798	32874	
2521	0	32784	32673	
2522	0	32808	32814	
2523	0	32810	32826	
2524	0	32796	32900	
2525	0	32846	32742	
2526	0	32802	32775	
2527	0	32776	32716	
2528	0	32844	32822	
2529	0	32760	32710	
2530	0	32784	32746	
2531	0	32790	32756	
2532	0	32772	32798	
2533	0	32788	32688	
2534	0	32788	32820	
2535	0	32884	32775	
2536	0	32796	32775	
2537	0	32768	32692	
2538	0	32848	32806	
2539	0	32792	32735	
2540	0	32806	32818	
2541	0	32816	32702	
2542	0	32854	32675	
2543	0	32854	32878	
2544	0	32834	32819	
2545	0	32868	32796	
2546	0	32804	32852	
2547	0	32785	32712	
2548	0	32824	32751	
2549	0	32842	32735	
2550	0	32830	32753	
2551	0	32812	32711	
2552	0	32756	32766	
2553	0	32816	32812	
2554	0	32822	32836	
2555	0	32810	32687	
2556	0	32753	32736	
2557	0	32810	32854	
2558	0	32804	32744	
2559	0	32816	32804	
2560	0	32850	32875	
2561	0	32830	32791	
2562	0	32864	32694	
2563	0	32810	32761	
2564	0	32848	32866	
2565	0	32774	32698	
2566	0	32850	32775	
2567	0	32788	32751	
2568	0	32834	32683	
2569	0	32808	32792	
2570	0	32784	32830	
2571	0	32850	32800	
2572	0	32784	32670	
2573	0	32792	32709	
2574	0	32856	32784	
2575	0	32832	32822	
2576	0	32746	32680	
2577	0	32864	32760	
2578	0	32776	32806	
2579	0	32824	32664	
2580	0	32804	32711	
2581	0	32804	32700	
2582	0	32784	32726	
2583	0	32816	32828	
2584	0	32850	32762	
2585	0	32780	32825	
2586	0	32780	32858	
2587	0	32756	32708	
2588	0	32841	32748	
2589	0	32808	32854	
2590	0	32792	32789	
2591	0	32868	32838	
2592	0	32808	32682	
2593	0	32796	32738	
2594	0	32848	32786	
2595	0	32864	32828	
2596	0	32764	32620	
2597	0	32844	32688	
2598	0	32794	32775	
2599	0	32774	32864	
2600	0	32820	32728	
2601	0	32838	32839	
2602	0	32852	32660	
2603	0	32750	32727	
2604	0	32760	32798	
2605	0	32800	32775	
2606	0	32824	32732	
2607	0	32872	32751	
2608	0	32846	32771	
2609	0	32794	32748	
2610	0	32780	32752	
2611	0	32856	32846	
2612	0	32824	32830	
2613	0	32876	32808	
2614	0	32838	32800	
2615	0	32804	32862	
2616	0	32760	32726	
2617	0	32828	32724	
2618	0	32778	32712	
2619	0	32820	32784	
2620	0	32840	32770	
2621	0	32800	32790	
2622	0	32860	32756	
2623	0	32780	32736	
2624	0	32856	32820	
2625	0	32820	32804	
2626	0	32792	32712	
2627	0	32840	32742	
2628	0	32820	32808	
2629	0	32800	32770	
2630	0	32753	32831	
2631	0	32888	32744	
2632	0	32828	32796	
2633	0	32808	32804	
2634	0	32806	32702	
2635	0	32864	32689	
2636	0	32778	32684	
2637	0	32808	32704	
2638	0	32817	32764	
2639	0	32838	32820	
2640	0	32806	32770	
2641	0	32788	32775	
2642	0	32828	32794	
2643	0	32796	32772	
2644	0	32788	32708	
2645	0	32876	32710	
2646	0	32852	32700	
2647	0	32808	32664	
2648	0	32816	32740	
2649	0	32776	32720	
2650	0	32802	32851	
2651	0	32848	32799	
2652	0	32816	32742	
2653	0	32785	32807	
2654	0	32836	32798	
2655	0	32796	32766	
2656	0	32858	32792	
2657	0	32812	32762	
2658	0	32784	32740	
2659	0	32808	32692	
2660	0	32884	32798	
2661	0	32796	32834	
2662	0	32800	32824	
2663	0	32800	32743	
2664	0	32772	32775	
2665	0	32822	32903	
2666	0	32852	32708	
2667	0	32828	32732	
2668	0	32790	32706	
2669	0	32852	32822	
2670	0	32800	32812	
2671	0	32828	32822	
2672	0	32806	32782	
2673	0	32872	32870	
2674	0	32814	32807	
2675	0	32860	32663	
2676	0	32780	32798	
2677	0	32892	32814	
2678	0	32836	32772	
2679	0	32856	32768	
2680	0	32808	32775	
2681	0	32822	32762	
2682	0	32836	32834	
2683	0	32706	32720	
2684	0	32810	32708	
2685	0	32770	32756	
2686	0	32756	32768	
2687	0	32766	32752	
2688	0	32900	32822	
2689	0	32884	32932	
2690	0	32770	32708	
2691	0	32752	32766	
2692	0	32792	32732	
2693	0	32862	32846	
2694	0	32830	32858	
2695	0	32856	32856	
2696	0	32928	32940	
2697	0	32864	32852	
2698	0	32846	32737	
2699	0	32916	32806	
2700	0	32848	32688	
2701	0	32842	32736	
2702	0	32774	32740	
2703	0	32696	32546	
2704	0	32606	32443	
2705	0	32712	32582	
2706	0	32688	32586	
2707	0	32692	32484	
2708	0	32610	32512	
2709	0	32612	32503	
2710	0	32740	32641	
2711	0	32716	32628	
2712	0	32810	32642	
2713	0	32844	32736	
2714	0	32844	32812	
2715	0	32824	32876	
2716	0	32792	32910	
2717	0	32828	32800	
2718	0	32870	32878	
2719	0	32792	32814	
2720	0	32860	32974	
2721	0	32950	32990	
2722	0	32856	32764	
2723	0	32956	32842	
2724	0	32806	32890	
2725	0	32904	32943	
2726	0	32900	32866	
2727	0	32896	32918	
2728	0	32892	32790	
2729	0	32936	32790	
2730	0	32806	32868	
2731	0	32840	32879	
2732	0	32888	32703	
2733	0	32824	32774	
2734	0	32898	32674	
2735	0	32808	32743	
2736	0	32844	32807	
2737	0	32778	32710	
2738	0	32776	32722	
2739	0	32736	32722	
2740	0	32810	32788	
2741	0	32896	32746	
2742	0	32768	32794	
2743	0	32784	32848	
2744	0	32734	32674	
2745	0	32796	32868	
2746	0	32808	32674	
2747	0	32812	32764	
2748	0	32820	32766	
2749	0	32788	32766	
2750	0	32820	32839	
2751	0	32768	32748	
2752	0	32808	32702	
2753	0	32788	32698	
2754	0	32796	32734	
2755	0	32742	32686	
2756	0	32768	32902	
2757	0	32896	32775	
2758	0	32836	32716	
2759	0	32816	32852	
2760	0	32768	32700	
2761	0	32760	32804	
2762	0	32824	32775	
2763	0	32792	32798	
2764	0	32770	32792	
2765	0	32828	32803	
2766	0	32812	32714	
2767	0	32820	32747	
2768	0	32768	32759	
2769	0	32824	32676	
2770	0	32768	32740	
2771	0	32822	32708	
2772	0	32822	32790	
2773	0	32780	32751	
2774	0	32794	32698	
2775	0	32778	32760	
2776	0	32794	32714	
2777	0	32840	32896	
2778	0	32788	32866	
2779	0	32802	32707	
2780	0	32834	32762	
2781	0	32780	32734	
2782	0	32832	32860	
2783	0	32810	32804	
2784	0	32736	32834	
2785	0	32758	32828	
2786	0	32836	32844	
2787	0	32782	32836	
2788	0	32780	32842	
2789	0	32800	32834	
2790	0	32842	32706	
2791	0	32868	32774	
2792	0	32800	32703	
2793	0	32824	32820	
2794	0	32786	32748	
2795	0	32824	32794	
2796	0	32804	32775	
2797	0	32852	32670	
2798	0	32868	32804	
2799	0	32776	32644	
2800	0	32774	32767	
2801	0	32844	32820	
2802	0	32858	32686	
2803	0	32792	32796	
2804	0	32904	32832	
2805	0	32820	32910	
2806	0	32756	32804	
2807	0	32846	32695	
2808	0	32820	32825	
2809	0	32744	32792	
2810	0	32810	32736	
2811	0	32812	32839	
2812	0	32772	32656	
2813	0	32788	32724	
2814	0	32836	32654	
2815	0	32794	32784	
2816	0	32802	32775	
2817	0	32816	32641	
2818	0	32844	32824	
2819	0	32842	32804	
2820	0	32816	32750	
2821	0	32800	32872	
2822	0	32816	32750	
2823	0	32848	32834	
2824	0	32872	32770	
2825	0	32870	32804	
2826	0	32770	32848	
2827	0	32794	32920	
2828	0	32878	32775	
2829	0	32832	32714	
2830	0	32876	32770	
2831	0	32884	32775	
2832	0	32864	32774	
2833	0	32824	32775	
2834	0	32840	32742	
2835	0	32864	32666	
2836	0	32804	32732	
2837	0	32868	32678	
2838	0	32756	32774	
2839	0	32828	32876	
2840	0	32794	32775	
2841	0	32684	32818	
2842	0	32720	32660	
2843	0	32754	32806	
2844	0	32740	32766	
2845	0	32798	32764	
2846	0	32844	32799	
2847	0	32804	32701	
2848	0	32764	32768	
2849	0	32814	32660	
2850	0	32880	32740	
2851	0	32856	32679	
2852	0	32836	32788	
2853	0	32808	32766	
2854	0	32760	32836	
2855	0	32838	32816	
2856	0	32736	32871	
2857	0	32780	32792	
2858	0	32834	32670	
2859	0	32860	32820	
2860	0	32848	32646	
2861	0	32776	32746	
2862	0	32776	32704	
2863	0	32878	32812	
2864	0	32802	32694	
2865	0	32832	32814	
2866	0	32816	32802	
2867	0	32810	32914	
2868	0	32784	32746	
2869	0	32824	32702	
2870	0	32800	32816	
2871	0	32764	32828	
2872	0	32812	32714	
2873	0	32822	32800	
2874	0	32810	32756	
2875	0	32786	32734	
2876	0	32796	32774	
2877	0	32770	32746	
2878	0	32794	32743	
2879	0	32752	32838	
2880	0	32848	32679	
2881	0	32810	32758	
2882	0	32784	32832	
2883	0	32800	32718	
2884	0	32766	32768	
2885	0	32826	32820	
2886	0	32804	32748	
2887	0	32878	32770	
2888	0	32812	32680	
2889	0	32832	32860	
2890	0	32856	32824	
2891	0	32840	32768	
2892	0	32840	32844	
2893	0	32824	32663	
2894	0	32838	32866	
2895	0	32848	32838	
2896	0	32858	32839	
2897	0	32810	32710	
2898	0	32798	32703	
2899	0	32828	32708	
2900	0	32748	32798	
2901	0	32834	32838	
2902	0	32824	32646	
2903	0	32852	32719	
2904	0	32836	32852	
2905	0	32852	32740	
2906	0	32794	32696	
2907	0	32814	32799	
2908	0	32832	32660	
2909	0	32804	32818	
2910	0	32794	32807	
2911	0	32844	32852	
2912	0	32788	32696	
2913	0	32776	32668	
2914	0	32766	32676	
2915	0	32864	32775	
2916	0	32834	32804	
2917	0	32846	32824	
2918	0	32806	32860	
2919	0	32852	32727	
2920	0	32764	32652	
2921	0	32804	32680	
2922	0	32830	32814	
2923	0	32824	32812	
2924	0	32860	32786	
2925	0	32824	32856	
2926	0	32876	32684	
2927	0	32856	32764	
2928	0	32840	32816	
2929	0	32780	32743	
2930	0	32860	32839	
2931	0	32812	32740	
2932	0	32856	32686	
2933	0	32804	32748	
2934	0	32764	32772	
2935	0	32710	32727	
2936	0	32744	32716	
2937	0	32732	32660	
2938	0	32716	32654	
2939	0	32784	32774	
2940	0	32712	32724	
2941	0	32776	32808	
2942	0	32818	32876	
2943	0	32826	32839	
2944	0	32876	32674	
2945	0	32852	32839	
2946	0	32888	32902	
2947	0	32876	32772	
2948	0	32872	32775	
2949	0	32828	32820	
2950	0	32842	32692	
2951	0	32834	32612	
2952	0	32788	32644	
2953	0	32838	32702	
2954	0	32808	32724	
2955	0	32852	32775	
2956	0	32810	32839	
2957	0	32824	32802	
2958	0	32832	32766	
2959	0	32820	32662	
2960	0	32808	32718	
2961	0	32820	32798	
2962	0	32780	32772	
2963	0	32789	32730	
2964	0	32812	32762	
2965	0	32775	32838	
2966	0	32782	32700	
2967	0	32844	32612	
2968	0	32878	32694	
2969	0	32828	32792	
2970	0	32812	32792	
2971	0	32758	32775	
2972	0	32872	32838	
2973	0	32828	32678	
2974	0	32868	32708	
2975	0	32840	32864	
2976	0	32798	32743	
2977	0	32728	32836	
2978	0	32868	32828	
2979	0	32840	32788	
2980	0	32918	32758	
2981	0	32796	32858	
2982	0	32826	32774	
2983	0	32838	32718	
2984	0	32764	32746	
2985	0	32804	32760	
2986	0	32768	32702	
2987	0	32824	32731	
2988	0	32780	32740	
2989	0	32736	32844	
2990	0	32826	32830	
2991	0	32832	32822	
2992	0	32848	32830	
2993	0	32784	32711	
2994	0	32860	32720	
2995	0	32836	32700	
2996	0	32848	32682	
2997	0	32792	32728	
2998	0	32824	32746	
2999	0	32842	32748	
3000	0	32852	32894	
3001	0	32844	32724	
3002	0	32840	32704	
3003	0	32970	32866	
3004	0	32930	32836	
3005	0	32860	32788	
3006	0	32756	32775	
3007	0	32754	32649	
3008	0	32628	32718	
3009	0	32644	32690	
3010	0	32736	32794	
3011	0	32692	32683	
3012	0	32812	32714	
3013	0	32912	32702	
3014	0	32908	32852	
3015	0	32998	32807	
3016	0	32960	32718	
3017	0	32932	32862	
3018	0	32868	32726	
3019	0	32908	32871	
3020	0	32792	32804	
3021	0	32714	32775	
3022	0	32752	32743	
3023	0	32642	32802	
3024	0	32628	32775	
3025	0	32700	32828	
3026	0	32670	32772	
3027	0	32702	32679	
3028	0	32858	32804	
3029	0	32821	32758	
3030	0	32808	32836	
3031	0	32862	32844	
3032	0	32852	32836	
3033	0	32840	32768	
3034	0	32824	32892	
3035	0	32836	32868	
3036	0	32848	32839	
3037	0	32768	32774	
3038	0	32828	32818	
3039	0	32822	32764	
3040	0	32832	32818	
3041	0	32921	32767	
3042	0	32878	32764	
3043	0	32897	32846	
3044	0	32904	32772	
3045	0	32824	32880	
3046	0	32848	32814	
3047	0	32836	32732	
3048	0	32788	32892	
3049	0	32768	32695	
3050	0	32818	32687	
3051	0	32760	32775	
3052	0	32736	32692	
3053	0	32750	32774	
3054	0	32744	32647	
3055	0	32772	32858	
3056	0	32828	32820	
3057	0	32826	32745	
3058	0	32820	32752	
3059	0	32864	32702	
3060	0	32864	32798	
3061	0	32792	32767	
3062	0	32818	32676	
3063	0	32800	32757	
3064	0	32828	32842	
3065	0	32772	32638	
3066	0	32852	32814	
3067	0	32736	32692	
3068	0	32684	32850	
3069	0	32744	32842	
3070	0	32734	32705	
3071	0	32840	32748	
3072	0	32852	32759	
3073	0	32844	32834	
3074	0	32846	32734	
3075	0	32734	32738	
3076	0	32698	32807	
3077	0	32748	32726	
3078	0	32746	32732	
3079	0	32712	32666	
3080	0	32800	32864	
3081	0	32794	32807	
3082	0	32792	32715	
3083	0	32872	32774	
3084	0	32828	32786	
3085	0	32856	32754	
3086	0	32836	32816	
3087	0	32840	32771	
3088	0	32796	32828	
3089	0	32840	32838	
3090	0	32775	32690	
3091	0	32796	32738	
3092	0	32852	32668	
3093	0	32782	32790	
3094	0	32804	32842	
3095	0	32758	32671	
3096	0	32772	32755	
3097	0	32800	32634	
3098	0	32818	32811	
3099	0	32818	32832	
3100	0	32816	32744	
3101	0	32740	32796	
3102	0	32840	32732	
3103	0	32906	32722	
3104	0	32776	32694	
3105	0	32690	32798	
3106	0	32744	32928	
3107	0	32706	32735	
3108	0	32780	32839	
3109	0	32818	32627	
3110	0	32798	32752	
3111	0	32784	32718	
3112	0	32812	32798	
3113	0	32862	32804	
3114	0	32866	32830	
3115	0	32862	32806	
3116	0	32812	32754	
3117	0	32896	32812	
3118	0	32816	32742	
3119	0	32872	32788	
3120	0	32864	32726	
3121	0	32888	32714	
3122	0	32836	32708	
3123	0	32820	32754	
3124	0	32820	32878	
3125	0	32790	32762	
3126	0	32820	32798	
3127	0	32784	32668	
3128	0	32856	32822	
3129	0	32920	32772	
3130	0	32930	32810	
3131	0	32864	32864	
3132	0	32824	32628	
3133	0	32900	32742	
3134	0	32888	32721	
3135	0	32848	32900	
3136	0	32864	32804	
3137	0	32876	32866	
3138	0	32774	32775	
3139	0	32770	32860	
3140	0	32758	32810	
3141	0	32848	32706	
3142	0	32794	32754	
3143	0	32782	32671	
3144	0	32774	32700	
3145	0	32880	32696	
3146	0	32864	32774	
3147	0	32860	32762	
3148	0	32836	32801	
3149	0	32860	32679	
3150	0	32782	32758	
3151	0	32868	32726	
3152	0	32842	32746	
3153	0	32880	32662	
3154	0	32762	32740	
3155	0	32902	32658	
3156	0	32868	32775	
3157	0	32836	32738	
3158	0	32794	32775	
3159	0	32824	32698	
3160	0	32820	32834	
3161	0	32936	32679	
3162	0	32820	32838	
3163	0	32852	32734	
3164	0	32812	32786	
3165	0	32868	32708	
3166	0	32820	32762	
3167	0	32824	32784	
3168	0	32788	32790	
3169	0	32756	32720	
3170	0	32772	32864	
3171	0	32820	32823	
3172	0	32836	32775	
3173	0	32876	32866	
3174	0	32872	32860	
3175	0	32868	32715	
3176	0	32792	32881	
3177	0	32744	32716	
3178	0	32740	32786	
3179	0	32796	32674	
3180	0	32860	32770	
3181	0	32736	32720	
3182	0	32728	32754	
3183	0	32800	32734	
3184	0	32792	32743	
3185	0	32744	32690	
3186	0	32716	32705	
3187	0	32688	32714	
3188	0	32748	32794	
3189	0	32734	32719	
3190	0	32788	32760	
3191	0	32738	32652	
3192	0	32756	32666	
3193	0	32704	32690	
3194	0	32772	32740	
3195	0	32760	32730	
3196	0	32756	32702	
3197	0	32720	32743	
3198	0	32708	32700	
3199	0	32724	32666	
3200	0	32782	32856	
3201	0	32702	32775	
3202	0	32840	32848	
3203	0	32740	32828	
3204	0	32820	32752	
3205	0	32800	32742	
3206	0	32792	32774	
3207	0	32788	32796	
3208	0	32844	32854	
3209	0	32772	32838	
3210	0	32858	32656	
3211	0	32820	32706	
3212	0	32780	32788	
3213	0	32772	32756	
3214	0	32786	32870	
3215	0	32900	32724	
3216	0	32860	32679	
3217	0	32940	32701	
3218	0	32932	32799	
3219	0	32836	32830	
3220	0	32844	32842	
3221	0	32836	32775	
3222	0	32864	32675	
3223	0	32804	32871	
3224	0	32808	32720	
3225	0	32848	32740	
3226	0	32808	32847	
3227	0	32832	32680	
3228	0	32776	32758	
3229	0	32836	32836	
3230	0	32852	32758	
3231	0	32840	32844	
3232	0	32906	32864	
3233	0	32833	32762	
3234	0	32864	32610	
3235	0	32868	32736	
3236	0	32868	32718	
3237	0	32846	32828	
3238	0	32804	32724	
3239	0	32838	32730	
3240	0	32824	32732	
3241	0	32792	32814	
3242	0	32826	32772	
3243	0	32786	32708	
3244	0	32868	32798	
3245	0	32860	32743	
3246	0	32876	32772	
3247	0	32854	32752	
3248	0	32932	32846	
3249	0	32886	32878	
3250	0	32832	32799	
3251	0	32836	32792	
3252	0	32896	32806	
3253	0	32884	32830	
3254	0	32910	32794	
3255	0	32800	32674	
3256	0	32757	32800	
3257	0	32798	32820	
3258	0	32692	32728	
3259	0	32736	32775	
3260	0	32782	32767	
3261	0	32900	32775	
3262	0	32817	32804	
3263	0	32864	32814	
3264	0	32872	32855	
3265	0	32822	32846	
3266	0	32798	32740	
3267	0	32764	32718	
3268	0	32872	32734	
3269	0	32756	32672	
3270	0	32792	32822	
3271	0	32876	32670	
3272	0	32876	32836	
3273	0	32804	32794	
3274	0	32774	32647	
3275	0	32682	32710	
3276	0	32698	32580	
3277	0	32705	32679	
3278	0	32720	32750	
3279	0	32800	32746	
3280	0	32824	32880	
3281	0	32760	32724	
3282	0	32802	32748	
3283	0	32748	32902	
3284	0	32752	32894	
3285	0	32854	32852	
3286	0	32884	32876	
3287	0	32775	32740	
3288	0	32826	32720	
3289	0	32740	32856	
3290	0	32736	32794	
3291	0	32810	32766	
3292	0	32844	32766	
3293	0	32792	32828	
3294	0	32720	32664	
3295	0	32986	32647	
3296	0	32924	32747	
3297	0	32826	32746	
3298	0	32682	32697	
3299	0	32708	32679	
3300	0	32766	32652	
3301	0	32760	32748	
3302	0	32720	32775	
3303	0	32708	32816	
3304	0	32696	32839	
3305	0	32736	32790	
3306	0	32716	32823	
3307	0	32806	32772	
3308	0	32808	32788	
3309	0	32950	32879	
3310	0	32912	32730	
3311	0	32868	32826	
3312	0	32872	32720	
3313	0	32824	32737	
3314	0	32780	32740	
3315	0	33008	32784	
3316	0	32960	32852	
3317	0	32926	32902	
3318	0	32878	32784	
3319	0	32716	32794	
3320	0	32724	32840	
3321	0	32674	32786	
3322	0	32600	32680	
3323	0	32728	32696	
3324	0	32824	32655	
3325	0	32996	32764	
3326	0	33018	32918	
3327	0	32913	32864	
3328	0	32916	32943	
3329	0	32892	32870	
3330	0	32806	32865	
3331	0	32766	32464	
3332	0	32712	32496	
3333	0	32668	32724	
3334	0	32612	32647	
3335	0	32736	32640	
3336	0	32608	32743	
3337	0	32712	32748	
3338	0	32732	32831	
3339	0	33040	32758	
3340	0	33220	32642	
3341	0	33340	32744	
3342	0	33287	32798	
3343	0	32956	32775	
3344	0	32820	32832	
3345	0	32964	32848	
3346	0	33324	32892	
3347	0	33330	32838	
3348	0	33224	32869	
3349	0	32858	32980	
3350	0	32444	33102	
3351	0	32318	33018	
3352	0	32212	32503	
3353	0	32040	32332	
3354	0	32178	32252	
3355	0	32384	32366	
3356	0	32424	32295	
3357	0	32404	32352	
3358	0	32328	32268	
3359	0	32506	32798	
3360	0	32684	32878	
3361	0	32900	32992	
3362	0	32986	33150	
3363	0	33064	33342	
3364	0	33092	33378	
3365	0	33156	33502	
3366	0	33088	33350	
3367	0	33118	32864	
3368	0	33500	33326	
3369	0	33840	33357	
3370	0	33826	33144	
3371	0	33857	32664	
3372	0	33840	32406	
3373	0	33622	32199	
3374	0	33220	31844	
3375	0	32804	31844	
3376	0	32416	31890	
3377	0	32424	31860	
3378	0	32612	32583	
3379	0	32302	32844	
3380	0	31956	32692	
3381	0	31766	32872	
3382	0	31656	33028	
3383	0	31588	33412	
3384	0	31874	33328	
3385	0	32084	33190	
3386	0	32556	33262	
3387	0	32796	33150	
3388	0	32978	33446	
3389	0	33010	33204	
3390	0	33028	32834	
3391	0	33096	32482	
3392	0	32912	32400	
3393	0	32964	32340	
3394	0	32946	32620	
3395	0	33060	32816	
3396	0	33248	32818	
3397	0	33232	33028	
3398	0	33250	32880	
3399	0	33302	32736	
3400	0	33220	32519	
3401	0	32948	32546	
3402	0	32920	32391	
3403	0	32708	32614	
3404	0	32626	32448	
3405	0	32674	32546	
3406	0	32744	32408	
3407	0	32852	32436	
3408	0	33072	32442	
3409	0	32932	32334	
3410	0	32780	32254	
3411	0	32456	32410	
3412	0	32263	32926	
3413	0	32312	33183	
3414	0	32532	33210	
3415	0	32808	33322	
3416	0	32860	33179	
3417	0	32900	32948	
3418	0	32716	32612	
3419	0	32844	32647	
3420	0	32736	32700	
3421	0	32820	32736	
3422	0	32820	32670	
3423	0	32896	32728	
3424	0	33108	32918	
3425	0	33264	32799	
3426	0	33268	32943	
3427	0	33264	32688	
3428	0	33326	32860	
3429	0	33340	32784	
3430	0	33178	32720	
3431	0	33036	32647	
3432	0	32968	32546	
3433	0	32834	32668	
3434	0	32736	32712	
3435	0	32502	32673	
3436	0	32516	32719	
3437	0	32454	33062	
3438	0	32640	32952	
3439	0	32632	33051	
3440	0	32976	32942	
3441	0	33576	32884	
3442	0	33354	32540	
3443	0	33038	32614	
3444	0	33216	32910	
3445	0	33686	32852	
3446	0	33730	32612	
3447	0	33242	33078	
3448	0	32698	33776	
3449	0	32400	33510	
3450	0	32528	32478	
3451	0	32534	32368	
3452	0	33316	32058	
3453	0	33760	31830	
3454	0	33132	31762	
3455	0	32454	32340	
3456	0	31850	32286	
3457	0	31280	32482	
3458	0	30754	32724	
3459	0	31036	32481	
3460	0	31521	32382	
3461	0	32052	32847	
3462	0	32076	33890	
3463	0	32064	33506	
3464	0	32030	33064	
3465	0	32016	32664	
3466	0	32484	32952	
3467	0	32936	33408	
3468	0	33472	34268	
3469	0	33792	33910	
3470	0	33328	33218	
3471	0	33168	32943	
3472	0	32866	32864	
3473	0	32550	31986	
3474	0	32668	31567	
3475	0	32484	32144	
3476	0	32316	32164	
3477	0	32722	32420	
3478	0	33162	32116	
3479	0	33674	32080	
3480	0	33936	32546	
3481	0	33922	32498	
3482	0	33988	32526	
3483	0	33512	32788	
3484	0	33092	32934	
3485	0	32732	32788	
3486	0	32572	32904	
3487	0	32640	32798	
3488	0	32832	33167	
3489	0	33288	33306	
3490	0	33564	33414	
3491	0	33560	33590	
3492	0	33300	33572	
3493	0	32924	33253	
3494	0	32844	33054	
3495	0	32596	32870	
3496	0	32504	32775	
3497	0	32596	32404	
3498	0	32636	32183	
3499	0	32852	32263	
3500	0	32732	32362	
3501	0	32636	32459	
3502	0	32508	32129	
3503	0	32362	32678	
3504	0	32072	32772	
3505	0	32076	32762	
3506	0	32082	32846	
3507	0	32198	32794	
3508	0	32408	32728	
3509	0	32764	32698	
3510	0	33088	32682	
3511	0	33524	32612	
3512	0	33846	32900	
3513	0	33672	33454	
3514	0	33298	33539	
3515	0	32970	32982	
3516	0	33254	32760	
3517	0	33492	32622	
3518	0	33508	32678	
3519	0	33058	32820	
3520	0	32754	32116	
3521	0	32476	32366	
3522	0	32772	32744	
3523	0	32642	32690	
3524	0	32270	32591	
3525	0	31848	32444	
3526	0	31528	32935	
3527	0	31540	33091	
3528	0	31736	33182	
3529	0	31996	32942	
3530	0	32390	32775	
3531	0	32688	32792	
3532	0	32788	32774	
3533	0	32980	32878	
3534	0	33344	33234	
3535	0	33684	32974	
3536	0	34050	31994	
3537	0	34652	32014	
3538	0	34354	32768	
3539	0	33998	32974	
3540	0	33640	32748	
3541	0	33038	32770	
3542	0	32680	33336	
3543	0	32568	33780	
3544	0	32174	33356	
3545	0	32066	32846	
3546	0	32884	32410	
3547	0	33280	31492	
3548	0	32844	31042	
3549	0	32470	33066	
3550	0	32032	33474	
3551	0	32320	32760	
3552	0	31428	31988	
3553	0	31066	31788	
3554	0	31232	32090	
3555	0	31904	32990	
3556	0	32496	33302	
3557	0	32986	33568	
3558	0	33044	34752	
3559	0	33130	34260	
3560	0	33594	33204	
3561	0	33690	32646	
3562	0	33308	32052	
3563	0	32830	31838	
3564	0	32738	31958	
3565	0	32640	33070	
3566	0	32954	32880	
3567	0	33128	33028	
3568	0	33264	32786	
3569	0	33196	32111	
3570	0	32960	31887	
3571	0	32880	32424	
3572	0	33326	33422	
3573	0	34176	33836	
3574	0	34356	33714	
3575	0	33504	32964	
3576	0	32796	31898	
3577	0	32526	31946	
3578	0	32408	31674	
3579	0	32856	31340	
3580	0	33116	31736	
3581	0	32666	33124	
3582	0	32140	33146	
3583	0	31800	33184	
3584	0	31480	33776	
3585	0	31508	33788	
3586	0	31444	33502	
3587	0	31472	33186	
3588	0	32140	32862	
3589	0	32358	32954	
3590	0	32464	32616	
3591	0	32644	32102	
3592	0	33180	31872	
3593	0	33732	32876	
3594	0	33956	33418	
3595	0	34140	32968	
3596	0	33444	32871	
3597	0	32764	32391	
3598	0	32448	32238	
3599	0	32752	32578	
3600	0	32768	31910	
3601	0	32784	32912	
3602	0	32552	33894	
3603	0	32952	33252	
3604	0	33348	32902	
3605	0	33376	32816	
3606	0	33356	32554	
3607	0	33346	32739	
3608	0	32926	32688	
3609	0	32992	32528	
3610	0	33122	32298	
3611	0	33888	32528	
3612	0	33980	33176	
3613	0	33554	33778	
3614	0	32308	33794	
3615	0	31952	33512	
3616	0	32172	33383	
3617	0	32728	32800	
3618	0	33286	32402	
3619	0	33276	31728	
3620	0	32628	31930	
3621	0	32324	32118	
3622	0	32244	31485	
3623	0	31952	31527	
3624	0	32058	32398	
3625	0	32228	32920	
3626	0	31964	32944	
3627	0	32268	32996	
3628	0	32552	33056	
3629	0	33398	32998	
3630	0	34468	32864	
3631	0	33962	32296	
3632	0	33212	31730	
3633	0	32676	32232	
3634	0	32868	33860	
3635	0	32520	33828	
3636	0	32328	33148	
3637	0	32456	33311	
3638	0	32906	32584	
3639	0	32832	32452	
3640	0	32872	33284	
3641	0	33204	33138	
3642	0	33580	32556	
3643	0	33084	31916	
3644	0	32690	31946	
3645	0	32488	32510	
3646	0	31924	33966	
3647	0	32428	33242	
3648	0	33052	32868	
3649	0	33089	33610	
3650	0	32444	32930	
3651	0	32452	32556	
3652	0	33290	33248	
3653	0	33348	33690	
3654	0	33212	33256	
3655	0	33500	33492	
3656	0	33390	32666	
3657	0	32734	31022	
3658	0	32728	29926	
3659	0	32068	30698	
3660	0	31472	32682	
3661	0	31310	32992	
3662	0	31306	31690	
3663	0	31356	32518	
3664	0	31588	33306	
3665	0	31832	33390	
3666	0	32380	33214	
3667	0	32588	33466	
3668	0	33030	33756	
3669	0	33544	33464	
3670	0	34218	33198	
3671	0	34356	32936	
3672	0	34430	32775	
3673	0	34164	32528	
3674	0	33488	32769	
3675	0	32860	32627	
3676	0	32788	32544	
3677	0	32700	32388	
3678	0	33068	32494	
3679	0	33436	32592	
3680	0	33896	32964	
3681	0	34228	33107	
3682	0	33736	33047	
3683	0	33124	32830	
3684	0	32310	32738	
3685	0	31878	32962	
3686	0	31356	32664	
3687	0	31152	32636	
3688	0	31380	33031	
3689	0	31440	32830	
3690	0	32100	32936	
3691	0	32936	33276	
3692	0	33776	32691	
3693	0	33940	32942	
3694	0	34634	33256	
3695	0	34690	32806	
3696	0	33632	32170	
3697	0	32388	31876	
3698	0	31626	32517	
3699	0	30888	32868	
3700	0	30646	32900	
3701	0	31308	32488	
3702	0	32101	32460	
3703	0	33116	32536	
3704	0	33848	32312	
3705	0	34494	32432	
3706	0	35460	32148	
3707	0	34904	32222	
3708	0	33972	32772	
3709	0	32804	32920	
3710	0	31952	33904	
3711	0	31408	33916	
3712	0	31332	34018	
3713	0	31308	33054	
3714	0	31288	32832	
3715	0	31816	32708	
3716	0	32372	33626	
3717	0	33292	33630	
3718	0	34096	32808	
3719	0	35028	31744	
3720	0	35064	30972	
3721	0	34940	32112	
3722	0	34588	32798	
3723	0	34148	32372	
3724	0	33000	32676	
3725	0	32012	33568	
3726	0	32354	32842	
3727	0	30957	32980	
3728	0	30464	32246	
3729	0	30416	32135	
3730	0	30660	31810	
3731	0	30824	31544	
3732	0	31426	32386	
3733	0	32104	33258	
3734	0	32862	33758	
3735	0	33004	33700	
3736	0	32898	33084	
3737	0	32752	33031	
3738	0	32944	32212	
3739	0	33024	32346	
3740	0	34480	32496	
3741	0	34516	32143	
3742	0	33824	33236	
3743	0	32458	34026	
3744	0	32076	33158	
3745	0	31956	33100	
3746	0	32524	33415	
3747	0	32926	32656	
3748	0	33488	32608	
3749	0	33678	33182	
3750	0	33712	32572	
3751	0	33484	32418	
3752	0	33410	32712	
3753	0	33156	34088	
3754	0	32552	34628	
3755	0	32472	33104	
3756	0	33399	31768	
3757	0	33720	31302	
3758	0	33398	31596	
3759	0	33588	31646	
3760	0	33109	31772	
3761	0	32096	31816	
3762	0	33150	32702	
3763	0	33284	33018	
3764	0	33426	32292	
3765	0	32860	33040	
3766	0	32016	32645	
3767	0	31244	32593	
3768	0	31604	33232	
3769	0	31636	33174	
3770	0	31490	32961	
3771	0	31658	32914	
3772	0	31844	33620	
3773	0	32412	33788	
3774	0	31804	31888	
3775	0	31660	31414	
3776	0	33080	32444	
3777	0	34160	33832	
3778	0	34408	34094	
3779	0	34736	32890	
3780	0	34772	32152	
3781	0	33970	32706	
3782	0	32820	33796	
3783	0	32216	34002	
3784	0	32332	33256	
3785	0	32052	32434	
3786	0	32192	31650	
3787	0	32400	31346	
3788	0	31972	32132	
3789	0	31204	32628	
3790	0	31076	32340	
3791	0	31342	32591	
3792	0	32536	33700	
3793	0	33076	33702	
3794	0	33744	32764	
3795	0	34564	33126	
3796	0	34032	33220	
3797	0	34160	33014	
3798	0	34432	33178	
3799	0	33796	33201	
3800	0	33174	33158	
3801	0	33240	33080	
3802	0	33798	32382	
3803	0	33960	31720	
3804	0	33034	32135	
3805	0	33780	31972	
3806	0	34480	32721	
3807	0	34120	32822	
3808	0	33726	32802	
3809	0	33148	33020	
3810	0	32354	33500	
3811	0	31280	33844	
3812	0	30644	33440	
3813	0	29920	32526	
3814	0	28980	33008	
3815	0	28642	32278	
3816	0	29688	31730	
3817	0	30868	31306	
3818	0	32550	31422	
3819	0	33890	32286	
3820	0	35320	33156	
3821	0	35248	32294	
3822	0	34520	32830	
3823	0	33334	33280	
3824	0	32256	32942	
3825	0	32324	33176	
3826	0	32884	33130	
3827	0	33584	32884	
3828	0	34020	32626	
3829	0	34616	32336	
3830	0	34580	32018	
3831	0	34048	31870	
3832	0	33596	31684	
3833	0	32634	32908	
3834	0	31428	34305	
3835	0	30964	34892	
3836	0	31064	34990	
3837	0	31512	34156	
3838	0	32288	32684	
3839	0	33456	31904	
3840	0	34452	32482	
3841	0	34672	32376	
3842	0	34336	32554	
3843	0	34406	33112	
3844	0	34356	33484	
3845	0	34192	32672	
3846	0	33892	32244	
3847	0	33050	31204	
3848	0	32312	31910	
3849	0	31162	32668	
3850	0	30760	32610	
3851	0	31841	32183	
3852	0	31608	32006	
3853	0	30456	31540	
3854	0	30596	31160	
3855	0	31412	32340	
3856	0	30724	33198	
3857	0	31022	33572	
3858	0	31260	33454	
3859	0	32144	33404	
3860	0	33358	33108	
3861	0	34212	33672	
3862	0	34244	34046	
3863	0	33884	33468	
3864	0	33888	33262	
3865	0	33729	32984	
3866	0	33502	32775	
3867	0	33968	31570	
3868	0	34828	31632	
3869	0	34662	31582	
3870	0	34688	31543	
3871	0	34388	33268	
3872	0	32468	33974	
3873	0	31446	32876	
3874	0	30884	31924	
3875	0	30384	32190	
3876	0	31320	31960	
3877	0	31380	32534	
3878	0	31244	33324	
3879	0	32098	33940	
3880	0	32844	33514	
3881	0	33840	33332	
3882	0	35060	33227	
3883	0	34814	33580	
3884	0	34430	33329	
3885	0	32732	32922	
3886	0	31708	33335	
3887	0	31946	33372	
3888	0	32008	32426	
3889	0	32112	32196	
3890	0	32596	31852	
3891	0	32992	31044	
3892	0	33654	31344	
3893	0	32936	32040	
3894	0	32184	32580	
3895	0	32152	32892	
3896	0	32228	33294	
3897	0	32318	33374	
3898	0	32792	33287	
3899	0	33718	33224	
3900	0	33808	33060	
3901	0	34600	32930	
3902	0	33680	32732	
3903	0	33126	32507	
3904	0	32256	32740	
3905	0	31352	32580	
3906	0	30694	32732	
3907	0	31326	33470	
3908	0	32286	34110	
3909	0	33888	33876	
3910	0	34540	32554	
3911	0	34616	31834	
3912	0	33872	31450	
3913	0	33480	30916	
3914	0	33608	31318	
3915	0	33132	32060	
3916	0	32616	32647	
3917	0	31802	33464	
3918	0	31636	33398	
3919	0	32490	33103	
3920	0	32668	33249	
3921	0	32452	33318	
3922	0	32368	33408	
3923	0	32574	32757	
3924	0	33908	32594	
3925	0	34184	32614	
3926	0	33380	33108	
3927	0	32332	32998	
3928	0	32342	32302	
3929	0	32680	32786	
3930	0	33142	33210	
3931	0	33164	33326	
3932	0	34468	33376	
3933	0	34556	33554	
3934	0	33228	33328	
3935	0	32696	33092	
3936	0	32100	32636	
3937	0	32396	32190	
3938	0	33418	32320	
3939	0	33956	32343	
3940	0	33136	33154	
3941	0	32148	32938	
3942	0	31208	32128	
3943	0	31650	32798	
3944	0	31732	33108	
3945	0	32191	32566	
3946	0	32842	32263	
3947	0	32896	31646	
3948	0	33470	31354	
3949	0	33538	32000	
3950	0	34794	32528	
3951	0	35868	33040	
3952	0	33928	33070	
3953	0	31348	32248	
3954	0	29592	32976	
3955	0	29520	33776	
3956	0	29890	33530	
3957	0	30848	33330	
3958	0	31488	32692	
3959	0	31444	32718	
3960	0	32512	32604	
3961	0	32732	32436	
3962	0	32258	32324	
3963	0	32624	32258	
3964	0	33404	32384	
3965	0	34858	32412	
3966	0	35298	32540	
3967	0	35792	33162	
3968	0	35178	33752	
3969	0	34276	33799	
3970	0	33744	33852	
3971	0	33292	33636	
3972	0	32212	33328	
3973	0	30636	32132	
3974	0	29322	32088	
3975	0	29316	31844	
3976	0	30384	32140	
3977	0	33758	32804	
3978	0	34478	32672	
3979	0	34262	31820	
3980	0	34128	32048	
3981	0	32608	32820	
3982	0	32564	33121	
3983	0	32928	33024	
3984	0	33114	32866	
3985	0	32296	32805	
3986	0	32604	32970	
3987	0	32802	33118	
3988	0	32928	32796	
3989	0	32070	33350	
3990	0	31748	33438	
3991	0	32504	32696	
3992	0	32840	32866	
3993	0	33464	32616	
3994	0	33252	31764	
3995	0	34146	31946	
3996	0	34652	32480	
3997	0	34172	32410	
3998	0	33466	33108	
3999	0	31628	33252	
4000	0	31140	33424	
4001	0	31664	33738	
4002	0	32508	33578	
4003	0	32424	32718	
4004	0	31988	33108	
4005	0	31948	32588	
4006	0	32892	31143	
4007	0	32424	31751	
4008	0	32624	32122	
4009	0	32772	32548	
4010	0	32996	33078	
4011	0	32336	33108	
4012	0	32004	32946	
4013	0	32130	32856	
4014	0	31780	32798	
4015	0	31828	33191	
4016	0	31778	33208	
4017	0	32700	32990	
4018	0	33752	32932	
4019	0	34506	33126	
4020	0	35124	32500	
4021	0	35096	32248	
4022	0	35948	32032	
4023	0	36378	32229	
4024	0	35866	32844	
4025	0	34760	32300	
4026	0	33624	32586	
4027	0	33244	33346	
4028	0	32212	34026	
4029	0	33012	33504	
4030	0	32540	33260	
4031	0	31348	32806	
4032	0	30680	32372	
4033	0	29872	32462	
4034	0	29252	32598	
4035	0	30364	32470	
4036	0	32390	32290	
4037	0	32520	32384	
4038	0	31876	32080	
4039	0	31430	32647	
4040	0	31942	32628	
4041	0	32578	32564	
4042	0	33088	32708	
4043	0	33700	32666	
4044	0	34644	33000	
4045	0	34124	33396	
4046	0	34848	34000	
4047	0	35096	33404	
4048	0	34800	32852	
4049	0	33416	32082	
4050	0	32908	32174	
4051	0	32416	32374	
4052	0	32510	32548	
4053	0	32490	32608	
4054	0	33260	32700	
4055	0	32948	32698	
4056	0	32138	32786	
4057	0	31592	32609	
4058	0	30650	32806	
4059	0	30312	32958	
4060	0	30228	32378	
4061	0	30772	32116	
4062	0	32242	32712	
4063	0	32934	32754	
4064	0	34128	33276	
4065	0	33468	33622	
4066	0	32964	33592	
4067	0	33882	33548	
4068	0	34388	32775	
4069	0	34216	32326	
4070	0	34072	32151	
4071	0	32756	32604	
4072	0	32392	32752	
4073	0	31224	33260	
4074	0	30352	32668	
4075	0	30256	32900	
4076	0	30944	32862	
4077	0	32396	32859	
4078	0	33828	32662	
4079	0	34928	32760	
4080	0	36384	32990	
4081	0	35932	33286	
4082	0	35310	32824	
4083	0	34618	32575	
4084	0	33056	32894	
4085	0	31584	32768	
4086	0	30974	32764	
4087	0	30558	32662	
4088	0	31087	32528	
4089	0	32180	32238	
4090	0	33041	32344	
4091	0	33482	32756	
4092	0	33678	32834	
4093	0	33780	32672	
4094	0	33224	32560	
4095	0	32820	32660	
4096	0	32468	32985	
4097	0	32278	33028	
4098	0	32384	33020	
4099	0	32564	32967	
4100	0	33064	32830	
4101	0	32672	32688	
4102	0	32056	32230	
4103	0	32432	32225	
4104	0	32608	32464	
4105	0	33616	32328	
4106	0	33760	32284	
4107	0	33724	32320	
4108	0	33160	32528	
4109	0	32410	32554	
4110	0	32236	32798	
4111	0	32342	32768	
4112	0	32452	32922	
4113	0	32592	32858	
4114	0	33252	32906	
4115	0	34078	32842	
4116	0	35236	32936	
4117	0	33920	32924	
4118	0	32516	33146	
4119	0	31748	33020	
4120	0	31844	32884	
4121	0	31976	32700	
4122	0	32548	32561	
4123	0	33680	32810	
4124	0	34848	32774	
4125	0	35048	32860	
4126	0	34948	33185	
4127	0	34462	33020	
4128	0	32890	33057	
4129	0	31094	33526	
4130	0	29992	33598	
4131	0	29896	33136	
4132	0	28794	32324	
4133	0	28444	32568	
4134	0	29756	32732	
4135	0	31156	32316	
4136	0	31390	32332	
4137	0	33242	32434	
4138	0	34324	32296	
4139	0	35448	32452	
4140	0	35700	32380	
4141	0	36128	32632	
4142	0	34500	32978	
4143	0	32980	33044	
4144	0	32296	33062	
4145	0	32600	32966	
4146	0	32950	32940	
4147	0	34790	32808	
4148	0	37128	32696	
4149	0	37564	32536	
4150	0	33832	32762	
4151	0	31328	32994	
4152	0	30208	33028	
4153	0	29698	32846	
4154	0	29364	32736	
4155	0	29564	32556	
4156	0	29582	32006	
4157	0	29512	31996	
4158	0	29724	32364	
4159	0	30132	32820	
4160	0	31090	33135	
4161	0	32320	33256	
4162	0	33464	33198	
4163	0	35004	32998	
4164	0	36384	32892	
4165	0	37152	32841	
4166	0	36262	32660	
4167	0	34848	32826	
4168	0	33924	32814	
4169	0	33198	33134	
4170	0	33480	32978	
4171	0	33438	32990	
4172	0	33280	32894	
4173	0	33040	32910	
4174	0	33516	32912	
4175	0	32472	32720	
4176	0	32384	32774	
4177	0	31904	32775	
4178	0	31674	32990	
4179	0	31544	32972	
4180	0	32226	32688	
4181	0	33292	32690	
4182	0	33748	32596	
4183	0	33254	32240	
4184	0	32784	32046	
4185	0	32696	31887	
4186	0	32500	32228	
4187	0	32576	32166	
4188	0	31832	32174	
4189	0	31869	32686	
4190	0	32300	32807	
4191	0	32996	33196	
4192	0	34068	33236	
4193	0	34772	32888	
4194	0	35136	32954	
4195	0	34486	33021	
4196	0	32930	32806	
4197	0	32018	32514	
4198	0	31816	32432	
4199	0	32000	32672	
4200	0	31936	32924	
4201	0	31700	32839	
4202	0	31920	32964	
4203	0	31404	32988	
4204	0	31454	32878	
4205	0	32504	32932	
4206	0	32720	32970	
4207	0	32564	33063	
4208	0	33052	33284	
4209	0	32552	33167	
4210	0	32504	33180	
4211	0	32740	32988	
4212	0	33686	32872	
4213	0	33818	32775	
4214	0	33694	32647	
4215	0	32930	32633	
4216	0	32292	32824	
4217	0	32080	32826	
4218	0	32384	32952	
4219	0	33168	32766	
4220	0	33084	32792	
4221	0	33280	32740	
4222	0	33860	32752	
4223	0	33908	32814	
4224	0	33964	32656	
4225	0	33988	32708	
4226	0	33048	32836	
4227	0	31984	33118	
4228	0	31798	33056	
4229	0	32164	32952	
4230	0	31860	32806	
4231	0	31150	32928	
4232	0	30822	32888	
4233	0	31668	33116	
4234	0	32796	32862	
4235	0	33072	32636	
4236	0	33740	32688	
4237	0	33956	32615	
4238	0	33996	32526	
4239	0	33872	32468	
4240	0	33482	32408	
4241	0	34004	32344	
4242	0	35236	32342	
4243	0	34308	32518	
4244	0	32520	32823	
4245	0	31540	32648	
4246	0	31020	32647	
4247	0	30944	32793	
4248	0	31364	32775	
4249	0	31680	32868	
4250	0	31676	33164	
4251	0	32739	32966	
4252	0	34032	32800	
4253	0	34294	32550	
4254	0	33724	32500	
4255	0	32968	32665	
4256	0	33004	32536	
4257	0	32894	32498	
4258	0	32588	32784	
4259	0	33140	33000	
4260	0	33309	32881	
4261	0	32904	32748	
4262	0	32926	32948	
4263	0	32906	32858	
4264	0	33032	32892	
4265	0	31876	32804	
4266	0	32040	32816	
4267	0	33328	32908	
4268	0	32428	32616	
4269	0	31380	32540	
4270	0	31200	32442	
4271	0	31230	32510	
4272	0	31820	32350	
4273	0	32712	32674	
4274	0	33180	32743	
4275	0	33484	32902	
4276	0	33204	32935	
4277	0	33036	32919	
4278	0	32804	32806	
4279	0	32890	32746	
4280	0	32916	32791	
4281	0	33194	32988	
4282	0	33404	32966	
4283	0	33508	33025	
4284	0	33092	32718	
4285	0	33196	32646	
4286	0	33120	32711	
4287	0	33208	32594	
4288	0	33056	32724	
4289	0	32744	32854	
4290	0	32756	32964	
4291	0	32844	32990	
4292	0	33214	33030	
4293	0	33572	32950	
4294	0	33840	32837	
4295	0	33806	32831	
4296	0	34180	32810	
4297	0	34188	32775	
4298	0	33914	32647	
4299	0	33088	32732	
4300	0	32668	32760	
4301	0	33498	32884	
4302	0	33494	32727	
4303	0	32654	32670	
4304	0	31600	32592	
4305	0	30578	32712	
4306	0	30504	32676	
4307	0	30220	32852	
4308	0	30012	32806	
4309	0	31157	32658	
4310	0	31592	32752	
4311	0	32034	32692	
4312	0	32404	32688	
4313	0	32352	32687	
4314	0	32598	32711	
4315	0	33020	32841	
4316	0	33812	32804	
4317	0	34188	32918	
4318	0	34660	32839	
4319	0	34146	32802	
4320	0	33486	32604	
4321	0	33160	32858	
4322	0	32864	32866	
4323	0	32954	32852	
4324	0	33024	32708	
4325	0	33160	32598	
4326	0	33286	32414	
4327	0	33262	32448	
4328	0	32800	32538	
4329	0	32668	32578	
4330	0	33092	32548	
4331	0	33020	32762	
4332	0	32748	32692	
4333	0	32360	32812	
4334	0	32272	32801	
4335	0	32320	32987	
4336	0	32324	32910	
4337	0	32768	32796	
4338	0	33344	32708	
4339	0	33836	32692	
4340	0	34172	32732	
4341	0	34024	32738	
4342	0	33296	32734	
4343	0	32948	32697	
4344	0	32820	32790	
4345	0	32584	32470	
4346	0	32480	32647	
4347	0	32252	32775	
4348	0	32064	32874	
4349	0	31626	32982	
4350	0	31348	32942	
4351	0	31960	32920	
4352	0	33050	32954	
4353	0	32572	32790	
4354	0	32304	32712	
4355	0	32098	32542	
4356	0	31964	32714	
4357	0	32404	32728	
4358	0	32842	32604	
4359	0	33236	32660	
4360	0	33340	32679	
4361	0	33290	32850	
4362	0	33400	32804	
4363	0	33256	32870	
4364	0	33120	32868	
4365	0	33024	32704	
4366	0	33040	32721	
4367	0	33564	32712	
4368	0	34168	32742	
4369	0	33344	32634	
4370	0	32304	32724	
4371	0	31576	32519	
4372	0	31692	32487	
4373	0	32312	32671	
4374	0	32622	32950	
4375	0	32778	32830	
4376	0	33104	32884	
4377	0	33240	32810	
4378	0	33098	32762	
4379	0	33136	32844	
4380	0	32794	32884	
4381	0	32698	32903	
4382	0	32596	32843	
4383	0	33092	32870	
4384	0	33388	32784	
4385	0	33408	32698	
4386	0	32688	32839	
4387	0	32536	32814	
4388	0	32590	32766	
4389	0	32698	32642	
4390	0	32832	32775	
4391	0	33010	32724	
4392	0	32962	32952	
4393	0	32728	32822	
4394	0	32654	32647	
4395	0	32522	32614	
4396	0	32730	32944	
4397	0	32708	33412	
4398	0	32476	33380	
4399	0	32391	33332	
4400	0	32520	32964	
4401	0	32894	32898	
4402	0	33156	32774	
4403	0	33410	32694	
4404	0	33812	32623	
4405	0	33780	32406	
4406	0	33240	32304	
4407	0	32864	32354	
4408	0	32482	32470	
4409	0	32156	32458	
4410	0	32148	32698	
4411	0	32628	32678	
4412	0	32742	32574	
4413	0	32728	32580	
4414	0	32714	32524	
4415	0	32608	32732	
4416	0	32508	32722	
4417	0	32556	32716	
4418	0	32496	32740	
4419	0	32476	32946	
4420	0	32440	32732	
4421	0	32290	32804	
4422	0	32558	32743	
4423	0	32872	33039	
4424	0	33040	32842	
4425	0	33336	32834	
4426	0	33280	32814	
4427	0	33232	32660	
4428	0	33198	32854	
4429	0	33240	32658	
4430	0	33298	32766	
4431	0	33644	32638	
4432	0	33956	32836	
4433	0	33488	32917	
4434	0	33096	32868	
4435	0	32352	32775	
4436	0	31964	32775	
4437	0	31976	32795	
4438	0	32180	32744	
4439	0	32578	32742	
4440	0	32844	32702	
4441	0	32960	32706	
4442	0	33026	32700	
4443	0	33156	32812	
4444	0	32776	32742	
4445	0	32364	32852	
4446	0	32288	32924	
4447	0	32272	32918	
4448	0	32148	32938	
4449	0	32148	32774	
4450	0	32500	32678	
4451	0	32784	32418	
4452	0	32988	32514	
4453	0	33044	32502	
4454	0	32932	32846	
4455	0	32872	32660	
4456	0	32664	32814	
4457	0	32656	32756	
4458	0	32864	32922	
4459	0	32788	32775	
4460	0	32970	32814	
4461	0	33086	32798	
4462	0	33518	32864	
4463	0	33560	32854	
4464	0	33186	32676	
4465	0	33050	32756	
4466	0	32628	32670	
4467	0	32364	32828	
4468	0	32692	32864	
4469	0	33168	32714	
4470	0	33452	32707	
4471	0	33492	32610	
4472	0	33488	32746	
4473	0	34364	32736	
4474	0	33550	32748	
4475	0	32360	32650	
4476	0	31826	32808	
4477	0	31542	32824	
4478	0	31576	32732	
4479	0	31448	32679	
4480	0	31840	32594	
4481	0	32320	32676	
4482	0	32564	32604	
4483	0	32784	32788	
4484	0	33057	32742	
4485	0	33220	32821	
4486	0	33012	32794	
4487	0	33318	32799	
4488	0	33352	32802	
4489	0	33220	32848	
4490	0	33080	32952	
4491	0	32862	32836	
4492	0	33056	32858	
4493	0	33012	32742	
4494	0	32584	32706	
4495	0	32578	32628	
4496	0	32556	32830	
4497	0	32624	32880	
4498	0	32710	32970	
4499	0	32936	32999	
4500	0	32984	33058	
4501	0	32686	33078	
4502	0	32542	33008	
4503	0	32540	32918	
4504	0	32492	32746	
4505	0	32552	32868	
4506	0	32664	32668	
4507	0	32804	32788	
4508	0	33092	32694	
4509	0	33204	32646	
4510	0	33246	32634	
4511	0	33228	32818	
4512	0	33064	32800	
4513	0	33088	32656	
4514	0	33148	32508	
4515	0	33188	32500	
4516	0	33108	32752	
4517	0	33012	32826	
4518	0	32896	32618	
4519	0	32896	32746	
4520	0	32814	32690	
4521	0	32744	32690	
4522	0	32420	32694	
4523	0	32564	32578	
4524	0	32442	32650	
4525	0	32430	32747	
4526	0	32362	32672	
4527	0	32456	32719	
4528	0	32736	32760	
4529	0	32906	32763	
4530	0	33158	32856	
4531	0	33155	32900	
4532	0	33030	32967	
4533	0	32928	33014	
4534	0	32756	32856	
4535	0	32556	32687	
4536	0	32412	32786	
4537	0	32424	32714	
4538	0	32590	32662	
4539	0	32740	32775	
4540	0	32852	32820	
4541	0	33020	32712	
4542	0	33064	32796	
4543	0	33102	32812	
4544	0	33188	32724	
4545	0	33244	32790	
4546	0	33064	32720	
4547	0	32816	32799	
4548	0	32744	32900	
4549	0	32750	32712	
4550	0	32704	32718	
4551	0	32670	32790	
4552	0	32762	32722	
4553	0	32898	32756	
4554	0	33374	32703	
4555	0	33576	32684	
4556	0	33700	32740	
4557	0	33244	32820	
4558	0	32638	32740	
4559	0	32442	32834	
4560	0	32164	32749	
4561	0	32129	32790	
4562	0	32064	32808	
4563	0	32022	32792	
4564	0	32486	32796	
4565	0	32378	32615	
4566	0	32376	32605	
4567	0	32804	32606	
4568	0	32656	32771	
4569	0	32648	32655	
4570	0	32496	32686	
4571	0	32516	32636	
4572	0	32610	32626	
4573	0	32516	32638	
4574	0	32572	32848	
4575	0	33198	32836	
4576	0	33328	32716	
4577	0	33460	32862	
4578	0	33584	32714	
4579	0	33520	32784	
4580	0	33432	32834	
4581	0	33236	32756	
4582	0	32948	32884	
4583	0	32716	32880	
4584	0	32458	32806	
4585	0	32332	32794	
4586	0	32368	32900	
4587	0	32544	32740	
4588	0	32660	32803	
4589	0	32812	32825	
4590	0	33012	32694	
4591	0	33136	32682	
4592	0	33198	32652	
4593	0	33128	32746	
4594	0	33018	32878	
4595	0	32880	32832	
4596	0	32756	32928	
4597	0	32912	32871	
4598	0	32902	32718	
4599	0	33156	32637	
4600	0	33292	32670	
4601	0	33060	32696	
4602	0	32698	32740	
4603	0	32336	32790	
4604	0	32364	32711	
4605	0	32480	32760	
4606	0	32578	32820	
4607	0	32820	32748	
4608	0	32902	32654	
4609	0	32948	32839	
4610	0	33040	32804	
4611	0	32760	32738	
4612	0	32700	32820	
4613	0	32654	32770	
4614	0	32826	32868	
4615	0	32662	32890	
4616	0	32508	32766	
4617	0	32576	32755	
4618	0	32604	32839	
4619	0	32816	32807	
4620	0	32988	32764	
4621	0	33096	32852	
4622	0	33136	32832	
4623	0	32984	32572	
4624	0	32892	32582	
4625	0	32788	32706	
4626	0	32740	32710	
4627	0	32672	32844	
4628	0	32774	32816	
4629	0	32702	32874	
4630	0	32692	33055	
4631	0	32780	32998	
4632	0	32806	32922	
4633	0	32774	32846	
4634	0	32974	32710	
4635	0	32908	32710	
4636	0	32882	32720	
4637	0	32792	32591	
4638	0	32930	32775	
4639	0	32900	32654	
4640	0	32916	32663	
4641	0	33324	32660	
4642	0	33050	32704	
4643	0	32668	32655	
4644	0	32332	32692	
4645	0	32304	32516	
4646	0	32334	32566	
4647	0	32512	32566	
4648	0	32624	32614	
4649	0	32640	32526	
4650	0	32772	32446	
4651	0	32810	32564	
4652	0	32852	32615	
4653	0	32956	32644	
4654	0	33044	32698	
4655	0	33072	32497	
4656	0	32920	32578	
4657	0	32880	32716	
4658	0	32850	32570	
4659	0	33012	32644	
4660	0	33018	32610	
4661	0	33024	32720	
4662	0	33092	32922	
4663	0	33074	33064	
4664	0	32960	33111	
4665	0	32872	33068	
4666	0	32742	32974	
4667	0	32654	32842	
4668	0	32465	32820	
4669	0	32452	32870	
4670	0	32412	32914	
4671	0	32476	32860	
4672	0	32340	32938	
4673	0	32333	33052	
4674	0	32532	32996	
4675	0	32712	32896	
4676	0	33084	32944	
4677	0	33256	32914	
4678	0	33132	32870	
4679	0	33112	32726	
4680	0	32976	32732	
4681	0	32972	32812	
4682	0	32828	32740	
4683	0	32852	32878	
4684	0	32756	32922	
4685	0	32804	33070	
4686	0	32882	32954	
4687	0	32964	32916	
4688	0	32780	32932	
4689	0	32772	32928	
4690	0	32780	32891	
4691	0	32868	32810	
4692	0	33036	32798	
4693	0	33020	32870	
4694	0	32804	32838	
4695	0	32692	32746	
4696	0	32668	32865	
4697	0	32744	32890	
4698	0	32818	32936	
4699	0	32828	32840	
4700	0	32808	32766	
4701	0	32696	32828	
4702	0	32608	32775	
4703	0	32618	32794	
4704	0	32500	32764	
4705	0	32600	32828	
4706	0	32668	32810	
4707	0	32784	32752	
4708	0	32890	32687	
4709	0	33012	32647	
4710	0	33040	32846	
4711	0	32948	32706	
4712	0	32940	32838	
4713	0	32896	32606	
4714	0	33096	32666	
4715	0	33092	32758	
4716	0	32860	32652	
4717	0	32708	32844	
4718	0	32632	32628	
4719	0	32588	32732	
4720	0	32632	32768	
4721	0	32596	32796	
4722	0	32616	32752	
4723	0	32664	32658	
4724	0	32892	32615	
4725	0	33064	32588	
4726	0	33284	32676	
4727	0	33128	32612	
4728	0	32990	32634	
4729	0	32810	32608	
4730	0	32732	32687	
4731	0	32780	32769	
4732	0	32666	32694	
4733	0	32768	32638	
4734	0	32776	32720	
4735	0	32782	32746	
4736	0	32758	32716	
4737	0	32881	32647	
4738	0	32926	32738	
4739	0	32924	32860	
4740	0	32856	32806	
4741	0	32830	32884	
4742	0	32704	32836	
4743	0	32564	32606	
4744	0	32598	32652	
4745	0	32624	32806	
4746	0	32844	32674	
4747	0	32844	32644	
4748	0	32888	32743	
4749	0	32884	32772	
4750	0	32852	32680	
4751	0	32846	32640	
4752	0	32764	32814	
4753	0	32786	32906	
4754	0	32736	32903	
4755	0	32798	32748	
4756	0	32972	32697	
4757	0	32916	32564	
4758	0	32868	32538	
4759	0	33136	32655	
4760	0	33142	32648	
4761	0	32924	32636	
4762	0	32860	32638	
4763	0	32777	32732	
4764	0	32766	32604	
4765	0	32740	32700	
4766	0	32576	32714	
4767	0	32780	32880	
4768	0	32662	32910	
4769	0	32596	32900	
4770	0	32668	33002	
4771	0	32724	32876	
4772	0	32618	32802	
4773	0	32822	32871	
4774	0	32840	32916	
4775	0	32870	32846	
4776	0	32760	32788	
4777	0	32684	32862	
4778	0	32594	32832	
4779	0	32600	32921	
4780	0	32760	32801	
4781	0	32856	32812	
4782	0	32916	32850	
4783	0	32916	32864	
4784	0	33008	32806	
4785	0	32984	32922	
4786	0	32976	32926	
4787	0	32804	32810	
4788	0	32752	32894	
4789	0	32712	32827	
4790	0	32692	32604	
4791	0	32720	32839	
4792	0	32772	32625	
4793	0	32910	32704	
4794	0	32900	32618	
4795	0	33004	32700	
4796	0	32972	32632	
4797	0	32976	32614	
4798	0	33000	32722	
4799	0	33050	32756	
4800	0	32956	32716	
4801	0	32916	32740	
4802	0	32806	32716	
4803	0	32664	32644	
4804	0	32684	32759	
4805	0	32682	32714	
4806	0	32624	32615	
4807	0	32606	32642	
4808	0	32608	32689	
4809	0	32664	32682	
4810	0	32664	32647	
4811	0	32686	32679	
4812	0	32708	32711	
4813	0	32764	32774	
4814	0	32700	32913	
4815	0	32760	32894	
4816	0	32790	32743	
4817	0	32924	32822	
4818	0	32952	32808	
4819	0	32916	32948	
4820	0	32858	32864	
4821	0	32886	32836	
4822	0	32936	32902	
4823	0	33072	32900	
4824	0	33032	32922	
4825	0	33076	32952	
4826	0	32996	32843	
4827	0	32900	32908	
4828	0	32825	32838	
4829	0	32638	32804	
4830	0	32532	32864	
4831	0	32612	32876	
4832	0	32674	32930	
4833	0	32750	32896	
4834	0	32849	32730	
4835	0	32842	32746	
4836	0	33162	32796	
4837	0	33380	32760	
4838	0	33226	32918	
4839	0	33008	32830	
4840	0	32608	32774	
4841	0	32500	32806	
4842	0	32556	32798	
4843	0	32608	32772	
4844	0	32534	32647	
4845	0	32780	32690	
4846	0	32954	32832	
4847	0	32845	32771	
4848	0	32708	32752	
4849	0	32596	32750	
4850	0	32656	32838	
4851	0	32808	32775	
4852	0	32844	32878	
4853	0	32900	32785	
4854	0	32944	32710	
4855	0	32992	32754	
4856	0	32932	32916	
4857	0	32848	32767	
4858	0	32696	32802	
4859	0	32640	32732	
4860	0	32800	32770	
4861	0	33157	32668	
4862	0	33260	32790	
4863	0	33060	32814	
4864	0	32988	32728	
4865	0	32936	32838	
4866	0	32768	32775	
4867	0	32880	32916	
4868	0	32820	32812	
4869	0	32764	32704	
4870	0	32542	32692	
4871	0	32564	32708	
4872	0	32464	32468	
4873	0	32568	32716	
4874	0	32596	32676	
4875	0	32608	32852	
4876	0	32613	32795	
4877	0	32686	32872	
4878	0	32760	32967	
4879	0	32816	32970	
4880	0	32890	33041	
4881	0	32972	32908	
4882	0	33079	32744	
4883	0	32964	32756	
4884	0	32948	32606	
4885	0	32858	32666	
4886	0	32776	32670	
4887	0	32770	32496	
4888	0	32796	32544	
4889	0	32800	32518	
4890	0	32746	32740	
4891	0	32734	32758	
4892	0	32718	32644	
4893	0	32762	32728	
4894	0	32856	32660	
4895	0	32958	32590	
4896	0	32884	32706	
4897	0	32884	32704	
4898	0	32910	32790	
4899	0	33064	32844	
4900	0	33180	32730	
4901	0	33024	32708	
4902	0	33185	32834	
4903	0	33260	32615	
4904	0	33000	32644	
4905	0	32788	32710	
4906	0	32692	32754	
4907	0	32629	32820	
4908	0	32716	32663	
4909	0	32544	32892	
4910	0	32472	32802	
4911	0	32414	32756	
4912	0	32456	32714	
4913	0	32612	32597	
4914	0	32504	32550	
4915	0	32578	32764	
4916	0	32740	32866	
4917	0	32832	32836	
4918	0	33000	32718	
4919	0	32992	32804	
4920	0	32998	32824	
4921	0	33080	32850	
4922	0	33030	32682	
4923	0	33238	32752	
4924	0	32886	32830	
4925	0	32524	32696	
4926	0	32320	32740	
4927	0	32512	32894	
4928	0	32876	32850	
4929	0	32980	32863	
4930	0	33008	32896	
4931	0	32992	32962	
4932	0	32870	32900	
4933	0	32804	32828	
4934	0	32954	32724	
4935	0	32862	32710	
4936	0	33096	32678	
4937	0	33016	32696	
4938	0	32810	32670	
4939	0	32612	32802	
4940	0	32466	32686	
4941	0	32610	32706	
4942	0	32660	32807	
4943	0	32740	32764	
4944	0	32668	32526	
4945	0	32624	32646	
4946	0	32602	32635	
4947	0	32548	32746	
4948	0	32678	32704	
4949	0	32826	32734	
4950	0	33056	32852	
4951	0	33036	32912	
4952	0	32940	32838	
4953	0	32628	32966	
4954	0	32320	32868	
4955	0	32378	32759	
4956	0	32416	32876	
4957	0	32512	32822	
4958	0	32528	32868	
4959	0	32720	32670	
4960	0	32792	32606	
4961	0	33068	32608	
4962	0	33000	32606	
4963	0	32924	32634	
4964	0	32922	32559	
4965	0	32824	32748	
4966	0	32792	32904	
4967	0	32904	32900	
4968	0	32858	32824	
4969	0	32892	32896	
4970	0	33086	33072	
4971	0	33050	32967	
4972	0	32911	32822	
4973	0	32716	32828	
4974	0	32574	32820	
4975	0	32568	32682	
4976	0	32644	32564	
4977	0	32844	32682	
4978	0	32852	32738	
4979	0	32888	32784	
4980	0	32848	32772	
4981	0	32846	32720	
4982	0	32912	32930	
4983	0	32976	32754	
4984	0	32946	32696	
4985	0	32832	32700	
4986	0	32952	32720	
4987	0	33060	32680	
4988	0	33190	32879	
4989	0	33226	32770	
4990	0	33012	32706	
4991	0	32768	32702	
4992	0	32710	32736	
4993	0	32648	32830	
4994	0	32620	32668	
4995	0	32580	32662	
4996	0	32436	32652	
4997	0	32526	32767	
4998	0	32564	32618	
4999	0	32620	32756	
5000	0	32696	32732	
5001	0	32682	32732	
5002	0	32736	32775	
5003	0	32616	32856	
5004	0	32496	32964	
5005	0	32712	32960	
5006	0	32788	32912	
5007	0	32782	32932	
5008	0	32632	32852	
5009	0	32452	32775	
5010	0	32660	32807	
5011	0	32848	32744	
5012	0	33016	32551	
5013	0	33058	32664	
5014	0	32932	32714	
5015	0	32856	32679	
5016	0	32840	32694	
5017	0	32898	32836	
5018	0	32866	32807	
5019	0	33004	32742	
5020	0	32998	32743	
5021	0	33040	32618	
5022	0	32928	32660	
5023	0	32944	32646	
5024	0	32834	32775	
5025	0	32856	32712	
5026	0	33024	32805	
5027	0	33048	32708	
5028	0	33004	32596	
5029	0	32902	32775	
5030	0	32768	32940	
5031	0	32756	32894	
5032	0	32648	32894	
5033	0	32636	32852	
5034	0	32732	32927	
5035	0	32716	32780	
5036	0	32608	32782	
5037	0	32736	32732	
5038	0	32762	32614	
5039	0	32866	32628	
5040	0	33068	32646	
5041	0	33098	32666	
5042	0	33060	32608	
5043	0	32926	32766	
5044	0	32806	32886	
5045	0	32706	32762	
5046	0	32524	32748	
5047	0	32396	32785	
5048	0	32440	32898	
5049	0	32592	32729	
5050	0	32728	32775	
5051	0	32764	32788	
5052	0	32828	32698	
5053	0	32740	32628	
5054	0	32756	32640	
5055	0	32982	32772	
5056	0	32942	32726	
5057	0	32802	32810	
5058	0	32848	32764	
5059	0	32924	32638	
5060	0	32888	32640	
5061	0	32894	32760	
5062	0	32766	32816	
5063	0	32800	32738	
5064	0	32868	32832	
5065	0	32822	32731	
5066	0	32844	32800	
5067	0	32920	32788	
5068	0	32884	32700	
5069	0	32849	32682	
5070	0	33136	32703	
5071	0	33328	32843	
5072	0	33280	32842	
5073	0	32956	32948	
5074	0	32560	32890	
5075	0	32388	32834	
5076	0	32440	32802	
5077	0	32400	32696	
5078	0	32417	32807	
5079	0	32320	32772	
5080	0	32320	32764	
5081	0	32308	32760	
5082	0	32365	32808	
5083	0	32600	32790	
5084	0	32692	32821	
5085	0	32968	32736	
5086	0	33046	32628	
5087	0	33018	32762	
5088	0	32872	32674	
5089	0	32962	32802	
5090	0	32956	32743	
5091	0	32986	32670	
5092	0	33084	32722	
5093	0	33050	32760	
5094	0	33096	32756	
5095	0	33124	32842	
5096	0	33024	32906	
5097	0	32996	32732	
5098	0	32816	32676	
5099	0	32784	32734	
5100	0	32800	32788	
5101	0	32794	32746	
5102	0	32810	32750	
5103	0	32938	32775	
5104	0	32944	32614	
5105	0	32934	32680	
5106	0	32936	32820	
5107	0	32964	32828	
5108	0	32768	32738	
5109	0	32668	32940	
5110	0	32672	32822	
5111	0	32698	32700	
5112	0	32848	32662	
5113	0	32946	32704	
5114	0	32948	32686	
5115	0	32874	32564	
5116	0	32992	32588	
5117	0	32986	32812	
5118	0	32610	32866	
5119	0	32588	33127	
5120	0	32590	32958	
5121	0	32608	32965	
5122	0	32608	32970	
5123	0	32652	32892	
5124	0	32528	32816	
5125	0	32498	32742	
5126	0	32542	32684	
5127	0	32644	32628	
5128	0	32646	32620	
5129	0	32688	32718	
5130	0	32790	32674	
5131	0	32944	32736	
5132	0	33008	32588	
5133	0	32928	32598	
5134	0	32957	32692	
5135	0	32996	32608	
5136	0	32924	32751	
5137	0	33078	32736	
5138	0	32956	32711	
5139	0	32940	32700	
5140	0	32946	32830	
5141	0	33028	32900	
5142	0	32948	32867	
5143	0	32948	32864	
5144	0	32916	32810	
5145	0	32976	32771	
5146	0	32908	32822	
5147	0	32632	32790	
5148	0	32512	32756	
5149	0	32518	32798	
5150	0	32444	32622	
5151	0	32464	32620	
5152	0	32646	32652	
5153	0	32744	32728	
5154	0	32868	32710	
5155	0	32844	32798	
5156	0	32788	32666	
5157	0	32652	32794	
5158	0	32620	32870	
5159	0	32704	32736	
5160	0	32688	32710	
5161	0	32786	32712	
5162	0	32870	32744	
5163	0	32900	32728	
5164	0	32903	32828	
5165	0	32960	32752	
5166	0	32908	32790	
5167	0	32908	32796	
5168	0	32880	32810	
5169	0	32908	32818	
5170	0	32920	32750	
5171	0	32908	32790	
5172	0	32844	32840	
5173	0	32832	32724	
5174	0	32828	32766	
5175	0	32920	32652	
5176	0	32874	32775	
5177	0	32838	32834	
5178	0	32922	32718	
5179	0	32996	32822	
5180	0	32946	32742	
5181	0	32792	32708	
5182	0	32852	32839	
5183	0	33120	32862	
5184	0	33154	32796	
5185	0	33002	32717	
5186	0	32908	32764	
5187	0	32576	32796	
5188	0	32408	32881	
5189	0	32344	32768	
5190	0	32276	32816	
5191	0	32352	32892	
5192	0	32436	32644	
5193	0	32572	32728	
5194	0	32576	32702	
5195	0	32580	32816	
5196	0	32940	32748	
5197	0	33214	32760	
5198	0	33136	32726	
5199	0	32872	32800	
5200	0	32658	32668	
5201	0	32606	32702	
5202	0	32548	32589	
5203	0	32678	32738	
5204	0	32768	32840	
5205	0	32874	32784	
5206	0	32942	32758	
5207	0	33032	32812	
5208	0	33088	32814	
5209	0	32970	32718	
5210	0	32976	32903	
5211	0	32938	32810	
5212	0	32970	32704	
5213	0	32900	32748	
5214	0	32864	32688	
5215	0	32956	32736	
5216	0	32864	32907	
5217	0	32944	32768	
5218	0	33050	32892	
5219	0	33020	32708	
5220	0	32856	32823	
5221	0	32782	32670	
5222	0	32766	32704	
5223	0	32732	32711	
5224	0	32656	32815	
5225	0	32632	32852	
5226	0	32752	32625	
5227	0	32670	32692	
5228	0	32692	32726	
5229	0	32700	32862	
5230	0	32664	32766	
5231	0	32624	32870	
5232	0	32666	32736	
5233	0	32726	32830	
5234	0	32740	32814	
5235	0	32808	32792	
5236	0	32788	32818	
5237	0	32816	32708	
5238	0	32904	32785	
5239	0	32952	32711	
5240	0	32924	32692	
5241	0	32944	32758	
5242	0	32936	32852	
5243	0	32988	32736	
5244	0	32880	32782	
5245	0	32760	32688	
5246	0	32700	32663	
5247	0	32722	32694	
5248	0	32732	32774	
5249	0	32704	32846	
5250	0	32808	32976	
5251	0	32896	32936	
5252	0	32834	32737	
5253	0	32940	32684	
5254	0	32896	32644	
5255	0	32868	32738	
5256	0	32836	32688	
5257	0	32792	32760	
5258	0	32674	32766	
5259	0	32736	32870	
5260	0	32748	32842	
5261	0	32734	32688	
5262	0	32792	32634	
5263	0	32738	32788	
5264	0	32825	32597	
5265	0	32856	32711	
5266	0	32814	32672	
5267	0	32896	32775	
5268	0	32906	32798	
5269	0	32876	32834	
5270	0	32872	32800	
5271	0	32884	32960	
5272	0	32956	32862	
5273	0	32962	32918	
5274	0	32892	32772	
5275	0	32790	32668	
5276	0	32700	32644	
5277	0	32660	32775	
5278	0	32776	32892	
5279	0	32960	32742	
5280	0	33088	32727	
5281	0	32904	32820	
5282	0	32760	32743	
5283	0	32722	32770	
5284	0	32616	32818	
5285	0	32592	32854	
5286	0	32590	32775	
5287	0	32606	32794	
5288	0	32768	32668	
5289	0	32862	32764	
5290	0	32880	32800	
5291	0	32784	32748	
5292	0	32802	32808	
5293	0	32828	32804	
5294	0	32840	32775	
5295	0	32818	32846	
5296	0	32878	32864	
5297	0	32864	32806	
5298	0	32874	32794	
5299	0	32904	32750	
5300	0	33024	32758	
5301	0	33050	32609	
5302	0	32938	32743	
5303	0	32704	32751	
5304	0	32572	32766	
5305	0	32600	32742	
5306	0	32754	32716	
5307	0	32752	32792	
5308	0	32786	32716	
5309	0	32904	32814	
5310	0	32872	32766	
5311	0	32906	32850	
5312	0	32944	32820	
5313	0	32836	32812	
5314	0	32814	32775	
5315	0	32792	32684	
5316	0	32890	32774	
5317	0	32894	32697	
5318	0	32864	32816	
5319	0	32876	32850	
5320	0	32808	32896	
5321	0	32668	32786	
5322	0	32572	32766	
5323	0	32568	32754	
5324	0	32588	32719	
5325	0	32644	32808	
5326	0	32864	32826	
5327	0	32796	32847	
5328	0	32840	32732	
5329	0	32916	32856	
5330	0	32884	32711	
5331	0	32852	32728	
5332	0	32886	32668	
5333	0	32826	32792	
5334	0	32792	32654	
5335	0	32820	32822	
5336	0	32832	32772	
5337	0	32896	32782	
5338	0	32872	32828	
5339	0	32904	32646	
5340	0	32904	32735	
5341	0	32888	32767	
5342	0	32790	32732	
5343	0	32860	32806	
5344	0	32800	32838	
5345	0	32796	32695	
5346	0	32818	32804	
5347	0	32832	32748	
5348	0	32808	32792	
5349	0	32814	32740	
5350	0	32854	32680	
5351	0	32802	32727	
5352	0	32812	32732	
5353	0	32788	32734	
5354	0	32840	32898	
5355	0	32724	32798	
5356	0	32790	32822	
5357	0	32788	32716	
5358	0	32760	32759	
5359	0	32812	32702	
5360	0	32856	32762	
5361	0	32882	32760	
5362	0	32836	32748	
5363	0	32864	32608	
5364	0	32788	32756	
5365	0	32790	32760	
5366	0	32772	32791	
5367	0	32810	32732	
5368	0	32712	32775	
5369	0	32800	32744	
5370	0	32812	32752	
5371	0	32768	32720	
5372	0	32824	32817	
5373	0	32834	32804	
5374	0	32866	32775	
5375	0	32848	32794	
5376	0	32852	32752	
5377	0	32832	32839	
5378	0	32828	32812	
5379	0	32842	32692	
5380	0	32768	32748	
5381	0	32750	32704	
5382	0	32772	32730	
5383	0	32808	32794	
5384	0	32752	32768	
5385	0	32820	32775	
5386	0	32796	32775	
5387	0	32764	32772	
5388	0	32840	32660	
5389	0	32872	32730	
5390	0	32856	32812	
5391	0	32814	32744	
5392	0	32826	32799	
5393	0	32830	32680	
5394	0	32816	32708	
5395	0	32834	32711	
5396	0	32830	32888	
5397	0	32870	32775	
5398	0	32846	32820	
5399	0	32838	32775	
5400	0	32820	32900	
5401	0	32798	32748	
5402	0	32828	32636	
5403	0	32828	32700	
5404	0	32784	32694	
5405	0	32794	32730	
5406	0	32828	32760	
5407	0	32830	32942	
5408	0	32804	32738	
5409	0	32804	32804	
5410	0	32776	32852	
5411	0	32812	32860	
5412	0	32848	32717	
5413	0	32869	32735	
5414	0	32814	32694	
5415	0	32800	32722	
5416	0	32786	32728	
5417	0	32878	32740	
5418	0	32756	32631	
5419	0	32888	32842	
5420	0	32868	32756	
5421	0	32820	32864	
5422	0	32756	32870	
5423	0	32884	32708	
5424	0	32761	32775	
5425	0	32878	32714	
5426	0	32896	32748	
5427	0	32784	32642	
5428	0	32756	32746	
5429	0	32812	32788	
5430	0	32790	32756	
5431	0	32812	32682	
5432	0	32834	32766	
5433	0	32824	32774	
5434	0	32860	32786	
5435	0	32858	32823	
5436	0	32836	32860	
5437	0	32808	32854	
5438	0	32762	32752	
5439	0	32774	32760	
5440	0	32868	32666	
5441	0	32844	32710	
5442	0	32778	32842	
5443	0	32840	32812	
5444	0	32780	32817	
5445	0	32776	32814	
5446	0	32816	32695	
5447	0	32820	32734	
5448	0	32800	32698	
5449	0	32864	32804	
5450	0	32858	32820	
5451	0	32804	32704	
5452	0	32904	32810	
5453	0	32824	32807	
5454	0	32900	32738	
5455	0	32808	32736	
5456	0	32868	32788	
5457	0	32844	32846	
5458	0	32832	32748	
5459	0	32840	32830	
5460	0	32798	32791	
5461	0	32880	32874	
5462	0	32794	32828	
5463	0	32824	32754	
5464	0	32776	32775	
5465	0	32800	32690	
5466	0	32796	32790	
5467	0	32720	32772	
5468	0	32816	32764	
5469	0	32748	32790	
5470	0	32796	32806	
5471	0	32848	32768	
5472	0	32832	32726	
5473	0	32842	32797	
5474	0	32856	32646	
5475	0	32772	32823	
5476	0	32764	32821	
5477	0	32810	32860	
5478	0	32792	32892	
5479	0	32756	32838	
5480	0	32840	32868	
5481	0	32824	32805	
5482	0	32898	32918	
5483	0	32972	32772	
5484	0	32836	32916	
5485	0	32904	32866	
5486	0	32824	32720	
5487	0	32824	32738	
5488	0	32720	32628	
5489	0	32744	32582	
5490	0	32676	32462	
5491	0	32700	32610	
5492	0	32772	32568	
5493	0	32686	32644	
5494	0	32740	32598	
5495	0	32666	32554	
5496	0	32698	32596	
5497	0	32774	32680	
5498	0	32790	32796	
5499	0	32760	32897	
5500	0	32924	32720	
5501	0	32828	32750	
5502	0	32802	32644	
5503	0	32836	32775	
5504	0	32856	32640	
5505	0	32810	32846	
5506	0	32802	32774	
5507	0	32836	32872	
5508	0	32822	32914	
5509	0	32848	32804	
5510	0	32852	32984	
5511	0	32784	32890	
5512	0	32924	32836	
5513	0	32832	32820	
5514	0	32816	32863	
5515	0	32898	32734	
5516	0	32860	32804	
5517	0	32844	32838	
5518	0	32960	32959	
5519	0	32844	32818	
5520	0	32887	32722	
5521	0	32752	32802	
5522	0	32766	32758	
5523	0	32812	32839	
5524	0	32728	32774	
5525	0	32740	32692	
5526	0	32838	32752	
5527	0	32752	32732	
5528	0	32772	32848	
5529	0	32784	32766	
5530	0	32798	32720	
5531	0	32808	32724	
5532	0	32804	32702	
5533	0	32844	32814	
5534	0	32820	32775	
5535	0	32874	32673	
5536	0	32866	32851	
5537	0	32816	32774	
5538	0	32872	32728	
5539	0	32764	32866	
5540	0	32892	32826	
5541	0	32848	32674	
5542	0	32878	32814	
5543	0	32832	32817	
5544	0	32816	32846	
5545	0	32844	32839	
5546	0	32762	32744	
5547	0	32782	32679	
5548	0	32804	32712	
5549	0	32812	32660	
5550	0	32758	32674	
5551	0	32796	32792	
5552	0	32808	32772	
5553	0	32792	32758	
5554	0	32830	32738	
5555	0	32780	32860	
5556	0	32848	32807	
5557	0	32840	32752	
5558	0	32818	32836	
5559	0	32868	32762	
5560	0	32888	32839	
5561	0	32828	32774	
5562	0	32852	32720	
5563	0	32858	32732	
5564	0	32816	32807	
5565	0	32772	32820	
5566	0	32792	32750	
5567	0	32864	32760	
5568	0	32784	32820	
5569	0	32756	32726	
5570	0	32814	32870	
5571	0	32806	32824	
5572	0	32820	32647	
5573	0	32856	32775	
5574	0	32852	32800	
5575	0	32856	32820	
5576	0	32818	32774	
5577	0	32808	32666	
5578	0	32844	32788	
5579	0	32888	32711	
5580	0	32848	32814	
5581	0	32836	32775	
5582	0	32780	32767	
5583	0	32744	32794	
5584	0	32774	32622	
5585	0	32808	32736	
5586	0	32720	32692	
5587	0	32824	32784	
5588	0	32804	32830	
5589	0	32802	32760	
5590	0	32806	32836	
5591	0	32820	32720	
5592	0	32798	32830	
5593	0	32834	32798	
5594	0	32810	32718	
5595	0	32800	32692	
5596	0	32876	32572	
5597	0	32814	32780	
5598	0	32878	32894	
5599	0	32862	32666	
5600	0	32788	32782	
5601	0	32778	32768	
5602	0	32798	32806	
5603	0	32812	32775	
5604	0	32860	32774	
5605	0	32784	32871	
5606	0	32813	32746	
5607	0	32864	32830	
5608	0	32774	32852	
5609	0	32750	32692	
5610	0	32752	32746	
5611	0	32800	32790	
5612	0	32780	32839	
5613	0	32738	32774	
5614	0	32822	32860	
5615	0	32870	32684	
5616	0	32852	32794	
5617	0	32880	32812	
5618	0	32880	32836	
5619	0	32900	32854	
5620	0	32868	32716	
5621	0	32860	32750	
5622	0	32828	32838	
5623	0	32794	32682	
5624	0	32840	32692	
5625	0	32804	32758	
5626	0	32856	32712	
5627	0	32806	32798	
5628	0	32709	32722	
5629	0	32768	32688	
5630	0	32758	32743	
5631	0	32738	32874	
5632	0	32796	32794	
5633	0	32760	32704	
5634	0	32844	32816	
5635	0	32804	32702	
5636	0	32796	32692	
5637	0	32868	32874	
5638	0	32892	32774	
5639	0	32744	32818	
5640	0	32844	32766	
5641	0	32890	32888	
5642	0	32840	32679	
5643	0	32806	32724	
5644	0	32792	32742	
5645	0	32856	32788	
5646	0	32772	32732	
5647	0	32828	32743	
5648	0	32720	32748	
5649	0	32800	32810	
5650	0	32740	32718	
5651	0	32782	32790	
5652	0	32722	32870	
5653	0	32668	32750	
5654	0	32770	32822	
5655	0	32708	32674	
5656	0	32754	32738	
5657	0	32838	32826	
5658	0	32770	32770	
5659	0	32908	32766	
5660	0	32860	32871	
5661	0	32804	32800	
5662	0	32894	32722	
5663	0	32876	32903	
5664	0	32832	32718	
5665	0	32806	32791	
5666	0	32780	32840	
5667	0	32812	32686	
5668	0	32788	32728	
5669	0	32704	32862	
5670	0	32776	32863	
5671	0	32768	32846	
5672	0	32836	32676	
5673	0	32780	32686	
5674	0	32752	32786	
5675	0	32798	32804	
5676	0	32828	32689	
5677	0	32804	32868	
5678	0	32836	32668	
5679	0	32772	32794	
5680	0	32796	32756	
5681	0	32840	32754	
5682	0	32844	32714	
5683	0	32892	32746	
5684	0	32860	32750	
5685	0	32916	32742	
5686	0	32922	32766	
5687	0	32942	32830	
5688	0	32962	32696	
5689	0	32880	32647	
5690	0	32830	32786	
5691	0	32708	32756	
5692	0	32648	32746	
5693	0	32644	32852	
5694	0	32636	32734	
5695	0	32724	32688	
5696	0	32792	32846	
5697	0	32748	32790	
5698	0	32844	32836	
5699	0	32860	32806	
5700	0	32876	32844	
5701	0	32886	32660	
5702	0	32916	32708	
5703	0	32850	32826	
5704	0	32868	32748	
5705	0	32892	32846	
5706	0	32908	32775	
5707	0	32898	32743	
5708	0	32862	32674	
5709	0	32852	32690	
5710	0	32824	32786	
5711	0	32866	32868	
5712	0	32812	32920	
5713	0	32772	32708	
5714	0	32788	32652	
5715	0	32792	32704	
5716	0	32812	32760	
5717	0	32802	32798	
5718	0	32820	32750	
5719	0	32798	32766	
5720	0	32780	32762	
5721	0	32764	32775	
5722	0	32818	32820	
5723	0	32804	32814	
5724	0	32792	32640	
5725	0	32754	32772	
5726	0	32800	32742	
5727	0	32790	32774	
5728	0	32808	32807	
5729	0	32752	32732	
5730	0	32804	32708	
5731	0	32816	32738	
5732	0	32740	32734	
5733	0	32760	32804	
5734	0	32848	32903	
5735	0	32900	32656	
5736	0	32798	32628	
5737	0	32792	32722	
5738	0	32814	32804	
5739	0	32784	32806	
5740	0	32730	32862	
5741	0	32788	32799	
5742	0	32792	32748	
5743	0	32798	32812	
5744	0	32712	32740	
5745	0	32832	32836	
5746	0	32852	32847	
5747	0	32814	32664	
5748	0	32854	32834	
5749	0	32900	32768	
5750	0	32878	32664	
5751	0	32866	32768	
5752	0	32872	32855	
5753	0	32868	32886	
5754	0	32864	32804	
5755	0	32878	32792	
5756	0	32904	32804	
5757	0	32784	32772	
5758	0	32830	32846	
5759	0	32864	32775	
5760	0	32796	32680	
5761	0	32828	32744	
5762	0	32814	32768	
5763	0	32752	32816	
5764	0	32850	32804	
5765	0	32852	32806	
5766	0	32800	32834	
5767	0	32798	32748	
5768	0	32800	32858	
5769	0	32794	32722	
5770	0	32786	32772	
5771	0	32822	32734	
5772	0	32820	32756	
5773	0	32834	32786	
5774	0	32788	32856	
5775	0	32768	32836	
5776	0	32808	32726	
5777	0	32746	32854	
5778	0	32732	32680	
5779	0	32778	32772	
5780	0	32866	32742	
5781	0	32788	32744	
5782	0	32772	32760	
5783	0	32776	32836	
5784	0	32775	32711	
5785	0	32808	32788	
5786	0	32764	32647	
5787	0	32788	32764	
5788	0	32828	32690	
5789	0	32802	32810	
5790	0	32800	32672	
5791	0	32890	32786	
5792	0	32900	32746	
5793	0	32950	32804	
5794	0	32844	32775	
5795	0	32840	32770	
5796	0	32824	32786	
5797	0	32864	32802	
5798	0	32858	32874	
5799	0	32888	32774	
5800	0	32796	32759	
5801	0	32848	32759	
5802	0	32814	32844	
5803	0	32918	32874	
5804	0	32754	32839	
5805	0	32740	32718	
5806	0	32788	32775	
5807	0	32824	32774	
5808	0	32824	32752	
5809	0	32860	32796	
5810	0	32838	32710	
5811	0	32888	32742	
5812	0	32792	32742	
5813	0	32852	32824	
5814	0	32800	32724	
5815	0	32804	32870	
5816	0	32836	32732	
5817	0	32806	32711	
5818	0	32788	32878	
5819	0	32790	32712	
5820	0	32808	32814	
5821	0	32830	32775	
5822	0	32782	32706	
5823	0	32744	32788	
5824	0	32816	32720	
5825	0	32820	32772	
5826	0	32772	32727	
5827	0	32846	32634	
5828	0	32778	32718	
5829	0	32764	32708	
5830	0	32836	32788	
5831	0	32792	32804	
5832	0	32792	32810	
5833	0	32780	32780	
5834	0	32744	32830	
5835	0	32748	32744	
5836	0	32806	32806	
5837	0	32788	32792	
5838	0	32832	32724	
5839	0	32798	32868	
5840	0	32766	32846	
5841	0	32816	32714	
5842	0	32838	32724	
5843	0	32798	32790	
5844	0	32718	32727	
5845	0	32804	32831	
5846	0	32812	32760	
5847	0	32800	32734	
5848	0	32766	32768	
5849	0	32844	32830	
5850	0	32752	32762	
5851	0	32820	32791	
5852	0	32872	32838	
5853	0	32889	32624	
5854	0	32868	32796	
5855	0	32812	32759	
5856	0	32828	32863	
5857	0	32862	32800	
5858	0	32808	32800	
5859	0	32880	32720	
5860	0	32808	32687	
5861	0	32788	32678	
5862	0	32862	32840	
5863	0	32838	32734	
5864	0	32764	32860	
5865	0	32798	32712	
5866	0	32792	32728	
5867	0	32804	32756	
5868	0	32800	32734	
5869	0	32804	32799	
5870	0	32858	32724	
5871	0	32816	32814	
5872	0	32804	32825	
5873	0	32812	32722	
5874	0	32796	32788	
5875	0	32844	32728	
5876	0	32770	32647	
5877	0	32820	32842	
5878	0	32856	32810	
5879	0	32808	32835	
5880	0	32798	32706	
5881	0	32826	32726	
5882	0	32848	32886	
5883	0	32816	32784	
5884	0	32856	32824	
5885	0	32860	32730	
5886	0	32832	32604	
5887	0	32840	32751	
5888	0	32780	32738	
5889	0	32828	32766	
5890	0	32796	32692	
5891	0	32856	32711	
5892	0	32860	32712	
5893	0	32852	32882	
5894	0	32806	32854	
5895	0	32778	32796	
5896	0	32800	32740	
5897	0	32750	32818	
5898	0	32720	32743	
5899	0	32805	32736	
5900	0	32824	32764	
5901	0	32762	32794	
5902	0	32772	32868	
5903	0	32820	32656	
5904	0	32792	32762	
5905	0	32876	32774	
5906	0	32860	32802	
5907	0	32772	32838	
5908	0	32778	32668	
5909	0	32808	32794	
5910	0	32868	32796	
5911	0	32778	32824	
5912	0	32808	32672	
5913	0	32838	32748	
5914	0	32810	32820	
5915	0	32820	32743	
5916	0	32830	32872	
5917	0	32804	32736	
5918	0	32820	32866	
5919	0	32862	32796	
5920	0	32770	32750	
5921	0	32808	32848	
5922	0	32810	32644	
5923	0	32790	32788	
5924	0	32852	32764	
5925	0	32796	32750	
5926	0	32766	32676	
5927	0	32798	32849	
5928	0	32756	32758	
5929	0	32792	32734	
5930	0	32878	32730	
5931	0	32858	32754	
5932	0	32824	32840	
5933	0	32765	32842	
5934	0	32742	32866	
5935	0	32776	32718	
5936	0	32837	32668	
5937	0	32852	32735	
5938	0	32788	32788	
5939	0	32804	32880	
5940	0	32824	32686	
5941	0	32818	32764	
5942	0	32816	32712	
5943	0	32764	32826	
5944	0	32822	32775	
5945	0	32856	32764	
5946	0	32860	32810	
5947	0	32840	32758	
5948	0	32780	32742	
5949	0	32808	32703	
5950	0	32766	32846	
5951	0	32788	32718	
5952	0	32792	32816	
5953	0	32818	32737	
5954	0	32798	32683	
5955	0	32784	32818	
5956	0	32826	32718	
5957	0	32772	32807	
5958	0	32750	32804	
5959	0	32794	32799	
5960	0	32848	32734	
5961	0	32800	32654	
5962	0	32812	32770	
5963	0	32752	32762	
5964	0	32808	32764	
5965	0	32866	32750	
5966	0	32858	32774	
5967	0	32796	32698	
5968	0	32822	32700	
5969	0	32796	32754	
5970	0	32840	32870	
5971	0	32860	32760	
5972	0	32828	32775	
5973	0	32820	32826	
5974	0	32872	32750	
5975	0	32866	32678	
5976	0	32836	32759	
5977	0	32790	32912	
5978	0	32836	32742	
5979	0	32864	32876	
5980	0	32932	32692	
5981	0	32833	32775	
5982	0	32742	32830	
5983	0	32728	32760	
5984	0	32872	32767	
5985	0	32872	32820	
5986	0	32820	32708	
5987	0	32820	32851	
5988	0	32916	32760	
5989	0	32864	32711	
5990	0	32836	32748	
5991	0	32824	32830	
5992	0	32834	32682	
5993	0	32840	32753	
5994	0	32824	32816	
5995	0	32828	32839	
5996	0	32840	32750	
5997	0	32798	32804	
5998	0	32842	32878	
5999	0	32792	32710	
6000	0	32856	32680	
6001	0	32852	32760	
6002	0	32858	32810	
6003	0	32834	32774	
6004	0	32834	32753	
6005	0	32764	32772	
6006	0	32834	32630	
6007	0	32754	32618	
6008	0	32750	32743	
6009	0	32748	32772	
6010	0	32752	32826	
6011	0	32862	32730	
6012	0	32758	32735	
