# OpenSignals Text File Format. Version 1
# {"00:07:80:8C:0A:39": {"position": 0, "device": "biosignalsplux", "device name": "00:07:80:8C:0A:39", "device connection": "BTH00:07:80:8C:0A:39", "sampling rate": 1000, "resolution": [16, 16], "firmware version": 776, "comments": "", "keywords": "", "mode": 0, "sync interval": 2, "date": "2023-3-16", "time": "13:30:43.710", "channels": [1, 2], "sensor": ["EMG", "EMG"], "label": ["CH1", "CH2"], "column": ["nSeq", "DI", "CH1", "CH2"], "special": [{"SpO2": [80, 40, 5, 4, 3, 3]}, {"SpO2": [80, 40, 5, 4, 3, 3]}, {"SpO2": [80, 40, 5, 4, 3, 3]}, {"SpO2": [80, 40, 5, 4, 3, 3]}, {"SpO2": [80, 40, 5, 4, 3, 3]}, {"SpO2": [80, 40, 5, 4, 3, 3]}, {"SpO2": [80, 40, 5, 4, 3, 3]}, {"SpO2": [80, 40, 5, 4, 3, 3]}], "digital IO": [0, 1], "sleeve color": ["gray", "yellow"], "convertedValues": 0}}
# EndOfHeader
0	0	32758	32774	
1	0	32804	32788	
2	0	32814	32825	
3	0	32804	32775	
4	0	32844	32668	
5	0	32864	32774	
6	0	32841	32735	
7	0	32828	32876	
8	0	32756	32836	
9	0	32850	32708	
10	0	32776	32760	
11	0	32802	32812	
12	0	32848	32732	
13	0	32848	32802	
14	0	32828	32775	
15	0	32756	32724	
16	0	32824	32855	
17	0	32760	32652	
18	0	32844	32736	
19	0	32812	32764	
20	0	32790	32748	
21	0	32840	32672	
22	0	32800	32784	
23	0	32872	32751	
24	0	32872	32775	
25	0	32792	32758	
26	0	32884	32748	
27	0	32830	32798	
28	0	32820	32849	
29	0	32794	32804	
30	0	32830	32732	
31	0	32786	32788	
32	0	32792	32700	
33	0	32772	32706	
34	0	32840	32750	
35	0	32740	32792	
36	0	32812	32697	
37	0	32792	32768	
38	0	32862	32760	
39	0	32740	32688	
40	0	32836	32728	
41	0	32776	32734	
42	0	32840	32679	
43	0	32816	32775	
44	0	32788	32847	
45	0	32796	32870	
46	0	32760	32886	
47	0	32824	32810	
48	0	32840	32752	
49	0	32910	32690	
50	0	32900	32798	
51	0	32824	32798	
52	0	32786	32756	
53	0	32800	32732	
54	0	32740	32838	
55	0	32834	32832	
56	0	32772	32766	
57	0	32808	32816	
58	0	32844	32700	
59	0	32848	32794	
60	0	32864	32654	
61	0	32808	32748	
62	0	32840	32670	
63	0	32796	32868	
64	0	32762	32844	
65	0	32814	32820	
66	0	32756	32819	
67	0	32808	32742	
68	0	32848	32766	
69	0	32854	32706	
70	0	32860	32808	
71	0	32784	32748	
72	0	32808	32812	
73	0	32868	32788	
74	0	32800	32886	
75	0	32840	32868	
76	0	32852	32744	
77	0	32832	32767	
78	0	32792	32744	
79	0	32740	32863	
80	0	32812	32798	
81	0	32776	32724	
82	0	32796	32736	
83	0	32742	32728	
84	0	32796	32743	
85	0	32844	32625	
86	0	32856	32748	
87	0	32806	32711	
88	0	32772	32752	
89	0	32764	32662	
90	0	32760	32775	
91	0	32792	32722	
92	0	32888	32796	
93	0	32808	32718	
94	0	32856	32802	
95	0	32808	32865	
96	0	32834	32724	
97	0	32832	32812	
98	0	32800	32770	
99	0	32876	32754	
100	0	32810	32830	
101	0	32816	32710	
102	0	32804	32847	
103	0	32872	32710	
104	0	32772	32836	
105	0	32793	32724	
106	0	32856	32874	
107	0	32818	32800	
108	0	32844	32814	
109	0	32830	32784	
110	0	32860	32788	
111	0	32824	32790	
112	0	32816	32800	
113	0	32740	32806	
114	0	32730	32711	
115	0	32838	32775	
116	0	32766	32744	
117	0	32824	32750	
118	0	32820	32838	
119	0	32788	32734	
120	0	32830	32770	
121	0	32800	32793	
122	0	32820	32816	
123	0	32824	32817	
124	0	32812	32812	
125	0	32832	32726	
126	0	32824	32864	
127	0	32798	32812	
128	0	32800	32720	
129	0	32856	32784	
130	0	32858	32736	
131	0	32878	32802	
132	0	32834	32838	
133	0	32868	32690	
134	0	32810	32748	
135	0	32738	32702	
136	0	32728	32732	
137	0	32832	32830	
138	0	32826	32726	
139	0	32844	32808	
140	0	32848	32862	
141	0	32802	32796	
142	0	32836	32775	
143	0	32804	32618	
144	0	32832	32842	
145	0	32776	32752	
146	0	32832	32798	
147	0	32808	32750	
148	0	32820	32775	
149	0	32760	32788	
150	0	32806	32830	
151	0	32828	32726	
152	0	32856	32798	
153	0	32788	32775	
154	0	32864	32708	
155	0	32856	32766	
156	0	32826	32734	
157	0	32788	32824	
158	0	32828	32819	
159	0	32816	32816	
160	0	32872	32904	
161	0	32772	32775	
162	0	32770	32736	
163	0	32734	32640	
164	0	32888	32721	
165	0	32888	32725	
166	0	32910	32796	
167	0	32844	32775	
168	0	32836	32726	
169	0	32804	32790	
170	0	32760	32722	
171	0	32738	32823	
172	0	32820	32820	
173	0	32826	32775	
174	0	32748	32886	
175	0	32804	32816	
176	0	32812	32880	
177	0	32784	32742	
178	0	32852	32742	
179	0	32858	32743	
180	0	32884	32759	
181	0	32808	32810	
182	0	32756	32690	
183	0	32774	32822	
184	0	32798	32728	
185	0	32844	32760	
186	0	32828	32618	
187	0	32804	32742	
188	0	32828	32647	
189	0	32794	32791	
190	0	32784	32712	
191	0	32804	32798	
192	0	32800	32775	
193	0	32760	32846	
194	0	32796	32716	
195	0	32870	32756	
196	0	32842	32632	
197	0	32818	32823	
198	0	32844	32754	
199	0	32840	32895	
200	0	32858	32818	
201	0	32740	32746	
202	0	32716	32784	
203	0	32744	32764	
204	0	32812	32774	
205	0	32764	32706	
206	0	32832	32775	
207	0	32852	32706	
208	0	32852	32802	
209	0	32816	32800	
210	0	32892	32714	
211	0	32848	32738	
212	0	32748	32762	
213	0	32854	32748	
214	0	32820	32666	
215	0	32852	32836	
216	0	32808	32852	
217	0	32872	32740	
218	0	32846	32820	
219	0	32784	32720	
220	0	32826	32870	
221	0	32716	32844	
222	0	32816	32740	
223	0	32804	32870	
224	0	32772	32806	
225	0	32820	32800	
226	0	32834	32846	
227	0	32816	32708	
228	0	32828	32775	
229	0	32778	32786	
230	0	32784	32720	
231	0	32762	32741	
232	0	32832	32730	
233	0	32784	32801	
234	0	32800	32740	
235	0	32816	32700	
236	0	32830	32774	
237	0	32832	32868	
238	0	32782	32644	
239	0	32888	32808	
240	0	32822	32812	
241	0	32828	32668	
242	0	32837	32742	
243	0	32824	32633	
244	0	32820	32804	
245	0	32788	32828	
246	0	32792	32718	
247	0	32784	32804	
248	0	32828	32754	
249	0	32832	32774	
250	0	32760	32900	
251	0	32800	32796	
252	0	32812	32818	
253	0	32780	32690	
254	0	32782	32724	
255	0	32824	32646	
256	0	32854	32784	
257	0	32788	32775	
258	0	32744	32612	
259	0	32778	32774	
260	0	32736	32762	
261	0	32804	32743	
262	0	32816	32826	
263	0	32848	32746	
264	0	32844	32712	
265	0	32804	32764	
266	0	32828	32712	
267	0	32824	32876	
268	0	32808	32802	
269	0	32844	32736	
270	0	32884	32792	
271	0	32918	32756	
272	0	32746	32826	
273	0	32856	32836	
274	0	32868	32788	
275	0	32808	32771	
276	0	32812	32719	
277	0	32854	32848	
278	0	32774	32775	
279	0	32804	32906	
280	0	32792	32822	
281	0	32784	32775	
282	0	32832	32836	
283	0	32832	32806	
284	0	32820	32724	
285	0	32796	32736	
286	0	32884	32688	
287	0	32718	32823	
288	0	32808	32782	
289	0	32768	32760	
290	0	32807	32724	
291	0	32804	32764	
292	0	32792	32694	
293	0	32800	32758	
294	0	32817	32660	
295	0	32832	32752	
296	0	32798	32722	
297	0	32818	32659	
298	0	32829	32770	
299	0	32794	32732	
300	0	32796	32799	
301	0	32788	32775	
302	0	32796	32689	
303	0	32740	32759	
304	0	32744	32744	
305	0	32782	32804	
306	0	32780	32758	
307	0	32858	32881	
308	0	32860	32839	
309	0	32804	32647	
310	0	32869	32920	
311	0	32808	32790	
312	0	32856	32830	
313	0	32855	32775	
314	0	32800	32638	
315	0	32864	32802	
316	0	32852	32714	
317	0	32786	32742	
318	0	32800	32710	
319	0	32822	32708	
320	0	32798	32748	
321	0	32776	32752	
322	0	32816	32796	
323	0	32856	32695	
324	0	32872	32744	
325	0	32820	32740	
326	0	32828	32672	
327	0	32892	32590	
328	0	32898	32519	
329	0	32858	32506	
330	0	32930	32568	
331	0	32840	32641	
332	0	32862	32572	
333	0	32840	32478	
334	0	32852	32492	
335	0	32848	32428	
336	0	32804	32592	
337	0	32812	32586	
338	0	32888	32504	
339	0	32908	32566	
340	0	32822	32528	
341	0	32734	32754	
342	0	32817	32812	
343	0	32786	32767	
344	0	32756	32988	
345	0	32684	33135	
346	0	32724	33322	
347	0	32708	33447	
348	0	32636	33552	
349	0	32640	33514	
350	0	32552	33659	
351	0	32562	33692	
352	0	32536	33682	
353	0	32592	33602	
354	0	32600	33352	
355	0	32628	33286	
356	0	32712	32950	
357	0	32816	32876	
358	0	32868	32712	
359	0	32808	32484	
360	0	32916	32456	
361	0	32902	32383	
362	0	32850	32204	
363	0	32888	32327	
364	0	32940	32206	
365	0	32904	32322	
366	0	32916	32302	
367	0	32942	32400	
368	0	32908	32389	
369	0	32876	32536	
370	0	32884	32436	
371	0	32872	32636	
372	0	32844	32640	
373	0	32886	32530	
374	0	32830	32664	
375	0	32888	32682	
376	0	32856	32774	
377	0	32860	32838	
378	0	32898	32735	
379	0	32900	32803	
380	0	32852	32702	
381	0	32836	32808	
382	0	32864	32642	
383	0	32914	32775	
384	0	32924	32754	
385	0	32820	32796	
386	0	32888	32811	
387	0	32822	32934	
388	0	32798	32876	
389	0	32801	32743	
390	0	32852	32830	
391	0	32852	32756	
392	0	32772	32807	
393	0	32742	32850	
394	0	32769	32836	
395	0	32760	32842	
396	0	32732	32744	
397	0	32824	32772	
398	0	32776	32724	
399	0	32788	32720	
400	0	32780	32667	
401	0	32748	32848	
402	0	32816	32824	
403	0	32804	32870	
404	0	32792	32880	
405	0	32832	32682	
406	0	32880	32712	
407	0	32798	32711	
408	0	32752	32712	
409	0	32784	32732	
410	0	32800	32830	
411	0	32772	32670	
412	0	32768	32871	
413	0	32812	32792	
414	0	32800	32836	
415	0	32804	32774	
416	0	32814	32820	
417	0	32792	32766	
418	0	32800	32757	
419	0	32796	32754	
420	0	32792	32630	
421	0	32808	32740	
422	0	32758	32712	
423	0	32756	32711	
424	0	32804	32720	
425	0	32772	32756	
426	0	32870	32714	
427	0	32864	32816	
428	0	32808	32800	
429	0	32826	32825	
430	0	32768	32790	
431	0	32744	32775	
432	0	32784	32794	
433	0	32816	32668	
434	0	32808	32824	
435	0	32812	32728	
436	0	32804	32775	
437	0	32814	32735	
438	0	32788	32703	
439	0	32808	32740	
440	0	32768	32775	
441	0	32844	32728	
442	0	32864	32838	
443	0	32790	32700	
444	0	32816	32772	
445	0	32816	32732	
446	0	32856	32826	
447	0	32784	32764	
448	0	32812	32743	
449	0	32820	32826	
450	0	32868	32804	
451	0	32812	32814	
452	0	32830	32786	
453	0	32876	32718	
454	0	32846	32788	
455	0	32824	32686	
456	0	32820	32772	
457	0	32776	32742	
458	0	32860	32730	
459	0	32784	32744	
460	0	32788	32696	
461	0	32820	32807	
462	0	32844	32818	
463	0	32816	32895	
464	0	32820	32832	
465	0	32802	32656	
466	0	32790	32743	
467	0	32858	32826	
468	0	32810	32800	
469	0	32788	32772	
470	0	32792	32730	
471	0	32833	32736	
472	0	32816	32664	
473	0	32768	32729	
474	0	32812	32750	
475	0	32776	32716	
476	0	32794	32775	
477	0	32778	32839	
478	0	32760	32706	
479	0	32876	32736	
480	0	32817	32775	
481	0	32846	32852	
482	0	32788	32826	
483	0	32732	32722	
484	0	32824	32774	
485	0	32816	32743	
486	0	32888	32791	
487	0	32804	32880	
488	0	32916	32882	
489	0	32800	32731	
490	0	32732	32706	
491	0	32836	32820	
492	0	32802	32743	
493	0	32804	32743	
494	0	32804	32772	
495	0	32842	32684	
496	0	32812	32775	
497	0	32840	32748	
498	0	32824	32792	
499	0	32744	32790	
500	0	32769	32738	
501	0	32804	32810	
502	0	32798	32770	
503	0	32832	32775	
504	0	32812	32848	
505	0	32750	32800	
506	0	32836	32736	
507	0	32860	32680	
508	0	32884	32746	
509	0	32800	32614	
510	0	32772	32786	
511	0	32844	32740	
512	0	32874	32775	
513	0	32800	32780	
514	0	32766	32804	
515	0	32860	32772	
516	0	32808	32830	
517	0	32836	32835	
518	0	32792	32866	
519	0	32808	32742	
520	0	32792	32660	
521	0	32870	32734	
522	0	32818	32671	
523	0	32844	32775	
524	0	32730	32788	
525	0	32792	32678	
526	0	32788	32764	
527	0	32804	32750	
528	0	32792	32812	
529	0	32856	32770	
530	0	32798	32838	
531	0	32752	32760	
532	0	32876	32806	
533	0	32808	32835	
534	0	32844	32766	
535	0	32844	32666	
536	0	32892	32770	
537	0	32836	32774	
538	0	32808	32692	
539	0	32828	32764	
540	0	32832	32790	
541	0	32770	32775	
542	0	32796	32836	
543	0	32828	32788	
544	0	32750	32842	
545	0	32816	32799	
546	0	32802	32850	
547	0	32784	32687	
548	0	32820	32734	
549	0	32740	32612	
550	0	32816	32790	
551	0	32804	32750	
552	0	32834	32838	
553	0	32868	32849	
554	0	32812	32706	
555	0	32768	32726	
556	0	32768	32744	
557	0	32788	32794	
558	0	32748	32790	
559	0	32800	32708	
560	0	32874	32772	
561	0	32852	32655	
562	0	32744	32815	
563	0	32830	32882	
564	0	32788	32843	
565	0	32796	32820	
566	0	32792	32772	
567	0	32836	32754	
568	0	32846	32724	
569	0	32784	32754	
570	0	32802	32710	
571	0	32832	32720	
572	0	32720	32702	
573	0	32744	32756	
574	0	32788	32644	
575	0	32812	32720	
576	0	32840	32724	
577	0	32812	32816	
578	0	32836	32790	
579	0	32796	32740	
580	0	32814	32799	
581	0	32824	32736	
582	0	32804	32784	
583	0	32860	32743	
584	0	32780	32794	
585	0	32826	32774	
586	0	32780	32830	
587	0	32818	32740	
588	0	32776	32846	
589	0	32848	32766	
590	0	32798	32823	
591	0	32848	32823	
592	0	32780	32839	
593	0	32805	32844	
594	0	32812	32754	
595	0	32738	32732	
596	0	32862	32740	
597	0	32768	32804	
598	0	32768	32772	
599	0	32824	32836	
600	0	32792	32846	
601	0	32740	32678	
602	0	32816	32730	
603	0	32784	32735	
604	0	32850	32786	
605	0	32820	32791	
606	0	32792	32846	
607	0	32838	32847	
608	0	32865	32766	
609	0	32780	32802	
610	0	32834	32764	
611	0	32796	32775	
612	0	32800	32804	
613	0	32784	32816	
614	0	32784	32775	
615	0	32834	32756	
616	0	32790	32775	
617	0	32856	32684	
618	0	32826	32783	
619	0	32830	32852	
620	0	32828	32654	
621	0	32800	32767	
622	0	32824	32775	
623	0	32800	32708	
624	0	32832	32737	
625	0	32824	32738	
626	0	32785	32807	
627	0	32762	32727	
628	0	32868	32722	
629	0	32784	32768	
630	0	32798	32764	
631	0	32876	32708	
632	0	32842	32839	
633	0	32812	32732	
634	0	32848	32698	
635	0	32756	32770	
636	0	32776	32688	
637	0	32834	32794	
638	0	32836	32820	
639	0	32736	32743	
640	0	32832	32814	
641	0	32824	32630	
642	0	32784	32772	
643	0	32840	32697	
644	0	32852	32756	
645	0	32832	32737	
646	0	32856	32798	
647	0	32832	32830	
648	0	32848	32774	
649	0	32808	32804	
650	0	32796	32744	
651	0	32890	32775	
652	0	32780	32796	
653	0	32748	32788	
654	0	32746	32696	
655	0	32800	32792	
656	0	32840	32727	
657	0	32786	32800	
658	0	32872	32686	
659	0	32784	32676	
660	0	32846	32862	
661	0	32804	32736	
662	0	32792	32724	
663	0	32738	32724	
664	0	32788	32810	
665	0	32900	32646	
666	0	32874	32836	
667	0	32800	32816	
668	0	32832	32647	
669	0	32854	32846	
670	0	32804	32865	
671	0	32804	32710	
672	0	32844	32866	
673	0	32824	32870	
674	0	32780	32716	
675	0	32868	32764	
676	0	32814	32791	
677	0	32756	32654	
678	0	32784	32769	
679	0	32848	32782	
680	0	32784	32679	
681	0	32868	32754	
682	0	32828	32732	
683	0	32742	32806	
684	0	32766	32756	
685	0	32824	32775	
686	0	32804	32756	
687	0	32840	32716	
688	0	32786	32760	
689	0	32850	32646	
690	0	32816	32886	
691	0	32812	32724	
692	0	32806	32810	
693	0	32830	32835	
694	0	32756	32840	
695	0	32754	32775	
696	0	32840	32714	
697	0	32788	32823	
698	0	32836	32834	
699	0	32760	32711	
700	0	32872	32698	
701	0	32784	32775	
702	0	32772	32734	
703	0	32852	32816	
704	0	32744	32892	
705	0	32748	32770	
706	0	32808	32772	
707	0	32852	32806	
708	0	32814	32688	
709	0	32840	32830	
710	0	32840	32743	
711	0	32792	32863	
712	0	32804	32775	
713	0	32824	32743	
714	0	32820	32640	
715	0	32824	32838	
716	0	32844	32660	
717	0	32836	32812	
718	0	32772	32838	
719	0	32796	32722	
720	0	32834	32756	
721	0	32856	32647	
722	0	32808	32784	
723	0	32832	32774	
724	0	32736	32773	
725	0	32756	32783	
726	0	32882	32750	
727	0	32804	32852	
728	0	32812	32762	
729	0	32800	32676	
730	0	32784	32808	
731	0	32840	32743	
732	0	32852	32854	
733	0	32804	32866	
734	0	32830	32758	
735	0	32780	32746	
736	0	32812	32674	
737	0	32804	32816	
738	0	32782	32886	
739	0	32864	32772	
740	0	32838	32762	
741	0	32803	32700	
742	0	32834	32844	
743	0	32802	32736	
744	0	32816	32824	
745	0	32750	32744	
746	0	32798	32817	
747	0	32824	32903	
748	0	32802	32732	
749	0	32838	32762	
750	0	32802	32731	
751	0	32816	32774	
752	0	32780	32811	
753	0	32874	32674	
754	0	32866	32730	
755	0	32760	32670	
756	0	32744	32775	
757	0	32840	32728	
758	0	32840	32734	
759	0	32834	32812	
760	0	32884	32713	
761	0	32812	32815	
762	0	32784	32775	
763	0	32836	32831	
764	0	32832	32836	
765	0	32806	32678	
766	0	32780	32740	
767	0	32804	32728	
768	0	32788	32822	
769	0	32828	32796	
770	0	32852	32796	
771	0	32856	32838	
772	0	32820	32684	
773	0	32862	32806	
774	0	32821	32740	
775	0	32802	32712	
776	0	32817	32774	
777	0	32768	32641	
778	0	32796	32855	
779	0	32812	32775	
780	0	32744	32913	
781	0	32754	32764	
782	0	32800	32756	
783	0	32736	32830	
784	0	32888	32819	
785	0	32828	32721	
786	0	32826	32757	
787	0	32772	32802	
788	0	32800	32710	
789	0	32820	32844	
790	0	32828	32858	
791	0	32816	32852	
792	0	32828	32767	
793	0	32888	32700	
794	0	32740	32694	
795	0	32836	32836	
796	0	32788	32730	
797	0	32806	32844	
798	0	32862	32625	
799	0	32828	32754	
800	0	32704	32734	
801	0	32748	32710	
802	0	32776	32678	
803	0	32786	32708	
804	0	32844	32810	
805	0	32870	32764	
806	0	32734	32790	
807	0	32844	32801	
808	0	32836	32865	
809	0	32794	32758	
810	0	32849	32730	
811	0	32772	32818	
812	0	32782	32758	
813	0	32740	32686	
814	0	32806	32714	
815	0	32824	32644	
816	0	32804	32810	
817	0	32804	32748	
818	0	32900	32672	
819	0	32826	32752	
820	0	32830	32847	
821	0	32848	32735	
822	0	32766	32742	
823	0	32784	32720	
824	0	32806	32793	
825	0	32822	32790	
826	0	32868	32786	
827	0	32810	32824	
828	0	32844	32728	
829	0	32824	32803	
830	0	32844	32884	
831	0	32838	32702	
832	0	32824	32760	
833	0	32844	32812	
834	0	32808	32716	
835	0	32741	32794	
836	0	32808	32727	
837	0	32877	32775	
838	0	32852	32866	
839	0	32784	32630	
840	0	32814	32728	
841	0	32822	32770	
842	0	32820	32868	
843	0	32792	32752	
844	0	32812	32758	
845	0	32800	32808	
846	0	32864	32814	
847	0	32804	32714	
848	0	32804	32770	
849	0	32824	32878	
850	0	32858	32662	
851	0	32840	32818	
852	0	32792	32788	
853	0	32848	32880	
854	0	32800	32842	
855	0	32792	32726	
856	0	32858	32760	
857	0	32862	32670	
858	0	32880	32796	
859	0	32788	32802	
860	0	32798	32710	
861	0	32865	32735	
862	0	32752	32730	
863	0	32818	32766	
864	0	32742	32760	
865	0	32806	32834	
866	0	32844	32722	
867	0	32870	32670	
868	0	32776	32807	
869	0	32888	32759	
870	0	32810	32670	
871	0	32860	32680	
872	0	32776	32846	
873	0	32788	32766	
874	0	32714	32656	
875	0	32742	32740	
876	0	32752	32838	
877	0	32858	32900	
878	0	32826	32799	
879	0	32836	32726	
880	0	32776	32794	
881	0	32868	32706	
882	0	32820	32828	
883	0	32800	32708	
884	0	32752	32715	
885	0	32832	32704	
886	0	32816	32785	
887	0	32808	32849	
888	0	32840	32849	
889	0	32828	32812	
890	0	32836	32766	
891	0	32824	32775	
892	0	32866	32668	
893	0	32780	32738	
894	0	32752	32862	
895	0	32774	32828	
896	0	32718	32808	
897	0	32756	32828	
898	0	32772	32824	
899	0	32788	32800	
900	0	32772	32761	
901	0	32810	32680	
902	0	32890	32812	
903	0	32788	32664	
904	0	32788	32775	
905	0	32769	32737	
906	0	32842	32796	
907	0	32788	32839	
908	0	32832	32796	
909	0	32868	32808	
910	0	32836	32855	
911	0	32820	32839	
912	0	32792	32740	
913	0	32776	32828	
914	0	32768	32788	
915	0	32780	32796	
916	0	32784	32730	
917	0	32856	32820	
918	0	32836	32679	
919	0	32848	32796	
920	0	32920	32678	
921	0	32856	32830	
922	0	32780	32702	
923	0	32834	32860	
924	0	32752	32825	
925	0	32864	32775	
926	0	32802	32696	
927	0	32762	32710	
928	0	32804	32792	
929	0	32800	32775	
930	0	32798	32898	
931	0	32844	32810	
932	0	32906	32708	
933	0	32788	32774	
934	0	32808	32678	
935	0	32824	32808	
936	0	32844	32756	
937	0	32792	32792	
938	0	32824	32820	
939	0	32870	32835	
940	0	32824	32818	
941	0	32850	32704	
942	0	32804	32764	
943	0	32828	32702	
944	0	32800	32900	
945	0	32864	32716	
946	0	32768	32807	
947	0	32822	32706	
948	0	32840	32750	
949	0	32800	32775	
950	0	32832	32812	
951	0	32850	32692	
952	0	32808	32794	
953	0	32844	32774	
954	0	32824	32822	
955	0	32804	32808	
956	0	32844	32692	
957	0	32856	32727	
958	0	32816	32770	
959	0	32792	32775	
960	0	32748	32609	
961	0	32848	32750	
962	0	32800	32670	
963	0	32812	32738	
964	0	32862	32796	
965	0	32858	32866	
966	0	32786	32814	
967	0	32808	32712	
968	0	32804	32784	
969	0	32796	32840	
970	0	32800	32646	
971	0	32840	32798	
972	0	32800	32775	
973	0	32816	32852	
974	0	32841	32852	
975	0	32768	32682	
976	0	32814	32775	
977	0	32816	32710	
978	0	32792	32692	
979	0	32884	32817	
980	0	32856	32736	
981	0	32822	32818	
982	0	32840	32806	
983	0	32836	32728	
984	0	32764	32724	
985	0	32886	32720	
986	0	32860	32866	
987	0	32868	32799	
988	0	32856	32816	
989	0	32820	32766	
990	0	32820	32774	
991	0	32912	32930	
992	0	32834	32847	
993	0	32898	32707	
994	0	32824	32788	
995	0	32862	32638	
996	0	32868	32620	
997	0	32876	32628	
998	0	32885	32492	
999	0	32852	32476	
1000	0	32860	32398	
1001	0	32840	32550	
1002	0	32858	32401	
1003	0	32856	32388	
1004	0	32792	32512	
1005	0	32836	32532	
1006	0	32788	32440	
1007	0	32800	32544	
1008	0	32820	32474	
1009	0	32878	32566	
1010	0	32744	32638	
1011	0	32836	32747	
1012	0	32772	32830	
1013	0	32752	32864	
1014	0	32636	33086	
1015	0	32740	33212	
1016	0	32640	33407	
1017	0	32582	33468	
1018	0	32576	33502	
1019	0	32510	33638	
1020	0	32572	33700	
1021	0	32646	33636	
1022	0	32616	33543	
1023	0	32680	33516	
1024	0	32684	33384	
1025	0	32708	33190	
1026	0	32774	33060	
1027	0	32804	32742	
1028	0	32808	32644	
1029	0	32809	32546	
1030	0	32800	32363	
1031	0	32856	32284	
1032	0	32874	32286	
1033	0	32892	32242	
1034	0	32908	32254	
1035	0	32874	32340	
1036	0	32896	32431	
1037	0	32888	32430	
1038	0	32968	32388	
1039	0	32884	32496	
1040	0	32908	32634	
1041	0	32848	32486	
1042	0	32836	32608	
1043	0	32906	32744	
1044	0	32864	32684	
1045	0	32884	32716	
1046	0	32894	32742	
1047	0	32916	32796	
1048	0	32868	32806	
1049	0	32864	32666	
1050	0	32882	32868	
1051	0	32936	32772	
1052	0	32880	32828	
1053	0	32864	32710	
1054	0	32856	32808	
1055	0	32844	32708	
1056	0	32820	32796	
1057	0	32848	32750	
1058	0	32788	32852	
1059	0	32800	32818	
1060	0	32768	32759	
1061	0	32706	32826	
1062	0	32796	32832	
1063	0	32760	32775	
1064	0	32852	32794	
1065	0	32812	32786	
1066	0	32775	32812	
1067	0	32824	32686	
1068	0	32792	32892	
1069	0	32808	32748	
1070	0	32852	32700	
1071	0	32760	32808	
1072	0	32784	32772	
1073	0	32822	32902	
1074	0	32840	32866	
1075	0	32838	32652	
1076	0	32788	32738	
1077	0	32756	32710	
1078	0	32792	32652	
1079	0	32828	32738	
1080	0	32780	32762	
1081	0	32844	32711	
1082	0	32824	32775	
1083	0	32748	32710	
1084	0	32792	32790	
1085	0	32788	32799	
1086	0	32800	32892	
1087	0	32816	32823	
1088	0	32836	32670	
1089	0	32800	32760	
1090	0	32782	32766	
1091	0	32824	32794	
1092	0	32808	32817	
1093	0	32750	32737	
1094	0	32844	32838	
1095	0	32776	32740	
1096	0	32794	32760	
1097	0	32778	32791	
1098	0	32880	32724	
1099	0	32824	32756	
1100	0	32848	32788	
1101	0	32740	32718	
1102	0	32832	32844	
1103	0	32860	32844	
1104	0	32784	32756	
1105	0	32762	32814	
1106	0	32900	32800	
1107	0	32806	32751	
1108	0	32808	32832	
1109	0	32848	32775	
1110	0	32808	32667	
1111	0	32832	32758	
1112	0	32808	32790	
1113	0	32762	32794	
1114	0	32804	32750	
1115	0	32848	32692	
1116	0	32802	32729	
1117	0	32828	32806	
1118	0	32832	32758	
1119	0	32802	32702	
1120	0	32758	32711	
1121	0	32822	32807	
1122	0	32748	32804	
1123	0	32812	32702	
1124	0	32802	32824	
1125	0	32806	32852	
1126	0	32772	32697	
1127	0	32784	32775	
1128	0	32786	32682	
1129	0	32824	32768	
1130	0	32732	32775	
1131	0	32874	32752	
1132	0	32820	32775	
1133	0	32844	32775	
1134	0	32790	32800	
1135	0	32804	32775	
1136	0	32798	32740	
1137	0	32817	32634	
1138	0	32804	32806	
1139	0	32826	32732	
1140	0	32780	32736	
1141	0	32862	32674	
1142	0	32796	32772	
1143	0	32804	32856	
1144	0	32800	32732	
1145	0	32848	32742	
1146	0	32804	32788	
1147	0	32836	32676	
1148	0	32826	32828	
1149	0	32768	32764	
1150	0	32800	32708	
1151	0	32800	32868	
1152	0	32830	32764	
1153	0	32793	32818	
1154	0	32812	32754	
1155	0	32826	32816	
1156	0	32840	32814	
1157	0	32820	32712	
1158	0	32816	32838	
1159	0	32868	32774	
1160	0	32879	32746	
1161	0	32794	32726	
1162	0	32862	32832	
1163	0	32854	32676	
1164	0	32788	32736	
1165	0	32830	32686	
1166	0	32824	32846	
1167	0	32730	32798	
1168	0	32836	32824	
1169	0	32820	32760	
1170	0	32806	32806	
1171	0	32812	32886	
1172	0	32824	32756	
1173	0	32788	32832	
1174	0	32844	32662	
1175	0	32776	32756	
1176	0	32814	32724	
1177	0	32784	32726	
1178	0	32800	32614	
1179	0	32794	32775	
1180	0	32836	32680	
1181	0	32796	32774	
1182	0	32764	32756	
1183	0	32836	32836	
1184	0	32728	32758	
1185	0	32850	32668	
1186	0	32836	32770	
1187	0	32856	32732	
1188	0	32788	32822	
1189	0	32804	32814	
1190	0	32878	32721	
1191	0	32804	32800	
1192	0	32852	32768	
1193	0	32748	32740	
1194	0	32752	32807	
1195	0	32808	32758	
1196	0	32796	32836	
1197	0	32852	32820	
1198	0	32810	32700	
1199	0	32774	32764	
1200	0	32846	32720	
1201	0	32748	32719	
1202	0	32868	32732	
1203	0	32802	32742	
1204	0	32752	32764	
1205	0	32826	32826	
1206	0	32790	32726	
1207	0	32774	32774	
1208	0	32804	32722	
1209	0	32830	32774	
1210	0	32790	32722	
1211	0	32800	32752	
1212	0	32848	32860	
1213	0	32856	32828	
1214	0	32812	32874	
1215	0	32776	32748	
1216	0	32796	32864	
1217	0	32820	32694	
1218	0	32816	32866	
1219	0	32772	32718	
1220	0	32860	32759	
1221	0	32764	32798	
1222	0	32808	32760	
1223	0	32828	32830	
1224	0	32804	32738	
1225	0	32834	32823	
1226	0	32872	32740	
1227	0	32828	32774	
1228	0	32768	32794	
1229	0	32834	32775	
1230	0	32796	32758	
1231	0	32802	32775	
1232	0	32818	32712	
1233	0	32804	32848	
1234	0	32764	32796	
1235	0	32786	32816	
1236	0	32810	32800	
1237	0	32856	32724	
1238	0	32811	32650	
1239	0	32775	32712	
1240	0	32828	32723	
1241	0	32828	32773	
1242	0	32778	32721	
1243	0	32788	32735	
1244	0	32826	32775	
1245	0	32852	32674	
1246	0	32816	32742	
1247	0	32810	32807	
1248	0	32832	32864	
1249	0	32832	32789	
1250	0	32816	32770	
1251	0	32802	32818	
1252	0	32780	32838	
1253	0	32728	32703	
1254	0	32776	32804	
1255	0	32818	32742	
1256	0	32808	32764	
1257	0	32808	32809	
1258	0	32820	32716	
1259	0	32896	32852	
1260	0	32808	32724	
1261	0	32760	32870	
1262	0	32852	32862	
1263	0	32856	32679	
1264	0	32796	32828	
1265	0	32724	32716	
1266	0	32780	32737	
1267	0	32784	32762	
1268	0	32829	32828	
1269	0	32866	32718	
1270	0	32864	32770	
1271	0	32798	32821	
1272	0	32784	32724	
1273	0	32782	32816	
1274	0	32846	32849	
1275	0	32900	32810	
1276	0	32812	32774	
1277	0	32876	32666	
1278	0	32852	32790	
1279	0	32838	32746	
1280	0	32840	32712	
1281	0	32760	32742	
1282	0	32820	32678	
1283	0	32790	32838	
1284	0	32748	32799	
1285	0	32796	32698	
1286	0	32824	32788	
1287	0	32768	32724	
1288	0	32736	32764	
1289	0	32848	32696	
1290	0	32836	32748	
1291	0	32782	32730	
1292	0	32842	32808	
1293	0	32796	32670	
1294	0	32868	32892	
1295	0	32796	32820	
1296	0	32852	32824	
1297	0	32880	32753	
1298	0	32820	32775	
1299	0	32769	32834	
1300	0	32824	32660	
1301	0	32830	32742	
1302	0	32840	32692	
1303	0	32878	32750	
1304	0	32772	32763	
1305	0	32890	32792	
1306	0	32860	32744	
1307	0	32844	32865	
1308	0	32812	32848	
1309	0	32743	32694	
1310	0	32826	32775	
1311	0	32824	32684	
1312	0	32778	32775	
1313	0	32792	32734	
1314	0	32856	32798	
1315	0	32808	32720	
1316	0	32850	32768	
1317	0	32824	32775	
1318	0	32836	32845	
1319	0	32836	32752	
1320	0	32786	32846	
1321	0	32836	32810	
1322	0	32792	32647	
1323	0	32812	32775	
1324	0	32780	32788	
1325	0	32798	32756	
1326	0	32814	32842	
1327	0	32848	32775	
1328	0	32810	32838	
1329	0	32812	32724	
1330	0	32746	32748	
1331	0	32756	32673	
1332	0	32816	32742	
1333	0	32912	32732	
1334	0	32817	32772	
1335	0	32832	32815	
1336	0	32900	32866	
1337	0	32804	32775	
1338	0	32788	32704	
1339	0	32784	32818	
1340	0	32828	32764	
1341	0	32804	32748	
1342	0	32825	32734	
1343	0	32746	32766	
1344	0	32784	32692	
1345	0	32800	32790	
1346	0	32836	32764	
1347	0	32828	32830	
1348	0	32832	32806	
1349	0	32832	32828	
1350	0	32848	32796	
1351	0	32820	32817	
1352	0	32810	32775	
1353	0	32844	32740	
1354	0	32801	32788	
1355	0	32800	32788	
1356	0	32832	32772	
1357	0	32806	32764	
1358	0	32812	32870	
1359	0	32736	32742	
1360	0	32804	32775	
1361	0	32788	32740	
1362	0	32817	32750	
1363	0	32796	32788	
1364	0	32788	32702	
1365	0	32762	32814	
1366	0	32896	32844	
1367	0	32820	32740	
1368	0	32768	32770	
1369	0	32848	32704	
1370	0	32842	32838	
1371	0	32814	32768	
1372	0	32832	32804	
1373	0	32860	32830	
1374	0	32768	32647	
1375	0	32820	32793	
1376	0	32792	32822	
1377	0	32864	32832	
1378	0	32816	32780	
1379	0	32834	32700	
1380	0	32818	32764	
1381	0	32804	32720	
1382	0	32784	32838	
1383	0	32796	32838	
1384	0	32826	32725	
1385	0	32792	32737	
1386	0	32816	32694	
1387	0	32808	32734	
1388	0	32832	32836	
1389	0	32740	32850	
1390	0	32860	32762	
1391	0	32818	32652	
1392	0	32844	32794	
1393	0	32738	32844	
1394	0	32796	32694	
1395	0	32836	32732	
1396	0	32792	32700	
1397	0	32856	32746	
1398	0	32836	32656	
1399	0	32778	32806	
1400	0	32862	32750	
1401	0	32822	32646	
1402	0	32816	32760	
1403	0	32772	32710	
1404	0	32816	32792	
1405	0	32808	32804	
1406	0	32897	32724	
1407	0	32832	32830	
1408	0	32804	32862	
1409	0	32838	32684	
1410	0	32788	32789	
1411	0	32826	32746	
1412	0	32824	32807	
1413	0	32802	32784	
1414	0	32880	32660	
1415	0	32804	32775	
1416	0	32806	32758	
1417	0	32846	32775	
1418	0	32796	32740	
1419	0	32752	32852	
1420	0	32812	32804	
1421	0	32794	32671	
1422	0	32794	32772	
1423	0	32764	32622	
1424	0	32786	32826	
1425	0	32848	32761	
1426	0	32784	32858	
1427	0	32892	32750	
1428	0	32806	32676	
1429	0	32800	32852	
1430	0	32780	32775	
1431	0	32870	32732	
1432	0	32746	32799	
1433	0	32794	32820	
1434	0	32808	32716	
1435	0	32772	32798	
1436	0	32813	32824	
1437	0	32788	32734	
1438	0	32768	32751	
1439	0	32834	32838	
1440	0	32766	32753	
1441	0	32776	32864	
1442	0	32776	32670	
1443	0	32848	32792	
1444	0	32878	32810	
1445	0	32834	32812	
1446	0	32828	32838	
1447	0	32826	32736	
1448	0	32832	32808	
1449	0	32884	32775	
1450	0	32796	32742	
1451	0	32804	32794	
1452	0	32820	32728	
1453	0	32816	32818	
1454	0	32806	32748	
1455	0	32808	32801	
1456	0	32842	32879	
1457	0	32742	32706	
1458	0	32786	32798	
1459	0	32874	32634	
1460	0	32802	32876	
1461	0	32810	32800	
1462	0	32868	32740	
1463	0	32864	32622	
1464	0	32838	32818	
1465	0	32788	32812	
1466	0	32752	32676	
1467	0	32768	32712	
1468	0	32806	32775	
1469	0	32808	32731	
1470	0	32786	32722	
1471	0	32876	32850	
1472	0	32784	32818	
1473	0	32856	32768	
1474	0	32828	32752	
1475	0	32816	32724	
1476	0	32837	32788	
1477	0	32754	32702	
1478	0	32832	32803	
1479	0	32792	32822	
1480	0	32792	32676	
1481	0	32804	32830	
1482	0	32824	32814	
1483	0	32784	32679	
1484	0	32788	32816	
1485	0	32814	32772	
1486	0	32808	32791	
1487	0	32816	32740	
1488	0	32802	32828	
1489	0	32838	32844	
1490	0	32828	32738	
1491	0	32776	32860	
1492	0	32768	32750	
1493	0	32814	32802	
1494	0	32836	32796	
1495	0	32777	32804	
1496	0	32860	32842	
1497	0	32860	32690	
1498	0	32892	32743	
1499	0	32782	32844	
1500	0	32798	32750	
1501	0	32818	32826	
1502	0	32812	32742	
1503	0	32828	32932	
1504	0	32788	32791	
1505	0	32852	32798	
1506	0	32834	32826	
1507	0	32772	32790	
1508	0	32788	32686	
1509	0	32834	32808	
1510	0	32808	32814	
1511	0	32806	32612	
1512	0	32792	32823	
1513	0	32826	32806	
1514	0	32796	32610	
1515	0	32818	32892	
1516	0	32836	32775	
1517	0	32788	32743	
1518	0	32808	32748	
1519	0	32836	32800	
1520	0	32780	32824	
1521	0	32832	32696	
1522	0	32820	32740	
1523	0	32768	32858	
1524	0	32838	32748	
1525	0	32772	32688	
1526	0	32848	32704	
1527	0	32828	32838	
1528	0	32822	32824	
1529	0	32872	32750	
1530	0	32770	32820	
1531	0	32772	32710	
1532	0	32792	32750	
1533	0	32836	32710	
1534	0	32860	32786	
1535	0	32789	32775	
1536	0	32858	32654	
1537	0	32840	32807	
1538	0	32834	32712	
1539	0	32844	32866	
1540	0	32780	32665	
1541	0	32816	32854	
1542	0	32768	32732	
1543	0	32794	32796	
1544	0	32808	32700	
1545	0	32836	32836	
1546	0	32828	32808	
1547	0	32814	32709	
1548	0	32852	32768	
1549	0	32814	32756	
1550	0	32804	32880	
1551	0	32794	32743	
1552	0	32832	32814	
1553	0	32832	32807	
1554	0	32868	32662	
1555	0	32828	32732	
1556	0	32836	32758	
1557	0	32802	32708	
1558	0	32804	32767	
1559	0	32804	32830	
1560	0	32772	32678	
1561	0	32788	32814	
1562	0	32905	32814	
1563	0	32776	32794	
1564	0	32750	32760	
1565	0	32762	32718	
1566	0	32840	32786	
1567	0	32724	32775	
1568	0	32776	32775	
1569	0	32842	32738	
1570	0	32880	32724	
1571	0	32828	32746	
1572	0	32812	32716	
1573	0	32834	32820	
1574	0	32800	32770	
1575	0	32708	32775	
1576	0	32764	32756	
1577	0	32830	32810	
1578	0	32840	32838	
1579	0	32744	32724	
1580	0	32820	32880	
1581	0	32836	32814	
1582	0	32828	32702	
1583	0	32834	32775	
1584	0	32808	32850	
1585	0	32776	32798	
1586	0	32870	32812	
1587	0	32832	32754	
1588	0	32862	32816	
1589	0	32816	32786	
1590	0	32760	32711	
1591	0	32856	32742	
1592	0	32888	32812	
1593	0	32796	32679	
1594	0	32800	32836	
1595	0	32786	32743	
1596	0	32770	32824	
1597	0	32786	32706	
1598	0	32868	32796	
1599	0	32848	32743	
1600	0	32848	32724	
1601	0	32840	32708	
1602	0	32792	32732	
1603	0	32740	32830	
1604	0	32764	32903	
1605	0	32806	32706	
1606	0	32860	32842	
1607	0	32780	32728	
1608	0	32848	32844	
1609	0	32796	32712	
1610	0	32824	32712	
1611	0	32796	32748	
1612	0	32776	32862	
1613	0	32832	32690	
1614	0	32844	32825	
1615	0	32756	32724	
1616	0	32780	32762	
1617	0	32808	32736	
1618	0	32841	32754	
1619	0	32820	32854	
1620	0	32808	32670	
1621	0	32812	32820	
1622	0	32812	32808	
1623	0	32800	32848	
1624	0	32824	32862	
1625	0	32820	32734	
1626	0	32812	32700	
1627	0	32808	32775	
1628	0	32832	32728	
1629	0	32804	32838	
1630	0	32784	32751	
1631	0	32800	32775	
1632	0	32748	32850	
1633	0	32776	32676	
1634	0	32820	32750	
1635	0	32836	32743	
1636	0	32836	32820	
1637	0	32816	32796	
1638	0	32792	32736	
1639	0	32836	32794	
1640	0	32792	32775	
1641	0	32768	32620	
1642	0	32788	32800	
1643	0	32848	32836	
1644	0	32844	32820	
1645	0	32832	32848	
1646	0	32772	32794	
1647	0	32798	32674	
1648	0	32812	32802	
1649	0	32812	32852	
1650	0	32760	32770	
1651	0	32794	32704	
1652	0	32836	32666	
1653	0	32798	32804	
1654	0	32784	32870	
1655	0	32852	32738	
1656	0	32816	32752	
1657	0	32804	32656	
1658	0	32842	32772	
1659	0	32800	32808	
1660	0	32812	32692	
1661	0	32910	32743	
1662	0	32842	32844	
1663	0	32876	32676	
1664	0	32828	32721	
1665	0	32864	32622	
1666	0	32847	32716	
1667	0	32772	32631	
1668	0	32850	32474	
1669	0	32932	32510	
1670	0	32878	32514	
1671	0	32880	32519	
1672	0	32832	32560	
1673	0	32764	32524	
1674	0	32840	32584	
1675	0	32862	32545	
1676	0	32860	32468	
1677	0	32904	32552	
1678	0	32852	32610	
1679	0	32792	32496	
1680	0	32852	32668	
1681	0	32778	32789	
1682	0	32764	32804	
1683	0	32734	32940	
1684	0	32738	33130	
1685	0	32636	33324	
1686	0	32610	33439	
1687	0	32562	33474	
1688	0	32564	33494	
1689	0	32624	33612	
1690	0	32588	33612	
1691	0	32610	33422	
1692	0	32652	33552	
1693	0	32650	33366	
1694	0	32648	33368	
1695	0	32706	33094	
1696	0	32808	32775	
1697	0	32822	32622	
1698	0	32772	32484	
1699	0	32864	32508	
1700	0	32916	32412	
1701	0	32924	32400	
1702	0	32938	32315	
1703	0	32900	32233	
1704	0	32876	32456	
1705	0	32894	32450	
1706	0	32920	32302	
1707	0	32848	32484	
1708	0	32948	32554	
1709	0	32888	32558	
1710	0	32858	32643	
1711	0	32844	32551	
1712	0	32892	32806	
1713	0	32840	32686	
1714	0	32898	32662	
1715	0	32837	32690	
1716	0	32908	32786	
1717	0	32844	32692	
1718	0	32974	32760	
1719	0	32836	32709	
1720	0	32882	32756	
1721	0	32844	32775	
1722	0	32808	32831	
1723	0	32882	32750	
1724	0	32848	32760	
1725	0	32780	32830	
1726	0	32824	32807	
1727	0	32776	32756	
1728	0	32740	32836	
1729	0	32768	32764	
1730	0	32776	32820	
1731	0	32782	32844	
1732	0	32742	32794	
1733	0	32770	32830	
1734	0	32760	32692	
1735	0	32776	32756	
1736	0	32828	32732	
1737	0	32856	32775	
1738	0	32808	32790	
1739	0	32832	32786	
1740	0	32720	32768	
1741	0	32800	32790	
1742	0	32808	32742	
1743	0	32808	32738	
1744	0	32860	32693	
1745	0	32772	32804	
1746	0	32884	32775	
1747	0	32845	32710	
1748	0	32732	32806	
1749	0	32826	32824	
1750	0	32862	32738	
1751	0	32788	32804	
1752	0	32750	32768	
1753	0	32808	32679	
1754	0	32820	32834	
1755	0	32796	32820	
1756	0	32800	32815	
1757	0	32820	32814	
1758	0	32760	32823	
1759	0	32832	32644	
1760	0	32832	32775	
1761	0	32772	32710	
1762	0	32812	32846	
1763	0	32832	32826	
1764	0	32836	32728	
1765	0	32802	32732	
1766	0	32856	32788	
1767	0	32818	32788	
1768	0	32808	32644	
1769	0	32828	32834	
1770	0	32804	32656	
1771	0	32826	32826	
1772	0	32854	32800	
1773	0	32788	32708	
1774	0	32780	32772	
1775	0	32800	32770	
1776	0	32832	32806	
1777	0	32828	32822	
1778	0	32800	32668	
1779	0	32828	32708	
1780	0	32832	32728	
1781	0	32798	32680	
1782	0	32820	32810	
1783	0	32860	32784	
1784	0	32864	32638	
1785	0	32826	32775	
1786	0	32866	32802	
1787	0	32844	32692	
1788	0	32776	32775	
1789	0	32788	32696	
1790	0	32796	32814	
1791	0	32764	32722	
1792	0	32824	32742	
1793	0	32762	32734	
1794	0	32840	32728	
1795	0	32746	32775	
1796	0	32732	32774	
1797	0	32801	32807	
1798	0	32842	32786	
1799	0	32821	32818	
1800	0	32852	32800	
1801	0	32824	32724	
1802	0	32818	32830	
1803	0	32842	32679	
1804	0	32798	32864	
1805	0	32816	32836	
1806	0	32872	32772	
1807	0	32766	32736	
1808	0	32784	32716	
1809	0	32860	32844	
1810	0	32810	32804	
1811	0	32820	32714	
1812	0	32800	32764	
1813	0	32772	32758	
1814	0	32776	32833	
1815	0	32848	32738	
1816	0	32772	32668	
1817	0	32832	32748	
1818	0	32800	32807	
1819	0	32832	32694	
1820	0	32812	32808	
1821	0	32804	32732	
1822	0	32868	32759	
1823	0	32862	32738	
1824	0	32860	32729	
1825	0	32768	32832	
1826	0	32868	32796	
1827	0	32852	32766	
1828	0	32758	32804	
1829	0	32802	32630	
1830	0	32830	32836	
1831	0	32791	32775	
1832	0	32830	32682	
1833	0	32782	32806	
1834	0	32798	32775	
1835	0	32888	32647	
1836	0	32853	32716	
1837	0	32806	32790	
1838	0	32824	32775	
1839	0	32828	32815	
1840	0	32728	32828	
1841	0	32784	32752	
1842	0	32822	32749	
1843	0	32802	32796	
1844	0	32796	32818	
1845	0	32812	32853	
1846	0	32821	32832	
1847	0	32862	32722	
1848	0	32860	32744	
1849	0	32820	32890	
1850	0	32852	32712	
1851	0	32858	32754	
1852	0	32820	32824	
1853	0	32848	32708	
1854	0	32856	32751	
1855	0	32788	32732	
1856	0	32768	32816	
1857	0	32724	32804	
1858	0	32810	32668	
1859	0	32833	32808	
1860	0	32730	32734	
1861	0	32782	32709	
1862	0	32852	32758	
1863	0	32800	32730	
1864	0	32810	32774	
1865	0	32804	32657	
1866	0	32840	32804	
1867	0	32808	32864	
1868	0	32862	32732	
1869	0	32826	32764	
1870	0	32784	32678	
1871	0	32775	32784	
1872	0	32834	32750	
1873	0	32796	32692	
1874	0	32800	32767	
1875	0	32836	32832	
1876	0	32780	32842	
1877	0	32790	32792	
1878	0	32812	32644	
1879	0	32804	32755	
1880	0	32800	32740	
1881	0	32840	32834	
1882	0	32816	32800	
1883	0	32810	32718	
1884	0	32772	32775	
1885	0	32864	32744	
1886	0	32850	32764	
1887	0	32792	32769	
1888	0	32804	32838	
1889	0	32824	32708	
1890	0	32796	32678	
1891	0	32804	32706	
1892	0	32832	32738	
1893	0	32744	32766	
1894	0	32848	32750	
1895	0	32796	32840	
1896	0	32847	32786	
1897	0	32828	32743	
1898	0	32798	32774	
1899	0	32868	32756	
1900	0	32800	32812	
1901	0	32816	32830	
1902	0	32740	32717	
1903	0	32802	32775	
1904	0	32802	32830	
1905	0	32750	32708	
1906	0	32796	32825	
1907	0	32800	32740	
1908	0	32852	32812	
1909	0	32788	32760	
1910	0	32816	32804	
1911	0	32850	32836	
1912	0	32816	32838	
1913	0	32788	32855	
1914	0	32772	32704	
1915	0	32784	32762	
1916	0	32806	32660	
1917	0	32728	32850	
1918	0	32796	32758	
1919	0	32798	32790	
1920	0	32832	32812	
1921	0	32856	32742	
1922	0	32762	32720	
1923	0	32766	32768	
1924	0	32852	32710	
1925	0	32812	32814	
1926	0	32804	32710	
1927	0	32812	32860	
1928	0	32758	32746	
1929	0	32840	32690	
1930	0	32772	32769	
1931	0	32772	32848	
1932	0	32820	32692	
1933	0	32798	32821	
1934	0	32800	32775	
1935	0	32820	32880	
1936	0	32802	32830	
1937	0	32828	32759	
1938	0	32804	32874	
1939	0	32792	32808	
1940	0	32808	32634	
1941	0	32756	32762	
1942	0	32804	32758	
1943	0	32820	32706	
1944	0	32758	32758	
1945	0	32788	32775	
1946	0	32762	32834	
1947	0	32828	32816	
1948	0	32860	32735	
1949	0	32788	32826	
1950	0	32890	32768	
1951	0	32860	32793	
1952	0	32732	32839	
1953	0	32808	32775	
1954	0	32716	32660	
1955	0	32792	32783	
1956	0	32842	32666	
1957	0	32824	32738	
1958	0	32840	32711	
1959	0	32830	32876	
1960	0	32820	32802	
1961	0	32804	32756	
1962	0	32816	32830	
1963	0	32720	32748	
1964	0	32856	32775	
1965	0	32844	32758	
1966	0	32798	32775	
1967	0	32846	32812	
1968	0	32848	32854	
1969	0	32728	32848	
1970	0	32830	32807	
1971	0	32824	32706	
1972	0	32856	32775	
1973	0	32782	32786	
1974	0	32862	32836	
1975	0	32828	32775	
1976	0	32821	32680	
1977	0	32840	32743	
1978	0	32824	32704	
1979	0	32840	32824	
1980	0	32824	32758	
1981	0	32804	32689	
1982	0	32778	32724	
1983	0	32790	32708	
1984	0	32824	32735	
1985	0	32836	32822	
1986	0	32832	32670	
1987	0	32824	32756	
1988	0	32840	32709	
1989	0	32812	32775	
1990	0	32796	32690	
1991	0	32780	32844	
1992	0	32778	32792	
1993	0	32720	32704	
1994	0	32788	32828	
1995	0	32868	32726	
1996	0	32832	32854	
1997	0	32836	32854	
1998	0	32856	32870	
1999	0	32768	32766	
2000	0	32788	32664	
2001	0	32835	32742	
2002	0	32832	32704	
2003	0	32804	32854	
2004	0	32906	32807	
2005	0	32764	32760	
2006	0	32776	32806	
2007	0	32748	32824	
2008	0	32832	32775	
2009	0	32808	32744	
2010	0	32838	32871	
2011	0	32846	32720	
2012	0	32814	32806	
2013	0	32808	32807	
2014	0	32772	32764	
2015	0	32818	32775	
2016	0	32784	32714	
2017	0	32822	32698	
2018	0	32850	32734	
2019	0	32756	32796	
2020	0	32856	32746	
2021	0	32818	32794	
2022	0	32814	32803	
2023	0	32802	32732	
2024	0	32776	32750	
2025	0	32816	32721	
2026	0	32820	32766	
2027	0	32832	32816	
2028	0	32806	32824	
2029	0	32852	32710	
2030	0	32800	32700	
2031	0	32812	32760	
2032	0	32778	32782	
2033	0	32768	32788	
2034	0	32824	32807	
2035	0	32828	32874	
2036	0	32764	32816	
2037	0	32826	32774	
2038	0	32806	32790	
2039	0	32824	32808	
2040	0	32832	32718	
2041	0	32814	32762	
2042	0	32832	32711	
2043	0	32840	32862	
2044	0	32754	32834	
2045	0	32750	32844	
2046	0	32798	32768	
2047	0	32800	32704	
2048	0	32764	32756	
2049	0	32806	32710	
2050	0	32796	32694	
2051	0	32800	32684	
2052	0	32824	32710	
2053	0	32840	32870	
2054	0	32834	32700	
2055	0	32808	32679	
2056	0	32752	32775	
2057	0	32817	32700	
2058	0	32806	32812	
2059	0	32886	32818	
2060	0	32812	32712	
2061	0	32760	32807	
2062	0	32849	32823	
2063	0	32792	32718	
2064	0	32792	32839	
2065	0	32792	32753	
2066	0	32800	32860	
2067	0	32814	32834	
2068	0	32792	32706	
2069	0	32798	32760	
2070	0	32810	32820	
2071	0	32836	32863	
2072	0	32820	32863	
2073	0	32788	32775	
2074	0	32804	32756	
2075	0	32848	32722	
2076	0	32816	32775	
2077	0	32832	32926	
2078	0	32862	32894	
2079	0	32892	32874	
2080	0	32840	32708	
2081	0	32858	32751	
2082	0	32852	32737	
2083	0	32772	32724	
2084	0	32840	32802	
2085	0	32816	32610	
2086	0	32722	32838	
2087	0	32836	32799	
2088	0	32774	32844	
2089	0	32874	32762	
2090	0	32858	32668	
2091	0	32768	32756	
2092	0	32844	32767	
2093	0	32816	32746	
2094	0	32800	32812	
2095	0	32800	32871	
2096	0	32756	32736	
2097	0	32791	32784	
2098	0	32828	32764	
2099	0	32782	32800	
2100	0	32856	32628	
2101	0	32808	32812	
2102	0	32766	32668	
2103	0	32836	32796	
2104	0	32856	32818	
2105	0	32854	32791	
2106	0	32842	32800	
2107	0	32828	32742	
2108	0	32808	32820	
2109	0	32852	32838	
2110	0	32828	32754	
2111	0	32862	32766	
2112	0	32716	32794	
2113	0	32778	32847	
2114	0	32820	32724	
2115	0	32786	32772	
2116	0	32840	32799	
2117	0	32840	32832	
2118	0	32864	32742	
2119	0	32804	32730	
2120	0	32824	32802	
2121	0	32834	32722	
2122	0	32804	32744	
2123	0	32816	32762	
2124	0	32796	32846	
2125	0	32812	32700	
2126	0	32784	32728	
2127	0	32808	32792	
2128	0	32804	32615	
2129	0	32810	32752	
2130	0	32876	32742	
2131	0	32806	32686	
2132	0	32762	32838	
2133	0	32896	32800	
2134	0	32796	32758	
2135	0	32836	32764	
2136	0	32784	32812	
2137	0	32788	32772	
2138	0	32782	32654	
2139	0	32744	32910	
2140	0	32794	32742	
2141	0	32706	32710	
2142	0	32830	32814	
2143	0	32790	32822	
2144	0	32832	32762	
2145	0	32836	32882	
2146	0	32824	32766	
2147	0	32774	32730	
2148	0	32768	32814	
2149	0	32816	32814	
2150	0	32800	32760	
2151	0	32812	32730	
2152	0	32776	32838	
2153	0	32804	32727	
2154	0	32832	32800	
2155	0	32772	32738	
2156	0	32744	32816	
2157	0	32824	32756	
2158	0	32784	32728	
2159	0	32772	32688	
2160	0	32852	32703	
2161	0	32832	32811	
2162	0	32844	32716	
2163	0	32852	32846	
2164	0	32780	32784	
2165	0	32824	32868	
2166	0	32764	32710	
2167	0	32820	32712	
2168	0	32836	32842	
2169	0	32808	32724	
2170	0	32780	32798	
2171	0	32894	32862	
2172	0	32820	32674	
2173	0	32824	32874	
2174	0	32800	32817	
2175	0	32830	32690	
2176	0	32884	32720	
2177	0	32804	32748	
2178	0	32794	32754	
2179	0	32848	32748	
2180	0	32836	32721	
2181	0	32828	32823	
2182	0	32824	32788	
2183	0	32794	32728	
2184	0	32796	32796	
2185	0	32794	32794	
2186	0	32776	32764	
2187	0	32816	32716	
2188	0	32776	32780	
2189	0	32788	32699	
2190	0	32800	32872	
2191	0	32812	32766	
2192	0	32816	32713	
2193	0	32764	32750	
2194	0	32836	32806	
2195	0	32830	32762	
2196	0	32794	32724	
2197	0	32852	32775	
2198	0	32832	32764	
2199	0	32864	32730	
2200	0	32824	32743	
2201	0	32816	32798	
2202	0	32820	32718	
2203	0	32856	32759	
2204	0	32810	32732	
2205	0	32764	32720	
2206	0	32840	32726	
2207	0	32836	32740	
2208	0	32872	32803	
2209	0	32764	32808	
2210	0	32820	32794	
2211	0	32744	32796	
2212	0	32784	32775	
2213	0	32862	32775	
2214	0	32831	32686	
2215	0	32810	32796	
2216	0	32754	32726	
2217	0	32824	32705	
2218	0	32868	32842	
2219	0	32800	32784	
2220	0	32836	32670	
2221	0	32816	32756	
2222	0	32804	32647	
2223	0	32862	32799	
2224	0	32846	32812	
2225	0	32804	32743	
2226	0	32812	32756	
2227	0	32774	32852	
2228	0	32794	32767	
2229	0	32744	32718	
2230	0	32738	32818	
2231	0	32812	32846	
2232	0	32784	32791	
2233	0	32856	32794	
2234	0	32848	32647	
2235	0	32880	32775	
2236	0	32824	32840	
2237	0	32826	32734	
2238	0	32780	32796	
2239	0	32770	32734	
2240	0	32800	32631	
2241	0	32812	32727	
2242	0	32788	32848	
2243	0	32788	32676	
2244	0	32836	32824	
2245	0	32768	32814	
2246	0	32788	32796	
2247	0	32800	32747	
2248	0	32828	32838	
2249	0	32800	32740	
2250	0	32828	32798	
2251	0	32772	32815	
2252	0	32822	32718	
2253	0	32824	32802	
2254	0	32804	32868	
2255	0	32782	32711	
2256	0	32808	32739	
2257	0	32756	32754	
2258	0	32862	32710	
2259	0	32788	32786	
2260	0	32908	32672	
2261	0	32872	32770	
2262	0	32844	32764	
2263	0	32824	32750	
2264	0	32842	32788	
2265	0	32814	32700	
2266	0	32792	32815	
2267	0	32852	32816	
2268	0	32832	32728	
2269	0	32804	32802	
2270	0	32796	32762	
2271	0	32774	32700	
2272	0	32808	32766	
2273	0	32784	32752	
2274	0	32816	32822	
2275	0	32808	32818	
2276	0	32768	32700	
2277	0	32798	32820	
2278	0	32848	32863	
2279	0	32828	32700	
2280	0	32832	32810	
2281	0	32764	32830	
2282	0	32776	32716	
2283	0	32816	32818	
2284	0	32808	32800	
2285	0	32812	32756	
2286	0	32820	32790	
2287	0	32830	32672	
2288	0	32808	32796	
2289	0	32748	32790	
2290	0	32812	32716	
2291	0	32848	32762	
2292	0	32821	32852	
2293	0	32792	32715	
2294	0	32828	32854	
2295	0	32792	32775	
2296	0	32832	32692	
2297	0	32860	32828	
2298	0	32864	32858	
2299	0	32816	32688	
2300	0	32848	32756	
2301	0	32788	32744	
2302	0	32842	32670	
2303	0	32820	32744	
2304	0	32824	32753	
2305	0	32788	32614	
2306	0	32836	32763	
2307	0	32820	32732	
2308	0	32796	32692	
2309	0	32798	32762	
2310	0	32868	32689	
2311	0	32812	32775	
2312	0	32828	32852	
2313	0	32791	32788	
2314	0	32772	32838	
2315	0	32780	32775	
2316	0	32816	32772	
2317	0	32828	32710	
2318	0	32872	32886	
2319	0	32860	32775	
2320	0	32804	32742	
2321	0	32834	32774	
2322	0	32812	32806	
2323	0	32874	32719	
2324	0	32780	32750	
2325	0	32780	32857	
2326	0	32796	32730	
2327	0	32768	32775	
2328	0	32785	32775	
2329	0	32736	32730	
2330	0	32810	32768	
2331	0	32898	32734	
2332	0	32772	32654	
2333	0	32780	32820	
2334	0	32800	32790	
2335	0	32812	32660	
2336	0	32816	32806	
2337	0	32808	32734	
2338	0	32804	32824	
2339	0	32852	32794	
2340	0	32842	32686	
2341	0	32796	32761	
2342	0	32824	32880	
2343	0	32812	32735	
2344	0	32752	32775	
2345	0	32768	32774	
2346	0	32812	32808	
2347	0	32852	32828	
2348	0	32852	32740	
2349	0	32852	32790	
2350	0	32876	32719	
2351	0	32876	32636	
2352	0	32918	32704	
2353	0	32884	32548	
2354	0	32874	32612	
2355	0	32886	32588	
2356	0	32868	32504	
2357	0	32852	32588	
2358	0	32904	32486	
2359	0	32860	32458	
2360	0	32820	32483	
2361	0	32818	32494	
2362	0	32832	32423	
2363	0	32808	32532	
2364	0	32860	32560	
2365	0	32784	32468	
2366	0	32814	32570	
2367	0	32844	32758	
2368	0	32780	32682	
2369	0	32788	32934	
2370	0	32790	33096	
2371	0	32740	33154	
2372	0	32638	33391	
2373	0	32604	33484	
2374	0	32704	33468	
2375	0	32564	33566	
2376	0	32600	33718	
2377	0	32620	33614	
2378	0	32626	33652	
2379	0	32664	33492	
2380	0	32716	33500	
2381	0	32758	33300	
2382	0	32790	32962	
2383	0	32824	32796	
2384	0	32816	32647	
2385	0	32836	32468	
2386	0	32816	32519	
2387	0	32878	32386	
2388	0	32872	32186	
2389	0	32804	32248	
2390	0	32872	32128	
2391	0	32848	32365	
2392	0	32854	32394	
2393	0	32880	32300	
2394	0	32916	32460	
2395	0	32920	32417	
2396	0	32828	32556	
2397	0	32836	32551	
2398	0	32832	32552	
2399	0	32848	32740	
2400	0	32896	32708	
2401	0	32860	32644	
2402	0	32888	32836	
2403	0	32840	32856	
2404	0	32864	32775	
2405	0	32874	32870	
2406	0	32912	32770	
2407	0	32860	32854	
2408	0	32868	32796	
2409	0	32896	32767	
2410	0	32916	32824	
2411	0	32860	32704	
2412	0	32896	32775	
2413	0	32848	32774	
2414	0	32822	32804	
2415	0	32804	32756	
2416	0	32800	32838	
2417	0	32776	32734	
2418	0	32776	32807	
2419	0	32816	32660	
2420	0	32800	32746	
2421	0	32756	32758	
2422	0	32748	32702	
2423	0	32780	32802	
2424	0	32764	32788	
2425	0	32792	32724	
2426	0	32782	32727	
2427	0	32830	32802	
2428	0	32746	32786	
2429	0	32716	32766	
2430	0	32856	32768	
2431	0	32820	32854	
2432	0	32849	32736	
2433	0	32800	32844	
2434	0	32816	32823	
2435	0	32832	32852	
2436	0	32772	32702	
2437	0	32824	32772	
2438	0	32884	32702	
2439	0	32775	32740	
2440	0	32821	32748	
2441	0	32868	32708	
2442	0	32868	32804	
2443	0	32766	32814	
2444	0	32774	32726	
2445	0	32794	32852	
2446	0	32788	32796	
2447	0	32825	32740	
2448	0	32904	32856	
2449	0	32816	32854	
2450	0	32848	32706	
2451	0	32836	32784	
2452	0	32788	32718	
2453	0	32716	32692	
2454	0	32820	32727	
2455	0	32860	32802	
2456	0	32878	32740	
2457	0	32848	32775	
2458	0	32708	32772	
2459	0	32780	32806	
2460	0	32750	32784	
2461	0	32756	32760	
2462	0	32810	32834	
2463	0	32840	32774	
2464	0	32804	32690	
2465	0	32748	32759	
2466	0	32858	32852	
2467	0	32812	32662	
2468	0	32812	32666	
2469	0	32826	32700	
2470	0	32824	32826	
2471	0	32868	32828	
2472	0	32828	32720	
2473	0	32864	32807	
2474	0	32826	32647	
2475	0	32792	32743	
2476	0	32856	32714	
2477	0	32728	32750	
2478	0	32836	32894	
2479	0	32792	32847	
2480	0	32772	32718	
2481	0	32752	32822	
2482	0	32768	32748	
2483	0	32784	32718	
2484	0	32816	32834	
2485	0	32828	32775	
2486	0	32814	32748	
2487	0	32804	32718	
2488	0	32840	32758	
2489	0	32768	32775	
2490	0	32792	32664	
2491	0	32848	32804	
2492	0	32800	32769	
2493	0	32746	32775	
2494	0	32852	32708	
2495	0	32828	32768	
2496	0	32836	32802	
2497	0	32824	32732	
2498	0	32792	32794	
2499	0	32784	32878	
2500	0	32824	32734	
2501	0	32840	32798	
2502	0	32844	32900	
2503	0	32820	32768	
2504	0	32868	32823	
2505	0	32796	32852	
2506	0	32774	32700	
2507	0	32752	32838	
2508	0	32768	32812	
2509	0	32792	32623	
2510	0	32802	32860	
2511	0	32840	32742	
2512	0	32884	32756	
2513	0	32820	32742	
2514	0	32804	32702	
2515	0	32820	32678	
2516	0	32800	32792	
2517	0	32814	32799	
2518	0	32784	32836	
2519	0	32772	32788	
2520	0	32800	32672	
2521	0	32828	32642	
2522	0	32752	32704	
2523	0	32800	32775	
2524	0	32872	32678	
2525	0	32782	32838	
2526	0	32708	32810	
2527	0	32784	32724	
2528	0	32816	32802	
2529	0	32848	32768	
2530	0	32808	32774	
2531	0	32836	32794	
2532	0	32752	32798	
2533	0	32854	32821	
2534	0	32852	32707	
2535	0	32824	32870	
2536	0	32846	32788	
2537	0	32780	32918	
2538	0	32860	32764	
2539	0	32776	32796	
2540	0	32816	32800	
2541	0	32830	32710	
2542	0	32812	32692	
2543	0	32872	32682	
2544	0	32858	32794	
2545	0	32808	32691	
2546	0	32876	32851	
2547	0	32796	32808	
2548	0	32730	32866	
2549	0	32812	32716	
2550	0	32816	32806	
2551	0	32808	32748	
2552	0	32830	32676	
2553	0	32798	32775	
2554	0	32818	32694	
2555	0	32828	32806	
2556	0	32775	32703	
2557	0	32816	32678	
2558	0	32796	32768	
2559	0	32816	32782	
2560	0	32820	32689	
2561	0	32816	32834	
2562	0	32788	32766	
2563	0	32756	32724	
2564	0	32812	32764	
2565	0	32865	32796	
2566	0	32774	32868	
2567	0	32798	32750	
2568	0	32856	32830	
2569	0	32848	32796	
2570	0	32828	32788	
2571	0	32788	32710	
2572	0	32758	32743	
2573	0	32784	32744	
2574	0	32792	32732	
2575	0	32816	32732	
2576	0	32807	32736	
2577	0	32878	32836	
2578	0	32840	32792	
2579	0	32816	32660	
2580	0	32823	32768	
2581	0	32796	32842	
2582	0	32750	32728	
2583	0	32852	32796	
2584	0	32774	32794	
2585	0	32806	32655	
2586	0	32764	32758	
2587	0	32834	32770	
2588	0	32806	32694	
2589	0	32768	32770	
2590	0	32820	32794	
2591	0	32794	32730	
2592	0	32810	32785	
2593	0	32828	32824	
2594	0	32808	32720	
2595	0	32806	32802	
2596	0	32816	32800	
2597	0	32817	32864	
2598	0	32844	32820	
2599	0	32764	32694	
2600	0	32836	32836	
2601	0	32824	32816	
2602	0	32792	32956	
2603	0	32800	32748	
2604	0	32820	32710	
2605	0	32800	32814	
2606	0	32852	32794	
2607	0	32806	32725	
2608	0	32868	32775	
2609	0	32836	32834	
2610	0	32816	32752	
2611	0	32776	32764	
2612	0	32740	32695	
2613	0	32872	32867	
2614	0	32808	32815	
2615	0	32756	32658	
2616	0	32804	32824	
2617	0	32782	32776	
2618	0	32772	32672	
2619	0	32810	32839	
2620	0	32784	32750	
2621	0	32728	32660	
2622	0	32820	32752	
2623	0	32820	32866	
2624	0	32804	32756	
2625	0	32734	32816	
2626	0	32776	32902	
2627	0	32796	32760	
2628	0	32716	32908	
2629	0	32824	32808	
2630	0	32788	32753	
2631	0	32804	32727	
2632	0	32834	32718	
2633	0	32824	32766	
2634	0	32840	32766	
2635	0	32810	32772	
2636	0	32824	32814	
2637	0	32838	32768	
2638	0	32782	32684	
2639	0	32758	32750	
2640	0	32864	32760	
2641	0	32812	32835	
2642	0	32840	32698	
2643	0	32832	32712	
2644	0	32844	32660	
2645	0	32868	32764	
2646	0	32834	32804	
2647	0	32830	32731	
2648	0	32864	32734	
2649	0	32836	32775	
2650	0	32856	32804	
2651	0	32782	32836	
2652	0	32830	32670	
2653	0	32768	32860	
2654	0	32774	32854	
2655	0	32844	32680	
2656	0	32832	32732	
2657	0	32830	32786	
2658	0	32876	32775	
2659	0	32813	32830	
2660	0	32772	32696	
2661	0	32840	32737	
2662	0	32696	32755	
2663	0	32828	32917	
2664	0	32788	32718	
2665	0	32842	32812	
2666	0	32752	32775	
2667	0	32868	32772	
2668	0	32800	32880	
2669	0	32798	32676	
2670	0	32808	32830	
2671	0	32790	32839	
2672	0	32800	32716	
2673	0	32824	32804	
2674	0	32768	32816	
2675	0	32822	32692	
2676	0	32814	32846	
2677	0	32808	32760	
2678	0	32784	32760	
2679	0	32792	32724	
2680	0	32782	32660	
2681	0	32817	32691	
2682	0	32880	32746	
2683	0	32876	32714	
2684	0	32878	32753	
2685	0	32832	32775	
2686	0	32920	32670	
2687	0	32780	32768	
2688	0	32820	32844	
2689	0	32816	32734	
2690	0	32824	32768	
2691	0	32842	32828	
2692	0	32840	32682	
2693	0	32808	32804	
2694	0	32828	32732	
2695	0	32852	32807	
2696	0	32810	32746	
2697	0	32812	32890	
2698	0	32772	32828	
2699	0	32817	32852	
2700	0	32804	32820	
2701	0	32798	32740	
2702	0	32730	32775	
2703	0	32848	32689	
2704	0	32816	32766	
2705	0	32854	32732	
2706	0	32808	32804	
2707	0	32820	32756	
2708	0	32810	32880	
2709	0	32792	32822	
2710	0	32832	32658	
2711	0	32764	32799	
2712	0	32832	32826	
2713	0	32772	32692	
2714	0	32788	32842	
2715	0	32824	32804	
2716	0	32766	32884	
2717	0	32806	32755	
2718	0	32836	32730	
2719	0	32810	32798	
2720	0	32804	32797	
2721	0	32712	32732	
2722	0	32878	32818	
2723	0	32780	32689	
2724	0	32764	32759	
2725	0	32814	32764	
2726	0	32884	32722	
2727	0	32820	32804	
2728	0	32772	32692	
2729	0	32876	32767	
2730	0	32836	32746	
2731	0	32892	32764	
2732	0	32798	32845	
2733	0	32820	32630	
2734	0	32788	32780	
2735	0	32804	32832	
2736	0	32824	32820	
2737	0	32874	32750	
2738	0	32856	32644	
2739	0	32897	32814	
2740	0	32754	32792	
2741	0	32800	32647	
2742	0	32760	32775	
2743	0	32820	32796	
2744	0	32804	32659	
2745	0	32778	32788	
2746	0	32832	32792	
2747	0	32820	32839	
2748	0	32824	32832	
2749	0	32784	32756	
2750	0	32802	32756	
2751	0	32830	32708	
2752	0	32796	32794	
2753	0	32812	32804	
2754	0	32860	32734	
2755	0	32852	32834	
2756	0	32788	32740	
2757	0	32828	32734	
2758	0	32804	32810	
2759	0	32840	32737	
2760	0	32824	32788	
2761	0	32792	32775	
2762	0	32780	32668	
2763	0	32756	32790	
2764	0	32804	32740	
2765	0	32814	32775	
2766	0	32852	32865	
2767	0	32782	32766	
2768	0	32736	32744	
2769	0	32876	32698	
2770	0	32828	32750	
2771	0	32840	32830	
2772	0	32816	32616	
2773	0	32756	32796	
2774	0	32824	32752	
2775	0	32772	32736	
2776	0	32830	32830	
2777	0	32796	32692	
2778	0	32784	32936	
2779	0	32816	32734	
2780	0	32816	32749	
2781	0	32796	32682	
2782	0	32836	32846	
2783	0	32832	32750	
2784	0	32830	32840	
2785	0	32864	32803	
2786	0	32884	32744	
2787	0	32832	32769	
2788	0	32799	32656	
2789	0	32833	32838	
2790	0	32790	32670	
2791	0	32827	32775	
2792	0	32828	32858	
2793	0	32828	32764	
2794	0	32858	32772	
2795	0	32828	32660	
2796	0	32774	32775	
2797	0	32764	32734	
2798	0	32790	32835	
2799	0	32816	32807	
2800	0	32814	32775	
2801	0	32764	32728	
2802	0	32796	32679	
2803	0	32812	32800	
2804	0	32790	32822	
2805	0	32824	32616	
2806	0	32796	32772	
2807	0	32796	32784	
2808	0	32898	32703	
2809	0	32844	32700	
2810	0	32778	32676	
2811	0	32760	32790	
2812	0	32775	32752	
2813	0	32832	32880	
2814	0	32824	32836	
2815	0	32788	32782	
2816	0	32828	32786	
2817	0	32848	32664	
2818	0	32856	32832	
2819	0	32860	32750	
2820	0	32812	32830	
2821	0	32854	32771	
2822	0	32818	32684	
2823	0	32824	32804	
2824	0	32801	32788	
2825	0	32798	32656	
2826	0	32834	32714	
2827	0	32812	32718	
2828	0	32828	32816	
2829	0	32824	32858	
2830	0	32760	32811	
2831	0	32800	32730	
2832	0	32836	32734	
2833	0	32784	32792	
2834	0	32800	32788	
2835	0	32816	32698	
2836	0	32772	32775	
2837	0	32838	32768	
2838	0	32782	32858	
2839	0	32798	32764	
2840	0	32854	32808	
2841	0	32812	32743	
2842	0	32817	32663	
2843	0	32814	32804	
2844	0	32800	32738	
2845	0	32781	32700	
2846	0	32864	32876	
2847	0	32852	32775	
2848	0	32872	32669	
2849	0	32800	32807	
2850	0	32856	32800	
2851	0	32774	32660	
2852	0	32760	32824	
2853	0	32872	32822	
2854	0	32824	32670	
2855	0	32884	32824	
2856	0	32850	32756	
2857	0	32816	32743	
2858	0	32780	32826	
2859	0	32812	32748	
2860	0	32810	32775	
2861	0	32744	32647	
2862	0	32816	32746	
2863	0	32804	32835	
2864	0	32860	32686	
2865	0	32872	32859	
2866	0	32808	32838	
2867	0	32804	32711	
2868	0	32900	32806	
2869	0	32808	32844	
2870	0	32812	32622	
2871	0	32848	32838	
2872	0	32766	32775	
2873	0	32774	32695	
2874	0	32760	32831	
2875	0	32832	32788	
2876	0	32760	32708	
2877	0	32764	32766	
2878	0	32806	32824	
2879	0	32860	32652	
2880	0	32866	32820	
2881	0	32812	32852	
2882	0	32784	32723	
2883	0	32844	32828	
2884	0	32810	32798	
2885	0	32788	32810	
2886	0	32740	32791	
2887	0	32816	32690	
2888	0	32758	32720	
2889	0	32768	32764	
2890	0	32866	32686	
2891	0	32832	32814	
2892	0	32768	32676	
2893	0	32826	32770	
2894	0	32794	32834	
2895	0	32796	32698	
2896	0	32802	32750	
2897	0	32808	32758	
2898	0	32816	32666	
2899	0	32772	32759	
2900	0	32786	32754	
2901	0	32794	32732	
2902	0	32810	32828	
2903	0	32824	32836	
2904	0	32768	32756	
2905	0	32790	32740	
2906	0	32852	32775	
2907	0	32800	32796	
2908	0	32772	32700	
2909	0	32762	32656	
2910	0	32832	32812	
2911	0	32862	32839	
2912	0	32866	32767	
2913	0	32824	32756	
2914	0	32904	32791	
2915	0	32736	32668	
2916	0	32800	32808	
2917	0	32812	32764	
2918	0	32796	32644	
2919	0	32836	32804	
2920	0	32828	32732	
2921	0	32780	32767	
2922	0	32896	32697	
2923	0	32824	32818	
2924	0	32824	32844	
2925	0	32792	32792	
2926	0	32810	32760	
2927	0	32840	32814	
2928	0	32740	32722	
2929	0	32766	32760	
2930	0	32834	32810	
2931	0	32774	32666	
2932	0	32816	32802	
2933	0	32782	32662	
2934	0	32826	32798	
2935	0	32876	32704	
2936	0	32784	32759	
2937	0	32814	32704	
2938	0	32808	32816	
2939	0	32782	32814	
2940	0	32844	32754	
2941	0	32790	32751	
2942	0	32880	32805	
2943	0	32778	32775	
2944	0	32756	32794	
2945	0	32742	32764	
2946	0	32724	32690	
2947	0	32826	32820	
2948	0	32810	32791	
2949	0	32792	32735	
2950	0	32808	32886	
2951	0	32848	32730	
2952	0	32866	32846	
2953	0	32816	32742	
2954	0	32826	32702	
2955	0	32822	32792	
2956	0	32804	32670	
2957	0	32800	32800	
2958	0	32800	32786	
2959	0	32788	32658	
2960	0	32780	32791	
2961	0	32764	32854	
2962	0	32856	32688	
2963	0	32772	32728	
2964	0	32772	32775	
2965	0	32828	32903	
2966	0	32698	32812	
2967	0	32880	32740	
2968	0	32838	32696	
2969	0	32766	32868	
2970	0	32830	32766	
2971	0	32834	32728	
2972	0	32792	32767	
2973	0	32864	32734	
2974	0	32796	32790	
2975	0	32844	32710	
2976	0	32858	32806	
2977	0	32830	32798	
2978	0	32762	32678	
2979	0	32758	32808	
2980	0	32816	32794	
2981	0	32828	32740	
2982	0	32820	32816	
2983	0	32852	32748	
2984	0	32856	32768	
2985	0	32816	32742	
2986	0	32776	32874	
2987	0	32776	32818	
2988	0	32872	32792	
2989	0	32832	32798	
2990	0	32816	32832	
2991	0	32848	32727	
2992	0	32832	32756	
2993	0	32824	32692	
2994	0	32836	32825	
2995	0	32824	32790	
2996	0	32812	32768	
2997	0	32860	32768	
2998	0	32860	32812	
2999	0	32792	32711	
3000	0	32824	32788	
3001	0	32796	32756	
3002	0	32792	32688	
3003	0	32772	32790	
3004	0	32796	32839	
3005	0	32776	32736	
3006	0	32820	32823	
3007	0	32808	32814	
3008	0	32756	32662	
3009	0	32832	32775	
3010	0	32820	32761	
3011	0	32840	32694	
3012	0	32848	32796	
3013	0	32802	32656	
3014	0	32772	32762	
3015	0	32788	32820	
3016	0	32820	32775	
3017	0	32808	32832	
3018	0	32840	32820	
3019	0	32788	32694	
3020	0	32814	32819	
3021	0	32812	32708	
3022	0	32832	32730	
3023	0	32900	32692	
3024	0	32868	32780	
3025	0	32874	32764	
3026	0	32878	32626	
3027	0	32928	32636	
3028	0	32932	32656	
3029	0	32876	32552	
3030	0	32808	32571	
3031	0	32880	32580	
3032	0	32884	32454	
3033	0	32820	32442	
3034	0	32836	32444	
3035	0	32766	32551	
3036	0	32864	32491	
3037	0	32820	32472	
3038	0	32828	32490	
3039	0	32850	32558	
3040	0	32928	32519	
3041	0	32770	32520	
3042	0	32820	32744	
3043	0	32806	32798	
3044	0	32800	32820	
3045	0	32724	33013	
3046	0	32706	33196	
3047	0	32640	33426	
3048	0	32628	33508	
3049	0	32604	33584	
3050	0	32576	33618	
3051	0	32500	33692	
3052	0	32584	33604	
3053	0	32558	33684	
3054	0	32638	33604	
3055	0	32614	33354	
3056	0	32722	33274	
3057	0	32708	32970	
3058	0	32846	32708	
3059	0	32854	32580	
3060	0	32844	32452	
3061	0	32808	32492	
3062	0	32888	32374	
3063	0	32948	32209	
3064	0	32948	32348	
3065	0	32900	32404	
3066	0	32900	32330	
3067	0	32870	32396	
3068	0	32940	32334	
3069	0	32848	32458	
3070	0	32868	32492	
3071	0	32880	32554	
3072	0	32848	32574	
3073	0	32860	32564	
3074	0	32882	32728	
3075	0	32842	32704	
3076	0	32890	32775	
3077	0	32952	32798	
3078	0	32852	32759	
3079	0	32938	32862	
3080	0	32880	32836	
3081	0	32874	32687	
3082	0	32894	32796	
3083	0	32876	32804	
3084	0	32828	32810	
3085	0	32862	32920	
3086	0	32840	32858	
3087	0	32818	32796	
3088	0	32864	32708	
3089	0	32756	32773	
3090	0	32734	32746	
3091	0	32744	32826	
3092	0	32788	32804	
3093	0	32804	32835	
3094	0	32732	32775	
3095	0	32824	32724	
3096	0	32816	32726	
3097	0	32816	32756	
3098	0	32792	32832	
3099	0	32862	32738	
3100	0	32770	32707	
3101	0	32756	32732	
3102	0	32838	32660	
3103	0	32828	32828	
3104	0	32828	32796	
3105	0	32844	32775	
3106	0	32814	32775	
3107	0	32732	32764	
3108	0	32772	32759	
3109	0	32828	32810	
3110	0	32860	32840	
3111	0	32720	32732	
3112	0	32786	32774	
3113	0	32784	32734	
3114	0	32788	32840	
3115	0	32804	32804	
3116	0	32808	32687	
3117	0	32784	32760	
3118	0	32740	32760	
3119	0	32874	32732	
3120	0	32804	32758	
3121	0	32796	32728	
3122	0	32836	32803	
3123	0	32770	32756	
3124	0	32792	32736	
3125	0	32860	32760	
3126	0	32852	32772	
3127	0	32778	32839	
3128	0	32800	32854	
3129	0	32820	32706	
3130	0	32828	32775	
3131	0	32820	32855	
3132	0	32820	32692	
3133	0	32820	32866	
3134	0	32812	32740	
3135	0	32832	32692	
3136	0	32764	32794	
3137	0	32836	32789	
3138	0	32743	32775	
3139	0	32740	32694	
3140	0	32744	32734	
3141	0	32796	32768	
3142	0	32784	32671	
3143	0	32852	32798	
3144	0	32840	32775	
3145	0	32892	32678	
3146	0	32790	32766	
3147	0	32840	32864	
3148	0	32816	32852	
3149	0	32866	32800	
3150	0	32822	32738	
3151	0	32832	32804	
3152	0	32816	32814	
3153	0	32818	32770	
3154	0	32792	32796	
3155	0	32780	32634	
3156	0	32808	32752	
3157	0	32820	32844	
3158	0	32864	32775	
3159	0	32798	32766	
3160	0	32788	32707	
3161	0	32844	32832	
3162	0	32849	32846	
3163	0	32756	32726	
3164	0	32804	32743	
3165	0	32794	32728	
3166	0	32826	32868	
3167	0	32836	32754	
3168	0	32814	32678	
3169	0	32832	32716	
3170	0	32808	32718	
3171	0	32844	32775	
3172	0	32856	32702	
3173	0	32816	32726	
3174	0	32792	32772	
3175	0	32816	32674	
3176	0	32784	32744	
3177	0	32762	32676	
3178	0	32826	32743	
3179	0	32844	32775	
3180	0	32808	32724	
3181	0	32832	32756	
3182	0	32792	32678	
3183	0	32784	32740	
3184	0	32764	32763	
3185	0	32808	32700	
3186	0	32824	32836	
3187	0	32864	32805	
3188	0	32852	32711	
3189	0	32762	32715	
3190	0	32820	32865	
3191	0	32768	32728	
3192	0	32790	32826	
3193	0	32807	32742	
3194	0	32864	32710	
3195	0	32828	32775	
3196	0	32844	32748	
3197	0	32840	32712	
3198	0	32764	32824	
3199	0	32790	32728	
3200	0	32848	32830	
3201	0	32832	32792	
3202	0	32776	32772	
3203	0	32732	32726	
3204	0	32760	32666	
3205	0	32774	32876	
3206	0	32776	32758	
3207	0	32856	32670	
3208	0	32808	32724	
3209	0	32772	32688	
3210	0	32812	32775	
3211	0	32772	32764	
3212	0	32770	32692	
3213	0	32836	32935	
3214	0	32796	32868	
3215	0	32760	32692	
3216	0	32822	32812	
3217	0	32872	32686	
3218	0	32780	32712	
3219	0	32774	32791	
3220	0	32772	32608	
3221	0	32816	32804	
3222	0	32780	32710	
3223	0	32752	32614	
3224	0	32852	32812	
3225	0	32824	32794	
3226	0	32856	32850	
3227	0	32804	32808	
3228	0	32784	32686	
3229	0	32824	32870	
3230	0	32836	32856	
3231	0	32808	32798	
3232	0	32844	32859	
3233	0	32794	32820	
3234	0	32741	32708	
3235	0	32764	32766	
3236	0	32764	32702	
3237	0	32744	32706	
3238	0	32828	32706	
3239	0	32788	32790	
3240	0	32816	32775	
3241	0	32780	32766	
3242	0	32848	32688	
3243	0	32792	32764	
3244	0	32782	32732	
3245	0	32796	32775	
3246	0	32804	32684	
3247	0	32814	32760	
3248	0	32750	32774	
3249	0	32816	32807	
3250	0	32820	32828	
3251	0	32876	32758	
3252	0	32774	32740	
3253	0	32764	32728	
3254	0	32820	32835	
3255	0	32816	32762	
3256	0	32784	32784	
3257	0	32800	32692	
3258	0	32784	32754	
3259	0	32824	32820	
3260	0	32922	32760	
3261	0	32852	32711	
3262	0	32800	32775	
3263	0	32808	32743	
3264	0	32776	32774	
3265	0	32836	32796	
3266	0	32814	32772	
3267	0	32794	32768	
3268	0	32778	32705	
3269	0	32774	32812	
3270	0	32784	32720	
3271	0	32724	32770	
3272	0	32784	32822	
3273	0	32872	32732	
3274	0	32884	32764	
3275	0	32804	32696	
3276	0	32832	32760	
3277	0	32808	32719	
3278	0	32804	32702	
3279	0	32784	32798	
3280	0	32760	32694	
3281	0	32764	32764	
3282	0	32792	32768	
3283	0	32814	32702	
3284	0	32792	32822	
3285	0	32816	32839	
3286	0	32772	32856	
3287	0	32788	32838	
3288	0	32758	32734	
3289	0	32872	32888	
3290	0	32828	32892	
3291	0	32810	32718	
3292	0	32810	32790	
3293	0	32818	32700	
3294	0	32760	32814	
3295	0	32791	32712	
3296	0	32768	32746	
3297	0	32792	32746	
3298	0	32768	32902	
3299	0	32826	32902	
3300	0	32740	32648	
3301	0	32828	32746	
3302	0	32856	32647	
3303	0	32744	32799	
3304	0	32856	32726	
3305	0	32828	32854	
3306	0	32872	32672	
3307	0	32784	32775	
3308	0	32816	32866	
3309	0	32784	32660	
3310	0	32836	32796	
3311	0	32769	32710	
3312	0	32764	32649	
3313	0	32804	32708	
3314	0	32828	32634	
3315	0	32864	32758	
3316	0	32832	32736	
3317	0	32852	32822	
3318	0	32836	32684	
3319	0	32776	32842	
3320	0	32830	32812	
3321	0	32804	32732	
3322	0	32784	32772	
3323	0	32772	32758	
3324	0	32801	32775	
3325	0	32880	32838	
3326	0	32838	32720	
3327	0	32820	32820	
3328	0	32840	32874	
3329	0	32808	32732	
3330	0	32784	32772	
3331	0	32792	32759	
3332	0	32816	32742	
3333	0	32800	32722	
3334	0	32828	32724	
3335	0	32824	32679	
3336	0	32814	32710	
3337	0	32806	32832	
3338	0	32816	32684	
3339	0	32790	32791	
3340	0	32880	32712	
3341	0	32870	32736	
3342	0	32768	32806	
3343	0	32788	32712	
3344	0	32852	32806	
3345	0	32764	32695	
3346	0	32900	32774	
3347	0	32841	32772	
3348	0	32884	32790	
3349	0	32869	32846	
3350	0	32842	32691	
3351	0	32836	32746	
3352	0	32840	32814	
3353	0	32828	32748	
3354	0	32772	32790	
3355	0	32804	32728	
3356	0	32808	32774	
3357	0	32856	32799	
3358	0	32844	32802	
3359	0	32774	32736	
3360	0	32788	32799	
3361	0	32824	32656	
3362	0	32776	32734	
3363	0	32812	32764	
3364	0	32780	32775	
3365	0	32888	32714	
3366	0	32772	32740	
3367	0	32836	32849	
3368	0	32868	32849	
3369	0	32816	32679	
3370	0	32824	32762	
3371	0	32849	32788	
3372	0	32804	32708	
3373	0	32834	32792	
3374	0	32808	32774	
3375	0	32808	32742	
3376	0	32780	32792	
3377	0	32776	32793	
3378	0	32784	32820	
3379	0	32778	32822	
3380	0	32852	32738	
3381	0	32872	32764	
3382	0	32852	32761	
3383	0	32824	32664	
3384	0	32732	32820	
3385	0	32808	32760	
3386	0	32812	32746	
3387	0	32844	32815	
3388	0	32806	32728	
3389	0	32826	32786	
3390	0	32828	32706	
3391	0	32796	32806	
3392	0	32788	32708	
3393	0	32804	32740	
3394	0	32840	32762	
3395	0	32800	32748	
3396	0	32796	32752	
3397	0	32852	32775	
3398	0	32836	32750	
3399	0	32824	32832	
3400	0	32852	32794	
3401	0	32808	32811	
3402	0	32820	32616	
3403	0	32775	32820	
3404	0	32800	32898	
3405	0	32772	32832	
3406	0	32810	32766	
3407	0	32836	32768	
3408	0	32808	32830	
3409	0	32796	32733	
3410	0	32848	32848	
3411	0	32872	32833	
3412	0	32786	32676	
3413	0	32828	32790	
3414	0	32794	32775	
3415	0	32760	32647	
3416	0	32796	32848	
3417	0	32796	32734	
3418	0	32780	32698	
3419	0	32796	32762	
3420	0	32825	32746	
3421	0	32796	32839	
3422	0	32804	32814	
3423	0	32824	32737	
3424	0	32828	32768	
3425	0	32892	32767	
3426	0	32764	32743	
3427	0	32832	32840	
3428	0	32808	32846	
3429	0	32821	32775	
3430	0	32856	32766	
3431	0	32774	32760	
3432	0	32872	32804	
3433	0	32836	32674	
3434	0	32804	32805	
3435	0	32828	32762	
3436	0	32788	32751	
3437	0	32788	32824	
3438	0	32792	32682	
3439	0	32830	32841	
3440	0	32872	32802	
3441	0	32746	32671	
3442	0	32836	32775	
3443	0	32820	32742	
3444	0	32804	32864	
3445	0	32808	32720	
3446	0	32844	32714	
3447	0	32828	32807	
3448	0	32770	32834	
3449	0	32846	32700	
3450	0	32820	32775	
3451	0	32838	32766	
3452	0	32800	32814	
3453	0	32830	32759	
3454	0	32832	32852	
3455	0	32794	32772	
3456	0	32748	32692	
3457	0	32816	32870	
3458	0	32834	32771	
3459	0	32801	32775	
3460	0	32774	32791	
3461	0	32808	32740	
3462	0	32794	32702	
3463	0	32858	32798	
3464	0	32844	32812	
3465	0	32822	32702	
3466	0	32868	32784	
3467	0	32784	32642	
3468	0	32768	32838	
3469	0	32800	32724	
3470	0	32794	32818	
3471	0	32758	32844	
3472	0	32816	32756	
3473	0	32748	32806	
3474	0	32788	32740	
3475	0	32808	32804	
3476	0	32832	32835	
3477	0	32804	32708	
3478	0	32780	32725	
3479	0	32804	32846	
3480	0	32821	32798	
3481	0	32830	32828	
3482	0	32796	32678	
3483	0	32832	32796	
3484	0	32900	32748	
3485	0	32804	32762	
3486	0	32788	32884	
3487	0	32820	32705	
3488	0	32898	32704	
3489	0	32840	32723	
3490	0	32808	32802	
3491	0	32852	32658	
3492	0	32814	32804	
3493	0	32812	32775	
3494	0	32856	32726	
3495	0	32878	32784	
3496	0	32876	32842	
3497	0	32840	32712	
3498	0	32824	32658	
3499	0	32804	32816	
3500	0	32838	32770	
3501	0	32842	32647	
3502	0	32836	32728	
3503	0	32776	32732	
3504	0	32825	32800	
3505	0	32828	32828	
3506	0	32744	32883	
3507	0	32780	32836	
3508	0	32820	32718	
3509	0	32760	32802	
3510	0	32816	32698	
3511	0	32808	32788	
3512	0	32846	32784	
3513	0	32796	32726	
3514	0	32805	32759	
3515	0	32744	32710	
3516	0	32776	32874	
3517	0	32788	32736	
3518	0	32812	32754	
3519	0	32778	32766	
3520	0	32800	32796	
3521	0	32888	32698	
3522	0	32810	32812	
3523	0	32812	32820	
3524	0	32812	32880	
3525	0	32852	32768	
3526	0	32808	32766	
3527	0	32768	32846	
3528	0	32816	32866	
3529	0	32842	32819	
3530	0	32760	32847	
3531	0	32796	32775	
3532	0	32798	32752	
3533	0	32836	32791	
3534	0	32800	32684	
3535	0	32840	32799	
3536	0	32836	32746	
3537	0	32812	32775	
3538	0	32808	32752	
3539	0	32780	32762	
3540	0	32862	32766	
3541	0	32782	32702	
3542	0	32828	32762	
3543	0	32796	32792	
3544	0	32816	32739	
3545	0	32764	32810	
3546	0	32788	32767	
3547	0	32778	32715	
3548	0	32798	32863	
3549	0	32806	32624	
3550	0	32796	32766	
3551	0	32812	32674	
3552	0	32734	32834	
3553	0	32772	32820	
3554	0	32848	32660	
3555	0	32824	32840	
3556	0	32788	32820	
3557	0	32780	32828	
3558	0	32800	32840	
3559	0	32808	32724	
3560	0	32788	32885	
3561	0	32844	32854	
3562	0	32816	32692	
3563	0	32842	32804	
3564	0	32842	32903	
3565	0	32802	32818	
3566	0	32868	32836	
3567	0	32816	32816	
3568	0	32800	32834	
3569	0	32800	32679	
3570	0	32740	32794	
3571	0	32796	32744	
3572	0	32882	32756	
3573	0	32876	32870	
3574	0	32768	32760	
3575	0	32864	32770	
3576	0	32840	32642	
3577	0	32796	32804	
3578	0	32780	32758	
3579	0	32808	32602	
3580	0	32802	32719	
3581	0	32780	32712	
3582	0	32832	32670	
3583	0	32846	32804	
3584	0	32768	32688	
3585	0	32814	32718	
3586	0	32840	32775	
3587	0	32806	32738	
3588	0	32804	32706	
3589	0	32784	32775	
3590	0	32816	32767	
3591	0	32828	32860	
3592	0	32784	32870	
3593	0	32846	32752	
3594	0	32782	32852	
3595	0	32872	32810	
3596	0	32814	32847	
3597	0	32852	32724	
3598	0	32810	32830	
3599	0	32868	32678	
3600	0	32856	32647	
3601	0	32742	32775	
3602	0	32774	32692	
3603	0	32824	32826	
3604	0	32820	32772	
3605	0	32892	32728	
3606	0	32908	32894	
3607	0	32800	32790	
3608	0	32830	32805	
3609	0	32772	32775	
3610	0	32740	32726	
3611	0	32796	32815	
3612	0	32780	32807	
3613	0	32738	32770	
3614	0	32680	32868	
3615	0	32680	32897	
3616	0	32772	32740	
3617	0	32716	32718	
3618	0	32744	32759	
3619	0	32752	32820	
3620	0	32810	32836	
3621	0	32816	32676	
3622	0	32858	32812	
3623	0	32848	32730	
3624	0	32772	32782	
3625	0	32872	32738	
3626	0	32984	32788	
3627	0	32860	32784	
3628	0	32934	32646	
3629	0	32928	32674	
3630	0	32930	32743	
3631	0	32864	32816	
3632	0	32836	32868	
3633	0	32900	32914	
3634	0	32812	32830	
3635	0	32716	32920	
3636	0	32770	32844	
3637	0	32716	32760	
3638	0	32734	32802	
3639	0	32764	32836	
3640	0	32748	32682	
3641	0	32746	32737	
3642	0	32784	32490	
3643	0	32714	32512	
3644	0	32836	32636	
3645	0	32812	32839	
3646	0	32788	32839	
3647	0	32852	32760	
3648	0	32796	32840	
3649	0	32864	32736	
3650	0	32800	32668	
3651	0	32890	32871	
3652	0	32866	32798	
3653	0	32940	32732	
3654	0	32792	32910	
3655	0	32868	32784	
3656	0	32828	32614	
3657	0	32804	32686	
3658	0	32740	32620	
3659	0	32742	32590	
3660	0	32748	32756	
3661	0	32740	32791	
3662	0	32716	32846	
3663	0	32740	33020	
3664	0	32800	32912	
3665	0	32844	32906	
3666	0	32838	32856	
3667	0	32849	32802	
3668	0	32812	32838	
3669	0	32948	32750	
3670	0	32960	32799	
3671	0	33036	32775	
3672	0	32944	32536	
3673	0	32912	32606	
3674	0	32802	32654	
3675	0	32804	32692	
3676	0	32868	32922	
3677	0	32836	32760	
3678	0	32748	32672	
3679	0	32756	32800	
3680	0	32652	32822	
3681	0	32656	32804	
3682	0	32716	32612	
3683	0	32808	32741	
3684	0	32780	32710	
3685	0	32890	32762	
3686	0	32864	32930	
3687	0	32786	32928	
3688	0	32762	32965	
3689	0	32896	33066	
3690	0	32945	32944	
3691	0	32846	32700	
3692	0	32748	32688	
3693	0	32684	32511	
3694	0	32696	32609	
3695	0	32672	32657	
3696	0	32788	32554	
3697	0	32780	32416	
3698	0	32740	32732	
3699	0	32880	32682	
3700	0	32788	32601	
3701	0	32932	32664	
3702	0	32864	32647	
3703	0	32874	32742	
3704	0	33032	32640	
3705	0	33018	32888	
3706	0	32996	32932	
3707	0	32880	32732	
3708	0	32864	32935	
3709	0	33020	32698	
3710	0	33084	32342	
3711	0	33060	32544	
3712	0	32868	32722	
3713	0	32864	32750	
3714	0	32856	32758	
3715	0	32848	32704	
3716	0	32672	32758	
3717	0	32638	32692	
3718	0	32596	32575	
3719	0	32578	32570	
3720	0	32702	32466	
3721	0	32646	32426	
3722	0	32678	32536	
3723	0	32756	32446	
3724	0	32792	32631	
3725	0	32788	32658	
3726	0	32714	32846	
3727	0	32876	32886	
3728	0	32832	33168	
3729	0	32904	33462	
3730	0	32680	33556	
3731	0	32552	33686	
3732	0	32468	33767	
3733	0	32736	33600	
3734	0	32834	33664	
3735	0	32708	33647	
3736	0	32708	33474	
3737	0	32644	33256	
3738	0	32653	32977	
3739	0	32794	33038	
3740	0	32832	32862	
3741	0	32868	32652	
3742	0	32664	32634	
3743	0	32674	32374	
3744	0	32884	32176	
3745	0	32918	32066	
3746	0	32880	32014	
3747	0	32784	32048	
3748	0	32832	31936	
3749	0	32920	32034	
3750	0	32808	32234	
3751	0	32668	32215	
3752	0	32656	32418	
3753	0	32812	32346	
3754	0	32966	32551	
3755	0	32956	32820	
3756	0	32976	32884	
3757	0	32944	33051	
3758	0	32848	33094	
3759	0	32872	33198	
3760	0	32888	33228	
3761	0	32970	33008	
3762	0	32992	33004	
3763	0	33020	32991	
3764	0	32912	33068	
3765	0	32959	32950	
3766	0	33018	32656	
3767	0	32942	32692	
3768	0	32836	32762	
3769	0	32818	32676	
3770	0	32782	32702	
3771	0	32812	32564	
3772	0	32624	32460	
3773	0	32720	32591	
3774	0	32660	32519	
3775	0	32840	32724	
3776	0	32800	32890	
3777	0	32712	32836	
3778	0	32628	32896	
3779	0	32672	32775	
3780	0	32798	32892	
3781	0	33060	32966	
3782	0	33064	32863	
3783	0	33090	32836	
3784	0	32832	32718	
3785	0	32654	32598	
3786	0	32532	32634	
3787	0	32396	32618	
3788	0	32410	32775	
3789	0	32296	32770	
3790	0	32400	32682	
3791	0	32504	32910	
3792	0	32618	33154	
3793	0	32650	32900	
3794	0	32788	32668	
3795	0	32924	32604	
3796	0	33036	32620	
3797	0	32996	32588	
3798	0	33080	32478	
3799	0	33080	32398	
3800	0	32998	32433	
3801	0	32896	32766	
3802	0	32930	32966	
3803	0	33034	32698	
3804	0	33326	32878	
3805	0	33280	32806	
3806	0	33192	32878	
3807	0	33092	32935	
3808	0	32912	32919	
3809	0	32796	33186	
3810	0	32684	32984	
3811	0	32588	33078	
3812	0	32540	32874	
3813	0	32572	32836	
3814	0	32482	32718	
3815	0	32468	32720	
3816	0	32436	32736	
3817	0	32488	32726	
3818	0	32688	32724	
3819	0	32896	32592	
3820	0	32916	32788	
3821	0	33132	32750	
3822	0	33344	32916	
3823	0	33432	33050	
3824	0	33304	32972	
3825	0	33104	32864	
3826	0	32912	32920	
3827	0	32766	32662	
3828	0	32612	32660	
3829	0	32442	32578	
3830	0	32398	32558	
3831	0	32296	32614	
3832	0	32232	32680	
3833	0	32124	32564	
3834	0	32240	32586	
3835	0	32536	32686	
3836	0	32988	32730	
3837	0	32984	32934	
3838	0	33088	32828	
3839	0	33188	32806	
3840	0	33222	32846	
3841	0	33194	32692	
3842	0	33140	32812	
3843	0	32958	32725	
3844	0	32804	32680	
3845	0	32647	32686	
3846	0	32514	32720	
3847	0	32470	32748	
3848	0	32548	32551	
3849	0	32672	32806	
3850	0	32804	32862	
3851	0	33150	32835	
3852	0	33168	32916	
3853	0	33036	32985	
3854	0	32936	33242	
3855	0	32816	33059	
3856	0	32866	32924	
3857	0	32770	32750	
3858	0	32628	32734	
3859	0	32620	32586	
3860	0	32514	32684	
3861	0	32448	32566	
3862	0	32708	32856	
3863	0	32952	32769	
3864	0	33156	32972	
3865	0	33252	33031	
3866	0	33310	32708	
3867	0	33112	32750	
3868	0	33138	32740	
3869	0	33024	32756	
3870	0	32820	32644	
3871	0	32590	32496	
3872	0	32698	32564	
3873	0	32588	32296	
3874	0	32540	32410	
3875	0	32498	32612	
3876	0	32418	32596	
3877	0	32468	32662	
3878	0	32596	32706	
3879	0	32726	32858	
3880	0	32682	32801	
3881	0	32756	32628	
3882	0	32874	32761	
3883	0	33002	32816	
3884	0	33024	33000	
3885	0	33032	32970	
3886	0	33184	33022	
3887	0	33226	32980	
3888	0	33120	32976	
3889	0	33028	32948	
3890	0	33034	32952	
3891	0	33048	32958	
3892	0	32918	33014	
3893	0	32682	32890	
3894	0	32660	32652	
3895	0	32570	32756	
3896	0	32608	32588	
3897	0	32618	32568	
3898	0	32650	32548	
3899	0	32676	32580	
3900	0	32864	32626	
3901	0	32816	32568	
3902	0	32824	32692	
3903	0	32794	32674	
3904	0	32608	32738	
3905	0	32636	32804	
3906	0	32816	32702	
3907	0	32878	32928	
3908	0	32812	32962	
3909	0	32802	32731	
3910	0	32820	33052	
3911	0	32716	33060	
3912	0	32700	33118	
3913	0	32964	33044	
3914	0	33088	32812	
3915	0	33130	32718	
3916	0	33044	32980	
3917	0	33032	32846	
3918	0	32964	32560	
3919	0	33058	32224	
3920	0	32980	32192	
3921	0	32892	32180	
3922	0	32648	32351	
3923	0	32384	32506	
3924	0	32462	32418	
3925	0	32424	32647	
3926	0	32260	32720	
3927	0	32436	33086	
3928	0	32572	32945	
3929	0	32748	33170	
3930	0	32820	33134	
3931	0	32750	33077	
3932	0	32652	32983	
3933	0	32820	33170	
3934	0	33080	33110	
3935	0	33170	32930	
3936	0	33144	33111	
3937	0	33014	33000	
3938	0	33152	33060	
3939	0	33214	32894	
3940	0	33038	32566	
3941	0	32900	32494	
3942	0	32740	32391	
3943	0	32680	32438	
3944	0	32484	32442	
3945	0	32502	32580	
3946	0	32510	32658	
3947	0	32658	32775	
3948	0	32708	32620	
3949	0	32846	32722	
3950	0	33092	32712	
3951	0	33336	32790	
3952	0	33214	32876	
3953	0	32952	32884	
3954	0	32820	32721	
3955	0	32616	32886	
3956	0	32544	32772	
3957	0	32508	32764	
3958	0	32488	32876	
3959	0	32400	32724	
3960	0	32504	32703	
3961	0	32496	32775	
3962	0	32676	32762	
3963	0	32724	32798	
3964	0	32774	32828	
3965	0	32772	32934	
3966	0	33044	32998	
3967	0	33134	32828	
3968	0	33116	32826	
3969	0	32988	32618	
3970	0	33004	32664	
3971	0	32998	32772	
3972	0	32976	32840	
3973	0	32964	33040	
3974	0	32988	33065	
3975	0	32964	32854	
3976	0	33036	32977	
3977	0	32896	32935	
3978	0	32824	32656	
3979	0	32794	32418	
3980	0	32828	32256	
3981	0	32728	32418	
3982	0	32544	32380	
3983	0	32672	32670	
3984	0	32880	32720	
3985	0	32936	32816	
3986	0	32680	32608	
3987	0	32656	32630	
3988	0	32666	32899	
3989	0	32616	32986	
3990	0	32389	32998	
3991	0	32484	32966	
3992	0	32606	32958	
3993	0	32532	33038	
3994	0	32590	33008	
3995	0	32566	33172	
3996	0	32618	33031	
3997	0	32712	32790	
3998	0	33010	32823	
3999	0	32966	32770	
4000	0	33120	32452	
4001	0	33158	32536	
4002	0	33064	32578	
4003	0	33060	32606	
4004	0	33026	32572	
4005	0	32758	32644	
4006	0	32854	32626	
4007	0	32842	32586	
4008	0	32976	32458	
4009	0	32884	32478	
4010	0	32832	32688	
4011	0	32688	33015	
4012	0	32687	33108	
4013	0	32642	32820	
4014	0	32768	32682	
4015	0	32972	32700	
4016	0	32920	32647	
4017	0	32960	33196	
4018	0	32802	33006	
4019	0	32922	32904	
4020	0	32858	32980	
4021	0	32624	32959	
4022	0	32458	32926	
4023	0	32564	32836	
4024	0	32446	32756	
4025	0	32350	32794	
4026	0	32460	32830	
4027	0	32644	32775	
4028	0	32660	32711	
4029	0	32676	32742	
4030	0	32868	32892	
4031	0	32974	32808	
4032	0	33117	32700	
4033	0	33048	32551	
4034	0	33112	32503	
4035	0	33254	32568	
4036	0	33224	32663	
4037	0	33120	32672	
4038	0	33196	32800	
4039	0	33204	32670	
4040	0	33124	32518	
4041	0	32856	32662	
4042	0	32828	32692	
4043	0	32660	32696	
4044	0	32844	32686	
4045	0	32896	32569	
4046	0	32844	32535	
4047	0	32816	32623	
4048	0	32752	32999	
4049	0	32632	33186	
4050	0	32602	32924	
4051	0	32572	32922	
4052	0	32662	32892	
4053	0	32622	32873	
4054	0	32354	32516	
4055	0	32286	32239	
4056	0	32318	32378	
4057	0	32490	32644	
4058	0	32792	32836	
4059	0	32916	32734	
4060	0	33252	32871	
4061	0	33232	32924	
4062	0	33158	32994	
4063	0	33218	32912	
4064	0	32984	32775	
4065	0	32956	32974	
4066	0	32716	33132	
4067	0	32496	32900	
4068	0	32120	32786	
4069	0	32340	32820	
4070	0	32768	32680	
4071	0	33008	32646	
4072	0	32924	32638	
4073	0	32932	32504	
4074	0	33108	32647	
4075	0	32976	32711	
4076	0	32774	32644	
4077	0	32743	32580	
4078	0	32890	32444	
4079	0	32868	32506	
4080	0	32788	32519	
4081	0	32940	32587	
4082	0	32988	32690	
4083	0	32848	32556	
4084	0	32856	32862	
4085	0	32698	32940	
4086	0	32762	32894	
4087	0	32492	33076	
4088	0	32636	33012	
4089	0	32980	33250	
4090	0	33064	33076	
4091	0	33168	33073	
4092	0	33228	33040	
4093	0	33204	32866	
4094	0	32840	32996	
4095	0	32624	32984	
4096	0	32536	32664	
4097	0	32632	32859	
4098	0	32900	32772	
4099	0	32860	32628	
4100	0	32680	32647	
4101	0	32937	32596	
4102	0	32969	32358	
4103	0	32640	32606	
4104	0	32732	32702	
4105	0	32822	32748	
4106	0	32530	32812	
4107	0	32328	32844	
4108	0	32192	32680	
4109	0	32352	32828	
4110	0	32508	32838	
4111	0	32636	32874	
4112	0	32800	32930	
4113	0	33104	32760	
4114	0	33340	32615	
4115	0	33384	32644	
4116	0	33082	32528	
4117	0	32886	32622	
4118	0	32752	32614	
4119	0	33026	32564	
4120	0	33082	32775	
4121	0	32884	32865	
4122	0	32642	32742	
4123	0	32792	32878	
4124	0	32852	32775	
4125	0	32832	33002	
4126	0	32816	32897	
4127	0	32548	32760	
4128	0	32468	32663	
4129	0	32548	32612	
4130	0	32488	32688	
4131	0	32540	32882	
4132	0	32546	32938	
4133	0	32704	32760	
4134	0	32976	32775	
4135	0	32876	32695	
4136	0	32980	32830	
4137	0	33272	32676	
4138	0	33482	32544	
4139	0	33496	32798	
4140	0	33412	32756	
4141	0	33092	32822	
4142	0	32992	32638	
4143	0	32662	32684	
4144	0	32488	32863	
4145	0	32434	32775	
4146	0	32618	32924	
4147	0	32840	33118	
4148	0	32821	33167	
4149	0	32876	32814	
4150	0	32734	32680	
4151	0	32685	32547	
4152	0	32644	32288	
4153	0	32620	32243	
4154	0	32416	32423	
4155	0	32308	32487	
4156	0	32264	32676	
4157	0	32376	32708	
4158	0	32650	32794	
4159	0	32708	32903	
4160	0	32794	33016	
4161	0	32948	33010	
4162	0	33112	33154	
4163	0	33108	32890	
4164	0	33184	32902	
4165	0	33216	32892	
4166	0	33182	32788	
4167	0	33280	32854	
4168	0	33718	32704	
4169	0	33560	32766	
4170	0	33100	33010	
4171	0	32746	32807	
4172	0	32624	32806	
4173	0	32408	32866	
4174	0	32236	32874	
4175	0	32164	32630	
4176	0	32290	32586	
4177	0	32244	32578	
4178	0	32394	32475	
4179	0	32520	32646	
4180	0	32522	32826	
4181	0	32784	32760	
4182	0	32908	32746	
4183	0	33176	32753	
4184	0	33160	32673	
4185	0	33348	32920	
4186	0	33622	32772	
4187	0	33876	32712	
4188	0	34072	32922	
4189	0	33904	32934	
4190	0	33548	32942	
4191	0	33302	33159	
4192	0	32698	32872	
4193	0	32160	32900	
4194	0	31762	32647	
4195	0	31372	32292	
4196	0	31198	32444	
4197	0	31836	32263	
4198	0	31750	32420	
4199	0	31758	32391	
4200	0	31684	32388	
4201	0	31890	32534	
4202	0	32096	32695	
4203	0	32568	32910	
4204	0	32846	33036	
4205	0	33236	33108	
4206	0	33510	32982	
4207	0	33484	33076	
4208	0	33604	32892	
4209	0	33676	32876	
4210	0	33668	33146	
4211	0	33580	33195	
4212	0	33628	33250	
4213	0	33528	32886	
4214	0	33788	32679	
4215	0	33636	32626	
4216	0	33248	32460	
4217	0	32964	32590	
4218	0	32714	32718	
4219	0	32796	32546	
4220	0	32636	32722	
4221	0	32318	33012	
4222	0	32088	32744	
4223	0	32002	32740	
4224	0	32024	32426	
4225	0	32174	32442	
4226	0	32260	32448	
4227	0	32296	32592	
4228	0	32652	32568	
4229	0	33008	32496	
4230	0	32970	32670	
4231	0	33180	33072	
4232	0	33226	33132	
4233	0	33064	33144	
4234	0	32964	33002	
4235	0	33208	33112	
4236	0	33362	32758	
4237	0	33168	32660	
4238	0	32938	32860	
4239	0	32926	32804	
4240	0	32840	32983	
4241	0	33092	32900	
4242	0	32864	32610	
4243	0	32810	32519	
4244	0	32758	32447	
4245	0	32846	32552	
4246	0	32734	32824	
4247	0	32344	32782	
4248	0	32138	32692	
4249	0	32152	32698	
4250	0	32096	32470	
4251	0	32080	32624	
4252	0	32156	32623	
4253	0	32538	32725	
4254	0	32727	32654	
4255	0	32960	32762	
4256	0	33368	32720	
4257	0	33476	32630	
4258	0	33354	32758	
4259	0	33028	32816	
4260	0	32868	32980	
4261	0	32804	32966	
4262	0	32832	32900	
4263	0	32824	32999	
4264	0	32948	32714	
4265	0	33000	32786	
4266	0	32904	32790	
4267	0	32760	32852	
4268	0	32658	32842	
4269	0	32804	32660	
4270	0	32585	32684	
4271	0	32404	32803	
4272	0	32514	32764	
4273	0	32838	32860	
4274	0	32768	32710	
4275	0	32824	32791	
4276	0	32974	32671	
4277	0	32904	32690	
4278	0	32900	32546	
4279	0	32954	32380	
4280	0	33098	32728	
4281	0	33092	33024	
4282	0	33104	32934	
4283	0	32932	32900	
4284	0	32804	32798	
4285	0	32944	32753	
4286	0	33452	32801	
4287	0	33610	32716	
4288	0	33188	32814	
4289	0	32868	32692	
4290	0	32504	32674	
4291	0	32452	32871	
4292	0	32720	32680	
4293	0	32840	32839	
4294	0	32556	32752	
4295	0	32454	32732	
4296	0	32544	32660	
4297	0	32584	32775	
4298	0	32516	32934	
4299	0	32244	32762	
4300	0	32350	32916	
4301	0	32282	32738	
4302	0	32258	32707	
4303	0	32284	32730	
4304	0	32664	32794	
4305	0	32950	32708	
4306	0	33126	32822	
4307	0	33124	32870	
4308	0	33296	32758	
4309	0	33448	32810	
4310	0	33096	32918	
4311	0	33172	32732	
4312	0	33182	32708	
4313	0	32972	32726	
4314	0	32720	32810	
4315	0	32460	32668	
4316	0	32712	32711	
4317	0	33058	32610	
4318	0	33068	32718	
4319	0	33048	32770	
4320	0	32660	32666	
4321	0	32330	32775	
4322	0	32560	32699	
4323	0	32664	32846	
4324	0	33004	32639	
4325	0	33188	32846	
4326	0	33124	33020	
4327	0	32970	33137	
4328	0	32854	33078	
4329	0	32821	32926	
4330	0	32744	32719	
4331	0	32657	32534	
4332	0	32632	32524	
4333	0	32416	32623	
4334	0	32576	32469	
4335	0	32730	32569	
4336	0	32784	32522	
4337	0	32868	32476	
4338	0	32804	32742	
4339	0	33126	32471	
4340	0	32706	32678	
4341	0	32900	32864	
4342	0	33404	32858	
4343	0	33308	32930	
4344	0	32760	32892	
4345	0	32456	32922	
4346	0	32260	33036	
4347	0	32230	32863	
4348	0	32216	32620	
4349	0	32160	32940	
4350	0	32506	32672	
4351	0	33280	32832	
4352	0	33364	32724	
4353	0	33162	32644	
4354	0	32900	32711	
4355	0	33002	32464	
4356	0	33128	32988	
4357	0	33056	32736	
4358	0	32670	32874	
4359	0	32508	32832	
4360	0	32680	32954	
4361	0	32742	32660	
4362	0	32816	32876	
4363	0	32788	32651	
4364	0	32764	32588	
4365	0	32841	32702	
4366	0	33024	32710	
4367	0	33164	32816	
4368	0	33168	32711	
4369	0	32999	32741	
4370	0	32868	32756	
4371	0	33041	32824	
4372	0	33110	32926	
4373	0	32764	32876	
4374	0	32324	32874	
4375	0	32280	32726	
4376	0	32334	32676	
4377	0	32540	32766	
4378	0	32644	32642	
4379	0	32834	32897	
4380	0	33312	33210	
4381	0	33634	33060	
4382	0	33512	32668	
4383	0	33268	32617	
4384	0	33104	32650	
4385	0	32756	32528	
4386	0	32208	32846	
4387	0	31912	32892	
4388	0	32096	32480	
4389	0	32398	32482	
4390	0	32312	32412	
4391	0	32600	32404	
4392	0	33088	32424	
4393	0	33392	32404	
4394	0	33504	32434	
4395	0	33568	32446	
4396	0	33548	32378	
4397	0	33156	32452	
4398	0	32932	32742	
4399	0	32748	32690	
4400	0	32572	32541	
4401	0	32850	32436	
4402	0	32896	32722	
4403	0	32914	32840	
4404	0	32554	32862	
4405	0	32420	32775	
4406	0	32496	32852	
4407	0	32326	32980	
4408	0	32244	33410	
4409	0	32412	33468	
4410	0	32552	33782	
4411	0	32800	33852	
4412	0	32628	33825	
4413	0	32920	33799	
4414	0	33028	33916	
4415	0	32800	33927	
4416	0	32744	33354	
4417	0	32648	33304	
4418	0	32360	33136	
4419	0	32324	32640	
4420	0	32600	32140	
4421	0	32504	32150	
4422	0	32686	32354	
4423	0	32900	32192	
4424	0	33344	32344	
4425	0	34076	32150	
4426	0	34704	32546	
4427	0	34216	32560	
4428	0	33164	32286	
4429	0	32568	32244	
4430	0	32148	32358	
4431	0	31972	32478	
4432	0	31780	32388	
4433	0	31944	32326	
4434	0	31812	32644	
4435	0	31956	32926	
4436	0	32292	32986	
4437	0	32528	32799	
4438	0	32564	32678	
4439	0	32676	32580	
4440	0	32880	32756	
4441	0	33128	32438	
4442	0	33276	32946	
4443	0	33740	32669	
4444	0	33980	32822	
4445	0	33768	33146	
4446	0	33636	32650	
4447	0	33560	33047	
4448	0	33108	32852	
4449	0	33110	32966	
4450	0	33002	32847	
4451	0	33072	32580	
4452	0	33158	32656	
4453	0	32800	32935	
4454	0	32368	33012	
4455	0	32260	32512	
4456	0	32436	32836	
4457	0	33068	32775	
4458	0	32990	32852	
4459	0	32824	32654	
4460	0	32904	32636	
4461	0	33040	32882	
4462	0	32558	32518	
4463	0	32096	32887	
4464	0	31972	32455	
4465	0	32220	32764	
4466	0	32708	32987	
4467	0	32992	33024	
4468	0	32700	32788	
4469	0	33060	32626	
4470	0	33160	32419	
4471	0	32904	32964	
4472	0	32738	32740	
4473	0	32712	32932	
4474	0	32712	32775	
4475	0	32304	32680	
4476	0	32408	32917	
4477	0	32574	32820	
4478	0	32234	32736	
4479	0	32174	32548	
4480	0	32368	32887	
4481	0	32152	32696	
4482	0	32544	32588	
4483	0	32900	32916	
4484	0	32844	32859	
4485	0	32960	32632	
4486	0	33252	32746	
4487	0	33440	32852	
4488	0	33180	32956	
4489	0	33156	32705	
4490	0	33436	32970	
4491	0	33752	32775	
4492	0	33528	33012	
4493	0	33388	32632	
4494	0	33082	32618	
4495	0	32975	32591	
4496	0	33124	32748	
4497	0	32888	32503	
4498	0	32450	32374	
4499	0	32124	32562	
4500	0	32168	32936	
4501	0	32892	32860	
4502	0	33248	32634	
4503	0	33220	32404	
4504	0	32716	32903	
4505	0	32398	32978	
4506	0	32234	32807	
4507	0	32014	32903	
4508	0	32022	32852	
4509	0	32004	32848	
4510	0	32348	32854	
4511	0	32824	32696	
4512	0	33024	32818	
4513	0	33098	33031	
4514	0	33192	32671	
4515	0	33216	32620	
4516	0	33408	32572	
4517	0	33902	32839	
4518	0	34394	32888	
4519	0	34328	32640	
4520	0	33972	32952	
4521	0	33184	32828	
4522	0	32584	32550	
4523	0	32140	32910	
4524	0	31866	32964	
4525	0	31844	33000	
4526	0	32040	32590	
4527	0	32068	32858	
4528	0	31858	32716	
4529	0	31888	32402	
4530	0	32152	32430	
4531	0	32228	32960	
4532	0	32544	32676	
4533	0	33622	32608	
4534	0	33648	33208	
4535	0	33372	33028	
4536	0	33064	32808	
4537	0	32718	32780	
4538	0	32602	32708	
4539	0	32290	32722	
4540	0	32156	32556	
4541	0	32304	32734	
4542	0	32480	32964	
4543	0	32808	32680	
4544	0	33080	32296	
4545	0	33424	32756	
4546	0	33988	32886	
4547	0	34076	32942	
4548	0	33994	33052	
4549	0	33384	32726	
4550	0	32634	32647	
4551	0	32488	32338	
4552	0	32641	32740	
4553	0	31952	32972	
4554	0	31544	32436	
4555	0	32004	32090	
4556	0	32038	32692	
4557	0	32076	32804	
4558	0	32400	32468	
4559	0	32652	32952	
4560	0	32984	32940	
4561	0	33144	33068	
4562	0	33060	32775	
4563	0	33144	32839	
4564	0	33486	32736	
4565	0	33504	32882	
4566	0	33304	32912	
4567	0	32888	32830	
4568	0	32604	32742	
4569	0	32552	32952	
4570	0	32328	32916	
4571	0	32476	32532	
4572	0	32780	32700	
4573	0	32844	32966	
4574	0	33316	32784	
4575	0	33344	32610	
4576	0	33242	32552	
4577	0	33460	32746	
4578	0	33472	32530	
4579	0	33304	32820	
4580	0	33208	33356	
4581	0	33036	32800	
4582	0	32994	32584	
4583	0	32638	32628	
4584	0	32668	32551	
4585	0	32676	33250	
4586	0	32424	32710	
4587	0	32556	32962	
4588	0	32780	32662	
4589	0	32488	32844	
4590	0	32244	32914	
4591	0	32038	32970	
4592	0	31966	33124	
4593	0	31986	32862	
4594	0	31748	32670	
4595	0	31926	32412	
4596	0	32320	32537	
4597	0	32512	32650	
4598	0	32801	32612	
4599	0	33172	32914	
4600	0	33124	32680	
4601	0	33328	32896	
4602	0	33688	32483	
4603	0	33942	32992	
4604	0	34354	32356	
4605	0	34644	32952	
4606	0	34244	32903	
4607	0	33556	32671	
4608	0	32964	32912	
4609	0	32706	32700	
4610	0	32424	32881	
4611	0	31972	32976	
4612	0	31876	32506	
4613	0	31924	31926	
4614	0	32198	33100	
4615	0	32568	32760	
4616	0	32640	32692	
4617	0	32386	32775	
4618	0	32364	33092	
4619	0	32320	33024	
4620	0	32376	32350	
4621	0	32122	32562	
4622	0	32054	32664	
4623	0	32282	32818	
4624	0	32748	32932	
4625	0	32878	32812	
4626	0	32912	32668	
4627	0	33029	32684	
4628	0	33152	32766	
4629	0	33120	32775	
4630	0	33088	32860	
4631	0	33256	32800	
4632	0	33336	32567	
4633	0	33192	32937	
4634	0	33288	32924	
4635	0	33576	32987	
4636	0	33644	32796	
4637	0	33480	33004	
4638	0	33264	32582	
4639	0	33276	32534	
4640	0	32740	32346	
4641	0	32562	32922	
4642	0	33008	32984	
4643	0	32876	32498	
4644	0	32310	33031	
4645	0	32332	33028	
4646	0	32612	33015	
4647	0	32572	32386	
4648	0	32592	32612	
4649	0	32260	32422	
4650	0	32024	32654	
4651	0	32168	32764	
4652	0	32476	33132	
4653	0	32636	32812	
4654	0	32972	32863	
4655	0	32696	32928	
4656	0	32436	32926	
4657	0	32550	32615	
4658	0	32368	33018	
4659	0	32420	32888	
4660	0	32440	32512	
4661	0	32392	32760	
4662	0	32734	32686	
4663	0	32958	32864	
4664	0	33132	32962	
4665	0	33248	32421	
4666	0	33408	33174	
4667	0	33536	32752	
4668	0	33328	32774	
4669	0	33100	32476	
4670	0	33088	32702	
4671	0	32940	33010	
4672	0	32932	32636	
4673	0	32800	32676	
4674	0	32748	32924	
4675	0	32810	32466	
4676	0	32834	33127	
4677	0	33100	33052	
4678	0	33498	32572	
4679	0	33868	32934	
4680	0	33816	32751	
4681	0	33444	32493	
4682	0	33072	32615	
4683	0	32196	32506	
4684	0	32370	32684	
4685	0	31928	32580	
4686	0	31600	32971	
4687	0	31396	32652	
4688	0	31070	32744	
4689	0	31568	32593	
4690	0	31982	33108	
4691	0	32358	32652	
4692	0	32578	32932	
4693	0	32854	32709	
4694	0	33414	32398	
4695	0	34044	32775	
4696	0	34396	32704	
4697	0	34460	33262	
4698	0	34104	32606	
4699	0	33352	32388	
4700	0	32849	33104	
4701	0	32352	33114	
4702	0	32136	32506	
4703	0	32628	32838	
4704	0	32890	32838	
4705	0	32884	32860	
4706	0	32556	32591	
4707	0	32528	32551	
4708	0	32444	32550	
4709	0	32492	32718	
4710	0	32708	32716	
4711	0	32350	32636	
4712	0	32304	32548	
4713	0	32280	32934	
4714	0	32332	32967	
4715	0	32765	32561	
4716	0	33148	32976	
4717	0	33870	33636	
4718	0	34210	32814	
4719	0	34420	32750	
4720	0	34712	32746	
4721	0	34056	32362	
4722	0	33764	32551	
4723	0	32686	32910	
4724	0	31816	33304	
4725	0	31365	32366	
4726	0	31056	32830	
4727	0	30684	32915	
4728	0	31004	32478	
4729	0	31384	32108	
4730	0	32288	32687	
4731	0	32644	32714	
4732	0	32740	32814	
4733	0	33032	32775	
4734	0	33252	32864	
4735	0	33344	32904	
4736	0	33232	32810	
4737	0	33066	32554	
4738	0	32808	32724	
4739	0	32996	32679	
4740	0	32994	32934	
4741	0	33140	32660	
4742	0	33258	32822	
4743	0	33306	32812	
4744	0	33170	32791	
4745	0	33208	32583	
4746	0	33162	32832	
4747	0	33128	32960	
4748	0	32992	32970	
4749	0	33112	33126	
4750	0	33188	32506	
4751	0	33440	32618	
4752	0	33532	33264	
4753	0	33260	32932	
4754	0	32940	33079	
4755	0	32930	32430	
4756	0	33042	32606	
4757	0	32782	32476	
4758	0	32346	32722	
4759	0	31868	32775	
4760	0	31732	32724	
4761	0	31652	32678	
4762	0	32080	32718	
4763	0	32136	32508	
4764	0	32260	32484	
4765	0	32588	32599	
4766	0	32832	32806	
4767	0	32824	32668	
4768	0	32880	32900	
4769	0	32775	32852	
4770	0	32874	32684	
4771	0	33068	33207	
4772	0	32968	32826	
4773	0	32940	32884	
4774	0	32792	32948	
4775	0	32944	32892	
4776	0	33400	32678	
4777	0	33780	32508	
4778	0	33994	33088	
4779	0	34172	32876	
4780	0	33746	32616	
4781	0	32992	32682	
4782	0	32384	32902	
4783	0	31720	32572	
4784	0	31764	32704	
4785	0	31854	32743	
4786	0	31884	33128	
4787	0	32178	32802	
4788	0	32356	33068	
4789	0	32514	32263	
4790	0	32784	32460	
4791	0	32868	33407	
4792	0	32938	32758	
4793	0	33040	32716	
4794	0	33380	32654	
4795	0	33864	32623	
4796	0	33544	32626	
4797	0	32942	32538	
4798	0	32572	32670	
4799	0	32284	32852	
4800	0	31973	32903	
4801	0	32032	32690	
4802	0	32296	32694	
4803	0	32736	33018	
4804	0	33098	32910	
4805	0	33272	32606	
4806	0	33664	32488	
4807	0	33952	32938	
4808	0	34188	33078	
4809	0	33782	33002	
4810	0	32916	32676	
4811	0	32390	32832	
4812	0	32008	32408	
4813	0	31548	32824	
4814	0	32170	32678	
4815	0	32032	32696	
4816	0	32064	33014	
4817	0	32958	32196	
4818	0	33192	32660	
4819	0	32976	32924	
4820	0	33164	32732	
4821	0	32760	32860	
4822	0	32594	32618	
4823	0	32360	32710	
4824	0	32018	32654	
4825	0	32268	32645	
4826	0	32520	32950	
4827	0	33028	32742	
4828	0	33368	32636	
4829	0	33312	32714	
4830	0	33132	32712	
4831	0	33184	32678	
4832	0	33058	32828	
4833	0	33072	32930	
4834	0	33150	32756	
4835	0	33126	32849	
4836	0	33188	32872	
4837	0	33194	32812	
4838	0	33360	32678	
4839	0	33640	32726	
4840	0	34030	32550	
4841	0	33740	32839	
4842	0	33344	32500	
4843	0	32918	33520	
4844	0	32180	33084	
4845	0	31324	32438	
4846	0	31004	32436	
4847	0	31548	32447	
4848	0	31568	32888	
4849	0	31652	32874	
4850	0	32180	32982	
4851	0	32426	32742	
4852	0	32440	32840	
4853	0	32818	33100	
4854	0	33436	32426	
4855	0	33376	32856	
4856	0	33712	33420	
4857	0	33776	32270	
4858	0	34068	33068	
4859	0	34080	32560	
4860	0	33884	32534	
4861	0	33252	32447	
4862	0	32720	32838	
4863	0	32420	32626	
4864	0	31956	32964	
4865	0	32064	32615	
4866	0	32428	32980	
4867	0	31838	32682	
4868	0	31964	32840	
4869	0	32152	32546	
4870	0	32324	33106	
4871	0	32478	32844	
4872	0	32488	32806	
4873	0	32688	33040	
4874	0	32636	32844	
4875	0	32828	32848	
4876	0	33152	33167	
4877	0	33336	32574	
4878	0	33376	32883	
4879	0	33126	32519	
4880	0	33124	32766	
4881	0	32884	32390	
4882	0	33096	32668	
4883	0	33480	32702	
4884	0	33600	32539	
4885	0	33524	32763	
4886	0	33102	32774	
4887	0	32700	32822	
4888	0	32406	32732	
4889	0	32416	32634	
4890	0	32216	32554	
4891	0	32216	32540	
4892	0	32366	32999	
4893	0	32424	32864	
4894	0	32924	32568	
4895	0	32996	33346	
4896	0	32790	32440	
4897	0	32784	32922	
4898	0	33124	32926	
4899	0	33056	33022	
4900	0	33092	32900	
4901	0	33056	32647	
4902	0	33020	32775	
4903	0	33124	32880	
4904	0	33072	32988	
4905	0	32994	32690	
4906	0	32892	32448	
4907	0	32692	33014	
4908	0	32874	32962	
4909	0	33016	32590	
4910	0	33028	32560	
4911	0	32778	32864	
4912	0	32796	32646	
4913	0	33232	32916	
4914	0	33016	32914	
4915	0	32904	32608	
4916	0	32792	32855	
4917	0	32448	33384	
4918	0	32320	32454	
4919	0	32300	32452	
4920	0	32556	33044	
4921	0	32408	32868	
4922	0	32044	32370	
4923	0	32228	32326	
4924	0	31848	32876	
4925	0	31958	32816	
4926	0	32232	32638	
4927	0	32628	32808	
4928	0	32992	32814	
4929	0	33105	32761	
4930	0	33302	32766	
4931	0	33324	32676	
4932	0	33492	32610	
4933	0	33502	32758	
4934	0	33460	32839	
4935	0	33284	32896	
4936	0	32944	32852	
4937	0	32854	32903	
4938	0	32656	33023	
4939	0	32600	32978	
4940	0	32524	32766	
4941	0	32306	32887	
4942	0	32424	33327	
4943	0	32604	32394	
4944	0	32714	32932	
4945	0	32852	32592	
4946	0	33152	33457	
4947	0	33682	33388	
4948	0	33614	31535	
4949	0	33905	32640	
4950	0	34238	32796	
4951	0	33512	32158	
4952	0	32624	32673	
4953	0	32068	32486	
4954	0	32328	32812	
4955	0	31772	32567	
4956	0	31790	32536	
4957	0	31946	32666	
4958	0	32148	32584	
4959	0	32080	32722	
4960	0	32226	32852	
4961	0	32398	32775	
4962	0	32568	32798	
4963	0	32768	32820	
4964	0	32896	32944	
4965	0	32900	32908	
4966	0	33520	33040	
4967	0	33460	32746	
4968	0	33448	32980	
4969	0	33470	32842	
4970	0	33254	32900	
4971	0	32996	32806	
4972	0	32652	32836	
4973	0	32652	32628	
4974	0	32652	32903	
4975	0	32908	32964	
4976	0	32988	32610	
4977	0	32992	32456	
4978	0	32962	32810	
4979	0	32948	32872	
4980	0	32762	32854	
4981	0	32806	32643	
4982	0	32850	32760	
4983	0	32916	32572	
4984	0	33026	32934	
4985	0	33300	32591	
4986	0	33404	32652	
4987	0	33350	32655	
4988	0	33388	33090	
4989	0	33540	32814	
4990	0	33320	32657	
4991	0	32854	32198	
4992	0	31912	32439	
4993	0	31576	32798	
4994	0	31264	32880	
4995	0	30812	32600	
4996	0	31336	32970	
4997	0	31706	32601	
4998	0	32040	32760	
4999	0	32648	33176	
5000	0	32954	32710	
5001	0	33240	32996	
5002	0	33632	33130	
5003	0	33688	32220	
5004	0	33786	32632	
5005	0	33706	32874	
5006	0	33776	32712	
5007	0	33428	32871	
5008	0	33180	33046	
5009	0	32742	32490	
5010	0	32576	33119	
5011	0	32360	32666	
5012	0	32500	32703	
5013	0	32582	32844	
5014	0	32492	32946	
5015	0	32770	32680	
5016	0	32894	32954	
5017	0	32808	32559	
5018	0	32614	32519	
5019	0	32704	32903	
5020	0	32936	32584	
5021	0	33102	32552	
5022	0	33272	32828	
5023	0	33480	32724	
5024	0	33214	32536	
5025	0	32626	32636	
5026	0	32422	32588	
5027	0	32304	32767	
5028	0	32032	32934	
5029	0	32056	32554	
5030	0	32314	33112	
5031	0	32636	32864	
5032	0	32888	32916	
5033	0	33112	32702	
5034	0	33082	32750	
5035	0	33080	32946	
5036	0	33218	33380	
5037	0	33336	32732	
5038	0	33448	32674	
5039	0	33380	32636	
5040	0	33162	32807	
5041	0	32942	32720	
5042	0	32424	32775	
5043	0	32393	32764	
5044	0	32394	32596	
5045	0	32604	32532	
5046	0	32776	32872	
5047	0	33002	32700	
5048	0	32772	32994	
5049	0	32634	33151	
5050	0	32440	32436	
5051	0	32516	32422	
5052	0	32824	32870	
5053	0	33174	32740	
5054	0	33461	32672	
5055	0	33880	31724	
5056	0	34032	31814	
5057	0	33572	32662	
5058	0	33056	32564	
5059	0	32881	32351	
5060	0	32060	32362	
5061	0	31740	32263	
5062	0	31713	32442	
5063	0	31569	32556	
5064	0	32364	32440	
5065	0	32644	32604	
5066	0	32530	32634	
5067	0	32478	32710	
5068	0	32710	32854	
5069	0	32640	33004	
5070	0	32762	33144	
5071	0	32926	33404	
5072	0	33080	33528	
5073	0	33010	33628	
5074	0	32844	33642	
5075	0	32748	33695	
5076	0	32672	33920	
5077	0	32436	33900	
5078	0	32240	33799	
5079	0	32577	33946	
5080	0	32496	33390	
5081	0	32748	33122	
5082	0	33200	32386	
5083	0	33216	33532	
5084	0	33284	32602	
5085	0	33636	32454	
5086	0	34136	32064	
5087	0	33872	32177	
5088	0	33666	32287	
5089	0	33172	31634	
5090	0	32368	31906	
5091	0	31996	32154	
5092	0	31624	32200	
5093	0	31644	32204	
5094	0	31820	32324	
5095	0	32064	32348	
5096	0	32484	32569	
5097	0	32572	32647	
5098	0	32636	32762	
5099	0	32792	32798	
5100	0	33000	32836	
5101	0	33016	32897	
5102	0	33140	32928	
5103	0	33192	32964	
5104	0	33116	32968	
5105	0	33216	33026	
5106	0	33302	32738	
5107	0	33160	32926	
5108	0	33132	33175	
5109	0	33162	33031	
5110	0	33240	32416	
5111	0	33172	33150	
5112	0	32950	32852	
5113	0	32828	33278	
5114	0	32824	32070	
5115	0	32840	32432	
5116	0	32754	32828	
5117	0	32684	32774	
5118	0	32830	32762	
5119	0	32996	32796	
5120	0	33122	32500	
5121	0	33048	32444	
5122	0	32834	32958	
5123	0	32608	32623	
5124	0	32436	32408	
5125	0	32486	32924	
5126	0	32548	32916	
5127	0	32580	33094	
5128	0	32816	33287	
5129	0	32870	32764	
5130	0	32824	32670	
5131	0	32640	32598	
5132	0	32428	33106	
5133	0	32426	32879	
5134	0	32452	32840	
5135	0	32368	32572	
5136	0	32596	32496	
5137	0	32654	33216	
5138	0	32724	32580	
5139	0	32736	32614	
5140	0	33014	32664	
5141	0	33106	32806	
5142	0	33350	32732	
5143	0	33580	32788	
5144	0	33388	32828	
5145	0	33152	32744	
5146	0	32682	32500	
5147	0	32488	32414	
5148	0	32164	32744	
5149	0	32200	32729	
5150	0	32394	32590	
5151	0	32640	32786	
5152	0	32898	32626	
5153	0	33013	32976	
5154	0	33068	32740	
5155	0	33188	32862	
5156	0	33208	32990	
5157	0	33072	32766	
5158	0	33030	32844	
5159	0	33073	32612	
5160	0	33008	32730	
5161	0	32814	32874	
5162	0	32764	33246	
5163	0	32436	32604	
5164	0	32400	32840	
5165	0	32372	33078	
5166	0	32640	32842	
5167	0	32742	32340	
5168	0	32760	32633	
5169	0	32606	32540	
5170	0	33002	32772	
5171	0	32956	32916	
5172	0	33034	32871	
5173	0	32994	32670	
5174	0	32916	32794	
5175	0	32722	32607	
5176	0	32676	32760	
5177	0	32724	32678	
5178	0	32720	32688	
5179	0	32676	32688	
5180	0	32730	32748	
5181	0	32988	32722	
5182	0	32917	32737	
5183	0	32914	32698	
5184	0	32972	32766	
5185	0	32876	32852	
5186	0	32852	32708	
5187	0	32876	32647	
5188	0	32900	32884	
5189	0	32912	32920	
5190	0	32878	32880	
5191	0	32748	32716	
5192	0	32724	32658	
5193	0	32648	32906	
5194	0	32658	32782	
5195	0	32876	33028	
5196	0	32934	32344	
5197	0	32968	32742	
5198	0	32930	32615	
5199	0	32766	33398	
5200	0	32684	32568	
5201	0	32748	32476	
5202	0	32644	32618	
5203	0	32640	32647	
5204	0	32636	32644	
5205	0	32720	32664	
5206	0	32688	32821	
5207	0	32808	32878	
5208	0	32772	33098	
5209	0	32772	32716	
5210	0	32836	32745	
5211	0	32652	32710	
5212	0	32948	32932	
5213	0	33088	32839	
5214	0	33044	32775	
5215	0	33252	32850	
5216	0	33472	33015	
5217	0	33188	32894	
5218	0	33116	32826	
5219	0	32860	32775	
5220	0	32388	32828	
5221	0	32356	32712	
5222	0	32320	32846	
5223	0	32348	32775	
5224	0	32630	32862	
5225	0	32624	32592	
5226	0	32732	32564	
5227	0	32684	32798	
5228	0	32648	32842	
5229	0	32760	32854	
5230	0	32828	32839	
5231	0	32872	32700	
5232	0	32929	32583	
5233	0	32936	32971	
5234	0	32932	32820	
5235	0	32990	32740	
5236	0	33098	32744	
5237	0	33164	32556	
5238	0	33152	32706	
5239	0	33026	33183	
5240	0	33176	32294	
5241	0	33288	32924	
5242	0	33368	33040	
5243	0	32956	32558	
5244	0	32610	33044	
5245	0	32304	32535	
5246	0	31996	32638	
5247	0	32242	32804	
5248	0	32164	32964	
5249	0	32190	32775	
5250	0	32324	32748	
5251	0	32618	32724	
5252	0	32720	32698	
5253	0	32778	32702	
5254	0	32824	32876	
5255	0	32744	32666	
5256	0	33005	32807	
5257	0	32920	32786	
5258	0	32964	32644	
5259	0	33028	32840	
5260	0	33120	32682	
5261	0	33024	32854	
5262	0	32992	32828	
5263	0	33028	32732	
5264	0	32984	33069	
5265	0	33048	32945	
5266	0	33068	32720	
5267	0	32946	32590	
5268	0	32876	32502	
5269	0	32752	32872	
5270	0	32784	33287	
5271	0	32810	32830	
5272	0	32730	32586	
5273	0	32816	32800	
5274	0	32748	32526	
5275	0	32656	32518	
5276	0	32620	32775	
5277	0	32644	32620	
5278	0	32993	32560	
5279	0	32790	32608	
5280	0	32852	32718	
5281	0	32900	32604	
5282	0	32818	32714	
5283	0	32808	32708	
5284	0	32824	32560	
5285	0	32748	32788	
5286	0	32716	33060	
5287	0	32732	32985	
5288	0	32840	32906	
5289	0	32606	32842	
5290	0	32730	32692	
5291	0	32860	32788	
5292	0	32890	32874	
5293	0	32760	32866	
5294	0	32820	32736	
5295	0	32832	33056	
5296	0	32812	32626	
5297	0	32840	32812	
5298	0	32800	32698	
5299	0	32820	32680	
5300	0	32776	32858	
5301	0	32826	32916	
5302	0	32862	32647	
5303	0	32852	32800	
5304	0	32808	33002	
5305	0	32846	32754	
5306	0	32838	32502	
5307	0	32888	32792	
5308	0	32842	32535	
5309	0	32764	32516	
5310	0	32798	32655	
5311	0	32800	32540	
5312	0	32740	32756	
5313	0	32876	32998	
5314	0	32878	32764	
5315	0	32880	32978	
5316	0	32892	33050	
5317	0	32944	32552	
5318	0	32775	32732	
5319	0	32772	32834	
5320	0	32868	32756	
5321	0	32816	32719	
5322	0	32746	32704	
5323	0	32620	32756	
5324	0	32596	32775	
5325	0	32628	32878	
5326	0	32580	33118	
5327	0	32720	33310	
5328	0	32880	33244	
5329	0	32962	32804	
5330	0	32834	32762	
5331	0	32888	32639	
5332	0	32996	32592	
5333	0	32930	32407	
5334	0	32866	32610	
5335	0	32856	32326	
5336	0	32832	32397	
5337	0	32924	32378	
5338	0	32862	32471	
5339	0	32672	32799	
5340	0	32520	32584	
5341	0	32608	33106	
5342	0	32624	33189	
5343	0	32636	33118	
5344	0	32676	33086	
5345	0	32720	33006	
5346	0	32886	32599	
5347	0	32920	32902	
5348	0	32908	33196	
5349	0	32936	33116	
5350	0	32888	32906	
5351	0	32906	32808	
5352	0	32948	32703	
5353	0	32872	32750	
5354	0	32782	32682	
5355	0	32746	32757	
5356	0	32764	32490	
5357	0	32854	32656	
5358	0	32796	32644	
5359	0	32792	32580	
5360	0	32700	32760	
5361	0	32880	32564	
5362	0	32910	32504	
5363	0	32970	32670	
5364	0	32884	32914	
5365	0	32952	32696	
5366	0	32944	32692	
5367	0	32904	32604	
5368	0	32772	33287	
5369	0	32764	32386	
5370	0	32746	32414	
5371	0	32772	32758	
5372	0	32762	32991	
5373	0	32746	32772	
5374	0	32830	32820	
5375	0	32740	32996	
5376	0	32676	32984	
5377	0	32736	32870	
5378	0	32916	32648	
5379	0	32820	32956	
5380	0	32826	32807	
5381	0	32868	32759	
5382	0	32900	32742	
5383	0	32852	32826	
5384	0	32828	32701	
5385	0	32848	32730	
5386	0	32824	32623	
5387	0	32792	32678	
5388	0	32832	32714	
5389	0	32712	32524	
5390	0	32838	32766	
5391	0	32822	33020	
5392	0	32824	32519	
5393	0	32784	32950	
5394	0	32768	32660	
5395	0	32860	32604	
5396	0	32868	32740	
5397	0	32880	32797	
5398	0	32928	32654	
5399	0	32840	32706	
5400	0	32804	32558	
5401	0	32750	32849	
5402	0	32728	32820	
5403	0	32836	32711	
5404	0	32860	32850	
5405	0	32784	32640	
5406	0	32832	32806	
5407	0	32788	32470	
5408	0	32798	32704	
5409	0	32728	32468	
5410	0	32618	32596	
5411	0	32652	32536	
5412	0	32736	32808	
5413	0	32860	32898	
5414	0	32756	32852	
5415	0	32712	33002	
5416	0	32948	33020	
5417	0	33006	32903	
5418	0	32900	33184	
5419	0	32888	33150	
5420	0	32884	33120	
5421	0	32822	32775	
5422	0	32842	32448	
5423	0	32816	32308	
5424	0	32756	32709	
5425	0	32784	32422	
5426	0	32804	32694	
5427	0	32740	32828	
5428	0	32740	32346	
5429	0	32720	32750	
5430	0	32826	32588	
5431	0	32832	32759	
5432	0	32778	32848	
5433	0	32876	32870	
5434	0	32844	32758	
5435	0	32889	32828	
5436	0	32974	32638	
5437	0	32916	32708	
5438	0	32808	32976	
5439	0	32788	32567	
5440	0	32782	32720	
5441	0	32640	32604	
5442	0	32732	32830	
5443	0	32706	32708	
5444	0	32696	32704	
5445	0	32586	32490	
5446	0	32736	32644	
5447	0	32932	32678	
5448	0	32956	32854	
5449	0	32786	32544	
5450	0	32758	32864	
5451	0	32934	32567	
5452	0	33016	32775	
5453	0	32970	32560	
5454	0	32864	32828	
5455	0	32686	32610	
5456	0	32532	32791	
5457	0	32708	32788	
5458	0	32716	32990	
5459	0	32736	32734	
5460	0	32696	32732	
5461	0	32708	32856	
5462	0	32812	32815	
5463	0	32768	32634	
5464	0	32844	32700	
5465	0	32844	32802	
5466	0	32892	32888	
5467	0	32834	32894	
5468	0	32874	32652	
5469	0	32900	32900	
5470	0	32904	33026	
5471	0	32794	32926	
5472	0	32840	32916	
5473	0	32892	32634	
5474	0	32840	32708	
5475	0	32892	32702	
5476	0	32908	32631	
5477	0	32876	32743	
5478	0	32796	32318	
5479	0	32725	32354	
5480	0	32768	32362	
5481	0	32720	32464	
5482	0	32760	32724	
5483	0	32886	32806	
5484	0	32794	32832	
5485	0	32856	32775	
5486	0	32865	32918	
5487	0	33012	33036	
5488	0	33092	33150	
5489	0	32990	32433	
5490	0	33008	32722	
5491	0	32998	33038	
5492	0	32840	32762	
5493	0	32780	32710	
5494	0	32548	32663	
5495	0	32574	32639	
5496	0	32516	32740	
5497	0	32500	32831	
5498	0	32592	32718	
5499	0	32648	32814	
5500	0	32660	32772	
5501	0	32826	32896	
5502	0	32732	32878	
5503	0	32778	32790	
5504	0	32916	32583	
5505	0	32896	32492	
5506	0	32814	32439	
5507	0	32908	32928	
5508	0	32860	32892	
5509	0	32924	32679	
5510	0	32930	32912	
5511	0	32880	32914	
5512	0	32820	32714	
5513	0	32822	33102	
5514	0	32848	32860	
5515	0	32884	33020	
5516	0	32874	32672	
5517	0	32804	32592	
5518	0	32796	32570	
5519	0	32832	32476	
5520	0	32780	32689	
5521	0	32876	32518	
5522	0	32880	32828	
5523	0	32828	32775	
5524	0	32944	32678	
5525	0	32836	32990	
5526	0	32748	32756	
5527	0	32782	32574	
5528	0	32804	32862	
5529	0	32772	32775	
5530	0	32744	32738	
5531	0	32806	32630	
5532	0	32776	32846	
5533	0	32822	32408	
5534	0	32808	32560	
5535	0	32796	32704	
5536	0	32816	32736	
5537	0	32778	32616	
5538	0	32788	32978	
5539	0	32844	32868	
5540	0	32828	32985	
5541	0	32880	32746	
5542	0	33084	32904	
5543	0	33072	33118	
5544	0	32956	32816	
5545	0	32888	33031	
5546	0	32856	32635	
5547	0	32788	32704	
5548	0	32748	32930	
5549	0	32668	32860	
5550	0	32800	32886	
5551	0	32898	32614	
5552	0	32708	32626	
5553	0	32686	32698	
5554	0	32680	32655	
5555	0	32596	32834	
5556	0	32614	32448	
5557	0	32536	33026	
5558	0	32672	32572	
5559	0	32680	32650	
5560	0	32732	32810	
5561	0	32840	32668	
5562	0	32830	32624	
5563	0	32816	32628	
5564	0	32820	32820	
5565	0	32798	32951	
5566	0	32778	32898	
5567	0	32884	33062	
5568	0	32828	32806	
5569	0	32864	32775	
5570	0	32916	32300	
5571	0	32854	32752	
5572	0	32970	32711	
5573	0	32946	32623	
5574	0	32964	33080	
5575	0	32964	32884	
5576	0	32948	32718	
5577	0	32918	32916	
5578	0	32894	32620	
5579	0	32772	32824	
5580	0	32844	32876	
5581	0	32836	32948	
5582	0	32888	32872	
5583	0	32820	32608	
5584	0	32856	32816	
5585	0	32760	32729	
5586	0	32728	32788	
5587	0	32612	32802	
5588	0	32804	32806	
5589	0	32684	32838	
5590	0	32752	32615	
5591	0	32788	32764	
5592	0	32746	32620	
5593	0	32856	32628	
5594	0	32780	32665	
5595	0	32772	32708	
5596	0	32792	32736	
5597	0	32834	32775	
5598	0	32910	33031	
5599	0	32856	32859	
5600	0	32794	32735	
5601	0	32830	32698	
5602	0	32860	32599	
5603	0	32904	32792	
5604	0	32844	33058	
5605	0	32808	32676	
5606	0	32880	32476	
5607	0	32848	32705	
5608	0	32948	32762	
5609	0	32986	32752	
5610	0	32868	32750	
5611	0	32728	32888	
5612	0	32828	33014	
5613	0	32682	32970	
5614	0	32668	32774	
5615	0	32688	32550	
5616	0	32732	32578	
5617	0	32680	32935	
5618	0	32660	32644	
5619	0	32784	32820	
5620	0	32816	32480	
5621	0	32812	32870	
5622	0	32852	32836	
5623	0	32709	32788	
5624	0	32794	32583	
5625	0	32820	32782	
5626	0	32816	32512	
5627	0	32794	32516	
5628	0	32832	32838	
5629	0	32788	32756	
5630	0	32848	32775	
5631	0	32776	32735	
5632	0	32796	32918	
5633	0	32902	32896	
5634	0	32844	32670	
5635	0	32898	32802	
5636	0	32892	32850	
5637	0	32912	32670	
5638	0	32772	32852	
5639	0	32682	32839	
5640	0	32736	32884	
5641	0	32720	32788	
5642	0	32784	32988	
5643	0	32764	32951	
5644	0	32832	32920	
5645	0	32816	32668	
5646	0	32772	32590	
5647	0	32836	32938	
5648	0	32708	32846	
5649	0	32734	32596	
5650	0	32841	32994	
5651	0	32784	32647	
5652	0	32840	32870	
5653	0	32830	32761	
5654	0	32868	32640	
5655	0	32916	32775	
5656	0	32876	32609	
5657	0	32908	32775	
5658	0	32799	32622	
5659	0	32858	32660	
5660	0	32812	32647	
5661	0	32844	32560	
5662	0	32812	32718	
5663	0	32870	32724	
5664	0	32772	32692	
5665	0	32804	32984	
5666	0	32854	32644	
5667	0	32844	32391	
5668	0	32810	32880	
5669	0	32804	33103	
5670	0	32788	33031	
5671	0	32856	32804	
5672	0	32824	32728	
5673	0	32856	32826	
5674	0	32804	32760	
5675	0	32904	32824	
5676	0	32874	32820	
5677	0	32868	32876	
5678	0	32881	32798	
5679	0	32804	32755	
5680	0	32820	32817	
5681	0	32736	32614	
5682	0	32744	32816	
5683	0	32732	32700	
5684	0	32816	32852	
5685	0	32756	32791	
5686	0	32812	32775	
5687	0	32740	32828	
5688	0	32788	32662	
5689	0	32798	32660	
5690	0	32740	32831	
5691	0	32844	32586	
5692	0	32900	32474	
5693	0	32860	32564	
5694	0	32828	32610	
5695	0	32738	32960	
5696	0	32878	32902	
5697	0	32872	32888	
5698	0	32842	32702	
5699	0	32992	32764	
5700	0	33004	32714	
5701	0	32924	32884	
5702	0	32884	32860	
5703	0	32840	32642	
5704	0	32688	32822	
5705	0	32604	33008	
5706	0	32652	32320	
5707	0	32706	32513	
5708	0	32696	32689	
5709	0	32636	32902	
5710	0	32752	32816	
5711	0	32710	33001	
5712	0	32848	32922	
5713	0	32928	32982	
5714	0	32930	33127	
5715	0	32838	32894	
5716	0	32816	32822	
5717	0	32764	32464	
5718	0	32816	32593	
5719	0	32840	32673	
5720	0	32890	32900	
5721	0	32840	33127	
5722	0	32896	32628	
5723	0	32806	32828	
5724	0	32871	32884	
5725	0	32948	32846	
5726	0	32858	32903	
5727	0	33000	32673	
5728	0	32998	32604	
5729	0	32930	32544	
5730	0	32890	32644	
5731	0	32900	32440	
5732	0	32924	32296	
5733	0	32828	32388	
5734	0	32834	32406	
5735	0	32848	32244	
5736	0	32878	32478	
5737	0	32831	32420	
5738	0	32860	32640	
5739	0	32832	32660	
5740	0	32832	32669	
5741	0	32852	32967	
5742	0	32782	33004	
5743	0	32704	33140	
5744	0	32724	33108	
5745	0	32672	32839	
5746	0	32700	32620	
5747	0	32688	32792	
5748	0	32632	32824	
5749	0	32544	32698	
5750	0	32528	33120	
5751	0	32564	33191	
5752	0	32542	33191	
5753	0	32588	33538	
5754	0	32696	33492	
5755	0	32684	33602	
5756	0	32720	33542	
5757	0	32780	33220	
5758	0	32826	32764	
5759	0	32832	32647	
5760	0	32852	32662	
5761	0	32800	32890	
5762	0	32880	32706	
5763	0	33004	32508	
5764	0	32944	32518	
5765	0	33000	32388	
5766	0	32948	32280	
5767	0	32936	32654	
5768	0	32914	32574	
5769	0	32936	32498	
5770	0	32880	32561	
5771	0	32822	32516	
5772	0	32818	32456	
5773	0	32878	32410	
5774	0	32866	32580	
5775	0	32828	32548	
5776	0	32870	32580	
5777	0	32878	32766	
5778	0	32860	32924	
5779	0	32892	32928	
5780	0	32884	32998	
5781	0	32832	33148	
5782	0	32900	32980	
5783	0	32920	33142	
5784	0	32800	33178	
5785	0	32852	32855	
5786	0	32774	32814	
5787	0	32769	32800	
5788	0	32760	32730	
5789	0	32784	32862	
5790	0	32812	32694	
5791	0	32754	32606	
5792	0	32822	32668	
5793	0	32768	32496	
5794	0	32866	32716	
5795	0	32838	32774	
5796	0	32784	32423	
5797	0	32820	32511	
5798	0	32804	32865	
5799	0	32780	32995	
5800	0	32734	33082	
5801	0	32758	32710	
5802	0	32788	32726	
5803	0	32752	32668	
5804	0	32774	32614	
5805	0	32876	32803	
5806	0	32864	32644	
5807	0	32816	32314	
5808	0	32852	32284	
5809	0	32762	32462	
5810	0	32808	32737	
5811	0	32786	32762	
5812	0	32860	32884	
5813	0	32852	32954	
5814	0	32724	32921	
5815	0	32836	33052	
5816	0	32840	33159	
5817	0	32904	32910	
5818	0	32764	33066	
5819	0	32762	32820	
5820	0	32824	32975	
5821	0	32832	32850	
5822	0	32852	32690	
5823	0	32812	32687	
5824	0	32810	32734	
5825	0	32752	32748	
5826	0	32768	32967	
5827	0	32836	32810	
5828	0	32884	32632	
5829	0	32828	32608	
5830	0	32796	32666	
5831	0	32880	32761	
5832	0	32828	32828	
5833	0	32764	32690	
5834	0	32784	32602	
5835	0	32860	32804	
5836	0	32772	32766	
5837	0	32740	32673	
5838	0	32740	32782	
5839	0	32780	32810	
5840	0	32796	32645	
5841	0	32740	32746	
5842	0	32800	32980	
5843	0	32866	33008	
5844	0	32826	32842	
5845	0	32752	32674	
5846	0	32856	32647	
5847	0	32808	32860	
5848	0	32888	32698	
5849	0	32834	32758	
5850	0	32848	32923	
5851	0	32884	32692	
5852	0	32846	32624	
5853	0	32946	32817	
5854	0	32808	32878	
5855	0	32800	32756	
5856	0	32756	32936	
5857	0	32798	32899	
5858	0	32746	32620	
5859	0	32708	32686	
5860	0	32812	32420	
5861	0	32720	32596	
5862	0	32772	32807	
5863	0	32760	32898	
5864	0	32770	32906	
5865	0	32732	32806	
5866	0	32789	32964	
5867	0	32792	32820	
5868	0	32826	32686	
5869	0	32832	32718	
5870	0	32921	32864	
5871	0	32852	32830	
5872	0	32848	32671	
5873	0	32817	32809	
5874	0	32874	32772	
5875	0	32760	32914	
5876	0	32868	32728	
5877	0	32820	32790	
5878	0	32808	32756	
5879	0	32876	32794	
5880	0	32740	32743	
5881	0	32816	32503	
5882	0	32762	32506	
5883	0	32766	32836	
5884	0	32784	32926	
5885	0	32796	32998	
5886	0	32714	32852	
5887	0	32766	32871	
5888	0	32820	32668	
5889	0	32832	32684	
5890	0	32756	32560	
5891	0	32836	32356	
5892	0	32882	32460	
5893	0	32862	32502	
5894	0	32808	32608	
5895	0	32764	32706	
5896	0	32864	32692	
5897	0	32798	33008	
5898	0	32826	32848	
5899	0	32766	33018	
5900	0	32856	33031	
5901	0	32828	32916	
5902	0	32860	33031	
5903	0	32860	32898	
5904	0	32836	32890	
5905	0	32837	32906	
5906	0	32780	32750	
5907	0	32824	32896	
5908	0	32876	32794	
5909	0	32760	32804	
5910	0	32750	32839	
5911	0	32758	32710	
5912	0	32792	32724	
5913	0	32800	32620	
5914	0	32832	32582	
5915	0	32822	32539	
5916	0	32820	32486	
5917	0	32808	32582	
5918	0	32860	32654	
5919	0	32834	32607	
5920	0	32862	32746	
5921	0	32848	32644	
5922	0	32862	32821	
5923	0	32846	32818	
5924	0	32804	32896	
5925	0	32764	32942	
5926	0	32780	32964	
5927	0	32756	32888	
5928	0	32784	32816	
5929	0	32832	32930	
5930	0	32784	32890	
5931	0	32820	32962	
5932	0	32822	32972	
5933	0	32817	32743	
5934	0	32836	32808	
5935	0	32774	32628	
5936	0	32804	32764	
5937	0	32800	32724	
5938	0	32798	32544	
5939	0	32775	32551	
5940	0	32808	32770	
5941	0	32874	32734	
5942	0	32784	32740	
5943	0	32816	32730	
5944	0	32845	32804	
5945	0	32766	32830	
5946	0	32816	32830	
5947	0	32740	32820	
5948	0	32828	32688	
5949	0	32792	32734	
5950	0	32802	32679	
5951	0	32844	32806	
5952	0	32832	32952	
5953	0	32812	32860	
5954	0	32852	32800	
5955	0	32858	32720	
5956	0	32904	32682	
5957	0	32868	32666	
5958	0	32752	32474	
5959	0	32842	32436	
5960	0	32896	32476	
5961	0	32844	32702	
5962	0	32802	32734	
5963	0	32845	32788	
5964	0	32808	32694	
5965	0	32824	32690	
5966	0	32790	32772	
5967	0	32818	32990	
5968	0	32692	32990	
5969	0	32794	33094	
5970	0	32860	32983	
5971	0	32696	32844	
5972	0	32730	32788	
5973	0	32798	32918	
5974	0	32808	32792	
5975	0	32868	32710	
5976	0	32842	32786	
5977	0	32840	32764	
5978	0	32818	32600	
5979	0	32844	32420	
5980	0	32884	32565	
5981	0	32836	32647	
5982	0	32820	32752	
5983	0	32752	32932	
5984	0	32782	32932	
5985	0	32764	32814	
5986	0	32824	32856	
5987	0	32796	32765	
5988	0	32756	32858	
5989	0	32768	32910	
5990	0	32836	32862	
5991	0	32864	32884	
5992	0	32832	32698	
5993	0	32824	32857	
5994	0	32736	32679	
5995	0	32876	32710	
5996	0	32840	32502	
5997	0	32782	32710	
5998	0	32700	32768	
5999	0	32706	32820	
6000	0	32760	32812	
6001	0	32814	32750	
6002	0	32824	32640	
6003	0	32836	32626	
6004	0	32788	32895	
6005	0	32818	32732	
6006	0	32816	32774	
6007	0	32848	32718	
6008	0	32784	32689	
6009	0	32836	32727	
6010	0	32820	32720	
6011	0	32868	32942	
6012	0	32846	32879	
