# OpenSignals Text File Format. Version 1
# {"00:07:80:8C:0A:39": {"position": 0, "device": "biosignalsplux", "device name": "00:07:80:8C:0A:39", "device connection": "BTH00:07:80:8C:0A:39", "sampling rate": 1000, "resolution": [16, 16], "firmware version": 776, "comments": "", "keywords": "", "mode": 0, "sync interval": 2, "date": "2023-3-20", "time": "19:51:32.366", "channels": [1, 2], "sensor": ["EMG", "EMG"], "label": ["CH1", "CH2"], "column": ["nSeq", "DI", "CH1", "CH2"], "special": [{"SpO2": [80, 40, 5, 4, 3, 3]}, {"SpO2": [80, 40, 5, 4, 3, 3]}, {"SpO2": [80, 40, 5, 4, 3, 3]}, {"SpO2": [80, 40, 5, 4, 3, 3]}, {"SpO2": [80, 40, 5, 4, 3, 3]}, {"SpO2": [80, 40, 5, 4, 3, 3]}, {"SpO2": [80, 40, 5, 4, 3, 3]}, {"SpO2": [80, 40, 5, 4, 3, 3]}], "digital IO": [0, 1], "sleeve color": ["gray", "yellow"], "convertedValues": 0}}
# EndOfHeader
0	0	32836	32816	
1	0	32799	32704	
2	0	32852	32790	
3	0	32784	32788	
4	0	32814	32708	
5	0	32818	32788	
6	0	32816	32791	
7	0	32768	32738	
8	0	32826	32775	
9	0	32836	32698	
10	0	32736	32775	
11	0	32806	32796	
12	0	32810	32698	
13	0	32824	32826	
14	0	32800	32826	
15	0	32864	32764	
16	0	32872	32740	
17	0	32844	32766	
18	0	32788	32804	
19	0	32841	32760	
20	0	32824	32831	
21	0	32808	32788	
22	0	32796	32788	
23	0	32822	32855	
24	0	32844	32862	
25	0	32804	32716	
26	0	32828	32720	
27	0	32844	32706	
28	0	32842	32820	
29	0	32844	32775	
30	0	32772	32631	
31	0	32840	32830	
32	0	32780	32698	
33	0	32790	32756	
34	0	32852	32876	
35	0	32852	32692	
36	0	32808	32738	
37	0	32838	32748	
38	0	32792	32790	
39	0	32775	32686	
40	0	32768	32686	
41	0	32864	32774	
42	0	32824	32811	
43	0	32796	32712	
44	0	32812	32843	
45	0	32856	32846	
46	0	32828	32744	
47	0	32830	32906	
48	0	32800	32775	
49	0	32812	32730	
50	0	32772	32842	
51	0	32788	32880	
52	0	32768	32665	
53	0	32844	32820	
54	0	32800	32858	
55	0	32898	32719	
56	0	32808	32754	
57	0	32820	32784	
58	0	32818	32800	
59	0	32810	32775	
60	0	32772	32775	
61	0	32816	32766	
62	0	32844	32830	
63	0	32752	32816	
64	0	32840	32732	
65	0	32812	32838	
66	0	32820	32770	
67	0	32770	32660	
68	0	32714	32806	
69	0	32775	32874	
70	0	32892	32692	
71	0	32840	32711	
72	0	32784	32800	
73	0	32816	32650	
74	0	32880	32794	
75	0	32792	32672	
76	0	32746	32751	
77	0	32810	32775	
78	0	32840	32705	
79	0	32832	32764	
80	0	32840	32816	
81	0	32784	32775	
82	0	32778	32806	
83	0	32800	32818	
84	0	32810	32702	
85	0	32744	32838	
86	0	32849	32864	
87	0	32836	32690	
88	0	32884	32816	
89	0	32900	32725	
90	0	32896	32824	
91	0	32756	32758	
92	0	32817	32694	
93	0	32772	32846	
94	0	32788	32802	
95	0	32840	32676	
96	0	32792	32862	
97	0	32840	32899	
98	0	32858	32792	
99	0	32820	32824	
100	0	32800	32812	
101	0	32704	32682	
102	0	32782	32748	
103	0	32784	32775	
104	0	32808	32634	
105	0	32744	32721	
106	0	32792	32679	
107	0	32768	32606	
108	0	32744	32691	
109	0	32760	32648	
110	0	32752	32615	
111	0	32794	32635	
112	0	32770	32576	
113	0	32788	32742	
114	0	32756	32647	
115	0	32720	32647	
116	0	32744	32714	
117	0	32700	32718	
118	0	32678	32722	
119	0	32778	32782	
120	0	32828	32799	
121	0	32896	32661	
122	0	32838	32762	
123	0	32834	32774	
124	0	32862	32694	
125	0	32932	32804	
126	0	32972	32808	
127	0	33002	32692	
128	0	33126	32868	
129	0	33113	33064	
130	0	33100	33042	
131	0	33124	33217	
132	0	33124	33218	
133	0	33016	33209	
134	0	32876	33096	
135	0	32936	33103	
136	0	32852	33031	
137	0	32772	32958	
138	0	32804	32915	
139	0	32840	32747	
140	0	32690	32688	
141	0	32686	32618	
142	0	32800	32592	
143	0	32772	32624	
144	0	32736	32560	
145	0	32700	32512	
146	0	32712	32528	
147	0	32668	32662	
148	0	32732	32519	
149	0	32678	32710	
150	0	32694	32770	
151	0	32738	32615	
152	0	32700	32824	
153	0	32772	32746	
154	0	32776	32844	
155	0	32824	32836	
156	0	32824	32710	
157	0	32812	32743	
158	0	32840	32806	
159	0	32808	32696	
160	0	32796	32740	
161	0	32768	32740	
162	0	32766	32808	
163	0	32844	32742	
164	0	32782	32758	
165	0	32868	32775	
166	0	32780	32798	
167	0	32830	32743	
168	0	32916	32772	
169	0	32864	32814	
170	0	32860	32816	
171	0	32800	32742	
172	0	32800	32724	
173	0	32788	32692	
174	0	32832	32772	
175	0	32776	32680	
176	0	32860	32792	
177	0	32860	32760	
178	0	32856	32732	
179	0	32796	32772	
180	0	32761	32790	
181	0	32730	32812	
182	0	32748	32712	
183	0	32830	32798	
184	0	32777	32874	
185	0	32828	32692	
186	0	32858	32839	
187	0	32856	32786	
188	0	32816	32714	
189	0	32800	32670	
190	0	32808	32732	
191	0	32852	32858	
192	0	32824	32686	
193	0	32820	32806	
194	0	32868	32788	
195	0	32832	32730	
196	0	32840	32784	
197	0	32816	32839	
198	0	32838	32716	
199	0	32802	32694	
200	0	32780	32770	
201	0	32776	32716	
202	0	32866	32804	
203	0	32830	32740	
204	0	32838	32820	
205	0	32760	32726	
206	0	32802	32784	
207	0	32868	32772	
208	0	32820	32870	
209	0	32828	32705	
210	0	32768	32820	
211	0	32826	32732	
212	0	32808	32814	
213	0	32782	32706	
214	0	32832	32824	
215	0	32828	32824	
216	0	32840	32748	
217	0	32802	32727	
218	0	32864	32775	
219	0	32740	32748	
220	0	32798	32644	
221	0	32830	32742	
222	0	32762	32712	
223	0	32832	32744	
224	0	32808	32735	
225	0	32776	32848	
226	0	32860	32844	
227	0	32848	32742	
228	0	32884	32908	
229	0	32764	32766	
230	0	32796	32727	
231	0	32794	32692	
232	0	32810	32798	
233	0	32808	32775	
234	0	32820	32727	
235	0	32801	32818	
236	0	32820	32719	
237	0	32784	32838	
238	0	32870	32756	
239	0	32830	32804	
240	0	32816	32798	
241	0	32791	32786	
242	0	32792	32696	
243	0	32846	32760	
244	0	32760	32785	
245	0	32818	32766	
246	0	32798	32716	
247	0	32740	32718	
248	0	32766	32766	
249	0	32784	32714	
250	0	32858	32774	
251	0	32792	32774	
252	0	32852	32770	
253	0	32778	32764	
254	0	32806	32759	
255	0	32822	32856	
256	0	32804	32836	
257	0	32848	32792	
258	0	32808	32726	
259	0	32824	32711	
260	0	32846	32816	
261	0	32772	32828	
262	0	32760	32694	
263	0	32720	32774	
264	0	32856	32768	
265	0	32800	32844	
266	0	32812	32830	
267	0	32824	32728	
268	0	32784	32718	
269	0	32846	32810	
270	0	32822	32666	
271	0	32780	32738	
272	0	32800	32692	
273	0	32844	32794	
274	0	32833	32808	
275	0	32772	32832	
276	0	32801	32812	
277	0	32800	32760	
278	0	32824	32772	
279	0	32792	32724	
280	0	32846	32914	
281	0	32828	32724	
282	0	32804	32696	
283	0	32820	32863	
284	0	32869	32810	
285	0	32840	32772	
286	0	32816	32743	
287	0	32862	32738	
288	0	32800	32875	
289	0	32772	32760	
290	0	32838	32810	
291	0	32788	32742	
292	0	32796	32712	
293	0	32816	32839	
294	0	32820	32824	
295	0	32772	32678	
296	0	32794	32811	
297	0	32804	32774	
298	0	32768	32775	
299	0	32868	32772	
300	0	32854	32722	
301	0	32772	32688	
302	0	32800	32774	
303	0	32764	32802	
304	0	32776	32718	
305	0	32790	32796	
306	0	32824	32770	
307	0	32872	32762	
308	0	32834	32826	
309	0	32812	32828	
310	0	32806	32700	
311	0	32816	32798	
312	0	32800	32724	
313	0	32822	32756	
314	0	32796	32894	
315	0	32824	32682	
316	0	32804	32786	
317	0	32802	32775	
318	0	32816	32748	
319	0	32842	32799	
320	0	32860	32816	
321	0	32802	32822	
322	0	32836	32830	
323	0	32808	32727	
324	0	32798	32695	
325	0	32772	32718	
326	0	32848	32884	
327	0	32788	32874	
328	0	32772	32664	
329	0	32780	32734	
330	0	32808	32890	
331	0	32804	32656	
332	0	32976	32807	
333	0	32746	32767	
334	0	32860	32690	
335	0	32842	32712	
336	0	32834	32790	
337	0	32780	32810	
338	0	32800	32807	
339	0	32804	32668	
340	0	32817	32885	
341	0	32812	32864	
342	0	32810	32775	
343	0	32838	32834	
344	0	32880	32824	
345	0	32824	32679	
346	0	32830	32766	
347	0	32808	32698	
348	0	32864	32844	
349	0	32822	32792	
350	0	32768	32756	
351	0	32796	32721	
352	0	32812	32839	
353	0	32796	32748	
354	0	32820	32766	
355	0	32812	32673	
356	0	32800	32720	
357	0	32844	32876	
358	0	32824	32718	
359	0	32760	32774	
360	0	32848	32770	
361	0	32796	32796	
362	0	32842	32853	
363	0	32896	32746	
364	0	32808	32838	
365	0	32772	32679	
366	0	32816	32838	
367	0	32856	32805	
368	0	32812	32804	
369	0	32852	32744	
370	0	32840	32650	
371	0	32800	32806	
372	0	32868	32775	
373	0	32800	32752	
374	0	32872	32806	
375	0	32760	32759	
376	0	32824	32808	
377	0	32826	32852	
378	0	32760	32769	
379	0	32808	32740	
380	0	32848	32737	
381	0	32780	32816	
382	0	32804	32848	
383	0	32782	32710	
384	0	32840	32775	
385	0	32836	32775	
386	0	32800	32708	
387	0	32736	32775	
388	0	32834	32768	
389	0	32848	32702	
390	0	32842	32756	
391	0	32870	32882	
392	0	32820	32806	
393	0	32832	32756	
394	0	32814	32798	
395	0	32774	32840	
396	0	32776	32738	
397	0	32760	32853	
398	0	32878	32842	
399	0	32825	32710	
400	0	32842	32668	
401	0	32808	32874	
402	0	32768	32800	
403	0	32764	32720	
404	0	32816	32664	
405	0	32772	32788	
406	0	32776	32700	
407	0	32800	32794	
408	0	32824	32732	
409	0	32824	32868	
410	0	32834	32712	
411	0	32788	32784	
412	0	32784	32680	
413	0	32760	32808	
414	0	32828	32689	
415	0	32818	32839	
416	0	32896	32766	
417	0	32844	32860	
418	0	32788	32798	
419	0	32816	32698	
420	0	32775	32640	
421	0	32820	32794	
422	0	32844	32839	
423	0	32834	32750	
424	0	32764	32694	
425	0	32792	32775	
426	0	32802	32832	
427	0	32864	32689	
428	0	32808	32762	
429	0	32800	32740	
430	0	32798	32790	
431	0	32860	32742	
432	0	32824	32748	
433	0	32808	32711	
434	0	32762	32802	
435	0	32806	32794	
436	0	32800	32714	
437	0	32828	32876	
438	0	32724	32744	
439	0	32764	32775	
440	0	32808	32852	
441	0	32842	32807	
442	0	32893	32756	
443	0	32898	32812	
444	0	32808	32808	
445	0	32812	32812	
446	0	32780	32830	
447	0	32760	32758	
448	0	32884	32742	
449	0	32796	32647	
450	0	32832	32772	
451	0	32812	32846	
452	0	32808	32727	
453	0	32784	32712	
454	0	32830	32716	
455	0	32812	32775	
456	0	32777	32775	
457	0	32745	32717	
458	0	32858	32762	
459	0	32840	32790	
460	0	32812	32672	
461	0	32864	32764	
462	0	32804	32704	
463	0	32830	32858	
464	0	32856	32744	
465	0	32800	32732	
466	0	32832	32724	
467	0	32842	32871	
468	0	32856	32758	
469	0	32818	32696	
470	0	32816	32770	
471	0	32798	32886	
472	0	32768	32762	
473	0	32790	32847	
474	0	32816	32868	
475	0	32780	32718	
476	0	32816	32894	
477	0	32792	32744	
478	0	32768	32748	
479	0	32760	32864	
480	0	32784	32804	
481	0	32812	32732	
482	0	32868	32708	
483	0	32836	32775	
484	0	32874	32722	
485	0	32844	32711	
486	0	32828	32838	
487	0	32856	32740	
488	0	32808	32678	
489	0	32832	32724	
490	0	32770	32718	
491	0	32832	32849	
492	0	32848	32836	
493	0	32856	32692	
494	0	32756	32799	
495	0	32834	32701	
496	0	32868	32670	
497	0	32780	32808	
498	0	32800	32756	
499	0	32852	32800	
500	0	32808	32888	
501	0	32858	32775	
502	0	32896	32868	
503	0	32792	32647	
504	0	32778	32775	
505	0	32784	32862	
506	0	32732	32743	
507	0	32804	32748	
508	0	32776	32802	
509	0	32836	32742	
510	0	32768	32775	
511	0	32784	32732	
512	0	32838	32806	
513	0	32798	32750	
514	0	32868	32842	
515	0	32780	32700	
516	0	32756	32742	
517	0	32816	32838	
518	0	32820	32748	
519	0	32744	32798	
520	0	32820	32820	
521	0	32776	32812	
522	0	32736	32748	
523	0	32780	32727	
524	0	32794	32816	
525	0	32794	32849	
526	0	32800	32676	
527	0	32920	32852	
528	0	32808	32876	
529	0	32788	32673	
530	0	32821	32744	
531	0	32804	32812	
532	0	32820	32664	
533	0	32804	32740	
534	0	32832	32767	
535	0	32826	32738	
536	0	32764	32775	
537	0	32840	32831	
538	0	32860	32687	
539	0	32804	32846	
540	0	32778	32839	
541	0	32788	32746	
542	0	32806	32784	
543	0	32772	32796	
544	0	32800	32646	
545	0	32800	32706	
546	0	32860	32847	
547	0	32748	32656	
548	0	32828	32828	
549	0	32820	32843	
550	0	32808	32664	
551	0	32896	32838	
552	0	32844	32798	
553	0	32834	32654	
554	0	32804	32806	
555	0	32804	32820	
556	0	32776	32800	
557	0	32800	32727	
558	0	32748	32726	
559	0	32814	32812	
560	0	32800	32708	
561	0	32778	32758	
562	0	32780	32839	
563	0	32840	32708	
564	0	32780	32838	
565	0	32784	32802	
566	0	32842	32679	
567	0	32764	32822	
568	0	32756	32740	
569	0	32838	32844	
570	0	32760	32812	
571	0	32776	32676	
572	0	32808	32772	
573	0	32850	32692	
574	0	32832	32775	
575	0	32822	32808	
576	0	32852	32728	
577	0	32802	32772	
578	0	32836	32678	
579	0	32812	32823	
580	0	32778	32836	
581	0	32780	32687	
582	0	32810	32798	
583	0	32856	32708	
584	0	32810	32716	
585	0	32808	32839	
586	0	32816	32742	
587	0	32788	32784	
588	0	32768	32725	
589	0	32792	32764	
590	0	32806	32818	
591	0	32784	32678	
592	0	32818	32826	
593	0	32888	32770	
594	0	32812	32708	
595	0	32852	32834	
596	0	32844	32751	
597	0	32772	32714	
598	0	32904	32829	
599	0	32868	32842	
600	0	32848	32882	
601	0	32888	32821	
602	0	32748	32728	
603	0	32838	32828	
604	0	32798	32742	
605	0	32808	32722	
606	0	32820	32716	
607	0	32804	32702	
608	0	32814	32775	
609	0	32782	32690	
610	0	32808	32771	
611	0	32798	32858	
612	0	32832	32622	
613	0	32808	32697	
614	0	32792	32844	
615	0	32808	32750	
616	0	32834	32689	
617	0	32740	32830	
618	0	32772	32832	
619	0	32772	32906	
620	0	32820	32710	
621	0	32828	32756	
622	0	32840	32791	
623	0	32785	32698	
624	0	32776	32772	
625	0	32814	32700	
626	0	32836	32727	
627	0	32760	32818	
628	0	32848	32800	
629	0	32844	32732	
630	0	32748	32850	
631	0	32844	32736	
632	0	32804	32804	
633	0	32836	32728	
634	0	32852	32794	
635	0	32800	32854	
636	0	32780	32748	
637	0	32860	32790	
638	0	32832	32702	
639	0	32864	32847	
640	0	32816	32659	
641	0	32788	32824	
642	0	32756	32722	
643	0	32836	32772	
644	0	32776	32712	
645	0	32778	32756	
646	0	32830	32768	
647	0	32820	32886	
648	0	32800	32770	
649	0	32754	32712	
650	0	32832	32750	
651	0	32776	32838	
652	0	32784	32728	
653	0	32832	32756	
654	0	32810	32818	
655	0	32808	32680	
656	0	32820	32828	
657	0	32836	32823	
658	0	32824	32684	
659	0	32880	32762	
660	0	32801	32836	
661	0	32828	32759	
662	0	32884	32700	
663	0	32888	32775	
664	0	32834	32703	
665	0	32804	32792	
666	0	32820	32834	
667	0	32838	32714	
668	0	32785	32786	
669	0	32760	32704	
670	0	32776	32796	
671	0	32836	32790	
672	0	32844	32724	
673	0	32866	32807	
674	0	32824	32843	
675	0	32778	32711	
676	0	32816	32822	
677	0	32796	32752	
678	0	32832	32689	
679	0	32836	32828	
680	0	32812	32807	
681	0	32766	32704	
682	0	32776	32764	
683	0	32900	32775	
684	0	32746	32743	
685	0	32762	32711	
686	0	32816	32743	
687	0	32788	32772	
688	0	32764	32668	
689	0	32820	32754	
690	0	32778	32794	
691	0	32828	32762	
692	0	32813	32775	
693	0	32860	32775	
694	0	32820	32775	
695	0	32746	32743	
696	0	32792	32738	
697	0	32812	32790	
698	0	32798	32828	
699	0	32848	32770	
700	0	32804	32724	
701	0	32788	32704	
702	0	32792	32806	
703	0	32828	32772	
704	0	32845	32684	
705	0	32864	32751	
706	0	32802	32743	
707	0	32764	32732	
708	0	32832	32884	
709	0	32840	32704	
710	0	32840	32846	
711	0	32796	32786	
712	0	32804	32744	
713	0	32796	32783	
714	0	32837	32725	
715	0	32856	32670	
716	0	32764	32788	
717	0	32804	32828	
718	0	32748	32632	
719	0	32808	32780	
720	0	32768	32807	
721	0	32756	32678	
722	0	32832	32764	
723	0	32782	32790	
724	0	32896	32725	
725	0	32856	32800	
726	0	32820	32722	
727	0	32892	32838	
728	0	32892	32839	
729	0	32824	32727	
730	0	32802	32775	
731	0	32816	32846	
732	0	32784	32680	
733	0	32772	32822	
734	0	32820	32714	
735	0	32792	32812	
736	0	32772	32784	
737	0	32830	32796	
738	0	32800	32808	
739	0	32824	32711	
740	0	32852	32775	
741	0	32860	32796	
742	0	32818	32775	
743	0	32768	32700	
744	0	32738	32756	
745	0	32832	32764	
746	0	32772	32760	
747	0	32828	32804	
748	0	32830	32710	
749	0	32772	32770	
750	0	32828	32854	
751	0	32804	32740	
752	0	32794	32775	
753	0	32776	32858	
754	0	32824	32667	
755	0	32844	32788	
756	0	32842	32839	
757	0	32876	32698	
758	0	32826	32812	
759	0	32802	32766	
760	0	32790	32690	
761	0	32762	32838	
762	0	32792	32716	
763	0	32816	32886	
764	0	32864	32821	
765	0	32810	32664	
766	0	32832	32830	
767	0	32785	32812	
768	0	32830	32696	
769	0	32822	32790	
770	0	32796	32767	
771	0	32832	32660	
772	0	32834	32807	
773	0	32776	32804	
774	0	32725	32634	
775	0	32820	32714	
776	0	32836	32874	
777	0	32856	32798	
778	0	32796	32800	
779	0	32878	32652	
780	0	32812	32874	
781	0	32752	32820	
782	0	32832	32752	
783	0	32775	32753	
784	0	32794	32831	
785	0	32828	32746	
786	0	32816	32812	
787	0	32820	32775	
788	0	32836	32742	
789	0	32778	32862	
790	0	32816	32767	
791	0	32744	32784	
792	0	32864	32756	
793	0	32740	32800	
794	0	32828	32838	
795	0	32876	32625	
796	0	32824	32724	
797	0	32820	32798	
798	0	32804	32704	
799	0	32810	32746	
800	0	32888	32775	
801	0	32854	32647	
802	0	32868	32882	
803	0	32792	32832	
804	0	32840	32700	
805	0	32784	32768	
806	0	32852	32824	
807	0	32800	32716	
808	0	32814	32769	
809	0	32816	32766	
810	0	32792	32856	
811	0	32792	32846	
812	0	32848	32735	
813	0	32764	32717	
814	0	32824	32700	
815	0	32820	32786	
816	0	32832	32852	
817	0	32820	32728	
818	0	32840	32712	
819	0	32820	32742	
820	0	32854	32752	
821	0	32816	32823	
822	0	32820	32752	
823	0	32800	32831	
824	0	32788	32738	
825	0	32834	32765	
826	0	32912	32836	
827	0	32796	32648	
828	0	32788	32882	
829	0	32768	32740	
830	0	32804	32847	
831	0	32820	32726	
832	0	32776	32774	
833	0	32796	32775	
834	0	32804	32812	
835	0	32832	32758	
836	0	32834	32730	
837	0	32820	32810	
838	0	32772	32706	
839	0	32728	32806	
840	0	32761	32816	
841	0	32808	32697	
842	0	32860	32832	
843	0	32868	32775	
844	0	32804	32772	
845	0	32764	32770	
846	0	32808	32676	
847	0	32788	32768	
848	0	32776	32810	
849	0	32876	32714	
850	0	32860	32839	
851	0	32910	32774	
852	0	32849	32799	
853	0	32832	32644	
854	0	32804	32774	
855	0	32932	32789	
856	0	32768	32694	
857	0	32764	32807	
858	0	32796	32775	
859	0	32820	32822	
860	0	32841	32789	
861	0	32824	32711	
862	0	32792	32792	
863	0	32866	32815	
864	0	32804	32670	
865	0	32788	32844	
866	0	32772	32729	
867	0	32800	32790	
868	0	32866	32694	
869	0	32804	32816	
870	0	32780	32761	
871	0	32764	32806	
872	0	32812	32740	
873	0	32796	32818	
874	0	32784	32854	
875	0	32800	32719	
876	0	32800	32856	
877	0	32816	32844	
878	0	32856	32744	
879	0	32864	32756	
880	0	32822	32812	
881	0	32825	32754	
882	0	32830	32854	
883	0	32844	32812	
884	0	32808	32680	
885	0	32836	32690	
886	0	32808	32772	
887	0	32780	32760	
888	0	32822	32842	
889	0	32810	32820	
890	0	32820	32682	
891	0	32820	32775	
892	0	32780	32758	
893	0	32836	32724	
894	0	32812	32714	
895	0	32872	32795	
896	0	32740	32687	
897	0	32860	32800	
898	0	32822	32866	
899	0	32756	32683	
900	0	32796	32844	
901	0	32796	32875	
902	0	32796	32757	
903	0	32776	32836	
904	0	32868	32890	
905	0	32736	32724	
906	0	32784	32862	
907	0	32800	32812	
908	0	32866	32871	
909	0	32804	32708	
910	0	32900	32839	
911	0	32876	32878	
912	0	32826	32806	
913	0	32766	32684	
914	0	32840	32603	
915	0	32789	32700	
916	0	32796	32711	
917	0	32690	32596	
918	0	32732	32602	
919	0	32710	32748	
920	0	32714	32710	
921	0	32738	32654	
922	0	32760	32551	
923	0	32716	32674	
924	0	32736	32596	
925	0	32748	32702	
926	0	32820	32592	
927	0	32724	32698	
928	0	32756	32660	
929	0	32756	32750	
930	0	32718	32647	
931	0	32766	32640	
932	0	32768	32807	
933	0	32824	32808	
934	0	32804	32700	
935	0	32808	32804	
936	0	32828	32662	
937	0	32904	32753	
938	0	32984	32696	
939	0	33048	32874	
940	0	33088	32963	
941	0	33088	33026	
942	0	33070	33012	
943	0	33220	33190	
944	0	33046	33174	
945	0	33066	33142	
946	0	32996	33118	
947	0	32869	33092	
948	0	32844	33095	
949	0	32822	32988	
950	0	32808	32935	
951	0	32744	32852	
952	0	32748	32590	
953	0	32760	32660	
954	0	32708	32510	
955	0	32756	32666	
956	0	32680	32596	
957	0	32685	32518	
958	0	32700	32564	
959	0	32704	32657	
960	0	32736	32498	
961	0	32748	32756	
962	0	32692	32819	
963	0	32716	32644	
964	0	32744	32839	
965	0	32756	32742	
966	0	32692	32674	
967	0	32732	32768	
968	0	32760	32804	
969	0	32775	32652	
970	0	32802	32764	
971	0	32852	32702	
972	0	32832	32791	
973	0	32768	32835	
974	0	32864	32732	
975	0	32872	32761	
976	0	32782	32678	
977	0	32862	32822	
978	0	32762	32838	
979	0	32856	32812	
980	0	32826	32798	
981	0	32848	32775	
982	0	32772	32828	
983	0	32822	32838	
984	0	32832	32686	
985	0	32846	32774	
986	0	32816	32730	
987	0	32828	32768	
988	0	32876	32740	
989	0	32744	32728	
990	0	32784	32752	
991	0	32816	32766	
992	0	32792	32714	
993	0	32837	32700	
994	0	32784	32798	
995	0	32760	32754	
996	0	32780	32752	
997	0	32932	32775	
998	0	32836	32704	
999	0	32870	32775	
1000	0	32798	32860	
1001	0	32852	32727	
1002	0	32796	32775	
1003	0	32756	32824	
1004	0	32796	32690	
1005	0	32836	32798	
1006	0	32868	32775	
1007	0	32806	32762	
1008	0	32800	32788	
1009	0	32778	32761	
1010	0	32804	32724	
1011	0	32800	32856	
1012	0	32876	32705	
1013	0	32838	32862	
1014	0	32752	32774	
1015	0	32846	32791	
1016	0	32800	32824	
1017	0	32872	32660	
1018	0	32822	32794	
1019	0	32802	32816	
1020	0	32740	32692	
1021	0	32756	32812	
1022	0	32764	32810	
1023	0	32862	32726	
1024	0	32814	32878	
1025	0	32820	32758	
1026	0	32812	32762	
1027	0	32816	32852	
1028	0	32820	32775	
1029	0	32808	32882	
1030	0	32862	32702	
1031	0	32776	32807	
1032	0	32828	32860	
1033	0	32804	32679	
1034	0	32788	32790	
1035	0	32844	32738	
1036	0	32824	32736	
1037	0	32860	32761	
1038	0	32816	32806	
1039	0	32856	32626	
1040	0	32772	32834	
1041	0	32762	32839	
1042	0	32744	32738	
1043	0	32848	32814	
1044	0	32768	32794	
1045	0	32822	32660	
1046	0	32780	32791	
1047	0	32828	32816	
1048	0	32830	32775	
1049	0	32788	32690	
1050	0	32840	32721	
1051	0	32748	32838	
1052	0	32800	32718	
1053	0	32780	32710	
1054	0	32802	32816	
1055	0	32762	32852	
1056	0	32744	32732	
1057	0	32804	32796	
1058	0	32906	32817	
1059	0	32772	32734	
1060	0	32780	32774	
1061	0	32824	32838	
1062	0	32802	32704	
1063	0	32856	32812	
1064	0	32844	32772	
1065	0	32828	32647	
1066	0	32761	32766	
1067	0	32768	32794	
1068	0	32848	32772	
1069	0	32820	32814	
1070	0	32836	32734	
1071	0	32812	32768	
1072	0	32828	32670	
1073	0	32840	32734	
1074	0	32800	32807	
1075	0	32860	32704	
1076	0	32864	32810	
1077	0	32779	32770	
1078	0	32772	32812	
1079	0	32846	32814	
1080	0	32816	32682	
1081	0	32846	32711	
1082	0	32785	32700	
1083	0	32792	32799	
1084	0	32850	32836	
1085	0	32770	32720	
1086	0	32796	32756	
1087	0	32894	32774	
1088	0	32794	32788	
1089	0	32842	32834	
1090	0	32844	32796	
1091	0	32788	32734	
1092	0	32864	32716	
1093	0	32850	32796	
1094	0	32816	32874	
1095	0	32804	32802	
1096	0	32842	32736	
1097	0	32798	32732	
1098	0	32808	32743	
1099	0	32800	32828	
1100	0	32828	32756	
1101	0	32748	32835	
1102	0	32796	32752	
1103	0	32799	32740	
1104	0	32828	32743	
1105	0	32736	32836	
1106	0	32836	32694	
1107	0	32792	32812	
1108	0	32834	32902	
1109	0	32832	32769	
1110	0	32800	32752	
1111	0	32808	32812	
1112	0	32780	32790	
1113	0	32824	32726	
1114	0	32846	32836	
1115	0	32860	32754	
1116	0	32792	32702	
1117	0	32728	32711	
1118	0	32748	32828	
1119	0	32854	32720	
1120	0	32804	32746	
1121	0	32887	32792	
1122	0	32832	32686	
1123	0	32812	32810	
1124	0	32812	32768	
1125	0	32792	32817	
1126	0	32848	32764	
1127	0	32810	32694	
1128	0	32788	32794	
1129	0	32836	32714	
1130	0	32876	32775	
1131	0	32808	32855	
1132	0	32862	32802	
1133	0	32824	32671	
1134	0	32768	32807	
1135	0	32708	32842	
1136	0	32824	32708	
1137	0	32768	32743	
1138	0	32772	32842	
1139	0	32844	32720	
1140	0	32840	32741	
1141	0	32784	32788	
1142	0	32836	32764	
1143	0	32844	32750	
1144	0	32796	32790	
1145	0	32804	32832	
1146	0	32848	32722	
1147	0	32820	32820	
1148	0	32762	32806	
1149	0	32860	32770	
1150	0	32792	32676	
1151	0	32832	32718	
1152	0	32836	32769	
1153	0	32816	32763	
1154	0	32868	32647	
1155	0	32832	32817	
1156	0	32760	32911	
1157	0	32784	32756	
1158	0	32838	32753	
1159	0	32824	32735	
1160	0	32848	32841	
1161	0	32868	32766	
1162	0	32760	32744	
1163	0	32840	32767	
1164	0	32866	32824	
1165	0	32856	32800	
1166	0	32772	32687	
1167	0	32814	32820	
1168	0	32756	32852	
1169	0	32784	32720	
1170	0	32834	32676	
1171	0	32864	32838	
1172	0	32800	32804	
1173	0	32814	32710	
1174	0	32828	32788	
1175	0	32792	32794	
1176	0	32820	32716	
1177	0	32804	32871	
1178	0	32852	32835	
1179	0	32824	32688	
1180	0	32824	32842	
1181	0	32709	32884	
1182	0	32744	32838	
1183	0	32776	32775	
1184	0	32796	32724	
1185	0	32798	32775	
1186	0	32920	32807	
1187	0	32764	32732	
1188	0	32821	32794	
1189	0	32827	32817	
1190	0	32812	32775	
1191	0	32828	32828	
1192	0	32756	32804	
1193	0	32848	32678	
1194	0	32768	32774	
1195	0	32816	32700	
1196	0	32860	32694	
1197	0	32764	32692	
1198	0	32832	32775	
1199	0	32786	32687	
1200	0	32834	32770	
1201	0	32792	32810	
1202	0	32776	32716	
1203	0	32766	32751	
1204	0	32728	32748	
1205	0	32840	32706	
1206	0	32844	32826	
1207	0	32820	32820	
1208	0	32844	32858	
1209	0	32840	32704	
1210	0	32780	32753	
1211	0	32786	32826	
1212	0	32800	32615	
1213	0	32836	32736	
1214	0	32832	32818	
1215	0	32800	32816	
1216	0	32832	32892	
1217	0	32848	32821	
1218	0	32828	32756	
1219	0	32798	32826	
1220	0	32884	32807	
1221	0	32784	32730	
1222	0	32796	32818	
1223	0	32764	32751	
1224	0	32778	32726	
1225	0	32900	32673	
1226	0	32796	32775	
1227	0	32772	32775	
1228	0	32784	32748	
1229	0	32804	32775	
1230	0	32762	32760	
1231	0	32810	32632	
1232	0	32844	32810	
1233	0	32788	32775	
1234	0	32816	32757	
1235	0	32826	32656	
1236	0	32888	32775	
1237	0	32784	32792	
1238	0	32820	32708	
1239	0	32860	32858	
1240	0	32829	32760	
1241	0	32804	32806	
1242	0	32885	32717	
1243	0	32836	32724	
1244	0	32764	32768	
1245	0	32848	32734	
1246	0	32852	32750	
1247	0	32816	32782	
1248	0	32788	32672	
1249	0	32832	32785	
1250	0	32788	32826	
1251	0	32780	32706	
1252	0	32784	32796	
1253	0	32782	32694	
1254	0	32788	32860	
1255	0	32772	32746	
1256	0	32812	32758	
1257	0	32840	32700	
1258	0	32821	32766	
1259	0	32798	32796	
1260	0	32810	32652	
1261	0	32828	32736	
1262	0	32912	32774	
1263	0	32764	32878	
1264	0	32760	32754	
1265	0	32820	32816	
1266	0	32780	32718	
1267	0	32876	32807	
1268	0	32846	32762	
1269	0	32784	32768	
1270	0	32798	32742	
1271	0	32864	32825	
1272	0	32776	32726	
1273	0	32816	32775	
1274	0	32924	32772	
1275	0	32853	32759	
1276	0	32752	32788	
1277	0	32820	32772	
1278	0	32813	32735	
1279	0	32802	32792	
1280	0	32800	32732	
1281	0	32805	32732	
1282	0	32776	32884	
1283	0	32828	32775	
1284	0	32754	32737	
1285	0	32812	32714	
1286	0	32824	32807	
1287	0	32784	32756	
1288	0	32844	32622	
1289	0	32824	32695	
1290	0	32766	32707	
1291	0	32894	32775	
1292	0	32764	32693	
1293	0	32856	32752	
1294	0	32828	32772	
1295	0	32800	32741	
1296	0	32796	32828	
1297	0	32836	32792	
1298	0	32732	32647	
1299	0	32870	32732	
1300	0	32788	32775	
1301	0	32792	32846	
1302	0	32806	32744	
1303	0	32864	32770	
1304	0	32804	32772	
1305	0	32826	32734	
1306	0	32800	32944	
1307	0	32816	32700	
1308	0	32856	32768	
1309	0	32752	32670	
1310	0	32804	32792	
1311	0	32862	32792	
1312	0	32832	32696	
1313	0	32772	32830	
1314	0	32796	32743	
1315	0	32796	32700	
1316	0	32820	32788	
1317	0	32840	32740	
1318	0	32808	32733	
1319	0	32786	32871	
1320	0	32890	32750	
1321	0	32868	32740	
1322	0	32784	32711	
1323	0	32772	32836	
1324	0	32812	32806	
1325	0	32758	32728	
1326	0	32823	32848	
1327	0	32788	32714	
1328	0	32808	32738	
1329	0	32824	32799	
1330	0	32820	32806	
1331	0	32746	32872	
1332	0	32781	32694	
1333	0	32766	32797	
1334	0	32854	32718	
1335	0	32768	32686	
1336	0	32772	32710	
1337	0	32756	32714	
1338	0	32768	32719	
1339	0	32808	32810	
1340	0	32832	32842	
1341	0	32872	32722	
1342	0	32814	32826	
1343	0	32790	32839	
1344	0	32804	32744	
1345	0	32816	32820	
1346	0	32824	32788	
1347	0	32894	32724	
1348	0	32744	32761	
1349	0	32800	32844	
1350	0	32860	32712	
1351	0	32804	32716	
1352	0	32812	32748	
1353	0	32788	32839	
1354	0	32834	32775	
1355	0	32772	32768	
1356	0	32790	32760	
1357	0	32792	32708	
1358	0	32788	32834	
1359	0	32828	32775	
1360	0	32808	32791	
1361	0	32818	32820	
1362	0	32820	32854	
1363	0	32876	32644	
1364	0	32740	32846	
1365	0	32836	32758	
1366	0	32782	32718	
1367	0	32820	32819	
1368	0	32832	32744	
1369	0	32860	32751	
1370	0	32804	32716	
1371	0	32746	32790	
1372	0	32888	32764	
1373	0	32888	32694	
1374	0	32856	32824	
1375	0	32764	32871	
1376	0	32784	32766	
1377	0	32872	32802	
1378	0	32862	32808	
1379	0	32785	32638	
1380	0	32824	32766	
1381	0	32828	32756	
1382	0	32830	32666	
1383	0	32832	32850	
1384	0	32830	32743	
1385	0	32778	32815	
1386	0	32736	32732	
1387	0	32832	32790	
1388	0	32756	32720	
1389	0	32768	32772	
1390	0	32792	32714	
1391	0	32818	32792	
1392	0	32860	32762	
1393	0	32774	32689	
1394	0	32828	32838	
1395	0	32836	32822	
1396	0	32856	32660	
1397	0	32808	32732	
1398	0	32834	32775	
1399	0	32812	32830	
1400	0	32818	32668	
1401	0	32842	32700	
1402	0	32784	32834	
1403	0	32800	32767	
1404	0	32848	32775	
1405	0	32804	32722	
1406	0	32836	32694	
1407	0	32810	32788	
1408	0	32802	32720	
1409	0	32860	32828	
1410	0	32810	32775	
1411	0	32768	32774	
1412	0	32768	32714	
1413	0	32800	32788	
1414	0	32836	32884	
1415	0	32874	32710	
1416	0	32852	32788	
1417	0	32810	32798	
1418	0	32724	32852	
1419	0	32834	32767	
1420	0	32776	32755	
1421	0	32804	32775	
1422	0	32804	32720	
1423	0	32816	32860	
1424	0	32772	32666	
1425	0	32794	32852	
1426	0	32800	32710	
1427	0	32792	32754	
1428	0	32804	32852	
1429	0	32780	32742	
1430	0	32812	32812	
1431	0	32832	32814	
1432	0	32812	32613	
1433	0	32860	32804	
1434	0	32920	32726	
1435	0	32834	32721	
1436	0	32820	32680	
1437	0	32776	32724	
1438	0	32764	32712	
1439	0	32832	32856	
1440	0	32828	32772	
1441	0	32774	32736	
1442	0	32834	32662	
1443	0	32768	32764	
1444	0	32814	32826	
1445	0	32766	32682	
1446	0	32792	32748	
1447	0	32796	32824	
1448	0	32796	32696	
1449	0	32876	32775	
1450	0	32872	32767	
1451	0	32808	32662	
1452	0	32874	32775	
1453	0	32692	32772	
1454	0	32798	32750	
1455	0	32816	32740	
1456	0	32856	32756	
1457	0	32808	32839	
1458	0	32776	32703	
1459	0	32864	32884	
1460	0	32848	32748	
1461	0	32789	32806	
1462	0	32808	32736	
1463	0	32768	32768	
1464	0	32840	32808	
1465	0	32836	32647	
1466	0	32802	32771	
1467	0	32828	32750	
1468	0	32804	32828	
1469	0	32808	32764	
1470	0	32830	32775	
1471	0	32800	32831	
1472	0	32784	32775	
1473	0	32824	32822	
1474	0	32788	32816	
1475	0	32856	32746	
1476	0	32804	32732	
1477	0	32844	32775	
1478	0	32814	32793	
1479	0	32746	32594	
1480	0	32742	32812	
1481	0	32788	32784	
1482	0	32780	32770	
1483	0	32728	32752	
1484	0	32842	32802	
1485	0	32820	32768	
1486	0	32842	32804	
1487	0	32804	32646	
1488	0	32840	32756	
1489	0	32832	32738	
1490	0	32812	32732	
1491	0	32860	32764	
1492	0	32848	32712	
1493	0	32806	32724	
1494	0	32832	32823	
1495	0	32770	32862	
1496	0	32782	32759	
1497	0	32810	32809	
1498	0	32848	32792	
1499	0	32766	32688	
1500	0	32788	32864	
1501	0	32808	32692	
1502	0	32892	32710	
1503	0	32814	32806	
1504	0	32792	32775	
1505	0	32808	32772	
1506	0	32852	32754	
1507	0	32828	32866	
1508	0	32816	32847	
1509	0	32838	32652	
1510	0	32844	32856	
1511	0	32872	32786	
1512	0	32780	32764	
1513	0	32775	32679	
1514	0	32868	32826	
1515	0	32822	32794	
1516	0	32802	32840	
1517	0	32808	32706	
1518	0	32840	32758	
1519	0	32784	32790	
1520	0	32796	32774	
1521	0	32808	32868	
1522	0	32784	32820	
1523	0	32756	32654	
1524	0	32836	32844	
1525	0	32768	32742	
1526	0	32864	32684	
1527	0	32788	32687	
1528	0	32844	32759	
1529	0	32848	32868	
1530	0	32848	32646	
1531	0	32770	32772	
1532	0	32800	32806	
1533	0	32784	32774	
1534	0	32816	32724	
1535	0	32824	32898	
1536	0	32789	32818	
1537	0	32824	32822	
1538	0	32768	32692	
1539	0	32852	32814	
1540	0	32852	32803	
1541	0	32708	32787	
1542	0	32792	32775	
1543	0	32754	32858	
1544	0	32824	32738	
1545	0	32816	32724	
1546	0	32880	32748	
1547	0	32856	32736	
1548	0	32800	32736	
1549	0	32864	32728	
1550	0	32792	32772	
1551	0	32818	32749	
1552	0	32852	32774	
1553	0	32820	32822	
1554	0	32852	32800	
1555	0	32838	32828	
1556	0	32792	32804	
1557	0	32818	32746	
1558	0	32840	32892	
1559	0	32792	32883	
1560	0	32812	32756	
1561	0	32764	32786	
1562	0	32758	32808	
1563	0	32842	32660	
1564	0	32860	32716	
1565	0	32820	32766	
1566	0	32800	32754	
1567	0	32792	32796	
1568	0	32768	32818	
1569	0	32860	32727	
1570	0	32772	32812	
1571	0	32780	32854	
1572	0	32800	32662	
1573	0	32856	32742	
1574	0	32790	32830	
1575	0	32840	32750	
1576	0	32820	32834	
1577	0	32752	32740	
1578	0	32790	32764	
1579	0	32788	32775	
1580	0	32740	32728	
1581	0	32860	32820	
1582	0	32780	32752	
1583	0	32782	32716	
1584	0	32876	32794	
1585	0	32828	32703	
1586	0	32856	32744	
1587	0	32826	32734	
1588	0	32820	32794	
1589	0	32814	32738	
1590	0	32740	32744	
1591	0	32778	32620	
1592	0	32796	32856	
1593	0	32842	32714	
1594	0	32776	32842	
1595	0	32786	32696	
1596	0	32808	32775	
1597	0	32798	32800	
1598	0	32756	32831	
1599	0	32820	32642	
1600	0	32796	32730	
1601	0	32820	32784	
1602	0	32892	32690	
1603	0	32788	32852	
1604	0	32828	32722	
1605	0	32852	32793	
1606	0	32816	32754	
1607	0	32832	32689	
1608	0	32822	32814	
1609	0	32874	32872	
1610	0	32792	32760	
1611	0	32824	32774	
1612	0	32840	32820	
1613	0	32828	32758	
1614	0	32785	32743	
1615	0	32796	32679	
1616	0	32868	32750	
1617	0	32764	32774	
1618	0	32820	32708	
1619	0	32814	32836	
1620	0	32724	32728	
1621	0	32826	32744	
1622	0	32878	32740	
1623	0	32774	32802	
1624	0	32808	32806	
1625	0	32842	32702	
1626	0	32828	32734	
1627	0	32840	32824	
1628	0	32840	32734	
1629	0	32888	32852	
1630	0	32834	32790	
1631	0	32817	32743	
1632	0	32782	32660	
1633	0	32801	32800	
1634	0	32772	32788	
1635	0	32836	32718	
1636	0	32766	32808	
1637	0	32850	32738	
1638	0	32824	32763	
1639	0	32816	32668	
1640	0	32864	32768	
1641	0	32775	32822	
1642	0	32792	32670	
1643	0	32852	32840	
1644	0	32776	32799	
1645	0	32890	32754	
1646	0	32788	32742	
1647	0	32790	32744	
1648	0	32820	32910	
1649	0	32792	32710	
1650	0	32746	32792	
1651	0	32832	32868	
1652	0	32818	32664	
1653	0	32792	32692	
1654	0	32854	32764	
1655	0	32822	32828	
1656	0	32848	32732	
1657	0	32838	32839	
1658	0	32812	32822	
1659	0	32848	32723	
1660	0	32806	32911	
1661	0	32792	32832	
1662	0	32780	32806	
1663	0	32784	32844	
1664	0	32820	32775	
1665	0	32714	32792	
1666	0	32842	32688	
1667	0	32822	32840	
1668	0	32812	32864	
1669	0	32834	32830	
1670	0	32828	32806	
1671	0	32868	32775	
1672	0	32802	32838	
1673	0	32784	32671	
1674	0	32806	32752	
1675	0	32774	32708	
1676	0	32740	32716	
1677	0	32688	32550	
1678	0	32782	32718	
1679	0	32768	32580	
1680	0	32724	32698	
1681	0	32760	32486	
1682	0	32754	32692	
1683	0	32712	32668	
1684	0	32696	32668	
1685	0	32768	32632	
1686	0	32728	32678	
1687	0	32704	32738	
1688	0	32800	32694	
1689	0	32808	32903	
1690	0	32836	32740	
1691	0	32812	32851	
1692	0	32848	32702	
1693	0	32856	32743	
1694	0	32929	32678	
1695	0	32970	32800	
1696	0	33072	32852	
1697	0	33130	32896	
1698	0	33002	33054	
1699	0	33104	33031	
1700	0	33078	33200	
1701	0	33056	33232	
1702	0	32986	33226	
1703	0	32892	33236	
1704	0	32812	33094	
1705	0	32804	33100	
1706	0	32756	33060	
1707	0	32782	32886	
1708	0	32762	32680	
1709	0	32715	32774	
1710	0	32748	32642	
1711	0	32658	32700	
1712	0	32708	32534	
1713	0	32736	32490	
1714	0	32740	32500	
1715	0	32696	32530	
1716	0	32720	32593	
1717	0	32800	32628	
1718	0	32722	32628	
1719	0	32632	32670	
1720	0	32730	32620	
1721	0	32822	32788	
1722	0	32886	32660	
1723	0	32952	32736	
1724	0	32880	32674	
1725	0	32860	32834	
1726	0	32854	32806	
1727	0	32856	32694	
1728	0	32833	32775	
1729	0	32880	32775	
1730	0	32856	32644	
1731	0	32792	32808	
1732	0	32808	32714	
1733	0	32656	32716	
1734	0	32760	32812	
1735	0	32800	32868	
1736	0	32801	32714	
1737	0	32788	32775	
1738	0	32774	32790	
1739	0	32772	32847	
1740	0	32792	32754	
1741	0	32828	32822	
1742	0	32760	32796	
1743	0	32812	32740	
1744	0	32708	32881	
1745	0	32776	32855	
1746	0	32822	32686	
1747	0	32772	32760	
1748	0	32732	32832	
1749	0	32752	32718	
1750	0	32764	32762	
1751	0	32848	32730	
1752	0	32806	32664	
1753	0	32814	32772	
1754	0	32846	32807	
1755	0	32793	32736	
1756	0	32790	32948	
1757	0	32824	32874	
1758	0	32858	32764	
1759	0	32844	32751	
1760	0	32850	32750	
1761	0	32788	32885	
1762	0	32816	32678	
1763	0	32856	32759	
1764	0	32764	32804	
1765	0	32824	32694	
1766	0	32753	32754	
1767	0	32822	32816	
1768	0	32820	32743	
1769	0	32834	32692	
1770	0	32894	32764	
1771	0	32834	32818	
1772	0	32784	32664	
1773	0	32830	32798	
1774	0	32818	32846	
1775	0	32821	32712	
1776	0	32824	32824	
1777	0	32808	32806	
1778	0	32824	32688	
1779	0	32820	32775	
1780	0	32760	32752	
1781	0	32888	32668	
1782	0	32836	32756	
1783	0	32830	32716	
1784	0	32816	32812	
1785	0	32790	32822	
1786	0	32756	32740	
1787	0	32817	32764	
1788	0	32770	32709	
1789	0	32754	32820	
1790	0	32794	32667	
1791	0	32834	32846	
1792	0	32796	32830	
1793	0	32804	32812	
1794	0	32864	32724	
1795	0	32848	32758	
1796	0	32796	32743	
1797	0	32840	32775	
1798	0	32784	32791	
1799	0	32840	32652	
1800	0	32840	32865	
1801	0	32820	32791	
1802	0	32848	32727	
1803	0	32856	32871	
1804	0	32788	32774	
1805	0	32848	32753	
1806	0	32775	32666	
1807	0	32792	32742	
1808	0	32772	32742	
1809	0	32808	32760	
1810	0	32816	32871	
1811	0	32844	32804	
1812	0	32804	32788	
1813	0	32746	32790	
1814	0	32822	32774	
1815	0	32808	32796	
1816	0	32800	32676	
1817	0	32844	32686	
1818	0	32810	32774	
1819	0	32840	32766	
1820	0	32826	32743	
1821	0	32820	32694	
1822	0	32782	32816	
1823	0	32776	32820	
1824	0	32818	32738	
1825	0	32800	32886	
1826	0	32792	32758	
1827	0	32868	32702	
1828	0	32764	32801	
1829	0	32772	32739	
1830	0	32846	32834	
1831	0	32862	32712	
1832	0	32884	32860	
1833	0	32761	32759	
1834	0	32800	32826	
1835	0	32794	32679	
1836	0	32736	32758	
1837	0	32812	32830	
1838	0	32804	32834	
1839	0	32868	32728	
1840	0	32778	32660	
1841	0	32832	32768	
1842	0	32788	32720	
1843	0	32820	32844	
1844	0	32834	32734	
1845	0	32840	32724	
1846	0	32846	32814	
1847	0	32836	32754	
1848	0	32802	32694	
1849	0	32834	32746	
1850	0	32836	32892	
1851	0	32796	32772	
1852	0	32724	32840	
1853	0	32849	32688	
1854	0	32828	32858	
1855	0	32828	32804	
1856	0	32812	32834	
1857	0	32806	32740	
1858	0	32828	32758	
1859	0	32766	32710	
1860	0	32794	32784	
1861	0	32784	32710	
1862	0	32780	32774	
1863	0	32792	32772	
1864	0	32800	32838	
1865	0	32784	32718	
1866	0	32900	32807	
1867	0	32820	32768	
1868	0	32816	32821	
1869	0	32798	32730	
1870	0	32800	32784	
1871	0	32764	32818	
1872	0	32768	32732	
1873	0	32748	32842	
1874	0	32804	32726	
1875	0	32794	32660	
1876	0	32740	32713	
1877	0	32860	32854	
1878	0	32868	32774	
1879	0	32900	32722	
1880	0	32868	32671	
1881	0	32826	32740	
1882	0	32824	32696	
1883	0	32856	32832	
1884	0	32900	32748	
1885	0	32788	32788	
1886	0	32768	32679	
1887	0	32832	32839	
1888	0	32784	32775	
1889	0	32852	32903	
1890	0	32856	32714	
1891	0	32818	32791	
1892	0	32750	32758	
1893	0	32712	32862	
1894	0	32832	32662	
1895	0	32780	32814	
1896	0	32830	32812	
1897	0	32720	32751	
1898	0	32793	32807	
1899	0	32786	32700	
1900	0	32900	32774	
1901	0	32798	32734	
1902	0	32812	32804	
1903	0	32792	32722	
1904	0	32840	32792	
1905	0	32848	32770	
1906	0	32880	32704	
1907	0	32852	32678	
1908	0	32780	32774	
1909	0	32852	32810	
1910	0	32808	32810	
1911	0	32760	32660	
1912	0	32792	32788	
1913	0	32836	32800	
1914	0	32800	32716	
1915	0	32800	32786	
1916	0	32784	32760	
1917	0	32700	32750	
1918	0	32864	32734	
1919	0	32800	32838	
1920	0	32826	32738	
1921	0	32834	32808	
1922	0	32824	32782	
1923	0	32860	32743	
1924	0	32832	32782	
1925	0	32828	32832	
1926	0	32812	32844	
1927	0	32784	32688	
1928	0	32844	32756	
1929	0	32770	32822	
1930	0	32854	32770	
1931	0	32832	32802	
1932	0	32885	32727	
1933	0	32828	32820	
1934	0	32753	32690	
1935	0	32750	32851	
1936	0	32808	32832	
1937	0	32836	32802	
1938	0	32820	32748	
1939	0	32752	32852	
1940	0	32816	32802	
1941	0	32760	32796	
1942	0	32800	32792	
1943	0	32738	32903	
1944	0	32888	32743	
1945	0	32932	32798	
1946	0	32860	32646	
1947	0	32784	32752	
1948	0	32894	32838	
1949	0	32794	32838	
1950	0	32808	32818	
1951	0	32712	32766	
1952	0	32832	32759	
1953	0	32724	32800	
1954	0	32800	32852	
1955	0	32792	32724	
1956	0	32796	32764	
1957	0	32924	32730	
1958	0	32972	32751	
1959	0	32804	32718	
1960	0	32784	32822	
1961	0	32820	32802	
1962	0	32876	32760	
1963	0	32900	32714	
1964	0	32896	32794	
1965	0	32894	32800	
1966	0	32892	32720	
1967	0	32764	32764	
1968	0	32852	32860	
1969	0	32762	32860	
1970	0	32744	32804	
1971	0	32780	32913	
1972	0	32738	32751	
1973	0	32740	32775	
1974	0	32790	32750	
1975	0	32724	32775	
1976	0	32670	32686	
1977	0	32650	32664	
1978	0	32756	32592	
1979	0	32826	32806	
1980	0	32820	32716	
1981	0	32895	32647	
1982	0	32872	32746	
1983	0	32844	32852	
1984	0	32968	32775	
1985	0	32944	32655	
1986	0	32872	32688	
1987	0	32904	32694	
1988	0	32808	32760	
1989	0	32778	32676	
1990	0	32826	32696	
1991	0	32884	32759	
1992	0	32756	32594	
1993	0	32760	32796	
1994	0	32768	32775	
1995	0	32796	32752	
1996	0	32722	32804	
1997	0	32768	32798	
1998	0	32798	32702	
1999	0	32816	32821	
2000	0	32860	32775	
2001	0	32774	32720	
2002	0	32836	32848	
2003	0	32817	32834	
2004	0	32712	32769	
2005	0	32804	32832	
2006	0	32764	32732	
2007	0	32808	32862	
2008	0	32708	32802	
2009	0	32716	32775	
2010	0	32924	32839	
2011	0	32934	32926	
2012	0	32810	32884	
2013	0	32832	32708	
2014	0	32812	32786	
2015	0	32744	32775	
2016	0	32786	32696	
2017	0	32772	32852	
2018	0	32764	32742	
2019	0	32804	32770	
2020	0	32656	32870	
2021	0	32748	32852	
2022	0	32836	32860	
2023	0	32804	32976	
2024	0	32938	32964	
2025	0	32986	32775	
2026	0	33030	32764	
2027	0	32926	32799	
2028	0	32808	32690	
2029	0	32804	32668	
2030	0	32800	32580	
2031	0	32832	32583	
2032	0	32644	32602	
2033	0	32728	32551	
2034	0	32618	32566	
2035	0	32654	32708	
2036	0	32878	32816	
2037	0	32896	32647	
2038	0	32744	32662	
2039	0	32854	32772	
2040	0	32798	32639	
2041	0	32842	32678	
2042	0	33008	32612	
2043	0	32960	32722	
2044	0	32940	32658	
2045	0	32938	32804	
2046	0	32928	32810	
2047	0	32976	32914	
2048	0	32880	32768	
2049	0	32688	33000	
2050	0	32724	32896	
2051	0	32754	32858	
2052	0	32796	32900	
2053	0	32824	33046	
2054	0	32876	33024	
2055	0	32702	33095	
2056	0	32802	32938	
2057	0	32792	32854	
2058	0	32782	32671	
2059	0	32852	32536	
2060	0	32670	32647	
2061	0	32692	32718	
2062	0	32772	32638	
2063	0	32919	32696	
2064	0	32968	32802	
2065	0	32820	32679	
2066	0	32806	32734	
2067	0	32804	32684	
2068	0	32836	32602	
2069	0	32808	32688	
2070	0	32840	32692	
2071	0	32970	32450	
2072	0	32762	32583	
2073	0	32836	32576	
2074	0	32854	32482	
2075	0	32828	32712	
2076	0	32744	32742	
2077	0	32686	32738	
2078	0	32650	32854	
2079	0	32792	32793	
2080	0	32844	32815	
2081	0	32756	32775	
2082	0	32848	32810	
2083	0	32872	33082	
2084	0	32796	33018	
2085	0	32852	33168	
2086	0	32780	33287	
2087	0	32802	33100	
2088	0	32914	32886	
2089	0	32976	32836	
2090	0	32732	32615	
2091	0	32872	32678	
2092	0	32898	32560	
2093	0	32688	32636	
2094	0	32754	32704	
2095	0	32868	32742	
2096	0	32750	32732	
2097	0	32824	32948	
2098	0	32750	32972	
2099	0	32740	32932	
2100	0	32714	32787	
2101	0	32810	32632	
2102	0	32858	32610	
2103	0	32864	32698	
2104	0	32884	32427	
2105	0	32892	32555	
2106	0	32872	32604	
2107	0	32832	32519	
2108	0	32820	32650	
2109	0	32812	32909	
2110	0	32820	32926	
2111	0	32826	32887	
2112	0	32848	32878	
2113	0	32876	32796	
2114	0	32852	32798	
2115	0	32786	32718	
2116	0	32820	32766	
2117	0	32806	32591	
2118	0	32924	32534	
2119	0	32792	32774	
2120	0	32808	32884	
2121	0	32820	32708	
2122	0	32784	32914	
2123	0	32712	32880	
2124	0	32864	32703	
2125	0	32740	32743	
2126	0	32672	32735	
2127	0	32672	32852	
2128	0	32772	32806	
2129	0	32736	32944	
2130	0	32808	32972	
2131	0	32932	32839	
2132	0	33012	32956	
2133	0	33118	32749	
2134	0	33020	32836	
2135	0	32852	32644	
2136	0	32798	32840	
2137	0	32768	32866	
2138	0	32752	32916	
2139	0	32760	33031	
2140	0	32752	32894	
2141	0	32740	32774	
2142	0	32824	32724	
2143	0	32852	32752	
2144	0	32824	32740	
2145	0	32786	32666	
2146	0	32800	32746	
2147	0	32814	32727	
2148	0	32816	32702	
2149	0	32802	32743	
2150	0	32784	32748	
2151	0	32828	32775	
2152	0	32808	32687	
2153	0	32738	32742	
2154	0	32764	32673	
2155	0	32732	32636	
2156	0	32874	32814	
2157	0	32808	32656	
2158	0	32810	32666	
2159	0	32628	32694	
2160	0	32624	32757	
2161	0	32976	32788	
2162	0	32912	32814	
2163	0	32868	32824	
2164	0	32872	32644	
2165	0	32756	32636	
2166	0	32704	32708	
2167	0	32820	32625	
2168	0	32848	32775	
2169	0	32810	32710	
2170	0	32810	32908	
2171	0	33010	32935	
2172	0	33044	32935	
2173	0	32922	32866	
2174	0	32808	32934	
2175	0	32848	32932	
2176	0	32780	32826	
2177	0	32870	32760	
2178	0	32788	32718	
2179	0	32786	32590	
2180	0	32704	32476	
2181	0	32756	32558	
2182	0	32840	32647	
2183	0	32742	32660	
2184	0	32740	32752	
2185	0	32742	32676	
2186	0	32714	32868	
2187	0	32724	33026	
2188	0	32744	32836	
2189	0	32770	32847	
2190	0	32816	32892	
2191	0	32792	32915	
2192	0	32922	32820	
2193	0	32944	32888	
2194	0	32882	32902	
2195	0	32832	32926	
2196	0	32756	32724	
2197	0	32792	32864	
2198	0	32858	32884	
2199	0	32768	32926	
2200	0	32924	32784	
2201	0	32900	32750	
2202	0	32944	32644	
2203	0	32748	32580	
2204	0	32810	32564	
2205	0	32734	32688	
2206	0	32672	32512	
2207	0	32750	32580	
2208	0	32748	32583	
2209	0	32744	32526	
2210	0	32764	32758	
2211	0	32888	32828	
2212	0	32798	32828	
2213	0	32900	32790	
2214	0	32838	32850	
2215	0	32900	32946	
2216	0	32880	33007	
2217	0	32880	32770	
2218	0	32780	32878	
2219	0	32848	32836	
2220	0	32814	32746	
2221	0	32792	32566	
2222	0	32640	32816	
2223	0	32820	32990	
2224	0	32810	33090	
2225	0	32788	32922	
2226	0	32752	32903	
2227	0	32868	32896	
2228	0	32956	32914	
2229	0	32860	32782	
2230	0	32760	32614	
2231	0	32802	32484	
2232	0	32880	32488	
2233	0	32836	32567	
2234	0	32880	32679	
2235	0	32848	32710	
2236	0	32672	32656	
2237	0	32782	32582	
2238	0	32704	32658	
2239	0	32792	32724	
2240	0	32838	32560	
2241	0	32782	32736	
2242	0	32860	32832	
2243	0	32888	32832	
2244	0	32780	32870	
2245	0	32788	32936	
2246	0	32863	32846	
2247	0	33080	32832	
2248	0	32884	33046	
2249	0	32768	32950	
2250	0	32674	32986	
2251	0	32640	32775	
2252	0	32692	32712	
2253	0	32800	32722	
2254	0	32768	32684	
2255	0	32792	32938	
2256	0	32832	32864	
2257	0	32792	32898	
2258	0	32840	32950	
2259	0	32914	32812	
2260	0	32892	32790	
2261	0	32928	32657	
2262	0	33006	32636	
2263	0	32880	32584	
2264	0	32876	32628	
2265	0	32826	32388	
2266	0	32656	32622	
2267	0	32592	32732	
2268	0	32672	32822	
2269	0	32718	32751	
2270	0	32794	32748	
2271	0	32958	32678	
2272	0	32874	32622	
2273	0	32866	32646	
2274	0	32760	32551	
2275	0	32656	32790	
2276	0	32764	32948	
2277	0	32768	33114	
2278	0	32896	33026	
2279	0	32834	32994	
2280	0	32862	32818	
2281	0	32798	32871	
2282	0	32884	32775	
2283	0	32928	32792	
2284	0	32970	32696	
2285	0	32976	32966	
2286	0	32852	32784	
2287	0	32688	32898	
2288	0	32816	32853	
2289	0	32818	32678	
2290	0	32800	32625	
2291	0	32806	32594	
2292	0	32762	32530	
2293	0	32800	32616	
2294	0	32862	32596	
2295	0	32824	32740	
2296	0	32740	32711	
2297	0	32730	32818	
2298	0	32780	32692	
2299	0	32822	32726	
2300	0	32824	32736	
2301	0	32772	32830	
2302	0	32708	32728	
2303	0	32664	32864	
2304	0	32784	32878	
2305	0	32742	32908	
2306	0	32880	32760	
2307	0	32808	32820	
2308	0	32816	32898	
2309	0	32894	32968	
2310	0	32916	32950	
2311	0	32940	33002	
2312	0	32848	32893	
2313	0	32836	32900	
2314	0	32800	32775	
2315	0	32860	32720	
2316	0	32814	32762	
2317	0	32872	32671	
2318	0	32864	32775	
2319	0	32864	32610	
2320	0	32908	32636	
2321	0	32762	32668	
2322	0	32736	32732	
2323	0	32792	32895	
2324	0	32820	32944	
2325	0	32580	32881	
2326	0	32568	33054	
2327	0	32688	33060	
2328	0	32900	32860	
2329	0	32968	32642	
2330	0	32800	32452	
2331	0	32748	32654	
2332	0	33000	32436	
2333	0	32962	32434	
2334	0	32784	32552	
2335	0	32981	32487	
2336	0	32792	32533	
2337	0	32558	32714	
2338	0	32992	32636	
2339	0	32972	32775	
2340	0	32816	32798	
2341	0	32808	32918	
2342	0	32820	32748	
2343	0	32640	32684	
2344	0	32602	32646	
2345	0	32736	32832	
2346	0	33100	32820	
2347	0	33036	32702	
2348	0	32712	32687	
2349	0	32716	32676	
2350	0	32736	32566	
2351	0	32844	32861	
2352	0	32938	32807	
2353	0	32880	33000	
2354	0	32800	33031	
2355	0	32886	33008	
2356	0	32868	33072	
2357	0	32706	33012	
2358	0	32648	32997	
2359	0	32318	32834	
2360	0	32776	32722	
2361	0	33052	32924	
2362	0	32706	32740	
2363	0	32808	32766	
2364	0	32808	32702	
2365	0	32782	32602	
2366	0	32730	32714	
2367	0	32668	32636	
2368	0	32678	32714	
2369	0	32742	32510	
2370	0	32900	32454	
2371	0	32879	32748	
2372	0	32884	32738	
2373	0	33164	32664	
2374	0	33072	32772	
2375	0	32896	32970	
2376	0	32804	33076	
2377	0	32840	32924	
2378	0	32798	32992	
2379	0	32796	32928	
2380	0	32832	33116	
2381	0	32980	33004	
2382	0	32938	32903	
2383	0	32764	32720	
2384	0	32864	32764	
2385	0	32740	32554	
2386	0	32688	32406	
2387	0	32724	32500	
2388	0	32828	32644	
2389	0	32856	32454	
2390	0	32848	32654	
2391	0	32788	32500	
2392	0	32676	32516	
2393	0	32692	32834	
2394	0	32680	32718	
2395	0	32804	32750	
2396	0	32860	32841	
2397	0	32792	32768	
2398	0	32880	32903	
2399	0	32924	32775	
2400	0	33044	32991	
2401	0	32956	32931	
2402	0	32844	32971	
2403	0	32680	32910	
2404	0	32650	33024	
2405	0	32456	32884	
2406	0	32408	33054	
2407	0	32756	32980	
2408	0	32836	32854	
2409	0	32928	32862	
2410	0	32968	32652	
2411	0	32906	32552	
2412	0	33168	32622	
2413	0	32932	32340	
2414	0	32632	32444	
2415	0	32804	32528	
2416	0	32810	32679	
2417	0	32920	32711	
2418	0	32914	32896	
2419	0	32780	32775	
2420	0	32628	32820	
2421	0	32634	32812	
2422	0	32682	33136	
2423	0	32728	33182	
2424	0	32992	33020	
2425	0	32800	32894	
2426	0	32676	32888	
2427	0	32944	32988	
2428	0	32804	32824	
2429	0	32548	32689	
2430	0	32584	32545	
2431	0	32836	32775	
2432	0	33000	32996	
2433	0	32820	32705	
2434	0	32680	32933	
2435	0	32236	33031	
2436	0	32612	32770	
2437	0	32680	32484	
2438	0	33270	32490	
2439	0	33072	32434	
2440	0	33380	32248	
2441	0	33328	32142	
2442	0	32594	31890	
2443	0	32324	32135	
2444	0	32321	32288	
2445	0	32112	32502	
2446	0	32242	32622	
2447	0	32764	32514	
2448	0	33012	32728	
2449	0	32978	32740	
2450	0	33156	32816	
2451	0	33276	33174	
2452	0	33204	33314	
2453	0	33420	33238	
2454	0	33726	33128	
2455	0	33536	33154	
2456	0	33334	33146	
2457	0	33164	33398	
2458	0	32816	33122	
2459	0	32356	33092	
2460	0	32488	32692	
2461	0	32356	32760	
2462	0	32416	32642	
2463	0	32892	32828	
2464	0	32964	32775	
2465	0	32632	32660	
2466	0	32760	32712	
2467	0	32814	32654	
2468	0	32688	32775	
2469	0	32608	32999	
2470	0	32388	33060	
2471	0	32560	33180	
2472	0	32808	33073	
2473	0	32936	32852	
2474	0	32984	32512	
2475	0	33036	32214	
2476	0	33108	32358	
2477	0	33172	32453	
2478	0	32812	32354	
2479	0	32408	32352	
2480	0	32058	32216	
2481	0	32192	32446	
2482	0	32748	32537	
2483	0	32952	32772	
2484	0	32320	32732	
2485	0	32688	32816	
2486	0	32132	32993	
2487	0	32164	33070	
2488	0	32850	32839	
2489	0	32912	32834	
2490	0	32746	33126	
2491	0	32020	32615	
2492	0	32592	32789	
2493	0	33748	33080	
2494	0	33816	33098	
2495	0	33156	32956	
2496	0	32500	32734	
2497	0	33078	32720	
2498	0	32922	32580	
2499	0	33892	32420	
2500	0	34448	32464	
2501	0	33326	33163	
2502	0	32972	33546	
2503	0	33072	33846	
2504	0	33448	33786	
2505	0	33406	33905	
2506	0	30708	33590	
2507	0	31164	33332	
2508	0	30772	32596	
2509	0	32234	32000	
2510	0	33720	31332	
2511	0	33024	31502	
2512	0	33676	31585	
2513	0	33876	31564	
2514	0	33692	31864	
2515	0	33574	32068	
2516	0	33086	31780	
2517	0	32096	32234	
2518	0	32208	32599	
2519	0	32688	33095	
2520	0	33012	33098	
2521	0	33004	33287	
2522	0	32968	33080	
2523	0	32632	33124	
2524	0	32500	32636	
2525	0	32324	32660	
2526	0	32300	32674	
2527	0	32392	32712	
2528	0	32506	32516	
2529	0	32636	32478	
2530	0	32848	32602	
2531	0	32912	32600	
2532	0	32756	32984	
2533	0	32792	32775	
2534	0	33130	32738	
2535	0	32834	32572	
2536	0	32508	32903	
2537	0	32620	32775	
2538	0	32618	32792	
2539	0	32552	32886	
2540	0	32516	32934	
2541	0	32538	32903	
2542	0	32918	33153	
2543	0	33340	33154	
2544	0	33000	33394	
2545	0	32348	33372	
2546	0	32496	33216	
2547	0	33128	33282	
2548	0	33368	33162	
2549	0	33420	33030	
2550	0	33324	33000	
2551	0	33564	32810	
2552	0	33472	32738	
2553	0	33326	33023	
2554	0	32760	33060	
2555	0	32296	32942	
2556	0	32108	32762	
2557	0	32140	32887	
2558	0	32248	32624	
2559	0	32276	32007	
2560	0	32396	31972	
2561	0	32462	32038	
2562	0	32860	32016	
2563	0	33524	32036	
2564	0	33032	32218	
2565	0	33364	32574	
2566	0	33356	33152	
2567	0	33372	33210	
2568	0	33042	33670	
2569	0	32436	33866	
2570	0	32804	34053	
2571	0	32572	33246	
2572	0	32352	32550	
2573	0	32202	32436	
2574	0	32488	31930	
2575	0	32880	32074	
2576	0	32540	32252	
2577	0	32046	32580	
2578	0	32462	32702	
2579	0	32976	32676	
2580	0	32856	32678	
2581	0	33244	32308	
2582	0	33228	32986	
2583	0	33354	33189	
2584	0	33096	32948	
2585	0	32672	32746	
2586	0	32250	32732	
2587	0	33518	32764	
2588	0	32906	33060	
2589	0	32604	33346	
2590	0	32512	33668	
2591	0	32260	33522	
2592	0	32424	33748	
2593	0	33042	33006	
2594	0	32506	32672	
2595	0	31896	32704	
2596	0	32388	32548	
2597	0	34322	32647	
2598	0	33730	32496	
2599	0	33600	32142	
2600	0	33314	31674	
2601	0	33084	31656	
2602	0	32868	31588	
2603	0	32340	32212	
2604	0	33016	32446	
2605	0	32842	32686	
2606	0	32884	32656	
2607	0	32764	32974	
2608	0	32344	33076	
2609	0	32944	32982	
2610	0	32394	32596	
2611	0	32228	32524	
2612	0	31904	32492	
2613	0	31568	32378	
2614	0	31528	32576	
2615	0	33048	33228	
2616	0	32992	33344	
2617	0	33324	33568	
2618	0	33776	33340	
2619	0	33538	33652	
2620	0	33586	33328	
2621	0	33134	32972	
2622	0	32806	32766	
2623	0	32702	32580	
2624	0	32436	32436	
2625	0	32858	32278	
2626	0	32600	32900	
2627	0	31460	32668	
2628	0	32964	32630	
2629	0	33100	32494	
2630	0	32988	32580	
2631	0	32776	32660	
2632	0	32356	32708	
2633	0	33416	32922	
2634	0	33616	32980	
2635	0	32920	32836	
2636	0	33040	32870	
2637	0	33296	32436	
2638	0	33174	32464	
2639	0	32840	32410	
2640	0	32456	32478	
2641	0	32448	32251	
2642	0	32704	32246	
2643	0	32730	32598	
2644	0	32612	32822	
2645	0	32474	32854	
2646	0	32536	33249	
2647	0	32736	33202	
2648	0	32660	32956	
2649	0	32784	32855	
2650	0	32868	32775	
2651	0	32788	32660	
2652	0	33156	32624	
2653	0	33104	32724	
2654	0	32758	32826	
2655	0	32676	33287	
2656	0	32556	33393	
2657	0	32522	33479	
2658	0	32716	33550	
2659	0	32736	32854	
2660	0	33052	32724	
2661	0	33162	32908	
2662	0	32938	32810	
2663	0	32938	33082	
2664	0	31894	32775	
2665	0	32976	32494	
2666	0	33040	32352	
2667	0	32576	32534	
2668	0	32556	32416	
2669	0	33136	32220	
2670	0	33116	32732	
2671	0	32644	32970	
2672	0	32832	33566	
2673	0	33140	33378	
2674	0	33160	33079	
2675	0	33096	32487	
2676	0	33044	32202	
2677	0	32943	32542	
2678	0	32716	32580	
2679	0	32228	32732	
2680	0	32770	32678	
2681	0	32574	32771	
2682	0	32646	33010	
2683	0	32956	32998	
2684	0	32696	32839	
2685	0	32648	32862	
2686	0	33094	32836	
2687	0	33218	32318	
2688	0	32954	32468	
2689	0	32608	32128	
2690	0	32410	31998	
2691	0	32602	32030	
2692	0	33390	32130	
2693	0	32618	32100	
2694	0	32918	32182	
2695	0	33412	32615	
2696	0	32748	32735	
2697	0	32432	33018	
2698	0	32464	33212	
2699	0	32632	33452	
2700	0	32736	33760	
2701	0	33008	33996	
2702	0	32816	33927	
2703	0	32624	33982	
2704	0	32580	33822	
2705	0	32794	33334	
2706	0	32728	32924	
2707	0	33028	32344	
2708	0	33268	31908	
2709	0	32464	31912	
2710	0	32872	31940	
2711	0	33316	32340	
2712	0	33184	32464	
2713	0	32836	32900	
2714	0	32892	32914	
2715	0	32806	32584	
2716	0	32764	32508	
2717	0	32728	32340	
2718	0	32668	31644	
2719	0	32728	32058	
2720	0	32708	32690	
2721	0	32560	32884	
2722	0	32654	33159	
2723	0	32614	33276	
2724	0	32546	33082	
2725	0	33000	33408	
2726	0	32864	33095	
2727	0	32496	32550	
2728	0	32644	32074	
2729	0	32938	32258	
2730	0	33208	32828	
2731	0	33072	33176	
2732	0	32980	33634	
2733	0	32589	33820	
2734	0	32668	33596	
2735	0	32880	33671	
2736	0	32848	33206	
2737	0	32593	33304	
2738	0	32176	33204	
2739	0	32946	31916	
2740	0	32824	31778	
2741	0	32764	31918	
2742	0	33084	31950	
2743	0	33286	31922	
2744	0	32728	32276	
2745	0	33266	32359	
2746	0	33010	32614	
2747	0	32174	32226	
2748	0	32140	32416	
2749	0	32324	32490	
2750	0	32516	32670	
2751	0	32916	32452	
2752	0	34280	32804	
2753	0	33388	32996	
2754	0	32600	33106	
2755	0	32844	32919	
2756	0	32728	32674	
2757	0	32584	32724	
2758	0	32814	33390	
2759	0	32648	33472	
2760	0	31874	33528	
2761	0	32920	33338	
2762	0	33482	33576	
2763	0	32932	33568	
2764	0	31876	33364	
2765	0	32220	33280	
2766	0	32668	33064	
2767	0	33332	32380	
2768	0	33364	31790	
2769	0	32392	32620	
2770	0	32748	33076	
2771	0	33318	33166	
2772	0	33012	32839	
2773	0	32942	32428	
2774	0	32984	32381	
2775	0	32772	32055	
2776	0	32804	31942	
2777	0	32816	32014	
2778	0	32824	31714	
2779	0	32624	31950	
2780	0	32616	32020	
2781	0	32704	32390	
2782	0	32812	32448	
2783	0	32892	32838	
2784	0	32848	32997	
2785	0	33000	32982	
2786	0	32576	32988	
2787	0	32072	33222	
2788	0	32356	33116	
2789	0	33504	33046	
2790	0	33264	32885	
2791	0	32384	33172	
2792	0	32220	33212	
2793	0	32716	33264	
2794	0	32500	33212	
2795	0	32416	32633	
2796	0	33360	32676	
2797	0	33744	33116	
2798	0	33072	32610	
2799	0	33476	32754	
2800	0	33458	32840	
2801	0	32644	32640	
2802	0	32157	32918	
2803	0	33264	33108	
2804	0	32472	33016	
2805	0	32424	33116	
2806	0	32452	32846	
2807	0	32724	32624	
2808	0	32775	32580	
2809	0	32772	32280	
2810	0	33073	32328	
2811	0	33264	32775	
2812	0	32168	33040	
2813	0	32104	33006	
2814	0	32880	32961	
2815	0	32836	32896	
2816	0	32462	32554	
2817	0	33914	32513	
2818	0	33352	33136	
2819	0	32552	33102	
2820	0	32428	32916	
2821	0	32572	32532	
2822	0	32534	32038	
2823	0	33284	32216	
2824	0	33272	32836	
2825	0	32188	32734	
2826	0	31860	32576	
2827	0	32540	32628	
2828	0	33508	32566	
2829	0	33422	32451	
2830	0	33518	32727	
2831	0	32704	32300	
2832	0	32262	32320	
2833	0	32322	32416	
2834	0	33338	32462	
2835	0	33248	32446	
2836	0	34628	32712	
2837	0	32324	32772	
2838	0	31880	33482	
2839	0	32404	33734	
2840	0	32720	33516	
2841	0	32904	32820	
2842	0	33036	32678	
2843	0	32812	33144	
2844	0	32101	33226	
2845	0	31228	32974	
2846	0	33088	33230	
2847	0	33076	33427	
2848	0	32036	33068	
2849	0	33756	32519	
2850	0	34436	32129	
2851	0	32910	32042	
2852	0	32070	32048	
2853	0	32548	32204	
2854	0	32660	32513	
2855	0	32792	32676	
2856	0	33072	32878	
2857	0	32706	33144	
2858	0	33024	32972	
2859	0	32832	32766	
2860	0	32664	32502	
2861	0	32616	32186	
2862	0	32584	32310	
2863	0	33784	32512	
2864	0	33654	32398	
2865	0	32356	32398	
2866	0	32248	32816	
2867	0	32454	33190	
2868	0	31808	32940	
2869	0	32604	32880	
2870	0	34040	33024	
2871	0	33218	33415	
2872	0	33602	33478	
2873	0	33436	33276	
2874	0	32186	32740	
2875	0	31956	32988	
2876	0	32490	32651	
2877	0	32596	32390	
2878	0	32844	31932	
2879	0	32804	32026	
2880	0	32776	32180	
2881	0	32852	32146	
2882	0	32972	32556	
2883	0	32880	32658	
2884	0	32648	32870	
2885	0	32552	32804	
2886	0	32636	32806	
2887	0	32820	32756	
2888	0	32904	32854	
2889	0	33056	33014	
2890	0	32952	32902	
2891	0	32744	32990	
2892	0	32824	33088	
2893	0	32826	32959	
2894	0	32676	33052	
2895	0	32622	33152	
2896	0	33124	33338	
2897	0	33214	32884	
2898	0	33104	33079	
2899	0	32902	32974	
2900	0	32836	33820	
2901	0	32644	34390	
2902	0	32320	33887	
2903	0	32246	33060	
2904	0	33074	32711	
2905	0	33444	32472	
2906	0	32956	32004	
2907	0	33324	32100	
2908	0	32826	31740	
2909	0	32404	31452	
2910	0	31988	31372	
2911	0	33096	31324	
2912	0	32532	31567	
2913	0	32308	32012	
2914	0	32496	32303	
2915	0	32640	32646	
2916	0	32624	33045	
2917	0	32512	33506	
2918	0	33128	33562	
2919	0	33828	33956	
2920	0	33282	33751	
2921	0	33094	33468	
2922	0	32522	33168	
2923	0	31468	33162	
2924	0	32692	32976	
2925	0	33096	32748	
2926	0	32908	32704	
2927	0	33406	32560	
2928	0	32644	32875	
2929	0	33368	32631	
2930	0	33140	32308	
2931	0	32976	32486	
2932	0	32160	31956	
2933	0	32192	31728	
2934	0	32896	31705	
2935	0	32934	32223	
2936	0	32608	32416	
2937	0	32708	32652	
2938	0	32238	32527	
2939	0	32944	32774	
2940	0	32744	32726	
2941	0	33448	32484	
2942	0	33956	32903	
2943	0	33116	33146	
2944	0	32540	33127	
2945	0	32192	33374	
2946	0	31978	33652	
2947	0	32468	33716	
2948	0	33540	33908	
2949	0	33132	33992	
2950	0	32680	33620	
2951	0	32260	32988	
2952	0	33328	32626	
2953	0	33144	32602	
2954	0	32916	32338	
2955	0	31612	32093	
2956	0	32328	32070	
2957	0	33472	32327	
2958	0	33080	32711	
2959	0	32788	32972	
2960	0	31788	32602	
2961	0	32534	32578	
2962	0	32994	31992	
2963	0	32800	31318	
2964	0	34252	32098	
2965	0	33936	32504	
2966	0	32804	32800	
2967	0	31908	33148	
2968	0	32300	33498	
2969	0	32034	33168	
2970	0	31956	32887	
2971	0	32800	32548	
2972	0	33382	32182	
2973	0	32224	32084	
2974	0	34212	31978	
2975	0	33868	32318	
2976	0	33580	32551	
2977	0	33640	32698	
2978	0	33194	32900	
2979	0	32864	32986	
2980	0	32821	32997	
2981	0	32812	33287	
2982	0	32554	33424	
2983	0	32360	33525	
2984	0	31960	33588	
2985	0	33058	33616	
2986	0	33068	34212	
2987	0	32200	34135	
2988	0	31984	33623	
2989	0	32110	33340	
2990	0	32984	32763	
2991	0	32892	33415	
2992	0	34116	33166	
2993	0	33796	32414	
2994	0	33112	31804	
2995	0	31408	31368	
2996	0	31484	31268	
2997	0	32754	31518	
2998	0	32281	31396	
2999	0	31932	31118	
3000	0	32658	31779	
3001	0	32864	32304	
3002	0	33232	32647	
3003	0	33322	32657	
3004	0	33264	33031	
3005	0	33100	32840	
3006	0	33080	33068	
3007	0	32944	33511	
3008	0	32740	33287	
3009	0	32586	33190	
3010	0	32504	32894	
3011	0	32836	32806	
3012	0	32996	32760	
3013	0	33316	32456	
3014	0	32928	32450	
3015	0	33440	34086	
3016	0	33674	34422	
3017	0	32884	32834	
3018	0	32204	32708	
3019	0	31504	33132	
3020	0	32532	34066	
3021	0	33380	34950	
3022	0	32876	34902	
3023	0	31950	35057	
3024	0	32704	33308	
3025	0	33168	32000	
3026	0	33748	31322	
3027	0	33620	30640	
3028	0	32746	30084	
3029	0	32856	30414	
3030	0	32586	30542	
3031	0	32452	30695	
3032	0	31652	31008	
3033	0	32008	31143	
3034	0	33124	31376	
3035	0	32818	31820	
3036	0	33900	32132	
3037	0	33872	32610	
3038	0	32968	32926	
3039	0	32656	33186	
3040	0	32344	33614	
3041	0	32096	33684	
3042	0	32476	33734	
3043	0	32430	33684	
3044	0	32010	33447	
3045	0	32417	33772	
3046	0	32748	33622	
3047	0	32676	33466	
3048	0	32848	33223	
3049	0	33364	33138	
3050	0	33884	33304	
3051	0	33736	33312	
3052	0	33570	33274	
3053	0	33166	33047	
3054	0	32524	32874	
3055	0	31504	32872	
3056	0	31305	33030	
3057	0	33186	33082	
3058	0	33260	33070	
3059	0	33714	32964	
3060	0	33076	32848	
3061	0	33020	32833	
3062	0	32758	33078	
3063	0	33016	32287	
3064	0	32870	31846	
3065	0	33052	32304	
3066	0	32852	32768	
3067	0	32620	33152	
3068	0	32742	33044	
3069	0	33082	33160	
3070	0	32250	33152	
3071	0	32176	32652	
3072	0	32308	32380	
3073	0	32516	32268	
3074	0	32628	32180	
3075	0	32482	32274	
3076	0	33078	32334	
3077	0	33612	32432	
3078	0	33484	32537	
3079	0	33316	33024	
3080	0	32852	33112	
3081	0	32508	33064	
3082	0	32384	33200	
3083	0	32428	32886	
3084	0	32644	32588	
3085	0	32856	32494	
3086	0	33621	32704	
3087	0	33144	33660	
3088	0	32576	33812	
3089	0	32992	33486	
3090	0	33004	33536	
3091	0	32428	32772	
3092	0	32668	32100	
3093	0	32900	31898	
3094	0	32900	32111	
3095	0	32568	32448	
3096	0	33538	32562	
3097	0	32364	32960	
3098	0	33468	32594	
3099	0	33080	32385	
3100	0	32844	32246	
3101	0	32640	32212	
3102	0	32680	32254	
3103	0	32692	32196	
3104	0	32540	32032	
3105	0	32768	32508	
3106	0	32384	32694	
3107	0	32986	32603	
3108	0	32482	32810	
3109	0	32662	33172	
3110	0	33320	33274	
3111	0	33190	33466	
3112	0	32692	33328	
3113	0	31940	33350	
3114	0	31844	33543	
3115	0	32928	33862	
3116	0	33008	33448	
3117	0	32560	33170	
3118	0	32716	33014	
3119	0	33724	32416	
3120	0	33622	32100	
3121	0	33380	32134	
3122	0	32928	32094	
3123	0	33076	32216	
3124	0	32776	32160	
3125	0	32400	32458	
3126	0	33104	32420	
3127	0	31720	32458	
3128	0	32246	32728	
3129	0	33332	32366	
3130	0	32238	32444	
3131	0	33166	32868	
3132	0	33128	32832	
3133	0	32758	33130	
3134	0	32228	33112	
3135	0	32638	33610	
3136	0	33128	34360	
3137	0	33504	34256	
3138	0	33492	34036	
3139	0	32320	34036	
3140	0	32880	33497	
3141	0	32916	32564	
3142	0	32106	31553	
3143	0	32352	31132	
3144	0	32306	31125	
3145	0	32422	31166	
3146	0	32900	31552	
3147	0	33412	31794	
3148	0	33152	32088	
3149	0	33102	32212	
3150	0	33260	32486	
3151	0	33166	32556	
3152	0	32888	32793	
3153	0	32168	32938	
3154	0	32472	32974	
3155	0	32732	33159	
3156	0	32522	33525	
3157	0	32120	33644	
3158	0	32928	33562	
3159	0	33325	33519	
3160	0	33956	33566	
3161	0	33206	33378	
3162	0	32852	32772	
3163	0	32716	32687	
3164	0	32420	32660	
3165	0	32540	32756	
3166	0	32736	32852	
3167	0	33296	33040	
3168	0	32352	32896	
3169	0	33054	32692	
3170	0	33584	32948	
3171	0	32204	32784	
3172	0	32721	32671	
3173	0	32524	32642	
3174	0	32300	32922	
3175	0	32962	32762	
3176	0	33166	32792	
3177	0	33080	32858	
3178	0	33112	32932	
3179	0	32948	32694	
3180	0	32708	32574	
3181	0	32948	32314	
3182	0	32820	32396	
3183	0	32718	32584	
3184	0	32736	32678	
3185	0	32822	32519	
3186	0	32992	32430	
3187	0	32584	32340	
3188	0	32160	32450	
3189	0	31626	32673	
3190	0	32534	32743	
3191	0	32809	32903	
3192	0	32964	33272	
3193	0	32500	33392	
3194	0	32592	32900	
3195	0	32772	32836	
3196	0	32964	32548	
3197	0	33008	32290	
3198	0	32938	32350	
3199	0	32862	32760	
3200	0	33264	33398	
3201	0	33048	33114	
3202	0	32416	32878	
3203	0	32506	32764	
3204	0	33026	32694	
3205	0	33158	32632	
3206	0	32808	32448	
3207	0	32476	32231	
3208	0	32324	32516	
3209	0	32442	32741	
3210	0	32872	32490	
3211	0	33276	32642	
3212	0	33780	32647	
3213	0	33680	32829	
3214	0	33348	33204	
3215	0	33044	33137	
3216	0	32968	32918	
3217	0	32896	32794	
3218	0	32636	33002	
3219	0	32804	32916	
3220	0	33008	32740	
3221	0	32884	32842	
3222	0	32836	32812	
3223	0	32260	32848	
3224	0	33348	32840	
3225	0	33888	33135	
3226	0	33156	33067	
3227	0	32694	32870	
3228	0	32220	32982	
3229	0	32386	32884	
3230	0	32172	32775	
3231	0	32244	32544	
3232	0	32558	32492	
3233	0	32488	32658	
3234	0	32688	32536	
3235	0	33232	32846	
3236	0	32844	32956	
3237	0	32846	32912	
3238	0	32948	32998	
3239	0	33108	33106	
3240	0	33008	32767	
3241	0	32960	32583	
3242	0	32680	32323	
3243	0	32550	32532	
3244	0	32696	32572	
3245	0	32940	32642	
3246	0	32616	32452	
3247	0	32548	32672	
3248	0	32408	32870	
3249	0	32696	32996	
3250	0	32208	33080	
3251	0	33384	33078	
3252	0	33470	32932	
3253	0	32920	32676	
3254	0	33060	32742	
3255	0	32776	32647	
3256	0	32972	32852	
3257	0	33044	32852	
3258	0	32980	32732	
3259	0	32724	32668	
3260	0	32856	32704	
3261	0	32952	32630	
3262	0	32528	32836	
3263	0	32456	32876	
3264	0	32697	32880	
3265	0	32776	32696	
3266	0	32984	32482	
3267	0	33089	32430	
3268	0	32964	32365	
3269	0	32782	32618	
3270	0	32700	33018	
3271	0	32708	32812	
3272	0	32720	32866	
3273	0	32512	32903	
3274	0	32568	32950	
3275	0	32816	32935	
3276	0	32960	32756	
3277	0	33028	32698	
3278	0	33168	32624	
3279	0	32880	32640	
3280	0	32756	32798	
3281	0	33028	32862	
3282	0	33000	33012	
3283	0	32842	32890	
3284	0	32782	32836	
3285	0	32746	32780	
3286	0	32708	32580	
3287	0	32736	32786	
3288	0	32676	32806	
3289	0	32784	32748	
3290	0	33004	32814	
3291	0	32816	32706	
3292	0	32840	32441	
3293	0	32888	32679	
3294	0	33108	32924	
3295	0	32836	32967	
3296	0	33084	32765	
3297	0	33090	32726	
3298	0	32922	33024	
3299	0	32676	32964	
3300	0	32748	32940	
3301	0	32596	32556	
3302	0	32718	32754	
3303	0	32728	32820	
3304	0	32528	32866	
3305	0	32538	32747	
3306	0	32472	32498	
3307	0	32906	32642	
3308	0	32708	32644	
3309	0	32760	32684	
3310	0	32818	32774	
3311	0	32584	32591	
3312	0	32940	32690	
3313	0	32708	33006	
3314	0	32736	33058	
3315	0	32956	33000	
3316	0	33109	32791	
3317	0	33308	32710	
3318	0	33120	32913	
3319	0	32708	32716	
3320	0	32510	32606	
3321	0	32628	32746	
3322	0	32828	32588	
3323	0	33142	32340	
3324	0	33116	32135	
3325	0	32584	32478	
3326	0	32472	32598	
3327	0	33112	32508	
3328	0	32648	32638	
3329	0	32604	32820	
3330	0	32746	32775	
3331	0	32254	32906	
3332	0	32772	32968	
3333	0	32996	33086	
3334	0	32610	32984	
3335	0	32768	33046	
3336	0	32768	32871	
3337	0	33044	32832	
3338	0	32886	32942	
3339	0	32962	32876	
3340	0	32844	32902	
3341	0	32620	32752	
3342	0	32464	32966	
3343	0	32676	32992	
3344	0	32980	32912	
3345	0	32946	32886	
3346	0	33112	32775	
3347	0	33150	32593	
3348	0	33252	32663	
3349	0	32912	32767	
3350	0	32674	32864	
3351	0	32710	32730	
3352	0	32736	32738	
3353	0	32852	32790	
3354	0	32888	32666	
3355	0	32800	32618	
3356	0	32580	32639	
3357	0	32400	32596	
3358	0	32286	32844	
3359	0	32540	32694	
3360	0	32556	32675	
3361	0	32648	32704	
3362	0	32686	32655	
3363	0	32932	32807	
3364	0	33208	32686	
3365	0	33164	32676	
3366	0	33092	32519	
3367	0	33084	32749	
3368	0	32664	32542	
3369	0	32910	32614	
3370	0	32912	32578	
3371	0	33174	32816	
3372	0	32996	33126	
3373	0	32984	33108	
3374	0	32816	32902	
3375	0	32692	32608	
3376	0	32720	32643	
3377	0	32760	32862	
3378	0	32720	32858	
3379	0	32744	32724	
3380	0	32920	32897	
3381	0	32882	32700	
3382	0	32824	32760	
3383	0	32752	32823	
3384	0	32892	32848	
3385	0	32946	32804	
3386	0	32936	32772	
3387	0	32792	32682	
3388	0	32852	32740	
3389	0	32720	32758	
3390	0	32786	32819	
3391	0	32660	32775	
3392	0	32916	32848	
3393	0	33060	32682	
3394	0	32492	32868	
3395	0	32540	32966	
3396	0	32524	32875	
3397	0	32524	32998	
3398	0	32534	32839	
3399	0	32864	32792	
3400	0	32902	32960	
3401	0	33066	32817	
3402	0	33136	32568	
3403	0	33016	32720	
3404	0	32972	32775	
3405	0	32968	32712	
3406	0	32828	32739	
3407	0	32920	32647	
3408	0	32874	32598	
3409	0	32652	32487	
3410	0	32700	32548	
3411	0	32748	32684	
3412	0	32784	32572	
3413	0	32612	32774	
3414	0	32392	33218	
3415	0	32796	33086	
3416	0	33156	32842	
3417	0	33036	32711	
3418	0	32920	32766	
3419	0	32900	32775	
3420	0	32808	32759	
3421	0	32804	32770	
3422	0	32725	32714	
3423	0	32800	32745	
3424	0	32784	32724	
3425	0	32900	32647	
3426	0	32852	32546	
3427	0	32860	32792	
3428	0	32794	32990	
3429	0	32760	32910	
3430	0	32776	32895	
3431	0	32916	32884	
3432	0	32906	32828	
3433	0	32814	32846	
3434	0	32756	32746	
3435	0	32696	32775	
3436	0	32712	32768	
3437	0	32536	32860	
3438	0	32744	32928	
3439	0	32794	32836	
3440	0	32708	32706	
3441	0	32940	32622	
3442	0	32880	32646	
3443	0	33058	32831	
3444	0	33118	32748	
3445	0	33100	32628	
3446	0	32844	32591	
3447	0	32772	32772	
3448	0	32740	32948	
3449	0	32868	32788	
3450	0	32840	32802	
3451	0	32792	32932	
3452	0	32932	32673	
3453	0	32968	32774	
3454	0	32676	32774	
3455	0	32752	32832	
3456	0	32790	32676	
3457	0	32832	32724	
3458	0	32816	32798	
3459	0	32565	32762	
3460	0	32824	32919	
3461	0	32936	32890	
3462	0	32712	33006	
3463	0	32800	32798	
3464	0	32894	32874	
3465	0	32888	32938	
3466	0	32706	32742	
3467	0	32734	32735	
3468	0	32885	32798	
3469	0	32860	32796	
3470	0	32828	32646	
3471	0	32834	32700	
3472	0	32824	32695	
3473	0	32672	32764	
3474	0	32896	32630	
3475	0	32852	32628	
3476	0	32804	32876	
3477	0	32838	32982	
3478	0	32925	32876	
3479	0	32812	32978	
3480	0	32914	32744	
3481	0	32860	32884	
3482	0	32736	32842	
3483	0	32692	32828	
3484	0	32740	32628	
3485	0	32599	32734	
3486	0	32714	32632	
3487	0	32752	32742	
3488	0	32616	32632	
3489	0	32746	32537	
3490	0	32938	32736	
3491	0	32828	32828	
3492	0	32785	32838	
3493	0	32584	32806	
3494	0	32804	32628	
3495	0	33196	32532	
3496	0	33168	32584	
3497	0	32900	32886	
3498	0	32924	32974	
3499	0	33030	32903	
3500	0	33000	32750	
3501	0	32974	32764	
3502	0	33012	32845	
3503	0	32648	32564	
3504	0	32772	32519	
3505	0	32760	32734	
3506	0	32702	32816	
3507	0	32692	32715	
3508	0	32640	32828	
3509	0	32652	32822	
3510	0	32744	32695	
3511	0	32692	32903	
3512	0	32600	32855	
3513	0	32728	32818	
3514	0	32866	32903	
3515	0	32968	32818	
3516	0	33004	32895	
3517	0	32944	32814	
3518	0	32904	32807	
3519	0	32852	32799	
3520	0	32736	32938	
3521	0	32864	32832	
3522	0	32860	32855	
3523	0	32864	32662	
3524	0	32700	32760	
3525	0	32688	32724	
3526	0	32668	32652	
3527	0	32900	32662	
3528	0	32800	32598	
3529	0	32818	32694	
3530	0	33054	32644	
3531	0	32828	32609	
3532	0	32718	32708	
3533	0	32824	32736	
3534	0	32930	32771	
3535	0	32824	32742	
3536	0	32912	32824	
3537	0	32835	32928	
3538	0	32848	32728	
3539	0	32912	32880	
3540	0	32894	32739	
3541	0	32826	32738	
3542	0	32798	32654	
3543	0	32842	32694	
3544	0	32788	32944	
3545	0	32648	33064	
3546	0	32840	32896	
3547	0	32826	32798	
3548	0	32776	32760	
3549	0	32780	32810	
3550	0	32794	32730	
3551	0	32740	32736	
3552	0	32796	32854	
3553	0	32868	32798	
3554	0	32792	32746	
3555	0	32768	32796	
3556	0	32906	32727	
3557	0	32814	32686	
3558	0	32774	32732	
3559	0	32804	32574	
3560	0	32732	32756	
3561	0	32850	32913	
3562	0	32808	32821	
3563	0	32832	32910	
3564	0	32916	32742	
3565	0	32924	32700	
3566	0	32828	32676	
3567	0	32700	32510	
3568	0	32868	32710	
3569	0	32900	32942	
3570	0	32884	32791	
3571	0	32760	32698	
3572	0	32782	32846	
3573	0	32680	32988	
3574	0	32834	32683	
3575	0	32736	32946	
3576	0	32824	32878	
3577	0	32812	32775	
3578	0	32860	32634	
3579	0	32840	32463	
3580	0	32848	32710	
3581	0	32822	32704	
3582	0	32758	32792	
3583	0	32830	32727	
3584	0	32849	32833	
3585	0	32834	32844	
3586	0	32666	32686	
3587	0	32664	32742	
3588	0	32892	32682	
3589	0	32868	32718	
3590	0	32880	32656	
3591	0	32896	32888	
3592	0	33010	32888	
3593	0	32992	32924	
3594	0	32812	32743	
3595	0	32680	32806	
3596	0	32740	32970	
3597	0	32820	32928	
3598	0	32812	32866	
3599	0	32756	32756	
3600	0	32970	32770	
3601	0	32780	32846	
3602	0	32664	32870	
3603	0	32626	32686	
3604	0	33032	32711	
3605	0	32857	32700	
3606	0	32790	32768	
3607	0	32796	32942	
3608	0	32908	32802	
3609	0	32844	32702	
3610	0	32745	32564	
3611	0	32684	32764	
3612	0	32692	32758	
3613	0	32792	32852	
3614	0	32986	32574	
3615	0	32846	32764	
3616	0	32702	32791	
3617	0	32712	32639	
3618	0	32892	32614	
3619	0	32896	32678	
3620	0	32828	32526	
3621	0	32796	32642	
3622	0	32746	32647	
3623	0	32814	32690	
3624	0	32756	32858	
3625	0	32788	32986	
3626	0	32852	32948	
3627	0	32928	32642	
3628	0	32968	32796	
3629	0	32924	32762	
3630	0	32956	32774	
3631	0	32828	32839	
3632	0	32592	32831	
3633	0	32752	32680	
3634	0	32910	32903	
3635	0	33036	32930	
3636	0	32792	32769	
3637	0	32844	32740	
3638	0	32848	32902	
3639	0	32574	32668	
3640	0	32576	32762	
3641	0	32566	32983	
3642	0	32598	32858	
3643	0	32830	32820	
3644	0	32964	32692	
3645	0	32940	32738	
3646	0	33020	32826	
3647	0	32882	32758	
3648	0	32826	32832	
3649	0	32768	32618	
3650	0	32730	32734	
3651	0	32902	32594	
3652	0	32952	32723	
3653	0	32900	32716	
3654	0	32856	32753	
3655	0	32712	32807	
3656	0	32792	32814	
3657	0	32792	32732	
3658	0	32737	32884	
3659	0	32708	32737	
3660	0	32618	32816	
3661	0	32692	32892	
3662	0	32740	32740	
3663	0	32882	32818	
3664	0	32816	32786	
3665	0	32906	32804	
3666	0	32874	32904	
3667	0	32834	32762	
3668	0	32832	32592	
3669	0	32888	32929	
3670	0	32896	32920	
3671	0	32824	32775	
3672	0	32742	32692	
3673	0	32810	32852	
3674	0	32804	32804	
3675	0	32870	32692	
3676	0	32852	32810	
3677	0	32640	32708	
3678	0	32804	32768	
3679	0	32688	32679	
3680	0	32686	32770	
3681	0	32684	32676	
3682	0	32710	32630	
3683	0	32692	32830	
3684	0	32784	32868	
3685	0	32952	32753	
3686	0	32956	32784	
3687	0	32902	32566	
3688	0	32976	32768	
3689	0	32936	32763	
3690	0	32984	32870	
3691	0	32808	32799	
3692	0	32664	32702	
3693	0	32646	32822	
3694	0	32592	32732	
3695	0	32610	32658	
3696	0	32804	32646	
3697	0	32960	32738	
3698	0	33078	32708	
3699	0	32976	32704	
3700	0	32952	32822	
3701	0	32872	32955	
3702	0	32836	32848	
3703	0	32868	32848	
3704	0	32844	32724	
3705	0	32808	32874	
3706	0	32828	32870	
3707	0	32816	32670	
3708	0	32868	32830	
3709	0	32848	32616	
3710	0	32780	32519	
3711	0	32802	32775	
3712	0	32674	32852	
3713	0	32732	32862	
3714	0	32718	32750	
3715	0	32694	32798	
3716	0	32704	32695	
3717	0	32856	32708	
3718	0	32900	32802	
3719	0	32888	32750	
3720	0	32802	32766	
3721	0	32748	32810	
3722	0	32776	32756	
3723	0	32812	32848	
3724	0	32914	32740	
3725	0	32924	32876	
3726	0	32828	32742	
3727	0	32844	32702	
3728	0	32754	32932	
3729	0	32814	32798	
3730	0	32788	32752	
3731	0	32768	32812	
3732	0	32838	32847	
3733	0	32942	32918	
3734	0	32810	32620	
3735	0	32820	32682	
3736	0	32784	32568	
3737	0	32740	32482	
3738	0	32802	32564	
3739	0	32872	32714	
3740	0	32800	32656	
3741	0	32876	32816	
3742	0	32741	32885	
3743	0	32688	32962	
3744	0	32870	32838	
3745	0	32868	32665	
3746	0	32766	32775	
3747	0	32814	32871	
3748	0	32890	32900	
3749	0	32946	32618	
3750	0	32836	32647	
3751	0	32804	32871	
3752	0	32860	32819	
3753	0	32792	32903	
3754	0	32828	32664	
3755	0	32784	32766	
3756	0	32776	32706	
3757	0	32712	32769	
3758	0	32732	32823	
3759	0	32828	32574	
3760	0	32748	32724	
3761	0	32756	32756	
3762	0	32744	32772	
3763	0	32778	32819	
3764	0	32792	32860	
3765	0	32688	32836	
3766	0	32720	32728	
3767	0	32854	32932	
3768	0	32940	32886	
3769	0	32896	32676	
3770	0	32804	32804	
3771	0	32782	32734	
3772	0	32856	32614	
3773	0	32884	32834	
3774	0	32874	32790	
3775	0	32896	32668	
3776	0	32838	32498	
3777	0	32724	32664	
3778	0	32732	32884	
3779	0	32826	32720	
3780	0	32872	32946	
3781	0	32800	33022	
3782	0	32804	32751	
3783	0	32768	32784	
3784	0	32860	32599	
3785	0	32828	32680	
3786	0	32878	32700	
3787	0	32780	32804	
3788	0	32724	32836	
3789	0	32764	32871	
3790	0	32768	32744	
3791	0	32804	32628	
3792	0	32976	32756	
3793	0	32821	32806	
3794	0	32884	32754	
3795	0	32736	32871	
3796	0	32752	32866	
3797	0	32724	32750	
3798	0	32817	32751	
3799	0	32884	32696	
3800	0	32913	32822	
3801	0	32868	32673	
3802	0	32788	32920	
3803	0	32772	32828	
3804	0	32768	32908	
3805	0	32782	32775	
3806	0	32752	32672	
3807	0	32878	32828	
3808	0	32912	32638	
3809	0	32776	32626	
3810	0	32836	32598	
3811	0	32788	32628	
3812	0	32848	32748	
3813	0	32800	32920	
3814	0	32657	32862	
3815	0	32712	32864	
3816	0	32800	32710	
3817	0	32832	32946	
3818	0	32762	32788	
3819	0	32652	32737	
3820	0	32770	32788	
3821	0	32864	32970	
3822	0	32964	32694	
3823	0	32800	32740	
3824	0	32840	32897	
3825	0	32924	32826	
3826	0	32784	32944	
3827	0	32802	32716	
3828	0	32848	32666	
3829	0	32960	32743	
3830	0	32700	32802	
3831	0	32748	32640	
3832	0	32715	32706	
3833	0	32734	32502	
3834	0	32742	32718	
3835	0	32968	32688	
3836	0	32800	32844	
3837	0	32716	32764	
3838	0	32886	32775	
3839	0	32884	32696	
3840	0	32842	32806	
3841	0	32916	32840	
3842	0	32942	32814	
3843	0	33008	32570	
3844	0	32996	32752	
3845	0	32696	32807	
3846	0	32712	32644	
3847	0	32896	32856	
3848	0	32942	32832	
3849	0	32844	32826	
3850	0	32776	32816	
3851	0	32606	32868	
3852	0	32796	32878	
3853	0	32740	32882	
3854	0	32596	32806	
3855	0	32596	32889	
3856	0	32664	32924	
3857	0	32700	32727	
3858	0	32752	32796	
3859	0	32816	32646	
3860	0	32848	32727	
3861	0	32806	32668	
3862	0	32832	32746	
3863	0	32948	32624	
3864	0	33112	32606	
3865	0	33044	32666	
3866	0	32920	32772	
3867	0	32868	32775	
3868	0	32800	32876	
3869	0	33000	32810	
3870	0	32868	32940	
3871	0	32834	32823	
3872	0	32788	32794	
3873	0	32816	32702	
3874	0	33058	32650	
3875	0	33030	32576	
3876	0	32948	32634	
3877	0	32856	32704	
3878	0	32758	32863	
3879	0	32740	32926	
3880	0	32808	32890	
3881	0	32628	32854	
3882	0	32690	32792	
3883	0	32688	32682	
3884	0	32664	32772	
3885	0	32720	32816	
3886	0	32744	32728	
3887	0	32672	32764	
3888	0	32716	32692	
3889	0	32684	32838	
3890	0	32716	32774	
3891	0	32762	32644	
3892	0	32746	32839	
3893	0	32706	32892	
3894	0	32617	32762	
3895	0	32788	32738	
3896	0	32758	32585	
3897	0	32836	32716	
3898	0	32984	32831	
3899	0	32980	32724	
3900	0	32938	32838	
3901	0	32870	32720	
3902	0	32792	32839	
3903	0	32836	32756	
3904	0	32952	32768	
3905	0	32884	32634	
3906	0	32900	32681	
3907	0	32778	32758	
3908	0	32580	32743	
3909	0	32682	32564	
3910	0	32748	32646	
3911	0	32728	32798	
3912	0	32636	32838	
3913	0	32792	32700	
3914	0	32962	33040	
3915	0	32816	32806	
3916	0	32796	32752	
3917	0	32821	32519	
3918	0	32866	32830	
3919	0	32776	32912	
3920	0	32742	33040	
3921	0	32688	32748	
3922	0	32640	32726	
3923	0	32768	32868	
3924	0	32964	32844	
3925	0	32796	32846	
3926	0	32812	32786	
3927	0	32884	32775	
3928	0	32780	32636	
3929	0	32810	32976	
3930	0	32966	32943	
3931	0	32910	32592	
3932	0	32776	32568	
3933	0	32756	32647	
3934	0	32852	32706	
3935	0	32760	32692	
3936	0	32688	32558	
3937	0	32608	32592	
3938	0	32656	32760	
3939	0	32700	32668	
3940	0	32652	32592	
3941	0	32540	32548	
3942	0	32764	32671	
3943	0	32884	32677	
3944	0	32788	32775	
3945	0	32700	32647	
3946	0	32632	32660	
3947	0	32736	32694	
3948	0	32740	32638	
3949	0	32712	32580	
3950	0	32628	32612	
3951	0	32696	32775	
3952	0	32742	32689	
3953	0	32798	32724	
3954	0	32748	32714	
3955	0	32872	32838	
3956	0	33070	32720	
3957	0	33154	32920	
3958	0	33132	33008	
3959	0	33160	32988	
3960	0	33208	33108	
3961	0	33126	33086	
3962	0	33140	33156	
3963	0	33072	33140	
3964	0	33052	33092	
3965	0	33020	33044	
3966	0	32876	32996	
3967	0	32756	33022	
3968	0	32686	32871	
3969	0	32712	32702	
3970	0	32566	32638	
3971	0	32564	32636	
3972	0	32484	32659	
3973	0	32616	32692	
3974	0	32792	32703	
3975	0	32690	32630	
3976	0	32660	32670	
3977	0	32897	32574	
3978	0	32910	32640	
3979	0	32860	32591	
3980	0	32852	32596	
3981	0	32657	32759	
3982	0	32712	32654	
3983	0	32896	32724	
3984	0	32642	32680	
3985	0	32708	32671	
3986	0	32800	32867	
3987	0	32798	32720	
3988	0	32840	32486	
3989	0	32882	32620	
3990	0	32872	32632	
3991	0	32624	32814	
3992	0	32648	32775	
3993	0	32688	32689	
3994	0	32718	32789	
3995	0	32862	32774	
3996	0	32704	32818	
3997	0	32798	32888	
3998	0	32990	32876	
3999	0	32852	32656	
4000	0	32680	32738	
4001	0	32688	32864	
4002	0	32714	32562	
4003	0	32788	32516	
4004	0	32897	32746	
4005	0	32880	32687	
4006	0	32796	32612	
4007	0	33068	32647	
4008	0	33120	32894	
4009	0	33018	32850	
4010	0	32924	32774	
4011	0	32948	32775	
4012	0	32860	32766	
4013	0	32688	32606	
4014	0	32688	32640	
4015	0	32644	32752	
4016	0	32565	32710	
4017	0	32736	32804	
4018	0	32714	32870	
4019	0	32768	32858	
4020	0	32702	32798	
4021	0	32742	32694	
4022	0	32696	32838	
4023	0	32638	32692	
4024	0	32622	32800	
4025	0	32678	32686	
4026	0	32909	32708	
4027	0	32804	32775	
4028	0	32916	32748	
4029	0	32852	32838	
4030	0	32820	32850	
4031	0	32670	32704	
4032	0	32488	32720	
4033	0	32560	32868	
4034	0	32584	32708	
4035	0	32888	32759	
4036	0	33012	32818	
4037	0	33072	32708	
4038	0	33022	32790	
4039	0	32862	33012	
4040	0	32920	32810	
4041	0	32858	32806	
4042	0	32848	32799	
4043	0	32706	32628	
4044	0	32648	32746	
4045	0	32662	32537	
4046	0	32692	32534	
4047	0	32652	32775	
4048	0	32470	32738	
4049	0	32840	32684	
4050	0	32784	32687	
4051	0	33076	32750	
4052	0	33032	32928	
4053	0	33092	32872	
4054	0	33088	32915	
4055	0	33072	32772	
4056	0	33068	32855	
4057	0	33012	32798	
4058	0	32972	32724	
4059	0	32596	32854	
4060	0	32480	32736	
4061	0	32800	32756	
4062	0	32632	32754	
4063	0	32401	32814	
4064	0	32304	32752	
4065	0	32074	32856	
4066	0	32004	32897	
4067	0	31650	32944	
4068	0	32020	32856	
4069	0	32346	32644	
4070	0	32544	32684	
4071	0	32976	32468	
4072	0	33484	32464	
4073	0	33542	32432	
4074	0	33420	32682	
4075	0	32820	32942	
4076	0	31966	32943	
4077	0	32328	32976	
4078	0	32676	33140	
4079	0	33312	32960	
4080	0	33650	32896	
4081	0	33994	32802	
4082	0	33796	32606	
4083	0	33730	32676	
4084	0	33802	32622	
4085	0	33480	32471	
4086	0	32942	32576	
4087	0	33040	32820	
4088	0	33324	32497	
4089	0	33068	32672	
4090	0	33096	32980	
4091	0	32960	33018	
4092	0	33088	33044	
4093	0	32864	32970	
4094	0	32752	33078	
4095	0	32672	33223	
4096	0	32546	33224	
4097	0	32440	32880	
4098	0	32856	32471	
4099	0	32672	32479	
4100	0	32508	32910	
4101	0	32548	32664	
4102	0	32856	32244	
4103	0	32940	32172	
4104	0	32922	32084	
4105	0	32884	32022	
4106	0	32822	32486	
4107	0	32914	32775	
4108	0	33140	32466	
4109	0	32860	32775	
4110	0	32460	33014	
4111	0	32473	33020	
4112	0	32560	32682	
4113	0	32352	32606	
4114	0	32188	32958	
4115	0	32288	33279	
4116	0	32560	33243	
4117	0	32590	33072	
4118	0	32364	32460	
4119	0	32128	32598	
4120	0	32436	32852	
4121	0	32592	32751	
4122	0	32640	32562	
4123	0	32882	32592	
4124	0	32996	32668	
4125	0	33132	32775	
4126	0	32956	32810	
4127	0	32772	32798	
4128	0	32670	32896	
4129	0	32940	32897	
4130	0	33088	32876	
4131	0	33176	32871	
4132	0	33098	32742	
4133	0	33044	32838	
4134	0	32722	32884	
4135	0	32316	32730	
4136	0	32206	32816	
4137	0	32208	32711	
4138	0	32332	32900	
4139	0	32300	32784	
4140	0	32208	32838	
4141	0	32356	32728	
4142	0	32394	32806	
4143	0	32205	32716	
4144	0	32152	32812	
4145	0	32144	32732	
4146	0	32324	32599	
4147	0	32516	32604	
4148	0	32530	32602	
4149	0	32420	32542	
4150	0	32688	32687	
4151	0	33164	32466	
4152	0	33400	32928	
4153	0	33368	33004	
4154	0	33126	32618	
4155	0	33180	33152	
4156	0	33360	33132	
4157	0	33752	32596	
4158	0	33338	32656	
4159	0	33114	32996	
4160	0	33378	32992	
4161	0	33322	32910	
4162	0	33112	32774	
4163	0	33480	32920	
4164	0	33498	32775	
4165	0	33100	32594	
4166	0	32634	32890	
4167	0	32760	32788	
4168	0	32396	32590	
4169	0	32520	32674	
4170	0	32720	32772	
4171	0	32636	32544	
4172	0	32444	32690	
4173	0	32456	32580	
4174	0	32538	32810	
4175	0	32652	32831	
4176	0	33002	32702	
4177	0	33404	32706	
4178	0	33456	32775	
4179	0	33228	32716	
4180	0	33320	33028	
4181	0	33428	32880	
4182	0	33290	32984	
4183	0	33156	32792	
4184	0	33124	32720	
4185	0	32962	32796	
4186	0	32900	32546	
4187	0	33044	32446	
4188	0	33150	32487	
4189	0	32802	32752	
4190	0	32817	32955	
4191	0	32804	32810	
4192	0	32736	32600	
4193	0	32586	32894	
4194	0	32488	32950	
4195	0	32528	32702	
4196	0	32584	32647	
4197	0	32556	32733	
4198	0	32632	32663	
4199	0	32674	32866	
4200	0	32530	32828	
4201	0	32644	32743	
4202	0	32668	32754	
4203	0	32644	32895	
4204	0	32664	32860	
4205	0	32564	32792	
4206	0	32560	32910	
4207	0	32522	32984	
4208	0	32546	32775	
4209	0	32784	32622	
4210	0	32922	32708	
4211	0	32886	32574	
4212	0	32862	32913	
4213	0	33002	32974	
4214	0	33016	32775	
4215	0	32964	32768	
4216	0	32836	32798	
4217	0	32582	32712	
4218	0	32632	32567	
4219	0	32704	32838	
4220	0	32548	32884	
4221	0	32822	32732	
4222	0	32958	32736	
4223	0	33000	32706	
4224	0	33024	32586	
4225	0	33100	32726	
4226	0	33220	32946	
4227	0	33112	32696	
4228	0	32928	32602	
4229	0	32808	32694	
4230	0	32784	32609	
4231	0	32708	32574	
4232	0	32456	32608	
4233	0	32406	32588	
4234	0	32544	32679	
4235	0	32810	32758	
4236	0	32720	32788	
4237	0	32736	32852	
4238	0	32614	32914	
4239	0	32578	32768	
4240	0	32756	32751	
4241	0	32748	32817	
4242	0	32754	32918	
4243	0	32811	32844	
4244	0	32928	32804	
4245	0	32872	32932	
4246	0	32968	32871	
4247	0	32928	32892	
4248	0	32948	32743	
4249	0	32984	32847	
4250	0	32928	32847	
4251	0	32856	32868	
4252	0	32800	32796	
4253	0	32864	32660	
4254	0	32928	32682	
4255	0	32844	32634	
4256	0	32896	32598	
4257	0	32960	32601	
4258	0	32742	32452	
4259	0	32764	32592	
4260	0	32674	32806	
4261	0	32617	32992	
4262	0	32524	33058	
4263	0	32744	32788	
4264	0	32900	32850	
4265	0	32744	32752	
4266	0	32752	32526	
4267	0	32856	32498	
4268	0	33002	32682	
4269	0	33028	32737	
4270	0	33046	32852	
4271	0	33010	32766	
4272	0	32766	32967	
4273	0	32812	32930	
4274	0	32816	32790	
4275	0	32792	32692	
4276	0	32840	32863	
4277	0	32860	32588	
4278	0	32814	32647	
4279	0	32908	32722	
4280	0	32756	32703	
4281	0	32812	32678	
4282	0	32916	32838	
4283	0	32776	32878	
4284	0	32808	32958	
4285	0	32896	32844	
4286	0	32844	32820	
4287	0	32832	32812	
4288	0	32864	32558	
4289	0	32788	32535	
4290	0	32700	32798	
4291	0	32752	32768	
4292	0	32804	32788	
4293	0	32804	32886	
4294	0	32824	32868	
4295	0	32692	32742	
4296	0	32788	32794	
4297	0	32730	32807	
4298	0	32660	32750	
4299	0	32776	32865	
4300	0	32916	32834	
4301	0	32708	32775	
4302	0	32788	32854	
4303	0	32880	32766	
4304	0	32912	32828	
4305	0	32760	32715	
4306	0	32792	32770	
4307	0	32824	32836	
4308	0	32898	32692	
4309	0	32836	32762	
4310	0	32824	32824	
4311	0	32730	32799	
4312	0	32704	32775	
4313	0	32758	32816	
4314	0	32780	32796	
4315	0	32804	32606	
4316	0	32794	32720	
4317	0	32678	32838	
4318	0	32688	32734	
4319	0	32728	32719	
4320	0	32822	32754	
4321	0	32784	32815	
4322	0	32848	32676	
4323	0	32840	32743	
4324	0	32748	32828	
4325	0	32860	32705	
4326	0	32752	32689	
4327	0	32996	32729	
4328	0	32936	32679	
4329	0	32916	32768	
4330	0	32968	32814	
4331	0	32860	32674	
4332	0	32884	32806	
4333	0	32930	32848	
4334	0	32712	32814	
4335	0	32708	32870	
4336	0	32780	32812	
4337	0	32696	32814	
4338	0	32652	32686	
4339	0	32576	32696	
4340	0	32720	32751	
4341	0	32884	32774	
4342	0	32864	32888	
4343	0	32764	32734	
4344	0	32860	32792	
4345	0	32882	32672	
4346	0	32688	32824	
4347	0	32648	32742	
4348	0	32812	32732	
4349	0	32792	32752	
4350	0	32762	32774	
4351	0	32768	32647	
4352	0	32900	32743	
4353	0	32892	32734	
4354	0	32894	32752	
4355	0	33008	32609	
4356	0	33076	32724	
4357	0	32986	32808	
4358	0	32916	32689	
4359	0	32904	32788	
4360	0	32976	32752	
4361	0	33016	32711	
4362	0	33024	32804	
4363	0	32976	32838	
4364	0	32920	32728	
4365	0	32852	32812	
4366	0	32772	32831	
4367	0	32708	32640	
4368	0	32674	32892	
4369	0	32616	32770	
4370	0	32743	32775	
4371	0	32644	32742	
4372	0	32484	32820	
4373	0	32396	32763	
4374	0	32480	32816	
4375	0	32516	32702	
4376	0	32560	32718	
4377	0	32742	32710	
4378	0	32782	32712	
4379	0	32720	32676	
4380	0	32752	32788	
4381	0	32734	32879	
4382	0	32760	32647	
4383	0	32886	32830	
4384	0	32921	32760	
4385	0	32982	32720	
4386	0	32944	32774	
4387	0	32928	32874	
4388	0	32912	32728	
4389	0	32992	32775	
4390	0	32928	32804	
4391	0	32910	32676	
4392	0	32848	32806	
4393	0	32852	32758	
4394	0	32852	32592	
4395	0	32802	32874	
4396	0	32702	32780	
4397	0	32924	32728	
4398	0	32714	32678	
4399	0	32692	32690	
4400	0	32740	32732	
4401	0	32748	32629	
4402	0	32668	32772	
4403	0	32648	32842	
4404	0	32676	32738	
4405	0	32712	32854	
4406	0	32776	32754	
4407	0	32824	32840	
4408	0	32774	32716	
4409	0	32588	32782	
4410	0	32620	32871	
4411	0	32625	32796	
4412	0	32540	32702	
4413	0	32684	32816	
4414	0	32830	32839	
4415	0	32960	32682	
4416	0	32732	32775	
4417	0	32768	32871	
4418	0	32816	32710	
4419	0	32846	32692	
4420	0	33016	32822	
4421	0	33102	32676	
4422	0	33128	32721	
4423	0	33142	32758	
4424	0	33204	32696	
4425	0	33028	32770	
4426	0	32996	32788	
4427	0	32972	32660	
4428	0	32930	32743	
4429	0	32970	32930	
4430	0	32862	32822	
4431	0	32754	32775	
4432	0	32860	32834	
4433	0	32868	32658	
4434	0	32748	32743	
4435	0	32708	32826	
4436	0	32752	32735	
4437	0	32836	32884	
4438	0	32800	32894	
4439	0	32844	32774	
4440	0	32874	32870	
4441	0	32900	32775	
4442	0	32948	32738	
4443	0	32822	32775	
4444	0	32880	32634	
4445	0	32824	32640	
4446	0	32738	32764	
4447	0	32796	32740	
4448	0	32752	32815	
4449	0	32734	32626	
4450	0	32716	32754	
4451	0	32728	32806	
4452	0	32776	32711	
4453	0	32708	32807	
4454	0	32716	32748	
4455	0	32718	32760	
4456	0	32716	32788	
4457	0	32780	32775	
4458	0	32704	32724	
4459	0	32716	32759	
4460	0	32712	32806	
4461	0	32768	32772	
4462	0	32804	32724	
4463	0	32620	32926	
4464	0	32692	32916	
4465	0	32740	32655	
4466	0	32840	32775	
4467	0	32784	32796	
4468	0	32764	32748	
4469	0	32924	32764	
4470	0	32810	32846	
4471	0	32840	32759	
4472	0	32800	32860	
4473	0	32812	32758	
4474	0	32874	32604	
4475	0	32874	32716	
4476	0	32884	32746	
4477	0	32866	32609	
4478	0	32856	32850	
4479	0	32864	32772	
4480	0	32832	32656	
4481	0	32736	32820	
4482	0	32824	32892	
4483	0	32796	32711	
4484	0	32816	32774	
4485	0	32824	32756	
4486	0	32868	32660	
4487	0	32828	32756	
4488	0	32770	32711	
4489	0	32794	32742	
4490	0	32704	32848	
4491	0	32786	32770	
4492	0	32732	32742	
4493	0	32682	32711	
4494	0	32744	32754	
4495	0	32820	32794	
4496	0	32816	32756	
4497	0	32782	32788	
4498	0	32696	32757	
4499	0	32504	32824	
4500	0	32576	32828	
4501	0	32660	32745	
4502	0	32842	32796	
4503	0	32866	32827	
4504	0	33038	32842	
4505	0	33100	32847	
4506	0	33276	32816	
4507	0	33164	32984	
4508	0	33084	32806	
4509	0	33106	32860	
4510	0	33072	32736	
4511	0	32960	32640	
4512	0	32932	32593	
4513	0	32788	32748	
4514	0	32814	32682	
4515	0	32868	32812	
4516	0	32760	32704	
4517	0	32708	32816	
4518	0	32740	32775	
4519	0	32636	32722	
4520	0	32680	32730	
4521	0	32768	32835	
4522	0	32720	32800	
4523	0	32686	32656	
4524	0	32792	32760	
4525	0	32724	32761	
4526	0	32778	32743	
4527	0	32686	32706	
4528	0	32740	32806	
4529	0	32688	32775	
4530	0	32756	32702	
4531	0	32820	32756	
4532	0	32848	32760	
4533	0	32804	32788	
4534	0	32736	32674	
4535	0	32802	32804	
4536	0	32820	32788	
4537	0	32824	32714	
4538	0	32828	32940	
4539	0	32880	32836	
4540	0	32784	32710	
4541	0	32848	32794	
4542	0	32888	32864	
4543	0	32832	32839	
4544	0	32820	32742	
4545	0	32732	32805	
4546	0	32864	32762	
4547	0	32796	32772	
4548	0	32840	32654	
4549	0	32892	32864	
4550	0	32756	32788	
4551	0	32766	32760	
4552	0	32776	32770	
4553	0	32834	32706	
4554	0	32860	32807	
4555	0	32840	32764	
4556	0	32886	32760	
4557	0	32800	32852	
4558	0	32770	32775	
4559	0	32812	32800	
4560	0	32856	32670	
4561	0	32840	32788	
4562	0	32936	32758	
4563	0	32864	32720	
4564	0	32784	32746	
4565	0	32788	32760	
4566	0	32868	32761	
4567	0	32736	32849	
4568	0	32854	32775	
4569	0	32860	32752	
4570	0	32866	32826	
4571	0	32808	32750	
4572	0	32836	32755	
4573	0	32832	32710	
4574	0	32766	32684	
4575	0	32744	32716	
4576	0	32804	32727	
4577	0	32824	32774	
4578	0	32848	32816	
4579	0	32808	32742	
4580	0	32872	32808	
4581	0	32788	32806	
4582	0	32940	32775	
4583	0	32856	32744	
4584	0	32708	32722	
4585	0	32704	32826	
4586	0	32792	32638	
4587	0	32828	32822	
4588	0	32878	32872	
4589	0	32872	32748	
4590	0	32916	32820	
4591	0	32874	32840	
4592	0	32870	32729	
4593	0	32830	32804	
4594	0	32886	32754	
4595	0	32860	32844	
4596	0	32818	32790	
4597	0	32784	32764	
4598	0	32802	32835	
4599	0	32720	32836	
4600	0	32736	32679	
4601	0	32768	32742	
4602	0	32816	32678	
4603	0	32832	32871	
4604	0	32852	32692	
4605	0	32872	32775	
4606	0	32766	32735	
4607	0	32824	32665	
4608	0	32808	32746	
4609	0	32728	32724	
4610	0	32782	32775	
4611	0	32836	32808	
4612	0	32864	32802	
4613	0	32834	32804	
4614	0	32820	32764	
4615	0	32884	32802	
4616	0	32866	32764	
4617	0	32844	32639	
4618	0	32948	32748	
4619	0	32876	32774	
4620	0	32734	32700	
4621	0	32812	32732	
4622	0	32744	32796	
4623	0	32816	32891	
4624	0	32868	32852	
4625	0	32816	32788	
4626	0	32754	32750	
4627	0	32792	32672	
4628	0	32728	32839	
4629	0	32836	32842	
4630	0	32777	32752	
4631	0	32768	32640	
4632	0	32812	32823	
4633	0	32824	32709	
4634	0	32808	32692	
4635	0	32816	32796	
4636	0	32878	32833	
4637	0	32814	32702	
4638	0	32820	32740	
4639	0	32786	32732	
4640	0	32856	32660	
4641	0	32800	32775	
4642	0	32756	32788	
4643	0	32740	32770	
4644	0	32740	32732	
4645	0	32832	32788	
4646	0	32784	32695	
4647	0	32712	32870	
4648	0	32636	32866	
4649	0	32704	32694	
4650	0	32670	32807	
4651	0	32792	32806	
4652	0	32775	32770	
4653	0	32820	32772	
4654	0	32590	32810	
4655	0	32636	32741	
4656	0	32746	32832	
4657	0	32932	32794	
4658	0	33096	32762	
4659	0	33180	32766	
4660	0	33078	32764	
4661	0	32960	32754	
4662	0	33008	32698	
4663	0	32892	32742	
4664	0	32680	32724	
4665	0	32680	32847	
4666	0	32884	32903	
4667	0	32676	32728	
4668	0	32692	32916	
4669	0	32896	32884	
4670	0	32952	32706	
4671	0	32952	32808	
4672	0	32942	32922	
4673	0	32964	32855	
4674	0	32849	32868	
4675	0	32846	32775	
4676	0	32790	32676	
4677	0	32752	32716	
4678	0	32792	32642	
4679	0	32804	32519	
4680	0	32941	32680	
4681	0	33008	32531	
4682	0	32888	32550	
4683	0	32926	32632	
4684	0	32784	32552	
4685	0	32764	32532	
4686	0	32781	32658	
4687	0	32718	32630	
4688	0	32654	32610	
4689	0	32698	32618	
4690	0	32620	32628	
4691	0	32604	32604	
4692	0	32572	32662	
4693	0	32565	32712	
4694	0	32646	32796	
4695	0	32708	32796	
4696	0	32842	32836	
4697	0	32742	32612	
4698	0	32728	32775	
4699	0	32728	32618	
4700	0	32776	32711	
4701	0	32900	32583	
4702	0	32932	32718	
4703	0	32994	32950	
4704	0	33002	33182	
4705	0	33156	33130	
4706	0	33164	33436	
4707	0	33114	33450	
4708	0	33148	33344	
4709	0	33060	33287	
4710	0	32984	33363	
4711	0	32912	33238	
4712	0	32816	33050	
4713	0	32882	33005	
4714	0	32810	32788	
4715	0	32824	32494	
4716	0	32800	32454	
4717	0	32736	32466	
4718	0	32608	32510	
4719	0	32688	32380	
4720	0	32684	32566	
4721	0	32672	32586	
4722	0	32652	32519	
4723	0	32844	32599	
4724	0	32716	32607	
4725	0	32756	32646	
4726	0	32782	32761	
4727	0	32724	32656	
4728	0	32784	32767	
4729	0	32810	32700	
4730	0	32824	32770	
4731	0	32810	32723	
4732	0	32788	32862	
4733	0	32744	32812	
4734	0	32741	32664	
4735	0	32800	32726	
4736	0	32956	32772	
4737	0	32788	32775	
4738	0	32824	32688	
4739	0	32900	32756	
4740	0	32910	32690	
4741	0	32806	32832	
4742	0	32772	32708	
4743	0	32794	32775	
4744	0	32788	32692	
4745	0	32764	32718	
4746	0	32872	32870	
4747	0	32888	32774	
4748	0	32874	32868	
4749	0	32832	32824	
4750	0	32828	32844	
4751	0	32890	32756	
4752	0	32810	32764	
4753	0	32816	32678	
4754	0	32760	32686	
4755	0	32732	32692	
4756	0	32816	32718	
4757	0	32680	32728	
4758	0	32876	32703	
4759	0	32852	32820	
4760	0	32900	32868	
4761	0	32952	32764	
4762	0	32848	32880	
4763	0	32826	32870	
4764	0	32874	32734	
4765	0	32780	32770	
4766	0	32796	32784	
4767	0	32760	32746	
4768	0	32816	32812	
4769	0	32836	32814	
4770	0	32884	32704	
4771	0	32860	32720	
4772	0	32810	32736	
4773	0	32806	32688	
4774	0	32794	32799	
4775	0	32802	32804	
4776	0	32756	32698	
4777	0	32728	32770	
4778	0	32889	32774	
4779	0	32778	32680	
4780	0	32792	32818	
4781	0	32816	32711	
4782	0	32812	32694	
4783	0	32804	32872	
4784	0	32857	32775	
4785	0	32850	32871	
4786	0	32840	32812	
4787	0	32840	32817	
4788	0	32746	32848	
4789	0	32746	32692	
4790	0	32746	32782	
4791	0	32614	32766	
4792	0	32706	32704	
4793	0	32728	32700	
4794	0	32756	32836	
4795	0	32884	32838	
4796	0	32920	32716	
4797	0	32820	32775	
4798	0	32832	32828	
4799	0	32840	32752	
4800	0	32828	32654	
4801	0	32856	32724	
4802	0	32852	32790	
4803	0	32824	32679	
4804	0	32784	32732	
4805	0	32800	32710	
4806	0	32836	32671	
4807	0	32832	32900	
4808	0	32792	32730	
4809	0	32812	32924	
4810	0	32848	32752	
4811	0	32808	32796	
4812	0	32684	32836	
4813	0	32652	32758	
4814	0	32652	32775	
4815	0	32740	32862	
4816	0	32684	32622	
4817	0	32636	32838	
4818	0	32668	32860	
4819	0	32688	32670	
4820	0	32836	32670	
4821	0	33052	32752	
4822	0	33048	32894	
4823	0	33124	32636	
4824	0	33136	32774	
4825	0	33004	32798	
4826	0	32944	32704	
4827	0	32964	32720	
4828	0	32904	32775	
4829	0	32716	32775	
4830	0	32808	32714	
4831	0	32828	32682	
4832	0	32804	32754	
4833	0	32736	32772	
4834	0	32766	32748	
4835	0	32750	32730	
4836	0	32832	32750	
4837	0	32760	32756	
4838	0	32708	32698	
4839	0	32718	32812	
4840	0	32704	32689	
4841	0	32766	32732	
4842	0	32836	32760	
4843	0	32712	32725	
4844	0	32780	32664	
4845	0	32792	32772	
4846	0	32752	32735	
4847	0	32708	32724	
4848	0	32764	32880	
4849	0	32754	32754	
4850	0	32824	32834	
4851	0	32904	32714	
4852	0	32816	32775	
4853	0	32816	32818	
4854	0	32856	32888	
4855	0	32804	32690	
4856	0	32814	32858	
4857	0	32756	32712	
4858	0	32792	32711	
4859	0	32816	32660	
4860	0	32752	32805	
4861	0	32864	32847	
4862	0	32768	32774	
4863	0	32898	32832	
4864	0	32856	32702	
4865	0	32848	32796	
4866	0	32764	32743	
4867	0	32836	32834	
4868	0	32860	32774	
4869	0	32768	32750	
4870	0	32836	32775	
4871	0	32830	32870	
4872	0	32876	32736	
4873	0	32860	32775	
4874	0	32788	32758	
4875	0	32769	32836	
4876	0	32788	32711	
4877	0	32804	32689	
4878	0	32780	32774	
4879	0	32768	32652	
4880	0	32804	32632	
4881	0	32858	32766	
4882	0	32801	32820	
4883	0	32776	32724	
4884	0	32828	32700	
4885	0	32800	32850	
4886	0	32856	32774	
4887	0	32848	32687	
4888	0	32828	32798	
4889	0	32824	32798	
4890	0	32760	32828	
4891	0	32792	32887	
4892	0	32868	32743	
4893	0	32824	32842	
4894	0	32690	32830	
4895	0	32656	32772	
4896	0	32768	32814	
4897	0	32796	32814	
4898	0	32842	32686	
4899	0	32904	32838	
4900	0	32920	32666	
4901	0	32892	32652	
4902	0	32916	32715	
4903	0	32868	32775	
4904	0	32908	32647	
4905	0	32840	32748	
4906	0	32856	32871	
4907	0	32780	32694	
4908	0	32748	32834	
4909	0	32806	32814	
4910	0	32768	32718	
4911	0	32760	32922	
4912	0	32764	32804	
4913	0	32762	32770	
4914	0	32782	32806	
4915	0	32778	32772	
4916	0	32836	32742	
4917	0	32792	32823	
4918	0	32776	32850	
4919	0	32736	32676	
4920	0	32845	32788	
4921	0	32860	32788	
4922	0	32798	32738	
4923	0	32880	32697	
4924	0	32816	32798	
4925	0	32910	32840	
4926	0	32800	32738	
4927	0	32852	32710	
4928	0	32800	32802	
4929	0	32798	32739	
4930	0	32804	32852	
4931	0	32844	32775	
4932	0	32824	32775	
4933	0	32808	32871	
4934	0	32848	32772	
4935	0	32832	32775	
4936	0	32816	32770	
4937	0	32852	32802	
4938	0	32812	32890	
4939	0	32868	32794	
4940	0	32776	32766	
4941	0	32808	32730	
4942	0	32796	32798	
4943	0	32812	32664	
4944	0	32844	32831	
4945	0	32794	32772	
4946	0	32866	32791	
4947	0	32836	32740	
4948	0	32780	32758	
4949	0	32850	32814	
4950	0	32842	32788	
4951	0	32860	32830	
4952	0	32752	32707	
4953	0	32758	32674	
4954	0	32764	32810	
4955	0	32752	32842	
4956	0	32810	32720	
4957	0	32746	32734	
4958	0	32844	32696	
4959	0	32780	32800	
4960	0	32792	32760	
4961	0	32824	32702	
4962	0	32792	32686	
4963	0	32808	32800	
4964	0	32820	32726	
4965	0	32748	32714	
4966	0	32876	32856	
4967	0	32916	32796	
4968	0	32900	32834	
4969	0	32846	32788	
4970	0	32950	32810	
4971	0	32856	32903	
4972	0	32748	32756	
4973	0	32800	32682	
4974	0	32816	32676	
4975	0	32834	32762	
4976	0	32790	32790	
4977	0	32730	32808	
4978	0	32760	32608	
4979	0	32758	32702	
4980	0	32808	32734	
4981	0	32768	32828	
4982	0	32808	32751	
4983	0	32826	32816	
4984	0	32847	32698	
4985	0	32844	32830	
4986	0	32910	32902	
4987	0	32952	32814	
4988	0	32818	32744	
4989	0	32748	32705	
4990	0	32848	32764	
4991	0	32798	32775	
4992	0	32760	32882	
4993	0	32912	32804	
4994	0	32818	32692	
4995	0	32742	32720	
4996	0	32706	32762	
4997	0	32752	32751	
4998	0	32780	32580	
4999	0	32724	32718	
5000	0	32848	32764	
5001	0	32820	32775	
5002	0	32828	32668	
5003	0	32736	32812	
5004	0	32845	32794	
5005	0	32916	32958	
5006	0	32814	32740	
5007	0	32944	32918	
5008	0	32848	32854	
5009	0	32868	32901	
5010	0	32836	32732	
5011	0	32836	32860	
5012	0	32846	32801	
5013	0	32772	32724	
5014	0	32754	32740	
5015	0	32732	32736	
5016	0	32724	32711	
5017	0	32714	32716	
5018	0	32764	32664	
5019	0	32742	32688	
5020	0	32816	32728	
5021	0	32832	32743	
5022	0	32828	32775	
5023	0	32832	32758	
5024	0	32722	32775	
5025	0	32866	32679	
5026	0	32804	32740	
5027	0	32846	32912	
5028	0	32832	32715	
5029	0	32860	32820	
5030	0	32820	32754	
5031	0	32844	32737	
5032	0	32828	32750	
5033	0	32804	32855	
5034	0	32862	32740	
5035	0	32816	32775	
5036	0	32841	32804	
5037	0	32804	32792	
5038	0	32804	32706	
5039	0	32846	32930	
5040	0	32778	32750	
5041	0	32770	32872	
5042	0	32842	32700	
5043	0	32804	32890	
5044	0	32772	32755	
5045	0	32792	32774	
5046	0	32806	32679	
5047	0	32792	32887	
5048	0	32804	32772	
5049	0	32808	32841	
5050	0	32720	32714	
5051	0	32652	32826	
5052	0	32632	32856	
5053	0	32610	32775	
5054	0	32712	32657	
5055	0	32780	32870	
5056	0	32916	32719	
5057	0	32916	32750	
5058	0	32954	32708	
5059	0	33024	32756	
5060	0	32972	32766	
5061	0	32908	32772	
5062	0	33064	32741	
5063	0	32882	32711	
5064	0	32756	32734	
5065	0	32762	32769	
5066	0	32716	32796	
5067	0	32584	32710	
5068	0	32658	32808	
5069	0	32672	32806	
5070	0	32884	32800	
5071	0	32980	32756	
5072	0	33090	32806	
5073	0	33092	32750	
5074	0	32984	32807	
5075	0	32958	32775	
5076	0	32896	32741	
5077	0	32822	32822	
5078	0	32752	32802	
5079	0	32736	32807	
5080	0	32676	32740	
5081	0	32756	32760	
5082	0	32704	32812	
5083	0	32885	32598	
5084	0	32844	32630	
5085	0	32666	32754	
5086	0	32804	32719	
5087	0	32848	32806	
5088	0	32852	32910	
5089	0	32764	32802	
5090	0	32812	32788	
5091	0	32790	32844	
5092	0	32804	32752	
5093	0	32756	32694	
5094	0	32696	32798	
5095	0	32804	32807	
5096	0	32776	32824	
5097	0	32780	33030	
5098	0	32784	32798	
5099	0	32812	32798	
5100	0	32852	32672	
5101	0	32818	32718	
5102	0	32876	32704	
5103	0	32786	32643	
5104	0	32748	32617	
5105	0	32786	32810	
5106	0	32768	32738	
5107	0	32764	32665	
5108	0	32812	32683	
5109	0	32840	32806	
5110	0	32752	32803	
5111	0	32760	32840	
5112	0	32792	32774	
5113	0	32892	32764	
5114	0	32824	32818	
5115	0	32864	32732	
5116	0	32884	32647	
5117	0	32874	32704	
5118	0	32784	32802	
5119	0	32816	32768	
5120	0	32872	32790	
5121	0	32772	32698	
5122	0	32768	32836	
5123	0	32936	32789	
5124	0	32808	32767	
5125	0	32840	32758	
5126	0	32744	32834	
5127	0	32746	32770	
5128	0	32820	32724	
5129	0	32828	32893	
5130	0	32834	32759	
5131	0	32964	32672	
5132	0	32904	32798	
5133	0	32768	32860	
5134	0	32792	32736	
5135	0	32804	32832	
5136	0	32844	32756	
5137	0	32780	32818	
5138	0	32744	32692	
5139	0	32826	32775	
5140	0	32744	32775	
5141	0	32676	32702	
5142	0	32696	32736	
5143	0	32720	32822	
5144	0	32790	32634	
5145	0	32844	32834	
5146	0	32932	32743	
5147	0	32936	32775	
5148	0	32900	32679	
5149	0	32928	32775	
5150	0	32880	32790	
5151	0	32864	32700	
5152	0	32796	32791	
5153	0	32800	32768	
5154	0	32842	32678	
5155	0	32836	32834	
5156	0	32822	32754	
5157	0	32786	32734	
5158	0	32774	32791	
5159	0	32798	32808	
5160	0	32775	32804	
5161	0	32852	32806	
5162	0	32830	32903	
5163	0	32788	32692	
5164	0	32828	32828	
5165	0	32766	32822	
5166	0	32824	32718	
5167	0	32800	32825	
5168	0	32806	32736	
5169	0	32812	32775	
5170	0	32884	32654	
5171	0	32784	32888	
5172	0	32812	32766	
5173	0	32710	32818	
5174	0	32788	32678	
5175	0	32812	32710	
5176	0	32824	32793	
5177	0	32842	32730	
5178	0	32820	32750	
5179	0	32788	32791	
5180	0	32756	32759	
5181	0	32748	32775	
5182	0	32788	32852	
5183	0	32922	32711	
5184	0	32832	32772	
5185	0	32812	32814	
5186	0	32880	32680	
5187	0	32828	32834	
5188	0	32752	32832	
5189	0	32774	32588	
5190	0	32856	32746	
5191	0	32844	32807	
5192	0	32820	32775	
5193	0	32816	32678	
5194	0	32780	32903	
5195	0	32764	32762	
5196	0	32860	32836	
5197	0	32792	32724	
5198	0	32780	32750	
5199	0	32780	32790	
5200	0	32828	32708	
5201	0	32874	32784	
5202	0	32812	32870	
5203	0	32836	32652	
5204	0	32776	32812	
5205	0	32816	32735	
5206	0	32728	32802	
5207	0	32830	32620	
5208	0	32870	32702	
5209	0	32780	32784	
5210	0	32826	32664	
5211	0	32848	32766	
5212	0	32728	32858	
5213	0	32792	32716	
5214	0	32750	32786	
5215	0	32790	32702	
5216	0	32780	32838	
5217	0	32796	32894	
5218	0	32828	32710	
5219	0	32812	32764	
5220	0	32848	32804	
5221	0	32808	32796	
5222	0	32852	32772	
5223	0	32866	32594	
5224	0	32896	32828	
5225	0	32800	32747	
5226	0	32758	32666	
5227	0	32788	32759	
5228	0	32868	32770	
5229	0	32782	32695	
5230	0	32784	32808	
5231	0	32836	32854	
5232	0	32812	32824	
5233	0	32908	32839	
5234	0	32900	32750	
5235	0	32820	32762	
5236	0	32820	32775	
5237	0	32860	32834	
5238	0	32756	32787	
5239	0	32800	32744	
5240	0	32758	32756	
5241	0	32752	32796	
5242	0	32824	32813	
5243	0	32840	32806	
5244	0	32820	32896	
5245	0	32748	32632	
5246	0	32816	32711	
5247	0	32840	32840	
5248	0	32860	32727	
5249	0	32928	32728	
5250	0	32840	32746	
5251	0	32844	32700	
5252	0	32878	32766	
5253	0	32866	32836	
5254	0	32802	32775	
5255	0	32790	32700	
5256	0	32810	32806	
5257	0	32784	32678	
5258	0	32882	32714	
5259	0	32804	32800	
5260	0	32814	32688	
5261	0	32800	32700	
5262	0	32824	32708	
5263	0	32840	32826	
5264	0	32874	32878	
5265	0	32756	32700	
5266	0	32804	32775	
5267	0	32848	32756	
5268	0	32788	32812	
5269	0	32728	32775	
5270	0	32786	32722	
5271	0	32792	32826	
5272	0	32828	32804	
5273	0	32804	32664	
5274	0	32826	32806	
5275	0	32704	32764	
5276	0	32804	32720	
5277	0	32772	32775	
5278	0	32738	32804	
5279	0	32784	32730	
5280	0	32716	32832	
5281	0	32704	32768	
5282	0	32800	32690	
5283	0	32888	32842	
5284	0	32808	32854	
5285	0	32892	32716	
5286	0	32862	32711	
5287	0	32924	32759	
5288	0	32848	32753	
5289	0	32924	32834	
5290	0	32864	32772	
5291	0	32856	32804	
5292	0	32896	32759	
5293	0	32836	32728	
5294	0	32802	32666	
5295	0	32734	32773	
5296	0	32778	32834	
5297	0	32798	32734	
5298	0	32792	32824	
5299	0	32852	32722	
5300	0	32840	32761	
5301	0	32792	32804	
5302	0	32824	32748	
5303	0	32812	32737	
5304	0	32824	32868	
5305	0	32812	32826	
5306	0	32836	32798	
5307	0	32884	32783	
5308	0	32806	32810	
5309	0	32800	32676	
5310	0	32898	32750	
5311	0	32785	32752	
5312	0	32800	32706	
5313	0	32844	32736	
5314	0	32852	32775	
5315	0	32832	32710	
5316	0	32858	32772	
5317	0	32840	32806	
5318	0	32820	32710	
5319	0	32708	32766	
5320	0	32848	32860	
5321	0	32708	32724	
5322	0	32698	32844	
5323	0	32748	32866	
5324	0	32748	32708	
5325	0	32796	32788	
5326	0	32884	32832	
5327	0	32916	32724	
5328	0	32940	32695	
5329	0	32852	32812	
5330	0	32876	32740	
5331	0	32840	32816	
5332	0	32860	32679	
5333	0	32860	32794	
5334	0	32852	32818	
5335	0	32796	32704	
5336	0	32750	32664	
5337	0	32752	32740	
5338	0	32748	32775	
5339	0	32700	32914	
5340	0	32736	32720	
5341	0	32848	32832	
5342	0	32844	32775	
5343	0	32822	32820	
5344	0	32824	32647	
5345	0	32832	32816	
5346	0	32855	32838	
5347	0	32860	32788	
5348	0	32748	32757	
5349	0	32802	32670	
5350	0	32768	32868	
5351	0	32801	32832	
5352	0	32832	32686	
5353	0	32872	32756	
5354	0	32788	32834	
5355	0	32788	32822	
5356	0	32748	32727	
5357	0	32784	32748	
5358	0	32804	32740	
5359	0	32808	32844	
5360	0	32828	32760	
5361	0	32832	32806	
5362	0	32844	32743	
5363	0	32804	32775	
5364	0	32900	32730	
5365	0	32834	32804	
5366	0	32830	32732	
5367	0	32800	32924	
5368	0	32816	32586	
5369	0	32768	32774	
5370	0	32840	32801	
5371	0	32806	32690	
5372	0	32872	32804	
5373	0	32834	32860	
5374	0	32828	32698	
5375	0	32744	32759	
5376	0	32836	32775	
5377	0	32784	32775	
5378	0	32798	32647	
5379	0	32786	32852	
5380	0	32840	32771	
5381	0	32858	32832	
5382	0	32852	32684	
5383	0	32878	32766	
5384	0	32804	32752	
5385	0	32840	32766	
5386	0	32768	32726	
5387	0	32832	32829	
5388	0	32782	32822	
5389	0	32881	32728	
5390	0	32841	32759	
5391	0	32750	32836	
5392	0	32786	32820	
5393	0	32814	32806	
5394	0	32764	32751	
5395	0	32728	32769	
5396	0	32886	32868	
5397	0	32782	32852	
5398	0	32762	32846	
5399	0	32872	32734	
5400	0	32816	32868	
5401	0	32808	32945	
5402	0	32832	32798	
5403	0	32772	32713	
5404	0	32840	32772	
5405	0	32840	32719	
5406	0	32860	32700	
5407	0	32840	32661	
5408	0	32812	32658	
5409	0	32788	32658	
5410	0	32772	32679	
5411	0	32780	32548	
5412	0	32752	32570	
5413	0	32652	32742	
5414	0	32698	32656	
5415	0	32672	32646	
5416	0	32718	32600	
5417	0	32668	32556	
5418	0	32704	32678	
5419	0	32644	32592	
5420	0	32724	32712	
5421	0	32744	32524	
5422	0	32736	32676	
5423	0	32734	32772	
5424	0	32818	32604	
5425	0	32852	32762	
5426	0	32796	32596	
5427	0	32832	32724	
5428	0	32908	32702	
5429	0	32956	32749	
5430	0	32994	32646	
5431	0	33026	32912	
5432	0	33134	33138	
5433	0	33084	33223	
5434	0	33096	33506	
5435	0	33060	33393	
5436	0	33142	33498	
5437	0	33020	33402	
5438	0	32980	33316	
5439	0	32960	33159	
5440	0	32846	33304	
5441	0	32856	33078	
5442	0	32752	32970	
5443	0	32725	32609	
5444	0	32782	32612	
5445	0	32752	32492	
5446	0	32740	32490	
5447	0	32704	32398	
5448	0	32722	32368	
5449	0	32684	32568	
5450	0	32652	32602	
5451	0	32688	32614	
5452	0	32712	32519	
5453	0	32712	32720	
5454	0	32736	32624	
5455	0	32782	32686	
5456	0	32728	32673	
5457	0	32780	32732	
5458	0	32692	32688	
5459	0	32792	32612	
5460	0	32792	32839	
5461	0	32792	32816	
5462	0	32836	32751	
5463	0	32832	32796	
5464	0	32828	32760	
5465	0	32836	32706	
5466	0	32752	32860	
5467	0	32812	32856	
5468	0	32828	32742	
5469	0	32804	32893	
5470	0	32816	32806	
5471	0	32816	32926	
5472	0	32800	32635	
5473	0	32816	32696	
5474	0	32784	32826	
5475	0	32740	32632	
5476	0	32808	32775	
5477	0	32810	32790	
5478	0	32778	32800	
5479	0	32816	32644	
5480	0	32791	32836	
5481	0	32804	32764	
5482	0	32824	32692	
5483	0	32792	32928	
5484	0	32866	32730	
5485	0	32838	32791	
5486	0	32808	32712	
5487	0	32752	32752	
5488	0	32816	32800	
5489	0	32848	32724	
5490	0	32860	32860	
5491	0	32816	32854	
5492	0	32768	32731	
5493	0	32849	32662	
5494	0	32832	32816	
5495	0	32860	32856	
5496	0	32824	32726	
5497	0	32790	32785	
5498	0	32756	32752	
5499	0	32844	32752	
5500	0	32724	32740	
5501	0	32776	32775	
5502	0	32724	32830	
5503	0	32864	32679	
5504	0	32788	32678	
5505	0	32808	32736	
5506	0	32814	32716	
5507	0	32864	32720	
5508	0	32836	32854	
5509	0	32812	32768	
5510	0	32796	32672	
5511	0	32878	32804	
5512	0	32814	32780	
5513	0	32794	32668	
5514	0	32794	32841	
5515	0	32766	32807	
5516	0	32840	32756	
5517	0	32800	32744	
5518	0	32834	32790	
5519	0	32754	32744	
5520	0	32741	32868	
5521	0	32740	32862	
5522	0	32830	32752	
5523	0	32796	32815	
5524	0	32920	32740	
5525	0	32820	32692	
5526	0	32800	32694	
5527	0	32856	32740	
5528	0	32832	32760	
5529	0	32782	32817	
5530	0	32852	32874	
5531	0	32790	32842	
5532	0	32824	32720	
5533	0	32774	32744	
5534	0	32890	32770	
5535	0	32888	32748	
5536	0	32848	32734	
5537	0	32838	32907	
5538	0	32830	32839	
5539	0	32832	32654	
5540	0	32780	32775	
5541	0	32784	32736	
5542	0	32752	32792	
5543	0	32804	32676	
5544	0	32820	32746	
5545	0	32842	32736	
5546	0	32802	32730	
5547	0	32824	32740	
5548	0	32792	32743	
5549	0	32808	32884	
5550	0	32756	32743	
5551	0	32790	32734	
5552	0	32792	32772	
5553	0	32824	32718	
5554	0	32840	32830	
5555	0	32740	32658	
5556	0	32748	32800	
5557	0	32776	32812	
5558	0	32788	32770	
5559	0	32828	32682	
5560	0	32728	32738	
5561	0	32800	32775	
5562	0	32706	32753	
5563	0	32810	32684	
5564	0	32808	32755	
5565	0	32750	32839	
5566	0	32830	32732	
5567	0	32832	32708	
5568	0	32842	32732	
5569	0	32826	32769	
5570	0	32816	32744	
5571	0	32828	32864	
5572	0	32804	32839	
5573	0	32926	32832	
5574	0	32864	32775	
5575	0	32916	32894	
5576	0	32904	32746	
5577	0	32788	32754	
5578	0	32793	32742	
5579	0	32816	32844	
5580	0	32784	32774	
5581	0	32836	32768	
5582	0	32788	32876	
5583	0	32788	32790	
5584	0	32816	32704	
5585	0	32716	32804	
5586	0	32740	32692	
5587	0	32780	32758	
5588	0	32820	32662	
5589	0	32828	32694	
5590	0	32856	32794	
5591	0	32832	32656	
5592	0	32814	32775	
5593	0	32788	32766	
5594	0	32892	32760	
5595	0	32881	32842	
5596	0	32788	32806	
5597	0	32768	32719	
5598	0	32806	32810	
5599	0	32778	32775	
5600	0	32848	32736	
5601	0	32796	32730	
5602	0	32804	32756	
5603	0	32832	32710	
5604	0	32818	32712	
5605	0	32816	32804	
5606	0	32876	32752	
5607	0	32820	32767	
5608	0	32860	32874	
5609	0	32784	32792	
5610	0	32814	32775	
5611	0	32844	32864	
5612	0	32860	32808	
5613	0	32816	32800	
5614	0	32772	32639	
5615	0	32820	32742	
5616	0	32824	32792	
5617	0	32856	32634	
5618	0	32792	32816	
5619	0	32780	32742	
5620	0	32858	32743	
5621	0	32804	32655	
5622	0	32752	32758	
5623	0	32826	32750	
5624	0	32834	32710	
5625	0	32816	32822	
5626	0	32812	32817	
5627	0	32834	32774	
5628	0	32836	32862	
5629	0	32836	32876	
5630	0	32786	32774	
5631	0	32780	32852	
5632	0	32770	32862	
5633	0	32834	32740	
5634	0	32892	32745	
5635	0	32780	32662	
5636	0	32890	32630	
5637	0	32760	32742	
5638	0	32794	32775	
5639	0	32740	32711	
5640	0	32869	32799	
5641	0	32846	32788	
5642	0	32844	32724	
5643	0	32848	32843	
5644	0	32772	32799	
5645	0	32828	32771	
5646	0	32880	32676	
5647	0	32764	32748	
5648	0	32754	32796	
5649	0	32782	32679	
5650	0	32748	32724	
5651	0	32808	32876	
5652	0	32828	32664	
5653	0	32860	32748	
5654	0	32806	32720	
5655	0	32888	32870	
5656	0	32832	32775	
5657	0	32932	32700	
5658	0	32880	32769	
5659	0	32784	32764	
5660	0	32836	32794	
5661	0	32778	32858	
5662	0	32826	32838	
5663	0	32800	32775	
5664	0	32776	32672	
5665	0	32820	32894	
5666	0	32713	32834	
5667	0	32804	32678	
5668	0	32834	32784	
5669	0	32808	32808	
5670	0	32844	32716	
5671	0	32860	32818	
5672	0	32820	32888	
5673	0	32801	32775	
5674	0	32874	32929	
5675	0	32836	32792	
5676	0	32812	32821	
5677	0	32782	32714	
5678	0	32860	32798	
5679	0	32760	32726	
5680	0	32780	32679	
5681	0	32812	32732	
5682	0	32780	32775	
5683	0	32816	32788	
5684	0	32844	32826	
5685	0	32780	32706	
5686	0	32846	32758	
5687	0	32816	32704	
5688	0	32764	32814	
5689	0	32760	32791	
5690	0	32768	32804	
5691	0	32824	32740	
5692	0	32800	32774	
5693	0	32810	32746	
5694	0	32789	32791	
5695	0	32810	32764	
5696	0	32872	32678	
5697	0	32804	32828	
5698	0	32824	32775	
5699	0	32808	32710	
5700	0	32840	32916	
5701	0	32776	32791	
5702	0	32808	32641	
5703	0	32832	32726	
5704	0	32802	32654	
5705	0	32784	32775	
5706	0	32854	32694	
5707	0	32854	32748	
5708	0	32832	32647	
5709	0	32856	32775	
5710	0	32897	32814	
5711	0	32768	32746	
5712	0	32816	32748	
5713	0	32802	32830	
5714	0	32814	32694	
5715	0	32806	32871	
5716	0	32766	32810	
5717	0	32912	32848	
5718	0	32752	32791	
5719	0	32706	32770	
5720	0	32792	32775	
5721	0	32770	32764	
5722	0	32724	32828	
5723	0	32734	32807	
5724	0	32696	32679	
5725	0	32832	32750	
5726	0	32762	32784	
5727	0	32892	32748	
5728	0	32796	32740	
5729	0	32844	32756	
5730	0	32862	32727	
5731	0	32824	32732	
5732	0	32820	32880	
5733	0	32804	32742	
5734	0	32838	32824	
5735	0	32800	32798	
5736	0	32892	32774	
5737	0	32860	32847	
5738	0	32860	32872	
5739	0	32798	32787	
5740	0	32778	32742	
5741	0	32698	32775	
5742	0	32788	32878	
5743	0	32810	32700	
5744	0	32748	32658	
5745	0	32806	32664	
5746	0	32774	32706	
5747	0	32832	32758	
5748	0	32817	32710	
5749	0	32824	32622	
5750	0	32828	32809	
5751	0	32769	32823	
5752	0	32852	32775	
5753	0	32784	32886	
5754	0	32792	32902	
5755	0	32764	32711	
5756	0	32698	32740	
5757	0	32849	32686	
5758	0	32896	32772	
5759	0	32860	32828	
5760	0	32834	32724	
5761	0	32816	32704	
5762	0	32888	32774	
5763	0	32846	32852	
5764	0	32812	32660	
5765	0	32872	32802	
5766	0	32864	32842	
5767	0	32828	32764	
5768	0	32784	32718	
5769	0	32782	32775	
5770	0	32756	32666	
5771	0	32848	32748	
5772	0	32836	32772	
5773	0	32782	32809	
5774	0	32758	32798	
5775	0	32820	32676	
5776	0	32826	32838	
5777	0	32796	32808	
5778	0	32760	32678	
5779	0	32764	32654	
5780	0	32884	32730	
5781	0	32848	32794	
5782	0	32752	32727	
5783	0	32890	32806	
5784	0	32806	32814	
5785	0	32844	32708	
5786	0	32834	32766	
5787	0	32800	32762	
5788	0	32792	32692	
5789	0	32812	32756	
5790	0	32856	32810	
5791	0	32828	32750	
5792	0	32900	32785	
5793	0	32846	32743	
5794	0	32758	32917	
5795	0	32775	32750	
5796	0	32740	32679	
5797	0	32736	32791	
5798	0	32868	32800	
5799	0	32780	32820	
5800	0	32760	32822	
5801	0	32794	32760	
5802	0	32802	32744	
5803	0	32862	32729	
5804	0	32808	32726	
5805	0	32880	32818	
5806	0	32868	32775	
5807	0	32814	32748	
5808	0	32800	32761	
5809	0	32804	32775	
5810	0	32836	32692	
5811	0	32816	32727	
5812	0	32826	32700	
5813	0	32782	32802	
5814	0	32768	32772	
5815	0	32780	32707	
5816	0	32744	32788	
5817	0	32790	32802	
5818	0	32872	32742	
5819	0	32848	32848	
5820	0	32902	32712	
5821	0	32848	32832	
5822	0	32888	32868	
5823	0	32800	32724	
5824	0	32824	32767	
5825	0	32764	32922	
5826	0	32828	32772	
5827	0	32860	32752	
5828	0	32840	32784	
5829	0	32784	32728	
5830	0	32796	32856	
5831	0	32828	32694	
5832	0	32772	32620	
5833	0	32776	32711	
5834	0	32734	32738	
5835	0	32704	32800	
5836	0	32804	32782	
5837	0	32782	32724	
5838	0	32768	32812	
5839	0	32852	32740	
5840	0	32872	32802	
5841	0	32804	32722	
5842	0	32820	32752	
5843	0	32848	32775	
5844	0	32824	32814	
5845	0	32810	32727	
5846	0	32932	32834	
5847	0	32856	32730	
5848	0	32846	32682	
5849	0	32764	32792	
5850	0	32836	32916	
5851	0	32812	32838	
5852	0	32808	32731	
5853	0	32858	32796	
5854	0	32832	32903	
5855	0	32860	32704	
5856	0	32874	32775	
5857	0	32824	32696	
5858	0	32806	32792	
5859	0	32872	32716	
5860	0	32816	32732	
5861	0	32788	32790	
5862	0	32772	32719	
5863	0	32872	32678	
5864	0	32840	32831	
5865	0	32760	32821	
5866	0	32796	32730	
5867	0	32824	32752	
5868	0	32772	32818	
5869	0	32804	32648	
5870	0	32832	32760	
5871	0	32778	32852	
5872	0	32852	32684	
5873	0	32768	32814	
5874	0	32872	32806	
5875	0	32784	32729	
5876	0	32840	32844	
5877	0	32740	32732	
5878	0	32800	32896	
5879	0	32776	32720	
5880	0	32760	32775	
5881	0	32804	32800	
5882	0	32772	32826	
5883	0	32808	32800	
5884	0	32818	32746	
5885	0	32796	32752	
5886	0	32872	32732	
5887	0	32824	32772	
5888	0	32780	32830	
5889	0	32830	32770	
5890	0	32786	32736	
5891	0	32800	32804	
5892	0	32842	32775	
5893	0	32802	32646	
5894	0	32818	32796	
5895	0	32764	32812	
5896	0	32740	32760	
5897	0	32815	32775	
5898	0	32828	32844	
5899	0	32836	32744	
5900	0	32860	32774	
5901	0	32856	32806	
5902	0	32892	32720	
5903	0	32836	32775	
5904	0	32848	32790	
5905	0	32852	32598	
5906	0	32824	32792	
5907	0	32836	32722	
5908	0	32764	32724	
5909	0	32790	32864	
5910	0	32834	32775	
5911	0	32780	32685	
5912	0	32792	32764	
5913	0	32824	32848	
5914	0	32774	32708	
5915	0	32792	32682	
5916	0	32744	32775	
5917	0	32766	32812	
5918	0	32716	32743	
5919	0	32800	32814	
5920	0	32824	32822	
5921	0	32856	32854	
5922	0	32868	32726	
5923	0	32810	32764	
5924	0	32846	32842	
5925	0	32842	32766	
5926	0	32848	32720	
5927	0	32804	32750	
5928	0	32804	32710	
5929	0	32824	32708	
5930	0	32814	32826	
5931	0	32786	32727	
5932	0	32852	32775	
5933	0	32852	32774	
5934	0	32816	32775	
5935	0	32760	32742	
5936	0	32836	32724	
5937	0	32804	32828	
5938	0	32756	32736	
5939	0	32748	32664	
5940	0	32784	32825	
5941	0	32766	32796	
5942	0	32772	32711	
5943	0	32792	32766	
5944	0	32776	32751	
5945	0	32776	32728	
5946	0	32812	32721	
5947	0	32814	32830	
5948	0	32812	32688	
5949	0	32864	32796	
5950	0	32832	32796	
5951	0	32872	32734	
5952	0	32930	32792	
5953	0	32900	32760	
5954	0	32870	32824	
5955	0	32838	32766	
5956	0	32828	32804	
5957	0	32784	32852	
5958	0	32816	32775	
5959	0	32832	32654	
5960	0	32790	32796	
5961	0	32804	32703	
5962	0	32816	32768	
5963	0	32820	32844	
5964	0	32816	32736	
5965	0	32868	32801	
5966	0	32792	32802	
5967	0	32736	32698	
5968	0	32836	32775	
5969	0	32796	32775	
5970	0	32768	32764	
5971	0	32816	32764	
5972	0	32824	32743	
5973	0	32792	32689	
5974	0	32816	32784	
5975	0	32848	32748	
5976	0	32844	32823	
5977	0	32782	32775	
5978	0	32808	32732	
5979	0	32810	32758	
5980	0	32864	32807	
5981	0	32840	32722	
5982	0	32830	32880	
5983	0	32838	32742	
5984	0	32788	32740	
5985	0	32792	32750	
5986	0	32836	32785	
5987	0	32832	32746	
5988	0	32760	32906	
5989	0	32788	32758	
5990	0	32864	32708	
5991	0	32802	32754	
5992	0	32868	32784	
5993	0	32861	32700	
5994	0	32780	32672	
5995	0	32800	32751	
5996	0	32832	32796	
5997	0	32774	32812	
5998	0	32808	32774	
5999	0	32856	32710	
6000	0	32868	32802	
6001	0	32714	32772	
6002	0	32832	32684	
6003	0	32884	32826	
6004	0	32810	32802	
6005	0	32856	32710	
6006	0	32816	32806	
6007	0	32788	32796	
6008	0	32712	32770	
6009	0	32850	32791	
6010	0	32852	32838	
6011	0	32844	32680	
6012	0	32860	32746	
