# OpenSignals Text File Format. Version 1
# {"00:07:80:8C:0A:39": {"position": 0, "device": "biosignalsplux", "device name": "00:07:80:8C:0A:39", "device connection": "BTH00:07:80:8C:0A:39", "sampling rate": 1000, "resolution": [16, 16], "firmware version": 776, "comments": "", "keywords": "", "mode": 0, "sync interval": 2, "date": "2023-3-20", "time": "19:52:27.777", "channels": [1, 2], "sensor": ["EMG", "EMG"], "label": ["CH1", "CH2"], "column": ["nSeq", "DI", "CH1", "CH2"], "special": [{"SpO2": [80, 40, 5, 4, 3, 3]}, {"SpO2": [80, 40, 5, 4, 3, 3]}, {"SpO2": [80, 40, 5, 4, 3, 3]}, {"SpO2": [80, 40, 5, 4, 3, 3]}, {"SpO2": [80, 40, 5, 4, 3, 3]}, {"SpO2": [80, 40, 5, 4, 3, 3]}, {"SpO2": [80, 40, 5, 4, 3, 3]}, {"SpO2": [80, 40, 5, 4, 3, 3]}], "digital IO": [0, 1], "sleeve color": ["gray", "yellow"], "convertedValues": 0}}
# EndOfHeader
0	0	32878	32807	
1	0	32810	32884	
2	0	32840	32694	
3	0	32864	32795	
4	0	32784	32836	
5	0	32882	32730	
6	0	32868	32806	
7	0	32820	32798	
8	0	32756	32722	
9	0	32744	32774	
10	0	32766	32842	
11	0	32832	32740	
12	0	32796	32742	
13	0	32836	32794	
14	0	32836	32764	
15	0	32868	32768	
16	0	32874	32806	
17	0	32832	32796	
18	0	32826	32734	
19	0	32864	32903	
20	0	32836	32695	
21	0	32844	32775	
22	0	32784	32775	
23	0	32800	32764	
24	0	32804	32838	
25	0	32808	32762	
26	0	32752	32748	
27	0	32880	32768	
28	0	32826	32796	
29	0	32822	32870	
30	0	32848	32828	
31	0	32834	32684	
32	0	32814	32708	
33	0	32822	32673	
34	0	32782	32810	
35	0	32816	32775	
36	0	32788	32714	
37	0	32862	32827	
38	0	32812	32878	
39	0	32764	32710	
40	0	32752	32794	
41	0	32732	32640	
42	0	32804	32794	
43	0	32746	32871	
44	0	32836	32737	
45	0	32816	32823	
46	0	32810	32832	
47	0	32844	32684	
48	0	32836	32754	
49	0	32864	32800	
50	0	32826	32830	
51	0	32748	32775	
52	0	32788	32716	
53	0	32816	32775	
54	0	32812	32694	
55	0	32844	32802	
56	0	32762	32794	
57	0	32756	32710	
58	0	32810	32750	
59	0	32828	32775	
60	0	32804	32736	
61	0	32838	32802	
62	0	32828	32791	
63	0	32840	32698	
64	0	32820	32800	
65	0	32760	32712	
66	0	32844	32790	
67	0	32792	32760	
68	0	32760	32629	
69	0	32744	32754	
70	0	32860	32760	
71	0	32836	32716	
72	0	32784	32760	
73	0	32824	32676	
74	0	32857	32842	
75	0	32878	32775	
76	0	32868	32737	
77	0	32906	32764	
78	0	32816	32820	
79	0	32742	32660	
80	0	32772	32820	
81	0	32740	32932	
82	0	32792	32678	
83	0	32768	32814	
84	0	32818	32772	
85	0	32804	32724	
86	0	32828	32820	
87	0	32872	32860	
88	0	32704	32673	
89	0	32804	32650	
90	0	32812	32756	
91	0	32840	32798	
92	0	32784	32732	
93	0	32828	32775	
94	0	32864	32758	
95	0	32884	32858	
96	0	32806	32731	
97	0	32816	32740	
98	0	32824	32810	
99	0	32847	32686	
100	0	32748	32775	
101	0	32804	32775	
102	0	32754	32705	
103	0	32836	32794	
104	0	32784	32816	
105	0	32728	32684	
106	0	32820	32830	
107	0	32796	32800	
108	0	32780	32800	
109	0	32824	32870	
110	0	32788	32839	
111	0	32818	32830	
112	0	32812	32597	
113	0	32820	32720	
114	0	32754	32882	
115	0	32840	32706	
116	0	32848	32790	
117	0	32864	32775	
118	0	32804	32775	
119	0	32856	32857	
120	0	32840	32722	
121	0	32764	32767	
122	0	32880	32705	
123	0	32836	32771	
124	0	32856	32722	
125	0	32830	32856	
126	0	32824	32748	
127	0	32792	32674	
128	0	32858	32746	
129	0	32882	32694	
130	0	32732	32729	
131	0	32768	32692	
132	0	32764	32724	
133	0	32792	32862	
134	0	32808	32734	
135	0	32768	32793	
136	0	32842	32840	
137	0	32800	32763	
138	0	32748	32860	
139	0	32860	32852	
140	0	32788	32890	
141	0	32770	32688	
142	0	32868	32889	
143	0	32840	32808	
144	0	32770	32742	
145	0	32724	32834	
146	0	32820	32748	
147	0	32832	32740	
148	0	32807	32722	
149	0	32744	32725	
150	0	32896	32682	
151	0	32880	32863	
152	0	32800	32788	
153	0	32746	32724	
154	0	32810	32756	
155	0	32808	32838	
156	0	32904	32714	
157	0	32774	32754	
158	0	32816	32766	
159	0	32800	32806	
160	0	32774	32795	
161	0	32816	32790	
162	0	32796	32868	
163	0	32804	32704	
164	0	32852	32810	
165	0	32852	32703	
166	0	32808	32762	
167	0	32820	32811	
168	0	32838	32652	
169	0	32856	32734	
170	0	32844	32772	
171	0	32816	32832	
172	0	32836	32712	
173	0	32852	32775	
174	0	32796	32764	
175	0	32848	32774	
176	0	32816	32715	
177	0	32864	32769	
178	0	32836	32772	
179	0	32810	32628	
180	0	32817	32720	
181	0	32870	32834	
182	0	32754	32723	
183	0	32808	32804	
184	0	32756	32751	
185	0	32740	32775	
186	0	32840	32838	
187	0	32756	32724	
188	0	32804	32822	
189	0	32756	32676	
190	0	32792	32718	
191	0	32816	32764	
192	0	32776	32738	
193	0	32808	32696	
194	0	32852	32692	
195	0	32776	32824	
196	0	32864	32676	
197	0	32820	32718	
198	0	32782	32802	
199	0	32796	32762	
200	0	32812	32889	
201	0	32846	32828	
202	0	32828	32866	
203	0	32816	32844	
204	0	32792	32848	
205	0	32822	32769	
206	0	32886	32830	
207	0	32804	32752	
208	0	32816	32836	
209	0	32834	32712	
210	0	32812	32738	
211	0	32786	32676	
212	0	32802	32828	
213	0	32744	32735	
214	0	32744	32766	
215	0	32774	32700	
216	0	32834	32775	
217	0	32852	32750	
218	0	32808	32788	
219	0	32832	32888	
220	0	32780	32732	
221	0	32832	32802	
222	0	32836	32826	
223	0	32768	32786	
224	0	32810	32726	
225	0	32816	32775	
226	0	32870	32680	
227	0	32816	32757	
228	0	32846	32792	
229	0	32792	32743	
230	0	32844	32692	
231	0	32760	32698	
232	0	32776	32714	
233	0	32816	32784	
234	0	32810	32652	
235	0	32800	32800	
236	0	32860	32900	
237	0	32852	32791	
238	0	32832	32834	
239	0	32800	32774	
240	0	32836	32775	
241	0	32774	32638	
242	0	32794	32762	
243	0	32794	32726	
244	0	32774	32775	
245	0	32792	32728	
246	0	32796	32738	
247	0	32792	32838	
248	0	32770	32694	
249	0	32876	32769	
250	0	32766	32768	
251	0	32798	32679	
252	0	32796	32885	
253	0	32746	32726	
254	0	32752	32775	
255	0	32782	32840	
256	0	32834	32724	
257	0	32848	32716	
258	0	32804	32775	
259	0	32840	32766	
260	0	32806	32638	
261	0	32840	32706	
262	0	32956	32752	
263	0	32824	32823	
264	0	32816	32692	
265	0	32842	32868	
266	0	32804	32775	
267	0	32860	32796	
268	0	32762	32884	
269	0	32766	32766	
270	0	32836	32792	
271	0	32884	32642	
272	0	32876	32775	
273	0	32790	32796	
274	0	32760	32678	
275	0	32856	32737	
276	0	32804	32867	
277	0	32852	32796	
278	0	32916	32746	
279	0	32838	32842	
280	0	32800	32818	
281	0	32788	32673	
282	0	32768	32832	
283	0	32776	32866	
284	0	32760	32712	
285	0	32820	32742	
286	0	32792	32810	
287	0	32836	32700	
288	0	32815	32814	
289	0	32784	32828	
290	0	32863	32672	
291	0	32856	32756	
292	0	32850	32705	
293	0	32800	32672	
294	0	32836	32793	
295	0	32788	32804	
296	0	32832	32630	
297	0	32694	32700	
298	0	32704	32706	
299	0	32730	32775	
300	0	32782	32844	
301	0	32798	32718	
302	0	32800	32823	
303	0	32874	32856	
304	0	32852	32792	
305	0	32824	32839	
306	0	32866	32878	
307	0	32772	32676	
308	0	32800	32844	
309	0	32780	32726	
310	0	32796	32714	
311	0	32890	32772	
312	0	32808	32710	
313	0	32784	32808	
314	0	32828	32828	
315	0	32808	32666	
316	0	32854	32756	
317	0	32824	32654	
318	0	32848	32799	
319	0	32836	32814	
320	0	32832	32824	
321	0	32772	32864	
322	0	32784	32772	
323	0	32816	32672	
324	0	32832	32708	
325	0	32828	32802	
326	0	32784	32724	
327	0	32768	32746	
328	0	32696	32833	
329	0	32804	32769	
330	0	32754	32804	
331	0	32816	32848	
332	0	32780	32647	
333	0	32836	32801	
334	0	32864	32744	
335	0	32760	32836	
336	0	32800	32807	
337	0	32788	32760	
338	0	32840	32743	
339	0	32830	32772	
340	0	32776	32802	
341	0	32844	32704	
342	0	32792	32734	
343	0	32912	32800	
344	0	32846	32718	
345	0	32788	32784	
346	0	32732	32746	
347	0	32785	32756	
348	0	32860	32660	
349	0	32776	32760	
350	0	32844	32838	
351	0	32800	32830	
352	0	32792	32810	
353	0	32868	32796	
354	0	32792	32732	
355	0	32846	32699	
356	0	32848	32766	
357	0	32804	32766	
358	0	32852	32807	
359	0	32816	32826	
360	0	32832	32726	
361	0	32834	32830	
362	0	32830	32807	
363	0	32776	32678	
364	0	32766	32832	
365	0	32768	32822	
366	0	32900	32662	
367	0	32814	32842	
368	0	32864	32752	
369	0	32814	32728	
370	0	32824	32818	
371	0	32840	32824	
372	0	32836	32676	
373	0	32728	32872	
374	0	32817	32854	
375	0	32782	32687	
376	0	32804	32858	
377	0	32788	32736	
378	0	32808	32679	
379	0	32864	32775	
380	0	32832	32775	
381	0	32828	32864	
382	0	32804	32814	
383	0	32836	32716	
384	0	32808	32710	
385	0	32832	32752	
386	0	32858	32852	
387	0	32744	32866	
388	0	32860	32671	
389	0	32862	32816	
390	0	32794	32775	
391	0	32754	32638	
392	0	32794	32830	
393	0	32814	32820	
394	0	32810	32684	
395	0	32844	32850	
396	0	32824	32688	
397	0	32876	32810	
398	0	32836	32846	
399	0	32848	32738	
400	0	32844	32815	
401	0	32780	32732	
402	0	32820	32812	
403	0	32744	32878	
404	0	32766	32644	
405	0	32756	32793	
406	0	32850	32862	
407	0	32780	32960	
408	0	32764	32775	
409	0	32774	32725	
410	0	32806	32788	
411	0	32836	32806	
412	0	32792	32775	
413	0	32794	32762	
414	0	32804	32712	
415	0	32848	32626	
416	0	32784	32810	
417	0	32856	32802	
418	0	32876	32672	
419	0	32842	32841	
420	0	32864	32802	
421	0	32822	32698	
422	0	32824	32810	
423	0	32848	32744	
424	0	32848	32812	
425	0	32784	32812	
426	0	32832	32868	
427	0	32756	32838	
428	0	32840	32730	
429	0	32724	32684	
430	0	32846	32775	
431	0	32762	32876	
432	0	32816	32698	
433	0	32824	32784	
434	0	32808	32688	
435	0	32818	32812	
436	0	32824	32714	
437	0	32860	32876	
438	0	32834	32694	
439	0	32872	32775	
440	0	32800	32804	
441	0	32804	32775	
442	0	32784	32830	
443	0	32768	32775	
444	0	32804	32748	
445	0	32784	32842	
446	0	32838	32814	
447	0	32836	32775	
448	0	32810	32775	
449	0	32832	32846	
450	0	32876	32828	
451	0	32828	32678	
452	0	32788	32762	
453	0	32792	32670	
454	0	32788	32718	
455	0	32768	32714	
456	0	32768	32724	
457	0	32800	32846	
458	0	32782	32798	
459	0	32796	32746	
460	0	32778	32716	
461	0	32804	32738	
462	0	32806	32826	
463	0	32836	32855	
464	0	32852	32722	
465	0	32868	32743	
466	0	32816	32740	
467	0	32892	32756	
468	0	32804	32828	
469	0	32844	32839	
470	0	32866	32707	
471	0	32856	32775	
472	0	32812	32908	
473	0	32725	32822	
474	0	32806	32884	
475	0	32800	32853	
476	0	32846	32786	
477	0	32808	32750	
478	0	32780	32848	
479	0	32784	32654	
480	0	32834	32775	
481	0	32786	32719	
482	0	32732	32599	
483	0	32752	32706	
484	0	32768	32722	
485	0	32714	32602	
486	0	32704	32598	
487	0	32752	32644	
488	0	32730	32620	
489	0	32632	32602	
490	0	32784	32612	
491	0	32738	32663	
492	0	32806	32576	
493	0	32800	32660	
494	0	32780	32640	
495	0	32740	32685	
496	0	32778	32764	
497	0	32772	32691	
498	0	32824	32766	
499	0	32816	32704	
500	0	32874	32682	
501	0	32812	32847	
502	0	32822	32790	
503	0	32796	32736	
504	0	32828	32641	
505	0	32980	32804	
506	0	33070	32825	
507	0	33044	32967	
508	0	33108	33056	
509	0	33126	33092	
510	0	33173	33284	
511	0	33078	33184	
512	0	33058	33216	
513	0	33032	33082	
514	0	32936	33006	
515	0	32832	33014	
516	0	32792	32938	
517	0	32708	32860	
518	0	32724	32808	
519	0	32648	32559	
520	0	32662	32647	
521	0	32680	32666	
522	0	32712	32462	
523	0	32690	32676	
524	0	32730	32638	
525	0	32778	32532	
526	0	32732	32666	
527	0	32684	32650	
528	0	32740	32593	
529	0	32748	32682	
530	0	32756	32732	
531	0	32744	32718	
532	0	32814	32644	
533	0	32816	32732	
534	0	32728	32784	
535	0	32742	32768	
536	0	32744	32742	
537	0	32772	32678	
538	0	32824	32772	
539	0	32817	32735	
540	0	32856	32722	
541	0	32814	32610	
542	0	32790	32706	
543	0	32888	32754	
544	0	32824	32710	
545	0	32840	32827	
546	0	32862	32775	
547	0	32796	32874	
548	0	32894	32872	
549	0	32796	32752	
550	0	32836	32832	
551	0	32796	32748	
552	0	32804	32686	
553	0	32836	32860	
554	0	32834	32896	
555	0	32828	32692	
556	0	32836	32820	
557	0	32798	32831	
558	0	32802	32788	
559	0	32828	32748	
560	0	32828	32788	
561	0	32834	32764	
562	0	32852	32714	
563	0	32848	32796	
564	0	32768	32842	
565	0	32856	32665	
566	0	32784	32753	
567	0	32830	32790	
568	0	32656	32590	
569	0	32790	32849	
570	0	32800	32839	
571	0	32804	32730	
572	0	32780	32804	
573	0	32802	32770	
574	0	32800	32740	
575	0	32842	32744	
576	0	32836	32798	
577	0	32844	32724	
578	0	32824	32760	
579	0	32788	32775	
580	0	32774	32658	
581	0	32828	32868	
582	0	32784	32842	
583	0	32792	32664	
584	0	32836	32896	
585	0	32782	32788	
586	0	32844	32664	
587	0	32796	32770	
588	0	32894	32816	
589	0	32840	32686	
590	0	32817	32804	
591	0	32852	32826	
592	0	32868	32746	
593	0	32752	32767	
594	0	32744	32836	
595	0	32868	32690	
596	0	32824	32798	
597	0	32842	32774	
598	0	32858	32692	
599	0	32812	32775	
600	0	32778	32816	
601	0	32788	32759	
602	0	32808	32829	
603	0	32820	32775	
604	0	32804	32767	
605	0	32772	32852	
606	0	32812	32807	
607	0	32868	32674	
608	0	32844	32734	
609	0	32814	32736	
610	0	32808	32676	
611	0	32844	32864	
612	0	32824	32828	
613	0	32772	32698	
614	0	32796	32718	
615	0	32748	32855	
616	0	32792	32742	
617	0	32754	32736	
618	0	32762	32696	
619	0	32808	32775	
620	0	32826	32826	
621	0	32880	32743	
622	0	32878	32752	
623	0	32856	32871	
624	0	32824	32756	
625	0	32820	32828	
626	0	32848	32804	
627	0	32878	32706	
628	0	32804	32722	
629	0	32808	32792	
630	0	32724	32738	
631	0	32726	32720	
632	0	32772	32865	
633	0	32750	32706	
634	0	32766	32775	
635	0	32804	32798	
636	0	32912	32714	
637	0	32824	32807	
638	0	32777	32928	
639	0	32872	32700	
640	0	32904	32834	
641	0	32874	32740	
642	0	32852	32734	
643	0	32818	32761	
644	0	32796	32682	
645	0	32816	32828	
646	0	32772	32711	
647	0	32806	32728	
648	0	32836	32711	
649	0	32740	32720	
650	0	32808	32784	
651	0	32788	32764	
652	0	32792	32896	
653	0	32752	32868	
654	0	32798	32832	
655	0	32836	32738	
656	0	32844	32734	
657	0	32822	32808	
658	0	32848	32734	
659	0	32828	32844	
660	0	32744	32692	
661	0	32796	32843	
662	0	32826	32766	
663	0	32692	32696	
664	0	32856	32608	
665	0	32870	32686	
666	0	32776	32728	
667	0	32856	32708	
668	0	32856	32794	
669	0	32776	32803	
670	0	32852	32756	
671	0	32760	32766	
672	0	32810	32934	
673	0	32756	32794	
674	0	32768	32762	
675	0	32800	32722	
676	0	32772	32808	
677	0	32796	32852	
678	0	32856	32748	
679	0	32904	32834	
680	0	32872	32814	
681	0	32858	32734	
682	0	32796	32750	
683	0	32860	32628	
684	0	32884	32852	
685	0	32780	32764	
686	0	32748	32732	
687	0	32824	32756	
688	0	32788	32646	
689	0	32804	32807	
690	0	32760	32794	
691	0	32824	32810	
692	0	32760	32710	
693	0	32800	32806	
694	0	32844	32644	
695	0	32844	32742	
696	0	32752	32756	
697	0	32730	32671	
698	0	32824	32768	
699	0	32876	32807	
700	0	32808	32786	
701	0	32816	32806	
702	0	32768	32856	
703	0	32856	32730	
704	0	32864	32766	
705	0	32868	32775	
706	0	32860	32647	
707	0	32768	32795	
708	0	32865	32775	
709	0	32822	32734	
710	0	32788	32775	
711	0	32824	32838	
712	0	32868	32722	
713	0	32868	32802	
714	0	32756	32759	
715	0	32764	32806	
716	0	32766	32822	
717	0	32740	32680	
718	0	32820	32750	
719	0	32848	32658	
720	0	32894	32743	
721	0	32868	32744	
722	0	32821	32836	
723	0	32848	32866	
724	0	32792	32702	
725	0	32868	32788	
726	0	32848	32742	
727	0	32754	32822	
728	0	32802	32854	
729	0	32830	32648	
730	0	32738	32718	
731	0	32816	32640	
732	0	32772	32826	
733	0	32756	32743	
734	0	32772	32692	
735	0	32788	32794	
736	0	32808	32822	
737	0	32832	32688	
738	0	32784	32842	
739	0	32866	32812	
740	0	32892	32724	
741	0	32804	32824	
742	0	32804	32843	
743	0	32808	32722	
744	0	32828	32770	
745	0	32788	32732	
746	0	32776	32736	
747	0	32906	32808	
748	0	32868	32856	
749	0	32878	32752	
750	0	32878	32802	
751	0	32788	32774	
752	0	32876	32727	
753	0	32736	32692	
754	0	32798	32679	
755	0	32764	32754	
756	0	32816	32750	
757	0	32838	32775	
758	0	32884	32794	
759	0	32764	32766	
760	0	32792	32688	
761	0	32820	32762	
762	0	32786	32828	
763	0	32768	32806	
764	0	32788	32808	
765	0	32748	32758	
766	0	32762	32872	
767	0	32816	32852	
768	0	32816	32708	
769	0	32834	32826	
770	0	32816	32842	
771	0	32852	32728	
772	0	32818	32831	
773	0	32844	32834	
774	0	32794	32704	
775	0	32804	32758	
776	0	32742	32758	
777	0	32836	32812	
778	0	32838	32854	
779	0	32824	32699	
780	0	32840	32816	
781	0	32784	32844	
782	0	32774	32767	
783	0	32814	32752	
784	0	32832	32680	
785	0	32830	32838	
786	0	32888	32755	
787	0	32844	32682	
788	0	32944	32788	
789	0	32852	32904	
790	0	32772	32662	
791	0	32788	32884	
792	0	32794	32876	
793	0	32792	32696	
794	0	32784	32796	
795	0	32846	32802	
796	0	32761	32647	
797	0	32860	32784	
798	0	32830	32695	
799	0	32841	32774	
800	0	32788	32634	
801	0	32776	32803	
802	0	32832	32806	
803	0	32860	32882	
804	0	32793	32934	
805	0	32840	32682	
806	0	32764	32743	
807	0	32778	32768	
808	0	32812	32712	
809	0	32832	32828	
810	0	32876	32775	
811	0	32840	32714	
812	0	32812	32742	
813	0	32798	32808	
814	0	32772	32782	
815	0	32708	32820	
816	0	32788	32689	
817	0	32768	32798	
818	0	32838	32766	
819	0	32748	32758	
820	0	32832	32846	
821	0	32784	32826	
822	0	32790	32700	
823	0	32796	32810	
824	0	32812	32866	
825	0	32881	32644	
826	0	32864	32826	
827	0	32866	32800	
828	0	32844	32786	
829	0	32812	32770	
830	0	32782	32680	
831	0	32756	32734	
832	0	32824	32744	
833	0	32824	32758	
834	0	32782	32800	
835	0	32804	32830	
836	0	32818	32775	
837	0	32822	32654	
838	0	32864	32775	
839	0	32902	32775	
840	0	32864	32736	
841	0	32790	32832	
842	0	32844	32812	
843	0	32728	32730	
844	0	32712	32775	
845	0	32780	32712	
846	0	32780	32796	
847	0	32870	32796	
848	0	32776	32790	
849	0	32916	32820	
850	0	32786	32762	
851	0	32784	32728	
852	0	32788	32752	
853	0	32804	32736	
854	0	32788	32716	
855	0	32858	32775	
856	0	32816	32782	
857	0	32800	32721	
858	0	32802	32775	
859	0	32824	32720	
860	0	32837	32784	
861	0	32824	32764	
862	0	32820	32822	
863	0	32785	32752	
864	0	32832	32794	
865	0	32822	32775	
866	0	32876	32726	
867	0	32836	32660	
868	0	32776	32743	
869	0	32756	32730	
870	0	32856	32736	
871	0	32764	32828	
872	0	32848	32758	
873	0	32852	32670	
874	0	32858	32768	
875	0	32776	32775	
876	0	32776	32775	
877	0	32770	32724	
878	0	32872	32814	
879	0	32792	32804	
880	0	32828	32676	
881	0	32832	32814	
882	0	32792	32759	
883	0	32771	32690	
884	0	32848	32812	
885	0	32760	32768	
886	0	32850	32725	
887	0	32828	32730	
888	0	32756	32766	
889	0	32800	32762	
890	0	32772	32655	
891	0	32776	32775	
892	0	32846	32808	
893	0	32732	32854	
894	0	32904	32618	
895	0	32816	32808	
896	0	32804	32768	
897	0	32754	32844	
898	0	32768	32668	
899	0	32830	32750	
900	0	32838	32812	
901	0	32844	32884	
902	0	32804	32738	
903	0	32838	32750	
904	0	32830	32742	
905	0	32848	32833	
906	0	32778	32814	
907	0	32826	32720	
908	0	32776	32861	
909	0	32844	32799	
910	0	32780	32711	
911	0	32734	32870	
912	0	32766	32798	
913	0	32838	32652	
914	0	32816	32814	
915	0	32808	32816	
916	0	32808	32676	
917	0	32808	32814	
918	0	32844	32788	
919	0	32868	32658	
920	0	32850	32673	
921	0	32855	32754	
922	0	32834	32807	
923	0	32756	32702	
924	0	32778	32766	
925	0	32804	32816	
926	0	32792	32790	
927	0	32762	32775	
928	0	32820	32900	
929	0	32804	32746	
930	0	32820	32675	
931	0	32760	32754	
932	0	32744	32752	
933	0	32784	32630	
934	0	32788	32799	
935	0	32752	32764	
936	0	32848	32832	
937	0	32816	32671	
938	0	32816	32758	
939	0	32842	32804	
940	0	32860	32674	
941	0	32810	32886	
942	0	32794	32842	
943	0	32834	32758	
944	0	32824	32826	
945	0	32776	32820	
946	0	32756	32708	
947	0	32856	32726	
948	0	32812	32764	
949	0	32804	32762	
950	0	32800	32744	
951	0	32864	32756	
952	0	32816	32742	
953	0	32864	32884	
954	0	32808	32734	
955	0	32800	32824	
956	0	32874	32862	
957	0	32884	32830	
958	0	32756	32657	
959	0	32788	32736	
960	0	32812	32708	
961	0	32812	32703	
962	0	32810	32900	
963	0	32828	32772	
964	0	32832	32826	
965	0	32798	32688	
966	0	32754	32684	
967	0	32852	32716	
968	0	32816	32714	
969	0	32920	32740	
970	0	32812	32703	
971	0	32776	32805	
972	0	32772	32727	
973	0	32816	32806	
974	0	32798	32634	
975	0	32882	32762	
976	0	32888	32774	
977	0	32854	32784	
978	0	32820	32884	
979	0	32802	32790	
980	0	32800	32663	
981	0	32834	32816	
982	0	32856	32908	
983	0	32720	32711	
984	0	32844	32888	
985	0	32826	32743	
986	0	32796	32760	
987	0	32800	32700	
988	0	32840	32730	
989	0	32772	32660	
990	0	32788	32679	
991	0	32820	32751	
992	0	32880	32775	
993	0	32860	32804	
994	0	32800	32775	
995	0	32832	32764	
996	0	32770	32836	
997	0	32856	32752	
998	0	32782	32927	
999	0	32804	32770	
1000	0	32828	32772	
1001	0	32836	32742	
1002	0	32816	32744	
1003	0	32856	32742	
1004	0	32820	32668	
1005	0	32808	32838	
1006	0	32792	32766	
1007	0	32788	32720	
1008	0	32896	32830	
1009	0	32788	32740	
1010	0	32780	32743	
1011	0	32866	32838	
1012	0	32800	32774	
1013	0	32832	32670	
1014	0	32818	32742	
1015	0	32764	32828	
1016	0	32808	32724	
1017	0	32766	32741	
1018	0	32761	32756	
1019	0	32730	32775	
1020	0	32792	32816	
1021	0	32868	32854	
1022	0	32824	32808	
1023	0	32828	32775	
1024	0	32812	32814	
1025	0	32806	32746	
1026	0	32838	32631	
1027	0	32760	32762	
1028	0	32810	32764	
1029	0	32868	32732	
1030	0	32798	32698	
1031	0	32824	32800	
1032	0	32756	32684	
1033	0	32788	32797	
1034	0	32856	32761	
1035	0	32884	32800	
1036	0	32804	32764	
1037	0	32872	32711	
1038	0	32840	32846	
1039	0	32792	32774	
1040	0	32801	32743	
1041	0	32774	32826	
1042	0	32750	32799	
1043	0	32810	32748	
1044	0	32816	32798	
1045	0	32808	32824	
1046	0	32794	32878	
1047	0	32780	32774	
1048	0	32752	32807	
1049	0	32770	32880	
1050	0	32816	32927	
1051	0	32832	32612	
1052	0	32764	32788	
1053	0	32780	32757	
1054	0	32826	32750	
1055	0	32820	32820	
1056	0	32866	32692	
1057	0	32772	32761	
1058	0	32832	32726	
1059	0	32856	32708	
1060	0	32848	32663	
1061	0	32838	32759	
1062	0	32810	32714	
1063	0	32772	32640	
1064	0	32792	32817	
1065	0	32794	32790	
1066	0	32872	32748	
1067	0	32842	32871	
1068	0	32870	32900	
1069	0	32846	32838	
1070	0	32884	32796	
1071	0	32836	32798	
1072	0	32800	32704	
1073	0	32792	32752	
1074	0	32817	32844	
1075	0	32816	32660	
1076	0	32768	32839	
1077	0	32824	32751	
1078	0	32816	32740	
1079	0	32832	32775	
1080	0	32772	32804	
1081	0	32764	32762	
1082	0	32816	32720	
1083	0	32786	32784	
1084	0	32788	32706	
1085	0	32754	32720	
1086	0	32848	32676	
1087	0	32872	32735	
1088	0	32804	32796	
1089	0	32772	32878	
1090	0	32756	32865	
1091	0	32812	32686	
1092	0	32780	32864	
1093	0	32820	32820	
1094	0	32856	32872	
1095	0	32838	32826	
1096	0	32872	32688	
1097	0	32748	32692	
1098	0	32776	32699	
1099	0	32830	32820	
1100	0	32852	32784	
1101	0	32788	32800	
1102	0	32824	32786	
1103	0	32780	32871	
1104	0	32724	32807	
1105	0	32810	32694	
1106	0	32832	32696	
1107	0	32832	32647	
1108	0	32768	32736	
1109	0	32809	32721	
1110	0	32750	32668	
1111	0	32824	32800	
1112	0	32839	32846	
1113	0	32832	32692	
1114	0	32788	32775	
1115	0	32744	32650	
1116	0	32764	32786	
1117	0	32756	32804	
1118	0	32806	32898	
1119	0	32880	32841	
1120	0	32844	32846	
1121	0	32878	32868	
1122	0	32836	32860	
1123	0	32788	32834	
1124	0	32812	32679	
1125	0	32884	32769	
1126	0	32856	32746	
1127	0	32816	32812	
1128	0	32800	32744	
1129	0	32808	32718	
1130	0	32848	32736	
1131	0	32710	32750	
1132	0	32808	32736	
1133	0	32828	32705	
1134	0	32770	32698	
1135	0	32772	32740	
1136	0	32784	32892	
1137	0	32768	32726	
1138	0	32746	32768	
1139	0	32872	32824	
1140	0	32808	32695	
1141	0	32900	32695	
1142	0	32832	32743	
1143	0	32796	32775	
1144	0	32804	32913	
1145	0	32884	32814	
1146	0	32760	32811	
1147	0	32836	32816	
1148	0	32816	32682	
1149	0	32856	32748	
1150	0	32822	32775	
1151	0	32824	32708	
1152	0	32806	32714	
1153	0	32788	32612	
1154	0	32884	32830	
1155	0	32824	32725	
1156	0	32764	32798	
1157	0	32862	32850	
1158	0	32824	32724	
1159	0	32790	32766	
1160	0	32748	32768	
1161	0	32808	32740	
1162	0	32900	32711	
1163	0	32804	32796	
1164	0	32812	32915	
1165	0	32818	32738	
1166	0	32840	32775	
1167	0	32792	32690	
1168	0	32790	32846	
1169	0	32810	32784	
1170	0	32744	32726	
1171	0	32816	32720	
1172	0	32844	32871	
1173	0	32760	32650	
1174	0	32746	32710	
1175	0	32816	32786	
1176	0	32744	32764	
1177	0	32828	32814	
1178	0	32772	32689	
1179	0	32808	32772	
1180	0	32868	32767	
1181	0	32780	32689	
1182	0	32824	32720	
1183	0	32792	32796	
1184	0	32762	32775	
1185	0	32796	32766	
1186	0	32784	32666	
1187	0	32842	32844	
1188	0	32868	32736	
1189	0	32828	32724	
1190	0	32794	32810	
1191	0	32808	32795	
1192	0	32772	32775	
1193	0	32792	32826	
1194	0	32800	32700	
1195	0	32904	32839	
1196	0	32812	32850	
1197	0	32824	32775	
1198	0	32800	32828	
1199	0	32870	32800	
1200	0	32836	32710	
1201	0	32806	32772	
1202	0	32784	32842	
1203	0	32836	32740	
1204	0	32884	32796	
1205	0	32846	32888	
1206	0	32812	32804	
1207	0	32868	32820	
1208	0	32808	32792	
1209	0	32746	32634	
1210	0	32738	32758	
1211	0	32750	32708	
1212	0	32752	32604	
1213	0	32732	32768	
1214	0	32792	32554	
1215	0	32708	32576	
1216	0	32680	32536	
1217	0	32784	32631	
1218	0	32700	32708	
1219	0	32676	32484	
1220	0	32634	32633	
1221	0	32712	32774	
1222	0	32736	32720	
1223	0	32688	32642	
1224	0	32698	32673	
1225	0	32784	32768	
1226	0	32760	32828	
1227	0	32864	32666	
1228	0	32868	32772	
1229	0	32844	32753	
1230	0	32860	32634	
1231	0	32888	32799	
1232	0	33004	32770	
1233	0	33012	32720	
1234	0	33172	32868	
1235	0	33156	32908	
1236	0	33098	33034	
1237	0	33140	33183	
1238	0	33142	33220	
1239	0	33050	33159	
1240	0	32998	33172	
1241	0	32942	33184	
1242	0	32880	33054	
1243	0	32794	33012	
1244	0	32768	32980	
1245	0	32820	32743	
1246	0	32670	32714	
1247	0	32708	32594	
1248	0	32772	32688	
1249	0	32736	32583	
1250	0	32744	32588	
1251	0	32712	32612	
1252	0	32652	32608	
1253	0	32640	32556	
1254	0	32692	32754	
1255	0	32606	32609	
1256	0	32700	32644	
1257	0	32738	32742	
1258	0	32746	32657	
1259	0	32744	32754	
1260	0	32780	32788	
1261	0	32770	32762	
1262	0	32820	32667	
1263	0	32772	32804	
1264	0	32764	32710	
1265	0	32820	32727	
1266	0	32832	32848	
1267	0	32864	32832	
1268	0	32760	32774	
1269	0	32740	32822	
1270	0	32856	32766	
1271	0	32792	32660	
1272	0	32870	32766	
1273	0	32832	32737	
1274	0	32812	32655	
1275	0	32764	32788	
1276	0	32766	32712	
1277	0	32808	32759	
1278	0	32828	32856	
1279	0	32856	32834	
1280	0	32838	32741	
1281	0	32884	32766	
1282	0	32810	32693	
1283	0	32764	32800	
1284	0	32858	32628	
1285	0	32848	32707	
1286	0	32854	32741	
1287	0	32860	32724	
1288	0	32816	32754	
1289	0	32796	32771	
1290	0	32880	32628	
1291	0	32784	32838	
1292	0	32832	32880	
1293	0	32780	32736	
1294	0	32848	32792	
1295	0	32770	32826	
1296	0	32846	32724	
1297	0	32832	32810	
1298	0	32840	32820	
1299	0	32874	32824	
1300	0	32782	32775	
1301	0	32792	32827	
1302	0	32794	32742	
1303	0	32784	32822	
1304	0	32808	32876	
1305	0	32854	32704	
1306	0	32796	32842	
1307	0	32822	32774	
1308	0	32770	32818	
1309	0	32836	32846	
1310	0	32844	32718	
1311	0	32820	32752	
1312	0	32804	32756	
1313	0	32864	32876	
1314	0	32820	32820	
1315	0	32826	32688	
1316	0	32738	32752	
1317	0	32766	32775	
1318	0	32784	32698	
1319	0	32840	32729	
1320	0	32880	32740	
1321	0	32768	32678	
1322	0	32830	32746	
1323	0	32774	32767	
1324	0	32900	32800	
1325	0	32838	32720	
1326	0	32786	32726	
1327	0	32874	32652	
1328	0	32816	32846	
1329	0	32860	32828	
1330	0	32828	32730	
1331	0	32856	32774	
1332	0	32844	32892	
1333	0	32780	32760	
1334	0	32800	32750	
1335	0	32772	32772	
1336	0	32752	32743	
1337	0	32706	32775	
1338	0	32804	32789	
1339	0	32760	32691	
1340	0	32812	32836	
1341	0	32840	32826	
1342	0	32896	32744	
1343	0	32880	32775	
1344	0	32810	32830	
1345	0	32816	32774	
1346	0	32850	32719	
1347	0	32746	32862	
1348	0	32756	32796	
1349	0	32804	32714	
1350	0	32784	32670	
1351	0	32788	32770	
1352	0	32834	32680	
1353	0	32840	32730	
1354	0	32798	32764	
1355	0	32828	32596	
1356	0	32856	32751	
1357	0	32816	32770	
1358	0	32772	32758	
1359	0	32852	32870	
1360	0	32762	32838	
1361	0	32852	32716	
1362	0	32876	32914	
1363	0	32804	32830	
1364	0	32832	32728	
1365	0	32810	32714	
1366	0	32770	32718	
1367	0	32836	32775	
1368	0	32834	32756	
1369	0	32820	32772	
1370	0	32818	32742	
1371	0	32775	32664	
1372	0	32788	32834	
1373	0	32736	32820	
1374	0	32734	32692	
1375	0	32824	32708	
1376	0	32874	32748	
1377	0	32814	32694	
1378	0	32830	32844	
1379	0	32838	32768	
1380	0	32744	32772	
1381	0	32736	32678	
1382	0	32738	32832	
1383	0	32808	32734	
1384	0	32848	32775	
1385	0	32838	32730	
1386	0	32844	32836	
1387	0	32796	32802	
1388	0	32782	32766	
1389	0	32804	32798	
1390	0	32832	32698	
1391	0	32824	32762	
1392	0	32798	32740	
1393	0	32800	32804	
1394	0	32770	32735	
1395	0	32896	32728	
1396	0	32846	32765	
1397	0	32834	32775	
1398	0	32902	32724	
1399	0	32828	32838	
1400	0	32808	32814	
1401	0	32768	32688	
1402	0	32808	32799	
1403	0	32782	32854	
1404	0	32834	32658	
1405	0	32836	32810	
1406	0	32792	32833	
1407	0	32842	32719	
1408	0	32856	32753	
1409	0	32880	32772	
1410	0	32802	32669	
1411	0	32796	32656	
1412	0	32792	32764	
1413	0	32752	32840	
1414	0	32812	32775	
1415	0	32788	32686	
1416	0	32740	32750	
1417	0	32690	32862	
1418	0	32820	32694	
1419	0	32826	32743	
1420	0	32796	32753	
1421	0	32746	32887	
1422	0	32816	32838	
1423	0	32864	32700	
1424	0	32876	32812	
1425	0	32715	32756	
1426	0	32798	32788	
1427	0	32770	32835	
1428	0	32812	32826	
1429	0	32780	32792	
1430	0	32760	32660	
1431	0	32780	32756	
1432	0	32844	32758	
1433	0	32872	32725	
1434	0	32828	32752	
1435	0	32844	32720	
1436	0	32792	32690	
1437	0	32764	32775	
1438	0	32810	32787	
1439	0	32804	32700	
1440	0	32806	32704	
1441	0	32796	32775	
1442	0	32848	32798	
1443	0	32802	32854	
1444	0	32808	32762	
1445	0	32746	32804	
1446	0	32846	32775	
1447	0	32868	32703	
1448	0	32880	32760	
1449	0	32908	32884	
1450	0	32754	32684	
1451	0	32782	32774	
1452	0	32768	32850	
1453	0	32884	32712	
1454	0	32848	32846	
1455	0	32838	32728	
1456	0	32810	32804	
1457	0	32770	32880	
1458	0	32828	32814	
1459	0	32800	32775	
1460	0	32808	32760	
1461	0	32844	32856	
1462	0	32810	32728	
1463	0	32800	32702	
1464	0	32813	32796	
1465	0	32768	32892	
1466	0	32873	32716	
1467	0	32860	32750	
1468	0	32834	32762	
1469	0	32804	32725	
1470	0	32796	32732	
1471	0	32817	32775	
1472	0	32840	32790	
1473	0	32784	32798	
1474	0	32842	32826	
1475	0	32816	32703	
1476	0	32840	32802	
1477	0	32814	32800	
1478	0	32812	32702	
1479	0	32882	32887	
1480	0	32828	32750	
1481	0	32864	32711	
1482	0	32812	32790	
1483	0	32840	32796	
1484	0	32808	32642	
1485	0	32872	32718	
1486	0	32832	32740	
1487	0	32808	32903	
1488	0	32764	32796	
1489	0	32818	32750	
1490	0	32828	32808	
1491	0	32852	32844	
1492	0	32780	32674	
1493	0	32744	32862	
1494	0	32840	32775	
1495	0	32756	32719	
1496	0	32820	32774	
1497	0	32800	32804	
1498	0	32792	32706	
1499	0	32796	32847	
1500	0	32802	32736	
1501	0	32830	32734	
1502	0	32848	32740	
1503	0	32784	32698	
1504	0	32812	32656	
1505	0	32774	32870	
1506	0	32818	32825	
1507	0	32804	32719	
1508	0	32820	32704	
1509	0	32844	32775	
1510	0	32772	32698	
1511	0	32830	32823	
1512	0	32746	32678	
1513	0	32806	32818	
1514	0	32814	32892	
1515	0	32824	32856	
1516	0	32844	32744	
1517	0	32828	32774	
1518	0	32844	32799	
1519	0	32800	32790	
1520	0	32784	32852	
1521	0	32744	32832	
1522	0	32840	32711	
1523	0	32800	32744	
1524	0	32860	32724	
1525	0	32754	32702	
1526	0	32852	32836	
1527	0	32846	32762	
1528	0	32788	32654	
1529	0	32798	32846	
1530	0	32804	32823	
1531	0	32796	32655	
1532	0	32804	32750	
1533	0	32742	32744	
1534	0	32792	32764	
1535	0	32768	32796	
1536	0	32810	32790	
1537	0	32800	32727	
1538	0	32864	32870	
1539	0	32866	32734	
1540	0	32836	32747	
1541	0	32804	32808	
1542	0	32760	32839	
1543	0	32834	32686	
1544	0	32804	32854	
1545	0	32808	32768	
1546	0	32858	32638	
1547	0	32784	32820	
1548	0	32826	32820	
1549	0	32832	32704	
1550	0	32786	32743	
1551	0	32841	32742	
1552	0	32760	32740	
1553	0	32744	32732	
1554	0	32868	32730	
1555	0	32780	32828	
1556	0	32801	32804	
1557	0	32780	32730	
1558	0	32838	32819	
1559	0	32780	32775	
1560	0	32846	32676	
1561	0	32852	32784	
1562	0	32788	32874	
1563	0	32868	32839	
1564	0	32802	32804	
1565	0	32864	32760	
1566	0	32824	32796	
1567	0	32812	32834	
1568	0	32798	32744	
1569	0	32862	32775	
1570	0	32804	32705	
1571	0	32826	32846	
1572	0	32832	32806	
1573	0	32734	32696	
1574	0	32807	32830	
1575	0	32770	32728	
1576	0	32768	32795	
1577	0	32828	32775	
1578	0	32860	32666	
1579	0	32804	32698	
1580	0	32800	32732	
1581	0	32796	32772	
1582	0	32782	32787	
1583	0	32806	32852	
1584	0	32828	32675	
1585	0	32784	32792	
1586	0	32776	32814	
1587	0	32790	32714	
1588	0	32868	32774	
1589	0	32856	32775	
1590	0	32876	32676	
1591	0	32788	32724	
1592	0	32788	32646	
1593	0	32798	32808	
1594	0	32780	32775	
1595	0	32848	32682	
1596	0	32824	32903	
1597	0	32712	32807	
1598	0	32780	32800	
1599	0	32810	32788	
1600	0	32852	32792	
1601	0	32808	32716	
1602	0	32790	32798	
1603	0	32752	32694	
1604	0	32832	32806	
1605	0	32868	32831	
1606	0	32890	32619	
1607	0	32808	32774	
1608	0	32832	32830	
1609	0	32846	32652	
1610	0	32848	32807	
1611	0	32800	32798	
1612	0	32832	32652	
1613	0	32776	32847	
1614	0	32814	32742	
1615	0	32788	32756	
1616	0	32848	32694	
1617	0	32836	32796	
1618	0	32786	32830	
1619	0	32802	32792	
1620	0	32820	32785	
1621	0	32832	32700	
1622	0	32814	32636	
1623	0	32774	32724	
1624	0	32772	32844	
1625	0	32784	32772	
1626	0	32792	32726	
1627	0	32782	32630	
1628	0	32820	32817	
1629	0	32770	32786	
1630	0	32780	32631	
1631	0	32886	32774	
1632	0	32816	32760	
1633	0	32868	32839	
1634	0	32888	32721	
1635	0	32804	32672	
1636	0	32706	32775	
1637	0	32798	32748	
1638	0	32770	32844	
1639	0	32808	32812	
1640	0	32836	32766	
1641	0	32828	32848	
1642	0	32910	32838	
1643	0	32810	32782	
1644	0	32806	32884	
1645	0	32792	32794	
1646	0	32772	32742	
1647	0	32866	32841	
1648	0	32792	32744	
1649	0	32822	32775	
1650	0	32870	32775	
1651	0	32836	32636	
1652	0	32796	32700	
1653	0	32800	32734	
1654	0	32836	32738	
1655	0	32806	32806	
1656	0	32836	32784	
1657	0	32764	32666	
1658	0	32748	32798	
1659	0	32832	32852	
1660	0	32782	32664	
1661	0	32758	32775	
1662	0	32808	32819	
1663	0	32836	32775	
1664	0	32828	32795	
1665	0	32812	32680	
1666	0	32840	32734	
1667	0	32816	32850	
1668	0	32860	32711	
1669	0	32816	32764	
1670	0	32816	32856	
1671	0	32796	32752	
1672	0	32824	32807	
1673	0	32756	32727	
1674	0	32788	32732	
1675	0	32836	32612	
1676	0	32736	32840	
1677	0	32810	32864	
1678	0	32848	32712	
1679	0	32808	32771	
1680	0	32860	32718	
1681	0	32864	32810	
1682	0	32845	32728	
1683	0	32812	32724	
1684	0	32824	32842	
1685	0	32788	32828	
1686	0	32814	32807	
1687	0	32768	32839	
1688	0	32810	32848	
1689	0	32806	32794	
1690	0	32820	32706	
1691	0	32816	32756	
1692	0	32772	32738	
1693	0	32778	32748	
1694	0	32800	32754	
1695	0	32820	32742	
1696	0	32744	32892	
1697	0	32938	32724	
1698	0	32856	32826	
1699	0	32844	32730	
1700	0	32792	32806	
1701	0	32834	32756	
1702	0	32874	32682	
1703	0	32848	32744	
1704	0	32822	32762	
1705	0	32742	32798	
1706	0	32816	32681	
1707	0	32788	32724	
1708	0	32808	32756	
1709	0	32848	32754	
1710	0	32874	32774	
1711	0	32760	32728	
1712	0	32864	32767	
1713	0	32820	32689	
1714	0	32736	32820	
1715	0	32832	32894	
1716	0	32788	32728	
1717	0	32848	32826	
1718	0	32768	32828	
1719	0	32836	32740	
1720	0	32784	32865	
1721	0	32836	32752	
1722	0	32770	32728	
1723	0	32812	32823	
1724	0	32802	32764	
1725	0	32788	32703	
1726	0	32864	32794	
1727	0	32796	32748	
1728	0	32802	32722	
1729	0	32828	32752	
1730	0	32836	32796	
1731	0	32864	32772	
1732	0	32796	32820	
1733	0	32844	32852	
1734	0	32844	32730	
1735	0	32846	32879	
1736	0	32748	32622	
1737	0	32768	32772	
1738	0	32784	32828	
1739	0	32802	32880	
1740	0	32760	32832	
1741	0	32752	32692	
1742	0	32804	32876	
1743	0	32837	32832	
1744	0	32864	32754	
1745	0	32816	32775	
1746	0	32780	32792	
1747	0	32832	32678	
1748	0	32824	32808	
1749	0	32832	32724	
1750	0	32784	32846	
1751	0	32798	32782	
1752	0	32824	32720	
1753	0	32832	32850	
1754	0	32776	32824	
1755	0	32826	32640	
1756	0	32816	32802	
1757	0	32788	32750	
1758	0	32844	32848	
1759	0	32790	32754	
1760	0	32808	32711	
1761	0	32816	32720	
1762	0	32808	32916	
1763	0	32848	32711	
1764	0	32818	32796	
1765	0	32806	32670	
1766	0	32800	32807	
1767	0	32824	32846	
1768	0	32810	32664	
1769	0	32828	32764	
1770	0	32806	32810	
1771	0	32754	32744	
1772	0	32840	32804	
1773	0	32844	32642	
1774	0	32742	32768	
1775	0	32828	32828	
1776	0	32760	32772	
1777	0	32868	32771	
1778	0	32788	32715	
1779	0	32764	32900	
1780	0	32822	32794	
1781	0	32774	32692	
1782	0	32772	32762	
1783	0	32770	32786	
1784	0	32788	32674	
1785	0	32798	32775	
1786	0	32822	32816	
1787	0	32945	32705	
1788	0	32792	32846	
1789	0	32844	32740	
1790	0	32810	32700	
1791	0	32826	32720	
1792	0	32784	32772	
1793	0	32740	32856	
1794	0	32816	32876	
1795	0	32818	32724	
1796	0	32772	32750	
1797	0	32796	32754	
1798	0	32720	32830	
1799	0	32766	32718	
1800	0	32888	32612	
1801	0	32810	32775	
1802	0	32764	32830	
1803	0	32784	32664	
1804	0	32792	32693	
1805	0	32826	32734	
1806	0	32844	32775	
1807	0	32826	32766	
1808	0	32768	32708	
1809	0	32866	32804	
1810	0	32878	32756	
1811	0	32856	32698	
1812	0	32828	32870	
1813	0	32756	32832	
1814	0	32828	32698	
1815	0	32806	32800	
1816	0	32778	32652	
1817	0	32868	32788	
1818	0	32784	32814	
1819	0	32864	32744	
1820	0	32826	32746	
1821	0	32792	32726	
1822	0	32796	32856	
1823	0	32778	32788	
1824	0	32786	32828	
1825	0	32884	32732	
1826	0	32820	32765	
1827	0	32788	32760	
1828	0	32838	32784	
1829	0	32870	32679	
1830	0	32808	32768	
1831	0	32824	32734	
1832	0	32812	32801	
1833	0	32800	32852	
1834	0	32824	32775	
1835	0	32764	32740	
1836	0	32866	32784	
1837	0	32780	32816	
1838	0	32858	32738	
1839	0	32868	32826	
1840	0	32810	32754	
1841	0	32794	32852	
1842	0	32804	32758	
1843	0	32798	32684	
1844	0	32804	32747	
1845	0	32872	32660	
1846	0	32868	32846	
1847	0	32844	32806	
1848	0	32780	32683	
1849	0	32784	32705	
1850	0	32840	32894	
1851	0	32828	32748	
1852	0	32766	32772	
1853	0	32788	32775	
1854	0	32788	32718	
1855	0	32798	32812	
1856	0	32828	32860	
1857	0	32808	32758	
1858	0	32832	32738	
1859	0	32868	32686	
1860	0	32808	32856	
1861	0	32836	32807	
1862	0	32868	32664	
1863	0	32820	32727	
1864	0	32820	32854	
1865	0	32868	32708	
1866	0	32794	32808	
1867	0	32840	32770	
1868	0	32800	32730	
1869	0	32780	32775	
1870	0	32889	32846	
1871	0	32792	32719	
1872	0	32800	32854	
1873	0	32816	32847	
1874	0	32736	32855	
1875	0	32740	32762	
1876	0	32836	32704	
1877	0	32794	32826	
1878	0	32849	32724	
1879	0	32792	32676	
1880	0	32852	32870	
1881	0	32768	32771	
1882	0	32792	32696	
1883	0	32834	32810	
1884	0	32844	32760	
1885	0	32880	32772	
1886	0	32724	32758	
1887	0	32828	32832	
1888	0	32848	32760	
1889	0	32804	32775	
1890	0	32832	32862	
1891	0	32804	32790	
1892	0	32744	32750	
1893	0	32768	32760	
1894	0	32816	32838	
1895	0	32860	32862	
1896	0	32768	32711	
1897	0	32784	32806	
1898	0	32796	32770	
1899	0	32854	32721	
1900	0	32796	32716	
1901	0	32776	32721	
1902	0	32880	32743	
1903	0	32800	32804	
1904	0	32878	32758	
1905	0	32828	32844	
1906	0	32890	32697	
1907	0	32816	32756	
1908	0	32864	32700	
1909	0	32858	32832	
1910	0	32752	32783	
1911	0	32804	32774	
1912	0	32772	32770	
1913	0	32868	32768	
1914	0	32792	32840	
1915	0	32770	32775	
1916	0	32774	32744	
1917	0	32816	32775	
1918	0	32784	32772	
1919	0	32784	32871	
1920	0	32836	32870	
1921	0	32812	32754	
1922	0	32832	32891	
1923	0	32774	32750	
1924	0	32824	32839	
1925	0	32826	32847	
1926	0	32832	32903	
1927	0	32856	32714	
1928	0	32788	32856	
1929	0	32808	32688	
1930	0	32784	32682	
1931	0	32804	32743	
1932	0	32768	32620	
1933	0	32768	32664	
1934	0	32768	32576	
1935	0	32732	32574	
1936	0	32697	32500	
1937	0	32682	32654	
1938	0	32752	32684	
1939	0	32676	32704	
1940	0	32802	32684	
1941	0	32740	32796	
1942	0	32804	32695	
1943	0	32790	32663	
1944	0	32762	32660	
1945	0	32752	32662	
1946	0	32746	32782	
1947	0	32788	32678	
1948	0	32804	32810	
1949	0	32780	32706	
1950	0	32828	32836	
1951	0	32856	32722	
1952	0	32878	32820	
1953	0	32918	32788	
1954	0	33014	32676	
1955	0	33052	32864	
1956	0	33144	32909	
1957	0	33102	33026	
1958	0	33044	33190	
1959	0	33128	33241	
1960	0	33108	33172	
1961	0	33052	33110	
1962	0	32908	33063	
1963	0	32889	33071	
1964	0	32904	33073	
1965	0	32908	32938	
1966	0	32788	32866	
1967	0	32740	32794	
1968	0	32692	32688	
1969	0	32712	32572	
1970	0	32714	32690	
1971	0	32736	32519	
1972	0	32712	32586	
1973	0	32692	32640	
1974	0	32732	32550	
1975	0	32766	32602	
1976	0	32704	32720	
1977	0	32624	32609	
1978	0	32740	32748	
1979	0	32722	32664	
1980	0	32708	32688	
1981	0	32726	32804	
1982	0	32720	32610	
1983	0	32722	32844	
1984	0	32728	32756	
1985	0	32792	32602	
1986	0	32800	32784	
1987	0	32800	32775	
1988	0	32844	32764	
1989	0	32848	32752	
1990	0	32792	32756	
1991	0	32880	32804	
1992	0	32752	32727	
1993	0	32844	32732	
1994	0	32812	32800	
1995	0	32788	32716	
1996	0	32840	32702	
1997	0	32832	32869	
1998	0	32842	32738	
1999	0	32828	32720	
2000	0	32820	32850	
2001	0	32784	32775	
2002	0	32832	32700	
2003	0	32838	32764	
2004	0	32865	32852	
2005	0	32856	32752	
2006	0	32772	32768	
2007	0	32908	32728	
2008	0	32808	32812	
2009	0	32752	32788	
2010	0	32832	32724	
2011	0	32836	32812	
2012	0	32832	32694	
2013	0	32810	32746	
2014	0	32882	32807	
2015	0	32800	32822	
2016	0	32788	32748	
2017	0	32792	32932	
2018	0	32844	32832	
2019	0	32768	32756	
2020	0	32756	32816	
2021	0	32908	32742	
2022	0	32916	32645	
2023	0	32804	32836	
2024	0	32864	32802	
2025	0	32846	32660	
2026	0	32800	32712	
2027	0	32823	32766	
2028	0	32782	32640	
2029	0	32820	32788	
2030	0	32804	32775	
2031	0	32796	32702	
2032	0	32752	32878	
2033	0	32816	32756	
2034	0	32720	32706	
2035	0	32816	32838	
2036	0	32812	32818	
2037	0	32848	32800	
2038	0	32832	32798	
2039	0	32852	32805	
2040	0	32860	32784	
2041	0	32830	32826	
2042	0	32832	32799	
2043	0	32798	32812	
2044	0	32820	32696	
2045	0	32820	32774	
2046	0	32772	32852	
2047	0	32776	32695	
2048	0	32820	32812	
2049	0	32884	32782	
2050	0	32806	32820	
2051	0	32862	32794	
2052	0	32848	32723	
2053	0	32816	32743	
2054	0	32814	32775	
2055	0	32804	32762	
2056	0	32780	32740	
2057	0	32746	32807	
2058	0	32800	32834	
2059	0	32784	32770	
2060	0	32804	32746	
2061	0	32840	32775	
2062	0	32735	32699	
2063	0	32858	32796	
2064	0	32822	32728	
2065	0	32804	32764	
2066	0	32808	32704	
2067	0	32808	32822	
2068	0	32872	32852	
2069	0	32820	32727	
2070	0	32842	32816	
2071	0	32852	32846	
2072	0	32816	32630	
2073	0	32816	32764	
2074	0	32704	32806	
2075	0	32796	32704	
2076	0	32778	32775	
2077	0	32814	32811	
2078	0	32809	32657	
2079	0	32816	32718	
2080	0	32816	32865	
2081	0	32800	32687	
2082	0	32808	32692	
2083	0	32820	32814	
2084	0	32872	32808	
2085	0	32780	32758	
2086	0	32816	32724	
2087	0	32800	32824	
2088	0	32804	32684	
2089	0	32834	32820	
2090	0	32802	32754	
2091	0	32840	32647	
2092	0	32794	32820	
2093	0	32816	32712	
2094	0	32808	32864	
2095	0	32832	32864	
2096	0	32846	32750	
2097	0	32820	32864	
2098	0	32756	32724	
2099	0	32834	32756	
2100	0	32792	32743	
2101	0	32740	32828	
2102	0	32772	32768	
2103	0	32736	32750	
2104	0	32792	32774	
2105	0	32800	32618	
2106	0	32850	32823	
2107	0	32792	32792	
2108	0	32890	32712	
2109	0	32884	32774	
2110	0	32816	32713	
2111	0	32912	32772	
2112	0	32836	32722	
2113	0	32804	32818	
2114	0	32892	32752	
2115	0	32796	32727	
2116	0	32774	32775	
2117	0	32796	32876	
2118	0	32810	32775	
2119	0	32824	32760	
2120	0	32712	32807	
2121	0	32810	32874	
2122	0	32774	32806	
2123	0	32784	32734	
2124	0	32836	32738	
2125	0	32802	32742	
2126	0	32776	32838	
2127	0	32832	32740	
2128	0	32832	32796	
2129	0	32864	32730	
2130	0	32798	32714	
2131	0	32836	32848	
2132	0	32760	32711	
2133	0	32800	32862	
2134	0	32772	32814	
2135	0	32834	32728	
2136	0	32760	32806	
2137	0	32728	32751	
2138	0	32804	32807	
2139	0	32836	32838	
2140	0	32820	32848	
2141	0	32802	32934	
2142	0	32880	32794	
2143	0	32836	32775	
2144	0	32784	32640	
2145	0	32718	32730	
2146	0	32852	32734	
2147	0	32800	32820	
2148	0	32784	32738	
2149	0	32864	32743	
2150	0	32768	32770	
2151	0	32812	32671	
2152	0	32785	32772	
2153	0	32804	32820	
2154	0	32836	32828	
2155	0	32842	32756	
2156	0	32828	32710	
2157	0	32832	32775	
2158	0	32850	32804	
2159	0	32822	32711	
2160	0	32892	32876	
2161	0	32831	32870	
2162	0	32836	32714	
2163	0	32742	32790	
2164	0	32754	32816	
2165	0	32848	32604	
2166	0	32834	32816	
2167	0	32820	32743	
2168	0	32804	32618	
2169	0	32768	32796	
2170	0	32773	32828	
2171	0	32842	32664	
2172	0	32780	32798	
2173	0	32854	32852	
2174	0	32852	32698	
2175	0	32800	32836	
2176	0	32750	32804	
2177	0	32772	32796	
2178	0	32848	32775	
2179	0	32860	32788	
2180	0	32828	32853	
2181	0	32812	32868	
2182	0	32804	32663	
2183	0	32852	32775	
2184	0	32870	32759	
2185	0	32848	32718	
2186	0	32856	32798	
2187	0	32782	32710	
2188	0	32800	32694	
2189	0	32804	32840	
2190	0	32872	32774	
2191	0	32766	32714	
2192	0	32826	32830	
2193	0	32816	32775	
2194	0	32812	32803	
2195	0	32804	32775	
2196	0	32790	32800	
2197	0	32844	32710	
2198	0	32810	32810	
2199	0	32856	32760	
2200	0	32790	32721	
2201	0	32762	32812	
2202	0	32834	32822	
2203	0	32780	32811	
2204	0	32804	32726	
2205	0	32796	32684	
2206	0	32848	32687	
2207	0	32804	32768	
2208	0	32778	32798	
2209	0	32896	32834	
2210	0	32898	32791	
2211	0	32862	32838	
2212	0	32872	32792	
2213	0	32846	32796	
2214	0	32826	32674	
2215	0	32764	32676	
2216	0	32901	32698	
2217	0	32790	32798	
2218	0	32798	32744	
2219	0	32768	32752	
2220	0	32778	32668	
2221	0	32762	32775	
2222	0	32816	32759	
2223	0	32832	32774	
2224	0	32838	32756	
2225	0	32756	32888	
2226	0	32764	32846	
2227	0	32804	32720	
2228	0	32796	32838	
2229	0	32775	32768	
2230	0	32792	32792	
2231	0	32788	32808	
2232	0	32844	32876	
2233	0	32854	32742	
2234	0	32852	32887	
2235	0	32838	32647	
2236	0	32786	32746	
2237	0	32783	32758	
2238	0	32756	32736	
2239	0	32796	32758	
2240	0	32776	32714	
2241	0	32804	32726	
2242	0	32862	32772	
2243	0	32838	32764	
2244	0	32780	32737	
2245	0	32800	32806	
2246	0	32832	32836	
2247	0	32824	32743	
2248	0	32832	32732	
2249	0	32792	32711	
2250	0	32872	32772	
2251	0	32780	32798	
2252	0	32854	32864	
2253	0	32838	32762	
2254	0	32780	32807	
2255	0	32756	32791	
2256	0	32736	32743	
2257	0	32824	32838	
2258	0	32772	32724	
2259	0	32760	32746	
2260	0	32792	32772	
2261	0	32890	32892	
2262	0	32826	32775	
2263	0	32804	32824	
2264	0	32788	32688	
2265	0	32812	32932	
2266	0	32766	32775	
2267	0	32790	32754	
2268	0	32874	32775	
2269	0	32820	32684	
2270	0	32802	32756	
2271	0	32795	32789	
2272	0	32816	32622	
2273	0	32808	32848	
2274	0	32778	32826	
2275	0	32804	32686	
2276	0	32836	32782	
2277	0	32888	32774	
2278	0	32808	32840	
2279	0	32896	32799	
2280	0	32840	32800	
2281	0	32808	32759	
2282	0	32834	32759	
2283	0	32876	32806	
2284	0	32814	32722	
2285	0	32814	32757	
2286	0	32828	32834	
2287	0	32772	32710	
2288	0	32834	32792	
2289	0	32786	32830	
2290	0	32804	32673	
2291	0	32792	32756	
2292	0	32782	32722	
2293	0	32828	32872	
2294	0	32802	32800	
2295	0	32820	32687	
2296	0	32800	32786	
2297	0	32806	32700	
2298	0	32810	32816	
2299	0	32836	32832	
2300	0	32834	32804	
2301	0	32788	32736	
2302	0	32828	32696	
2303	0	32760	32828	
2304	0	32788	32762	
2305	0	32840	32746	
2306	0	32810	32796	
2307	0	32856	32826	
2308	0	32775	32655	
2309	0	32832	32716	
2310	0	32744	32830	
2311	0	32816	32742	
2312	0	32812	32774	
2313	0	32746	32822	
2314	0	32776	32744	
2315	0	32821	32728	
2316	0	32780	32712	
2317	0	32792	32822	
2318	0	32808	32800	
2319	0	32784	32750	
2320	0	32864	32822	
2321	0	32901	32854	
2322	0	32796	32770	
2323	0	32812	32796	
2324	0	32776	32728	
2325	0	32770	32732	
2326	0	32834	32766	
2327	0	32782	32682	
2328	0	32868	32856	
2329	0	32772	32830	
2330	0	32852	32768	
2331	0	32788	32775	
2332	0	32772	32799	
2333	0	32828	32752	
2334	0	32812	32798	
2335	0	32785	32872	
2336	0	32832	32668	
2337	0	32804	32775	
2338	0	32804	32666	
2339	0	32832	32836	
2340	0	32740	32750	
2341	0	32820	32678	
2342	0	32832	32912	
2343	0	32828	32770	
2344	0	32812	32756	
2345	0	32824	32649	
2346	0	32830	32748	
2347	0	32860	32746	
2348	0	32816	32796	
2349	0	32838	32736	
2350	0	32830	32695	
2351	0	32776	32850	
2352	0	32778	32736	
2353	0	32828	32800	
2354	0	32794	32692	
2355	0	32856	32761	
2356	0	32800	32791	
2357	0	32800	32736	
2358	0	32872	32764	
2359	0	32760	32882	
2360	0	32780	32735	
2361	0	32826	32793	
2362	0	32780	32784	
2363	0	32788	32759	
2364	0	32868	32757	
2365	0	32824	32828	
2366	0	32866	32688	
2367	0	32850	32786	
2368	0	32796	32804	
2369	0	32820	32884	
2370	0	32832	32846	
2371	0	32862	32652	
2372	0	32804	32836	
2373	0	32844	32742	
2374	0	32769	32792	
2375	0	32768	32790	
2376	0	32780	32648	
2377	0	32794	32771	
2378	0	32844	32834	
2379	0	32756	32844	
2380	0	32860	32744	
2381	0	32860	32647	
2382	0	32840	32775	
2383	0	32804	32775	
2384	0	32816	32757	
2385	0	32804	32713	
2386	0	32792	32762	
2387	0	32812	32712	
2388	0	32788	32754	
2389	0	32808	32747	
2390	0	32794	32888	
2391	0	32838	32856	
2392	0	32808	32758	
2393	0	32792	32766	
2394	0	32788	32784	
2395	0	32808	32846	
2396	0	32856	32689	
2397	0	32750	32794	
2398	0	32816	32794	
2399	0	32837	32834	
2400	0	32796	32700	
2401	0	32832	32786	
2402	0	32762	32796	
2403	0	32784	32666	
2404	0	32804	32711	
2405	0	32860	32800	
2406	0	32824	32832	
2407	0	32880	32679	
2408	0	32768	32801	
2409	0	32762	32738	
2410	0	32794	32814	
2411	0	32792	32824	
2412	0	32780	32754	
2413	0	32876	32678	
2414	0	32796	32700	
2415	0	32794	32750	
2416	0	32804	32756	
2417	0	32860	32784	
2418	0	32748	32698	
2419	0	32760	32784	
2420	0	32800	32775	
2421	0	32844	32788	
2422	0	32788	32714	
2423	0	32836	32768	
2424	0	32844	32818	
2425	0	32872	32694	
2426	0	32796	32871	
2427	0	32802	32848	
2428	0	32852	32624	
2429	0	32846	32826	
2430	0	32838	32770	
2431	0	32826	32802	
2432	0	32744	32702	
2433	0	32756	32759	
2434	0	32766	32796	
2435	0	32800	32740	
2436	0	32808	32775	
2437	0	32780	32791	
2438	0	32788	32807	
2439	0	32832	32814	
2440	0	32812	32638	
2441	0	32792	32882	
2442	0	32750	32711	
2443	0	32788	32718	
2444	0	32792	32770	
2445	0	32868	32812	
2446	0	32836	32760	
2447	0	32776	32696	
2448	0	32800	32760	
2449	0	32862	32768	
2450	0	32849	32700	
2451	0	32848	32802	
2452	0	32834	32872	
2453	0	32780	32826	
2454	0	32782	32758	
2455	0	32824	32775	
2456	0	32830	32836	
2457	0	32794	32775	
2458	0	32844	32740	
2459	0	32814	32734	
2460	0	32820	32801	
2461	0	32824	32814	
2462	0	32812	32668	
2463	0	32816	32734	
2464	0	32812	32858	
2465	0	32796	32662	
2466	0	32804	32804	
2467	0	32752	32812	
2468	0	32848	32702	
2469	0	32784	32754	
2470	0	32832	32806	
2471	0	32870	32762	
2472	0	32750	32647	
2473	0	32846	32726	
2474	0	32832	32814	
2475	0	32796	32794	
2476	0	32796	32802	
2477	0	32892	32798	
2478	0	32848	32694	
2479	0	32824	32884	
2480	0	32858	32827	
2481	0	32820	32758	
2482	0	32808	32758	
2483	0	32824	32756	
2484	0	32844	32846	
2485	0	32810	32770	
2486	0	32748	32790	
2487	0	32790	32762	
2488	0	32776	32714	
2489	0	32836	32814	
2490	0	32826	32761	
2491	0	32902	32660	
2492	0	32800	32800	
2493	0	32736	32814	
2494	0	32744	32694	
2495	0	32760	32786	
2496	0	32868	32726	
2497	0	33002	32690	
2498	0	32996	32712	
2499	0	32876	32836	
2500	0	32712	32700	
2501	0	32788	32800	
2502	0	32816	32880	
2503	0	32764	32775	
2504	0	32864	32712	
2505	0	32792	32864	
2506	0	32794	32743	
2507	0	32884	32775	
2508	0	32810	32687	
2509	0	32880	32872	
2510	0	32824	32860	
2511	0	32808	32748	
2512	0	32800	32806	
2513	0	32800	32877	
2514	0	32796	32684	
2515	0	32834	32814	
2516	0	32830	32767	
2517	0	32780	32730	
2518	0	32810	32808	
2519	0	32808	32798	
2520	0	32760	32748	
2521	0	32806	32660	
2522	0	32840	32770	
2523	0	32798	32862	
2524	0	32724	32752	
2525	0	32764	32727	
2526	0	32816	32775	
2527	0	32832	32816	
2528	0	32732	32711	
2529	0	32816	32922	
2530	0	32856	32718	
2531	0	32832	32728	
2532	0	32840	32678	
2533	0	32900	32727	
2534	0	32740	32799	
2535	0	32776	32692	
2536	0	32794	32794	
2537	0	32854	32708	
2538	0	32764	32700	
2539	0	32844	32766	
2540	0	32812	32858	
2541	0	32866	32711	
2542	0	32812	32775	
2543	0	32836	32862	
2544	0	32788	32800	
2545	0	32872	32886	
2546	0	32868	32796	
2547	0	32804	32707	
2548	0	32836	32796	
2549	0	32826	32760	
2550	0	32756	32726	
2551	0	32788	32791	
2552	0	32760	32718	
2553	0	32820	32706	
2554	0	32872	32868	
2555	0	32780	32775	
2556	0	32802	32806	
2557	0	32848	32735	
2558	0	32784	32786	
2559	0	32788	32800	
2560	0	32768	32883	
2561	0	32864	32775	
2562	0	32864	32742	
2563	0	32862	32768	
2564	0	32836	32834	
2565	0	32844	32683	
2566	0	32844	32818	
2567	0	32802	32742	
2568	0	32728	32752	
2569	0	32798	32732	
2570	0	32802	32734	
2571	0	32764	32699	
2572	0	32816	32766	
2573	0	32734	32686	
2574	0	32752	32708	
2575	0	32802	32878	
2576	0	32788	32828	
2577	0	32836	32623	
2578	0	32776	32815	
2579	0	32841	32870	
2580	0	32804	32743	
2581	0	32804	32732	
2582	0	32812	32806	
2583	0	32836	32788	
2584	0	32862	32796	
2585	0	32832	32672	
2586	0	32870	32824	
2587	0	32812	32791	
2588	0	32837	32788	
2589	0	32790	32700	
2590	0	32834	32724	
2591	0	32744	32766	
2592	0	32820	32742	
2593	0	32784	32810	
2594	0	32728	32806	
2595	0	32818	32676	
2596	0	32824	32852	
2597	0	32804	32790	
2598	0	32704	32678	
2599	0	32808	32788	
2600	0	32856	32796	
2601	0	32880	32643	
2602	0	32830	32775	
2603	0	32820	32814	
2604	0	32764	32742	
2605	0	32896	32839	
2606	0	32794	32892	
2607	0	32868	32674	
2608	0	32774	32790	
2609	0	32756	32748	
2610	0	32804	32804	
2611	0	32756	32770	
2612	0	32880	32638	
2613	0	32784	32754	
2614	0	32826	32818	
2615	0	32780	32740	
2616	0	32918	32729	
2617	0	32888	32775	
2618	0	32838	32786	
2619	0	32852	32785	
2620	0	32800	32704	
2621	0	32848	32775	
2622	0	32768	32714	
2623	0	32884	32804	
2624	0	32832	32671	
2625	0	32762	32760	
2626	0	32804	32724	
2627	0	32804	32717	
2628	0	32840	32842	
2629	0	32864	32812	
2630	0	32808	32764	
2631	0	32868	32834	
2632	0	32874	32808	
2633	0	32808	32658	
2634	0	32760	32878	
2635	0	32828	32775	
2636	0	32796	32688	
2637	0	32842	32814	
2638	0	32864	32840	
2639	0	32822	32743	
2640	0	32834	32820	
2641	0	32832	32789	
2642	0	32736	32706	
2643	0	32833	32848	
2644	0	32784	32839	
2645	0	32740	32716	
2646	0	32730	32808	
2647	0	32744	32775	
2648	0	32768	32770	
2649	0	32786	32854	
2650	0	32836	32759	
2651	0	32828	32687	
2652	0	32796	32752	
2653	0	32788	32754	
2654	0	32824	32704	
2655	0	32724	32752	
2656	0	32740	32732	
2657	0	32720	32572	
2658	0	32672	32690	
2659	0	32740	32678	
2660	0	32744	32535	
2661	0	32732	32670	
2662	0	32776	32664	
2663	0	32700	32572	
2664	0	32690	32660	
2665	0	32712	32644	
2666	0	32740	32600	
2667	0	32720	32696	
2668	0	32756	32775	
2669	0	32770	32692	
2670	0	32824	32730	
2671	0	32852	32721	
2672	0	32820	32598	
2673	0	32824	32652	
2674	0	32964	32748	
2675	0	32956	32672	
2676	0	33048	32848	
2677	0	33048	33057	
2678	0	33052	33046	
2679	0	33148	33220	
2680	0	33090	33120	
2681	0	33064	33234	
2682	0	33024	33185	
2683	0	33002	33084	
2684	0	32976	33055	
2685	0	32932	33031	
2686	0	32864	33002	
2687	0	32810	32824	
2688	0	32724	32756	
2689	0	32716	32722	
2690	0	32696	32541	
2691	0	32684	32664	
2692	0	32714	32632	
2693	0	32708	32516	
2694	0	32722	32606	
2695	0	32588	32554	
2696	0	32664	32652	
2697	0	32700	32626	
2698	0	32673	32519	
2699	0	32760	32700	
2700	0	32724	32725	
2701	0	32732	32764	
2702	0	32764	32742	
2703	0	32732	32680	
2704	0	32840	32826	
2705	0	32808	32865	
2706	0	32756	32654	
2707	0	32784	32828	
2708	0	32730	32818	
2709	0	32836	32754	
2710	0	32882	32802	
2711	0	32852	32748	
2712	0	32828	32796	
2713	0	32832	32706	
2714	0	32808	32684	
2715	0	32864	32694	
2716	0	32828	32800	
2717	0	32760	32754	
2718	0	32800	32642	
2719	0	32860	32798	
2720	0	32864	32843	
2721	0	32862	32682	
2722	0	32800	32774	
2723	0	32800	32758	
2724	0	32860	32712	
2725	0	32800	32800	
2726	0	32808	32792	
2727	0	32816	32732	
2728	0	32834	32738	
2729	0	32872	32698	
2730	0	32784	32766	
2731	0	32762	32806	
2732	0	32746	32822	
2733	0	32808	32740	
2734	0	32846	32820	
2735	0	32820	32814	
2736	0	32830	32690	
2737	0	32800	32820	
2738	0	32806	32775	
2739	0	32830	32726	
2740	0	32772	32871	
2741	0	32872	32694	
2742	0	32808	32791	
2743	0	32834	32740	
2744	0	32814	32849	
2745	0	32752	32750	
2746	0	32864	32796	
2747	0	32820	32678	
2748	0	32864	32784	
2749	0	32852	32743	
2750	0	32810	32852	
2751	0	32860	32816	
2752	0	32808	32636	
2753	0	32788	32761	
2754	0	32828	32842	
2755	0	32828	32694	
2756	0	32832	32775	
2757	0	32772	32762	
2758	0	32788	32750	
2759	0	32813	32710	
2760	0	32772	32822	
2761	0	32816	32694	
2762	0	32869	32827	
2763	0	32828	32856	
2764	0	32806	32686	
2765	0	32769	32810	
2766	0	32848	32775	
2767	0	32834	32866	
2768	0	32896	32718	
2769	0	32796	32818	
2770	0	32866	32822	
2771	0	32794	32700	
2772	0	32792	32682	
2773	0	32836	32756	
2774	0	32792	32818	
2775	0	32800	32830	
2776	0	32736	32698	
2777	0	32832	32828	
2778	0	32822	32744	
2779	0	32808	32832	
2780	0	32806	32666	
2781	0	32724	32792	
2782	0	32784	32775	
2783	0	32878	32743	
2784	0	32820	32694	
2785	0	32810	32909	
2786	0	32804	32796	
2787	0	32768	32906	
2788	0	32820	32616	
2789	0	32872	32766	
2790	0	32816	32858	
2791	0	32800	32727	
2792	0	32798	32834	
2793	0	32738	32754	
2794	0	32800	32732	
2795	0	32768	32750	
2796	0	32812	32711	
2797	0	32796	32708	
2798	0	32876	32732	
2799	0	32820	32748	
2800	0	32784	32698	
2801	0	32824	32734	
2802	0	32812	32775	
2803	0	32774	32678	
2804	0	32740	32775	
2805	0	32796	32867	
2806	0	32846	32738	
2807	0	32832	32736	
2808	0	32825	32856	
2809	0	32808	32734	
2810	0	32778	32814	
2811	0	32832	32764	
2812	0	32788	32734	
2813	0	32800	32802	
2814	0	32768	32831	
2815	0	32792	32727	
2816	0	32856	32768	
2817	0	32796	32834	
2818	0	32824	32714	
2819	0	32842	32788	
2820	0	32848	32792	
2821	0	32828	32742	
2822	0	32816	32718	
2823	0	32792	32792	
2824	0	32796	32740	
2825	0	32840	32772	
2826	0	32800	32900	
2827	0	32834	32666	
2828	0	32776	32850	
2829	0	32816	32748	
2830	0	32836	32784	
2831	0	32824	32766	
2832	0	32836	32775	
2833	0	32781	32808	
2834	0	32866	32723	
2835	0	32812	32616	
2836	0	32742	32800	
2837	0	32772	32796	
2838	0	32804	32866	
2839	0	32838	32759	
2840	0	32816	32748	
2841	0	32828	32792	
2842	0	32848	32730	
2843	0	32830	32762	
2844	0	32788	32696	
2845	0	32774	32800	
2846	0	32798	32679	
2847	0	32816	32838	
2848	0	32828	32727	
2849	0	32784	32790	
2850	0	32860	32719	
2851	0	32808	32760	
2852	0	32852	32798	
2853	0	32848	32759	
2854	0	32844	32743	
2855	0	32784	32746	
2856	0	32788	32692	
2857	0	32817	32876	
2858	0	32712	32812	
2859	0	32776	32816	
2860	0	32820	32718	
2861	0	32832	32843	
2862	0	32828	32948	
2863	0	32829	32688	
2864	0	32804	32741	
2865	0	32804	32756	
2866	0	32868	32789	
2867	0	32796	32716	
2868	0	32866	32734	
2869	0	32804	32852	
2870	0	32756	32700	
2871	0	32752	32743	
2872	0	32792	32762	
2873	0	32888	32734	
2874	0	32774	32812	
2875	0	32828	32716	
2876	0	32823	32741	
2877	0	32772	32706	
2878	0	32812	32790	
2879	0	32788	32759	
2880	0	32744	32746	
2881	0	32898	32785	
2882	0	32804	32852	
2883	0	32836	32711	
2884	0	32820	32748	
2885	0	32900	32766	
2886	0	32842	32722	
2887	0	32828	32775	
2888	0	32788	32722	
2889	0	32796	32768	
2890	0	32874	32740	
2891	0	32868	32774	
2892	0	32774	32716	
2893	0	32778	32766	
2894	0	32786	32756	
2895	0	32798	32828	
2896	0	32752	32706	
2897	0	32792	32876	
2898	0	32822	32864	
2899	0	32784	32672	
2900	0	32854	32768	
2901	0	32788	32854	
2902	0	32754	32730	
2903	0	32800	32775	
2904	0	32800	32878	
2905	0	32812	32678	
2906	0	32802	32825	
2907	0	32820	32810	
2908	0	32810	32722	
2909	0	32892	32814	
2910	0	32844	32687	
2911	0	32818	32830	
2912	0	32824	32810	
2913	0	32836	32806	
2914	0	32792	32764	
2915	0	32792	32822	
2916	0	32874	32676	
2917	0	32828	32709	
2918	0	32874	32692	
2919	0	32828	32775	
2920	0	32796	32726	
2921	0	32816	32862	
2922	0	32836	32840	
2923	0	32780	32764	
2924	0	32796	32791	
2925	0	32880	32666	
2926	0	32820	32816	
2927	0	32792	32811	
2928	0	32832	32724	
2929	0	32804	32804	
2930	0	32796	32812	
2931	0	32840	32767	
2932	0	32792	32878	
2933	0	32790	32784	
2934	0	32734	32839	
2935	0	32775	32736	
2936	0	32832	32799	
2937	0	32792	32775	
2938	0	32840	32804	
2939	0	32892	32785	
2940	0	32852	32696	
2941	0	32876	32775	
2942	0	32774	32835	
2943	0	32778	32686	
2944	0	32802	32740	
2945	0	32792	32735	
2946	0	32776	32775	
2947	0	32794	32791	
2948	0	32832	32858	
2949	0	32852	32688	
2950	0	32844	32708	
2951	0	32844	32832	
2952	0	32840	32743	
2953	0	32844	32744	
2954	0	32772	32748	
2955	0	32792	32753	
2956	0	32746	32746	
2957	0	32810	32832	
2958	0	32772	32775	
2959	0	32808	32711	
2960	0	32812	32719	
2961	0	32868	32788	
2962	0	32818	32725	
2963	0	32760	32753	
2964	0	32798	32864	
2965	0	32802	32696	
2966	0	32798	32846	
2967	0	32824	32826	
2968	0	32824	32700	
2969	0	32876	32798	
2970	0	32804	32748	
2971	0	32800	32646	
2972	0	32764	32748	
2973	0	32772	32816	
2974	0	32836	32732	
2975	0	32784	32786	
2976	0	32766	32852	
2977	0	32784	32703	
2978	0	32788	32796	
2979	0	32876	32790	
2980	0	32822	32740	
2981	0	32784	32784	
2982	0	32800	32798	
2983	0	32814	32694	
2984	0	32844	32867	
2985	0	32852	32820	
2986	0	32828	32775	
2987	0	32808	32711	
2988	0	32872	32838	
2989	0	32840	32900	
2990	0	32768	32676	
2991	0	32782	32822	
2992	0	32800	32775	
2993	0	32806	32775	
2994	0	32906	32758	
2995	0	32876	32670	
2996	0	32856	32754	
2997	0	32832	32808	
2998	0	32782	32832	
2999	0	32856	32704	
3000	0	32806	32752	
3001	0	32844	32775	
3002	0	32740	32810	
3003	0	32804	32679	
3004	0	32800	32759	
3005	0	32808	32727	
3006	0	32756	32708	
3007	0	32788	32766	
3008	0	32796	32814	
3009	0	32856	32724	
3010	0	32864	32810	
3011	0	32862	32775	
3012	0	32842	32698	
3013	0	32834	32698	
3014	0	32772	32762	
3015	0	32852	32862	
3016	0	32780	32692	
3017	0	32860	32860	
3018	0	32820	32839	
3019	0	32840	32699	
3020	0	32816	32772	
3021	0	32808	32861	
3022	0	32852	32702	
3023	0	32800	32724	
3024	0	32812	32750	
3025	0	32868	32854	
3026	0	32782	32722	
3027	0	32792	32698	
3028	0	32770	32647	
3029	0	32796	32752	
3030	0	32820	32710	
3031	0	32774	32762	
3032	0	32755	32814	
3033	0	32824	32710	
3034	0	32852	32855	
3035	0	32776	32816	
3036	0	32832	32688	
3037	0	32756	32784	
3038	0	32836	32676	
3039	0	32800	32862	
3040	0	32904	32834	
3041	0	32836	32800	
3042	0	32842	32788	
3043	0	32784	32716	
3044	0	32824	32796	
3045	0	32808	32838	
3046	0	32804	32716	
3047	0	32832	32758	
3048	0	32834	32775	
3049	0	32832	32678	
3050	0	32820	32798	
3051	0	32804	32728	
3052	0	32844	32752	
3053	0	32802	32856	
3054	0	32800	32766	
3055	0	32884	32630	
3056	0	32824	32810	
3057	0	32768	32746	
3058	0	32782	32714	
3059	0	32792	32834	
3060	0	32804	32714	
3061	0	32836	32862	
3062	0	32766	32756	
3063	0	32810	32775	
3064	0	32868	32706	
3065	0	32820	32743	
3066	0	32836	32800	
3067	0	32840	32764	
3068	0	32888	32735	
3069	0	32872	32804	
3070	0	32828	32804	
3071	0	32744	32759	
3072	0	32852	32791	
3073	0	32776	32768	
3074	0	32836	32726	
3075	0	32756	32710	
3076	0	32788	32676	
3077	0	32804	32841	
3078	0	32808	32798	
3079	0	32780	32700	
3080	0	32756	32830	
3081	0	32848	32775	
3082	0	32816	32806	
3083	0	32868	32780	
3084	0	32866	32742	
3085	0	32820	32838	
3086	0	32846	32820	
3087	0	32804	32762	
3088	0	32800	32736	
3089	0	32800	32792	
3090	0	32772	32740	
3091	0	32768	32775	
3092	0	32780	32775	
3093	0	32870	32807	
3094	0	32796	32772	
3095	0	32808	32724	
3096	0	32784	32830	
3097	0	32868	32714	
3098	0	32856	32736	
3099	0	32852	32808	
3100	0	32860	32868	
3101	0	32828	32792	
3102	0	32727	32752	
3103	0	32804	32808	
3104	0	32748	32732	
3105	0	32752	32798	
3106	0	32820	32824	
3107	0	32780	32686	
3108	0	32784	32732	
3109	0	32816	32806	
3110	0	32770	32878	
3111	0	32864	32794	
3112	0	32804	32622	
3113	0	32832	32784	
3114	0	32832	32774	
3115	0	32810	32690	
3116	0	32772	32743	
3117	0	32814	32742	
3118	0	32804	32799	
3119	0	32732	32694	
3120	0	32800	32720	
3121	0	32853	32795	
3122	0	32798	32696	
3123	0	32808	32756	
3124	0	32858	32727	
3125	0	32788	32812	
3126	0	32816	32862	
3127	0	32812	32714	
3128	0	32858	32794	
3129	0	32800	32847	
3130	0	32836	32690	
3131	0	32792	32758	
3132	0	32834	32788	
3133	0	32798	32743	
3134	0	32780	32823	
3135	0	32788	32801	
3136	0	32774	32748	
3137	0	32794	32803	
3138	0	32844	32801	
3139	0	32784	32810	
3140	0	32808	32728	
3141	0	32800	32746	
3142	0	32839	32718	
3143	0	32800	32810	
3144	0	32822	32730	
3145	0	32852	32868	
3146	0	32806	32774	
3147	0	32775	32814	
3148	0	32828	32804	
3149	0	32788	32830	
3150	0	32881	32746	
3151	0	32810	32674	
3152	0	32800	32698	
3153	0	32794	32828	
3154	0	32824	32800	
3155	0	32784	32734	
3156	0	32732	32720	
3157	0	32812	32666	
3158	0	32812	32825	
3159	0	32832	32756	
3160	0	32778	32758	
3161	0	32774	32775	
3162	0	32868	32630	
3163	0	32788	32764	
3164	0	32768	32842	
3165	0	32818	32788	
3166	0	32840	32814	
3167	0	32822	32719	
3168	0	32868	32824	
3169	0	32836	32744	
3170	0	32892	32646	
3171	0	32796	32714	
3172	0	32888	32700	
3173	0	32852	32808	
3174	0	32834	32806	
3175	0	32816	32752	
3176	0	32788	32852	
3177	0	32800	32715	
3178	0	32804	32775	
3179	0	32770	32784	
3180	0	32748	32791	
3181	0	32816	32834	
3182	0	32778	32775	
3183	0	32812	32720	
3184	0	32876	32650	
3185	0	32852	32830	
3186	0	32832	32726	
3187	0	32808	32654	
3188	0	32724	32802	
3189	0	32784	32810	
3190	0	32832	32706	
3191	0	32816	32720	
3192	0	32876	32750	
3193	0	32782	32668	
3194	0	32774	32790	
3195	0	32780	32796	
3196	0	32800	32712	
3197	0	32836	32839	
3198	0	32842	32734	
3199	0	32816	32740	
3200	0	32804	32756	
3201	0	32784	32826	
3202	0	32836	32867	
3203	0	32756	32730	
3204	0	32730	32722	
3205	0	32836	32742	
3206	0	32842	32836	
3207	0	32792	32735	
3208	0	32808	32758	
3209	0	32840	32788	
3210	0	32724	32830	
3211	0	32798	32654	
3212	0	32794	32890	
3213	0	32780	32775	
3214	0	32804	32746	
3215	0	32848	32784	
3216	0	32780	32756	
3217	0	32838	32769	
3218	0	32852	32764	
3219	0	32824	32816	
3220	0	32832	32862	
3221	0	32848	32640	
3222	0	32812	32798	
3223	0	32784	32855	
3224	0	32790	32807	
3225	0	32792	32766	
3226	0	32808	32828	
3227	0	32804	32775	
3228	0	32788	32689	
3229	0	32848	32828	
3230	0	32852	32686	
3231	0	32876	32743	
3232	0	32840	32670	
3233	0	32762	32726	
3234	0	32888	32756	
3235	0	32796	32871	
3236	0	32894	32744	
3237	0	32856	32706	
3238	0	32772	32806	
3239	0	32740	32800	
3240	0	32776	32684	
3241	0	32810	32884	
3242	0	32836	32844	
3243	0	32830	32679	
3244	0	32902	32792	
3245	0	32798	32759	
3246	0	32796	32794	
3247	0	32788	32807	
3248	0	32788	32724	
3249	0	32772	32842	
3250	0	32812	32732	
3251	0	32820	32766	
3252	0	32852	32740	
3253	0	32784	32678	
3254	0	32804	32772	
3255	0	32818	32804	
3256	0	32820	32700	
3257	0	32836	32846	
3258	0	32812	32734	
3259	0	32840	32672	
3260	0	32836	32808	
3261	0	32808	32796	
3262	0	32828	32716	
3263	0	32824	32824	
3264	0	32772	32692	
3265	0	32796	32736	
3266	0	32852	32673	
3267	0	32792	32834	
3268	0	32812	32800	
3269	0	32846	32719	
3270	0	32752	32826	
3271	0	32842	32743	
3272	0	32828	32796	
3273	0	32770	32700	
3274	0	32778	32802	
3275	0	32808	32742	
3276	0	32792	32767	
3277	0	32786	32792	
3278	0	32812	32847	
3279	0	32858	32747	
3280	0	32784	32696	
3281	0	32794	32748	
3282	0	32916	32720	
3283	0	32804	32716	
3284	0	32832	32744	
3285	0	32846	32860	
3286	0	32824	32724	
3287	0	32868	32862	
3288	0	32812	32818	
3289	0	32780	32775	
3290	0	32794	32830	
3291	0	32740	32775	
3292	0	32772	32832	
3293	0	32828	32913	
3294	0	32812	32722	
3295	0	32832	32762	
3296	0	32848	32683	
3297	0	32820	32884	
3298	0	32846	32844	
3299	0	32812	32774	
3300	0	32832	32772	
3301	0	32936	32762	
3302	0	32812	32842	
3303	0	32856	32806	
3304	0	32868	32742	
3305	0	32724	32826	
3306	0	32836	32768	
3307	0	32782	32713	
3308	0	32772	32775	
3309	0	32760	32828	
3310	0	32864	32800	
3311	0	32836	32752	
3312	0	32804	32726	
3313	0	32770	32736	
3314	0	32760	32757	
3315	0	32836	32711	
3316	0	32808	32842	
3317	0	32746	32751	
3318	0	32830	32712	
3319	0	32820	32850	
3320	0	32860	32746	
3321	0	32808	32775	
3322	0	32862	32748	
3323	0	32860	32826	
3324	0	32816	32756	
3325	0	32768	32804	
3326	0	32808	32846	
3327	0	32840	32820	
3328	0	32784	32839	
3329	0	32840	32756	
3330	0	32840	32666	
3331	0	32806	32839	
3332	0	32816	32759	
3333	0	32799	32708	
3334	0	32816	32860	
3335	0	32869	32798	
3336	0	32880	32696	
3337	0	32796	32764	
3338	0	32804	32760	
3339	0	32844	32812	
3340	0	32818	32772	
3341	0	32834	32775	
3342	0	32868	32839	
3343	0	32848	32874	
3344	0	32804	32846	
3345	0	32792	32750	
3346	0	32792	32769	
3347	0	32842	32824	
3348	0	32808	32864	
3349	0	32782	32839	
3350	0	32792	32770	
3351	0	32766	32880	
3352	0	32812	32732	
3353	0	32846	32676	
3354	0	32868	32714	
3355	0	32708	32807	
3356	0	32774	32764	
3357	0	32784	32644	
3358	0	32800	32606	
3359	0	32744	32620	
3360	0	32764	32663	
3361	0	32748	32658	
3362	0	32758	32679	
3363	0	32772	32612	
3364	0	32744	32600	
3365	0	32740	32632	
3366	0	32732	32632	
3367	0	32748	32599	
3368	0	32740	32698	
3369	0	32740	32746	
3370	0	32692	32734	
3371	0	32704	32736	
3372	0	32820	32806	
3373	0	32780	32663	
3374	0	32872	32750	
3375	0	32832	32832	
3376	0	32868	32630	
3377	0	32864	32680	
3378	0	32910	32697	
3379	0	32984	32762	
3380	0	33020	32928	
3381	0	33064	33066	
3382	0	33158	33079	
3383	0	33052	33159	
3384	0	33042	33262	
3385	0	33132	33062	
3386	0	33018	33176	
3387	0	32964	33108	
3388	0	32896	32984	
3389	0	32834	32926	
3390	0	32834	32988	
3391	0	32776	32775	
3392	0	32684	32692	
3393	0	32624	32598	
3394	0	32820	32635	
3395	0	32720	32574	
3396	0	32688	32647	
3397	0	32678	32532	
3398	0	32700	32646	
3399	0	32727	32598	
3400	0	32720	32642	
3401	0	32704	32576	
3402	0	32732	32686	
3403	0	32692	32810	
3404	0	32738	32806	
3405	0	32716	32674	
3406	0	32772	32668	
3407	0	32788	32756	
3408	0	32780	32842	
3409	0	32720	32748	
3410	0	32768	32742	
3411	0	32776	32863	
3412	0	32842	32783	
3413	0	32858	32775	
3414	0	32848	32790	
3415	0	32832	32686	
3416	0	32758	32604	
3417	0	32764	32676	
3418	0	32868	32689	
3419	0	32824	32860	
3420	0	32872	32762	
3421	0	32872	32775	
3422	0	32770	32644	
3423	0	32780	32730	
3424	0	32800	32858	
3425	0	32838	32728	
3426	0	32796	32828	
3427	0	32788	32874	
3428	0	32800	32719	
3429	0	32802	32808	
3430	0	32784	32788	
3431	0	32876	32734	
3432	0	32812	32756	
3433	0	32792	32814	
3434	0	32868	32718	
3435	0	32826	32775	
3436	0	32808	32720	
3437	0	32812	32670	
3438	0	32884	32794	
3439	0	32864	32752	
3440	0	32726	32828	
3441	0	32736	32736	
3442	0	32832	32807	
3443	0	32772	32770	
3444	0	32804	32679	
3445	0	32808	32768	
3446	0	32884	32823	
3447	0	32788	32734	
3448	0	32820	32740	
3449	0	32788	32860	
3450	0	32760	32852	
3451	0	32760	32746	
3452	0	32814	32791	
3453	0	32756	32816	
3454	0	32914	32720	
3455	0	32812	32692	
3456	0	32834	32775	
3457	0	32852	32792	
3458	0	32769	32684	
3459	0	32808	32772	
3460	0	32752	32838	
3461	0	32800	32676	
3462	0	32816	32852	
3463	0	32808	32807	
3464	0	32836	32743	
3465	0	32862	32746	
3466	0	32836	32775	
3467	0	32788	32743	
3468	0	32868	32832	
3469	0	32828	32844	
3470	0	32870	32744	
3471	0	32768	32828	
3472	0	32742	32686	
3473	0	32820	32836	
3474	0	32808	32727	
3475	0	32868	32836	
3476	0	32832	32775	
3477	0	32780	32721	
3478	0	32856	32724	
3479	0	32816	32812	
3480	0	32756	32646	
3481	0	32740	32704	
3482	0	32850	32774	
3483	0	32804	32736	
3484	0	32780	32700	
3485	0	32818	32772	
3486	0	32824	32870	
3487	0	32744	32806	
3488	0	32820	32832	
3489	0	32896	32734	
3490	0	32836	32804	
3491	0	32804	32756	
3492	0	32804	32754	
3493	0	32782	32806	
3494	0	32736	32724	
3495	0	32836	32804	
3496	0	32792	32834	
3497	0	32828	32696	
3498	0	32752	32742	
3499	0	32820	32814	
3500	0	32847	32730	
3501	0	32772	32696	
3502	0	32804	32742	
3503	0	32912	32818	
3504	0	32808	32652	
3505	0	32817	32742	
3506	0	32836	32820	
3507	0	32796	32761	
3508	0	32775	32894	
3509	0	32724	32711	
3510	0	32726	32775	
3511	0	32768	32743	
3512	0	32726	32756	
3513	0	32808	32724	
3514	0	32800	32775	
3515	0	32853	32675	
3516	0	32788	32862	
3517	0	32838	32804	
3518	0	32864	32750	
3519	0	32828	32702	
3520	0	32728	32812	
3521	0	32764	32840	
3522	0	32734	32723	
3523	0	32858	32863	
3524	0	32792	32788	
3525	0	32760	32839	
3526	0	32740	32679	
3527	0	32814	32764	
3528	0	32840	32772	
3529	0	32818	32700	
3530	0	32864	32744	
3531	0	32868	32782	
3532	0	32824	32735	
3533	0	32796	32766	
3534	0	32782	32812	
3535	0	32836	32775	
3536	0	32798	32775	
3537	0	32712	32818	
3538	0	32844	32820	
3539	0	32788	32644	
3540	0	32860	32874	
3541	0	32816	32748	
3542	0	32820	32680	
3543	0	32852	32860	
3544	0	32746	32788	
3545	0	32856	32821	
3546	0	32724	32824	
3547	0	32782	32768	
3548	0	32772	32812	
3549	0	32828	32689	
3550	0	32818	32661	
3551	0	32804	32704	
3552	0	32840	32864	
3553	0	32816	32711	
3554	0	32840	32817	
3555	0	32808	32735	
3556	0	32836	32856	
3557	0	32845	32682	
3558	0	32847	32879	
3559	0	32892	32804	
3560	0	32846	32764	
3561	0	32812	32748	
3562	0	32820	32862	
3563	0	32836	32884	
3564	0	32774	32740	
3565	0	32759	32716	
3566	0	32842	32828	
3567	0	32812	32705	
3568	0	32844	32810	
3569	0	32772	32662	
3570	0	32832	32748	
3571	0	32780	32724	
3572	0	32834	32766	
3573	0	32816	32628	
3574	0	32788	32886	
3575	0	32832	32784	
3576	0	32852	32740	
3577	0	32804	32840	
3578	0	32748	32676	
3579	0	32864	32743	
3580	0	32808	32798	
3581	0	32816	32737	
3582	0	32842	32824	
3583	0	32820	32800	
3584	0	32756	32772	
3585	0	32856	32741	
3586	0	32796	32783	
3587	0	32764	32842	
3588	0	32852	32744	
3589	0	32922	32696	
3590	0	32844	32738	
3591	0	32820	32775	
3592	0	32836	32664	
3593	0	32772	32876	
3594	0	32764	32734	
3595	0	32820	32878	
3596	0	32816	32730	
3597	0	32822	32775	
3598	0	32826	32752	
3599	0	32776	32788	
3600	0	32840	32679	
3601	0	32762	32761	
3602	0	32800	32772	
3603	0	32808	32666	
3604	0	32792	32828	
3605	0	32870	32736	
3606	0	32788	32788	
3607	0	32864	32679	
3608	0	32806	32735	
3609	0	32796	32775	
3610	0	32878	32807	
3611	0	32792	32770	
3612	0	32800	32864	
3613	0	32756	32750	
3614	0	32748	32720	
3615	0	32736	32680	
3616	0	32774	32838	
3617	0	32948	32796	
3618	0	32834	32810	
3619	0	32842	32702	
3620	0	32843	32838	
3621	0	32792	32775	
3622	0	32816	32801	
3623	0	32821	32748	
3624	0	32802	32772	
3625	0	32760	32775	
3626	0	32862	32792	
3627	0	32804	32679	
3628	0	32834	32788	
3629	0	32852	32648	
3630	0	32804	32620	
3631	0	32864	32740	
3632	0	32808	32838	
3633	0	32784	32820	
3634	0	32762	32874	
3635	0	32744	32775	
3636	0	32848	32796	
3637	0	32832	32788	
3638	0	32800	32668	
3639	0	32778	32817	
3640	0	32820	32768	
3641	0	32892	32834	
3642	0	32818	32704	
3643	0	32836	32812	
3644	0	32810	32770	
3645	0	32764	32646	
3646	0	32808	32775	
3647	0	32838	32792	
3648	0	32772	32678	
3649	0	32792	32775	
3650	0	32888	32798	
3651	0	32799	32744	
3652	0	32756	32726	
3653	0	32792	32742	
3654	0	32788	32860	
3655	0	32824	32802	
3656	0	32780	32706	
3657	0	32828	32812	
3658	0	32784	32804	
3659	0	32788	32718	
3660	0	32838	32702	
3661	0	32840	32702	
3662	0	32860	32742	
3663	0	32812	32760	
3664	0	32788	32724	
3665	0	32824	32768	
3666	0	32798	32842	
3667	0	32852	32870	
3668	0	32788	32682	
3669	0	32854	32720	
3670	0	32784	32794	
3671	0	32836	32820	
3672	0	32834	32766	
3673	0	32868	32760	
3674	0	32858	32708	
3675	0	32812	32786	
3676	0	32768	32606	
3677	0	32800	32718	
3678	0	32780	32774	
3679	0	32818	32878	
3680	0	32804	32722	
3681	0	32862	32788	
3682	0	32834	32834	
3683	0	32828	32810	
3684	0	32752	32752	
3685	0	32788	32818	
3686	0	32804	32764	
3687	0	32832	32664	
3688	0	32860	32854	
3689	0	32820	32784	
3690	0	32884	32804	
3691	0	32804	32728	
3692	0	32824	32788	
3693	0	32792	32802	
3694	0	32868	32732	
3695	0	32828	32656	
3696	0	32742	32764	
3697	0	32856	32870	
3698	0	32796	32728	
3699	0	32808	32767	
3700	0	32850	32794	
3701	0	32848	32775	
3702	0	32812	32688	
3703	0	32832	32814	
3704	0	32820	32742	
3705	0	32840	32686	
3706	0	32816	32678	
3707	0	32780	32751	
3708	0	32844	32775	
3709	0	32916	32662	
3710	0	32764	32810	
3711	0	32832	32754	
3712	0	32840	32800	
3713	0	32772	32740	
3714	0	32790	32859	
3715	0	32840	32802	
3716	0	32764	32852	
3717	0	32796	32727	
3718	0	32880	32720	
3719	0	32838	32854	
3720	0	32826	32772	
3721	0	32788	32800	
3722	0	32830	32702	
3723	0	32778	32892	
3724	0	32824	32860	
3725	0	32824	32839	
3726	0	32780	32682	
3727	0	32782	32900	
3728	0	32758	32796	
3729	0	32840	32770	
3730	0	32804	32690	
3731	0	32824	32694	
3732	0	32869	32770	
3733	0	32822	32764	
3734	0	32844	32728	
3735	0	32856	32788	
3736	0	32862	32736	
3737	0	32744	32784	
3738	0	32752	32758	
3739	0	32746	32798	
3740	0	32816	32852	
3741	0	32800	32679	
3742	0	32836	32775	
3743	0	32818	32814	
3744	0	32810	32912	
3745	0	32868	32668	
3746	0	32818	32792	
3747	0	32842	32784	
3748	0	32796	32676	
3749	0	32804	32844	
3750	0	32844	32710	
3751	0	32876	32807	
3752	0	32840	32670	
3753	0	32764	32804	
3754	0	32826	32708	
3755	0	32826	32854	
3756	0	32774	32678	
3757	0	32784	32806	
3758	0	32820	32852	
3759	0	32854	32758	
3760	0	32808	32708	
3761	0	32862	32748	
3762	0	32846	32838	
3763	0	32846	32879	
3764	0	32744	32677	
3765	0	32824	32763	
3766	0	32816	32730	
3767	0	32773	32770	
3768	0	32832	32688	
3769	0	32790	32704	
3770	0	32872	32796	
3771	0	32828	32721	
3772	0	32774	32819	
3773	0	32764	32793	
3774	0	32880	32823	
3775	0	32812	32823	
3776	0	32780	32732	
3777	0	32780	32788	
3778	0	32844	32850	
3779	0	32880	32676	
3780	0	32788	32902	
3781	0	32852	32836	
3782	0	32860	32775	
3783	0	32772	32670	
3784	0	32772	32694	
3785	0	32714	32708	
3786	0	32776	32710	
3787	0	32840	32792	
3788	0	32752	32792	
3789	0	32844	32724	
3790	0	32860	32774	
3791	0	32800	32773	
3792	0	32788	32823	
3793	0	32794	32654	
3794	0	32888	32866	
3795	0	32874	32728	
3796	0	32866	32744	
3797	0	32810	32604	
3798	0	32780	32914	
3799	0	32756	32856	
3800	0	32832	32746	
3801	0	32900	32912	
3802	0	32800	32775	
3803	0	32838	32902	
3804	0	32812	32767	
3805	0	32814	32750	
3806	0	32802	32775	
3807	0	32840	32811	
3808	0	32902	32764	
3809	0	32808	32652	
3810	0	32780	32708	
3811	0	32828	32794	
3812	0	32864	32692	
3813	0	32832	32804	
3814	0	32786	32775	
3815	0	32746	32858	
3816	0	32744	32770	
3817	0	32744	32799	
3818	0	32804	32775	
3819	0	32864	32736	
3820	0	32774	32775	
3821	0	32804	32802	
3822	0	32804	32710	
3823	0	32812	32720	
3824	0	32800	32647	
3825	0	32846	32862	
3826	0	32804	32790	
3827	0	32794	32704	
3828	0	32780	32787	
3829	0	32816	32884	
3830	0	32812	32741	
3831	0	32836	32762	
3832	0	32810	32680	
3833	0	32816	32828	
3834	0	32856	32758	
3835	0	32840	32748	
3836	0	32920	32752	
3837	0	32780	32750	
3838	0	32858	32870	
3839	0	32810	32822	
3840	0	32720	32676	
3841	0	32762	32894	
3842	0	32786	32862	
3843	0	32826	32692	
3844	0	32804	32824	
3845	0	32776	32878	
3846	0	32780	32647	
3847	0	32856	32774	
3848	0	32798	32794	
3849	0	32816	32734	
3850	0	32870	32775	
3851	0	32874	32811	
3852	0	32800	32647	
3853	0	32736	32734	
3854	0	32810	32774	
3855	0	32860	32699	
3856	0	32824	32820	
3857	0	32760	32852	
3858	0	32809	32712	
3859	0	32840	32858	
3860	0	32794	32764	
3861	0	32808	32828	
3862	0	32754	32734	
3863	0	32798	32814	
3864	0	32826	32801	
3865	0	32868	32636	
3866	0	32894	32808	
3867	0	32890	32766	
3868	0	32808	32676	
3869	0	32842	32759	
3870	0	32882	32864	
3871	0	32808	32830	
3872	0	32824	32750	
3873	0	32768	32812	
3874	0	32752	32750	
3875	0	32784	32804	
3876	0	32788	32804	
3877	0	32808	32855	
3878	0	32824	32745	
3879	0	32808	32681	
3880	0	32790	32852	
3881	0	32844	32804	
3882	0	32764	32728	
3883	0	32792	32775	
3884	0	32720	32714	
3885	0	32788	32764	
3886	0	32816	32800	
3887	0	32828	32712	
3888	0	32806	32826	
3889	0	32802	32764	
3890	0	32854	32648	
3891	0	32804	32782	
3892	0	32826	32756	
3893	0	32720	32678	
3894	0	32804	32775	
3895	0	32762	32792	
3896	0	32848	32755	
3897	0	32810	32804	
3898	0	32808	32790	
3899	0	32816	32600	
3900	0	32842	32810	
3901	0	32896	32863	
3902	0	32820	32730	
3903	0	32800	32822	
3904	0	32810	32796	
3905	0	32862	32897	
3906	0	32792	32822	
3907	0	32776	32814	
3908	0	32810	32818	
3909	0	32774	32724	
3910	0	32766	32625	
3911	0	32812	32766	
3912	0	32812	32725	
3913	0	32880	32664	
3914	0	32794	32770	
3915	0	32848	32674	
3916	0	32836	32774	
3917	0	32828	32775	
3918	0	32864	32704	
3919	0	32854	32886	
3920	0	32844	32866	
3921	0	32760	32721	
3922	0	32808	32775	
3923	0	32808	32670	
3924	0	32812	32844	
3925	0	32832	32775	
3926	0	32796	32696	
3927	0	32768	32750	
3928	0	32800	32704	
3929	0	32764	32750	
3930	0	32866	32768	
3931	0	32762	32666	
3932	0	32844	32868	
3933	0	32826	32710	
3934	0	32820	32676	
3935	0	32824	32766	
3936	0	32834	32762	
3937	0	32834	32894	
3938	0	32808	32854	
3939	0	32788	32716	
3940	0	32870	32734	
3941	0	32828	32798	
3942	0	32792	32690	
3943	0	32846	32879	
3944	0	32746	32801	
3945	0	32772	32722	
3946	0	32800	32828	
3947	0	32792	32762	
3948	0	32844	32704	
3949	0	32820	32868	
3950	0	32764	32773	
3951	0	32798	32650	
3952	0	32804	32766	
3953	0	32864	32766	
3954	0	32830	32807	
3955	0	32800	32696	
3956	0	32775	32748	
3957	0	32832	32766	
3958	0	32892	32708	
3959	0	32832	32752	
3960	0	32868	32830	
3961	0	32832	32711	
3962	0	32844	32807	
3963	0	32892	32769	
3964	0	32832	32876	
3965	0	32816	32742	
3966	0	32894	32732	
3967	0	32752	32645	
3968	0	32844	32780	
3969	0	32844	32792	
3970	0	32788	32812	
3971	0	32780	32708	
3972	0	32824	32749	
3973	0	32808	32812	
3974	0	32812	32688	
3975	0	32760	32814	
3976	0	32768	32749	
3977	0	32808	32688	
3978	0	32732	32700	
3979	0	32688	32729	
3980	0	32760	32756	
3981	0	32774	32636	
3982	0	32842	32804	
3983	0	32844	32823	
3984	0	32838	32706	
3985	0	32770	32876	
3986	0	32822	32913	
3987	0	32880	32716	
3988	0	32808	32796	
3989	0	32840	32844	
3990	0	32852	32734	
3991	0	32792	32780	
3992	0	32800	32854	
3993	0	32816	32798	
3994	0	32734	32718	
3995	0	32760	32727	
3996	0	32840	32727	
3997	0	32840	32840	
3998	0	32868	32822	
3999	0	32764	32834	
4000	0	32760	32746	
4001	0	32816	32775	
4002	0	32812	32772	
4003	0	32880	32766	
4004	0	32810	32858	
4005	0	32776	32788	
4006	0	32720	32655	
4007	0	32760	32770	
4008	0	32772	32816	
4009	0	32768	32721	
4010	0	32868	32832	
4011	0	32900	32762	
4012	0	32856	32713	
4013	0	32828	32670	
4014	0	32836	32759	
4015	0	32828	32696	
4016	0	32740	32830	
4017	0	32764	32774	
4018	0	32728	32806	
4019	0	32788	32680	
4020	0	32752	32775	
4021	0	32848	32775	
4022	0	32784	32900	
4023	0	32776	32745	
4024	0	32780	32714	
4025	0	32832	32814	
4026	0	32830	32750	
4027	0	32836	32710	
4028	0	32766	32844	
4029	0	32774	32726	
4030	0	32832	32680	
4031	0	32872	32844	
4032	0	32892	32790	
4033	0	32838	32690	
4034	0	32837	32820	
4035	0	32928	32758	
4036	0	32796	32775	
4037	0	32792	32828	
4038	0	32808	32732	
4039	0	32740	32744	
4040	0	32780	32742	
4041	0	32826	32720	
4042	0	32752	32743	
4043	0	32788	32694	
4044	0	32826	32858	
4045	0	32756	32775	
4046	0	32916	32750	
4047	0	32796	32728	
4048	0	32772	32812	
4049	0	32828	32794	
4050	0	32848	32724	
4051	0	32816	32800	
4052	0	32832	32828	
4053	0	32846	32802	
4054	0	32828	32752	
4055	0	32788	32863	
4056	0	32796	32808	
4057	0	32754	32775	
4058	0	32844	32824	
4059	0	32776	32807	
4060	0	32788	32812	
4061	0	32764	32694	
4062	0	32880	32730	
4063	0	32848	32807	
4064	0	32890	32684	
4065	0	32902	32828	
4066	0	32772	32765	
4067	0	32804	32889	
4068	0	32800	32849	
4069	0	32852	32775	
4070	0	32732	32775	
4071	0	32852	32864	
4072	0	32816	32706	
4073	0	32904	32852	
4074	0	32874	32870	
4075	0	32802	32652	
4076	0	32780	32728	
4077	0	32714	32830	
4078	0	32667	32618	
4079	0	32772	32700	
4080	0	32746	32668	
4081	0	32738	32516	
4082	0	32684	32676	
4083	0	32712	32610	
4084	0	32784	32646	
4085	0	32788	32614	
4086	0	32740	32597	
4087	0	32768	32712	
4088	0	32768	32622	
4089	0	32748	32714	
4090	0	32778	32668	
4091	0	32704	32718	
4092	0	32748	32679	
4093	0	32772	32636	
4094	0	32760	32710	
4095	0	32724	32788	
4096	0	32870	32676	
4097	0	32890	32775	
4098	0	32860	32722	
4099	0	32920	32734	
4100	0	33002	32888	
4101	0	33080	32903	
4102	0	33108	32888	
4103	0	33104	33068	
4104	0	33184	33198	
4105	0	33090	33114	
4106	0	33016	33267	
4107	0	33052	33180	
4108	0	33000	32996	
4109	0	32920	33006	
4110	0	32848	32978	
4111	0	32828	32977	
4112	0	32804	32998	
4113	0	32792	32716	
4114	0	32724	32657	
4115	0	32644	32604	
4116	0	32652	32654	
4117	0	32728	32580	
4118	0	32612	32550	
4119	0	32690	32772	
4120	0	32664	32636	
4121	0	32652	32620	
4122	0	32720	32750	
4123	0	32756	32732	
4124	0	32708	32561	
4125	0	32760	32774	
4126	0	32704	32775	
4127	0	32764	32644	
4128	0	32752	32848	
4129	0	32860	32773	
4130	0	32740	32756	
4131	0	32760	32647	
4132	0	32830	32710	
4133	0	32796	32708	
4134	0	32814	32770	
4135	0	32826	32766	
4136	0	32804	32836	
4137	0	32818	32730	
4138	0	32776	32760	
4139	0	32824	32904	
4140	0	32808	32680	
4141	0	32812	32772	
4142	0	32776	32854	
4143	0	32798	32704	
4144	0	32800	32715	
4145	0	32852	32775	
4146	0	32776	32674	
4147	0	32856	32770	
4148	0	32848	32775	
4149	0	32848	32734	
4150	0	32864	32814	
4151	0	32892	32714	
4152	0	32884	32630	
4153	0	32810	32782	
4154	0	32880	32724	
4155	0	32812	32700	
4156	0	32772	32760	
4157	0	32802	32848	
4158	0	32844	32763	
4159	0	32776	32727	
4160	0	32806	32762	
4161	0	32852	32720	
4162	0	32732	32820	
4163	0	32810	32692	
4164	0	32850	32775	
4165	0	32804	32810	
4166	0	32768	32690	
4167	0	32764	32775	
4168	0	32812	32722	
4169	0	32850	32758	
4170	0	32756	32786	
4171	0	32814	32765	
4172	0	32812	32764	
4173	0	32836	32759	
4174	0	32756	32791	
4175	0	32816	32900	
4176	0	32818	32855	
4177	0	32792	32678	
4178	0	32880	32862	
4179	0	32832	32774	
4180	0	32784	32736	
4181	0	32900	32740	
4182	0	32844	32838	
4183	0	32816	32844	
4184	0	32804	32796	
4185	0	32832	32704	
4186	0	32846	32706	
4187	0	32748	32754	
4188	0	32848	32775	
4189	0	32804	32688	
4190	0	32832	32758	
4191	0	32752	32812	
4192	0	32836	32720	
4193	0	32852	32775	
4194	0	32882	32876	
4195	0	32802	32736	
4196	0	32806	32768	
4197	0	32808	32685	
4198	0	32784	32810	
4199	0	32800	32724	
4200	0	32840	32679	
4201	0	32844	32794	
4202	0	32792	32814	
4203	0	32740	32700	
4204	0	32782	32865	
4205	0	32768	32818	
4206	0	32782	32724	
4207	0	32804	32752	
4208	0	32764	32734	
4209	0	32804	32754	
4210	0	32848	32742	
4211	0	32840	32666	
4212	0	32812	32758	
4213	0	32852	32732	
4214	0	32850	32642	
4215	0	32812	32756	
4216	0	32864	32831	
4217	0	32816	32756	
4218	0	32846	32775	
4219	0	32870	32864	
4220	0	32746	32703	
4221	0	32810	32844	
4222	0	32752	32664	
4223	0	32778	32780	
4224	0	32800	32775	
4225	0	32788	32706	
4226	0	32768	32831	
4227	0	32924	32743	
4228	0	32836	32594	
4229	0	32784	32630	
4230	0	32788	32775	
4231	0	32864	32854	
4232	0	32774	32794	
4233	0	32848	32892	
4234	0	32824	32862	
4235	0	32808	32768	
4236	0	32844	32737	
4237	0	32798	32814	
4238	0	32846	32814	
4239	0	32798	32646	
4240	0	32796	32775	
4241	0	32706	32887	
4242	0	32784	32694	
4243	0	32728	32775	
4244	0	32834	32767	
4245	0	32821	32753	
4246	0	32824	32700	
4247	0	32804	32704	
4248	0	32782	32796	
4249	0	32852	32848	
4250	0	32852	32688	
4251	0	32804	32887	
4252	0	32798	32828	
4253	0	32748	32652	
4254	0	32775	32768	
4255	0	32868	32858	
4256	0	32948	32602	
4257	0	32764	32768	
4258	0	32882	32691	
4259	0	32878	32852	
4260	0	32848	32810	
4261	0	32796	32702	
4262	0	32768	32748	
4263	0	32730	32866	
4264	0	32769	32812	
4265	0	32754	32828	
4266	0	32744	32764	
4267	0	32802	32692	
4268	0	32756	32844	
4269	0	32802	32680	
4270	0	32876	32694	
4271	0	32832	32702	
4272	0	32852	32661	
4273	0	32878	32740	
4274	0	32812	32769	
4275	0	32818	32846	
4276	0	32760	32762	
4277	0	32808	32816	
4278	0	32776	32766	
4279	0	32764	32892	
4280	0	32774	32732	
4281	0	32836	32796	
4282	0	32804	32697	
4283	0	32764	32807	
4284	0	32748	32740	
4285	0	32844	32842	
4286	0	32780	32870	
4287	0	32840	32770	
4288	0	32784	32796	
4289	0	32852	32692	
4290	0	32814	32692	
4291	0	32824	32696	
4292	0	32812	32704	
4293	0	32778	32722	
4294	0	32801	32745	
4295	0	32844	32662	
4296	0	32800	32756	
4297	0	32844	32732	
4298	0	32769	32814	
4299	0	32880	32812	
4300	0	32790	32732	
4301	0	32840	32828	
4302	0	32889	32774	
4303	0	32812	32754	
4304	0	32822	32838	
4305	0	32860	32724	
4306	0	32828	32878	
4307	0	32824	32748	
4308	0	32786	32735	
4309	0	32796	32716	
4310	0	32794	32628	
4311	0	32788	32775	
4312	0	32780	32862	
4313	0	32822	32692	
4314	0	32832	32732	
4315	0	32838	32758	
4316	0	32804	32826	
4317	0	32772	32769	
4318	0	32864	32792	
4319	0	32856	32764	
4320	0	32816	32900	
4321	0	32800	32695	
4322	0	32824	32791	
4323	0	32770	32760	
4324	0	32788	32798	
4325	0	32775	32832	
4326	0	32828	32708	
4327	0	32814	32822	
4328	0	32889	32730	
4329	0	32845	32832	
4330	0	32772	32926	
4331	0	32808	32686	
4332	0	32820	32746	
4333	0	32842	32716	
4334	0	32800	32807	
4335	0	32806	32830	
4336	0	32818	32836	
4337	0	32892	32775	
4338	0	32842	32679	
4339	0	32796	32808	
4340	0	32734	32826	
4341	0	32852	32588	
4342	0	32772	32833	
4343	0	32828	32879	
4344	0	32830	32694	
4345	0	32830	32760	
4346	0	32849	32800	
4347	0	32828	32720	
4348	0	32800	32752	
4349	0	32832	32684	
4350	0	32816	32867	
4351	0	32772	32799	
4352	0	32810	32730	
4353	0	32807	32822	
4354	0	32772	32842	
4355	0	32824	32817	
4356	0	32856	32836	
4357	0	32828	32812	
4358	0	32712	32790	
4359	0	32792	32735	
4360	0	32800	32775	
4361	0	32824	32711	
4362	0	32812	32820	
4363	0	32868	32870	
4364	0	32842	32650	
4365	0	32848	32684	
4366	0	32816	32647	
4367	0	32810	32736	
4368	0	32776	32791	
4369	0	32748	32832	
4370	0	32850	32740	
4371	0	32820	32769	
4372	0	32790	32903	
4373	0	32816	32732	
4374	0	32768	32817	
4375	0	32814	32764	
4376	0	32846	32688	
4377	0	32842	32759	
4378	0	32840	32766	
4379	0	32820	32692	
4380	0	32748	32854	
4381	0	32824	32800	
4382	0	32740	32743	
4383	0	32790	32700	
4384	0	32830	32759	
4385	0	32776	32815	
4386	0	32780	32754	
4387	0	32748	32758	
4388	0	32760	32862	
4389	0	32858	32832	
4390	0	32878	32710	
4391	0	32796	32820	
4392	0	32788	32744	
4393	0	32808	32676	
4394	0	32862	32792	
4395	0	32800	32710	
4396	0	32832	32662	
4397	0	32840	32754	
4398	0	32740	32760	
4399	0	32764	32688	
4400	0	32828	32740	
4401	0	32866	32868	
4402	0	32904	32732	
4403	0	32846	32810	
4404	0	32864	32854	
4405	0	32836	32750	
4406	0	32760	32766	
4407	0	32788	32820	
4408	0	32832	32726	
4409	0	32812	32775	
4410	0	32794	32806	
4411	0	32804	32804	
4412	0	32800	32648	
4413	0	32820	32775	
4414	0	32796	32935	
4415	0	32800	32932	
4416	0	32792	32756	
4417	0	32768	32790	
4418	0	32828	32814	
4419	0	32842	32732	
4420	0	32788	32823	
4421	0	32850	32750	
4422	0	32820	32710	
4423	0	32834	32896	
4424	0	32724	32759	
4425	0	32818	32815	
4426	0	32760	32718	
4427	0	32804	32708	
4428	0	32824	32828	
4429	0	32848	32674	
4430	0	32844	32668	
4431	0	32841	32744	
4432	0	32816	32794	
4433	0	32784	32592	
4434	0	32764	32884	
4435	0	32756	32774	
4436	0	32836	32774	
4437	0	32848	32770	
4438	0	32822	32706	
4439	0	32830	32816	
4440	0	32884	32598	
4441	0	32760	32774	
4442	0	32836	32808	
4443	0	32872	32826	
4444	0	32804	32716	
4445	0	32801	32850	
4446	0	32742	32799	
4447	0	32846	32796	
4448	0	32752	32842	
4449	0	32776	32684	
4450	0	32836	32740	
4451	0	32812	32754	
4452	0	32816	32719	
4453	0	32738	32752	
4454	0	32820	32788	
4455	0	32888	32868	
4456	0	32844	32822	
4457	0	32782	32840	
4458	0	32800	32711	
4459	0	32792	32932	
4460	0	32828	32808	
4461	0	32808	32802	
4462	0	32744	32796	
4463	0	32818	32834	
4464	0	32752	32703	
4465	0	32812	32714	
4466	0	32768	32699	
4467	0	32840	32726	
4468	0	32792	32752	
4469	0	32844	32834	
4470	0	32824	32752	
4471	0	32810	32708	
4472	0	32784	32740	
4473	0	32816	32812	
4474	0	32876	32668	
4475	0	32844	32736	
4476	0	32888	32862	
4477	0	32816	32826	
4478	0	32766	32847	
4479	0	32776	32702	
4480	0	32764	32748	
4481	0	32800	32806	
4482	0	32782	32784	
4483	0	32802	32836	
4484	0	32786	32708	
4485	0	32804	32830	
4486	0	32704	32714	
4487	0	32884	32807	
4488	0	32828	32775	
4489	0	32816	32854	
4490	0	32852	32838	
4491	0	32840	32762	
4492	0	32806	32702	
4493	0	32768	32872	
4494	0	32828	32736	
4495	0	32808	32800	
4496	0	32790	32647	
4497	0	32776	32686	
4498	0	32760	32756	
4499	0	32796	32750	
4500	0	32836	32796	
4501	0	32832	32724	
4502	0	32720	32706	
4503	0	32868	32775	
4504	0	32818	32807	
4505	0	32792	32798	
4506	0	32810	32775	
4507	0	32764	32730	
4508	0	32792	32714	
4509	0	32904	32784	
4510	0	32840	32764	
4511	0	32836	32706	
4512	0	32836	32952	
4513	0	32798	32786	
4514	0	32812	32688	
4515	0	32836	32808	
4516	0	32796	32694	
4517	0	32812	32903	
4518	0	32776	32768	
4519	0	32804	32870	
4520	0	32740	32768	
4521	0	32785	32671	
4522	0	32784	32720	
4523	0	32906	32807	
4524	0	32842	32856	
4525	0	32856	32876	
4526	0	32816	32716	
4527	0	32800	32679	
4528	0	32864	32804	
4529	0	32784	32718	
4530	0	32784	32815	
4531	0	32852	32692	
4532	0	32854	32760	
4533	0	32788	32794	
4534	0	32798	32806	
4535	0	32784	32710	
4536	0	32776	32828	
4537	0	32744	32679	
4538	0	32722	32838	
4539	0	32832	32742	
4540	0	32928	32802	
4541	0	32848	32737	
4542	0	32840	32744	
4543	0	32792	32754	
4544	0	32798	32788	
4545	0	32792	32838	
4546	0	32764	32775	
4547	0	32838	32844	
4548	0	32728	32763	
4549	0	32848	32816	
4550	0	32784	32708	
4551	0	32746	32691	
4552	0	32852	32775	
4553	0	32852	32800	
4554	0	32846	32710	
4555	0	32844	32903	
4556	0	32804	32775	
4557	0	32826	32844	
4558	0	32844	32723	
4559	0	32774	32782	
4560	0	32772	32704	
4561	0	32862	32775	
4562	0	32806	32629	
4563	0	32864	32770	
4564	0	32856	32794	
4565	0	32796	32768	
4566	0	32816	32636	
4567	0	32850	32800	
4568	0	32816	32821	
4569	0	32794	32608	
4570	0	32792	32750	
4571	0	32812	32845	
4572	0	32824	32762	
4573	0	32808	32784	
4574	0	32796	32825	
4575	0	32784	32815	
4576	0	32812	32839	
4577	0	32818	32784	
4578	0	32830	32700	
4579	0	32812	32760	
4580	0	32788	32756	
4581	0	32814	32865	
4582	0	32808	32732	
4583	0	32834	32686	
4584	0	32774	32828	
4585	0	32736	32736	
4586	0	32852	32794	
4587	0	32888	32775	
4588	0	32868	32812	
4589	0	32848	32798	
4590	0	32772	32727	
4591	0	32764	32652	
4592	0	32732	32820	
4593	0	32744	32817	
4594	0	32744	32844	
4595	0	32824	32803	
4596	0	32800	32738	
4597	0	32816	32775	
4598	0	32898	32800	
4599	0	32772	32814	
4600	0	32824	32722	
4601	0	32848	32846	
4602	0	32768	32766	
4603	0	32772	32760	
4604	0	32870	32810	
4605	0	32776	32670	
4606	0	32862	32802	
4607	0	32832	32775	
4608	0	32832	32856	
4609	0	32816	32746	
4610	0	32860	32696	
4611	0	32868	32807	
4612	0	32844	32775	
4613	0	32732	32794	
4614	0	32804	32706	
4615	0	32734	32806	
4616	0	32784	32774	
4617	0	32740	32760	
4618	0	32838	32718	
4619	0	32774	32796	
4620	0	32764	32834	
4621	0	32808	32775	
4622	0	32838	32644	
4623	0	32860	32802	
4624	0	32746	32804	
4625	0	32872	32815	
4626	0	32824	32690	
4627	0	32816	32868	
4628	0	32808	32718	
4629	0	32876	32775	
4630	0	32784	32756	
4631	0	32824	32737	
4632	0	32784	32854	
4633	0	32824	32742	
4634	0	32822	32825	
4635	0	32798	32710	
4636	0	32800	32793	
4637	0	32824	32756	
4638	0	32796	32724	
4639	0	32784	32724	
4640	0	32804	32775	
4641	0	32770	32786	
4642	0	32824	32775	
4643	0	32798	32766	
4644	0	32792	32818	
4645	0	32854	32775	
4646	0	32772	32743	
4647	0	32740	32786	
4648	0	32840	32750	
4649	0	32822	32678	
4650	0	32844	32862	
4651	0	32776	32772	
4652	0	32820	32743	
4653	0	32784	32716	
4654	0	32784	32804	
4655	0	32836	32722	
4656	0	32870	32814	
4657	0	32848	32711	
4658	0	32840	32760	
4659	0	32840	32768	
4660	0	32804	32720	
4661	0	32772	32711	
4662	0	32780	32775	
4663	0	32880	32764	
4664	0	32724	32620	
4665	0	32780	32720	
4666	0	32764	32747	
4667	0	32834	32728	
4668	0	32748	32700	
4669	0	32752	32716	
4670	0	32860	32742	
4671	0	32924	32918	
4672	0	32820	32716	
4673	0	32818	32752	
4674	0	32804	32820	
4675	0	32776	32806	
4676	0	32782	32710	
4677	0	32840	32775	
4678	0	32842	32732	
4679	0	32774	32685	
4680	0	32784	32719	
4681	0	32844	32775	
4682	0	32742	32775	
4683	0	32816	32738	
4684	0	32836	32724	
4685	0	32764	32817	
4686	0	32820	32838	
4687	0	32772	32806	
4688	0	32832	32743	
4689	0	32832	32686	
4690	0	32792	32792	
4691	0	32792	32775	
4692	0	32852	32818	
4693	0	32808	32718	
4694	0	32760	32838	
4695	0	32820	32847	
4696	0	32868	32748	
4697	0	32784	32874	
4698	0	32874	32846	
4699	0	32922	32802	
4700	0	32806	32770	
4701	0	32852	32802	
4702	0	32768	32743	
4703	0	32752	32718	
4704	0	32864	32860	
4705	0	32860	32802	
4706	0	32858	32719	
4707	0	32840	32728	
4708	0	32864	32714	
4709	0	32822	32766	
4710	0	32790	32743	
4711	0	32784	32748	
4712	0	32816	32764	
4713	0	32814	32677	
4714	0	32856	32812	
4715	0	32784	32755	
4716	0	32780	32752	
4717	0	32804	32706	
4718	0	32808	32692	
4719	0	32874	32824	
4720	0	32832	32766	
4721	0	32790	32754	
4722	0	32832	32738	
4723	0	32830	32844	
4724	0	32802	32740	
4725	0	32806	32698	
4726	0	32840	32726	
4727	0	32864	32775	
4728	0	32836	32806	
4729	0	32828	32814	
4730	0	32808	32712	
4731	0	32856	32800	
4732	0	32804	32820	
4733	0	32792	32697	
4734	0	32804	32839	
4735	0	32806	32887	
4736	0	32764	32764	
4737	0	32822	32835	
4738	0	32824	32796	
4739	0	32792	32732	
4740	0	32820	32782	
4741	0	32748	32834	
4742	0	32788	32760	
4743	0	32788	32646	
4744	0	32798	32836	
4745	0	32841	32769	
4746	0	32846	32708	
4747	0	32872	32679	
4748	0	32852	32740	
4749	0	32816	32738	
4750	0	32888	32711	
4751	0	32852	32775	
4752	0	32781	32783	
4753	0	32808	32760	
4754	0	32834	32769	
4755	0	32832	32720	
4756	0	32816	32692	
4757	0	32868	32950	
4758	0	32810	32746	
4759	0	32784	32740	
4760	0	32728	32671	
4761	0	32732	32750	
4762	0	32810	32882	
4763	0	32756	32719	
4764	0	32816	32730	
4765	0	32836	32738	
4766	0	32834	32794	
4767	0	32820	32764	
4768	0	32826	32808	
4769	0	32842	32812	
4770	0	32780	32703	
4771	0	32788	32816	
4772	0	32776	32854	
4773	0	32737	32640	
4774	0	32825	32756	
4775	0	32768	32744	
4776	0	32824	32742	
4777	0	32740	32703	
4778	0	32834	32746	
4779	0	32752	32744	
4780	0	32804	32800	
4781	0	32780	32816	
4782	0	32832	32738	
4783	0	32852	32794	
4784	0	32840	32860	
4785	0	32828	32688	
4786	0	32800	32782	
4787	0	32808	32792	
4788	0	32840	32638	
4789	0	32806	32752	
4790	0	32836	32828	
4791	0	32802	32712	
4792	0	32784	32826	
4793	0	32824	32740	
4794	0	32714	32794	
4795	0	32824	32710	
4796	0	32876	32754	
4797	0	32802	32756	
4798	0	32828	32806	
4799	0	32752	32686	
4800	0	32936	32694	
4801	0	32784	32828	
4802	0	32836	32860	
4803	0	32804	32673	
4804	0	32760	32764	
4805	0	32810	32856	
4806	0	32800	32734	
4807	0	32816	32812	
4808	0	32806	32864	
4809	0	32860	32774	
4810	0	32808	32887	
4811	0	32810	32762	
4812	0	32880	32762	
4813	0	32812	32876	
4814	0	32820	32878	
4815	0	32820	32672	
4816	0	32820	32732	
4817	0	32798	32700	
4818	0	32816	32611	
4819	0	32688	32692	
4820	0	32728	32652	
4821	0	32772	32698	
4822	0	32746	32676	
4823	0	32766	32646	
4824	0	32736	32604	
4825	0	32796	32607	
4826	0	32656	32734	
4827	0	32774	32586	
4828	0	32688	32615	
4829	0	32784	32666	
4830	0	32712	32692	
4831	0	32770	32592	
4832	0	32736	32773	
4833	0	32756	32712	
4834	0	32808	32678	
4835	0	32820	32700	
4836	0	32836	32765	
4837	0	32802	32660	
4838	0	32820	32786	
4839	0	32864	32744	
4840	0	32920	32822	
4841	0	32932	32892	
4842	0	33110	32805	
4843	0	33104	32976	
4844	0	33102	33108	
4845	0	33136	33097	
4846	0	33122	33239	
4847	0	33140	33287	
4848	0	33052	33112	
4849	0	33038	33119	
4850	0	32942	33066	
4851	0	32872	32884	
4852	0	32836	32992	
4853	0	32752	32879	
4854	0	32664	32838	
4855	0	32724	32730	
4856	0	32756	32502	
4857	0	32666	32560	
4858	0	32636	32586	
4859	0	32676	32519	
4860	0	32696	32630	
4861	0	32638	32662	
4862	0	32704	32710	
4863	0	32760	32700	
4864	0	32678	32660	
4865	0	32720	32788	
4866	0	32674	32743	
4867	0	32788	32680	
4868	0	32782	32686	
4869	0	32812	32721	
4870	0	32748	32775	
4871	0	32760	32857	
4872	0	32740	32748	
4873	0	32764	32821	
4874	0	32736	32724	
4875	0	32732	32839	
4876	0	32784	32711	
4877	0	32880	32812	
4878	0	32784	32754	
4879	0	32792	32610	
4880	0	32776	32686	
4881	0	32866	32660	
4882	0	32920	32730	
4883	0	32838	32775	
4884	0	32872	32744	
4885	0	32864	32788	
4886	0	32888	32752	
4887	0	32868	32772	
4888	0	32804	32828	
4889	0	32814	32835	
4890	0	32860	32766	
4891	0	32860	32794	
4892	0	32824	32874	
4893	0	32774	32874	
4894	0	32844	32738	
4895	0	32848	32640	
4896	0	32802	32856	
4897	0	32716	32850	
4898	0	32770	32686	
4899	0	32840	32772	
4900	0	32796	32871	
4901	0	32768	32632	
4902	0	32804	32670	
4903	0	32768	32684	
4904	0	32808	32792	
4905	0	32846	32814	
4906	0	32816	32791	
4907	0	32897	32772	
4908	0	32788	32762	
4909	0	32836	32756	
4910	0	32844	32759	
4911	0	32772	32756	
4912	0	32862	32812	
4913	0	32914	32846	
4914	0	32800	32742	
4915	0	32808	32839	
4916	0	32832	32814	
4917	0	32792	32717	
4918	0	32860	32764	
4919	0	32890	32826	
4920	0	32724	32678	
4921	0	32798	32853	
4922	0	32832	32795	
4923	0	32784	32762	
4924	0	32834	32714	
4925	0	32792	32740	
4926	0	32880	32775	
4927	0	32824	32687	
4928	0	32820	32775	
4929	0	32776	32799	
4930	0	32856	32708	
4931	0	32888	32810	
4932	0	32736	32724	
4933	0	32798	32658	
4934	0	32824	32844	
4935	0	32858	32817	
4936	0	32808	32750	
4937	0	32808	32886	
4938	0	32768	32799	
4939	0	32812	32672	
4940	0	32756	32888	
4941	0	32792	32766	
4942	0	32820	32835	
4943	0	32818	32682	
4944	0	32816	32772	
4945	0	32770	32705	
4946	0	32804	32742	
4947	0	32756	32800	
4948	0	32824	32812	
4949	0	32804	32638	
4950	0	32880	32730	
4951	0	32848	32775	
4952	0	32832	32753	
4953	0	32776	32756	
4954	0	32816	32734	
4955	0	32828	32886	
4956	0	32832	32892	
4957	0	32760	32703	
4958	0	32804	32818	
4959	0	32866	32806	
4960	0	32820	32775	
4961	0	32812	32731	
4962	0	32708	32750	
4963	0	32840	32752	
4964	0	32832	32732	
4965	0	32802	32732	
4966	0	32774	32740	
4967	0	32736	32786	
4968	0	32784	32742	
4969	0	32840	32766	
4970	0	32888	32710	
4971	0	32844	32760	
4972	0	32772	32807	
4973	0	32872	32738	
4974	0	32864	32740	
4975	0	32812	32759	
4976	0	32804	32744	
4977	0	32824	32818	
4978	0	32828	32638	
4979	0	32772	32761	
4980	0	32782	32734	
4981	0	32770	32647	
4982	0	32792	32844	
4983	0	32844	32775	
4984	0	32800	32705	
4985	0	32760	32737	
4986	0	32812	32770	
4987	0	32760	32760	
4988	0	32836	32759	
4989	0	32852	32839	
4990	0	32824	32764	
4991	0	32834	32775	
4992	0	32820	32794	
4993	0	32864	32742	
4994	0	32764	32760	
4995	0	32904	32752	
4996	0	32776	32711	
4997	0	32748	32775	
4998	0	32768	32895	
4999	0	32776	32666	
5000	0	32796	32833	
5001	0	32786	32825	
5002	0	32756	32668	
5003	0	32801	32805	
5004	0	32786	32766	
5005	0	32728	32798	
5006	0	32808	32816	
5007	0	32828	32702	
5008	0	32776	32728	
5009	0	32828	32706	
5010	0	32858	32766	
5011	0	32752	32708	
5012	0	32798	32800	
5013	0	32844	32878	
5014	0	32788	32757	
5015	0	32816	32740	
5016	0	32840	32775	
5017	0	32804	32825	
5018	0	32816	32772	
5019	0	32848	32710	
5020	0	32772	32820	
5021	0	32840	32730	
5022	0	32800	32708	
5023	0	32784	32804	
5024	0	32816	32746	
5025	0	32832	32705	
5026	0	32866	32820	
5027	0	32816	32785	
5028	0	32764	32742	
5029	0	32844	32750	
5030	0	32790	32708	
5031	0	32782	32775	
5032	0	32842	32774	
5033	0	32852	32823	
5034	0	32852	32820	
5035	0	32796	32756	
5036	0	32810	32744	
5037	0	32784	32738	
5038	0	32804	32844	
5039	0	32768	32775	
5040	0	32756	32695	
5041	0	32868	32799	
5042	0	32796	32807	
5043	0	32822	32670	
5044	0	32812	32744	
5045	0	32774	32728	
5046	0	32806	32747	
5047	0	32744	32616	
5048	0	32800	32784	
5049	0	32832	32747	
5050	0	32828	32828	
5051	0	32788	32736	
5052	0	32796	32890	
5053	0	32820	32754	
5054	0	32798	32810	
5055	0	32850	32738	
5056	0	32852	32756	
5057	0	32852	32754	
5058	0	32800	32758	
5059	0	32756	32706	
5060	0	32872	32814	
5061	0	32884	32807	
5062	0	32844	32766	
5063	0	32790	32718	
5064	0	32752	32722	
5065	0	32816	32737	
5066	0	32876	32828	
5067	0	32876	32842	
5068	0	32808	32743	
5069	0	32800	32798	
5070	0	32834	32684	
5071	0	32788	32730	
5072	0	32832	32710	
5073	0	32756	32815	
5074	0	32841	32812	
5075	0	32782	32764	
5076	0	32824	32704	
5077	0	32820	32742	
5078	0	32752	32786	
5079	0	32808	32736	
5080	0	32786	32808	
5081	0	32820	32740	
5082	0	32864	32848	
5083	0	32760	32834	
5084	0	32901	32647	
5085	0	32768	32743	
5086	0	32820	32804	
5087	0	32796	32820	
5088	0	32816	32740	
5089	0	32892	32788	
5090	0	32864	32732	
5091	0	32804	32679	
5092	0	32842	32800	
5093	0	32834	32816	
5094	0	32728	32714	
5095	0	32824	32828	
5096	0	32800	32796	
5097	0	32840	32798	
5098	0	32816	32860	
5099	0	32816	32780	
5100	0	32794	32743	
5101	0	32814	32820	
5102	0	32774	32860	
5103	0	32864	32700	
5104	0	32904	32860	
5105	0	32764	32792	
5106	0	32838	32712	
5107	0	32768	32704	
5108	0	32774	32798	
5109	0	32860	32786	
5110	0	32788	32718	
5111	0	32762	32794	
5112	0	32880	32839	
5113	0	32800	32694	
5114	0	32824	32775	
5115	0	32798	32736	
5116	0	32800	32775	
5117	0	32866	32682	
5118	0	32817	32772	
5119	0	32820	32866	
5120	0	32828	32726	
5121	0	32800	32836	
5122	0	32800	32826	
5123	0	32782	32773	
5124	0	32836	32751	
5125	0	32840	32786	
5126	0	32858	32834	
5127	0	32774	32712	
5128	0	32798	32858	
5129	0	32838	32718	
5130	0	32734	32706	
5131	0	32816	32754	
5132	0	32780	32775	
5133	0	32696	32794	
5134	0	32740	32876	
5135	0	32804	32772	
5136	0	32740	32768	
5137	0	32818	32853	
5138	0	32808	32774	
5139	0	32864	32703	
5140	0	32886	32808	
5141	0	32818	32802	
5142	0	32798	32696	
5143	0	32826	32791	
5144	0	32804	32800	
5145	0	32888	32903	
5146	0	32800	32732	
5147	0	32784	32730	
5148	0	32840	32712	
5149	0	32756	32791	
5150	0	32842	32846	
5151	0	32814	32744	
5152	0	32840	32840	
5153	0	32824	32863	
5154	0	32840	32754	
5155	0	32824	32742	
5156	0	32840	32689	
5157	0	32840	32740	
5158	0	32824	32687	
5159	0	32816	32704	
5160	0	32800	32893	
5161	0	32800	32834	
5162	0	32821	32720	
5163	0	32780	32772	
5164	0	32776	32796	
5165	0	32818	32775	
5166	0	32842	32826	
5167	0	32868	32740	
5168	0	32772	32846	
5169	0	32848	32842	
5170	0	32780	32775	
5171	0	32812	32772	
5172	0	32828	32732	
5173	0	32848	32823	
5174	0	32846	32806	
5175	0	32796	32678	
5176	0	32820	32772	
5177	0	32852	32746	
5178	0	32768	32722	
5179	0	32812	32726	
5180	0	32838	32679	
5181	0	32772	32856	
5182	0	32809	32758	
5183	0	32764	32652	
5184	0	32748	32750	
5185	0	32840	32908	
5186	0	32860	32679	
5187	0	32826	32812	
5188	0	32800	32852	
5189	0	32824	32728	
5190	0	32821	32796	
5191	0	32810	32742	
5192	0	32856	32840	
5193	0	32828	32828	
5194	0	32828	32732	
5195	0	32820	32740	
5196	0	32860	32774	
5197	0	32732	32688	
5198	0	32762	32807	
5199	0	32814	32826	
5200	0	32740	32732	
5201	0	32804	32818	
5202	0	32868	32706	
5203	0	32772	32842	
5204	0	32828	32792	
5205	0	32822	32770	
5206	0	32822	32788	
5207	0	32848	32774	
5208	0	32808	32864	
5209	0	32776	32848	
5210	0	32784	32720	
5211	0	32760	32832	
5212	0	32870	32816	
5213	0	32813	32724	
5214	0	32764	32816	
5215	0	32768	32859	
5216	0	32808	32746	
5217	0	32768	32798	
5218	0	32796	32775	
5219	0	32810	32716	
5220	0	32820	32867	
5221	0	32840	32807	
5222	0	32772	32694	
5223	0	32864	32740	
5224	0	32775	32738	
5225	0	32812	32712	
5226	0	32776	32742	
5227	0	32920	32678	
5228	0	32786	32806	
5229	0	32852	32775	
5230	0	32764	32686	
5231	0	32792	32758	
5232	0	32800	32762	
5233	0	32794	32672	
5234	0	32836	32740	
5235	0	32800	32768	
5236	0	32808	32774	
5237	0	32780	32810	
5238	0	32804	32724	
5239	0	32826	32860	
5240	0	32800	32770	
5241	0	32870	32662	
5242	0	32802	32862	
5243	0	32832	32804	
5244	0	32700	32756	
5245	0	32808	32798	
5246	0	32880	32866	
5247	0	32780	32698	
5248	0	32796	32816	
5249	0	32724	32744	
5250	0	32856	32764	
5251	0	32812	32775	
5252	0	32786	32698	
5253	0	32808	32746	
5254	0	32920	32687	
5255	0	32832	32884	
5256	0	32818	32847	
5257	0	32890	32734	
5258	0	32824	32816	
5259	0	32834	32764	
5260	0	32832	32738	
5261	0	32772	32836	
5262	0	32806	32732	
5263	0	32802	32810	
5264	0	32812	32806	
5265	0	32816	32775	
5266	0	32734	32812	
5267	0	32824	32732	
5268	0	32864	32770	
5269	0	32848	32701	
5270	0	32748	32652	
5271	0	32816	32775	
5272	0	32870	32800	
5273	0	32828	32675	
5274	0	32828	32858	
5275	0	32840	32742	
5276	0	32760	32750	
5277	0	32862	32790	
5278	0	32776	32815	
5279	0	32756	32737	
5280	0	32804	32761	
5281	0	32842	32810	
5282	0	32804	32687	
5283	0	32810	32792	
5284	0	32822	32775	
5285	0	32820	32828	
5286	0	32852	32756	
5287	0	32812	32754	
5288	0	32840	32796	
5289	0	32848	32834	
5290	0	32824	32725	
5291	0	32800	32796	
5292	0	32788	32775	
5293	0	32780	32764	
5294	0	32816	32792	
5295	0	32828	32887	
5296	0	32736	32684	
5297	0	32766	32804	
5298	0	32794	32797	
5299	0	32806	32760	
5300	0	32810	32680	
5301	0	32846	32730	
5302	0	32848	32688	
5303	0	32812	32724	
5304	0	32880	32807	
5305	0	32808	32716	
5306	0	32850	32742	
5307	0	32764	32852	
5308	0	32852	32770	
5309	0	32786	32804	
5310	0	32802	32706	
5311	0	32784	32792	
5312	0	32824	32807	
5313	0	32858	32774	
5314	0	32784	32754	
5315	0	32804	32740	
5316	0	32860	32833	
5317	0	32678	32786	
5318	0	32810	32668	
5319	0	32762	32772	
5320	0	32792	32794	
5321	0	32808	32736	
5322	0	32816	32796	
5323	0	32808	32680	
5324	0	32834	32760	
5325	0	32838	32801	
5326	0	32800	32719	
5327	0	32802	32796	
5328	0	32802	32852	
5329	0	32788	32620	
5330	0	32816	32754	
5331	0	32888	32748	
5332	0	32786	32802	
5333	0	32796	32760	
5334	0	32756	32814	
5335	0	32816	32775	
5336	0	32804	32752	
5337	0	32850	32816	
5338	0	32832	32772	
5339	0	32784	32824	
5340	0	32832	32864	
5341	0	32796	32735	
5342	0	32812	32760	
5343	0	32824	32802	
5344	0	32846	32674	
5345	0	32770	32775	
5346	0	32844	32772	
5347	0	32782	32644	
5348	0	32838	32716	
5349	0	32856	32766	
5350	0	32848	32852	
5351	0	32820	32872	
5352	0	32824	32708	
5353	0	32844	32807	
5354	0	32742	32819	
5355	0	32760	32848	
5356	0	32770	32830	
5357	0	32796	32716	
5358	0	32780	32738	
5359	0	32876	32756	
5360	0	32844	32684	
5361	0	32822	32732	
5362	0	32860	32756	
5363	0	32826	32750	
5364	0	32766	32710	
5365	0	32768	32841	
5366	0	32778	32766	
5367	0	32796	32828	
5368	0	32828	32903	
5369	0	32858	32732	
5370	0	32802	32750	
5371	0	32816	32810	
5372	0	32820	32710	
5373	0	32812	32792	
5374	0	32802	32720	
5375	0	32824	32844	
5376	0	32848	32673	
5377	0	32798	32834	
5378	0	32760	32807	
5379	0	32792	32736	
5380	0	32842	32774	
5381	0	32856	32756	
5382	0	32842	32719	
5383	0	32852	32724	
5384	0	32788	32736	
5385	0	32768	32760	
5386	0	32764	32705	
5387	0	32836	32766	
5388	0	32780	32828	
5389	0	32834	32766	
5390	0	32754	32670	
5391	0	32860	32812	
5392	0	32836	32722	
5393	0	32830	32900	
5394	0	32840	32788	
5395	0	32824	32792	
5396	0	32796	32690	
5397	0	32734	32910	
5398	0	32904	32744	
5399	0	32846	32764	
5400	0	32866	32678	
5401	0	32796	32701	
5402	0	32768	32748	
5403	0	32838	32836	
5404	0	32732	32712	
5405	0	32804	32846	
5406	0	32808	32818	
5407	0	32800	32718	
5408	0	32849	32760	
5409	0	32836	32794	
5410	0	32836	32816	
5411	0	32820	32842	
5412	0	32768	32610	
5413	0	32840	32743	
5414	0	32834	32692	
5415	0	32784	32756	
5416	0	32856	32772	
5417	0	32796	32816	
5418	0	32846	32806	
5419	0	32820	32718	
5420	0	32772	32828	
5421	0	32744	32856	
5422	0	32862	32894	
5423	0	32812	32881	
5424	0	32756	32732	
5425	0	32836	32828	
5426	0	32838	32716	
5427	0	32840	32728	
5428	0	32832	32850	
5429	0	32792	32830	
5430	0	32808	32653	
5431	0	32832	32746	
5432	0	32844	32674	
5433	0	32788	32785	
5434	0	32822	32692	
5435	0	32852	32775	
5436	0	32822	32838	
5437	0	32852	32857	
5438	0	32788	32800	
5439	0	32850	32764	
5440	0	32834	32841	
5441	0	32872	32784	
5442	0	32760	32860	
5443	0	32782	32804	
5444	0	32882	32775	
5445	0	32784	32834	
5446	0	32808	32708	
5447	0	32780	32884	
5448	0	32828	32692	
5449	0	32804	32822	
5450	0	32808	32735	
5451	0	32784	32688	
5452	0	32786	32736	
5453	0	32834	32724	
5454	0	32798	32664	
5455	0	32890	32822	
5456	0	32800	32864	
5457	0	32800	32692	
5458	0	32842	32864	
5459	0	32760	32844	
5460	0	32792	32678	
5461	0	32892	32740	
5462	0	32796	32814	
5463	0	32848	32696	
5464	0	32828	32750	
5465	0	32832	32679	
5466	0	32800	32676	
5467	0	32868	32775	
5468	0	32830	32816	
5469	0	32752	32724	
5470	0	32776	32822	
5471	0	32764	32849	
5472	0	32850	32756	
5473	0	32874	32764	
5474	0	32810	32790	
5475	0	32838	32849	
5476	0	32808	32796	
5477	0	32808	32716	
5478	0	32816	32775	
5479	0	32766	32772	
5480	0	32784	32732	
5481	0	32788	32832	
5482	0	32849	32742	
5483	0	32832	32660	
5484	0	32772	32804	
5485	0	32822	32766	
5486	0	32801	32744	
5487	0	32856	32807	
5488	0	32772	32678	
5489	0	32796	32700	
5490	0	32823	32807	
5491	0	32780	32792	
5492	0	32773	32772	
5493	0	32814	32742	
5494	0	32864	32720	
5495	0	32804	32692	
5496	0	32820	32842	
5497	0	32804	32794	
5498	0	32828	32716	
5499	0	32760	32806	
5500	0	32824	32775	
5501	0	32808	32672	
5502	0	32852	32743	
5503	0	32796	32856	
5504	0	32789	32748	
5505	0	32776	32750	
5506	0	32816	32822	
5507	0	32868	32720	
5508	0	32956	32792	
5509	0	32876	32788	
5510	0	32812	32704	
5511	0	32862	32750	
5512	0	32776	32855	
5513	0	32794	32756	
5514	0	32820	32854	
5515	0	32828	32775	
5516	0	32828	32684	
5517	0	32864	32858	
5518	0	32804	32831	
5519	0	32778	32675	
5520	0	32780	32750	
5521	0	32852	32711	
5522	0	32834	32871	
5523	0	32808	32792	
5524	0	32814	32678	
5525	0	32806	32712	
5526	0	32758	32748	
5527	0	32818	32748	
5528	0	32812	32751	
5529	0	32800	32702	
5530	0	32832	32878	
5531	0	32832	32775	
5532	0	32820	32808	
5533	0	32844	32686	
5534	0	32828	32870	
5535	0	32776	32858	
5536	0	32794	32700	
5537	0	32820	32842	
5538	0	32760	32758	
5539	0	32752	32676	
5540	0	32800	32672	
5541	0	32784	32750	
5542	0	32760	32656	
5543	0	32744	32710	
5544	0	32720	32596	
5545	0	32716	32756	
5546	0	32784	32767	
5547	0	32716	32596	
5548	0	32680	32704	
5549	0	32724	32686	
5550	0	32820	32637	
5551	0	32740	32639	
5552	0	32780	32671	
5553	0	32808	32596	
5554	0	32728	32764	
5555	0	32698	32692	
5556	0	32684	32642	
5557	0	32848	32774	
5558	0	32856	32760	
5559	0	32828	32664	
5560	0	32912	32743	
5561	0	32892	32742	
5562	0	32938	32656	
5563	0	32992	32798	
5564	0	33058	32816	
5565	0	33044	32846	
5566	0	33092	32908	
5567	0	33022	33153	
5568	0	33112	33166	
5569	0	33064	33173	
5570	0	33026	33158	
5571	0	32942	33212	
5572	0	32998	33146	
5573	0	32920	32892	
5574	0	32854	32940	
5575	0	32786	32916	
5576	0	32696	32834	
5577	0	32680	32770	
5578	0	32666	32560	
5579	0	32728	32657	
5580	0	32770	32636	
5581	0	32700	32610	
5582	0	32660	32688	
5583	0	32692	32568	
5584	0	32658	32596	
5585	0	32708	32648	
5586	0	32716	32642	
5587	0	32720	32590	
5588	0	32702	32700	
5589	0	32720	32746	
5590	0	32780	32684	
5591	0	32706	32708	
5592	0	32762	32718	
5593	0	32784	32678	
5594	0	32792	32750	
5595	0	32825	32786	
5596	0	32792	32844	
5597	0	32836	32750	
5598	0	32884	32734	
5599	0	32840	32756	
5600	0	32776	32714	
5601	0	32870	32698	
5602	0	32818	32790	
5603	0	32760	32751	
5604	0	32804	32706	
5605	0	32836	32748	
5606	0	32796	32736	
5607	0	32808	32836	
5608	0	32810	32724	
5609	0	32834	32828	
5610	0	32750	32821	
5611	0	32804	32847	
5612	0	32808	32806	
5613	0	32796	32784	
5614	0	32784	32764	
5615	0	32796	32710	
5616	0	32800	32732	
5617	0	32808	32699	
5618	0	32830	32710	
5619	0	32816	32734	
5620	0	32840	32688	
5621	0	32872	32846	
5622	0	32820	32768	
5623	0	32760	32799	
5624	0	32780	32711	
5625	0	32782	32759	
5626	0	32766	32788	
5627	0	32820	32872	
5628	0	32852	32780	
5629	0	32840	32875	
5630	0	32824	32740	
5631	0	32828	32758	
5632	0	32804	32684	
5633	0	32852	32682	
5634	0	32794	32774	
5635	0	32845	32756	
5636	0	32798	32698	
5637	0	32778	32718	
5638	0	32812	32844	
5639	0	32836	32849	
5640	0	32820	32846	
5641	0	32844	32775	
5642	0	32828	32720	
5643	0	32752	32902	
5644	0	32884	32853	
5645	0	32828	32647	
5646	0	32844	32767	
5647	0	32848	32712	
5648	0	32768	32806	
5649	0	32793	32822	
5650	0	32820	32679	
5651	0	32802	32815	
5652	0	32825	32678	
5653	0	32792	32711	
5654	0	32792	32840	
5655	0	32812	32774	
5656	0	32784	32856	
5657	0	32776	32807	
5658	0	32813	32706	
5659	0	32744	32794	
5660	0	32800	32912	
5661	0	32808	32748	
5662	0	32765	32833	
5663	0	32782	32766	
5664	0	32848	32740	
5665	0	32800	32825	
5666	0	32794	32718	
5667	0	32820	32694	
5668	0	32800	32670	
5669	0	32856	32775	
5670	0	32784	32854	
5671	0	32816	32674	
5672	0	32900	32758	
5673	0	32806	32888	
5674	0	32876	32759	
5675	0	32770	32714	
5676	0	32864	32718	
5677	0	32836	32756	
5678	0	32776	32898	
5679	0	32767	32812	
5680	0	32808	32691	
5681	0	32744	32825	
5682	0	32800	32876	
5683	0	32775	32647	
5684	0	32872	32732	
5685	0	32892	32772	
5686	0	32788	32698	
5687	0	32848	32764	
5688	0	32824	32774	
5689	0	32892	32756	
5690	0	32784	32832	
5691	0	32816	32807	
5692	0	32842	32804	
5693	0	32764	32838	
5694	0	32768	32715	
5695	0	32772	32824	
5696	0	32892	32727	
5697	0	32744	32704	
5698	0	32870	32680	
5699	0	32840	32807	
5700	0	32820	32774	
5701	0	32764	32679	
5702	0	32784	32807	
5703	0	32784	32743	
5704	0	32798	32700	
5705	0	32744	32775	
5706	0	32852	32712	
5707	0	32848	32775	
5708	0	32796	32721	
5709	0	32804	32775	
5710	0	32752	32839	
5711	0	32776	32809	
5712	0	32784	32836	
5713	0	32904	32831	
5714	0	32868	32802	
5715	0	32774	32670	
5716	0	32784	32903	
5717	0	32812	32823	
5718	0	32820	32734	
5719	0	32810	32836	
5720	0	32792	32788	
5721	0	32796	32638	
5722	0	32840	32700	
5723	0	32832	32775	
5724	0	32852	32722	
5725	0	32836	32728	
5726	0	32790	32764	
5727	0	32836	32678	
5728	0	32822	32772	
5729	0	32864	32710	
5730	0	32808	32680	
5731	0	32772	32807	
5732	0	32852	32818	
5733	0	32762	32769	
5734	0	32776	32844	
5735	0	32788	32847	
5736	0	32788	32740	
5737	0	32764	32804	
5738	0	32784	32798	
5739	0	32788	32692	
5740	0	32804	32724	
5741	0	32804	32802	
5742	0	32788	32706	
5743	0	32854	32720	
5744	0	32812	32753	
5745	0	32836	32903	
5746	0	32784	32839	
5747	0	32824	32759	
5748	0	32842	32750	
5749	0	32820	32818	
5750	0	32788	32659	
5751	0	32838	32788	
5752	0	32852	32775	
5753	0	32820	32684	
5754	0	32852	32790	
5755	0	32780	32840	
5756	0	32834	32652	
5757	0	32824	32752	
5758	0	32756	32730	
5759	0	32800	32814	
5760	0	32838	32810	
5761	0	32806	32724	
5762	0	32842	32814	
5763	0	32796	32772	
5764	0	32840	32743	
5765	0	32804	32810	
5766	0	32748	32802	
5767	0	32832	32688	
5768	0	32808	32688	
5769	0	32804	32748	
5770	0	32824	32812	
5771	0	32824	32722	
5772	0	32788	32764	
5773	0	32892	32788	
5774	0	32824	32802	
5775	0	32796	32774	
5776	0	32808	32774	
5777	0	32744	32704	
5778	0	32792	32844	
5779	0	32766	32864	
5780	0	32832	32702	
5781	0	32804	32759	
5782	0	32872	32799	
5783	0	32772	32664	
5784	0	32844	32843	
5785	0	32856	32731	
5786	0	32804	32775	
5787	0	32808	32746	
5788	0	32760	32788	
5789	0	32768	32826	
5790	0	32792	32638	
5791	0	32876	32880	
5792	0	32868	32788	
5793	0	32808	32834	
5794	0	32832	32760	
5795	0	32814	32800	
5796	0	32840	32818	
5797	0	32808	32654	
5798	0	32852	32748	
5799	0	32866	32864	
5800	0	32780	32724	
5801	0	32820	32811	
5802	0	32774	32686	
5803	0	32816	32810	
5804	0	32812	32704	
5805	0	32808	32746	
5806	0	32856	32820	
5807	0	32844	32806	
5808	0	32848	32728	
5809	0	32840	32839	
5810	0	32842	32750	
5811	0	32832	32723	
5812	0	32772	32688	
5813	0	32832	32828	
5814	0	32760	32758	
5815	0	32792	32666	
5816	0	32756	32744	
5817	0	32852	32723	
5818	0	32796	32760	
5819	0	32816	32890	
5820	0	32868	32763	
5821	0	32784	32742	
5822	0	32874	32761	
5823	0	32816	32840	
5824	0	32832	32775	
5825	0	32810	32812	
5826	0	32796	32784	
5827	0	32812	32698	
5828	0	32772	32738	
5829	0	32772	32700	
5830	0	32724	32775	
5831	0	32834	32854	
5832	0	32834	32706	
5833	0	32828	32711	
5834	0	32752	32710	
5835	0	32820	32775	
5836	0	32846	32816	
5837	0	32730	32684	
5838	0	32865	32804	
5839	0	32817	32700	
5840	0	32872	32743	
5841	0	32832	32842	
5842	0	32800	32792	
5843	0	32820	32764	
5844	0	32780	32775	
5845	0	32816	32860	
5846	0	32796	32916	
5847	0	32736	32742	
5848	0	32874	32714	
5849	0	32852	32619	
5850	0	32842	32737	
5851	0	32754	32750	
5852	0	32756	32687	
5853	0	32792	32752	
5854	0	32780	32772	
5855	0	32770	32788	
5856	0	32824	32830	
5857	0	32792	32724	
5858	0	32778	32728	
5859	0	32872	32806	
5860	0	32804	32710	
5861	0	32801	32746	
5862	0	32764	32775	
5863	0	32784	32704	
5864	0	32778	32768	
5865	0	32832	32736	
5866	0	32784	32682	
5867	0	32758	32817	
5868	0	32856	32792	
5869	0	32824	32742	
5870	0	32786	32804	
5871	0	32798	32826	
5872	0	32844	32692	
5873	0	32836	32750	
5874	0	32788	32738	
5875	0	32848	32714	
5876	0	32818	32772	
5877	0	32878	32762	
5878	0	32828	32854	
5879	0	32776	32775	
5880	0	32788	32736	
5881	0	32880	32892	
5882	0	32892	32838	
5883	0	32768	32743	
5884	0	32852	32755	
5885	0	32814	32892	
5886	0	32836	32708	
5887	0	32804	32775	
5888	0	32836	32775	
5889	0	32760	32647	
5890	0	32778	32819	
5891	0	32764	32760	
5892	0	32824	32660	
5893	0	32780	32816	
5894	0	32808	32810	
5895	0	32856	32696	
5896	0	32744	32774	
5897	0	32844	32798	
5898	0	32760	32695	
5899	0	32792	32740	
5900	0	32840	32730	
5901	0	32772	32832	
5902	0	32800	32788	
5903	0	32834	32660	
5904	0	32844	32852	
5905	0	32862	32912	
5906	0	32812	32804	
5907	0	32782	32816	
5908	0	32824	32734	
5909	0	32794	32735	
5910	0	32856	32710	
5911	0	32808	32794	
5912	0	32816	32738	
5913	0	32840	32852	
5914	0	32844	32820	
5915	0	32840	32730	
5916	0	32792	32775	
5917	0	32764	32730	
5918	0	32823	32871	
5919	0	32766	32716	
5920	0	32802	32794	
5921	0	32808	32764	
5922	0	32832	32790	
5923	0	32802	32693	
5924	0	32786	32740	
5925	0	32868	32822	
5926	0	32876	32852	
5927	0	32864	32736	
5928	0	32828	32746	
5929	0	32822	32784	
5930	0	32810	32660	
5931	0	32856	32783	
5932	0	32780	32764	
5933	0	32772	32774	
5934	0	32816	32706	
5935	0	32820	32769	
5936	0	32784	32746	
5937	0	32824	32744	
5938	0	32900	32786	
5939	0	32900	32730	
5940	0	32804	32792	
5941	0	32776	32708	
5942	0	32792	32772	
5943	0	32788	32758	
5944	0	32852	32742	
5945	0	32834	32775	
5946	0	32808	32832	
5947	0	32880	32703	
5948	0	32792	32757	
5949	0	32788	32871	
5950	0	32860	32644	
5951	0	32828	32764	
5952	0	32788	32756	
5953	0	32812	32775	
5954	0	32788	32714	
5955	0	32816	32806	
5956	0	32842	32775	
5957	0	32740	32775	
5958	0	32828	32774	
5959	0	32826	32798	
5960	0	32849	32840	
5961	0	32830	32660	
5962	0	32772	32770	
5963	0	32816	32856	
5964	0	32804	32729	
5965	0	32820	32724	
5966	0	32820	32820	
5967	0	32830	32770	
5968	0	32812	32710	
5969	0	32796	32775	
5970	0	32768	32790	
5971	0	32752	32828	
5972	0	32840	32680	
5973	0	32834	32913	
5974	0	32884	32822	
5975	0	32772	32700	
5976	0	32804	32852	
5977	0	32816	32750	
5978	0	32746	32820	
5979	0	32810	32736	
5980	0	32845	32769	
5981	0	32834	32752	
5982	0	32816	32679	
5983	0	32808	32878	
5984	0	32832	32775	
5985	0	32824	32706	
5986	0	32776	32766	
5987	0	32900	32772	
5988	0	32804	32743	
5989	0	32760	32846	
5990	0	32900	32780	
5991	0	32910	32694	
5992	0	32868	32876	
5993	0	32872	32756	
5994	0	32792	32678	
5995	0	32828	32802	
5996	0	32782	32770	
5997	0	32846	32754	
5998	0	32806	32767	
5999	0	32748	32828	
6000	0	32832	32746	
6001	0	32804	32818	
6002	0	32850	32775	
6003	0	32768	32816	
6004	0	32812	32719	
6005	0	32852	32724	
6006	0	32866	32722	
6007	0	32848	32810	
6008	0	32778	32807	
6009	0	32836	32672	
6010	0	32838	32786	
6011	0	32792	32736	
6012	0	32872	32758	
