# OpenSignals Text File Format. Version 1
# {"00:07:80:8C:0A:39": {"position": 0, "device": "biosignalsplux", "device name": "00:07:80:8C:0A:39", "device connection": "BTH00:07:80:8C:0A:39", "sampling rate": 1000, "resolution": [16, 16], "firmware version": 776, "comments": "", "keywords": "", "mode": 0, "sync interval": 2, "date": "2023-3-16", "time": "13:43:1.994", "channels": [1, 2], "sensor": ["EMG", "EMG"], "label": ["CH1", "CH2"], "column": ["nSeq", "DI", "CH1", "CH2"], "special": [{"SpO2": [80, 40, 5, 4, 3, 3]}, {"SpO2": [80, 40, 5, 4, 3, 3]}, {"SpO2": [80, 40, 5, 4, 3, 3]}, {"SpO2": [80, 40, 5, 4, 3, 3]}, {"SpO2": [80, 40, 5, 4, 3, 3]}, {"SpO2": [80, 40, 5, 4, 3, 3]}, {"SpO2": [80, 40, 5, 4, 3, 3]}, {"SpO2": [80, 40, 5, 4, 3, 3]}], "digital IO": [0, 1], "sleeve color": ["gray", "yellow"], "convertedValues": 0}}
# EndOfHeader
0	0	32788	32682	
1	0	32856	32822	
2	0	32780	32852	
3	0	32828	32820	
4	0	32752	32790	
5	0	32782	32716	
6	0	32840	32836	
7	0	32824	32766	
8	0	32784	32864	
9	0	32788	32675	
10	0	32816	32679	
11	0	32808	32686	
12	0	32832	32816	
13	0	32780	32798	
14	0	32798	32654	
15	0	32786	32742	
16	0	32784	32734	
17	0	32838	32660	
18	0	32834	32679	
19	0	32824	32856	
20	0	32854	32775	
21	0	32760	32824	
22	0	32776	32775	
23	0	32745	32812	
24	0	32792	32768	
25	0	32788	32676	
26	0	32828	32722	
27	0	32804	32868	
28	0	32832	32754	
29	0	32836	32814	
30	0	32856	32862	
31	0	32848	32710	
32	0	32808	32728	
33	0	32832	32725	
34	0	32868	32720	
35	0	32796	32860	
36	0	32804	32799	
37	0	32804	32814	
38	0	32760	32874	
39	0	32774	32722	
40	0	32800	32711	
41	0	32792	32684	
42	0	32842	32654	
43	0	32744	32834	
44	0	32884	32810	
45	0	32772	32756	
46	0	32816	32856	
47	0	32788	32660	
48	0	32776	32702	
49	0	32828	32856	
50	0	32810	32754	
51	0	32880	32872	
52	0	32808	32830	
53	0	32796	32630	
54	0	32836	32796	
55	0	32802	32830	
56	0	32824	32836	
57	0	32792	32800	
58	0	32848	32857	
59	0	32800	32860	
60	0	32816	32714	
61	0	32768	32794	
62	0	32876	32852	
63	0	32820	32758	
64	0	32816	32820	
65	0	32768	32743	
66	0	32788	32621	
67	0	32848	32807	
68	0	32794	32762	
69	0	32896	32748	
70	0	32798	32569	
71	0	32748	32646	
72	0	32776	32758	
73	0	32816	32758	
74	0	32768	32728	
75	0	32730	32768	
76	0	32824	32806	
77	0	32820	32628	
78	0	32848	32770	
79	0	32840	32816	
80	0	32782	32720	
81	0	32816	32834	
82	0	32796	32679	
83	0	32888	32692	
84	0	32872	32871	
85	0	32840	32762	
86	0	32786	32828	
87	0	32825	32775	
88	0	32784	32775	
89	0	32890	32861	
90	0	32792	32812	
91	0	32852	32775	
92	0	32876	32854	
93	0	32812	32710	
94	0	32814	32879	
95	0	32752	32802	
96	0	32820	32814	
97	0	32820	32775	
98	0	32770	32740	
99	0	32840	32687	
100	0	32788	32766	
101	0	32760	32775	
102	0	32828	32772	
103	0	32848	32700	
104	0	32820	32652	
105	0	32912	32796	
106	0	32766	32743	
107	0	32768	32850	
108	0	32860	32647	
109	0	32828	32746	
110	0	32784	32886	
111	0	32824	32772	
112	0	32844	32839	
113	0	32772	32674	
114	0	32780	32900	
115	0	32770	32812	
116	0	32860	32800	
117	0	32810	32858	
118	0	32828	32755	
119	0	32808	32740	
120	0	32722	32801	
121	0	32768	32767	
122	0	32870	32834	
123	0	32792	32735	
124	0	32784	32660	
125	0	32830	32734	
126	0	32780	32718	
127	0	32844	32721	
128	0	32800	32678	
129	0	32824	32696	
130	0	32856	32748	
131	0	32792	32686	
132	0	32748	32727	
133	0	32792	32693	
134	0	32868	32766	
135	0	32816	32700	
136	0	32804	32792	
137	0	32894	32794	
138	0	32782	32736	
139	0	32874	32724	
140	0	32814	32823	
141	0	32840	32884	
142	0	32812	32791	
143	0	32786	32820	
144	0	32833	32856	
145	0	32836	32790	
146	0	32830	32782	
147	0	32840	32866	
148	0	32832	32832	
149	0	32782	32734	
150	0	32816	32684	
151	0	32828	32775	
152	0	32826	32740	
153	0	32788	32790	
154	0	32840	32796	
155	0	32848	32790	
156	0	32830	32895	
157	0	32772	32752	
158	0	32818	32708	
159	0	32798	32868	
160	0	32816	32858	
161	0	32832	32808	
162	0	32832	32732	
163	0	32830	32796	
164	0	32805	32726	
165	0	32828	32698	
166	0	32784	32692	
167	0	32816	32766	
168	0	32876	32716	
169	0	32790	32716	
170	0	32817	32775	
171	0	32852	32754	
172	0	32780	32660	
173	0	32832	32832	
174	0	32784	32784	
175	0	32848	32810	
176	0	32862	32832	
177	0	32840	32743	
178	0	32864	32682	
179	0	32854	32808	
180	0	32768	32839	
181	0	32888	32712	
182	0	32802	32802	
183	0	32824	32759	
184	0	32788	32700	
185	0	32828	32738	
186	0	32792	32834	
187	0	32824	32712	
188	0	32800	32772	
189	0	32792	32798	
190	0	32729	32692	
191	0	32836	32718	
192	0	32804	32880	
193	0	32848	32810	
194	0	32817	32768	
195	0	32820	32806	
196	0	32748	32830	
197	0	32860	32710	
198	0	32896	32702	
199	0	32824	32784	
200	0	32836	32743	
201	0	32840	32784	
202	0	32800	32774	
203	0	32828	32617	
204	0	32784	32741	
205	0	32816	32751	
206	0	32768	32704	
207	0	32830	32802	
208	0	32846	32694	
209	0	32820	32704	
210	0	32804	32740	
211	0	32796	32710	
212	0	32816	32775	
213	0	32732	32824	
214	0	32784	32802	
215	0	32760	32744	
216	0	32832	32724	
217	0	32812	32743	
218	0	32841	32754	
219	0	32794	32876	
220	0	32808	32838	
221	0	32756	32789	
222	0	32836	32892	
223	0	32784	32788	
224	0	32800	32655	
225	0	32804	32736	
226	0	32774	32746	
227	0	32816	32766	
228	0	32816	32818	
229	0	32780	32775	
230	0	32798	32775	
231	0	32800	32740	
232	0	32840	32683	
233	0	32844	32694	
234	0	32852	32846	
235	0	32817	32810	
236	0	32852	32768	
237	0	32866	32860	
238	0	32796	32740	
239	0	32832	32698	
240	0	32794	32703	
241	0	32774	32718	
242	0	32724	32676	
243	0	32810	32662	
244	0	32830	32698	
245	0	32792	32703	
246	0	32804	32764	
247	0	32816	32796	
248	0	32812	32788	
249	0	32804	32772	
250	0	32892	32772	
251	0	32768	32807	
252	0	32804	32815	
253	0	32780	32766	
254	0	32752	32770	
255	0	32780	32828	
256	0	32824	32708	
257	0	32784	32722	
258	0	32792	32690	
259	0	32868	32784	
260	0	32880	32762	
261	0	32860	32742	
262	0	32857	32888	
263	0	32824	32803	
264	0	32780	32758	
265	0	32816	32738	
266	0	32888	32750	
267	0	32816	32716	
268	0	32772	32898	
269	0	32818	32820	
270	0	32830	32760	
271	0	32764	32802	
272	0	32740	32730	
273	0	32738	32647	
274	0	32756	32662	
275	0	32830	32666	
276	0	32848	32788	
277	0	32824	32775	
278	0	32844	32775	
279	0	32868	32752	
280	0	32820	32799	
281	0	32820	32858	
282	0	32824	32811	
283	0	32762	32863	
284	0	32808	32848	
285	0	32812	32834	
286	0	32784	32822	
287	0	32820	32772	
288	0	32856	32806	
289	0	32794	32708	
290	0	32824	32711	
291	0	32860	32774	
292	0	32824	32710	
293	0	32770	32764	
294	0	32820	32721	
295	0	32834	32677	
296	0	32792	32662	
297	0	32756	32692	
298	0	32868	32683	
299	0	32816	32738	
300	0	32832	32666	
301	0	32762	32702	
302	0	32852	32672	
303	0	32780	32679	
304	0	32784	32775	
305	0	32804	32807	
306	0	32820	32715	
307	0	32844	32810	
308	0	32758	32644	
309	0	32804	32640	
310	0	32842	32670	
311	0	32792	32775	
312	0	32768	32808	
313	0	32808	32804	
314	0	32846	32774	
315	0	32786	32800	
316	0	32872	32882	
317	0	32838	32772	
318	0	32868	32670	
319	0	32800	32678	
320	0	32844	32814	
321	0	32830	32716	
322	0	32880	32775	
323	0	32912	32828	
324	0	32856	32801	
325	0	32820	32644	
326	0	32884	32600	
327	0	32880	32752	
328	0	32896	32634	
329	0	32878	32566	
330	0	32820	32636	
331	0	32864	32487	
332	0	32798	32460	
333	0	32844	32519	
334	0	32874	32553	
335	0	32872	32448	
336	0	32844	32479	
337	0	32814	32502	
338	0	32832	32569	
339	0	32840	32616	
340	0	32818	32574	
341	0	32810	32518	
342	0	32772	32628	
343	0	32816	32848	
344	0	32736	33020	
345	0	32712	33094	
346	0	32748	33270	
347	0	32632	33415	
348	0	32608	33542	
349	0	32542	33532	
350	0	32558	33526	
351	0	32576	33583	
352	0	32554	33614	
353	0	32652	33492	
354	0	32730	33502	
355	0	32680	33380	
356	0	32756	33204	
357	0	32770	32920	
358	0	32810	32775	
359	0	32820	32634	
360	0	32792	32432	
361	0	32840	32294	
362	0	32930	32352	
363	0	32902	32350	
364	0	32900	32344	
365	0	32942	32350	
366	0	32952	32412	
367	0	32900	32376	
368	0	32924	32451	
369	0	32944	32500	
370	0	32872	32391	
371	0	32864	32420	
372	0	32860	32434	
373	0	32808	32596	
374	0	32868	32551	
375	0	32868	32662	
376	0	32897	32775	
377	0	32912	32774	
378	0	32916	32824	
379	0	32932	32901	
380	0	32868	32774	
381	0	32898	32839	
382	0	32872	32756	
383	0	32836	32814	
384	0	32794	32846	
385	0	32866	32842	
386	0	32842	32864	
387	0	32824	32768	
388	0	32800	32714	
389	0	32840	32702	
390	0	32826	32734	
391	0	32788	32742	
392	0	32836	32764	
393	0	32748	32882	
394	0	32740	32823	
395	0	32752	32807	
396	0	32822	32862	
397	0	32768	32798	
398	0	32820	32830	
399	0	32785	32734	
400	0	32866	32694	
401	0	32796	32856	
402	0	32792	32832	
403	0	32778	32810	
404	0	32824	32788	
405	0	32746	32756	
406	0	32788	32647	
407	0	32768	32668	
408	0	32872	32722	
409	0	32752	32823	
410	0	32768	32774	
411	0	32786	32723	
412	0	32836	32753	
413	0	32892	32790	
414	0	32808	32758	
415	0	32794	32624	
416	0	32688	32636	
417	0	32820	32692	
418	0	32808	32720	
419	0	32884	32836	
420	0	32840	32752	
421	0	32836	32898	
422	0	32750	32836	
423	0	32814	32884	
424	0	32804	32770	
425	0	32832	32814	
426	0	32820	32885	
427	0	32786	32775	
428	0	32772	32698	
429	0	32800	32764	
430	0	32800	32876	
431	0	32786	32826	
432	0	32820	32772	
433	0	32828	32766	
434	0	32804	32694	
435	0	32778	32702	
436	0	32776	32711	
437	0	32860	32742	
438	0	32904	32775	
439	0	32804	32732	
440	0	32816	32775	
441	0	32832	32754	
442	0	32828	32810	
443	0	32800	32678	
444	0	32816	32775	
445	0	32796	32742	
446	0	32784	32838	
447	0	32836	32732	
448	0	32804	32676	
449	0	32840	32840	
450	0	32762	32782	
451	0	32732	32775	
452	0	32858	32788	
453	0	32828	32662	
454	0	32766	32638	
455	0	32820	32833	
456	0	32820	32820	
457	0	32856	32792	
458	0	32864	32816	
459	0	32780	32820	
460	0	32854	32708	
461	0	32802	32716	
462	0	32838	32756	
463	0	32732	32730	
464	0	32816	32752	
465	0	32798	32830	
466	0	32820	32775	
467	0	32772	32716	
468	0	32818	32772	
469	0	32758	32728	
470	0	32790	32817	
471	0	32802	32758	
472	0	32834	32740	
473	0	32836	32839	
474	0	32810	32826	
475	0	32832	32799	
476	0	32788	32732	
477	0	32818	32854	
478	0	32840	32824	
479	0	32830	32810	
480	0	32916	32868	
481	0	32804	32788	
482	0	32814	32719	
483	0	32772	32708	
484	0	32814	32828	
485	0	32830	32752	
486	0	32824	32872	
487	0	32880	32863	
488	0	32800	32702	
489	0	32800	32704	
490	0	32800	32716	
491	0	32846	32716	
492	0	32814	32708	
493	0	32808	32746	
494	0	32822	32744	
495	0	32824	32788	
496	0	32770	32798	
497	0	32836	32812	
498	0	32834	32738	
499	0	32796	32626	
500	0	32840	32744	
501	0	32796	32775	
502	0	32844	32764	
503	0	32868	32764	
504	0	32844	32774	
505	0	32820	32828	
506	0	32794	32728	
507	0	32832	32762	
508	0	32780	32743	
509	0	32784	32804	
510	0	32806	32847	
511	0	32846	32908	
512	0	32788	32768	
513	0	32800	32658	
514	0	32868	32678	
515	0	32824	32738	
516	0	32844	32742	
517	0	32808	32732	
518	0	32798	32760	
519	0	32766	32710	
520	0	32884	32711	
521	0	32824	32730	
522	0	32836	32812	
523	0	32792	32828	
524	0	32772	32804	
525	0	32818	32794	
526	0	32858	32774	
527	0	32780	32690	
528	0	32854	32650	
529	0	32808	32796	
530	0	32828	32732	
531	0	32828	32816	
532	0	32842	32814	
533	0	32864	32740	
534	0	32786	32834	
535	0	32764	32908	
536	0	32800	32828	
537	0	32784	32772	
538	0	32828	32891	
539	0	32775	32748	
540	0	32786	32732	
541	0	32776	32726	
542	0	32780	32692	
543	0	32892	32692	
544	0	32824	32775	
545	0	32834	32762	
546	0	32866	32714	
547	0	32888	32749	
548	0	32836	32848	
549	0	32772	32840	
550	0	32804	32798	
551	0	32772	32722	
552	0	32852	32736	
553	0	32820	32652	
554	0	32830	32716	
555	0	32786	32632	
556	0	32750	32868	
557	0	32748	32804	
558	0	32772	32784	
559	0	32800	32746	
560	0	32868	32774	
561	0	32798	32854	
562	0	32788	32818	
563	0	32841	32770	
564	0	32816	32766	
565	0	32780	32679	
566	0	32818	32718	
567	0	32876	32772	
568	0	32768	32743	
569	0	32780	32866	
570	0	32802	32732	
571	0	32788	32804	
572	0	32792	32788	
573	0	32820	32748	
574	0	32828	32772	
575	0	32792	32768	
576	0	32852	32766	
577	0	32748	32663	
578	0	32828	32639	
579	0	32794	32680	
580	0	32796	32706	
581	0	32816	32692	
582	0	32768	32676	
583	0	32764	32744	
584	0	32764	32638	
585	0	32760	32824	
586	0	32768	32814	
587	0	32746	32746	
588	0	32840	32804	
589	0	32816	32834	
590	0	32848	32864	
591	0	32772	32738	
592	0	32852	32732	
593	0	32812	32812	
594	0	32752	32718	
595	0	32846	32872	
596	0	32806	32868	
597	0	32820	32838	
598	0	32864	32692	
599	0	32876	32756	
600	0	32823	32766	
601	0	32832	32896	
602	0	32808	32728	
603	0	32812	32679	
604	0	32748	32772	
605	0	32856	32788	
606	0	32816	32808	
607	0	32792	32764	
608	0	32808	32830	
609	0	32882	32750	
610	0	32816	32792	
611	0	32868	32807	
612	0	32776	32742	
613	0	32826	32668	
614	0	32816	32750	
615	0	32840	32816	
616	0	32788	32740	
617	0	32858	32716	
618	0	32740	32692	
619	0	32708	32683	
620	0	32804	32644	
621	0	32830	32752	
622	0	32810	32754	
623	0	32748	32817	
624	0	32896	32868	
625	0	32804	32704	
626	0	32782	32775	
627	0	32806	32848	
628	0	32768	32788	
629	0	32832	32775	
630	0	32828	32766	
631	0	32850	32771	
632	0	32826	32790	
633	0	32818	32728	
634	0	32830	32694	
635	0	32800	32775	
636	0	32864	32880	
637	0	32826	32839	
638	0	32846	32806	
639	0	32822	32814	
640	0	32816	32758	
641	0	32816	32676	
642	0	32756	32644	
643	0	32868	32670	
644	0	32786	32753	
645	0	32810	32714	
646	0	32772	32831	
647	0	32736	32660	
648	0	32818	32694	
649	0	32832	32725	
650	0	32792	32695	
651	0	32788	32775	
652	0	32788	32810	
653	0	32854	32852	
654	0	32812	32788	
655	0	32824	32802	
656	0	32790	32824	
657	0	32790	32735	
658	0	32840	32698	
659	0	32870	32724	
660	0	32816	32674	
661	0	32772	32728	
662	0	32768	32798	
663	0	32824	32800	
664	0	32816	32868	
665	0	32769	32752	
666	0	32760	32704	
667	0	32840	32754	
668	0	32908	32839	
669	0	32775	32871	
670	0	32774	32846	
671	0	32830	32670	
672	0	32774	32775	
673	0	32824	32790	
674	0	32798	32789	
675	0	32828	32723	
676	0	32830	32730	
677	0	32836	32759	
678	0	32816	32836	
679	0	32844	32814	
680	0	32840	32775	
681	0	32792	32897	
682	0	32808	32726	
683	0	32824	32684	
684	0	32828	32686	
685	0	32824	32775	
686	0	32782	32786	
687	0	32866	32766	
688	0	32868	32762	
689	0	32804	32670	
690	0	32792	32738	
691	0	32788	32714	
692	0	32868	32700	
693	0	32844	32714	
694	0	32794	32828	
695	0	32894	32788	
696	0	32836	32718	
697	0	32780	32676	
698	0	32794	32711	
699	0	32776	32840	
700	0	32812	32866	
701	0	32808	32756	
702	0	32780	32828	
703	0	32824	32836	
704	0	32804	32775	
705	0	32808	32702	
706	0	32824	32814	
707	0	32784	32812	
708	0	32874	32788	
709	0	32780	32807	
710	0	32832	32758	
711	0	32780	32836	
712	0	32778	32826	
713	0	32836	32846	
714	0	32816	32768	
715	0	32836	32648	
716	0	32776	32903	
717	0	32816	32782	
718	0	32778	32724	
719	0	32839	32736	
720	0	32832	32810	
721	0	32852	32756	
722	0	32812	32762	
723	0	32780	32646	
724	0	32844	32806	
725	0	32816	32828	
726	0	32800	32682	
727	0	32810	32764	
728	0	32810	32728	
729	0	32832	32820	
730	0	32828	32686	
731	0	32786	32730	
732	0	32736	32655	
733	0	32856	32698	
734	0	32832	32825	
735	0	32804	32812	
736	0	32788	32804	
737	0	32792	32858	
738	0	32862	32852	
739	0	32856	32770	
740	0	32836	32738	
741	0	32824	32700	
742	0	32770	32708	
743	0	32840	32704	
744	0	32810	32880	
745	0	32840	32804	
746	0	32764	32774	
747	0	32818	32728	
748	0	32836	32830	
749	0	32828	32750	
750	0	32792	32674	
751	0	32810	32644	
752	0	32776	32726	
753	0	32816	32712	
754	0	32814	32814	
755	0	32788	32788	
756	0	32820	32821	
757	0	32812	32808	
758	0	32726	32874	
759	0	32824	32838	
760	0	32878	32714	
761	0	32752	32678	
762	0	32868	32753	
763	0	32864	32712	
764	0	32824	32850	
765	0	32850	32750	
766	0	32824	32811	
767	0	32778	32668	
768	0	32724	32775	
769	0	32812	32836	
770	0	32764	32766	
771	0	32814	32810	
772	0	32844	32768	
773	0	32768	32791	
774	0	32808	32646	
775	0	32780	32767	
776	0	32820	32834	
777	0	32814	32814	
778	0	32790	32788	
779	0	32862	32774	
780	0	32838	32839	
781	0	32844	32814	
782	0	32788	32807	
783	0	32848	32818	
784	0	32848	32752	
785	0	32720	32666	
786	0	32796	32710	
787	0	32840	32711	
788	0	32840	32716	
789	0	32844	32708	
790	0	32828	32732	
791	0	32854	32784	
792	0	32732	32804	
793	0	32780	32727	
794	0	32752	32674	
795	0	32804	32743	
796	0	32834	32752	
797	0	32788	32871	
798	0	32802	32805	
799	0	32780	32814	
800	0	32802	32858	
801	0	32808	32740	
802	0	32784	32736	
803	0	32808	32796	
804	0	32805	32754	
805	0	32820	32750	
806	0	32804	32678	
807	0	32792	32766	
808	0	32828	32688	
809	0	32864	32868	
810	0	32836	32878	
811	0	32874	32818	
812	0	32876	32738	
813	0	32844	32679	
814	0	32913	32674	
815	0	32848	32854	
816	0	32822	32758	
817	0	32804	32807	
818	0	32848	32806	
819	0	32808	32842	
820	0	32810	32766	
821	0	32832	32775	
822	0	32816	32688	
823	0	32792	32716	
824	0	32816	32660	
825	0	32858	32678	
826	0	32849	32742	
827	0	32816	32856	
828	0	32798	32928	
829	0	32804	32784	
830	0	32816	32775	
831	0	32832	32768	
832	0	32804	32838	
833	0	32820	32820	
834	0	32756	32726	
835	0	32780	32710	
836	0	32762	32728	
837	0	32774	32764	
838	0	32812	32848	
839	0	32860	32810	
840	0	32852	32711	
841	0	32810	32676	
842	0	32800	32774	
843	0	32804	32772	
844	0	32788	32711	
845	0	32752	32740	
846	0	32836	32844	
847	0	32804	32818	
848	0	32790	32860	
849	0	32800	32856	
850	0	32858	32620	
851	0	32758	32700	
852	0	32836	32876	
853	0	32840	32860	
854	0	32816	32742	
855	0	32832	32890	
856	0	32760	32694	
857	0	32868	32626	
858	0	32844	32775	
859	0	32832	32860	
860	0	32792	32775	
861	0	32812	32790	
862	0	32732	32731	
863	0	32806	32796	
864	0	32796	32706	
865	0	32812	32732	
866	0	32888	32865	
867	0	32776	32746	
868	0	32848	32766	
869	0	32788	32871	
870	0	32792	32684	
871	0	32808	32687	
872	0	32836	32655	
873	0	32822	32696	
874	0	32816	32856	
875	0	32800	32798	
876	0	32794	32758	
877	0	32854	32836	
878	0	32816	32820	
879	0	32880	32662	
880	0	32844	32656	
881	0	32864	32774	
882	0	32768	32834	
883	0	32754	32740	
884	0	32844	32807	
885	0	32844	32862	
886	0	32762	32700	
887	0	32796	32642	
888	0	32840	32752	
889	0	32776	32832	
890	0	32806	32794	
891	0	32818	32686	
892	0	32848	32687	
893	0	32878	32720	
894	0	32808	32806	
895	0	32844	32772	
896	0	32836	32802	
897	0	32778	32802	
898	0	32786	32752	
899	0	32816	32756	
900	0	32820	32726	
901	0	32826	32704	
902	0	32826	32814	
903	0	32812	32836	
904	0	32772	32775	
905	0	32784	32772	
906	0	32828	32710	
907	0	32778	32646	
908	0	32824	32730	
909	0	32808	32902	
910	0	32888	32802	
911	0	32804	32806	
912	0	32782	32844	
913	0	32768	32814	
914	0	32820	32752	
915	0	32788	32816	
916	0	32852	32760	
917	0	32788	32840	
918	0	32810	32736	
919	0	32830	32739	
920	0	32870	32818	
921	0	32788	32858	
922	0	32772	32788	
923	0	32832	32764	
924	0	32772	32770	
925	0	32768	32647	
926	0	32752	32648	
927	0	32752	32689	
928	0	32768	32764	
929	0	32836	32712	
930	0	32808	32752	
931	0	32796	32772	
932	0	32816	32775	
933	0	32815	32746	
934	0	32864	32626	
935	0	32792	32696	
936	0	32792	32736	
937	0	32816	32752	
938	0	32804	32798	
939	0	32768	32719	
940	0	32868	32840	
941	0	32774	32708	
942	0	32808	32704	
943	0	32856	32788	
944	0	32776	32920	
945	0	32840	32858	
946	0	32834	32788	
947	0	32836	32830	
948	0	32860	32698	
949	0	32824	32678	
950	0	32756	32761	
951	0	32820	32832	
952	0	32758	32686	
953	0	32768	32800	
954	0	32794	32844	
955	0	32800	32770	
956	0	32864	32638	
957	0	32845	32750	
958	0	32808	32858	
959	0	32864	32738	
960	0	32868	32750	
961	0	32812	32712	
962	0	32784	32802	
963	0	32840	32851	
964	0	32780	32831	
965	0	32848	32710	
966	0	32852	32848	
967	0	32808	32807	
968	0	32740	32792	
969	0	32836	32763	
970	0	32872	32711	
971	0	32837	32666	
972	0	32790	32730	
973	0	32768	32888	
974	0	32772	32772	
975	0	32852	32838	
976	0	32828	32758	
977	0	32900	32724	
978	0	32772	32756	
979	0	32780	32752	
980	0	32824	32743	
981	0	32800	32767	
982	0	32794	32836	
983	0	32824	32770	
984	0	32816	32718	
985	0	32784	32664	
986	0	32812	32796	
987	0	32788	32802	
988	0	32752	32716	
989	0	32798	32716	
990	0	32782	32636	
991	0	32828	32676	
992	0	32820	32884	
993	0	32806	32720	
994	0	32830	32839	
995	0	32800	32814	
996	0	32796	32710	
997	0	32836	32748	
998	0	32760	32714	
999	0	32830	32772	
1000	0	32772	32728	
1001	0	32792	32806	
1002	0	32828	32796	
1003	0	32756	32760	
1004	0	32808	32775	
1005	0	32814	32694	
1006	0	32860	32772	
1007	0	32746	32773	
1008	0	32852	32810	
1009	0	32792	32814	
1010	0	32872	32806	
1011	0	32800	32654	
1012	0	32790	32706	
1013	0	32868	32688	
1014	0	32826	32794	
1015	0	32793	32831	
1016	0	32778	32798	
1017	0	32808	32834	
1018	0	32836	32775	
1019	0	32828	32800	
1020	0	32844	32728	
1021	0	32896	32726	
1022	0	32916	32793	
1023	0	32930	32684	
1024	0	32860	32648	
1025	0	32836	32679	
1026	0	32756	32510	
1027	0	32874	32492	
1028	0	32884	32610	
1029	0	32840	32561	
1030	0	32836	32512	
1031	0	32818	32514	
1032	0	32748	32444	
1033	0	32844	32455	
1034	0	32868	32494	
1035	0	32890	32568	
1036	0	32844	32544	
1037	0	32798	32496	
1038	0	32772	32684	
1039	0	32750	32629	
1040	0	32780	32734	
1041	0	32822	32902	
1042	0	32752	33054	
1043	0	32678	33230	
1044	0	32670	33342	
1045	0	32576	33398	
1046	0	32656	33496	
1047	0	32608	33466	
1048	0	32578	33630	
1049	0	32560	33514	
1050	0	32576	33456	
1051	0	32772	33488	
1052	0	32645	33356	
1053	0	32688	33140	
1054	0	32740	32966	
1055	0	32812	32770	
1056	0	32832	32620	
1057	0	32868	32583	
1058	0	32828	32454	
1059	0	32832	32422	
1060	0	32852	32342	
1061	0	32864	32316	
1062	0	32872	32446	
1063	0	32838	32454	
1064	0	32850	32559	
1065	0	32946	32396	
1066	0	32898	32340	
1067	0	32828	32518	
1068	0	32872	32535	
1069	0	32918	32540	
1070	0	32916	32554	
1071	0	32878	32615	
1072	0	32888	32716	
1073	0	32952	32766	
1074	0	32878	32668	
1075	0	32868	32711	
1076	0	32880	32753	
1077	0	32868	32864	
1078	0	32892	32744	
1079	0	32844	32710	
1080	0	32852	32844	
1081	0	32929	32868	
1082	0	32880	32802	
1083	0	32872	32762	
1084	0	32800	32726	
1085	0	32770	32918	
1086	0	32830	32855	
1087	0	32800	32812	
1088	0	32852	32712	
1089	0	32794	32756	
1090	0	32790	32788	
1091	0	32784	32836	
1092	0	32792	32740	
1093	0	32712	32756	
1094	0	32818	32736	
1095	0	32775	32789	
1096	0	32778	32775	
1097	0	32874	32768	
1098	0	32780	32684	
1099	0	32804	32852	
1100	0	32728	32796	
1101	0	32780	32768	
1102	0	32742	32680	
1103	0	32788	32734	
1104	0	32784	32868	
1105	0	32836	32748	
1106	0	32804	32754	
1107	0	32794	32760	
1108	0	32808	32796	
1109	0	32780	32831	
1110	0	32812	32746	
1111	0	32781	32903	
1112	0	32808	32732	
1113	0	32784	32740	
1114	0	32784	32804	
1115	0	32812	32775	
1116	0	32816	32818	
1117	0	32856	32658	
1118	0	32800	32932	
1119	0	32842	32770	
1120	0	32790	32764	
1121	0	32826	32742	
1122	0	32804	32692	
1123	0	32814	32772	
1124	0	32822	32756	
1125	0	32808	32767	
1126	0	32832	32681	
1127	0	32825	32860	
1128	0	32810	32764	
1129	0	32812	32738	
1130	0	32748	32684	
1131	0	32804	32734	
1132	0	32842	32770	
1133	0	32884	32736	
1134	0	32796	32816	
1135	0	32864	32662	
1136	0	32880	32743	
1137	0	32854	32887	
1138	0	32758	32732	
1139	0	32774	32788	
1140	0	32816	32775	
1141	0	32832	32718	
1142	0	32848	32886	
1143	0	32788	32794	
1144	0	32774	32788	
1145	0	32800	32748	
1146	0	32756	32798	
1147	0	32856	32712	
1148	0	32844	32744	
1149	0	32801	32796	
1150	0	32780	32714	
1151	0	32784	32824	
1152	0	32836	32758	
1153	0	32784	32775	
1154	0	32844	32774	
1155	0	32834	32702	
1156	0	32832	32700	
1157	0	32802	32872	
1158	0	32832	32812	
1159	0	32846	32726	
1160	0	32784	32668	
1161	0	32800	32875	
1162	0	32784	32743	
1163	0	32836	32823	
1164	0	32824	32804	
1165	0	32830	32762	
1166	0	32840	32698	
1167	0	32844	32903	
1168	0	32728	32754	
1169	0	32784	32838	
1170	0	32816	32750	
1171	0	32830	32728	
1172	0	32780	32647	
1173	0	32852	32890	
1174	0	32832	32788	
1175	0	32832	32768	
1176	0	32768	32853	
1177	0	32796	32732	
1178	0	32836	32700	
1179	0	32832	32772	
1180	0	32840	32862	
1181	0	32864	32858	
1182	0	32834	32727	
1183	0	32880	32672	
1184	0	32808	32718	
1185	0	32860	32822	
1186	0	32800	32775	
1187	0	32808	32804	
1188	0	32804	32732	
1189	0	32832	32756	
1190	0	32768	32823	
1191	0	32748	32708	
1192	0	32740	32841	
1193	0	32856	32712	
1194	0	32816	32694	
1195	0	32786	32722	
1196	0	32880	32788	
1197	0	32806	32836	
1198	0	32812	32796	
1199	0	32872	32840	
1200	0	32824	32734	
1201	0	32792	32748	
1202	0	32782	32775	
1203	0	32836	32758	
1204	0	32824	32807	
1205	0	32814	32754	
1206	0	32792	32790	
1207	0	32792	32644	
1208	0	32816	32774	
1209	0	32868	32753	
1210	0	32816	32874	
1211	0	32804	32854	
1212	0	32772	32815	
1213	0	32764	32740	
1214	0	32728	32792	
1215	0	32836	32770	
1216	0	32864	32737	
1217	0	32776	32692	
1218	0	32772	32860	
1219	0	32816	32806	
1220	0	32840	32769	
1221	0	32864	32759	
1222	0	32776	32740	
1223	0	32792	32710	
1224	0	32806	32700	
1225	0	32836	32906	
1226	0	32830	32808	
1227	0	32738	32684	
1228	0	32778	32808	
1229	0	32746	32764	
1230	0	32810	32721	
1231	0	32778	32678	
1232	0	32832	32802	
1233	0	32792	32806	
1234	0	32820	32798	
1235	0	32806	32854	
1236	0	32820	32716	
1237	0	32812	32932	
1238	0	32800	32846	
1239	0	32820	32775	
1240	0	32828	32759	
1241	0	32814	32734	
1242	0	32800	32722	
1243	0	32804	32742	
1244	0	32810	32800	
1245	0	32804	32716	
1246	0	32762	32785	
1247	0	32766	32692	
1248	0	32860	32678	
1249	0	32828	32743	
1250	0	32768	32807	
1251	0	32816	32800	
1252	0	32756	32839	
1253	0	32800	32672	
1254	0	32814	32638	
1255	0	32856	32842	
1256	0	32862	32816	
1257	0	32794	32820	
1258	0	32848	32774	
1259	0	32848	32710	
1260	0	32794	32862	
1261	0	32756	32742	
1262	0	32820	32862	
1263	0	32800	32726	
1264	0	32786	32740	
1265	0	32764	32828	
1266	0	32784	32796	
1267	0	32844	32794	
1268	0	32692	32794	
1269	0	32862	32782	
1270	0	32808	32638	
1271	0	32828	32644	
1272	0	32832	32756	
1273	0	32752	32849	
1274	0	32796	32768	
1275	0	32798	32753	
1276	0	32860	32849	
1277	0	32816	32912	
1278	0	32890	32742	
1279	0	32780	32738	
1280	0	32828	32832	
1281	0	32798	32775	
1282	0	32732	32786	
1283	0	32824	32752	
1284	0	32814	32644	
1285	0	32801	32748	
1286	0	32752	32728	
1287	0	32802	32798	
1288	0	32862	32775	
1289	0	32770	32758	
1290	0	32876	32775	
1291	0	32820	32806	
1292	0	32772	32732	
1293	0	32844	32772	
1294	0	32808	32836	
1295	0	32836	32708	
1296	0	32840	32736	
1297	0	32774	32806	
1298	0	32786	32834	
1299	0	32825	32775	
1300	0	32808	32834	
1301	0	32836	32828	
1302	0	32840	32684	
1303	0	32810	32696	
1304	0	32874	32844	
1305	0	32808	32810	
1306	0	32808	32812	
1307	0	32844	32796	
1308	0	32816	32724	
1309	0	32884	32834	
1310	0	32836	32773	
1311	0	32796	32666	
1312	0	32808	32686	
1313	0	32812	32775	
1314	0	32816	32744	
1315	0	32804	32749	
1316	0	32844	32774	
1317	0	32800	32725	
1318	0	32760	32738	
1319	0	32832	32860	
1320	0	32840	32748	
1321	0	32824	32724	
1322	0	32764	32788	
1323	0	32804	32760	
1324	0	32800	32726	
1325	0	32842	32838	
1326	0	32854	32738	
1327	0	32824	32682	
1328	0	32868	32664	
1329	0	32748	32654	
1330	0	32860	32678	
1331	0	32812	32806	
1332	0	32824	32790	
1333	0	32820	32800	
1334	0	32752	32756	
1335	0	32792	32858	
1336	0	32754	32908	
1337	0	32804	32722	
1338	0	32866	32684	
1339	0	32830	32696	
1340	0	32828	32787	
1341	0	32832	32700	
1342	0	32838	32821	
1343	0	32908	32727	
1344	0	32824	32848	
1345	0	32812	32714	
1346	0	32840	32711	
1347	0	32846	32822	
1348	0	32800	32742	
1349	0	32832	32810	
1350	0	32768	32727	
1351	0	32784	32734	
1352	0	32820	32855	
1353	0	32814	32836	
1354	0	32846	32696	
1355	0	32816	32692	
1356	0	32832	32810	
1357	0	32784	32862	
1358	0	32816	32638	
1359	0	32772	32696	
1360	0	32832	32790	
1361	0	32822	32812	
1362	0	32832	32860	
1363	0	32800	32702	
1364	0	32788	32802	
1365	0	32778	32766	
1366	0	32768	32775	
1367	0	32736	32604	
1368	0	32852	32850	
1369	0	32838	32758	
1370	0	32800	32704	
1371	0	32812	32670	
1372	0	32848	32794	
1373	0	32844	32775	
1374	0	32802	32804	
1375	0	32848	32678	
1376	0	32834	32768	
1377	0	32840	32711	
1378	0	32768	32832	
1379	0	32864	32756	
1380	0	32766	32833	
1381	0	32836	32742	
1382	0	32838	32808	
1383	0	32808	32716	
1384	0	32828	32720	
1385	0	32752	32817	
1386	0	32734	32828	
1387	0	32848	32842	
1388	0	32768	32770	
1389	0	32778	32708	
1390	0	32828	32843	
1391	0	32790	32792	
1392	0	32862	32758	
1393	0	32782	32862	
1394	0	32844	32748	
1395	0	32800	32742	
1396	0	32794	32874	
1397	0	32864	32799	
1398	0	32872	32732	
1399	0	32824	32766	
1400	0	32838	32668	
1401	0	32834	32679	
1402	0	32816	32791	
1403	0	32752	32780	
1404	0	32824	32658	
1405	0	32872	32868	
1406	0	32814	32804	
1407	0	32712	32800	
1408	0	32836	32732	
1409	0	32780	32702	
1410	0	32804	32703	
1411	0	32824	32836	
1412	0	32840	32814	
1413	0	32816	32752	
1414	0	32800	32854	
1415	0	32764	32853	
1416	0	32832	32826	
1417	0	32820	32817	
1418	0	32876	32754	
1419	0	32898	32711	
1420	0	32792	32730	
1421	0	32816	32722	
1422	0	32756	32830	
1423	0	32830	32818	
1424	0	32832	32688	
1425	0	32824	32775	
1426	0	32788	32738	
1427	0	32832	32743	
1428	0	32856	32774	
1429	0	32868	32782	
1430	0	32792	32758	
1431	0	32872	32748	
1432	0	32841	32770	
1433	0	32780	32848	
1434	0	32840	32790	
1435	0	32836	32706	
1436	0	32836	32774	
1437	0	32798	32774	
1438	0	32856	32824	
1439	0	32772	32932	
1440	0	32840	32764	
1441	0	32808	32788	
1442	0	32820	32814	
1443	0	32798	32743	
1444	0	32776	32676	
1445	0	32788	32762	
1446	0	32760	32678	
1447	0	32852	32812	
1448	0	32832	32818	
1449	0	32762	32746	
1450	0	32800	32740	
1451	0	32848	32766	
1452	0	32812	32812	
1453	0	32864	32788	
1454	0	32776	32706	
1455	0	32774	32636	
1456	0	32822	32736	
1457	0	32756	32710	
1458	0	32804	32774	
1459	0	32780	32784	
1460	0	32858	32725	
1461	0	32860	32838	
1462	0	32836	32702	
1463	0	32868	32704	
1464	0	32820	32743	
1465	0	32794	32705	
1466	0	32776	32766	
1467	0	32862	32725	
1468	0	32772	32738	
1469	0	32838	32740	
1470	0	32820	32826	
1471	0	32792	32734	
1472	0	32832	32878	
1473	0	32816	32815	
1474	0	32764	32664	
1475	0	32764	32700	
1476	0	32776	32766	
1477	0	32836	32823	
1478	0	32768	32804	
1479	0	32836	32838	
1480	0	32856	32887	
1481	0	32796	32875	
1482	0	32788	32827	
1483	0	32848	32673	
1484	0	32840	32666	
1485	0	32844	32792	
1486	0	32820	32828	
1487	0	32828	32737	
1488	0	32824	32834	
1489	0	32838	32804	
1490	0	32822	32739	
1491	0	32828	32775	
1492	0	32772	32679	
1493	0	32708	32658	
1494	0	32812	32715	
1495	0	32704	32692	
1496	0	32728	32698	
1497	0	32892	32690	
1498	0	32824	32725	
1499	0	32820	32785	
1500	0	32772	32736	
1501	0	32841	32792	
1502	0	32858	32762	
1503	0	32854	32722	
1504	0	32756	32796	
1505	0	32818	32800	
1506	0	32808	32870	
1507	0	32820	32728	
1508	0	32768	32752	
1509	0	32802	32898	
1510	0	32784	32737	
1511	0	32830	32850	
1512	0	32824	32717	
1513	0	32834	32682	
1514	0	32828	32800	
1515	0	32846	32818	
1516	0	32772	32720	
1517	0	32832	32806	
1518	0	32784	32868	
1519	0	32870	32730	
1520	0	32984	32728	
1521	0	32824	32764	
1522	0	32784	32688	
1523	0	32916	32790	
1524	0	32766	32798	
1525	0	32718	32744	
1526	0	32788	32654	
1527	0	32788	32798	
1528	0	32808	32828	
1529	0	32816	32890	
1530	0	32824	32772	
1531	0	32820	32528	
1532	0	32752	32735	
1533	0	32740	32700	
1534	0	32800	32702	
1535	0	32838	32775	
1536	0	32852	32832	
1537	0	32786	32810	
1538	0	32792	32880	
1539	0	32752	32694	
1540	0	32820	32742	
1541	0	32844	32703	
1542	0	32836	32720	
1543	0	32796	32682	
1544	0	32830	32703	
1545	0	32848	32700	
1546	0	32824	32742	
1547	0	32872	32744	
1548	0	32844	32788	
1549	0	32844	32846	
1550	0	32816	32751	
1551	0	32828	32696	
1552	0	32820	32812	
1553	0	32800	32800	
1554	0	32828	32854	
1555	0	32816	32884	
1556	0	32820	32838	
1557	0	32816	32696	
1558	0	32816	32812	
1559	0	32804	32728	
1560	0	32816	32798	
1561	0	32854	32814	
1562	0	32820	32768	
1563	0	32760	32802	
1564	0	32852	32702	
1565	0	32764	32678	
1566	0	32800	32706	
1567	0	32832	32830	
1568	0	32832	32768	
1569	0	32868	32756	
1570	0	32856	32790	
1571	0	32800	32743	
1572	0	32781	32760	
1573	0	32784	32792	
1574	0	32860	32766	
1575	0	32812	32704	
1576	0	32784	32786	
1577	0	32784	32846	
1578	0	32736	32810	
1579	0	32804	32887	
1580	0	32794	32786	
1581	0	32864	32728	
1582	0	32868	32846	
1583	0	32904	32750	
1584	0	32808	32834	
1585	0	32780	32724	
1586	0	32744	32704	
1587	0	32782	32752	
1588	0	32804	32798	
1589	0	32866	32906	
1590	0	32818	32868	
1591	0	32904	32908	
1592	0	32908	32814	
1593	0	32812	32644	
1594	0	32804	32684	
1595	0	32804	32702	
1596	0	32884	32706	
1597	0	32920	32704	
1598	0	32948	32657	
1599	0	32956	32670	
1600	0	32817	32666	
1601	0	32736	32802	
1602	0	32668	32730	
1603	0	32656	32801	
1604	0	32680	32734	
1605	0	32600	32700	
1606	0	32728	32684	
1607	0	32720	32682	
1608	0	32736	32771	
1609	0	32740	32775	
1610	0	32746	32740	
1611	0	32828	32816	
1612	0	32844	32928	
1613	0	32834	32894	
1614	0	32864	32974	
1615	0	32814	32775	
1616	0	32822	32788	
1617	0	32893	32760	
1618	0	32764	32662	
1619	0	32864	32690	
1620	0	32844	32702	
1621	0	32900	32718	
1622	0	32908	32700	
1623	0	32916	32664	
1624	0	32906	32812	
1625	0	32836	32830	
1626	0	32756	32874	
1627	0	32736	32986	
1628	0	32816	32740	
1629	0	32796	32622	
1630	0	32772	32727	
1631	0	32824	32680	
1632	0	32868	32758	
1633	0	32792	32896	
1634	0	32828	32903	
1635	0	32860	32742	
1636	0	32852	32916	
1637	0	32800	32775	
1638	0	32828	32726	
1639	0	32792	32727	
1640	0	32772	32884	
1641	0	32734	32760	
1642	0	32798	32684	
1643	0	32694	32752	
1644	0	32808	32812	
1645	0	32802	32628	
1646	0	32846	32702	
1647	0	32874	32674	
1648	0	32788	32880	
1649	0	32774	32852	
1650	0	32764	32774	
1651	0	32832	32823	
1652	0	32821	32820	
1653	0	32800	32825	
1654	0	32836	32810	
1655	0	32860	32775	
1656	0	32804	32734	
1657	0	32856	32810	
1658	0	32808	32726	
1659	0	32808	32734	
1660	0	32844	32716	
1661	0	32776	32716	
1662	0	32888	32608	
1663	0	32852	32720	
1664	0	32844	32740	
1665	0	32764	32742	
1666	0	32806	32910	
1667	0	32924	32920	
1668	0	32948	32846	
1669	0	32844	32766	
1670	0	32884	32692	
1671	0	32808	32826	
1672	0	32812	32846	
1673	0	32852	32775	
1674	0	32752	32775	
1675	0	32704	32732	
1676	0	32728	32732	
1677	0	32780	32632	
1678	0	32775	32647	
1679	0	32760	32736	
1680	0	32778	32786	
1681	0	32832	32786	
1682	0	32800	32829	
1683	0	32718	32796	
1684	0	32740	32686	
1685	0	32828	32730	
1686	0	32808	32728	
1687	0	32818	32611	
1688	0	32778	32646	
1689	0	32794	32552	
1690	0	32844	32664	
1691	0	32881	32742	
1692	0	32928	32734	
1693	0	32900	32794	
1694	0	32924	32820	
1695	0	32956	32908	
1696	0	32904	32804	
1697	0	32736	32750	
1698	0	32740	32871	
1699	0	32780	32796	
1700	0	32664	32862	
1701	0	32718	32902	
1702	0	32718	32798	
1703	0	32688	32798	
1704	0	32704	32756	
1705	0	32756	32772	
1706	0	32778	32774	
1707	0	32824	32710	
1708	0	32820	32792	
1709	0	32832	32775	
1710	0	32836	32802	
1711	0	32830	32686	
1712	0	32808	32566	
1713	0	32816	32766	
1714	0	32884	32854	
1715	0	32836	32866	
1716	0	32868	32786	
1717	0	32832	32894	
1718	0	32788	32870	
1719	0	32790	32666	
1720	0	32960	32647	
1721	0	32976	32754	
1722	0	32980	32647	
1723	0	32854	32670	
1724	0	32774	32695	
1725	0	32768	32775	
1726	0	32768	32900	
1727	0	32884	32700	
1728	0	32942	32567	
1729	0	32940	32743	
1730	0	32964	32821	
1731	0	32908	32865	
1732	0	32868	33022	
1733	0	32896	32810	
1734	0	32882	32668	
1735	0	32788	32774	
1736	0	32820	32532	
1737	0	32736	32647	
1738	0	32710	32588	
1739	0	32793	32518	
1740	0	32752	32423	
1741	0	32672	32388	
1742	0	32704	32447	
1743	0	32716	32462	
1744	0	32864	32551	
1745	0	32924	32468	
1746	0	32840	32440	
1747	0	32810	32422	
1748	0	32818	32519	
1749	0	32892	32567	
1750	0	32846	32644	
1751	0	32752	32916	
1752	0	32820	32932	
1753	0	32740	32962	
1754	0	32730	33152	
1755	0	32676	33562	
1756	0	32600	33596	
1757	0	32656	33638	
1758	0	32812	33718	
1759	0	32876	33788	
1760	0	32872	33621	
1761	0	32780	33676	
1762	0	32774	33440	
1763	0	32748	33372	
1764	0	32728	33192	
1765	0	32764	32896	
1766	0	32720	32616	
1767	0	32732	32519	
1768	0	32708	32362	
1769	0	32738	32324	
1770	0	32678	32240	
1771	0	32622	32252	
1772	0	32654	32280	
1773	0	32724	32404	
1774	0	32740	32314	
1775	0	32752	32340	
1776	0	32740	32422	
1777	0	32784	32528	
1778	0	32752	32550	
1779	0	32808	32470	
1780	0	32928	32604	
1781	0	32872	32562	
1782	0	32868	32490	
1783	0	32858	32686	
1784	0	32952	32743	
1785	0	32916	32756	
1786	0	32984	32887	
1787	0	33000	32932	
1788	0	32952	32694	
1789	0	33004	32903	
1790	0	33050	32842	
1791	0	32968	32890	
1792	0	32936	32980	
1793	0	32852	32980	
1794	0	32884	32880	
1795	0	33016	32948	
1796	0	32848	32808	
1797	0	32740	32882	
1798	0	32828	32607	
1799	0	32762	32574	
1800	0	32788	32626	
1801	0	32782	32574	
1802	0	32782	32506	
1803	0	32868	32616	
1804	0	32984	32540	
1805	0	33120	32504	
1806	0	33026	32694	
1807	0	32956	32726	
1808	0	32974	32838	
1809	0	32800	32766	
1810	0	32684	32846	
1811	0	32616	32886	
1812	0	32522	32902	
1813	0	32516	32936	
1814	0	32396	32958	
1815	0	32422	33031	
1816	0	32436	32836	
1817	0	32480	33028	
1818	0	32508	32940	
1819	0	32604	32444	
1820	0	32700	32656	
1821	0	32712	32674	
1822	0	32848	32750	
1823	0	32884	32804	
1824	0	32986	32784	
1825	0	33156	32855	
1826	0	33284	32768	
1827	0	33138	32952	
1828	0	33052	32870	
1829	0	32834	32636	
1830	0	32852	32866	
1831	0	32780	32948	
1832	0	32718	32572	
1833	0	32608	32708	
1834	0	32628	32522	
1835	0	32688	32654	
1836	0	32704	32762	
1837	0	32642	32618	
1838	0	32780	32712	
1839	0	32800	32679	
1840	0	32868	32746	
1841	0	32812	32842	
1842	0	32950	32788	
1843	0	32908	32884	
1844	0	32860	32806	
1845	0	32930	32775	
1846	0	33032	32870	
1847	0	32994	32775	
1848	0	32836	32720	
1849	0	32800	32690	
1850	0	32902	32540	
1851	0	32826	32622	
1852	0	32788	32720	
1853	0	32784	32718	
1854	0	32730	32716	
1855	0	32808	32756	
1856	0	32864	32722	
1857	0	32824	32976	
1858	0	32736	32942	
1859	0	32742	32880	
1860	0	32714	32824	
1861	0	32748	32692	
1862	0	32740	32714	
1863	0	32761	32816	
1864	0	32760	32815	
1865	0	32880	32898	
1866	0	32872	32810	
1867	0	32818	32775	
1868	0	32936	32782	
1869	0	32892	32860	
1870	0	32886	32916	
1871	0	32844	32903	
1872	0	33054	32774	
1873	0	32988	32666	
1874	0	32888	32700	
1875	0	33048	32686	
1876	0	33004	32711	
1877	0	32908	32702	
1878	0	32904	32644	
1879	0	32792	32615	
1880	0	32712	32600	
1881	0	32652	32698	
1882	0	32580	32710	
1883	0	32618	32770	
1884	0	32492	32558	
1885	0	32536	32612	
1886	0	32576	32682	
1887	0	32488	32731	
1888	0	32660	32682	
1889	0	32724	32728	
1890	0	32628	32800	
1891	0	32748	32856	
1892	0	32732	32848	
1893	0	32832	32880	
1894	0	32892	32890	
1895	0	32914	32896	
1896	0	32872	32950	
1897	0	32892	32860	
1898	0	32916	32775	
1899	0	32918	32844	
1900	0	32976	32815	
1901	0	32942	32740	
1902	0	33024	32668	
1903	0	33088	32902	
1904	0	33062	32670	
1905	0	32856	32670	
1906	0	32740	32750	
1907	0	32652	32716	
1908	0	32686	32784	
1909	0	32636	32607	
1910	0	32610	32668	
1911	0	32560	32775	
1912	0	32712	32628	
1913	0	32848	32688	
1914	0	32800	32871	
1915	0	32826	32774	
1916	0	32928	32775	
1917	0	32824	32798	
1918	0	32744	32722	
1919	0	32848	32798	
1920	0	32906	32944	
1921	0	32868	32692	
1922	0	32900	32704	
1923	0	32928	32934	
1924	0	33016	32870	
1925	0	32928	32826	
1926	0	32952	32785	
1927	0	32832	32784	
1928	0	32846	32702	
1929	0	32792	32654	
1930	0	32862	32784	
1931	0	32856	32794	
1932	0	32804	32822	
1933	0	32712	32903	
1934	0	32564	32832	
1935	0	32724	32724	
1936	0	32760	32708	
1937	0	32740	32686	
1938	0	32788	32742	
1939	0	32804	32744	
1940	0	32912	32811	
1941	0	32970	32766	
1942	0	32968	32610	
1943	0	33016	32775	
1944	0	33056	32798	
1945	0	32836	32705	
1946	0	32702	32686	
1947	0	32650	32734	
1948	0	32672	32791	
1949	0	32636	32352	
1950	0	32532	32858	
1951	0	33092	32940	
1952	0	33314	32702	
1953	0	32960	32924	
1954	0	32790	32792	
1955	0	32744	32775	
1956	0	32608	32972	
1957	0	32556	32800	
1958	0	32588	32746	
1959	0	32740	32729	
1960	0	32946	32796	
1961	0	33152	32886	
1962	0	32944	32790	
1963	0	32960	32903	
1964	0	32588	32637	
1965	0	32624	32422	
1966	0	32902	32664	
1967	0	32884	32582	
1968	0	32820	32820	
1969	0	32780	32756	
1970	0	33000	32884	
1971	0	32824	32698	
1972	0	32744	32480	
1973	0	32990	32580	
1974	0	32864	32860	
1975	0	32852	32744	
1976	0	32738	32812	
1977	0	32560	32924	
1978	0	32660	32815	
1979	0	32548	32748	
1980	0	32430	32804	
1981	0	32328	32796	
1982	0	32328	32754	
1983	0	32340	32812	
1984	0	32584	32868	
1985	0	32590	32990	
1986	0	32662	32807	
1987	0	32850	32712	
1988	0	32960	32726	
1989	0	32918	32808	
1990	0	32956	32689	
1991	0	33024	32762	
1992	0	32968	32820	
1993	0	32896	32692	
1994	0	33020	32586	
1995	0	33048	32626	
1996	0	32992	32762	
1997	0	32900	32756	
1998	0	32900	32736	
1999	0	33041	32674	
2000	0	33044	32632	
2001	0	32984	32838	
2002	0	32886	32726	
2003	0	32848	32706	
2004	0	32768	32900	
2005	0	32832	32961	
2006	0	32676	32890	
2007	0	32724	33078	
2008	0	32900	32972	
2009	0	32804	32775	
2010	0	32720	32750	
2011	0	32746	32838	
2012	0	32772	32778	
2013	0	32756	32930	
2014	0	32984	32672	
2015	0	33000	32604	
2016	0	33104	32736	
2017	0	33084	32836	
2018	0	32920	32742	
2019	0	33024	32715	
2020	0	32932	32650	
2021	0	32784	32519	
2022	0	32700	32556	
2023	0	32758	32718	
2024	0	32678	32704	
2025	0	32596	32661	
2026	0	32518	32817	
2027	0	32668	32676	
2028	0	32632	32808	
2029	0	32732	32679	
2030	0	33120	32775	
2031	0	32934	32853	
2032	0	32708	32736	
2033	0	32656	32904	
2034	0	32650	33000	
2035	0	32704	32900	
2036	0	32744	32932	
2037	0	32682	32822	
2038	0	32608	32964	
2039	0	32670	32750	
2040	0	32952	32576	
2041	0	33184	32705	
2042	0	33352	32832	
2043	0	33138	32775	
2044	0	33060	32519	
2045	0	32764	32519	
2046	0	32620	32740	
2047	0	32688	32740	
2048	0	32612	32847	
2049	0	32650	32762	
2050	0	32504	32846	
2051	0	32372	32682	
2052	0	32452	32490	
2053	0	32748	32606	
2054	0	32706	32736	
2055	0	32600	32868	
2056	0	33100	32990	
2057	0	33212	32696	
2058	0	33126	32770	
2059	0	33204	33072	
2060	0	33124	32692	
2061	0	32938	32560	
2062	0	33126	32598	
2063	0	33164	32842	
2064	0	33236	32896	
2065	0	33108	32834	
2066	0	32906	32818	
2067	0	32744	32815	
2068	0	32640	32794	
2069	0	32500	32724	
2070	0	32336	32692	
2071	0	32324	32708	
2072	0	32428	32654	
2073	0	32368	32684	
2074	0	32378	32755	
2075	0	32568	32804	
2076	0	32600	32716	
2077	0	32682	32732	
2078	0	32826	32720	
2079	0	32756	32684	
2080	0	32768	32727	
2081	0	32796	32774	
2082	0	32824	32882	
2083	0	32968	32792	
2084	0	32970	32886	
2085	0	33216	32775	
2086	0	33346	32674	
2087	0	33598	32806	
2088	0	33802	32706	
2089	0	33242	32548	
2090	0	33204	32694	
2091	0	32904	32876	
2092	0	32714	32828	
2093	0	33142	32814	
2094	0	32792	32840	
2095	0	32644	32718	
2096	0	32572	32772	
2097	0	32778	32736	
2098	0	32728	32726	
2099	0	32572	32884	
2100	0	32500	32962	
2101	0	32333	32795	
2102	0	32200	32682	
2103	0	32196	32695	
2104	0	32404	32864	
2105	0	32468	32807	
2106	0	32452	32874	
2107	0	32292	32911	
2108	0	32336	32858	
2109	0	32504	32708	
2110	0	32572	32774	
2111	0	32696	32734	
2112	0	32840	32854	
2113	0	32876	32458	
2114	0	33504	32444	
2115	0	33490	32798	
2116	0	33340	32810	
2117	0	33416	32770	
2118	0	33450	32714	
2119	0	33044	32834	
2120	0	32716	32882	
2121	0	32536	32800	
2122	0	32586	32696	
2123	0	32808	32772	
2124	0	32844	32759	
2125	0	32828	32698	
2126	0	32704	32672	
2127	0	32680	32686	
2128	0	32732	32863	
2129	0	32888	32705	
2130	0	32908	32707	
2131	0	32878	32710	
2132	0	33028	32680	
2133	0	32792	32626	
2134	0	32834	32666	
2135	0	33278	32775	
2136	0	33334	32724	
2137	0	33210	32870	
2138	0	33252	32804	
2139	0	33098	32868	
2140	0	33060	32913	
2141	0	32852	32854	
2142	0	32720	32884	
2143	0	32500	32824	
2144	0	32474	32574	
2145	0	32600	32750	
2146	0	32380	32798	
2147	0	32500	32848	
2148	0	32428	32814	
2149	0	32316	32864	
2150	0	32556	32836	
2151	0	32504	32750	
2152	0	32424	32582	
2153	0	32514	32763	
2154	0	32744	32578	
2155	0	32906	32726	
2156	0	33332	32876	
2157	0	33475	32647	
2158	0	33044	32570	
2159	0	32988	32679	
2160	0	33016	32722	
2161	0	32934	32775	
2162	0	32748	32758	
2163	0	32896	32796	
2164	0	32416	33016	
2165	0	32482	32782	
2166	0	33272	33020	
2167	0	33424	32843	
2168	0	33280	33030	
2169	0	33552	32636	
2170	0	33928	32854	
2171	0	33588	32807	
2172	0	32984	32618	
2173	0	32412	32483	
2174	0	32022	32700	
2175	0	31774	32718	
2176	0	31524	32710	
2177	0	31780	32828	
2178	0	32040	32642	
2179	0	32124	32596	
2180	0	32454	32870	
2181	0	32730	32744	
2182	0	32986	32802	
2183	0	33440	32839	
2184	0	33336	32922	
2185	0	33216	32886	
2186	0	32930	32674	
2187	0	32762	32825	
2188	0	32780	32698	
2189	0	32912	32602	
2190	0	33288	32884	
2191	0	33562	32960	
2192	0	33656	32607	
2193	0	33652	32694	
2194	0	33208	32831	
2195	0	33024	32752	
2196	0	32710	32696	
2197	0	33380	32529	
2198	0	33196	32839	
2199	0	33136	32658	
2200	0	32764	32770	
2201	0	32148	32952	
2202	0	31620	32948	
2203	0	31040	32962	
2204	0	30852	32900	
2205	0	31176	32782	
2206	0	31440	32688	
2207	0	32184	32638	
2208	0	32752	32862	
2209	0	33512	32917	
2210	0	34496	32702	
2211	0	34648	32316	
2212	0	33748	32644	
2213	0	33220	32976	
2214	0	32794	32732	
2215	0	32624	32896	
2216	0	33072	32854	
2217	0	33388	32766	
2218	0	33468	32790	
2219	0	32816	32508	
2220	0	32336	32444	
2221	0	32116	32556	
2222	0	31540	32864	
2223	0	31674	32806	
2224	0	31772	32732	
2225	0	31704	32555	
2226	0	32060	32756	
2227	0	32572	32862	
2228	0	32794	32704	
2229	0	33056	32708	
2230	0	33508	32720	
2231	0	33572	32878	
2232	0	33744	32684	
2233	0	33860	32820	
2234	0	33628	32952	
2235	0	33938	32812	
2236	0	33578	32950	
2237	0	33508	32538	
2238	0	33460	32718	
2239	0	33202	32860	
2240	0	33252	32866	
2241	0	32986	32961	
2242	0	32676	32788	
2243	0	32900	32870	
2244	0	33090	33030	
2245	0	32918	32888	
2246	0	32564	32700	
2247	0	32082	32550	
2248	0	31988	32842	
2249	0	31880	32620	
2250	0	31940	32642	
2251	0	32220	32711	
2252	0	32456	32596	
2253	0	32496	32730	
2254	0	32376	32711	
2255	0	32642	32529	
2256	0	32660	32698	
2257	0	32718	32851	
2258	0	32728	32884	
2259	0	33136	32724	
2260	0	33448	32774	
2261	0	33636	32886	
2262	0	33884	33072	
2263	0	33886	32615	
2264	0	33602	32698	
2265	0	33084	32790	
2266	0	32410	32688	
2267	0	31856	32562	
2268	0	32604	32508	
2269	0	32326	32586	
2270	0	32332	32558	
2271	0	32280	32880	
2272	0	32360	32740	
2273	0	32476	32642	
2274	0	32584	33060	
2275	0	32608	32990	
2276	0	32556	33062	
2277	0	32824	32970	
2278	0	33096	32775	
2279	0	32776	32932	
2280	0	32961	32754	
2281	0	33208	32734	
2282	0	33694	33060	
2283	0	33932	32775	
2284	0	34196	32678	
2285	0	34090	32836	
2286	0	33688	32662	
2287	0	33190	32376	
2288	0	32832	32513	
2289	0	32288	32754	
2290	0	32398	32618	
2291	0	32728	32596	
2292	0	32452	32592	
2293	0	31982	32632	
2294	0	31962	33026	
2295	0	32084	32900	
2296	0	31942	32838	
2297	0	32092	33058	
2298	0	31794	33068	
2299	0	32028	32838	
2300	0	32176	32825	
2301	0	32088	32868	
2302	0	32294	32602	
2303	0	32486	32490	
2304	0	32680	32487	
2305	0	32906	32744	
2306	0	33200	32890	
2307	0	33800	32874	
2308	0	34136	32676	
2309	0	34076	32700	
2310	0	33488	32564	
2311	0	32932	32494	
2312	0	33054	32974	
2313	0	33108	32860	
2314	0	32840	32868	
2315	0	32834	32654	
2316	0	32860	32704	
2317	0	32862	33090	
2318	0	32860	33058	
2319	0	32960	32678	
2320	0	33100	32828	
2321	0	32884	32911	
2322	0	32702	32806	
2323	0	32744	32740	
2324	0	32772	32878	
2325	0	33024	32752	
2326	0	33148	32828	
2327	0	33314	33102	
2328	0	33556	32602	
2329	0	33564	32728	
2330	0	33886	32775	
2331	0	33646	32378	
2332	0	32826	32448	
2333	0	32624	32486	
2334	0	32728	32582	
2335	0	32100	32700	
2336	0	31798	32468	
2337	0	31324	32794	
2338	0	30848	32885	
2339	0	30888	32876	
2340	0	30970	32826	
2341	0	31584	32832	
2342	0	32144	32775	
2343	0	32320	32990	
2344	0	33044	32836	
2345	0	33420	32692	
2346	0	33166	32660	
2347	0	33568	32944	
2348	0	33856	32918	
2349	0	33938	32954	
2350	0	33777	32921	
2351	0	33754	32482	
2352	0	33440	32497	
2353	0	33084	32647	
2354	0	33046	32775	
2355	0	32880	33063	
2356	0	32580	32742	
2357	0	32692	32608	
2358	0	32864	32816	
2359	0	32766	32672	
2360	0	32536	32810	
2361	0	32290	32644	
2362	0	32248	32750	
2363	0	32254	32798	
2364	0	32372	32796	
2365	0	32356	32798	
2366	0	32446	32872	
2367	0	32856	32596	
2368	0	32988	32874	
2369	0	33068	32806	
2370	0	33054	32852	
2371	0	33428	32632	
2372	0	33836	32892	
2373	0	33944	32712	
2374	0	33754	32647	
2375	0	33562	32750	
2376	0	33608	32981	
2377	0	33340	32816	
2378	0	32750	32816	
2379	0	32620	32806	
2380	0	32368	32791	
2381	0	32340	32624	
2382	0	32076	32736	
2383	0	31774	32644	
2384	0	31642	32804	
2385	0	31624	32858	
2386	0	31994	32876	
2387	0	32356	32775	
2388	0	32800	32748	
2389	0	33000	33000	
2390	0	32952	32534	
2391	0	32604	32826	
2392	0	32900	32662	
2393	0	32920	32486	
2394	0	33040	32652	
2395	0	33896	32604	
2396	0	33968	33098	
2397	0	33384	32873	
2398	0	32934	32894	
2399	0	32724	33036	
2400	0	32638	32482	
2401	0	32668	32558	
2402	0	32474	32276	
2403	0	32512	32336	
2404	0	32414	32636	
2405	0	33008	32202	
2406	0	33276	32452	
2407	0	33164	32137	
2408	0	32916	32324	
2409	0	33160	32354	
2410	0	33092	32428	
2411	0	33140	32374	
2412	0	33512	32401	
2413	0	33296	32568	
2414	0	32876	32676	
2415	0	32580	32868	
2416	0	32178	33040	
2417	0	31780	33824	
2418	0	31980	33703	
2419	0	32682	33472	
2420	0	32724	33568	
2421	0	32380	33668	
2422	0	32392	33904	
2423	0	32292	33834	
2424	0	32236	33690	
2425	0	32296	33700	
2426	0	32328	33752	
2427	0	32512	33000	
2428	0	32940	32804	
2429	0	32584	32837	
2430	0	32736	32754	
2431	0	32720	32375	
2432	0	33096	32300	
2433	0	33624	32330	
2434	0	33668	32103	
2435	0	33536	32508	
2436	0	33632	32302	
2437	0	33296	32230	
2438	0	32860	32263	
2439	0	32728	32452	
2440	0	32724	32252	
2441	0	32777	32458	
2442	0	32572	32437	
2443	0	32390	32708	
2444	0	33084	32412	
2445	0	33254	32698	
2446	0	33086	32630	
2447	0	33680	32584	
2448	0	33904	32752	
2449	0	33538	32663	
2450	0	33444	32622	
2451	0	33166	32816	
2452	0	32716	32975	
2453	0	32432	32738	
2454	0	32482	32844	
2455	0	32672	32932	
2456	0	32162	32800	
2457	0	32080	33004	
2458	0	31910	32860	
2459	0	31960	32920	
2460	0	32068	32636	
2461	0	32208	32944	
2462	0	32196	32734	
2463	0	31840	32750	
2464	0	32059	32620	
2465	0	32442	32652	
2466	0	32628	33028	
2467	0	32474	32900	
2468	0	32772	32936	
2469	0	33052	32714	
2470	0	33508	32630	
2471	0	33184	32666	
2472	0	33032	32760	
2473	0	33328	32688	
2474	0	33566	32788	
2475	0	33636	32808	
2476	0	33826	32535	
2477	0	34472	32742	
2478	0	35026	33088	
2479	0	34990	32498	
2480	0	35634	32608	
2481	0	34492	32678	
2482	0	32888	32980	
2483	0	32036	32834	
2484	0	31500	33094	
2485	0	31201	32736	
2486	0	31250	32510	
2487	0	30376	32804	
2488	0	29720	32838	
2489	0	30324	32740	
2490	0	30328	32584	
2491	0	30722	32732	
2492	0	31418	32800	
2493	0	32238	32852	
2494	0	32540	32732	
2495	0	33094	32680	
2496	0	33284	32921	
2497	0	33308	32964	
2498	0	33612	32826	
2499	0	33568	32718	
2500	0	33912	32743	
2501	0	33912	32846	
2502	0	34284	32768	
2503	0	35164	32550	
2504	0	35336	32612	
2505	0	34772	32610	
2506	0	34260	32910	
2507	0	33708	32748	
2508	0	33156	32846	
2509	0	32884	33036	
2510	0	32712	32740	
2511	0	32618	32519	
2512	0	32416	32460	
2513	0	32520	32668	
2514	0	32196	32560	
2515	0	31394	32580	
2516	0	31140	32856	
2517	0	31074	33114	
2518	0	31384	32730	
2519	0	31796	32970	
2520	0	32202	33088	
2521	0	32360	32394	
2522	0	32332	32996	
2523	0	32784	32994	
2524	0	32998	32720	
2525	0	33210	32894	
2526	0	33296	32656	
2527	0	33180	32812	
2528	0	32978	32744	
2529	0	33104	32446	
2530	0	32900	32703	
2531	0	33014	32710	
2532	0	33506	32588	
2533	0	33604	32870	
2534	0	33656	32784	
2535	0	33672	32757	
2536	0	34028	32672	
2537	0	33512	32764	
2538	0	32784	32956	
2539	0	32514	32975	
2540	0	32472	32756	
2541	0	32310	32626	
2542	0	31850	32576	
2543	0	31880	32816	
2544	0	31996	32774	
2545	0	31956	32540	
2546	0	32292	32900	
2547	0	32804	32959	
2548	0	32768	32826	
2549	0	32726	32844	
2550	0	33032	32924	
2551	0	32868	32744	
2552	0	32732	32574	
2553	0	32705	32527	
2554	0	33146	32804	
2555	0	33460	32729	
2556	0	33316	33095	
2557	0	33302	32504	
2558	0	34012	32936	
2559	0	33292	32916	
2560	0	33060	32570	
2561	0	32716	32900	
2562	0	32108	32480	
2563	0	32004	32732	
2564	0	32062	32472	
2565	0	32262	32678	
2566	0	32914	32806	
2567	0	32944	32984	
2568	0	32968	32478	
2569	0	32816	32831	
2570	0	32610	32591	
2571	0	32408	32842	
2572	0	32434	33018	
2573	0	33160	32842	
2574	0	33300	32866	
2575	0	33408	32775	
2576	0	33434	32892	
2577	0	33390	32942	
2578	0	33282	32554	
2579	0	33080	32860	
2580	0	32680	32656	
2581	0	32630	32910	
2582	0	32666	33028	
2583	0	32810	33070	
2584	0	33372	32583	
2585	0	33608	32300	
2586	0	32840	32860	
2587	0	32076	32762	
2588	0	31616	32428	
2589	0	31628	32775	
2590	0	32304	32958	
2591	0	32636	32738	
2592	0	32546	32820	
2593	0	32760	32528	
2594	0	32708	32606	
2595	0	32508	32727	
2596	0	32932	32796	
2597	0	32964	32746	
2598	0	33218	32791	
2599	0	32920	32934	
2600	0	32836	32647	
2601	0	32600	32775	
2602	0	32620	32647	
2603	0	32796	32468	
2604	0	33032	33154	
2605	0	33316	32743	
2606	0	33324	32924	
2607	0	33376	32888	
2608	0	33142	32682	
2609	0	33028	32770	
2610	0	33876	32630	
2611	0	33452	32720	
2612	0	32892	32820	
2613	0	32316	32927	
2614	0	32140	32516	
2615	0	31968	32578	
2616	0	32334	32954	
2617	0	33393	33084	
2618	0	33510	32794	
2619	0	33071	32664	
2620	0	32648	32410	
2621	0	31972	32622	
2622	0	31764	32775	
2623	0	31672	32647	
2624	0	31718	32807	
2625	0	32092	32722	
2626	0	33144	32800	
2627	0	33238	33072	
2628	0	33466	32908	
2629	0	33706	32932	
2630	0	33644	32876	
2631	0	33334	32911	
2632	0	32912	32662	
2633	0	32976	32886	
2634	0	33268	32860	
2635	0	33336	32682	
2636	0	32938	32432	
2637	0	32494	32671	
2638	0	32208	32660	
2639	0	31992	32622	
2640	0	32020	32815	
2641	0	32208	32627	
2642	0	32596	32626	
2643	0	32792	32858	
2644	0	32946	32990	
2645	0	32932	32340	
2646	0	32992	32918	
2647	0	32884	32816	
2648	0	33130	32944	
2649	0	33128	33194	
2650	0	33000	32839	
2651	0	32852	32990	
2652	0	32834	33150	
2653	0	33068	32916	
2654	0	33490	32868	
2655	0	33684	32626	
2656	0	33921	32852	
2657	0	33946	32494	
2658	0	33404	32316	
2659	0	32760	32660	
2660	0	32148	32720	
2661	0	31874	32698	
2662	0	31552	32676	
2663	0	31384	32694	
2664	0	31472	32775	
2665	0	31812	32584	
2666	0	32858	32692	
2667	0	33428	32738	
2668	0	33282	32540	
2669	0	33154	32680	
2670	0	33164	32582	
2671	0	33240	33146	
2672	0	33142	32664	
2673	0	32866	33100	
2674	0	32256	33008	
2675	0	32326	33063	
2676	0	32468	32784	
2677	0	32392	32134	
2678	0	32248	33444	
2679	0	32380	33016	
2680	0	32904	32638	
2681	0	32874	32788	
2682	0	32832	32576	
2683	0	33056	32610	
2684	0	33292	32474	
2685	0	33264	32956	
2686	0	34272	32730	
2687	0	33748	32580	
2688	0	33060	32914	
2689	0	32318	32816	
2690	0	31902	32400	
2691	0	32026	32782	
2692	0	32040	32679	
2693	0	32360	32807	
2694	0	32600	32574	
2695	0	32916	32800	
2696	0	33200	32806	
2697	0	33140	32844	
2698	0	32908	32806	
2699	0	33544	32990	
2700	0	33624	32890	
2701	0	33776	32830	
2702	0	33388	32592	
2703	0	33312	32668	
2704	0	33124	32655	
2705	0	32916	32888	
2706	0	32468	33172	
2707	0	31968	32891	
2708	0	31864	32472	
2709	0	31986	32654	
2710	0	32312	32956	
2711	0	32488	32698	
2712	0	32656	32903	
2713	0	33056	32672	
2714	0	33562	32638	
2715	0	33508	32644	
2716	0	33196	32692	
2717	0	33084	32900	
2718	0	32676	32727	
2719	0	32140	32875	
2720	0	32448	32804	
2721	0	32984	32831	
2722	0	32864	32759	
2723	0	32792	32852	
2724	0	32888	32722	
2725	0	32844	32798	
2726	0	32862	32775	
2727	0	32926	32960	
2728	0	33122	32918	
2729	0	33080	32534	
2730	0	32844	32750	
2731	0	32420	33176	
2732	0	32224	33028	
2733	0	32086	32372	
2734	0	32104	32400	
2735	0	32584	32604	
2736	0	33010	32858	
2737	0	33398	32832	
2738	0	33436	32852	
2739	0	33288	32632	
2740	0	33474	32625	
2741	0	33708	32540	
2742	0	33428	32752	
2743	0	32928	32540	
2744	0	32352	32816	
2745	0	31864	32704	
2746	0	31588	32710	
2747	0	31473	32743	
2748	0	32004	32944	
2749	0	32537	32927	
2750	0	32936	32814	
2751	0	32880	32502	
2752	0	32790	32772	
2753	0	32646	33026	
2754	0	32762	32994	
2755	0	32652	32792	
2756	0	33120	32807	
2757	0	33380	32732	
2758	0	33596	32792	
2759	0	33492	32876	
2760	0	33360	33056	
2761	0	33304	33063	
2762	0	33106	32687	
2763	0	33120	32466	
2764	0	33344	32770	
2765	0	33696	33128	
2766	0	33906	32903	
2767	0	33662	32618	
2768	0	33340	32492	
2769	0	32708	32870	
2770	0	32330	32750	
2771	0	32036	32615	
2772	0	31424	32716	
2773	0	31186	32710	
2774	0	31692	32550	
2775	0	31766	32608	
2776	0	32160	32609	
2777	0	32538	32682	
2778	0	33048	32798	
2779	0	33180	32766	
2780	0	33084	32900	
2781	0	33572	32705	
2782	0	33444	32984	
2783	0	33272	32706	
2784	0	32782	33156	
2785	0	32344	32638	
2786	0	32852	32704	
2787	0	32718	32775	
2788	0	32420	32812	
2789	0	32321	33132	
2790	0	32094	32960	
2791	0	32676	32697	
2792	0	32840	33080	
2793	0	33114	32780	
2794	0	33940	32566	
2795	0	34276	32423	
2796	0	34422	32766	
2797	0	34044	32984	
2798	0	33584	33218	
2799	0	33224	33024	
2800	0	32638	32434	
2801	0	31606	32610	
2802	0	31480	32666	
2803	0	31424	32498	
2804	0	31362	32350	
2805	0	31836	32336	
2806	0	31620	32720	
2807	0	31576	33022	
2808	0	32233	32724	
2809	0	32688	32724	
2810	0	32804	32884	
2811	0	33050	32804	
2812	0	33566	32775	
2813	0	33620	32982	
2814	0	33694	33116	
2815	0	33780	32504	
2816	0	33700	32740	
2817	0	33424	32748	
2818	0	33280	33002	
2819	0	33236	32626	
2820	0	33408	32928	
2821	0	32972	32716	
2822	0	32500	33030	
2823	0	32394	32992	
2824	0	32536	32550	
2825	0	32776	32828	
2826	0	32660	32575	
2827	0	32648	32684	
2828	0	32714	32455	
2829	0	32620	32648	
2830	0	32408	33378	
2831	0	32870	32666	
2832	0	33260	32576	
2833	0	33264	33136	
2834	0	33500	32676	
2835	0	33468	32615	
2836	0	33460	32482	
2837	0	33156	32814	
2838	0	32476	32729	
2839	0	32132	32582	
2840	0	31608	32732	
2841	0	31442	32728	
2842	0	31606	32660	
2843	0	32052	32694	
2844	0	32436	32900	
2845	0	32528	32958	
2846	0	32728	32838	
2847	0	32960	32903	
2848	0	32900	32718	
2849	0	32908	32758	
2850	0	33018	32770	
2851	0	33108	32630	
2852	0	33372	32924	
2853	0	33670	32976	
2854	0	33678	32900	
2855	0	33640	32724	
2856	0	33544	32796	
2857	0	33440	32879	
2858	0	33412	32764	
2859	0	33100	32607	
2860	0	32724	32820	
2861	0	32532	33112	
2862	0	32100	32552	
2863	0	32984	32632	
2864	0	33068	32768	
2865	0	33000	33024	
2866	0	32860	32602	
2867	0	32468	32662	
2868	0	32124	32519	
2869	0	31804	32736	
2870	0	31756	32680	
2871	0	31896	32754	
2872	0	32076	32775	
2873	0	32400	32434	
2874	0	32496	32666	
2875	0	32656	32638	
2876	0	32360	32918	
2877	0	32640	33022	
2878	0	33092	32854	
2879	0	33232	32814	
2880	0	33466	32716	
2881	0	33116	32596	
2882	0	33212	32913	
2883	0	33004	33098	
2884	0	32866	32966	
2885	0	33288	32938	
2886	0	33752	32940	
2887	0	33872	32952	
2888	0	33756	32737	
2889	0	33674	33302	
2890	0	33192	32528	
2891	0	32576	32367	
2892	0	32620	32550	
2893	0	32164	32558	
2894	0	32092	32438	
2895	0	32012	32725	
2896	0	32194	33120	
2897	0	32230	32172	
2898	0	32076	32672	
2899	0	32200	32543	
2900	0	32296	32608	
2901	0	32612	32673	
2902	0	32728	32940	
2903	0	32894	32664	
2904	0	33212	32578	
2905	0	33348	32748	
2906	0	33572	32863	
2907	0	33534	32970	
2908	0	33680	32855	
2909	0	33210	32917	
2910	0	32788	33006	
2911	0	32796	32892	
2912	0	32808	32583	
2913	0	32664	32716	
2914	0	32744	32868	
2915	0	32344	32519	
2916	0	32024	32856	
2917	0	32084	33180	
2918	0	32264	32820	
2919	0	32616	32496	
2920	0	32884	32709	
2921	0	32976	32876	
2922	0	33024	33172	
2923	0	32976	32740	
2924	0	32848	32672	
2925	0	32948	32732	
2926	0	33052	32978	
2927	0	32760	32980	
2928	0	32680	32900	
2929	0	32856	32564	
2930	0	32792	32492	
2931	0	32604	32790	
2932	0	32568	32824	
2933	0	33046	32902	
2934	0	33180	32634	
2935	0	33532	32748	
2936	0	33888	32756	
2937	0	33792	32810	
2938	0	33296	32439	
2939	0	32880	32570	
2940	0	32572	32916	
2941	0	32304	32788	
2942	0	32046	32824	
2943	0	32000	32652	
2944	0	32000	32615	
2945	0	32292	33006	
2946	0	32420	32878	
2947	0	32488	32828	
2948	0	32714	32772	
2949	0	32862	32738	
2950	0	33002	32802	
2951	0	32892	33028	
2952	0	32796	32676	
2953	0	32836	32938	
2954	0	32904	32736	
2955	0	33088	32744	
2956	0	33266	32942	
2957	0	33452	32770	
2958	0	33576	32826	
2959	0	33388	32588	
2960	0	33076	32948	
2961	0	32808	32775	
2962	0	32708	32775	
2963	0	32684	32924	
2964	0	32750	32854	
2965	0	33056	32760	
2966	0	33370	32820	
2967	0	33472	32494	
2968	0	33246	32674	
2969	0	33220	32694	
2970	0	32860	32942	
2971	0	32370	32644	
2972	0	32346	32660	
2973	0	31932	32894	
2974	0	31624	32751	
2975	0	31498	32567	
2976	0	31576	32712	
2977	0	32389	33046	
2978	0	32432	32724	
2979	0	32536	32572	
2980	0	32682	32756	
2981	0	32840	32684	
2982	0	33044	32658	
2983	0	33172	32742	
2984	0	33172	32654	
2985	0	33220	32808	
2986	0	33308	32808	
2987	0	33320	32892	
2988	0	33256	32817	
2989	0	33236	32916	
2990	0	33096	32682	
2991	0	33014	32852	
2992	0	32998	32584	
2993	0	32868	32903	
2994	0	32882	32542	
2995	0	32740	32839	
2996	0	32660	32770	
2997	0	32690	32794	
2998	0	32504	32858	
2999	0	32552	32670	
3000	0	32728	32868	
3001	0	32816	32880	
3002	0	32784	32880	
3003	0	32934	32718	
3004	0	33208	32711	
3005	0	33074	32936	
3006	0	33075	32710	
3007	0	32920	32655	
3008	0	32800	32860	
3009	0	32792	33079	
3010	0	32676	32858	
3011	0	32684	32674	
3012	0	32618	32775	
3013	0	32594	32790	
3014	0	32580	32604	
3015	0	32646	32724	
3016	0	32692	32807	
3017	0	32848	32794	
3018	0	32852	32794	
3019	0	32744	32834	
3020	0	32828	32828	
3021	0	32892	32839	
3022	0	32922	32678	
3023	0	32936	32744	
3024	0	32944	32864	
3025	0	32920	32756	
3026	0	32842	32892	
3027	0	32730	32538	
3028	0	32676	32724	
3029	0	32632	32794	
3030	0	32560	32724	
3031	0	32802	32910	
3032	0	32834	32862	
3033	0	32796	32732	
3034	0	32840	32444	
3035	0	33028	32982	
3036	0	32968	32920	
3037	0	32906	32775	
3038	0	32810	32452	
3039	0	33084	32336	
3040	0	32940	32346	
3041	0	32876	32458	
3042	0	32904	32454	
3043	0	32896	32276	
3044	0	32858	32364	
3045	0	32876	32487	
3046	0	32768	32455	
3047	0	32864	32396	
3048	0	32917	32439	
3049	0	32833	32599	
3050	0	32736	32678	
3051	0	32662	32660	
3052	0	32696	32980	
3053	0	32804	32767	
3054	0	32918	33290	
3055	0	33002	33102	
3056	0	32768	33382	
3057	0	32716	33608	
3058	0	32492	33572	
3059	0	32370	33626	
3060	0	32256	33670	
3061	0	32128	33750	
3062	0	32352	33676	
3063	0	32502	33591	
3064	0	32596	33498	
3065	0	32718	33407	
3066	0	32808	33030	
3067	0	32932	32556	
3068	0	32798	32354	
3069	0	32756	32178	
3070	0	32808	32046	
3071	0	33116	31992	
3072	0	33160	32252	
3073	0	33172	32387	
3074	0	33052	32495	
3075	0	32996	32464	
3076	0	33016	32626	
3077	0	32948	32708	
3078	0	32926	32654	
3079	0	32886	32440	
3080	0	32844	32558	
3081	0	32868	32596	
3082	0	32822	32818	
3083	0	32802	33060	
3084	0	32829	32648	
3085	0	32830	32887	
3086	0	32902	33074	
3087	0	32814	32574	
3088	0	32800	32752	
3089	0	33118	32928	
3090	0	32868	32762	
3091	0	32996	32576	
3092	0	32464	32735	
3093	0	32604	32766	
3094	0	32974	32804	
3095	0	32888	32666	
3096	0	32768	32822	
3097	0	32768	32714	
3098	0	32714	32608	
3099	0	32612	32554	
3100	0	32552	32834	
3101	0	32692	32740	
3102	0	32836	32684	
3103	0	32862	32748	
3104	0	32798	32752	
3105	0	32558	32698	
3106	0	32932	32720	
3107	0	32888	32807	
3108	0	32790	32856	
3109	0	32844	32648	
3110	0	32844	32932	
3111	0	32960	32846	
3112	0	32902	32868	
3113	0	32906	32742	
3114	0	32864	32694	
3115	0	32810	32714	
3116	0	32984	32818	
3117	0	32876	32748	
3118	0	33052	32822	
3119	0	32924	32847	
3120	0	32832	32772	
3121	0	32802	32714	
3122	0	32756	32510	
3123	0	32602	32974	
3124	0	32624	32647	
3125	0	32620	32876	
3126	0	32604	32716	
3127	0	32612	32672	
3128	0	32696	32646	
3129	0	32756	32642	
3130	0	32846	32708	
3131	0	32834	32860	
3132	0	32806	32832	
3133	0	32874	32792	
3134	0	32848	32846	
3135	0	32854	32680	
3136	0	32776	32756	
3137	0	32822	32743	
3138	0	32808	32717	
3139	0	32796	32716	
3140	0	32876	32870	
3141	0	32786	32891	
3142	0	32884	32586	
3143	0	32880	32894	
3144	0	32808	32899	
3145	0	32872	32698	
3146	0	32848	32628	
3147	0	32913	32537	
3148	0	32900	32774	
3149	0	32844	32662	
3150	0	32932	32725	
3151	0	32878	32852	
3152	0	32816	32590	
3153	0	32836	32742	
3154	0	32796	32816	
3155	0	32840	32678	
3156	0	32792	32999	
3157	0	32874	32760	
3158	0	32740	32724	
3159	0	32593	32758	
3160	0	32584	32675	
3161	0	32748	32655	
3162	0	32830	32546	
3163	0	32904	32830	
3164	0	32856	32804	
3165	0	32864	32706	
3166	0	33006	32774	
3167	0	32944	32552	
3168	0	32860	32679	
3169	0	32868	32460	
3170	0	32746	32908	
3171	0	32788	32830	
3172	0	32800	32806	
3173	0	32804	33044	
3174	0	32872	32844	
3175	0	32724	32912	
3176	0	32808	32740	
3177	0	32760	32732	
3178	0	32840	32606	
3179	0	32868	32844	
3180	0	32820	32984	
3181	0	32754	32952	
3182	0	32684	32730	
3183	0	32596	32680	
3184	0	32652	32825	
3185	0	32728	32968	
3186	0	32624	32904	
3187	0	33086	32476	
3188	0	33020	32588	
3189	0	32970	32647	
3190	0	32816	32636	
3191	0	32754	32814	
3192	0	32874	32698	
3193	0	32888	32704	
3194	0	32836	32560	
3195	0	32804	33016	
3196	0	32888	32426	
3197	0	32968	33044	
3198	0	33002	32702	
3199	0	32944	32660	
3200	0	32844	32812	
3201	0	32812	32946	
3202	0	32694	32686	
3203	0	33016	32932	
3204	0	32940	32743	
3205	0	32856	32662	
3206	0	32822	32852	
3207	0	32944	32738	
3208	0	32912	32804	
3209	0	32780	32708	
3210	0	32756	33015	
3211	0	32840	32748	
3212	0	32586	32864	
3213	0	32650	32712	
3214	0	32756	32806	
3215	0	32756	32772	
3216	0	32718	32606	
3217	0	32766	32828	
3218	0	32790	32807	
3219	0	32886	32870	
3220	0	32816	32530	
3221	0	32856	32760	
3222	0	32744	32762	
3223	0	32814	32686	
3224	0	32760	32718	
3225	0	32756	32688	
3226	0	32828	32676	
3227	0	32773	32650	
3228	0	32820	32703	
3229	0	32842	33046	
3230	0	32876	32807	
3231	0	32858	32807	
3232	0	32724	32806	
3233	0	32672	32680	
3234	0	32698	32636	
3235	0	32846	32718	
3236	0	32914	32710	
3237	0	32962	32774	
3238	0	32880	32846	
3239	0	32912	32662	
3240	0	32900	32762	
3241	0	32768	32856	
3242	0	32846	32721	
3243	0	32822	32828	
3244	0	32816	32754	
3245	0	32812	32920	
3246	0	32814	32704	
3247	0	32888	32678	
3248	0	32852	33016	
3249	0	32844	32858	
3250	0	32836	32680	
3251	0	32800	33013	
3252	0	32756	32775	
3253	0	32768	32840	
3254	0	32808	32814	
3255	0	32696	32647	
3256	0	32768	32724	
3257	0	32770	32823	
3258	0	32664	32510	
3259	0	32576	32620	
3260	0	32778	32518	
3261	0	32732	32946	
3262	0	32948	32688	
3263	0	32800	32736	
3264	0	32696	32699	
3265	0	32788	32788	
3266	0	32948	32848	
3267	0	32884	32763	
3268	0	32874	32940	
3269	0	32868	32752	
3270	0	32832	32775	
3271	0	32728	32914	
3272	0	32730	32820	
3273	0	32796	32646	
3274	0	32812	32734	
3275	0	32824	32792	
3276	0	32922	32708	
3277	0	32900	32766	
3278	0	32996	32614	
3279	0	32896	32790	
3280	0	32768	32765	
3281	0	32680	32814	
3282	0	32732	32693	
3283	0	32740	32664	
3284	0	32664	32686	
3285	0	32724	33024	
3286	0	32874	32724	
3287	0	32896	32756	
3288	0	32828	32704	
3289	0	32750	32730	
3290	0	32784	32809	
3291	0	32800	32936	
3292	0	32816	32860	
3293	0	32906	32674	
3294	0	32946	32802	
3295	0	32816	32844	
3296	0	32800	32675	
3297	0	32760	32661	
3298	0	32708	32798	
3299	0	32726	32743	
3300	0	32784	32828	
3301	0	32702	32692	
3302	0	32728	32862	
3303	0	32900	32736	
3304	0	32816	32820	
3305	0	32736	32734	
3306	0	32844	32726	
3307	0	32892	32820	
3308	0	32984	32804	
3309	0	32968	32922	
3310	0	32872	32772	
3311	0	32842	32602	
3312	0	32820	32632	
3313	0	32872	33022	
3314	0	32868	32637	
3315	0	32796	32748	
3316	0	32750	32774	
3317	0	32832	32832	
3318	0	32738	32576	
3319	0	32720	32618	
3320	0	32740	32818	
3321	0	32872	32886	
3322	0	32751	32622	
3323	0	32734	32716	
3324	0	32840	32880	
3325	0	32724	32740	
3326	0	32748	32671	
3327	0	32760	32670	
3328	0	32800	32700	
3329	0	32736	32697	
3330	0	32680	32662	
3331	0	32728	32758	
3332	0	32872	32775	
3333	0	32840	32788	
3334	0	32960	32818	
3335	0	32850	32858	
3336	0	32690	32938	
3337	0	32616	32766	
3338	0	32728	32727	
3339	0	32802	32700	
3340	0	32796	32874	
3341	0	32908	32740	
3342	0	32922	32817	
3343	0	32924	32744	
3344	0	32880	32714	
3345	0	32846	32743	
3346	0	32828	32679	
3347	0	32848	32775	
3348	0	32804	32656	
3349	0	32746	32772	
3350	0	32868	32790	
3351	0	32788	32812	
3352	0	32948	32768	
3353	0	33008	32583	
3354	0	32892	32932	
3355	0	32900	32700	
3356	0	32928	32798	
3357	0	32784	32890	
3358	0	32672	32732	
3359	0	32680	32798	
3360	0	32634	32654	
3361	0	32668	32743	
3362	0	32612	32590	
3363	0	33044	32578	
3364	0	32860	32744	
3365	0	32608	32654	
3366	0	32708	32638	
3367	0	32682	32756	
3368	0	32606	32842	
3369	0	32712	32700	
3370	0	32694	32742	
3371	0	32866	32726	
3372	0	32976	32664	
3373	0	32856	32935	
3374	0	32758	32748	
3375	0	32924	32842	
3376	0	32887	32912	
3377	0	32764	32846	
3378	0	32788	32830	
3379	0	32768	32629	
3380	0	32916	32958	
3381	0	32840	32772	
3382	0	32768	32867	
3383	0	32780	32940	
3384	0	32884	32660	
3385	0	32940	32668	
3386	0	33008	32710	
3387	0	32916	32710	
3388	0	32884	32702	
3389	0	32814	32718	
3390	0	32796	32684	
3391	0	32804	32567	
3392	0	32710	32572	
3393	0	32696	32602	
3394	0	32708	32825	
3395	0	32696	32860	
3396	0	32740	32817	
3397	0	32712	32770	
3398	0	32760	32788	
3399	0	32744	32756	
3400	0	32816	32786	
3401	0	32812	32743	
3402	0	32836	32816	
3403	0	32864	32839	
3404	0	32828	32884	
3405	0	32862	32802	
3406	0	32880	32706	
3407	0	32900	32739	
3408	0	32828	32710	
3409	0	32832	32680	
3410	0	32768	32766	
3411	0	32814	32747	
3412	0	32736	32698	
3413	0	32660	32764	
3414	0	32670	32750	
3415	0	32794	32744	
3416	0	32776	32725	
3417	0	32860	32878	
3418	0	32844	32682	
3419	0	32868	32726	
3420	0	32832	32964	
3421	0	32832	32751	
3422	0	32912	32662	
3423	0	32824	32650	
3424	0	32808	32774	
3425	0	32848	32768	
3426	0	32780	32724	
3427	0	32792	32856	
3428	0	32842	32868	
3429	0	32708	32732	
3430	0	32766	32592	
3431	0	32768	32764	
3432	0	32832	32706	
3433	0	32872	32642	
3434	0	33012	32706	
3435	0	32912	32683	
3436	0	32912	32760	
3437	0	32714	32772	
3438	0	32692	32792	
3439	0	32678	33016	
3440	0	32712	33047	
3441	0	32796	32998	
3442	0	32855	32822	
3443	0	32808	32716	
3444	0	32732	32646	
3445	0	32712	32614	
3446	0	32698	32654	
3447	0	32738	32603	
3448	0	32817	32564	
3449	0	32826	32640	
3450	0	32910	32702	
3451	0	32862	32704	
3452	0	32872	32759	
3453	0	32872	32864	
3454	0	32776	32972	
3455	0	32906	32814	
3456	0	32892	32840	
3457	0	32872	32796	
3458	0	32852	32610	
3459	0	32784	32738	
3460	0	32808	32721	
3461	0	32768	32624	
3462	0	32788	32788	
3463	0	32772	32722	
3464	0	32692	32860	
3465	0	32748	32679	
3466	0	32792	32711	
3467	0	32800	32844	
3468	0	32834	32754	
3469	0	32720	32770	
3470	0	32728	32751	
3471	0	32772	32759	
3472	0	32868	32834	
3473	0	32812	32828	
3474	0	32724	32864	
3475	0	32756	32671	
3476	0	32856	32662	
3477	0	32808	32788	
3478	0	32885	32820	
3479	0	32810	32836	
3480	0	32824	32821	
3481	0	32804	32678	
3482	0	32912	32526	
3483	0	32852	32708	
3484	0	32736	32724	
3485	0	32862	32616	
3486	0	32940	32678	
3487	0	32932	32748	
3488	0	32784	32714	
3489	0	32776	32700	
3490	0	32706	32836	
3491	0	32876	32934	
3492	0	32916	32690	
3493	0	32632	32810	
3494	0	32660	32855	
3495	0	32650	32714	
3496	0	32588	32672	
3497	0	32898	32692	
3498	0	32988	32847	
3499	0	32684	32740	
3500	0	32720	32814	
3501	0	32806	32704	
3502	0	32742	32730	
3503	0	32836	32849	
3504	0	32858	32899	
3505	0	32784	32830	
3506	0	32752	33031	
3507	0	32868	33028	
3508	0	32876	32770	
3509	0	32968	32844	
3510	0	33182	32798	
3511	0	32986	32908	
3512	0	32866	32932	
3513	0	32758	32933	
3514	0	32706	32673	
3515	0	32672	32422	
3516	0	32722	32622	
3517	0	32824	32711	
3518	0	32780	32676	
3519	0	32712	32616	
3520	0	32636	32618	
3521	0	32748	32519	
3522	0	32816	32610	
3523	0	32764	32910	
3524	0	32832	32902	
3525	0	32872	32832	
3526	0	32906	32838	
3527	0	32696	32884	
3528	0	32712	32775	
3529	0	32810	32788	
3530	0	32798	32698	
3531	0	32868	32786	
3532	0	32844	32732	
3533	0	32919	32583	
3534	0	33004	32802	
3535	0	33116	32708	
3536	0	32936	32700	
3537	0	32714	32874	
3538	0	32645	32690	
3539	0	32888	32650	
3540	0	32828	32796	
3541	0	32744	32625	
3542	0	32828	32632	
3543	0	32844	32580	
3544	0	32924	32846	
3545	0	32730	32775	
3546	0	32514	32967	
3547	0	32732	32852	
3548	0	32798	32911	
3549	0	32772	32920	
3550	0	32860	32858	
3551	0	32856	32797	
3552	0	32844	32718	
3553	0	32836	32558	
3554	0	32728	32720	
3555	0	32732	32748	
3556	0	32704	32804	
3557	0	32640	32690	
3558	0	32700	32960	
3559	0	32708	32887	
3560	0	32804	32878	
3561	0	32796	32930	
3562	0	32824	32826	
3563	0	32908	32718	
3564	0	32832	32856	
3565	0	32776	32930	
3566	0	32836	32828	
3567	0	32876	32714	
3568	0	32812	32707	
3569	0	32808	32796	
3570	0	32746	32676	
3571	0	32692	32582	
3572	0	32932	32652	
3573	0	32952	32820	
3574	0	32964	32737	
3575	0	32872	32743	
3576	0	32890	32672	
3577	0	32756	32643	
3578	0	32872	32734	
3579	0	32788	32636	
3580	0	32652	32626	
3581	0	32762	32658	
3582	0	32712	32494	
3583	0	32824	32880	
3584	0	32838	32852	
3585	0	32752	32775	
3586	0	32864	32830	
3587	0	32764	32810	
3588	0	32710	32811	
3589	0	32746	32911	
3590	0	32760	32775	
3591	0	32786	32822	
3592	0	32830	32630	
3593	0	32980	32956	
3594	0	32884	32796	
3595	0	32740	32852	
3596	0	32860	32708	
3597	0	32874	32710	
3598	0	32890	32878	
3599	0	32836	32788	
3600	0	32772	32762	
3601	0	32668	32944	
3602	0	32806	32775	
3603	0	32900	32775	
3604	0	32960	32838	
3605	0	32912	32699	
3606	0	32760	32598	
3607	0	32712	32730	
3608	0	32718	32733	
3609	0	32744	32647	
3610	0	32808	32702	
3611	0	32774	32800	
3612	0	32726	32852	
3613	0	32828	32678	
3614	0	32894	32662	
3615	0	32788	32856	
3616	0	32920	32818	
3617	0	32870	32758	
3618	0	32784	32752	
3619	0	32756	32751	
3620	0	32852	32866	
3621	0	32894	32789	
3622	0	32828	32766	
3623	0	32708	32844	
3624	0	32796	32878	
3625	0	32673	32874	
3626	0	32737	32580	
3627	0	32808	32704	
3628	0	32856	32656	
3629	0	32808	32786	
3630	0	32728	32768	
3631	0	32796	32464	
3632	0	32842	32577	
3633	0	32912	32828	
3634	0	32852	32814	
3635	0	32784	32807	
3636	0	32724	32811	
3637	0	32772	32834	
3638	0	32840	32812	
3639	0	32868	32742	
3640	0	32970	32726	
3641	0	32858	32810	
3642	0	32888	32844	
3643	0	32816	32820	
3644	0	32836	32796	
3645	0	32728	32798	
3646	0	32700	32816	
3647	0	32752	32616	
3648	0	32856	32690	
3649	0	32872	32694	
3650	0	32860	32676	
3651	0	32718	32710	
3652	0	32718	32616	
3653	0	32736	32796	
3654	0	32808	32867	
3655	0	32788	32890	
3656	0	32852	32720	
3657	0	32932	32678	
3658	0	32906	32738	
3659	0	32874	32936	
3660	0	32816	32844	
3661	0	32802	32791	
3662	0	32842	32708	
3663	0	32836	32670	
3664	0	32942	32756	
3665	0	32896	32622	
3666	0	32764	32740	
3667	0	32824	32743	
3668	0	32762	32708	
3669	0	32760	32754	
3670	0	32992	32727	
3671	0	32990	32742	
3672	0	32912	32766	
3673	0	32890	32604	
3674	0	32970	32648	
3675	0	33228	32744	
3676	0	32932	32704	
3677	0	32776	32588	
3678	0	32746	32550	
3679	0	32830	32480	
3680	0	32864	32570	
3681	0	32750	32532	
3682	0	32886	32500	
3683	0	32892	32350	
3684	0	32740	32389	
3685	0	32766	32391	
3686	0	32854	32498	
3687	0	32856	32738	
3688	0	32868	32836	
3689	0	32688	32865	
3690	0	32616	33054	
3691	0	32584	33244	
3692	0	32448	33150	
3693	0	32448	33406	
3694	0	32472	33348	
3695	0	32344	33418	
3696	0	32448	33574	
3697	0	32612	33644	
3698	0	32564	33670	
3699	0	32542	33456	
3700	0	32760	33338	
3701	0	32860	33166	
3702	0	32788	32796	
3703	0	32856	32538	
3704	0	32964	32388	
3705	0	33008	32372	
3706	0	32980	32280	
3707	0	33088	32340	
3708	0	33080	32212	
3709	0	33044	32224	
3710	0	33038	32230	
3711	0	33050	32296	
3712	0	32936	32380	
3713	0	32804	32392	
3714	0	32624	32492	
3715	0	32856	32592	
3716	0	32880	32713	
3717	0	32856	32788	
3718	0	32896	32758	
3719	0	32976	32872	
3720	0	33036	33040	
3721	0	32926	33046	
3722	0	32984	33159	
3723	0	32908	33170	
3724	0	32876	32990	
3725	0	32860	32954	
3726	0	32780	33014	
3727	0	32648	32730	
3728	0	32732	32740	
3729	0	32800	32722	
3730	0	32730	32574	
3731	0	32872	32576	
3732	0	32760	32586	
3733	0	32832	32570	
3734	0	32834	32575	
3735	0	32828	32644	
3736	0	32764	32567	
3737	0	32772	32602	
3738	0	32936	32656	
3739	0	32904	32762	
3740	0	32782	32695	
3741	0	32760	32754	
3742	0	32800	32882	
3743	0	32688	32775	
3744	0	32685	32761	
3745	0	32668	32823	
3746	0	32832	32926	
3747	0	32830	32930	
3748	0	32820	33024	
3749	0	32804	33020	
3750	0	32890	32962	
3751	0	32728	32806	
3752	0	32882	32775	
3753	0	32936	32800	
3754	0	32788	32518	
3755	0	32842	32628	
3756	0	32802	32748	
3757	0	32808	32647	
3758	0	32856	32716	
3759	0	32772	32736	
3760	0	32840	32726	
3761	0	32820	32682	
3762	0	32796	32570	
3763	0	32790	32652	
3764	0	32792	32694	
3765	0	32808	32771	
3766	0	32718	32708	
3767	0	32868	32622	
3768	0	32824	32800	
3769	0	32842	32775	
3770	0	32774	32772	
3771	0	32834	32794	
3772	0	32804	32710	
3773	0	32760	32624	
3774	0	32792	32760	
3775	0	32772	32842	
3776	0	32844	32775	
3777	0	32848	32775	
3778	0	32836	32748	
3779	0	32804	32868	
3780	0	32772	32774	
3781	0	32932	32850	
3782	0	32988	32766	
3783	0	32624	32714	
3784	0	32720	32786	
3785	0	32792	32918	
3786	0	32772	32884	
3787	0	32828	32775	
3788	0	32812	32816	
3789	0	32880	32898	
3790	0	32836	32807	
3791	0	32768	32806	
3792	0	32732	32840	
3793	0	32788	32830	
3794	0	32796	32712	
3795	0	32858	32599	
3796	0	32892	32592	
3797	0	32824	32668	
3798	0	32764	32756	
3799	0	32774	32816	
3800	0	32766	32636	
3801	0	32776	32674	
3802	0	32888	32780	
3803	0	32840	32726	
3804	0	32878	32876	
3805	0	32838	32775	
3806	0	32824	32754	
3807	0	32772	32694	
3808	0	32804	32834	
3809	0	32764	32810	
3810	0	32866	32804	
3811	0	32644	32695	
3812	0	32948	32628	
3813	0	32902	32746	
3814	0	32660	32930	
3815	0	32802	32820	
3816	0	32820	32892	
3817	0	32864	32902	
3818	0	32909	32818	
3819	0	32722	32880	
3820	0	32792	32794	
3821	0	32930	32678	
3822	0	32896	32830	
3823	0	32860	32848	
3824	0	32800	32720	
3825	0	32836	32706	
3826	0	32804	32676	
3827	0	32812	32702	
3828	0	32826	32716	
3829	0	32816	32716	
3830	0	32852	32626	
3831	0	32892	32732	
3832	0	32824	32740	
3833	0	32828	32700	
3834	0	32788	32794	
3835	0	32824	32756	
3836	0	32796	32689	
3837	0	32784	32839	
3838	0	32775	32892	
3839	0	32772	32807	
3840	0	32764	32894	
3841	0	32840	32723	
3842	0	32768	32775	
3843	0	32816	32724	
3844	0	32836	32772	
3845	0	32836	32834	
3846	0	32790	32887	
3847	0	32916	32804	
3848	0	32924	32759	
3849	0	32744	32794	
3850	0	32690	32756	
3851	0	32904	32839	
3852	0	32940	32848	
3853	0	32674	32800	
3854	0	32752	32772	
3855	0	32950	32798	
3856	0	32732	32817	
3857	0	32712	32866	
3858	0	32816	32918	
3859	0	32824	32723	
3860	0	32840	32696	
3861	0	32960	32724	
3862	0	32838	32698	
3863	0	32780	32754	
3864	0	32864	32604	
3865	0	32948	32663	
3866	0	32868	32823	
3867	0	32724	32854	
3868	0	32664	32834	
3869	0	32752	32855	
3870	0	32812	32712	
3871	0	32852	32760	
3872	0	32828	32926	
3873	0	32775	32832	
3874	0	32824	32822	
3875	0	32870	32799	
3876	0	32856	32584	
3877	0	32852	32650	
3878	0	32760	32770	
3879	0	32812	32738	
3880	0	32880	32738	
3881	0	32800	32814	
3882	0	32852	32742	
3883	0	32756	32580	
3884	0	32796	32686	
3885	0	32732	32738	
3886	0	32806	32722	
3887	0	32802	32766	
3888	0	32734	32802	
3889	0	32932	32724	
3890	0	32952	32748	
3891	0	32812	32775	
3892	0	32730	32768	
3893	0	32788	32754	
3894	0	32864	32734	
3895	0	32778	32862	
3896	0	32748	32766	
3897	0	32774	32678	
3898	0	32786	32854	
3899	0	32824	32864	
3900	0	32740	32754	
3901	0	32798	32894	
3902	0	32788	32698	
3903	0	32796	32628	
3904	0	32764	32855	
3905	0	32816	32790	
3906	0	32894	32798	
3907	0	32920	32744	
3908	0	32794	32775	
3909	0	32804	32766	
3910	0	32796	32796	
3911	0	32720	32762	
3912	0	32836	32743	
3913	0	32812	32912	
3914	0	32764	32832	
3915	0	32932	32876	
3916	0	32878	32770	
3917	0	32706	32702	
3918	0	32874	32806	
3919	0	32792	32748	
3920	0	32750	32796	
3921	0	32764	32818	
3922	0	32756	32684	
3923	0	32746	32647	
3924	0	32866	32724	
3925	0	32830	32807	
3926	0	32728	32743	
3927	0	32784	32786	
3928	0	32824	32721	
3929	0	32850	32796	
3930	0	32752	32801	
3931	0	32766	32743	
3932	0	32772	32846	
3933	0	32892	32736	
3934	0	32852	32698	
3935	0	32806	32770	
3936	0	32816	32742	
3937	0	32776	32638	
3938	0	32748	32580	
3939	0	32876	32820	
3940	0	32828	32652	
3941	0	32836	32794	
3942	0	32794	32790	
3943	0	32860	32772	
3944	0	32786	32754	
3945	0	32750	32736	
3946	0	32748	32800	
3947	0	32704	32660	
3948	0	32812	32742	
3949	0	32792	32871	
3950	0	32768	32975	
3951	0	32778	32902	
3952	0	32860	32834	
3953	0	32760	32912	
3954	0	32852	32794	
3955	0	32800	32788	
3956	0	32842	32732	
3957	0	32872	32858	
3958	0	32830	32846	
3959	0	32788	32816	
3960	0	32794	32807	
3961	0	32892	32718	
3962	0	32844	32710	
3963	0	32880	32692	
3964	0	32844	32796	
3965	0	32784	32742	
3966	0	32836	32774	
3967	0	32794	32644	
3968	0	32772	32750	
3969	0	32796	32752	
3970	0	32822	32744	
3971	0	32846	32714	
3972	0	32912	32662	
3973	0	32768	32754	
3974	0	32792	32737	
3975	0	32784	32743	
3976	0	32870	32840	
3977	0	32852	32792	
3978	0	32812	32743	
3979	0	32832	32888	
3980	0	32896	32868	
3981	0	32760	32780	
3982	0	32736	32775	
3983	0	32872	32812	
3984	0	32814	32824	
3985	0	32846	32750	
3986	0	32804	32774	
3987	0	32804	32760	
3988	0	32844	32804	
3989	0	32812	32701	
3990	0	32868	32612	
3991	0	32836	32647	
3992	0	32768	32775	
3993	0	32808	32678	
3994	0	32768	32728	
3995	0	32800	32726	
3996	0	32744	32634	
3997	0	32852	32686	
3998	0	32838	32800	
3999	0	32712	32754	
4000	0	32828	32817	
4001	0	32764	32692	
4002	0	32874	32642	
4003	0	32824	32743	
4004	0	32860	32820	
4005	0	32920	32864	
4006	0	32632	32738	
4007	0	32828	32792	
4008	0	32744	32710	
4009	0	32804	32804	
4010	0	32774	32830	
4011	0	32760	32792	
4012	0	32788	32798	
4013	0	32796	32698	
4014	0	32868	32712	
4015	0	32912	32882	
4016	0	32912	32804	
4017	0	32868	32758	
4018	0	32774	32792	
4019	0	32808	32700	
4020	0	32724	32678	
4021	0	32804	32868	
4022	0	32836	32834	
4023	0	32876	32842	
4024	0	32792	32807	
4025	0	32804	32749	
4026	0	32832	32848	
4027	0	32856	32829	
4028	0	32842	32800	
4029	0	32798	32878	
4030	0	32844	32980	
4031	0	32772	32766	
4032	0	32830	32860	
4033	0	32788	32890	
4034	0	32744	32726	
4035	0	32804	32815	
4036	0	32788	32620	
4037	0	32808	32614	
4038	0	32792	32682	
4039	0	32832	32663	
4040	0	32802	32628	
4041	0	32780	32743	
4042	0	32774	32608	
4043	0	32865	32774	
4044	0	32820	32763	
4045	0	32818	32770	
4046	0	32865	32802	
4047	0	32896	32758	
4048	0	32852	32704	
4049	0	32772	32832	
4050	0	32876	32775	
4051	0	32832	32884	
4052	0	32850	32874	
4053	0	32754	32836	
4054	0	32816	32711	
4055	0	32816	32860	
4056	0	32852	32824	
4057	0	32826	32775	
4058	0	32816	32830	
4059	0	32776	32676	
4060	0	32740	32734	
4061	0	32817	32642	
4062	0	32780	32614	
4063	0	32840	32700	
4064	0	32778	32718	
4065	0	32706	32775	
4066	0	32874	32822	
4067	0	32792	32631	
4068	0	32758	32710	
4069	0	32796	32808	
4070	0	32746	32772	
4071	0	32824	32730	
4072	0	32792	32760	
4073	0	32688	32804	
4074	0	32864	32804	
4075	0	32834	32700	
4076	0	32784	32804	
4077	0	32856	32735	
4078	0	32830	32774	
4079	0	32912	32796	
4080	0	32814	32789	
4081	0	32792	32775	
4082	0	32712	32807	
4083	0	32724	32794	
4084	0	32792	32966	
4085	0	32872	32871	
4086	0	32820	32888	
4087	0	32840	32829	
4088	0	32826	32839	
4089	0	32832	32704	
4090	0	32864	32634	
4091	0	33000	32750	
4092	0	32836	32814	
4093	0	32814	32775	
4094	0	32828	32678	
4095	0	32836	32718	
4096	0	32820	32742	
4097	0	32738	32788	
4098	0	32744	32775	
4099	0	32856	32760	
4100	0	32788	32698	
4101	0	32806	32608	
4102	0	32846	32689	
4103	0	32817	32716	
4104	0	32822	32764	
4105	0	32816	32822	
4106	0	32784	32716	
4107	0	32790	32724	
4108	0	32784	32758	
4109	0	32792	32734	
4110	0	32812	32775	
4111	0	32788	32790	
4112	0	32816	32692	
4113	0	32828	32716	
4114	0	32793	32924	
4115	0	32798	32826	
4116	0	32766	32844	
4117	0	32820	32801	
4118	0	32804	32916	
4119	0	32756	32802	
4120	0	32834	32725	
4121	0	32792	32718	
4122	0	32800	32686	
4123	0	32810	32832	
4124	0	32834	32816	
4125	0	32843	32724	
4126	0	32820	32844	
4127	0	32862	32828	
4128	0	32858	32714	
4129	0	32836	32834	
4130	0	32790	32732	
4131	0	32836	32756	
4132	0	32780	32775	
4133	0	32802	32826	
4134	0	32802	32764	
4135	0	32802	32702	
4136	0	32864	32678	
4137	0	32775	32720	
4138	0	32846	32775	
4139	0	32772	32751	
4140	0	32801	32682	
4141	0	32806	32787	
4142	0	32742	32824	
4143	0	32796	32804	
4144	0	32812	32701	
4145	0	32756	32752	
4146	0	32782	32812	
4147	0	32887	32916	
4148	0	32804	32814	
4149	0	32856	32842	
4150	0	32817	32834	
4151	0	32836	32832	
4152	0	32844	32764	
4153	0	32852	32716	
4154	0	32740	32764	
4155	0	32832	32672	
4156	0	32790	32650	
4157	0	32732	32660	
4158	0	32828	32724	
4159	0	32810	32576	
4160	0	32836	32754	
4161	0	32752	32772	
4162	0	32832	32742	
4163	0	32832	32768	
4164	0	32732	32732	
4165	0	32832	32839	
4166	0	32774	32838	
4167	0	32784	32760	
4168	0	32856	32844	
4169	0	32756	32852	
4170	0	32852	32775	
4171	0	32816	32856	
4172	0	32812	32750	
4173	0	32796	32690	
4174	0	32808	32750	
4175	0	32778	32806	
4176	0	32776	32768	
4177	0	32780	32775	
4178	0	32844	32800	
4179	0	32856	32759	
4180	0	32849	32688	
4181	0	32772	32684	
4182	0	32780	32768	
4183	0	32804	32754	
4184	0	32836	32759	
4185	0	32794	32700	
4186	0	32786	32719	
4187	0	32776	32828	
4188	0	32820	32714	
4189	0	32792	32796	
4190	0	32756	32680	
4191	0	32745	32718	
4192	0	32822	32865	
4193	0	32816	32838	
4194	0	32812	32826	
4195	0	32768	32820	
4196	0	32772	32724	
4197	0	32840	32836	
4198	0	32866	32798	
4199	0	32832	32788	
4200	0	32808	32792	
4201	0	32804	32698	
4202	0	32804	32676	
4203	0	32902	32692	
4204	0	32908	32808	
4205	0	32832	32791	
4206	0	32804	32766	
4207	0	32804	32838	
4208	0	32802	32730	
4209	0	32802	32696	
4210	0	32741	32692	
4211	0	32760	32775	
4212	0	32834	32762	
4213	0	32762	32756	
4214	0	32800	32800	
4215	0	32776	32775	
4216	0	32810	32708	
4217	0	32774	32696	
4218	0	32808	32756	
4219	0	32792	32810	
4220	0	32824	32816	
4221	0	32906	32775	
4222	0	32812	32754	
4223	0	32832	32754	
4224	0	32824	32839	
4225	0	32808	32775	
4226	0	32820	32666	
4227	0	32756	32764	
4228	0	32804	32816	
4229	0	32821	32790	
4230	0	32832	32802	
4231	0	32800	32806	
4232	0	32760	32672	
4233	0	32744	32680	
4234	0	32790	32726	
4235	0	32880	32714	
4236	0	32854	32834	
4237	0	32796	32654	
4238	0	32780	32766	
4239	0	32880	32790	
4240	0	32884	32726	
4241	0	32858	32678	
4242	0	32850	32796	
4243	0	32788	32890	
4244	0	32816	32712	
4245	0	32760	32752	
4246	0	32776	32732	
4247	0	32776	32856	
4248	0	32804	32756	
4249	0	32768	32708	
4250	0	32780	32930	
4251	0	32884	32727	
4252	0	32804	32752	
4253	0	32736	32766	
4254	0	32772	32730	
4255	0	32780	32732	
4256	0	32866	32707	
4257	0	32852	32688	
4258	0	32800	32778	
4259	0	32772	32760	
4260	0	32782	32727	
4261	0	32834	32700	
4262	0	32816	32716	
4263	0	32888	32708	
4264	0	32886	32836	
4265	0	32808	32658	
4266	0	32842	32775	
4267	0	32744	32726	
4268	0	32804	32716	
4269	0	32792	32736	
4270	0	32804	32759	
4271	0	32748	32878	
4272	0	32816	32772	
4273	0	32728	32892	
4274	0	32760	32814	
4275	0	32848	32712	
4276	0	32864	32759	
4277	0	32824	32770	
4278	0	32808	32768	
4279	0	32812	32838	
4280	0	32878	32856	
4281	0	32868	32689	
4282	0	32828	32686	
4283	0	32760	32700	
4284	0	32788	32743	
4285	0	32808	32756	
4286	0	32782	32790	
4287	0	32756	32775	
4288	0	32976	32768	
4289	0	32760	32712	
4290	0	32848	32748	
4291	0	32860	32832	
4292	0	32942	32694	
4293	0	32932	32839	
4294	0	32960	32856	
4295	0	32962	32698	
4296	0	32992	32680	
4297	0	32990	32576	
4298	0	33004	32564	
4299	0	32848	32586	
4300	0	32688	32542	
4301	0	32772	32404	
4302	0	32924	32496	
4303	0	32728	32454	
4304	0	32704	32358	
4305	0	32782	32478	
4306	0	32736	32391	
4307	0	32760	32422	
4308	0	32824	32476	
4309	0	32836	32632	
4310	0	32722	32569	
4311	0	32696	32768	
4312	0	32610	32822	
4313	0	32464	33010	
4314	0	32376	33222	
4315	0	32490	33278	
4316	0	32468	33572	
4317	0	32468	33328	
4318	0	32512	33478	
4319	0	32476	33634	
4320	0	32560	33670	
4321	0	32640	33742	
4322	0	32674	33671	
4323	0	32696	33590	
4324	0	32724	33287	
4325	0	32938	33094	
4326	0	32885	32791	
4327	0	32878	32702	
4328	0	32922	32614	
4329	0	32878	32444	
4330	0	33024	32172	
4331	0	33070	32391	
4332	0	33060	32238	
4333	0	32952	32388	
4334	0	32972	32519	
4335	0	33096	32276	
4336	0	33066	32504	
4337	0	32976	32432	
4338	0	32920	32431	
4339	0	32956	32556	
4340	0	32856	32398	
4341	0	32808	32460	
4342	0	32816	32798	
4343	0	32896	32738	
4344	0	32904	32540	
4345	0	32896	32996	
4346	0	32882	32610	
4347	0	32858	32680	
4348	0	32872	32738	
4349	0	32836	32850	
4350	0	32792	32803	
4351	0	32820	32942	
4352	0	32838	32986	
4353	0	32880	32816	
4354	0	32878	32740	
4355	0	32884	32832	
4356	0	32857	32896	
4357	0	32782	32792	
4358	0	32884	32814	
4359	0	32832	32676	
4360	0	32840	32844	
4361	0	32724	32732	
4362	0	32762	32834	
4363	0	32748	32812	
4364	0	32784	32746	
4365	0	32684	32856	
4366	0	32698	32774	
4367	0	32676	32644	
4368	0	32556	32828	
4369	0	32652	32836	
4370	0	32784	32660	
4371	0	32856	32752	
4372	0	32864	32774	
4373	0	32864	32644	
4374	0	32788	32615	
4375	0	32894	32754	
4376	0	32798	32752	
4377	0	32760	32792	
4378	0	32722	32752	
4379	0	32760	32742	
4380	0	32856	32684	
4381	0	32770	32748	
4382	0	32876	32812	
4383	0	32896	32815	
4384	0	32870	32764	
4385	0	32806	32823	
4386	0	32758	32775	
4387	0	32788	32647	
4388	0	32856	32698	
4389	0	32720	32774	
4390	0	32784	32785	
4391	0	32844	32762	
4392	0	32794	32678	
4393	0	32828	32900	
4394	0	32760	32740	
4395	0	32840	32654	
4396	0	32800	32671	
4397	0	32818	32812	
4398	0	32792	32759	
4399	0	32760	32756	
4400	0	32872	32606	
4401	0	32812	32863	
4402	0	32832	32710	
4403	0	32848	32804	
4404	0	32800	32710	
4405	0	32856	32796	
4406	0	32816	32815	
4407	0	32842	32942	
4408	0	32800	32870	
4409	0	32780	32831	
4410	0	32840	32798	
4411	0	32826	32852	
4412	0	32792	32810	
4413	0	32888	32852	
4414	0	32800	32734	
4415	0	32792	32604	
4416	0	32848	32692	
4417	0	32808	32706	
4418	0	32792	32620	
4419	0	32732	32772	
4420	0	32833	32728	
4421	0	32852	32660	
4422	0	32848	32737	
4423	0	32788	32775	
4424	0	32852	32662	
4425	0	32824	32866	
4426	0	32824	32862	
4427	0	32838	32878	
4428	0	32804	32842	
4429	0	32760	32836	
4430	0	32768	32811	
4431	0	32724	32732	
4432	0	32862	32688	
4433	0	32758	32774	
4434	0	32720	32858	
4435	0	32770	32735	
4436	0	32796	32692	
4437	0	32932	32868	
4438	0	32820	32726	
4439	0	32816	32768	
4440	0	32800	32672	
4441	0	32876	32616	
4442	0	32880	32898	
4443	0	32868	32552	
4444	0	32836	32822	
4445	0	32864	32730	
4446	0	32860	32680	
4447	0	32824	32687	
4448	0	32794	32814	
4449	0	32808	32920	
4450	0	32804	32672	
4451	0	32822	32852	
4452	0	32834	32828	
4453	0	32810	32720	
4454	0	32804	32703	
4455	0	32860	32856	
4456	0	32736	32798	
4457	0	32812	32775	
4458	0	32900	32786	
4459	0	32868	32736	
4460	0	32860	32716	
4461	0	32822	32821	
4462	0	32888	32844	
4463	0	32748	32867	
4464	0	32786	32775	
4465	0	32790	32824	
4466	0	32748	32872	
4467	0	32804	32647	
4468	0	32784	32660	
4469	0	32832	32721	
4470	0	32740	32812	
4471	0	32784	32718	
4472	0	32872	32766	
4473	0	32814	32760	
4474	0	32768	32670	
4475	0	32782	32670	
4476	0	32828	32775	
4477	0	32852	32774	
4478	0	32792	32820	
4479	0	32792	32800	
4480	0	32844	32702	
4481	0	32811	32696	
4482	0	32756	32858	
4483	0	32828	32812	
4484	0	32760	32707	
4485	0	32778	32822	
4486	0	32830	32734	
4487	0	32800	32662	
4488	0	32772	32652	
4489	0	32780	32800	
4490	0	32842	32812	
4491	0	32836	32774	
4492	0	32788	32740	
4493	0	32808	32666	
4494	0	32804	32743	
4495	0	32822	32838	
4496	0	32804	32792	
4497	0	32860	32806	
4498	0	32836	32752	
4499	0	32836	32766	
4500	0	32816	32614	
4501	0	32860	32852	
4502	0	32792	32674	
4503	0	32804	32743	
4504	0	32812	32626	
4505	0	32754	32670	
4506	0	32858	32826	
4507	0	32808	32752	
4508	0	32792	32816	
4509	0	32830	32676	
4510	0	32802	32768	
4511	0	32826	32764	
4512	0	32812	32890	
4513	0	32785	32751	
4514	0	32864	32740	
4515	0	32744	32842	
4516	0	32804	32752	
4517	0	32814	32774	
4518	0	32786	32848	
4519	0	32792	32846	
4520	0	32764	32788	
4521	0	32800	32632	
4522	0	32772	32638	
4523	0	32768	32674	
4524	0	32782	32793	
4525	0	32810	32680	
4526	0	32792	32711	
4527	0	32777	32772	
4528	0	32868	32662	
4529	0	32820	32616	
4530	0	32764	32693	
4531	0	32832	32724	
4532	0	32782	32772	
4533	0	32796	32856	
4534	0	32786	32792	
4535	0	32778	32736	
4536	0	32804	32750	
4537	0	32784	32812	
4538	0	32810	32826	
4539	0	32760	32775	
4540	0	32792	32858	
4541	0	32796	32772	
4542	0	32748	32734	
4543	0	32814	32814	
4544	0	32720	32814	
4545	0	32758	32842	
4546	0	32784	32743	
4547	0	32792	32660	
4548	0	32808	32870	
4549	0	32846	32800	
4550	0	32752	32853	
4551	0	32844	32860	
4552	0	32746	32692	
4553	0	32768	32839	
4554	0	32794	32860	
4555	0	32752	32834	
4556	0	32812	32831	
4557	0	32788	32876	
4558	0	32800	32760	
4559	0	32880	32692	
4560	0	32808	32846	
4561	0	32836	32724	
4562	0	32794	32646	
4563	0	32800	32794	
4564	0	32880	32682	
4565	0	32828	32630	
4566	0	32868	32807	
4567	0	32858	32668	
4568	0	32842	32711	
4569	0	32864	32696	
4570	0	32768	32647	
4571	0	32772	32698	
4572	0	32836	32732	
4573	0	32825	32796	
4574	0	32846	32756	
4575	0	32764	32656	
4576	0	32792	32639	
4577	0	32840	32743	
4578	0	32816	32810	
4579	0	32784	32804	
4580	0	32844	32798	
4581	0	32802	32865	
4582	0	32846	32775	
4583	0	32808	32743	
4584	0	32736	32740	
4585	0	32820	32810	
4586	0	32846	32775	
4587	0	32880	32743	
4588	0	32841	32636	
4589	0	32808	32810	
4590	0	32884	32742	
4591	0	32840	32731	
4592	0	32800	32664	
4593	0	32800	32659	
4594	0	32788	32791	
4595	0	32808	32739	
4596	0	32846	32775	
4597	0	32868	32682	
4598	0	32854	32680	
4599	0	32844	32762	
4600	0	32798	32748	
4601	0	32864	32740	
4602	0	32808	32744	
4603	0	32856	32815	
4604	0	32832	32828	
4605	0	32848	32802	
4606	0	32772	32644	
4607	0	32782	32716	
4608	0	32804	32760	
4609	0	32794	32742	
4610	0	32820	32864	
4611	0	32830	32732	
4612	0	32806	32754	
4613	0	32764	32828	
4614	0	32848	32727	
4615	0	32804	32792	
4616	0	32852	32679	
4617	0	32848	32698	
4618	0	32784	32800	
4619	0	32854	32746	
4620	0	32828	32828	
4621	0	32764	32882	
4622	0	32824	32775	
4623	0	32802	32840	
4624	0	32756	32814	
4625	0	32840	32808	
4626	0	32820	32812	
4627	0	32784	32692	
4628	0	32792	32773	
4629	0	32812	32808	
4630	0	32798	32722	
4631	0	32736	32810	
4632	0	32816	32738	
4633	0	32824	32711	
4634	0	32856	32741	
4635	0	32852	32772	
4636	0	32868	32746	
4637	0	32832	32838	
4638	0	32816	32868	
4639	0	32788	32807	
4640	0	32782	32758	
4641	0	32798	32681	
4642	0	32820	32698	
4643	0	32852	32824	
4644	0	32738	32828	
4645	0	32840	32760	
4646	0	32860	32772	
4647	0	32776	32774	
4648	0	32808	32664	
4649	0	32768	32614	
4650	0	32810	32686	
4651	0	32844	32752	
4652	0	32832	32792	
4653	0	32780	32686	
4654	0	32832	32688	
4655	0	32804	32775	
4656	0	32802	32716	
4657	0	32864	32828	
4658	0	32760	32811	
4659	0	32842	32700	
4660	0	32780	32748	
4661	0	32812	32838	
4662	0	32828	32836	
4663	0	32842	32828	
4664	0	32832	32775	
4665	0	32840	32714	
4666	0	32812	32847	
4667	0	32768	32774	
4668	0	32812	32768	
4669	0	32788	32838	
4670	0	32764	32675	
4671	0	32772	32753	
4672	0	32796	32817	
4673	0	32878	32790	
4674	0	32798	32807	
4675	0	32852	32880	
4676	0	32812	32714	
4677	0	32752	32686	
4678	0	32852	32718	
4679	0	32776	32831	
4680	0	32828	32716	
4681	0	32852	32818	
4682	0	32802	32688	
4683	0	32800	32667	
4684	0	32838	32775	
4685	0	32790	32828	
4686	0	32814	32828	
4687	0	32810	32822	
4688	0	32794	32808	
4689	0	32846	32770	
4690	0	32826	32710	
4691	0	32780	32799	
4692	0	32808	32764	
4693	0	32748	32814	
4694	0	32796	32791	
4695	0	32864	32728	
4696	0	32814	32689	
4697	0	32817	32768	
4698	0	32756	32770	
4699	0	32752	32775	
4700	0	32799	32664	
4701	0	32800	32812	
4702	0	32770	32714	
4703	0	32796	32756	
4704	0	32840	32732	
4705	0	32862	32770	
4706	0	32808	32858	
4707	0	32846	32775	
4708	0	32824	32820	
4709	0	32846	32864	
4710	0	32820	32736	
4711	0	32828	32788	
4712	0	32808	32796	
4713	0	32796	32766	
4714	0	32756	32792	
4715	0	32738	32744	
4716	0	32860	32750	
4717	0	32770	32580	
4718	0	32814	32657	
4719	0	32812	32798	
4720	0	32800	32665	
4721	0	32888	32775	
4722	0	32752	32758	
4723	0	32804	32694	
4724	0	32816	32758	
4725	0	32804	32714	
4726	0	32832	32830	
4727	0	32808	32828	
4728	0	32806	32646	
4729	0	32854	32754	
4730	0	32824	32892	
4731	0	32828	32790	
4732	0	32794	32850	
4733	0	32752	32704	
4734	0	32830	32757	
4735	0	32776	32769	
4736	0	32760	32852	
4737	0	32866	32852	
4738	0	32782	32828	
4739	0	32808	32738	
4740	0	32828	32722	
4741	0	32910	32700	
4742	0	32794	32786	
4743	0	32780	32802	
4744	0	32764	32775	
4745	0	32838	32725	
4746	0	32788	32692	
4747	0	32800	32775	
4748	0	32876	32756	
4749	0	32808	32754	
4750	0	32820	32775	
4751	0	32774	32694	
4752	0	32836	32710	
4753	0	32788	32748	
4754	0	32814	32775	
4755	0	32772	32726	
4756	0	32836	32764	
4757	0	32798	32796	
4758	0	32802	32794	
4759	0	32816	32824	
4760	0	32808	32742	
4761	0	32776	32824	
4762	0	32768	32704	
4763	0	32792	32820	
4764	0	32856	32666	
4765	0	32798	32831	
4766	0	32800	32790	
4767	0	32790	32858	
4768	0	32876	32775	
4769	0	32748	32870	
4770	0	32836	32812	
4771	0	32812	32696	
4772	0	32792	32686	
4773	0	32848	32772	
4774	0	32826	32788	
4775	0	32804	32798	
4776	0	32764	32722	
4777	0	32812	32798	
4778	0	32836	32676	
4779	0	32764	32774	
4780	0	32828	32693	
4781	0	32794	32774	
4782	0	32878	32696	
4783	0	32876	32814	
4784	0	32822	32834	
4785	0	32868	32770	
4786	0	32756	32836	
4787	0	32772	32716	
4788	0	32856	32638	
4789	0	32808	32604	
4790	0	32836	32646	
4791	0	32856	32700	
4792	0	32816	32839	
4793	0	32784	32767	
4794	0	32802	32818	
4795	0	32748	32788	
4796	0	32810	32884	
4797	0	32830	32740	
4798	0	32868	32743	
4799	0	32728	32711	
4800	0	32810	32854	
4801	0	32828	32775	
4802	0	32848	32798	
4803	0	32868	32810	
4804	0	32890	32814	
4805	0	32840	32902	
4806	0	32816	32864	
4807	0	32764	32710	
4808	0	32718	32708	
4809	0	32820	32654	
4810	0	32824	32732	
4811	0	32794	32706	
4812	0	32784	32740	
4813	0	32814	32700	
4814	0	32808	32719	
4815	0	32788	32830	
4816	0	32784	32836	
4817	0	32892	32775	
4818	0	32756	32762	
4819	0	32770	32640	
4820	0	32844	32708	
4821	0	32854	32690	
4822	0	32716	32865	
4823	0	32808	32694	
4824	0	32824	32646	
4825	0	32832	32774	
4826	0	32794	32836	
4827	0	32862	32920	
4828	0	32772	32828	
4829	0	32826	32754	
4830	0	32768	32734	
4831	0	32780	32760	
4832	0	32864	32786	
4833	0	32766	32860	
4834	0	32774	32772	
4835	0	32856	32838	
4836	0	32800	32903	
4837	0	32821	32762	
4838	0	32870	32770	
4839	0	32872	32775	
4840	0	32796	32752	
4841	0	32836	32884	
4842	0	32832	32831	
4843	0	32830	32838	
4844	0	32778	32839	
4845	0	32796	32766	
4846	0	32812	32666	
4847	0	32828	32754	
4848	0	32780	32740	
4849	0	32850	32820	
4850	0	32820	32710	
4851	0	32832	32750	
4852	0	32802	32788	
4853	0	32812	32800	
4854	0	32858	32668	
4855	0	32832	32792	
4856	0	32826	32756	
4857	0	32772	32736	
4858	0	32794	32752	
4859	0	32848	32838	
4860	0	32820	32646	
4861	0	32832	32682	
4862	0	32800	32678	
4863	0	32754	32842	
4864	0	32820	32743	
4865	0	32776	32764	
4866	0	32824	32810	
4867	0	32824	32871	
4868	0	32810	32770	
4869	0	32792	32732	
4870	0	32792	32770	
4871	0	32872	32812	
4872	0	32820	32823	
4873	0	32778	32888	
4874	0	32802	32702	
4875	0	32842	32736	
4876	0	32832	32944	
4877	0	32830	32820	
4878	0	32852	32804	
4879	0	32830	32848	
4880	0	32810	32876	
4881	0	32832	32756	
4882	0	32774	32624	
4883	0	32848	32734	
4884	0	32844	32736	
4885	0	32732	32788	
4886	0	32844	32801	
4887	0	32728	32715	
4888	0	32774	32738	
4889	0	32748	32702	
4890	0	32864	32708	
4891	0	32776	32806	
4892	0	32856	32840	
4893	0	32906	32852	
4894	0	32832	32807	
4895	0	32860	32810	
4896	0	32846	32775	
4897	0	32784	32882	
4898	0	32860	32780	
4899	0	32834	32728	
4900	0	32832	32715	
4901	0	32821	32736	
4902	0	32816	32796	
4903	0	32756	32814	
4904	0	32828	32728	
4905	0	32796	32842	
4906	0	32784	32862	
4907	0	32802	32734	
4908	0	32832	32729	
4909	0	32792	32924	
4910	0	32784	32871	
4911	0	32826	32804	
4912	0	32862	32826	
4913	0	32848	32716	
4914	0	32892	32757	
4915	0	32856	32834	
4916	0	32856	32634	
4917	0	32824	32679	
4918	0	32852	32686	
4919	0	32928	32672	
4920	0	32866	32668	
4921	0	32882	32692	
4922	0	32892	32680	
4923	0	32908	32560	
4924	0	32884	32352	
4925	0	32816	32414	
4926	0	32844	32518	
4927	0	32898	32476	
4928	0	32950	32380	
4929	0	32840	32344	
4930	0	32808	32468	
4931	0	32882	32519	
4932	0	32896	32575	
4933	0	32900	32450	
4934	0	32832	32518	
4935	0	32820	32579	
4936	0	32782	32519	
4937	0	32826	32638	
4938	0	32698	32864	
4939	0	32682	33114	
4940	0	32652	33342	
4941	0	32566	33650	
4942	0	32488	33722	
4943	0	32494	33784	
4944	0	32518	33980	
4945	0	32532	33904	
4946	0	32496	33812	
4947	0	32596	33798	
4948	0	32620	33732	
4949	0	32688	33500	
4950	0	32764	33178	
4951	0	32736	32994	
4952	0	32794	32775	
4953	0	32884	32568	
4954	0	32860	32564	
4955	0	32832	32424	
4956	0	32910	32308	
4957	0	32928	32260	
4958	0	32942	32174	
4959	0	32944	32148	
4960	0	32984	32263	
4961	0	32928	32230	
4962	0	32900	32284	
4963	0	32968	32482	
4964	0	32988	32398	
4965	0	32864	32380	
4966	0	32940	32399	
4967	0	32920	32480	
4968	0	32840	32500	
4969	0	32866	32472	
4970	0	32858	32594	
4971	0	32892	32730	
4972	0	32850	32644	
4973	0	32856	32646	
4974	0	32884	32700	
4975	0	32918	32788	
4976	0	32868	32897	
4977	0	32906	32928	
4978	0	32868	32876	
4979	0	32860	32854	
4980	0	32806	32902	
4981	0	32868	32967	
4982	0	32724	32836	
4983	0	32848	32934	
4984	0	32760	32916	
4985	0	32846	32896	
4986	0	32774	32858	
4987	0	32816	32743	
4988	0	32838	32912	
4989	0	32825	32804	
4990	0	32800	32775	
4991	0	32736	32800	
4992	0	32784	32788	
4993	0	32720	32766	
4994	0	32818	32824	
4995	0	32828	32744	
4996	0	32786	32788	
4997	0	32812	32846	
4998	0	32784	32680	
4999	0	32800	32708	
5000	0	32840	32728	
5001	0	32804	32702	
5002	0	32778	32807	
5003	0	32784	32754	
5004	0	32728	32642	
5005	0	32852	32744	
5006	0	32884	32870	
5007	0	32856	32744	
5008	0	32804	32734	
5009	0	32808	32775	
5010	0	32842	32814	
5011	0	32760	32703	
5012	0	32764	32764	
5013	0	32772	32686	
5014	0	32796	32700	
5015	0	32804	32722	
5016	0	32810	32762	
5017	0	32768	32775	
5018	0	32788	32758	
5019	0	32782	32662	
5020	0	32812	32808	
5021	0	32788	32712	
5022	0	32832	32822	
5023	0	32824	32860	
5024	0	32816	32684	
5025	0	32740	32803	
5026	0	32804	32786	
5027	0	32806	32696	
5028	0	32876	32812	
5029	0	32808	32804	
5030	0	32836	32678	
5031	0	32772	32660	
5032	0	32818	32828	
5033	0	32852	32804	
5034	0	32784	32818	
5035	0	32806	32832	
5036	0	32868	32772	
5037	0	32868	32766	
5038	0	32800	32926	
5039	0	32758	32775	
5040	0	32856	32826	
5041	0	32832	32750	
5042	0	32820	32680	
5043	0	32828	32704	
5044	0	32868	32866	
5045	0	32884	32775	
5046	0	32792	32756	
5047	0	32784	32770	
5048	0	32806	32838	
5049	0	32836	32808	
5050	0	32772	32738	
5051	0	32800	32784	
5052	0	32798	32739	
5053	0	32784	32850	
5054	0	32752	32752	
5055	0	32864	32844	
5056	0	32808	32736	
5057	0	32844	32714	
5058	0	32812	32790	
5059	0	32844	32828	
5060	0	32828	32786	
5061	0	32826	32824	
5062	0	32786	32712	
5063	0	32828	32652	
5064	0	32872	32685	
5065	0	32772	32639	
5066	0	32820	32721	
5067	0	32764	32768	
5068	0	32820	32815	
5069	0	32748	32751	
5070	0	32832	32740	
5071	0	32788	32710	
5072	0	32836	32816	
5073	0	32872	32870	
5074	0	32788	32823	
5075	0	32780	32860	
5076	0	32826	32692	
5077	0	32824	32854	
5078	0	32820	32828	
5079	0	32816	32775	
5080	0	32815	32876	
5081	0	32802	32711	
5082	0	32916	32674	
5083	0	32896	32692	
5084	0	32775	32674	
5085	0	32830	32814	
5086	0	32796	32844	
5087	0	32814	32798	
5088	0	32834	32816	
5089	0	32740	32804	
5090	0	32832	32822	
5091	0	32828	32742	
5092	0	32808	32724	
5093	0	32796	32966	
5094	0	32752	32769	
5095	0	32854	32720	
5096	0	32760	32788	
5097	0	32804	32806	
5098	0	32806	32638	
5099	0	32824	32676	
5100	0	32824	32774	
5101	0	32840	32775	
5102	0	32824	32752	
5103	0	32840	32664	
5104	0	32836	32734	
5105	0	32876	32686	
5106	0	32800	32639	
5107	0	32808	32655	
5108	0	32808	32871	
5109	0	32792	32817	
5110	0	32820	32792	
5111	0	32784	32808	
5112	0	32784	32844	
5113	0	32774	32871	
5114	0	32860	32774	
5115	0	32856	32839	
5116	0	32756	32902	
5117	0	32852	32855	
5118	0	32826	32858	
5119	0	32864	32762	
5120	0	32840	32830	
5121	0	32868	32792	
5122	0	32800	32706	
5123	0	32824	32668	
5124	0	32756	32842	
5125	0	32878	32743	
5126	0	32756	32712	
5127	0	32764	32804	
5128	0	32852	32844	
5129	0	32828	32900	
5130	0	32780	32748	
5131	0	32850	32784	
5132	0	32792	32730	
5133	0	32870	32700	
5134	0	32830	32758	
5135	0	32826	32775	
5136	0	32764	32764	
5137	0	32804	32734	
5138	0	32842	32758	
5139	0	32800	32774	
5140	0	32828	32734	
5141	0	32842	32742	
5142	0	32772	32748	
5143	0	32768	32690	
5144	0	32752	32732	
5145	0	32801	32730	
5146	0	32806	32632	
5147	0	32772	32860	
5148	0	32761	32775	
5149	0	32866	32764	
5150	0	32834	32740	
5151	0	32826	32800	
5152	0	32840	32820	
5153	0	32830	32692	
5154	0	32792	32796	
5155	0	32820	32807	
5156	0	32846	32732	
5157	0	32798	32710	
5158	0	32746	32741	
5159	0	32806	32788	
5160	0	32800	32806	
5161	0	32852	32801	
5162	0	32816	32748	
5163	0	32768	32760	
5164	0	32780	32768	
5165	0	32764	32926	
5166	0	32764	32844	
5167	0	32804	32874	
5168	0	32904	32911	
5169	0	32810	32774	
5170	0	32870	32784	
5171	0	32826	32774	
5172	0	32782	32731	
5173	0	32832	32740	
5174	0	32818	32770	
5175	0	32780	32786	
5176	0	32918	32760	
5177	0	32844	32825	
5178	0	32866	32782	
5179	0	32750	32810	
5180	0	32834	32858	
5181	0	32776	32796	
5182	0	32788	32730	
5183	0	32790	32676	
5184	0	32796	32714	
5185	0	32776	32711	
5186	0	32800	32743	
5187	0	32848	32800	
5188	0	32724	32775	
5189	0	32824	32764	
5190	0	32766	32822	
5191	0	32794	32837	
5192	0	32794	32900	
5193	0	32852	32775	
5194	0	32828	32742	
5195	0	32828	32728	
5196	0	32864	32647	
5197	0	32856	32624	
5198	0	32816	32758	
5199	0	32804	32871	
5200	0	32800	32774	
5201	0	32916	32772	
5202	0	32824	32794	
5203	0	32828	32854	
5204	0	32876	32860	
5205	0	32820	32952	
5206	0	32778	32838	
5207	0	32884	32775	
5208	0	32798	32775	
5209	0	32824	32684	
5210	0	32832	32718	
5211	0	32808	32694	
5212	0	32842	32720	
5213	0	32888	32740	
5214	0	32808	32746	
5215	0	32844	32774	
5216	0	32828	32720	
5217	0	32820	32612	
5218	0	32860	32582	
5219	0	32802	32666	
5220	0	32788	32756	
5221	0	32728	32743	
5222	0	32852	32708	
5223	0	32816	32802	
5224	0	32744	32876	
5225	0	32824	32841	
5226	0	32764	32790	
5227	0	32824	32802	
5228	0	32868	32736	
5229	0	32888	32752	
5230	0	32810	32844	
5231	0	32794	32774	
5232	0	32840	32807	
5233	0	32836	32704	
5234	0	32896	32664	
5235	0	32782	32684	
5236	0	32798	32732	
5237	0	32800	32742	
5238	0	32748	32660	
5239	0	32804	32647	
5240	0	32772	32710	
5241	0	32804	32746	
5242	0	32792	32834	
5243	0	32778	32860	
5244	0	32868	32770	
5245	0	32868	32844	
5246	0	32752	32901	
5247	0	32884	32862	
5248	0	32830	32862	
5249	0	32796	32896	
5250	0	32766	32912	
5251	0	32791	32952	
5252	0	32788	32798	
5253	0	32832	32644	
5254	0	32868	32730	
5255	0	32826	32692	
5256	0	32798	32708	
5257	0	32856	32720	
5258	0	32774	32792	
5259	0	32826	32668	
5260	0	32772	32678	
5261	0	32808	32758	
5262	0	32756	32676	
5263	0	32816	32764	
5264	0	32826	32808	
5265	0	32722	32750	
5266	0	32880	32832	
5267	0	32786	32885	
5268	0	32830	32864	
5269	0	32778	32775	
5270	0	32844	32762	
5271	0	32856	32756	
5272	0	32848	32770	
5273	0	32884	32824	
5274	0	32866	32846	
5275	0	32810	32841	
5276	0	32858	32886	
5277	0	32836	32847	
5278	0	32804	32882	
5279	0	32856	32775	
5280	0	32830	32700	
5281	0	32856	32714	
5282	0	32870	32668	
5283	0	32782	32811	
5284	0	32776	32726	
5285	0	32854	32718	
5286	0	32724	32760	
5287	0	32704	32703	
5288	0	32866	32740	
5289	0	32832	32716	
5290	0	32744	32775	
5291	0	32830	32712	
5292	0	32784	32708	
5293	0	32828	32750	
5294	0	32798	32802	
5295	0	32872	32807	
5296	0	32856	32858	
5297	0	32830	32902	
5298	0	32756	32868	
5299	0	32848	32743	
5300	0	32774	32708	
5301	0	32820	32775	
5302	0	32856	32702	
5303	0	32788	32654	
5304	0	32854	32663	
5305	0	32856	32630	
5306	0	32774	32820	
5307	0	32832	32711	
5308	0	32800	32710	
5309	0	32824	32710	
5310	0	32808	32832	
5311	0	32810	32732	
5312	0	32766	32828	
5313	0	32817	32841	
5314	0	32830	32839	
5315	0	32778	32742	
5316	0	32762	32746	
5317	0	32828	32830	
5318	0	32812	32886	
5319	0	32782	32840	
5320	0	32844	32910	
5321	0	32728	32775	
5322	0	32796	32598	
5323	0	32800	32708	
5324	0	32816	32622	
5325	0	32868	32647	
5326	0	32820	32806	
5327	0	32752	32624	
5328	0	32832	32734	
5329	0	32798	32812	
5330	0	32804	32756	
5331	0	32780	32838	
5332	0	32830	32782	
5333	0	32820	32788	
5334	0	32812	32790	
5335	0	32794	32646	
5336	0	32786	32690	
5337	0	32780	32793	
5338	0	32768	32752	
5339	0	32860	32774	
5340	0	32796	32764	
5341	0	32792	32814	
5342	0	32784	32790	
5343	0	32832	32640	
5344	0	32868	32591	
5345	0	32804	32644	
5346	0	32872	32654	
5347	0	32872	32726	
5348	0	32824	32758	
5349	0	32824	32830	
5350	0	32868	32762	
5351	0	32834	32740	
5352	0	32740	32743	
5353	0	32824	32792	
5354	0	32840	32860	
5355	0	32788	32830	
5356	0	32796	32638	
5357	0	32754	32740	
5358	0	32824	32820	
5359	0	32854	32775	
5360	0	32828	32846	
5361	0	32868	32858	
5362	0	32776	32752	
5363	0	32858	32694	
5364	0	32798	32759	
5365	0	32856	32790	
5366	0	32814	32855	
5367	0	32730	32758	
5368	0	32788	32732	
5369	0	32774	32735	
5370	0	32796	32775	
5371	0	32806	32714	
5372	0	32852	32766	
5373	0	32786	32910	
5374	0	32850	32891	
5375	0	32864	32936	
5376	0	32872	32850	
5377	0	32852	32796	
5378	0	32820	32756	
5379	0	32840	32794	
5380	0	32852	32740	
5381	0	32804	32701	
5382	0	32818	32687	
5383	0	32746	32707	
5384	0	32838	32756	
5385	0	32794	32620	
5386	0	32838	32734	
5387	0	32768	32692	
5388	0	32814	32737	
5389	0	32820	32818	
5390	0	32812	32850	
5391	0	32802	32790	
5392	0	32794	32756	
5393	0	32804	32702	
5394	0	32776	32688	
5395	0	32820	32686	
5396	0	32752	32708	
5397	0	32826	32664	
5398	0	32808	32684	
5399	0	32808	32718	
5400	0	32862	32830	
5401	0	32884	32838	
5402	0	32860	32871	
5403	0	32796	32775	
5404	0	32816	32888	
5405	0	32800	32732	
5406	0	32824	32702	
5407	0	32816	32666	
5408	0	32848	32789	
5409	0	32740	32768	
5410	0	32720	32744	
5411	0	32816	32836	
5412	0	32764	32696	
5413	0	32868	32694	
5414	0	32800	32798	
5415	0	32840	32762	
5416	0	32740	32798	
5417	0	32796	32801	
5418	0	32756	32836	
5419	0	32770	32788	
5420	0	32818	32736	
5421	0	32812	32712	
5422	0	32848	32806	
5423	0	32800	32775	
5424	0	32810	32838	
5425	0	32813	32800	
5426	0	32782	32890	
5427	0	32782	32844	
5428	0	32822	32754	
5429	0	32812	32624	
5430	0	32766	32654	
5431	0	32886	32806	
5432	0	32804	32798	
5433	0	32758	32836	
5434	0	32832	32766	
5435	0	32800	32734	
5436	0	32796	32644	
5437	0	32774	32634	
5438	0	32834	32734	
5439	0	32844	32730	
5440	0	32860	32896	
5441	0	32836	32782	
5442	0	32836	32751	
5443	0	32822	32800	
5444	0	32834	32682	
5445	0	32828	32768	
5446	0	32840	32692	
5447	0	32832	32712	
5448	0	32812	32708	
5449	0	32800	32674	
5450	0	32762	32768	
5451	0	32744	32900	
5452	0	32846	32786	
5453	0	32842	32864	
5454	0	32844	32868	
5455	0	32808	32832	
5456	0	32828	32866	
5457	0	32832	32775	
5458	0	32828	32764	
5459	0	32804	32804	
5460	0	32812	32766	
5461	0	32808	32686	
5462	0	32824	32732	
5463	0	32770	32870	
5464	0	32822	32810	
5465	0	32788	32772	
5466	0	32752	32728	
5467	0	32834	32694	
5468	0	32870	32728	
5469	0	32800	32698	
5470	0	32832	32703	
5471	0	32804	32734	
5472	0	32778	32866	
5473	0	32804	32821	
5474	0	32728	32765	
5475	0	32864	32842	
5476	0	32764	32775	
5477	0	32868	32762	
5478	0	32812	32728	
5479	0	32852	32706	
5480	0	32828	32784	
5481	0	32810	32719	
5482	0	32836	32820	
5483	0	32832	32794	
5484	0	32816	32692	
5485	0	32834	32737	
5486	0	32850	32802	
5487	0	32754	32712	
5488	0	32762	32767	
5489	0	32772	32784	
5490	0	32834	32804	
5491	0	32804	32831	
5492	0	32856	32818	
5493	0	32834	32728	
5494	0	32828	32712	
5495	0	32828	32704	
5496	0	32826	32806	
5497	0	32800	32812	
5498	0	32840	32834	
5499	0	32776	32886	
5500	0	32832	32844	
5501	0	32784	32798	
5502	0	32834	32854	
5503	0	32816	32798	
5504	0	32794	32678	
5505	0	32740	32666	
5506	0	32852	32720	
5507	0	32784	32706	
5508	0	32814	32728	
5509	0	32756	32802	
5510	0	32788	32684	
5511	0	32814	32678	
5512	0	32780	32726	
5513	0	32856	32638	
5514	0	32848	32766	
5515	0	32882	32828	
5516	0	32874	32868	
5517	0	32876	32698	
5518	0	32870	32679	
5519	0	32924	32644	
5520	0	32916	32678	
5521	0	32944	32668	
5522	0	32854	32618	
5523	0	32820	32496	
5524	0	32914	32494	
5525	0	32892	32448	
5526	0	32908	32414	
5527	0	32824	32316	
5528	0	32840	32326	
5529	0	32848	32398	
5530	0	32892	32543	
5531	0	32846	32399	
5532	0	32852	32398	
5533	0	32840	32519	
5534	0	32798	32474	
5535	0	32792	32658	
5536	0	32714	32692	
5537	0	32704	32926	
5538	0	32632	33200	
5539	0	32636	33564	
5540	0	32568	33783	
5541	0	32572	33863	
5542	0	32536	34038	
5543	0	32500	34082	
5544	0	32572	34055	
5545	0	32632	34055	
5546	0	32612	33896	
5547	0	32644	33586	
5548	0	32728	33244	
5549	0	32802	33036	
5550	0	32776	32916	
5551	0	32856	32678	
5552	0	32858	32544	
5553	0	32874	32492	
5554	0	32868	32324	
5555	0	32836	32176	
5556	0	32916	32092	
5557	0	32872	32040	
5558	0	32964	32070	
5559	0	33006	32065	
5560	0	32898	32154	
5561	0	32936	32208	
5562	0	32922	32378	
5563	0	32934	32360	
5564	0	32892	32428	
5565	0	32956	32400	
5566	0	32900	32438	
5567	0	32808	32453	
5568	0	32788	32500	
5569	0	32850	32620	
5570	0	32860	32644	
5571	0	32840	32775	
5572	0	32844	32842	
5573	0	32844	32870	
5574	0	32892	32838	
5575	0	32952	32708	
5576	0	32816	32838	
5577	0	32888	32838	
5578	0	32804	32916	
5579	0	32848	32788	
5580	0	32804	32836	
5581	0	32808	32774	
5582	0	32866	32838	
5583	0	32848	32850	
5584	0	32776	32796	
5585	0	32802	32760	
5586	0	32766	32796	
5587	0	32748	32830	
5588	0	32760	32823	
5589	0	32748	32808	
5590	0	32784	32854	
5591	0	32790	32854	
5592	0	32770	32868	
5593	0	32814	32806	
5594	0	32738	32838	
5595	0	32772	32910	
5596	0	32792	32920	
5597	0	32884	32828	
5598	0	32822	32740	
5599	0	32840	32750	
5600	0	32856	32668	
5601	0	32762	32698	
5602	0	32760	32744	
5603	0	32806	32712	
5604	0	32772	32692	
5605	0	32806	32825	
5606	0	32752	32638	
5607	0	32820	32679	
5608	0	32796	32838	
5609	0	32756	32752	
5610	0	32818	32769	
5611	0	32804	32718	
5612	0	32840	32806	
5613	0	32782	32708	
5614	0	32874	32750	
5615	0	32780	32768	
5616	0	32808	32860	
5617	0	32764	32810	
5618	0	32816	32766	
5619	0	32806	32864	
5620	0	32844	32760	
5621	0	32821	32870	
5622	0	32812	32930	
5623	0	32812	32894	
5624	0	32756	32856	
5625	0	32840	32926	
5626	0	32840	32831	
5627	0	32868	32762	
5628	0	32838	32714	
5629	0	32796	32768	
5630	0	32804	32804	
5631	0	32878	32740	
5632	0	32814	32732	
5633	0	32800	32756	
5634	0	32790	32806	
5635	0	32796	32801	
5636	0	32768	32728	
5637	0	32800	32732	
5638	0	32836	32720	
5639	0	32834	32710	
5640	0	32796	32756	
5641	0	32812	32656	
5642	0	32842	32674	
5643	0	32768	32706	
5644	0	32744	32746	
5645	0	32908	32804	
5646	0	32832	32840	
5647	0	32912	32798	
5648	0	32802	32740	
5649	0	32894	32744	
5650	0	32782	32738	
5651	0	32792	32790	
5652	0	32856	32767	
5653	0	32780	32890	
5654	0	32798	32847	
5655	0	32852	32903	
5656	0	32822	32802	
5657	0	32775	32796	
5658	0	32764	32800	
5659	0	32788	32764	
5660	0	32788	32848	
5661	0	32910	32716	
5662	0	32804	32775	
5663	0	32798	32700	
5664	0	32768	32640	
5665	0	32720	32673	
5666	0	32790	32736	
5667	0	32802	32798	
5668	0	32804	32686	
5669	0	32852	32742	
5670	0	32868	32786	
5671	0	32804	32816	
5672	0	32832	32804	
5673	0	32816	32688	
5674	0	32750	32668	
5675	0	32830	32680	
5676	0	32804	32696	
5677	0	32792	32710	
5678	0	32768	32814	
5679	0	32804	32764	
5680	0	32808	32700	
5681	0	32825	32700	
5682	0	32800	32768	
5683	0	32756	32704	
5684	0	32836	32718	
5685	0	32804	32814	
5686	0	32786	32808	
5687	0	32800	32816	
5688	0	32752	32862	
5689	0	32872	32718	
5690	0	32816	32647	
5691	0	32794	32780	
5692	0	32798	32870	
5693	0	32822	32897	
5694	0	32840	32820	
5695	0	32854	32810	
5696	0	32788	32786	
5697	0	32810	32736	
5698	0	32770	32807	
5699	0	32812	32766	
5700	0	32808	32791	
5701	0	32796	32878	
5702	0	32834	32836	
5703	0	32749	32855	
5704	0	32858	32772	
5705	0	32768	32644	
5706	0	32796	32682	
5707	0	32772	32666	
5708	0	32862	32684	
5709	0	32788	32706	
5710	0	32808	32638	
5711	0	32836	32836	
5712	0	32816	32839	
5713	0	32836	32842	
5714	0	32808	32768	
5715	0	32865	32802	
5716	0	32844	32748	
5717	0	32874	32814	
5718	0	32808	32772	
5719	0	32802	32810	
5720	0	32800	32818	
5721	0	32854	32736	
5722	0	32810	32775	
5723	0	32816	32759	
5724	0	32808	32735	
5725	0	32756	32694	
5726	0	32812	32727	
5727	0	32800	32836	
5728	0	32820	32854	
5729	0	32800	32714	
5730	0	32830	32664	
5731	0	32804	32763	
5732	0	32828	32692	
5733	0	32902	32678	
5734	0	32812	32748	
5735	0	32804	32736	
5736	0	32824	32858	
5737	0	32836	32775	
5738	0	32856	32839	
5739	0	32812	32850	
5740	0	32820	32836	
5741	0	32832	32800	
5742	0	32860	32688	
5743	0	32930	32742	
5744	0	32850	32696	
5745	0	32812	32804	
5746	0	32810	32810	
5747	0	32732	32814	
5748	0	32808	32828	
5749	0	32832	32814	
5750	0	32766	32684	
5751	0	32764	32766	
5752	0	32848	32730	
5753	0	32740	32872	
5754	0	32740	32839	
5755	0	32742	32746	
5756	0	32796	32762	
5757	0	32832	32798	
5758	0	32804	32672	
5759	0	32828	32743	
5760	0	32834	32735	
5761	0	32812	32839	
5762	0	32798	32774	
5763	0	32756	32740	
5764	0	32780	32886	
5765	0	32772	32775	
5766	0	32784	32704	
5767	0	32780	32679	
5768	0	32756	32754	
5769	0	32774	32720	
5770	0	32814	32704	
5771	0	32792	32696	
5772	0	32780	32775	
5773	0	32784	32775	
5774	0	32780	32734	
5775	0	32868	32710	
5776	0	32874	32806	
5777	0	32830	32774	
5778	0	32756	32764	
5779	0	32856	32690	
5780	0	32774	32718	
5781	0	32793	32711	
5782	0	32804	32758	
5783	0	32792	32814	
5784	0	32764	32800	
5785	0	32828	32764	
5786	0	32808	32756	
5787	0	32836	32764	
5788	0	32876	32759	
5789	0	32762	32798	
5790	0	32770	32810	
5791	0	32846	32774	
5792	0	32864	32774	
5793	0	32774	32830	
5794	0	32772	32820	
5795	0	32864	32748	
5796	0	32812	32796	
5797	0	32724	32865	
5798	0	32804	32850	
5799	0	32816	32738	
5800	0	32846	32786	
5801	0	32770	32752	
5802	0	32768	32644	
5803	0	32852	32711	
5804	0	32808	32858	
5805	0	32828	32768	
5806	0	32904	32724	
5807	0	32820	32636	
5808	0	32816	32775	
5809	0	32854	32714	
5810	0	32844	32790	
5811	0	32792	32743	
5812	0	32848	32742	
5813	0	32864	32647	
5814	0	32840	32716	
5815	0	32856	32828	
5816	0	32840	32775	
5817	0	32816	32786	
5818	0	32784	32798	
5819	0	32824	32794	
5820	0	32820	32882	
5821	0	32764	32826	
5822	0	32754	32903	
5823	0	32790	32852	
5824	0	32844	32800	
5825	0	32796	32766	
5826	0	32882	32721	
5827	0	32820	32766	
5828	0	32844	32775	
5829	0	32772	32798	
5830	0	32864	32707	
5831	0	32878	32840	
5832	0	32804	32730	
5833	0	32792	32640	
5834	0	32800	32660	
5835	0	32752	32659	
5836	0	32740	32663	
5837	0	32688	32734	
5838	0	32828	32650	
5839	0	32810	32708	
5840	0	32788	32848	
5841	0	32860	32866	
5842	0	32808	32750	
5843	0	32856	32735	
5844	0	32834	32834	
5845	0	32802	32906	
5846	0	32788	32800	
5847	0	32778	32858	
5848	0	32824	32806	
5849	0	32832	32679	
5850	0	32782	32722	
5851	0	32822	32694	
5852	0	32732	32684	
5853	0	32804	32728	
5854	0	32760	32655	
5855	0	32842	32678	
5856	0	32776	32690	
5857	0	32828	32670	
5858	0	32842	32706	
5859	0	32824	32716	
5860	0	32753	32692	
5861	0	32798	32676	
5862	0	32796	32804	
5863	0	32816	32700	
5864	0	32820	32678	
5865	0	32834	32679	
5866	0	32850	32700	
5867	0	32784	32671	
5868	0	32816	32726	
5869	0	32796	32684	
5870	0	32832	32668	
5871	0	32850	32690	
5872	0	32844	32764	
5873	0	32780	32812	
5874	0	32850	32806	
5875	0	32860	32822	
5876	0	32878	32746	
5877	0	32852	32732	
5878	0	32846	32802	
5879	0	32840	32818	
5880	0	32822	32792	
5881	0	32790	32742	
5882	0	32856	32871	
5883	0	32812	32806	
5884	0	32766	32708	
5885	0	32816	32740	
5886	0	32796	32708	
5887	0	32788	32870	
5888	0	32824	32764	
5889	0	32756	32784	
5890	0	32800	32764	
5891	0	32792	32856	
5892	0	32874	32775	
5893	0	32772	32852	
5894	0	32796	32888	
5895	0	32820	32818	
5896	0	32798	32722	
5897	0	32760	32860	
5898	0	32816	32732	
5899	0	32808	32732	
5900	0	32820	32684	
5901	0	32826	32704	
5902	0	32808	32720	
5903	0	32856	32606	
5904	0	32868	32676	
5905	0	32860	32689	
5906	0	32824	32708	
5907	0	32816	32788	
5908	0	32868	32798	
5909	0	32804	32760	
5910	0	32730	32801	
5911	0	32810	32804	
5912	0	32760	32738	
5913	0	32768	32667	
5914	0	32792	32816	
5915	0	32810	32840	
5916	0	32836	32828	
5917	0	32864	32824	
5918	0	32816	32828	
5919	0	32832	32774	
5920	0	32780	32796	
5921	0	32830	32766	
5922	0	32810	32676	
5923	0	32752	32824	
5924	0	32828	32726	
5925	0	32816	32791	
5926	0	32728	32729	
5927	0	32780	32775	
5928	0	32776	32752	
5929	0	32818	32726	
5930	0	32788	32832	
5931	0	32862	32714	
5932	0	32862	32726	
5933	0	32792	32702	
5934	0	32798	32775	
5935	0	32832	32848	
5936	0	32796	32796	
5937	0	32846	32724	
5938	0	32776	32708	
5939	0	32820	32768	
5940	0	32816	32714	
5941	0	32844	32716	
5942	0	32878	32692	
5943	0	32842	32770	
5944	0	32804	32838	
5945	0	32868	32865	
5946	0	32840	32788	
5947	0	32808	32836	
5948	0	32744	32766	
5949	0	32836	32764	
5950	0	32772	32679	
5951	0	32816	32687	
5952	0	32808	32704	
5953	0	32838	32710	
5954	0	32886	32724	
5955	0	32868	32670	
5956	0	32812	32792	
5957	0	32732	32870	
5958	0	32780	32756	
5959	0	32790	32738	
5960	0	32836	32714	
5961	0	32788	32757	
5962	0	32772	32790	
5963	0	32760	32742	
5964	0	32848	32762	
5965	0	32864	32707	
5966	0	32816	32832	
5967	0	32804	32784	
5968	0	32830	32694	
5969	0	32826	32680	
5970	0	32776	32814	
5971	0	32802	32772	
5972	0	32793	32728	
5973	0	32732	32782	
5974	0	32788	32830	
5975	0	32774	32823	
5976	0	32776	32824	
5977	0	32806	32710	
5978	0	32796	32751	
5979	0	32792	32684	
5980	0	32894	32682	
5981	0	32820	32732	
5982	0	32810	32706	
5983	0	32848	32678	
5984	0	32856	32852	
5985	0	32868	32742	
5986	0	32832	32816	
5987	0	32808	32761	
5988	0	32842	32804	
5989	0	32764	32782	
5990	0	32824	32694	
5991	0	32794	32719	
5992	0	32840	32796	
5993	0	32816	32786	
5994	0	32792	32822	
5995	0	32804	32756	
5996	0	32848	32742	
5997	0	32834	32750	
5998	0	32896	32775	
5999	0	32860	32682	
6000	0	32844	32674	
6001	0	32820	32630	
6002	0	32816	32672	
6003	0	32864	32738	
6004	0	32758	32700	
6005	0	32752	32708	
6006	0	32816	32838	
6007	0	32738	32764	
6008	0	32792	32798	
6009	0	32798	32815	
6010	0	32826	32818	
6011	0	32792	32772	
6012	0	32752	32814	
