# OpenSignals Text File Format. Version 1
# {"00:07:80:8C:0A:39": {"position": 0, "device": "biosignalsplux", "device name": "00:07:80:8C:0A:39", "device connection": "BTH00:07:80:8C:0A:39", "sampling rate": 1000, "resolution": [16, 16], "firmware version": 776, "comments": "", "keywords": "", "mode": 0, "sync interval": 2, "date": "2023-3-17", "time": "15:11:55.987", "channels": [1, 2], "sensor": ["EMG", "EMG"], "label": ["CH1", "CH2"], "column": ["nSeq", "DI", "CH1", "CH2"], "special": [{"SpO2": [80, 40, 5, 4, 3, 3]}, {"SpO2": [80, 40, 5, 4, 3, 3]}, {"SpO2": [80, 40, 5, 4, 3, 3]}, {"SpO2": [80, 40, 5, 4, 3, 3]}, {"SpO2": [80, 40, 5, 4, 3, 3]}, {"SpO2": [80, 40, 5, 4, 3, 3]}, {"SpO2": [80, 40, 5, 4, 3, 3]}, {"SpO2": [80, 40, 5, 4, 3, 3]}], "digital IO": [0, 1], "sleeve color": ["gray", "yellow"], "convertedValues": 0}}
# EndOfHeader
0	0	32856	32804	
1	0	32878	32792	
2	0	32764	32862	
3	0	32810	32820	
4	0	32740	32686	
5	0	32864	32842	
6	0	32868	32842	
7	0	32764	32704	
8	0	32800	32614	
9	0	32834	32800	
10	0	32740	32766	
11	0	32794	32806	
12	0	32832	32678	
13	0	32798	32757	
14	0	32746	32770	
15	0	32830	32874	
16	0	32860	32732	
17	0	32826	32700	
18	0	32840	32856	
19	0	32824	32702	
20	0	32842	32775	
21	0	32830	32732	
22	0	32906	32682	
23	0	32788	32704	
24	0	32800	32842	
25	0	32802	32751	
26	0	32834	32818	
27	0	32834	32818	
28	0	32820	32762	
29	0	32880	32752	
30	0	32816	32700	
31	0	32812	32792	
32	0	32784	32850	
33	0	32752	32723	
34	0	32830	32842	
35	0	32760	32747	
36	0	32808	32880	
37	0	32849	32734	
38	0	32840	32786	
39	0	32840	32714	
40	0	32852	32748	
41	0	32849	32698	
42	0	32760	32800	
43	0	32796	32743	
44	0	32800	32775	
45	0	32780	32720	
46	0	32816	32844	
47	0	32868	32770	
48	0	32720	32775	
49	0	32848	32728	
50	0	32820	32666	
51	0	32840	32774	
52	0	32792	32771	
53	0	32762	32662	
54	0	32810	32784	
55	0	32826	32808	
56	0	32796	32754	
57	0	32820	32750	
58	0	32878	32830	
59	0	32804	32860	
60	0	32780	32703	
61	0	32788	32815	
62	0	32890	32774	
63	0	32846	32775	
64	0	32852	32706	
65	0	32796	32754	
66	0	32828	32846	
67	0	32790	32672	
68	0	32832	32808	
69	0	32824	32796	
70	0	32846	32682	
71	0	32762	32650	
72	0	32776	32772	
73	0	32852	32810	
74	0	32848	32710	
75	0	32802	32806	
76	0	32788	32820	
77	0	32852	32639	
78	0	32808	32898	
79	0	32816	32743	
80	0	32844	32798	
81	0	32840	32762	
82	0	32840	32743	
83	0	32820	32816	
84	0	32732	32712	
85	0	32738	32758	
86	0	32832	32784	
87	0	32814	32736	
88	0	32760	32751	
89	0	32870	32868	
90	0	32762	32687	
91	0	32812	32775	
92	0	32788	32742	
93	0	32812	32703	
94	0	32810	32850	
95	0	32768	32680	
96	0	32852	32758	
97	0	32824	32804	
98	0	32833	32774	
99	0	32812	32764	
100	0	32776	32756	
101	0	32834	32678	
102	0	32842	32822	
103	0	32792	32752	
104	0	32796	32770	
105	0	32816	32810	
106	0	32778	32702	
107	0	32810	32832	
108	0	32768	32866	
109	0	32806	32686	
110	0	32824	32652	
111	0	32810	32806	
112	0	32804	32832	
113	0	32810	32886	
114	0	32792	32762	
115	0	32746	32876	
116	0	32856	32684	
117	0	32804	32756	
118	0	32756	32856	
119	0	32868	32828	
120	0	32808	32760	
121	0	32788	32846	
122	0	32836	32658	
123	0	32860	32663	
124	0	32810	32766	
125	0	32864	32820	
126	0	32818	32800	
127	0	32878	32842	
128	0	32805	32734	
129	0	32868	32802	
130	0	32736	32770	
131	0	32798	32800	
132	0	32808	32724	
133	0	32740	32694	
134	0	32802	32784	
135	0	32852	32718	
136	0	32816	32688	
137	0	32752	32711	
138	0	32820	32800	
139	0	32852	32802	
140	0	32796	32871	
141	0	32740	32743	
142	0	32814	32678	
143	0	32840	32751	
144	0	32828	32764	
145	0	32814	32775	
146	0	32816	32710	
147	0	32840	32820	
148	0	32872	32832	
149	0	32796	32758	
150	0	32770	32756	
151	0	32770	32732	
152	0	32874	32811	
153	0	32784	32753	
154	0	32884	32812	
155	0	32792	32775	
156	0	32824	32870	
157	0	32764	32828	
158	0	32828	32771	
159	0	32884	32871	
160	0	32842	32658	
161	0	32838	32846	
162	0	32828	32848	
163	0	32800	32775	
164	0	32844	32775	
165	0	32740	32686	
166	0	32788	32796	
167	0	32764	32746	
168	0	32802	32854	
169	0	32800	32706	
170	0	32802	32862	
171	0	32792	32791	
172	0	32830	32774	
173	0	32828	32652	
174	0	32824	32742	
175	0	32800	32758	
176	0	32868	32768	
177	0	32768	32743	
178	0	32812	32798	
179	0	32820	32734	
180	0	32900	32732	
181	0	32740	32801	
182	0	32758	32775	
183	0	32832	32831	
184	0	32832	32704	
185	0	32800	32714	
186	0	32795	32758	
187	0	32852	32807	
188	0	32832	32774	
189	0	32816	32841	
190	0	32844	32716	
191	0	32720	32708	
192	0	32788	32839	
193	0	32740	32710	
194	0	32764	32852	
195	0	32870	32692	
196	0	32820	32698	
197	0	32820	32806	
198	0	32860	32840	
199	0	32732	32784	
200	0	32752	32694	
201	0	32784	32812	
202	0	32874	32800	
203	0	32788	32768	
204	0	32852	32803	
205	0	32740	32692	
206	0	32864	32876	
207	0	32792	32767	
208	0	32800	32856	
209	0	32780	32710	
210	0	32874	32726	
211	0	32788	32798	
212	0	32780	32764	
213	0	32848	32775	
214	0	32788	32732	
215	0	32824	32806	
216	0	32836	32852	
217	0	32832	32846	
218	0	32736	32730	
219	0	32820	32748	
220	0	32754	32724	
221	0	32812	32708	
222	0	32780	32764	
223	0	32836	32666	
224	0	32852	32748	
225	0	32804	32838	
226	0	32801	32770	
227	0	32808	32808	
228	0	32822	32821	
229	0	32792	32682	
230	0	32800	32693	
231	0	32900	32792	
232	0	32752	32734	
233	0	32776	32820	
234	0	32752	32704	
235	0	32792	32748	
236	0	32821	32758	
237	0	32884	32756	
238	0	32768	32796	
239	0	32772	32759	
240	0	32892	32716	
241	0	32824	32743	
242	0	32845	32878	
243	0	32816	32742	
244	0	32824	32760	
245	0	32830	32732	
246	0	32820	32716	
247	0	32780	32805	
248	0	32804	32744	
249	0	32828	32756	
250	0	32832	32886	
251	0	32784	32676	
252	0	32768	32688	
253	0	32824	32750	
254	0	32821	32742	
255	0	32828	32760	
256	0	32824	32742	
257	0	32896	32816	
258	0	32882	32862	
259	0	32848	32860	
260	0	32808	32754	
261	0	32816	32618	
262	0	32832	32775	
263	0	32796	32808	
264	0	32774	32800	
265	0	32844	32734	
266	0	32792	32703	
267	0	32814	32775	
268	0	32798	32754	
269	0	32872	32820	
270	0	32758	32712	
271	0	32782	32815	
272	0	32730	32796	
273	0	32786	32804	
274	0	32860	32798	
275	0	32820	32807	
276	0	32852	32772	
277	0	32794	32772	
278	0	32768	32823	
279	0	32852	32856	
280	0	32816	32766	
281	0	32764	32732	
282	0	32868	32732	
283	0	32748	32775	
284	0	32804	32700	
285	0	32798	32844	
286	0	32764	32668	
287	0	32848	32686	
288	0	32796	32804	
289	0	32820	32775	
290	0	32872	32750	
291	0	32753	32792	
292	0	32828	32746	
293	0	32848	32740	
294	0	32784	32766	
295	0	32748	32650	
296	0	32746	32832	
297	0	32820	32820	
298	0	32818	32706	
299	0	32788	32830	
300	0	32748	32750	
301	0	32808	32766	
302	0	32840	32820	
303	0	32870	32798	
304	0	32794	32706	
305	0	32830	32732	
306	0	32812	32714	
307	0	32850	32862	
308	0	32800	32660	
309	0	32826	32702	
310	0	32750	32794	
311	0	32752	32662	
312	0	32802	32834	
313	0	32806	32775	
314	0	32768	32800	
315	0	32853	32862	
316	0	32808	32799	
317	0	32818	32748	
318	0	32780	32740	
319	0	32808	32678	
320	0	32824	32884	
321	0	32810	32812	
322	0	32868	32806	
323	0	32840	32754	
324	0	32882	32712	
325	0	32816	32732	
326	0	32788	32696	
327	0	32750	32748	
328	0	32836	32860	
329	0	32776	32721	
330	0	32784	32704	
331	0	32854	32860	
332	0	32866	32860	
333	0	32832	32711	
334	0	32830	32775	
335	0	32796	32796	
336	0	32772	32768	
337	0	32856	32790	
338	0	32864	32692	
339	0	32814	32702	
340	0	32828	32775	
341	0	32834	32840	
342	0	32772	32670	
343	0	32814	32860	
344	0	32768	32724	
345	0	32824	32775	
346	0	32810	32705	
347	0	32814	32718	
348	0	32820	32876	
349	0	32784	32775	
350	0	32820	32832	
351	0	32792	32656	
352	0	32832	32860	
353	0	32818	32762	
354	0	32804	32839	
355	0	32782	32770	
356	0	32824	32698	
357	0	32762	32804	
358	0	32820	32850	
359	0	32844	32760	
360	0	32832	32760	
361	0	32788	32646	
362	0	32823	32824	
363	0	32790	32730	
364	0	32808	32762	
365	0	32824	32689	
366	0	32794	32682	
367	0	32756	32858	
368	0	32848	32775	
369	0	32782	32834	
370	0	32840	32694	
371	0	32842	32716	
372	0	32824	32760	
373	0	32846	32694	
374	0	32816	32850	
375	0	32709	32746	
376	0	32824	32732	
377	0	32802	32812	
378	0	32846	32775	
379	0	32816	32800	
380	0	32772	32742	
381	0	32836	32812	
382	0	32816	32847	
383	0	32804	32751	
384	0	32816	32808	
385	0	32834	32736	
386	0	32836	32740	
387	0	32792	32714	
388	0	32820	32846	
389	0	32800	32816	
390	0	32816	32702	
391	0	32854	32842	
392	0	32824	32831	
393	0	32752	32710	
394	0	32848	32812	
395	0	32778	32758	
396	0	32804	32648	
397	0	32808	32775	
398	0	32792	32766	
399	0	32788	32816	
400	0	32752	32686	
401	0	32880	32732	
402	0	32824	32798	
403	0	32836	32850	
404	0	32780	32658	
405	0	32775	32826	
406	0	32762	32794	
407	0	32836	32804	
408	0	32852	32723	
409	0	32796	32796	
410	0	32816	32682	
411	0	32750	32784	
412	0	32804	32688	
413	0	32810	32820	
414	0	32852	32750	
415	0	32800	32846	
416	0	32796	32807	
417	0	32800	32742	
418	0	32820	32820	
419	0	32768	32774	
420	0	32832	32875	
421	0	32840	32676	
422	0	32810	32724	
423	0	32826	32802	
424	0	32784	32732	
425	0	32842	32832	
426	0	32792	32711	
427	0	32836	32718	
428	0	32884	32764	
429	0	32848	32831	
430	0	32892	32730	
431	0	32864	32760	
432	0	32788	32727	
433	0	32844	32802	
434	0	32824	32848	
435	0	32840	32722	
436	0	32784	32647	
437	0	32788	32911	
438	0	32812	32775	
439	0	32854	32774	
440	0	32800	32760	
441	0	32852	32738	
442	0	32844	32774	
443	0	32832	32774	
444	0	32852	32818	
445	0	32832	32830	
446	0	32800	32710	
447	0	32808	32711	
448	0	32832	32766	
449	0	32740	32742	
450	0	32816	32775	
451	0	32784	32686	
452	0	32792	32836	
453	0	32732	32836	
454	0	32822	32711	
455	0	32826	32866	
456	0	32825	32728	
457	0	32828	32732	
458	0	32824	32832	
459	0	32772	32786	
460	0	32788	32752	
461	0	32846	32756	
462	0	32800	32664	
463	0	32878	32864	
464	0	32820	32743	
465	0	32849	32852	
466	0	32776	32846	
467	0	32728	32638	
468	0	32820	32706	
469	0	32808	32880	
470	0	32800	32798	
471	0	32862	32740	
472	0	32784	32852	
473	0	32798	32663	
474	0	32752	32730	
475	0	32788	32775	
476	0	32812	32716	
477	0	32828	32820	
478	0	32818	32760	
479	0	32832	32710	
480	0	32826	32876	
481	0	32788	32764	
482	0	32816	32775	
483	0	32828	32847	
484	0	32864	32792	
485	0	32756	32706	
486	0	32828	32774	
487	0	32775	32824	
488	0	32804	32742	
489	0	32796	32868	
490	0	32804	32807	
491	0	32860	32756	
492	0	32880	32816	
493	0	32800	32775	
494	0	32826	32770	
495	0	32776	32756	
496	0	32824	32788	
497	0	32786	32676	
498	0	32788	32814	
499	0	32812	32775	
500	0	32878	32737	
501	0	32872	32647	
502	0	32796	32870	
503	0	32828	32750	
504	0	32794	32836	
505	0	32824	32684	
506	0	32801	32691	
507	0	32814	32864	
508	0	32782	32770	
509	0	32824	32818	
510	0	32830	32802	
511	0	32796	32806	
512	0	32776	32673	
513	0	32756	32712	
514	0	32796	32810	
515	0	32788	32746	
516	0	32768	32727	
517	0	32820	32818	
518	0	32800	32770	
519	0	32806	32842	
520	0	32816	32862	
521	0	32772	32676	
522	0	32844	32750	
523	0	32912	32852	
524	0	32840	32704	
525	0	32788	32808	
526	0	32768	32671	
527	0	32840	32676	
528	0	32824	32759	
529	0	32766	32842	
530	0	32804	32756	
531	0	32836	32830	
532	0	32807	32808	
533	0	32756	32796	
534	0	32830	32748	
535	0	32800	32760	
536	0	32862	32746	
537	0	32836	32894	
538	0	32914	32862	
539	0	32864	32936	
540	0	32926	32775	
541	0	32866	32790	
542	0	32868	32974	
543	0	32852	32818	
544	0	32820	32884	
545	0	32736	32647	
546	0	32724	32618	
547	0	32684	32588	
548	0	32681	32446	
549	0	32700	32564	
550	0	32652	32544	
551	0	32696	32416	
552	0	32648	32510	
553	0	32616	32466	
554	0	32706	32586	
555	0	32816	32624	
556	0	32736	32620	
557	0	32816	32692	
558	0	32804	32812	
559	0	32865	32847	
560	0	32834	32757	
561	0	32802	32736	
562	0	32868	32862	
563	0	32876	32856	
564	0	32840	32967	
565	0	32904	32844	
566	0	32982	32896	
567	0	32872	32936	
568	0	32846	32934	
569	0	32848	32864	
570	0	32796	32800	
571	0	32868	32920	
572	0	32794	32769	
573	0	32888	32844	
574	0	32842	32800	
575	0	32852	32775	
576	0	32884	32882	
577	0	32888	32760	
578	0	32830	32834	
579	0	32830	32802	
580	0	32818	32740	
581	0	32836	32833	
582	0	32852	32750	
583	0	32764	32720	
584	0	32742	32738	
585	0	32774	32726	
586	0	32740	32852	
587	0	32804	32694	
588	0	32780	32726	
589	0	32828	32790	
590	0	32772	32826	
591	0	32740	32604	
592	0	32776	32708	
593	0	32796	32705	
594	0	32758	32800	
595	0	32780	32742	
596	0	32784	32818	
597	0	32852	32810	
598	0	32772	32614	
599	0	32786	32718	
600	0	32836	32710	
601	0	32792	32742	
602	0	32840	32711	
603	0	32860	32884	
604	0	32772	32706	
605	0	32872	32671	
606	0	32816	32734	
607	0	32840	32686	
608	0	32876	32724	
609	0	32834	32820	
610	0	32796	32800	
611	0	32852	32785	
612	0	32822	32744	
613	0	32798	32826	
614	0	32752	32796	
615	0	32864	32796	
616	0	32804	32670	
617	0	32792	32756	
618	0	32798	32902	
619	0	32816	32808	
620	0	32912	32775	
621	0	32788	32742	
622	0	32744	32816	
623	0	32822	32832	
624	0	32816	32814	
625	0	32792	32679	
626	0	32772	32706	
627	0	32744	32716	
628	0	32816	32818	
629	0	32812	32814	
630	0	32844	32791	
631	0	32778	32862	
632	0	32832	32748	
633	0	32776	32754	
634	0	32748	32604	
635	0	32804	32842	
636	0	32796	32830	
637	0	32824	32762	
638	0	32812	32796	
639	0	32808	32854	
640	0	32820	32728	
641	0	32820	32719	
642	0	32814	32689	
643	0	32846	32775	
644	0	32836	32876	
645	0	32816	32866	
646	0	32826	32775	
647	0	32796	32746	
648	0	32808	32806	
649	0	32848	32874	
650	0	32802	32740	
651	0	32800	32724	
652	0	32814	32692	
653	0	32810	32828	
654	0	32816	32775	
655	0	32780	32733	
656	0	32780	32628	
657	0	32804	32711	
658	0	32904	32784	
659	0	32802	32830	
660	0	32838	32775	
661	0	32824	32671	
662	0	32824	32772	
663	0	32832	32806	
664	0	32820	32802	
665	0	32834	32834	
666	0	32830	32818	
667	0	32778	32756	
668	0	32721	32742	
669	0	32814	32764	
670	0	32844	32752	
671	0	32788	32840	
672	0	32832	32742	
673	0	32814	32850	
674	0	32760	32820	
675	0	32792	32806	
676	0	32834	32738	
677	0	32756	32680	
678	0	32848	32724	
679	0	32816	32739	
680	0	32816	32862	
681	0	32772	32742	
682	0	32800	32706	
683	0	32794	32730	
684	0	32808	32719	
685	0	32852	32823	
686	0	32872	32775	
687	0	32796	32656	
688	0	32826	32688	
689	0	32802	32855	
690	0	32900	32796	
691	0	32784	32839	
692	0	32760	32615	
693	0	32784	32690	
694	0	32712	32822	
695	0	32812	32644	
696	0	32800	32766	
697	0	32840	32708	
698	0	32870	32752	
699	0	32864	32807	
700	0	32792	32824	
701	0	32804	32848	
702	0	32764	32720	
703	0	32780	32708	
704	0	32816	32848	
705	0	32816	32775	
706	0	32796	32808	
707	0	32824	32606	
708	0	32800	32874	
709	0	32788	32734	
710	0	32808	32804	
711	0	32802	32732	
712	0	32808	32728	
713	0	32736	32799	
714	0	32828	32774	
715	0	32786	32775	
716	0	32864	32678	
717	0	32780	32775	
718	0	32844	32692	
719	0	32868	32816	
720	0	32844	32775	
721	0	32824	32692	
722	0	32796	32726	
723	0	32828	32756	
724	0	32872	32872	
725	0	32856	32728	
726	0	32772	32706	
727	0	32784	32788	
728	0	32780	32698	
729	0	32832	32864	
730	0	32864	32732	
731	0	32756	32822	
732	0	32856	32759	
733	0	32816	32800	
734	0	32816	32671	
735	0	32846	32698	
736	0	32792	32862	
737	0	32836	32734	
738	0	32888	32800	
739	0	32784	32730	
740	0	32804	32826	
741	0	32802	32710	
742	0	32780	32768	
743	0	32820	32719	
744	0	32772	32755	
745	0	32840	32828	
746	0	32826	32884	
747	0	32820	32740	
748	0	32828	32834	
749	0	32864	32703	
750	0	32832	32746	
751	0	32748	32820	
752	0	32840	32758	
753	0	32758	32768	
754	0	32764	32757	
755	0	32820	32698	
756	0	32804	32826	
757	0	32772	32804	
758	0	32828	32844	
759	0	32760	32764	
760	0	32808	32712	
761	0	32804	32834	
762	0	32816	32790	
763	0	32934	32838	
764	0	32816	32750	
765	0	32816	32702	
766	0	32754	32803	
767	0	32812	32834	
768	0	32842	32723	
769	0	32780	32730	
770	0	32778	32846	
771	0	32826	32790	
772	0	32880	32706	
773	0	32836	32674	
774	0	32810	32794	
775	0	32824	32817	
776	0	32856	32775	
777	0	32792	32698	
778	0	32754	32848	
779	0	32808	32802	
780	0	32888	32742	
781	0	32820	32807	
782	0	32826	32748	
783	0	32800	32742	
784	0	32806	32656	
785	0	32844	32756	
786	0	32822	32876	
787	0	32832	32667	
788	0	32766	32798	
789	0	32852	32774	
790	0	32810	32820	
791	0	32764	32734	
792	0	32798	32743	
793	0	32780	32740	
794	0	32842	32814	
795	0	32848	32775	
796	0	32854	32757	
797	0	32812	32828	
798	0	32852	32731	
799	0	32820	32756	
800	0	32788	32684	
801	0	32804	32820	
802	0	32862	32798	
803	0	32836	32686	
804	0	32788	32826	
805	0	32810	32710	
806	0	32854	32856	
807	0	32828	32772	
808	0	32760	32748	
809	0	32844	32790	
810	0	32816	32756	
811	0	32830	32788	
812	0	32808	32780	
813	0	32764	32774	
814	0	32824	32644	
815	0	32842	32880	
816	0	32820	32775	
817	0	32856	32802	
818	0	32774	32758	
819	0	32812	32654	
820	0	32808	32790	
821	0	32856	32804	
822	0	32800	32815	
823	0	32852	32868	
824	0	32746	32790	
825	0	32848	32718	
826	0	32818	32846	
827	0	32772	32762	
828	0	32751	32740	
829	0	32820	32678	
830	0	32890	32692	
831	0	32824	32732	
832	0	32774	32897	
833	0	32778	32771	
834	0	32816	32726	
835	0	32836	32775	
836	0	32792	32823	
837	0	32784	32823	
838	0	32814	32743	
839	0	32856	32852	
840	0	32752	32792	
841	0	32832	32775	
842	0	32756	32704	
843	0	32796	32860	
844	0	32844	32796	
845	0	32800	32743	
846	0	32804	32664	
847	0	32816	32818	
848	0	32884	32839	
849	0	32788	32836	
850	0	32824	32794	
851	0	32752	32687	
852	0	32824	32775	
853	0	32775	32796	
854	0	32796	32786	
855	0	32780	32798	
856	0	32776	32798	
857	0	32820	32815	
858	0	32836	32716	
859	0	32828	32788	
860	0	32808	32740	
861	0	32818	32807	
862	0	32776	32727	
863	0	32816	32866	
864	0	32828	32860	
865	0	32816	32676	
866	0	32788	32775	
867	0	32808	32702	
868	0	32776	32752	
869	0	32784	32730	
870	0	32822	32764	
871	0	32760	32728	
872	0	32784	32858	
873	0	32832	32824	
874	0	32826	32647	
875	0	32804	32852	
876	0	32796	32790	
877	0	32756	32804	
878	0	32778	32775	
879	0	32796	32744	
880	0	32880	32766	
881	0	32844	32794	
882	0	32786	32679	
883	0	32828	32743	
884	0	32810	32790	
885	0	32784	32761	
886	0	32802	32720	
887	0	32840	32807	
888	0	32812	32812	
889	0	32838	32721	
890	0	32788	32775	
891	0	32844	32775	
892	0	32870	32676	
893	0	32828	32775	
894	0	32832	32715	
895	0	32848	32790	
896	0	32828	32700	
897	0	32796	32736	
898	0	32822	32808	
899	0	32774	32788	
900	0	32760	32791	
901	0	32918	32651	
902	0	32792	32702	
903	0	32800	32871	
904	0	32808	32744	
905	0	32812	32856	
906	0	32820	32774	
907	0	32804	32686	
908	0	32884	32750	
909	0	32858	32785	
910	0	32772	32720	
911	0	32804	32852	
912	0	32808	32686	
913	0	32804	32838	
914	0	32810	32798	
915	0	32736	32756	
916	0	32832	32818	
917	0	32806	32758	
918	0	32812	32764	
919	0	32900	32775	
920	0	32832	32712	
921	0	32820	32743	
922	0	32742	32748	
923	0	32774	32775	
924	0	32832	32732	
925	0	32792	32732	
926	0	32804	32832	
927	0	32788	32775	
928	0	32820	32826	
929	0	32784	32775	
930	0	32820	32748	
931	0	32774	32798	
932	0	32800	32798	
933	0	32800	32676	
934	0	32782	32806	
935	0	32812	32753	
936	0	32778	32828	
937	0	32824	32758	
938	0	32860	32660	
939	0	32794	32784	
940	0	32864	32775	
941	0	32885	32814	
942	0	32844	32770	
943	0	32828	32693	
944	0	32820	32768	
945	0	32824	32870	
946	0	32828	32808	
947	0	32752	32656	
948	0	32800	32760	
949	0	32814	32786	
950	0	32840	32844	
951	0	32774	32713	
952	0	32808	32732	
953	0	32884	32824	
954	0	32802	32775	
955	0	32808	32762	
956	0	32824	32764	
957	0	32796	32793	
958	0	32804	32783	
959	0	32820	32794	
960	0	32864	32746	
961	0	32796	32756	
962	0	32798	32818	
963	0	32828	32839	
964	0	32888	32764	
965	0	32760	32750	
966	0	32820	32854	
967	0	32810	32775	
968	0	32868	32668	
969	0	32800	32714	
970	0	32732	32678	
971	0	32880	32775	
972	0	32836	32780	
973	0	32778	32878	
974	0	32756	32708	
975	0	32802	32732	
976	0	32856	32775	
977	0	32824	32804	
978	0	32808	32756	
979	0	32800	32738	
980	0	32792	32798	
981	0	32812	32768	
982	0	32856	32801	
983	0	32802	32822	
984	0	32800	32694	
985	0	32830	32766	
986	0	32812	32748	
987	0	32806	32808	
988	0	32836	32736	
989	0	32760	32804	
990	0	32852	32802	
991	0	32856	32700	
992	0	32794	32678	
993	0	32778	32846	
994	0	32804	32790	
995	0	32756	32846	
996	0	32810	32732	
997	0	32858	32740	
998	0	32792	32770	
999	0	32772	32746	
1000	0	32876	32788	
1001	0	32796	32761	
1002	0	32816	32718	
1003	0	32778	32775	
1004	0	32824	32746	
1005	0	32780	32734	
1006	0	32868	32838	
1007	0	32816	32742	
1008	0	32772	32679	
1009	0	32836	32794	
1010	0	32824	32757	
1011	0	32836	32828	
1012	0	32788	32739	
1013	0	32812	32752	
1014	0	32800	32878	
1015	0	32844	32706	
1016	0	32832	32758	
1017	0	32810	32742	
1018	0	32888	32764	
1019	0	32784	32742	
1020	0	32752	32792	
1021	0	32820	32792	
1022	0	32816	32734	
1023	0	32870	32698	
1024	0	32800	32807	
1025	0	32798	32807	
1026	0	32756	32848	
1027	0	32802	32679	
1028	0	32856	32890	
1029	0	32806	32744	
1030	0	32761	32896	
1031	0	32848	32694	
1032	0	32752	32846	
1033	0	32822	32772	
1034	0	32844	32798	
1035	0	32820	32758	
1036	0	32788	32740	
1037	0	32836	32736	
1038	0	32778	32806	
1039	0	32810	32775	
1040	0	32792	32696	
1041	0	32780	32744	
1042	0	32802	32671	
1043	0	32808	32798	
1044	0	32840	32856	
1045	0	32844	32759	
1046	0	32824	32724	
1047	0	32812	32764	
1048	0	32775	32744	
1049	0	32804	32823	
1050	0	32828	32686	
1051	0	32780	32832	
1052	0	32784	32754	
1053	0	32844	32756	
1054	0	32886	32743	
1055	0	32778	32656	
1056	0	32806	32864	
1057	0	32764	32788	
1058	0	32764	32854	
1059	0	32820	32684	
1060	0	32824	32814	
1061	0	32846	32754	
1062	0	32770	32834	
1063	0	32852	32704	
1064	0	32828	32711	
1065	0	32868	32740	
1066	0	32890	32810	
1067	0	32840	32622	
1068	0	32800	32738	
1069	0	32804	32750	
1070	0	32756	32796	
1071	0	32776	32802	
1072	0	32800	32800	
1073	0	32844	32798	
1074	0	32775	32820	
1075	0	32766	32696	
1076	0	32804	32708	
1077	0	32832	32743	
1078	0	32844	32865	
1079	0	32860	32748	
1080	0	32800	32750	
1081	0	32790	32614	
1082	0	32796	32775	
1083	0	32780	32775	
1084	0	32780	32806	
1085	0	32831	32775	
1086	0	32808	32756	
1087	0	32738	32828	
1088	0	32864	32775	
1089	0	32842	32775	
1090	0	32878	32686	
1091	0	32880	32919	
1092	0	32834	32762	
1093	0	32828	32800	
1094	0	32796	32726	
1095	0	32734	32756	
1096	0	32796	32740	
1097	0	32810	32847	
1098	0	32806	32740	
1099	0	32816	32740	
1100	0	32788	32842	
1101	0	32816	32712	
1102	0	32852	32816	
1103	0	32848	32724	
1104	0	32876	32769	
1105	0	32808	32680	
1106	0	32768	32807	
1107	0	32872	32770	
1108	0	32808	32766	
1109	0	32890	32759	
1110	0	32740	32786	
1111	0	32806	32862	
1112	0	32842	32730	
1113	0	32824	32782	
1114	0	32772	32832	
1115	0	32828	32810	
1116	0	32860	32831	
1117	0	32820	32704	
1118	0	32792	32758	
1119	0	32844	32718	
1120	0	32788	32775	
1121	0	32846	32692	
1122	0	32788	32711	
1123	0	32792	32772	
1124	0	32840	32804	
1125	0	32852	32678	
1126	0	32820	32890	
1127	0	32760	32718	
1128	0	32856	32804	
1129	0	32740	32710	
1130	0	32804	32896	
1131	0	32836	32746	
1132	0	32804	32770	
1133	0	32848	32736	
1134	0	32804	32822	
1135	0	32816	32772	
1136	0	32870	32772	
1137	0	32816	32678	
1138	0	32812	32807	
1139	0	32766	32814	
1140	0	32844	32794	
1141	0	32852	32830	
1142	0	32824	32676	
1143	0	32826	32788	
1144	0	32772	32767	
1145	0	32904	32700	
1146	0	32798	32711	
1147	0	32912	32691	
1148	0	32790	32839	
1149	0	32756	32762	
1150	0	32802	32716	
1151	0	32772	32775	
1152	0	32750	32724	
1153	0	32786	32740	
1154	0	32808	32706	
1155	0	32844	32882	
1156	0	32836	32742	
1157	0	32788	32784	
1158	0	32737	32692	
1159	0	32824	32847	
1160	0	32836	32740	
1161	0	32788	32756	
1162	0	32825	32676	
1163	0	32790	32775	
1164	0	32864	32840	
1165	0	32892	32678	
1166	0	32824	32758	
1167	0	32752	32775	
1168	0	32854	32736	
1169	0	32768	32826	
1170	0	32798	32630	
1171	0	32838	32798	
1172	0	32800	32880	
1173	0	32770	32698	
1174	0	32878	32684	
1175	0	32872	32804	
1176	0	32800	32823	
1177	0	32820	32694	
1178	0	32862	32856	
1179	0	32770	32794	
1180	0	32816	32828	
1181	0	32772	32700	
1182	0	32832	32828	
1183	0	32770	32690	
1184	0	32798	32798	
1185	0	32790	32698	
1186	0	32800	32832	
1187	0	32822	32740	
1188	0	32836	32696	
1189	0	32820	32718	
1190	0	32828	32775	
1191	0	32856	32750	
1192	0	32776	32784	
1193	0	32876	32700	
1194	0	32804	32696	
1195	0	32768	32830	
1196	0	32796	32808	
1197	0	32768	32814	
1198	0	32759	32702	
1199	0	32860	32879	
1200	0	32822	32788	
1201	0	32804	32742	
1202	0	32832	32775	
1203	0	32800	32684	
1204	0	32780	32750	
1205	0	32848	32775	
1206	0	32844	32775	
1207	0	32896	32796	
1208	0	32764	32728	
1209	0	32868	32864	
1210	0	32840	32826	
1211	0	32820	32828	
1212	0	32804	32775	
1213	0	32900	32702	
1214	0	32760	32830	
1215	0	32810	32810	
1216	0	32844	32760	
1217	0	32812	32874	
1218	0	32798	32743	
1219	0	32852	32842	
1220	0	32856	32708	
1221	0	32888	32846	
1222	0	32914	32886	
1223	0	32912	32919	
1224	0	32898	32903	
1225	0	32912	32882	
1226	0	32864	32921	
1227	0	32830	32839	
1228	0	32796	32812	
1229	0	32720	32684	
1230	0	32668	32708	
1231	0	32630	32564	
1232	0	32652	32555	
1233	0	32732	32487	
1234	0	32624	32566	
1235	0	32658	32558	
1236	0	32600	32386	
1237	0	32670	32454	
1238	0	32720	32530	
1239	0	32784	32680	
1240	0	32814	32718	
1241	0	32806	32742	
1242	0	32804	32836	
1243	0	32808	32816	
1244	0	32818	32854	
1245	0	32812	32804	
1246	0	32792	32775	
1247	0	32852	32902	
1248	0	32908	32852	
1249	0	32896	32974	
1250	0	32916	32865	
1251	0	32884	32836	
1252	0	32880	32903	
1253	0	32832	32875	
1254	0	32900	32904	
1255	0	32912	32764	
1256	0	32863	32818	
1257	0	32908	32870	
1258	0	32872	32898	
1259	0	32856	32870	
1260	0	32885	32754	
1261	0	32884	32806	
1262	0	32828	32775	
1263	0	32796	32858	
1264	0	32798	32754	
1265	0	32796	32705	
1266	0	32820	32724	
1267	0	32770	32734	
1268	0	32822	32722	
1269	0	32780	32726	
1270	0	32756	32663	
1271	0	32784	32791	
1272	0	32772	32750	
1273	0	32800	32732	
1274	0	32772	32647	
1275	0	32846	32802	
1276	0	32854	32803	
1277	0	32766	32736	
1278	0	32818	32719	
1279	0	32750	32730	
1280	0	32824	32760	
1281	0	32804	32775	
1282	0	32802	32744	
1283	0	32808	32726	
1284	0	32834	32844	
1285	0	32816	32708	
1286	0	32832	32745	
1287	0	32794	32734	
1288	0	32740	32663	
1289	0	32772	32836	
1290	0	32788	32714	
1291	0	32838	32906	
1292	0	32800	32742	
1293	0	32744	32714	
1294	0	32804	32820	
1295	0	32872	32791	
1296	0	32808	32804	
1297	0	32788	32647	
1298	0	32744	32732	
1299	0	32808	32775	
1300	0	32848	32775	
1301	0	32754	32836	
1302	0	32796	32692	
1303	0	32932	32790	
1304	0	32800	32808	
1305	0	32832	32807	
1306	0	32762	32756	
1307	0	32760	32678	
1308	0	32788	32768	
1309	0	32834	32774	
1310	0	32768	32820	
1311	0	32812	32647	
1312	0	32792	32744	
1313	0	32828	32721	
1314	0	32780	32806	
1315	0	32754	32768	
1316	0	32778	32686	
1317	0	32856	32716	
1318	0	32816	32796	
1319	0	32824	32758	
1320	0	32856	32775	
1321	0	32812	32802	
1322	0	32800	32742	
1323	0	32854	32808	
1324	0	32800	32708	
1325	0	32884	32700	
1326	0	32814	32839	
1327	0	32850	32768	
1328	0	32804	32852	
1329	0	32814	32696	
1330	0	32728	32786	
1331	0	32786	32828	
1332	0	32772	32856	
1333	0	32804	32770	
1334	0	32796	32740	
1335	0	32814	32828	
1336	0	32788	32775	
1337	0	32800	32828	
1338	0	32848	32708	
1339	0	32884	32766	
1340	0	32782	32788	
1341	0	32808	32726	
1342	0	32856	32763	
1343	0	32854	32658	
1344	0	32830	32876	
1345	0	32772	32822	
1346	0	32872	32806	
1347	0	32876	32628	
1348	0	32778	32874	
1349	0	32814	32704	
1350	0	32788	32814	
1351	0	32808	32718	
1352	0	32902	32696	
1353	0	32812	32822	
1354	0	32808	32785	
1355	0	32764	32722	
1356	0	32852	32740	
1357	0	32788	32842	
1358	0	32780	32866	
1359	0	32848	32756	
1360	0	32832	32678	
1361	0	32830	32846	
1362	0	32870	32688	
1363	0	32788	32812	
1364	0	32848	32754	
1365	0	32756	32748	
1366	0	32858	32840	
1367	0	32812	32774	
1368	0	32740	32743	
1369	0	32788	32822	
1370	0	32832	32726	
1371	0	32788	32832	
1372	0	32826	32806	
1373	0	32732	32857	
1374	0	32792	32743	
1375	0	32848	32696	
1376	0	32784	32788	
1377	0	32774	32746	
1378	0	32872	32806	
1379	0	32848	32745	
1380	0	32792	32775	
1381	0	32854	32792	
1382	0	32836	32775	
1383	0	32776	32700	
1384	0	32740	32740	
1385	0	32840	32795	
1386	0	32808	32770	
1387	0	32770	32820	
1388	0	32856	32690	
1389	0	32852	32796	
1390	0	32868	32808	
1391	0	32784	32756	
1392	0	32812	32710	
1393	0	32828	32775	
1394	0	32774	32816	
1395	0	32770	32775	
1396	0	32796	32680	
1397	0	32830	32734	
1398	0	32810	32759	
1399	0	32868	32732	
1400	0	32824	32668	
1401	0	32832	32728	
1402	0	32776	32775	
1403	0	32852	32791	
1404	0	32836	32664	
1405	0	32798	32775	
1406	0	32824	32775	
1407	0	32802	32728	
1408	0	32848	32876	
1409	0	32856	32748	
1410	0	32836	32836	
1411	0	32828	32813	
1412	0	32762	32788	
1413	0	32796	32762	
1414	0	32792	32740	
1415	0	32808	32716	
1416	0	32825	32794	
1417	0	32780	32818	
1418	0	32775	32684	
1419	0	32816	32900	
1420	0	32812	32784	
1421	0	32824	32784	
1422	0	32832	32798	
1423	0	32820	32806	
1424	0	32772	32716	
1425	0	32776	32775	
1426	0	32788	32702	
1427	0	32844	32839	
1428	0	32788	32774	
1429	0	32800	32871	
1430	0	32774	32681	
1431	0	32882	32704	
1432	0	32794	32768	
1433	0	32806	32842	
1434	0	32808	32826	
1435	0	32828	32743	
1436	0	32848	32719	
1437	0	32804	32836	
1438	0	32812	32743	
1439	0	32766	32750	
1440	0	32796	32682	
1441	0	32768	32838	
1442	0	32798	32686	
1443	0	32788	32804	
1444	0	32848	32678	
1445	0	32808	32712	
1446	0	32837	32834	
1447	0	32808	32775	
1448	0	32828	32708	
1449	0	32752	32703	
1450	0	32788	32788	
1451	0	32832	32828	
1452	0	32786	32791	
1453	0	32852	32720	
1454	0	32838	32791	
1455	0	32824	32722	
1456	0	32798	32864	
1457	0	32745	32692	
1458	0	32738	32736	
1459	0	32830	32798	
1460	0	32800	32818	
1461	0	32790	32806	
1462	0	32798	32758	
1463	0	32842	32654	
1464	0	32842	32736	
1465	0	32824	32775	
1466	0	32806	32667	
1467	0	32874	32884	
1468	0	32848	32714	
1469	0	32766	32775	
1470	0	32784	32650	
1471	0	32792	32853	
1472	0	32760	32746	
1473	0	32794	32901	
1474	0	32808	32767	
1475	0	32752	32752	
1476	0	32844	32775	
1477	0	32821	32918	
1478	0	32822	32775	
1479	0	32804	32772	
1480	0	32830	32823	
1481	0	32796	32694	
1482	0	32830	32729	
1483	0	32812	32756	
1484	0	32830	32846	
1485	0	32846	32676	
1486	0	32790	32784	
1487	0	32796	32834	
1488	0	32848	32807	
1489	0	32772	32662	
1490	0	32808	32839	
1491	0	32840	32730	
1492	0	32732	32832	
1493	0	32838	32687	
1494	0	32894	32835	
1495	0	32816	32740	
1496	0	32784	32823	
1497	0	32788	32700	
1498	0	32844	32802	
1499	0	32846	32748	
1500	0	32768	32907	
1501	0	32858	32678	
1502	0	32852	32806	
1503	0	32772	32742	
1504	0	32848	32828	
1505	0	32800	32708	
1506	0	32816	32700	
1507	0	32784	32762	
1508	0	32852	32814	
1509	0	32888	32667	
1510	0	32850	32772	
1511	0	32822	32772	
1512	0	32800	32820	
1513	0	32814	32730	
1514	0	32766	32860	
1515	0	32764	32775	
1516	0	32808	32734	
1517	0	32804	32630	
1518	0	32824	32836	
1519	0	32842	32788	
1520	0	32856	32700	
1521	0	32804	32878	
1522	0	32778	32752	
1523	0	32828	32852	
1524	0	32834	32668	
1525	0	32832	32874	
1526	0	32822	32868	
1527	0	32804	32752	
1528	0	32808	32752	
1529	0	32840	32664	
1530	0	32820	32794	
1531	0	32800	32768	
1532	0	32818	32796	
1533	0	32902	32774	
1534	0	32808	32769	
1535	0	32844	32792	
1536	0	32860	32679	
1537	0	32782	32862	
1538	0	32780	32775	
1539	0	32772	32816	
1540	0	32828	32673	
1541	0	32828	32792	
1542	0	32828	32798	
1543	0	32820	32732	
1544	0	32800	32775	
1545	0	32808	32736	
1546	0	32792	32703	
1547	0	32776	32871	
1548	0	32776	32826	
1549	0	32804	32688	
1550	0	32854	32820	
1551	0	32812	32846	
1552	0	32804	32694	
1553	0	32820	32816	
1554	0	32828	32750	
1555	0	32812	32774	
1556	0	32884	32710	
1557	0	32840	32788	
1558	0	32848	32830	
1559	0	32816	32794	
1560	0	32775	32734	
1561	0	32786	32826	
1562	0	32772	32830	
1563	0	32820	32650	
1564	0	32848	32831	
1565	0	32854	32742	
1566	0	32832	32774	
1567	0	32878	32714	
1568	0	32788	32740	
1569	0	32828	32742	
1570	0	32800	32808	
1571	0	32800	32780	
1572	0	32786	32770	
1573	0	32828	32820	
1574	0	32824	32760	
1575	0	32776	32818	
1576	0	32906	32632	
1577	0	32852	32758	
1578	0	32704	32766	
1579	0	32836	32822	
1580	0	32792	32816	
1581	0	32872	32708	
1582	0	32780	32836	
1583	0	32752	32725	
1584	0	32808	32774	
1585	0	32814	32647	
1586	0	32916	32692	
1587	0	32840	32770	
1588	0	32856	32832	
1589	0	32804	32647	
1590	0	32880	32810	
1591	0	32850	32815	
1592	0	32778	32800	
1593	0	32816	32792	
1594	0	32776	32755	
1595	0	32784	32807	
1596	0	32740	32792	
1597	0	32824	32716	
1598	0	32904	32822	
1599	0	32802	32794	
1600	0	32798	32772	
1601	0	32796	32750	
1602	0	32858	32760	
1603	0	32824	32850	
1604	0	32864	32766	
1605	0	32856	32734	
1606	0	32764	32756	
1607	0	32834	32720	
1608	0	32820	32720	
1609	0	32772	32720	
1610	0	32788	32724	
1611	0	32836	32711	
1612	0	32788	32844	
1613	0	32792	32829	
1614	0	32832	32774	
1615	0	32704	32772	
1616	0	32868	32686	
1617	0	32820	32799	
1618	0	32744	32743	
1619	0	32872	32807	
1620	0	32844	32736	
1621	0	32764	32812	
1622	0	32816	32807	
1623	0	32810	32775	
1624	0	32838	32676	
1625	0	32888	32757	
1626	0	32756	32870	
1627	0	32772	32771	
1628	0	32824	32747	
1629	0	32856	32838	
1630	0	32836	32743	
1631	0	32838	32692	
1632	0	32848	32790	
1633	0	32796	32846	
1634	0	32892	32706	
1635	0	32788	32807	
1636	0	32852	32740	
1637	0	32790	32814	
1638	0	32824	32804	
1639	0	32754	32682	
1640	0	32816	32839	
1641	0	32780	32770	
1642	0	32820	32838	
1643	0	32848	32788	
1644	0	32804	32742	
1645	0	32810	32642	
1646	0	32780	32800	
1647	0	32856	32742	
1648	0	32828	32738	
1649	0	32802	32738	
1650	0	32752	32724	
1651	0	32836	32756	
1652	0	32852	32750	
1653	0	32844	32678	
1654	0	32812	32775	
1655	0	32772	32846	
1656	0	32808	32836	
1657	0	32782	32710	
1658	0	32880	32774	
1659	0	32758	32799	
1660	0	32744	32758	
1661	0	32766	32775	
1662	0	32828	32726	
1663	0	32840	32766	
1664	0	32768	32830	
1665	0	32830	32796	
1666	0	32836	32750	
1667	0	32854	32650	
1668	0	32884	32846	
1669	0	32792	32775	
1670	0	32814	32806	
1671	0	32840	32716	
1672	0	32844	32806	
1673	0	32834	32775	
1674	0	32764	32807	
1675	0	32732	32682	
1676	0	32804	32708	
1677	0	32798	32824	
1678	0	32820	32761	
1679	0	32828	32815	
1680	0	32760	32746	
1681	0	32868	32748	
1682	0	32792	32844	
1683	0	32820	32732	
1684	0	32876	32740	
1685	0	32752	32647	
1686	0	32772	32752	
1687	0	32858	32772	
1688	0	32816	32841	
1689	0	32776	32728	
1690	0	32852	32808	
1691	0	32816	32775	
1692	0	32776	32835	
1693	0	32828	32724	
1694	0	32860	32670	
1695	0	32846	32748	
1696	0	32828	32690	
1697	0	32832	32708	
1698	0	32864	32736	
1699	0	32800	32838	
1700	0	32804	32764	
1701	0	32758	32690	
1702	0	32784	32744	
1703	0	32833	32746	
1704	0	32820	32865	
1705	0	32812	32692	
1706	0	32846	32756	
1707	0	32772	32852	
1708	0	32834	32818	
1709	0	32708	32712	
1710	0	32772	32727	
1711	0	32820	32814	
1712	0	32794	32804	
1713	0	32776	32706	
1714	0	32796	32880	
1715	0	32834	32772	
1716	0	32821	32864	
1717	0	32716	32772	
1718	0	32822	32744	
1719	0	32804	32750	
1720	0	32837	32788	
1721	0	32820	32638	
1722	0	32808	32866	
1723	0	32884	32806	
1724	0	32866	32860	
1725	0	32804	32711	
1726	0	32840	32803	
1727	0	32878	32754	
1728	0	32848	32800	
1729	0	32840	32703	
1730	0	32793	32839	
1731	0	32808	32762	
1732	0	32812	32812	
1733	0	32752	32658	
1734	0	32762	32766	
1735	0	32736	32686	
1736	0	32780	32775	
1737	0	32748	32712	
1738	0	32804	32806	
1739	0	32820	32719	
1740	0	32800	32826	
1741	0	32788	32631	
1742	0	32820	32862	
1743	0	32848	32732	
1744	0	32828	32772	
1745	0	32906	32674	
1746	0	32832	32738	
1747	0	32864	32834	
1748	0	32756	32738	
1749	0	32746	32846	
1750	0	32764	32764	
1751	0	32764	32830	
1752	0	32876	32810	
1753	0	32812	32782	
1754	0	32768	32700	
1755	0	32744	32852	
1756	0	32848	32790	
1757	0	32828	32738	
1758	0	32772	32694	
1759	0	32852	32811	
1760	0	32823	32648	
1761	0	32808	32728	
1762	0	32842	32692	
1763	0	32816	32706	
1764	0	32788	32764	
1765	0	32832	32792	
1766	0	32816	32674	
1767	0	32802	32880	
1768	0	32848	32835	
1769	0	32834	32806	
1770	0	32832	32816	
1771	0	32808	32718	
1772	0	32848	32750	
1773	0	32808	32844	
1774	0	32792	32632	
1775	0	32824	32770	
1776	0	32816	32786	
1777	0	32848	32812	
1778	0	32896	32680	
1779	0	32868	32824	
1780	0	32832	32788	
1781	0	32832	32868	
1782	0	32796	32734	
1783	0	32816	32870	
1784	0	32804	32736	
1785	0	32768	32756	
1786	0	32768	32743	
1787	0	32824	32756	
1788	0	32730	32796	
1789	0	32760	32736	
1790	0	32776	32826	
1791	0	32784	32742	
1792	0	32832	32764	
1793	0	32820	32774	
1794	0	32838	32734	
1795	0	32769	32860	
1796	0	32854	32756	
1797	0	32824	32818	
1798	0	32778	32764	
1799	0	32816	32810	
1800	0	32852	32658	
1801	0	32772	32807	
1802	0	32792	32679	
1803	0	32824	32770	
1804	0	32828	32734	
1805	0	32820	32864	
1806	0	32832	32718	
1807	0	32808	32858	
1808	0	32792	32742	
1809	0	32706	32810	
1810	0	32832	32722	
1811	0	32860	32846	
1812	0	32834	32768	
1813	0	32864	32866	
1814	0	32824	32775	
1815	0	32766	32903	
1816	0	32784	32791	
1817	0	32782	32775	
1818	0	32826	32674	
1819	0	32750	32775	
1820	0	32782	32694	
1821	0	32924	32748	
1822	0	32828	32708	
1823	0	32828	32788	
1824	0	32792	32660	
1825	0	32828	32738	
1826	0	32794	32705	
1827	0	32788	32828	
1828	0	32740	32736	
1829	0	32796	32759	
1830	0	32802	32670	
1831	0	32840	32890	
1832	0	32832	32782	
1833	0	32784	32828	
1834	0	32814	32647	
1835	0	32772	32711	
1836	0	32746	32824	
1837	0	32896	32756	
1838	0	32836	32888	
1839	0	32880	32709	
1840	0	32856	32722	
1841	0	32784	32762	
1842	0	32844	32818	
1843	0	32840	32767	
1844	0	32768	32728	
1845	0	32862	32788	
1846	0	32858	32792	
1847	0	32798	32775	
1848	0	32768	32784	
1849	0	32876	32692	
1850	0	32804	32816	
1851	0	32856	32772	
1852	0	32884	32792	
1853	0	32764	32725	
1854	0	32746	32794	
1855	0	32778	32734	
1856	0	32762	32724	
1857	0	32840	32736	
1858	0	32816	32737	
1859	0	32768	32818	
1860	0	32836	32818	
1861	0	32790	32636	
1862	0	32799	32880	
1863	0	32834	32838	
1864	0	32796	32702	
1865	0	32826	32670	
1866	0	32896	32794	
1867	0	32808	32828	
1868	0	32836	32863	
1869	0	32824	32760	
1870	0	32776	32673	
1871	0	32860	32807	
1872	0	32862	32764	
1873	0	32794	32700	
1874	0	32792	32872	
1875	0	32784	32808	
1876	0	32828	32775	
1877	0	32812	32754	
1878	0	32820	32775	
1879	0	32728	32766	
1880	0	32800	32726	
1881	0	32804	32670	
1882	0	32849	32756	
1883	0	32808	32854	
1884	0	32836	32703	
1885	0	32752	32814	
1886	0	32784	32775	
1887	0	32820	32650	
1888	0	32764	32770	
1889	0	32754	32808	
1890	0	32784	32804	
1891	0	32784	32756	
1892	0	32868	32800	
1893	0	32852	32874	
1894	0	32788	32836	
1895	0	32764	32799	
1896	0	32728	32757	
1897	0	32804	32736	
1898	0	32854	32804	
1899	0	32808	32782	
1900	0	32816	32679	
1901	0	32820	32836	
1902	0	32836	32743	
1903	0	32848	32657	
1904	0	32804	32740	
1905	0	32848	32808	
1906	0	32866	32775	
1907	0	32820	32724	
1908	0	32762	32668	
1909	0	32788	32775	
1910	0	32840	32934	
1911	0	32896	32758	
1912	0	32932	32873	
1913	0	32892	32929	
1914	0	32864	32806	
1915	0	32840	32800	
1916	0	32920	32806	
1917	0	32884	32823	
1918	0	32808	32800	
1919	0	32786	32614	
1920	0	32652	32612	
1921	0	32620	32500	
1922	0	32638	32438	
1923	0	32704	32583	
1924	0	32688	32484	
1925	0	32634	32444	
1926	0	32625	32428	
1927	0	32700	32574	
1928	0	32750	32636	
1929	0	32812	32775	
1930	0	32792	32668	
1931	0	32788	32831	
1932	0	32780	32871	
1933	0	32812	32892	
1934	0	32832	32807	
1935	0	32830	32860	
1936	0	32848	32862	
1937	0	32880	32916	
1938	0	32886	32852	
1939	0	32978	32932	
1940	0	32868	32802	
1941	0	32912	32939	
1942	0	32882	32768	
1943	0	32870	32894	
1944	0	32840	32844	
1945	0	32872	32844	
1946	0	32834	32829	
1947	0	32888	32836	
1948	0	32854	32850	
1949	0	32848	32732	
1950	0	32792	32868	
1951	0	32838	32772	
1952	0	32846	32810	
1953	0	32748	32722	
1954	0	32842	32706	
1955	0	32810	32743	
1956	0	32784	32840	
1957	0	32799	32632	
1958	0	32840	32734	
1959	0	32820	32748	
1960	0	32808	32756	
1961	0	32770	32711	
1962	0	32760	32751	
1963	0	32732	32727	
1964	0	32852	32768	
1965	0	32788	32635	
1966	0	32798	32764	
1967	0	32774	32730	
1968	0	32756	32740	
1969	0	32788	32691	
1970	0	32828	32754	
1971	0	32808	32839	
1972	0	32790	32704	
1973	0	32804	32807	
1974	0	32794	32788	
1975	0	32826	32775	
1976	0	32858	32698	
1977	0	32814	32798	
1978	0	32808	32856	
1979	0	32864	32694	
1980	0	32880	32775	
1981	0	32876	32754	
1982	0	32792	32802	
1983	0	32794	32676	
1984	0	32798	32830	
1985	0	32800	32768	
1986	0	32872	32678	
1987	0	32824	32799	
1988	0	32748	32850	
1989	0	32772	32706	
1990	0	32752	32800	
1991	0	32854	32788	
1992	0	32840	32784	
1993	0	32796	32702	
1994	0	32778	32828	
1995	0	32860	32750	
1996	0	32821	32820	
1997	0	32800	32662	
1998	0	32744	32743	
1999	0	32780	32764	
2000	0	32836	32768	
2001	0	32802	32808	
2002	0	32784	32692	
2003	0	32788	32770	
2004	0	32820	32724	
2005	0	32810	32820	
2006	0	32852	32708	
2007	0	32848	32734	
2008	0	32816	32806	
2009	0	32780	32727	
2010	0	32836	32816	
2011	0	32816	32689	
2012	0	32740	32791	
2013	0	32790	32852	
2014	0	32810	32750	
2015	0	32748	32694	
2016	0	32800	32692	
2017	0	32824	32814	
2018	0	32768	32874	
2019	0	32884	32748	
2020	0	32820	32760	
2021	0	32824	32786	
2022	0	32788	32727	
2023	0	32788	32694	
2024	0	32844	32748	
2025	0	32832	32772	
2026	0	32794	32742	
2027	0	32836	32810	
2028	0	32808	32647	
2029	0	32794	32728	
2030	0	32804	32840	
2031	0	32780	32804	
2032	0	32820	32714	
2033	0	32792	32830	
2034	0	32784	32758	
2035	0	32832	32775	
2036	0	32884	32728	
2037	0	32744	32704	
2038	0	32796	32814	
2039	0	32828	32722	
2040	0	32744	32734	
2041	0	32836	32712	
2042	0	32832	32752	
2043	0	32796	32768	
2044	0	32864	32798	
2045	0	32776	32694	
2046	0	32854	32775	
2047	0	32812	32748	
2048	0	32768	32734	
2049	0	32764	32736	
2050	0	32778	32852	
2051	0	32832	32838	
2052	0	32800	32800	
2053	0	32821	32734	
2054	0	32846	32868	
2055	0	32828	32806	
2056	0	32808	32740	
2057	0	32760	32815	
2058	0	32824	32743	
2059	0	32826	32692	
2060	0	32824	32774	
2061	0	32864	32696	
2062	0	32812	32820	
2063	0	32840	32708	
2064	0	32798	32719	
2065	0	32804	32807	
2066	0	32820	32756	
2067	0	32844	32806	
2068	0	32804	32720	
2069	0	32775	32974	
2070	0	32836	32807	
2071	0	32852	32827	
2072	0	32826	32718	
2073	0	32780	32735	
2074	0	32879	32784	
2075	0	32750	32746	
2076	0	32816	32804	
2077	0	32776	32752	
2078	0	32776	32775	
2079	0	32848	32748	
2080	0	32828	32830	
2081	0	32768	32844	
2082	0	32808	32712	
2083	0	32790	32818	
2084	0	32788	32718	
2085	0	32828	32820	
2086	0	32868	32676	
2087	0	32850	32720	
2088	0	32824	32798	
2089	0	32800	32766	
2090	0	32836	32806	
2091	0	32828	32666	
2092	0	32842	32775	
2093	0	32784	32768	
2094	0	32816	32775	
2095	0	32792	32732	
2096	0	32812	32798	
2097	0	32782	32764	
2098	0	32832	32792	
2099	0	32756	32718	
2100	0	32775	32807	
2101	0	32848	32838	
2102	0	32830	32772	
2103	0	32836	32794	
2104	0	32842	32738	
2105	0	32794	32815	
2106	0	32808	32792	
2107	0	32808	32746	
2108	0	32788	32820	
2109	0	32808	32682	
2110	0	32796	32796	
2111	0	32834	32775	
2112	0	32754	32802	
2113	0	32852	32732	
2114	0	32816	32844	
2115	0	32834	32708	
2116	0	32824	32725	
2117	0	32816	32714	
2118	0	32774	32812	
2119	0	32804	32742	
2120	0	32778	32820	
2121	0	32744	32704	
2122	0	32828	32652	
2123	0	32776	32762	
2124	0	32776	32775	
2125	0	32756	32734	
2126	0	32796	32740	
2127	0	32808	32868	
2128	0	32788	32775	
2129	0	32798	32855	
2130	0	32768	32647	
2131	0	32742	32816	
2132	0	32792	32788	
2133	0	32724	32768	
2134	0	32856	32775	
2135	0	32836	32688	
2136	0	32856	32798	
2137	0	32800	32743	
2138	0	32816	32887	
2139	0	32948	32658	
2140	0	32790	32640	
2141	0	32888	32775	
2142	0	32908	32881	
2143	0	32832	32820	
2144	0	32800	32663	
2145	0	32792	32802	
2146	0	32834	32766	
2147	0	32786	32808	
2148	0	32784	32764	
2149	0	32852	32775	
2150	0	32800	32808	
2151	0	32816	32828	
2152	0	32760	32719	
2153	0	32764	32696	
2154	0	32858	32754	
2155	0	32812	32788	
2156	0	32772	32792	
2157	0	32808	32738	
2158	0	32832	32814	
2159	0	32772	32752	
2160	0	32832	32855	
2161	0	32772	32711	
2162	0	32834	32756	
2163	0	32834	32796	
2164	0	32872	32807	
2165	0	32788	32740	
2166	0	32784	32775	
2167	0	32778	32846	
2168	0	32764	32810	
2169	0	32836	32810	
2170	0	32792	32740	
2171	0	32794	32802	
2172	0	32838	32775	
2173	0	32760	32748	
2174	0	32836	32652	
2175	0	32760	32860	
2176	0	32722	32720	
2177	0	32768	32854	
2178	0	32746	32700	
2179	0	32768	32830	
2180	0	32804	32761	
2181	0	32828	32762	
2182	0	32876	32706	
2183	0	32938	32752	
2184	0	32916	32756	
2185	0	32868	32803	
2186	0	32812	32740	
2187	0	32816	32846	
2188	0	32840	32775	
2189	0	32834	32721	
2190	0	32800	32710	
2191	0	32816	32775	
2192	0	32748	32815	
2193	0	32740	32657	
2194	0	32842	32720	
2195	0	32884	32822	
2196	0	32900	32806	
2197	0	32912	32714	
2198	0	33036	32700	
2199	0	33112	32700	
2200	0	33060	32814	
2201	0	32888	32660	
2202	0	32756	32810	
2203	0	32724	32802	
2204	0	32732	32789	
2205	0	32688	32688	
2206	0	32680	32756	
2207	0	32788	32842	
2208	0	32676	32746	
2209	0	32696	32803	
2210	0	32712	32775	
2211	0	32592	32730	
2212	0	32648	32672	
2213	0	32580	32711	
2214	0	32646	32868	
2215	0	32680	32818	
2216	0	32738	32696	
2217	0	32676	32632	
2218	0	32752	32856	
2219	0	32748	32684	
2220	0	32824	32846	
2221	0	33076	32737	
2222	0	33048	32688	
2223	0	32948	32798	
2224	0	32884	32788	
2225	0	32836	32760	
2226	0	32864	32718	
2227	0	32792	32823	
2228	0	32736	32700	
2229	0	32722	32775	
2230	0	32692	32748	
2231	0	32804	32802	
2232	0	32924	32722	
2233	0	32904	32718	
2234	0	32932	32843	
2235	0	32984	32804	
2236	0	32952	32774	
2237	0	32958	32900	
2238	0	32888	32772	
2239	0	32836	32633	
2240	0	32808	32849	
2241	0	32828	32750	
2242	0	32712	32726	
2243	0	32788	32756	
2244	0	32652	32750	
2245	0	32750	32775	
2246	0	32609	32880	
2247	0	32680	32682	
2248	0	32778	32694	
2249	0	32774	32772	
2250	0	32784	32786	
2251	0	32785	32772	
2252	0	32880	32644	
2253	0	32794	32802	
2254	0	32876	32816	
2255	0	32970	32866	
2256	0	32828	32754	
2257	0	32842	32710	
2258	0	32880	32804	
2259	0	32832	32774	
2260	0	32952	32743	
2261	0	32826	32622	
2262	0	32816	32736	
2263	0	32824	32758	
2264	0	32764	32804	
2265	0	32836	32833	
2266	0	32804	32702	
2267	0	32756	32866	
2268	0	32688	32730	
2269	0	32776	32771	
2270	0	32816	32684	
2271	0	32756	32720	
2272	0	32842	32760	
2273	0	32882	32775	
2274	0	32806	32756	
2275	0	32828	32801	
2276	0	32860	32818	
2277	0	32888	32792	
2278	0	32900	32744	
2279	0	32858	32695	
2280	0	32880	32820	
2281	0	32784	32752	
2282	0	32790	32730	
2283	0	32736	32747	
2284	0	32764	32670	
2285	0	32808	32700	
2286	0	32772	32795	
2287	0	32780	32758	
2288	0	32732	32888	
2289	0	32724	32756	
2290	0	32788	32708	
2291	0	32878	32853	
2292	0	32852	32775	
2293	0	32872	32752	
2294	0	32908	32810	
2295	0	32844	32806	
2296	0	32656	32748	
2297	0	32644	32868	
2298	0	32682	32823	
2299	0	32632	32775	
2300	0	32681	32760	
2301	0	32792	32764	
2302	0	32820	32692	
2303	0	32968	32710	
2304	0	32892	32849	
2305	0	32942	32810	
2306	0	33136	32792	
2307	0	33024	32718	
2308	0	32888	32702	
2309	0	32892	32774	
2310	0	32708	32818	
2311	0	32786	32742	
2312	0	32802	32796	
2313	0	32744	32652	
2314	0	32500	32650	
2315	0	32452	32775	
2316	0	32608	32729	
2317	0	32618	32714	
2318	0	32692	32676	
2319	0	32696	32794	
2320	0	32954	32768	
2321	0	33204	32910	
2322	0	33320	32807	
2323	0	33080	32710	
2324	0	32856	32828	
2325	0	32742	32766	
2326	0	32716	32802	
2327	0	32664	32786	
2328	0	32572	32732	
2329	0	32576	32644	
2330	0	32628	32744	
2331	0	32734	32670	
2332	0	32732	32750	
2333	0	32868	32684	
2334	0	32906	32718	
2335	0	32940	32896	
2336	0	32892	32818	
2337	0	32837	32839	
2338	0	32708	32810	
2339	0	32752	32644	
2340	0	32744	32821	
2341	0	32808	32775	
2342	0	32808	32764	
2343	0	32912	32708	
2344	0	32848	32798	
2345	0	32922	32725	
2346	0	32994	32855	
2347	0	32984	32762	
2348	0	32849	32767	
2349	0	32724	32752	
2350	0	32862	32810	
2351	0	32796	32720	
2352	0	32824	32798	
2353	0	32748	32818	
2354	0	32732	32775	
2355	0	32782	32686	
2356	0	32808	32732	
2357	0	32850	32820	
2358	0	32802	32775	
2359	0	32878	32839	
2360	0	32776	32647	
2361	0	32884	32690	
2362	0	32810	32812	
2363	0	32908	32775	
2364	0	32886	32750	
2365	0	32796	32769	
2366	0	32664	32519	
2367	0	32790	32805	
2368	0	32732	32775	
2369	0	32752	32770	
2370	0	32732	32740	
2371	0	32672	32620	
2372	0	32700	32702	
2373	0	32704	32846	
2374	0	32740	32775	
2375	0	32744	32806	
2376	0	32756	32870	
2377	0	32800	32794	
2378	0	32884	32822	
2379	0	32844	32762	
2380	0	32812	32860	
2381	0	32840	32868	
2382	0	32862	32834	
2383	0	32904	32862	
2384	0	32804	32790	
2385	0	32980	32668	
2386	0	33028	32820	
2387	0	32908	32681	
2388	0	32902	32702	
2389	0	32788	32703	
2390	0	32818	32696	
2391	0	32816	32616	
2392	0	32766	32682	
2393	0	32624	32738	
2394	0	32704	32760	
2395	0	32660	32724	
2396	0	32734	32934	
2397	0	32640	32864	
2398	0	32708	32862	
2399	0	32762	32911	
2400	0	32654	32688	
2401	0	32540	32770	
2402	0	32724	32708	
2403	0	32816	32718	
2404	0	32972	32678	
2405	0	32994	32756	
2406	0	32906	32654	
2407	0	33044	32727	
2408	0	33092	32702	
2409	0	33044	32812	
2410	0	33180	32824	
2411	0	32868	32930	
2412	0	32798	32983	
2413	0	32792	33031	
2414	0	32576	32788	
2415	0	32686	32729	
2416	0	32856	32764	
2417	0	32752	32590	
2418	0	32754	32615	
2419	0	32950	32528	
2420	0	32780	32579	
2421	0	32600	32704	
2422	0	32572	32874	
2423	0	32476	32924	
2424	0	32434	32775	
2425	0	32560	32845	
2426	0	32676	32754	
2427	0	32756	32796	
2428	0	32792	32759	
2429	0	33060	32732	
2430	0	33066	32775	
2431	0	32972	32634	
2432	0	32988	32711	
2433	0	33092	32756	
2434	0	33044	32692	
2435	0	32960	32775	
2436	0	32856	32775	
2437	0	32880	32703	
2438	0	32796	32610	
2439	0	32788	32679	
2440	0	32840	32798	
2441	0	32748	32820	
2442	0	32892	32736	
2443	0	32820	32807	
2444	0	32848	32660	
2445	0	32872	32718	
2446	0	32862	32892	
2447	0	32794	32752	
2448	0	32744	32804	
2449	0	32744	32734	
2450	0	32826	32720	
2451	0	32680	32766	
2452	0	32832	32762	
2453	0	32844	32700	
2454	0	32680	32812	
2455	0	32800	32726	
2456	0	32772	32798	
2457	0	32864	32836	
2458	0	32816	32882	
2459	0	32842	32698	
2460	0	32788	32849	
2461	0	32846	32812	
2462	0	32804	32634	
2463	0	32868	32682	
2464	0	32720	32724	
2465	0	32606	32725	
2466	0	32816	32676	
2467	0	32932	32666	
2468	0	32932	32738	
2469	0	32938	32736	
2470	0	32846	32772	
2471	0	32796	32747	
2472	0	32736	32732	
2473	0	32708	32852	
2474	0	32764	32871	
2475	0	32673	32772	
2476	0	32708	32818	
2477	0	32712	32830	
2478	0	32844	32736	
2479	0	32774	32736	
2480	0	32692	32702	
2481	0	32754	32775	
2482	0	32640	32702	
2483	0	32610	32680	
2484	0	32648	32698	
2485	0	32812	32798	
2486	0	32856	32647	
2487	0	32932	32758	
2488	0	32894	32700	
2489	0	32784	32756	
2490	0	32864	32676	
2491	0	32746	32804	
2492	0	32752	32800	
2493	0	32800	32880	
2494	0	32784	32774	
2495	0	32876	32918	
2496	0	33076	32892	
2497	0	33078	32820	
2498	0	33040	32684	
2499	0	32824	32708	
2500	0	32748	32788	
2501	0	32600	32679	
2502	0	32680	32752	
2503	0	32476	32802	
2504	0	32390	32775	
2505	0	32576	32712	
2506	0	32608	32720	
2507	0	32814	32764	
2508	0	33036	32688	
2509	0	33024	32706	
2510	0	32848	32562	
2511	0	32832	32543	
2512	0	32842	32596	
2513	0	32818	32704	
2514	0	32796	32852	
2515	0	32588	32775	
2516	0	32592	32826	
2517	0	32712	32716	
2518	0	32910	32943	
2519	0	32676	32867	
2520	0	32648	33030	
2521	0	32682	32958	
2522	0	32912	32728	
2523	0	32976	32676	
2524	0	32986	32775	
2525	0	32896	32766	
2526	0	32910	32703	
2527	0	33020	32863	
2528	0	32922	32772	
2529	0	32706	32672	
2530	0	32610	32728	
2531	0	32832	32714	
2532	0	32869	32760	
2533	0	32824	32698	
2534	0	32766	32698	
2535	0	32816	32458	
2536	0	32772	32662	
2537	0	32642	32805	
2538	0	32636	32775	
2539	0	32760	32754	
2540	0	32750	32796	
2541	0	32768	32838	
2542	0	32812	32892	
2543	0	32964	32832	
2544	0	33084	32616	
2545	0	33032	32902	
2546	0	32924	32796	
2547	0	32912	32789	
2548	0	32788	32796	
2549	0	32653	32830	
2550	0	32604	32852	
2551	0	32604	32794	
2552	0	32554	32792	
2553	0	32680	32686	
2554	0	32768	32711	
2555	0	32868	32583	
2556	0	33088	32774	
2557	0	32948	32700	
2558	0	33032	32828	
2559	0	33148	32702	
2560	0	32928	32742	
2561	0	32830	32850	
2562	0	32712	32814	
2563	0	32580	32660	
2564	0	32574	32788	
2565	0	32628	32880	
2566	0	32566	32804	
2567	0	32756	32839	
2568	0	32864	32647	
2569	0	32780	32820	
2570	0	32788	32660	
2571	0	32948	32671	
2572	0	32998	32770	
2573	0	32928	32736	
2574	0	32612	32698	
2575	0	32644	32583	
2576	0	32608	32490	
2577	0	32760	32552	
2578	0	32656	32710	
2579	0	33088	32686	
2580	0	33120	32772	
2581	0	33224	32732	
2582	0	32932	32834	
2583	0	33140	32986	
2584	0	33034	32948	
2585	0	32524	33022	
2586	0	32418	32942	
2587	0	32418	32854	
2588	0	32160	32654	
2589	0	32364	32702	
2590	0	32410	32670	
2591	0	32880	32712	
2592	0	33304	32642	
2593	0	33292	32702	
2594	0	32866	32634	
2595	0	32776	32760	
2596	0	32942	32728	
2597	0	32736	32730	
2598	0	32476	32782	
2599	0	32316	32756	
2600	0	32424	32812	
2601	0	32440	33076	
2602	0	32688	32996	
2603	0	33120	33052	
2604	0	33048	33012	
2605	0	33168	33001	
2606	0	33164	32862	
2607	0	33076	32647	
2608	0	32812	32591	
2609	0	32784	32602	
2610	0	33188	32302	
2611	0	32896	32114	
2612	0	32648	32103	
2613	0	32584	32318	
2614	0	32752	32510	
2615	0	32802	32582	
2616	0	32604	32526	
2617	0	32358	32672	
2618	0	32724	33000	
2619	0	33006	33030	
2620	0	32676	33266	
2621	0	33100	33002	
2622	0	33310	32954	
2623	0	32784	33079	
2624	0	32560	33066	
2625	0	32640	32766	
2626	0	32484	32631	
2627	0	32342	32551	
2628	0	32300	32743	
2629	0	32217	32806	
2630	0	32260	32911	
2631	0	32880	33012	
2632	0	33776	33228	
2633	0	33628	33114	
2634	0	33228	32984	
2635	0	33412	32884	
2636	0	33936	32612	
2637	0	33490	32468	
2638	0	33044	32804	
2639	0	33128	32738	
2640	0	32772	32716	
2641	0	32656	32556	
2642	0	32606	32540	
2643	0	32708	32728	
2644	0	33080	32638	
2645	0	32742	32504	
2646	0	32364	32470	
2647	0	32140	32660	
2648	0	32100	32422	
2649	0	32178	32491	
2650	0	32366	32416	
2651	0	32470	32294	
2652	0	32508	32496	
2653	0	32538	32646	
2654	0	32708	32588	
2655	0	33104	32774	
2656	0	33090	32908	
2657	0	32816	32750	
2658	0	32992	33020	
2659	0	32988	33260	
2660	0	33116	33103	
2661	0	33322	33332	
2662	0	33108	33468	
2663	0	32604	33223	
2664	0	32650	33158	
2665	0	32504	32964	
2666	0	32800	32708	
2667	0	32840	32810	
2668	0	32884	32775	
2669	0	32590	32550	
2670	0	32468	32510	
2671	0	32456	32775	
2672	0	33078	32774	
2673	0	33544	32808	
2674	0	33322	32775	
2675	0	33348	32652	
2676	0	33014	32570	
2677	0	32588	32186	
2678	0	31716	32184	
2679	0	31744	32396	
2680	0	31936	32218	
2681	0	32200	32415	
2682	0	33016	32639	
2683	0	33432	32719	
2684	0	33392	32908	
2685	0	33448	33031	
2686	0	33512	32998	
2687	0	33570	33038	
2688	0	33016	32784	
2689	0	32756	32792	
2690	0	32632	32775	
2691	0	32580	32762	
2692	0	32868	32826	
2693	0	32924	32830	
2694	0	32396	32887	
2695	0	32240	33022	
2696	0	32480	33100	
2697	0	32472	33124	
2698	0	32564	32904	
2699	0	32894	32756	
2700	0	33484	32460	
2701	0	33286	32534	
2702	0	33252	32354	
2703	0	33160	32164	
2704	0	32704	32412	
2705	0	32652	32448	
2706	0	32920	32708	
2707	0	32774	32952	
2708	0	32750	32932	
2709	0	32588	32855	
2710	0	32514	32870	
2711	0	32468	32880	
2712	0	32490	32998	
2713	0	32714	32822	
2714	0	32736	32698	
2715	0	32848	32774	
2716	0	33122	32534	
2717	0	33148	32554	
2718	0	32842	32644	
2719	0	32492	32684	
2720	0	32720	32718	
2721	0	32836	32735	
2722	0	32868	32751	
2723	0	32706	32870	
2724	0	32798	32700	
2725	0	32884	32848	
2726	0	32856	32900	
2727	0	32692	32935	
2728	0	32804	33046	
2729	0	32824	33086	
2730	0	32864	32878	
2731	0	32920	32548	
2732	0	33108	32324	
2733	0	33228	32424	
2734	0	33130	32527	
2735	0	32960	32628	
2736	0	32625	32624	
2737	0	32376	32938	
2738	0	32262	32885	
2739	0	32180	32870	
2740	0	32518	32768	
2741	0	32992	32863	
2742	0	32650	33063	
2743	0	32370	33196	
2744	0	32535	32800	
2745	0	32922	32618	
2746	0	33176	32631	
2747	0	33264	32510	
2748	0	32968	32337	
2749	0	32572	32540	
2750	0	33036	32710	
2751	0	33064	32831	
2752	0	33114	32804	
2753	0	32724	32945	
2754	0	32958	32918	
2755	0	33020	32647	
2756	0	32500	32700	
2757	0	32204	32516	
2758	0	32244	32366	
2759	0	32522	32283	
2760	0	33104	32614	
2761	0	33578	32636	
2762	0	33220	32743	
2763	0	32998	33098	
2764	0	32832	33180	
2765	0	32744	33252	
2766	0	32668	33048	
2767	0	32670	33274	
2768	0	32890	33156	
2769	0	33050	32822	
2770	0	33336	32448	
2771	0	32758	32482	
2772	0	32420	32594	
2773	0	32100	32816	
2774	0	31880	32822	
2775	0	32252	32812	
2776	0	32740	32903	
2777	0	32382	32961	
2778	0	32526	32662	
2779	0	32904	32606	
2780	0	32964	32568	
2781	0	32528	32606	
2782	0	33020	32502	
2783	0	33048	32670	
2784	0	32968	32664	
2785	0	32908	32802	
2786	0	32916	32604	
2787	0	32908	32656	
2788	0	32904	32798	
2789	0	33172	32928	
2790	0	33008	32672	
2791	0	32876	32664	
2792	0	32918	32689	
2793	0	32664	32758	
2794	0	32872	32654	
2795	0	32808	32586	
2796	0	32848	32706	
2797	0	32796	32966	
2798	0	32668	32912	
2799	0	32768	33042	
2800	0	33500	32660	
2801	0	33840	32676	
2802	0	33254	32447	
2803	0	32542	32680	
2804	0	32108	32870	
2805	0	31702	32742	
2806	0	31694	32566	
2807	0	32700	32708	
2808	0	33392	32622	
2809	0	33576	32596	
2810	0	33656	32580	
2811	0	33472	32623	
2812	0	32710	32538	
2813	0	32844	32533	
2814	0	32720	32604	
2815	0	32850	32900	
2816	0	32860	32920	
2817	0	32950	32948	
2818	0	32914	32846	
2819	0	32726	32880	
2820	0	31942	32652	
2821	0	31532	32828	
2822	0	32034	33014	
2823	0	32576	33112	
2824	0	33492	33224	
2825	0	33582	33068	
2826	0	33572	32856	
2827	0	33024	32775	
2828	0	32752	32446	
2829	0	33616	32600	
2830	0	32828	32602	
2831	0	32542	32934	
2832	0	32836	32836	
2833	0	32494	33060	
2834	0	32100	33334	
2835	0	32206	33031	
2836	0	32512	32847	
2837	0	32868	32963	
2838	0	33016	32788	
2839	0	33210	32680	
2840	0	33700	32434	
2841	0	33080	32376	
2842	0	33336	32486	
2843	0	32920	32142	
2844	0	32188	32024	
2845	0	32738	32080	
2846	0	33178	32419	
2847	0	32416	32396	
2848	0	31806	32758	
2849	0	32300	32967	
2850	0	31856	32908	
2851	0	31608	33008	
2852	0	32024	33121	
2853	0	32800	33146	
2854	0	33712	33304	
2855	0	33592	33286	
2856	0	33348	33327	
2857	0	33224	33062	
2858	0	33076	32368	
2859	0	32780	32233	
2860	0	32806	32150	
2861	0	32458	32086	
2862	0	32212	32280	
2863	0	33018	32424	
2864	0	32680	32444	
2865	0	32796	32743	
2866	0	33188	33044	
2867	0	32958	33344	
2868	0	33349	33228	
2869	0	33730	33492	
2870	0	33548	33431	
2871	0	33368	33228	
2872	0	33120	33084	
2873	0	32252	32878	
2874	0	31868	32732	
2875	0	31770	32468	
2876	0	32100	32508	
2877	0	32568	32270	
2878	0	33226	32324	
2879	0	33564	32528	
2880	0	33058	32498	
2881	0	32984	32390	
2882	0	32912	32360	
2883	0	33124	32350	
2884	0	33100	32528	
2885	0	32916	32560	
2886	0	32864	32728	
2887	0	32612	32943	
2888	0	32286	33096	
2889	0	32214	33112	
2890	0	32168	33090	
2891	0	32692	33078	
2892	0	33404	33104	
2893	0	34066	33108	
2894	0	33914	32962	
2895	0	33180	32775	
2896	0	31806	32980	
2897	0	32324	32980	
2898	0	32200	32663	
2899	0	32352	32287	
2900	0	32744	32422	
2901	0	32032	32486	
2902	0	31828	32566	
2903	0	32652	32519	
2904	0	32820	32460	
2905	0	33176	32528	
2906	0	33647	32724	
2907	0	33468	32729	
2908	0	33220	32759	
2909	0	33614	32652	
2910	0	33460	32618	
2911	0	32692	32511	
2912	0	31930	32634	
2913	0	32090	32744	
2914	0	32454	32704	
2915	0	33088	32906	
2916	0	33524	32775	
2917	0	33058	32766	
2918	0	32418	32654	
2919	0	31856	32712	
2920	0	31966	32898	
2921	0	32988	32935	
2922	0	34068	33028	
2923	0	34300	32984	
2924	0	33022	32997	
2925	0	32584	32784	
2926	0	32432	32774	
2927	0	32764	32870	
2928	0	32832	33062	
2929	0	32808	32935	
2930	0	32006	33082	
2931	0	31966	32976	
2932	0	32404	32838	
2933	0	33336	32930	
2934	0	33156	32836	
2935	0	32938	32608	
2936	0	32604	32708	
2937	0	34118	32892	
2938	0	33650	33071	
2939	0	32036	32874	
2940	0	31402	32412	
2941	0	31280	31718	
2942	0	30766	32028	
2943	0	32648	32343	
2944	0	33016	32404	
2945	0	33330	32388	
2946	0	33196	32310	
2947	0	33296	32490	
2948	0	33408	32718	
2949	0	33151	32796	
2950	0	32968	33127	
2951	0	33544	33516	
2952	0	33636	33872	
2953	0	33712	33708	
2954	0	33830	33454	
2955	0	33222	33676	
2956	0	32170	33426	
2957	0	32000	32906	
2958	0	31492	32444	
2959	0	31362	32228	
2960	0	32012	32752	
2961	0	32900	33108	
2962	0	33000	32967	
2963	0	33666	32728	
2964	0	33016	32250	
2965	0	32592	32286	
2966	0	32716	32274	
2967	0	33288	32369	
2968	0	32798	32398	
2969	0	32892	32360	
2970	0	33016	32444	
2971	0	33506	32332	
2972	0	33820	32297	
2973	0	32866	32208	
2974	0	32450	32442	
2975	0	32512	32732	
2976	0	32164	32562	
2977	0	32440	32923	
2978	0	33218	33188	
2979	0	33312	33276	
2980	0	33434	33338	
2981	0	33207	33208	
2982	0	32576	32884	
2983	0	32272	32775	
2984	0	32288	32770	
2985	0	32052	32594	
2986	0	32232	32775	
2987	0	32620	32775	
2988	0	33092	32920	
2989	0	33434	32791	
2990	0	32952	32724	
2991	0	33292	32394	
2992	0	32696	32382	
2993	0	32518	32752	
2994	0	33040	32814	
2995	0	33112	32924	
2996	0	32088	32892	
2997	0	32480	32898	
2998	0	32628	32804	
2999	0	32316	32647	
3000	0	32502	32618	
3001	0	32366	32738	
3002	0	32778	32820	
3003	0	32920	32888	
3004	0	32606	33256	
3005	0	32888	33594	
3006	0	33868	33524	
3007	0	33528	32956	
3008	0	33364	32456	
3009	0	33012	32037	
3010	0	32330	32048	
3011	0	31544	32146	
3012	0	32544	32560	
3013	0	33444	32724	
3014	0	34004	32954	
3015	0	34086	32910	
3016	0	33684	32848	
3017	0	32536	32680	
3018	0	31702	32906	
3019	0	33000	33000	
3020	0	32080	32724	
3021	0	31414	33070	
3022	0	31304	33076	
3023	0	32132	32836	
3024	0	32256	33030	
3025	0	32206	32862	
3026	0	32912	32840	
3027	0	33290	32866	
3028	0	33764	32839	
3029	0	33650	32680	
3030	0	33604	32882	
3031	0	33188	32666	
3032	0	33340	32834	
3033	0	32806	32572	
3034	0	32712	32414	
3035	0	32816	32199	
3036	0	32526	32502	
3037	0	32270	32494	
3038	0	32786	32508	
3039	0	32640	32654	
3040	0	33004	32518	
3041	0	33352	32423	
3042	0	33328	32508	
3043	0	32994	33031	
3044	0	33116	33324	
3045	0	33196	32838	
3046	0	32812	32742	
3047	0	32084	32775	
3048	0	31712	32944	
3049	0	31700	33066	
3050	0	32552	32922	
3051	0	33392	32988	
3052	0	33356	32608	
3053	0	33922	32452	
3054	0	33620	32406	
3055	0	32436	32536	
3056	0	32428	32654	
3057	0	32816	32706	
3058	0	33342	33092	
3059	0	33324	32775	
3060	0	33926	32696	
3061	0	33120	32492	
3062	0	31784	32196	
3063	0	30648	32196	
3064	0	30268	32544	
3065	0	31264	32647	
3066	0	32390	32816	
3067	0	33376	32848	
3068	0	33116	32852	
3069	0	33096	32384	
3070	0	33396	32278	
3071	0	33632	32699	
3072	0	33340	32884	
3073	0	33560	33134	
3074	0	33674	32660	
3075	0	33310	32634	
3076	0	32984	33136	
3077	0	32860	33232	
3078	0	32356	33210	
3079	0	31708	33130	
3080	0	31642	32868	
3081	0	32688	32758	
3082	0	33772	32426	
3083	0	33388	32583	
3084	0	33210	32964	
3085	0	33446	32696	
3086	0	33220	32968	
3087	0	32736	32740	
3088	0	31884	32318	
3089	0	32036	32598	
3090	0	32096	32814	
3091	0	32828	32695	
3092	0	33594	32516	
3093	0	33510	32138	
3094	0	33192	32212	
3095	0	32626	32468	
3096	0	32892	32775	
3097	0	32364	33354	
3098	0	32572	33212	
3099	0	32706	33336	
3100	0	32644	33410	
3101	0	33388	33152	
3102	0	33376	33108	
3103	0	32740	33046	
3104	0	31958	33012	
3105	0	32150	32785	
3106	0	33060	32618	
3107	0	33328	32708	
3108	0	33132	32806	
3109	0	32186	32641	
3110	0	32024	32260	
3111	0	31460	31876	
3112	0	31764	31840	
3113	0	33240	32182	
3114	0	33182	32546	
3115	0	33088	32802	
3116	0	33504	33243	
3117	0	33754	33651	
3118	0	34652	33168	
3119	0	33422	32596	
3120	0	32990	32468	
3121	0	31888	32734	
3122	0	31388	32606	
3123	0	31260	32214	
3124	0	31018	32616	
3125	0	32024	32872	
3126	0	33794	32924	
3127	0	34054	32742	
3128	0	33294	33296	
3129	0	33052	33268	
3130	0	33140	33470	
3131	0	33320	33018	
3132	0	33080	32606	
3133	0	33208	32254	
3134	0	32842	32202	
3135	0	32828	32370	
3136	0	32502	32444	
3137	0	32478	32554	
3138	0	32516	32820	
3139	0	32480	32700	
3140	0	32756	32734	
3141	0	32986	32661	
3142	0	33516	32758	
3143	0	33412	32474	
3144	0	32886	32252	
3145	0	32808	32476	
3146	0	33026	32335	
3147	0	32140	32614	
3148	0	32514	32614	
3149	0	32706	32594	
3150	0	32008	32712	
3151	0	32164	32990	
3152	0	32480	32983	
3153	0	32974	33084	
3154	0	33392	33062	
3155	0	33486	33048	
3156	0	32504	32708	
3157	0	32482	32570	
3158	0	32120	32594	
3159	0	32220	32478	
3160	0	32720	32484	
3161	0	33348	33000	
3162	0	33182	33364	
3163	0	33172	33279	
3164	0	33024	33240	
3165	0	32948	33460	
3166	0	33174	33575	
3167	0	33256	32902	
3168	0	33348	32830	
3169	0	33036	32815	
3170	0	32500	32922	
3171	0	32078	32940	
3172	0	32052	32562	
3173	0	32260	32081	
3174	0	32546	32366	
3175	0	32948	32718	
3176	0	33818	32800	
3177	0	34090	32242	
3178	0	34472	32292	
3179	0	33472	32226	
3180	0	32210	32346	
3181	0	32248	32678	
3182	0	32640	32770	
3183	0	31948	32772	
3184	0	31472	32839	
3185	0	30882	32647	
3186	0	32064	32444	
3187	0	32580	31892	
3188	0	32904	31600	
3189	0	33628	31844	
3190	0	33780	32182	
3191	0	33302	32391	
3192	0	33474	33287	
3193	0	33156	33850	
3194	0	32848	34092	
3195	0	33126	34092	
3196	0	32936	33943	
3197	0	32928	33820	
3198	0	32796	33623	
3199	0	33260	33528	
3200	0	33176	33350	
3201	0	32436	33382	
3202	0	32246	33370	
3203	0	32022	32988	
3204	0	32912	32807	
3205	0	32458	32462	
3206	0	32364	32486	
3207	0	32742	32330	
3208	0	32616	32328	
3209	0	33052	32234	
3210	0	33028	32116	
3211	0	33292	32218	
3212	0	33036	32534	
3213	0	32984	32542	
3214	0	32666	32094	
3215	0	32704	32462	
3216	0	32920	32596	
3217	0	32872	32632	
3218	0	32616	32546	
3219	0	32408	32300	
3220	0	32273	32259	
3221	0	32748	32594	
3222	0	32842	32812	
3223	0	32442	33111	
3224	0	32736	33233	
3225	0	32932	32988	
3226	0	32638	33415	
3227	0	33036	33442	
3228	0	33634	33474	
3229	0	33716	33450	
3230	0	32900	33272	
3231	0	32808	33106	
3232	0	32734	32908	
3233	0	32592	32614	
3234	0	32640	32284	
3235	0	33420	32414	
3236	0	32292	32698	
3237	0	32440	32514	
3238	0	32392	32820	
3239	0	33246	32844	
3240	0	33258	32148	
3241	0	32604	31920	
3242	0	32062	32420	
3243	0	32482	32500	
3244	0	32964	31990	
3245	0	32994	32604	
3246	0	32852	32745	
3247	0	32980	32656	
3248	0	32994	32816	
3249	0	32988	33124	
3250	0	32858	33070	
3251	0	32832	33198	
3252	0	32860	33106	
3253	0	32774	32967	
3254	0	32952	32796	
3255	0	32758	32822	
3256	0	32922	32800	
3257	0	32778	32538	
3258	0	32916	32722	
3259	0	33084	32676	
3260	0	32772	32820	
3261	0	32350	32872	
3262	0	32192	32894	
3263	0	32598	32928	
3264	0	33120	32910	
3265	0	33908	32922	
3266	0	34044	32881	
3267	0	33212	32528	
3268	0	32752	32228	
3269	0	32408	31518	
3270	0	32010	31492	
3271	0	31850	32014	
3272	0	31806	32324	
3273	0	31880	33018	
3274	0	32224	33287	
3275	0	32742	33612	
3276	0	32860	33959	
3277	0	33306	33895	
3278	0	33098	33639	
3279	0	33332	33418	
3280	0	33470	32984	
3281	0	33320	32864	
3282	0	32798	32512	
3283	0	32504	32559	
3284	0	32862	32532	
3285	0	33550	32758	
3286	0	33182	32966	
3287	0	33122	33103	
3288	0	32878	32974	
3289	0	32644	32424	
3290	0	33008	32196	
3291	0	33654	32366	
3292	0	33236	32198	
3293	0	32990	32326	
3294	0	32600	32646	
3295	0	31964	32944	
3296	0	31876	32950	
3297	0	32060	32932	
3298	0	32296	32977	
3299	0	33036	32854	
3300	0	32996	33060	
3301	0	33114	33088	
3302	0	32612	32711	
3303	0	32368	32556	
3304	0	32756	32740	
3305	0	33550	32766	
3306	0	33280	32948	
3307	0	33328	33018	
3308	0	33166	32740	
3309	0	32604	32657	
3310	0	32488	32478	
3311	0	32986	31991	
3312	0	32326	31850	
3313	0	32348	31978	
3314	0	32214	31960	
3315	0	32458	32214	
3316	0	32804	32607	
3317	0	33486	33087	
3318	0	33140	33342	
3319	0	32308	33368	
3320	0	32696	33444	
3321	0	32350	33142	
3322	0	32776	32970	
3323	0	33692	32720	
3324	0	33252	32372	
3325	0	33160	32664	
3326	0	32836	33018	
3327	0	32392	33064	
3328	0	31924	33031	
3329	0	32474	32970	
3330	0	33256	33020	
3331	0	32808	32959	
3332	0	32916	32816	
3333	0	32700	32932	
3334	0	32792	33110	
3335	0	32878	33054	
3336	0	33358	33046	
3337	0	32852	32802	
3338	0	32650	32824	
3339	0	33320	32750	
3340	0	32500	32510	
3341	0	32516	32654	
3342	0	32712	32323	
3343	0	32792	32402	
3344	0	33088	32338	
3345	0	33174	32560	
3346	0	33052	32560	
3347	0	32632	32495	
3348	0	31990	32258	
3349	0	32056	32470	
3350	0	32512	32708	
3351	0	33040	32774	
3352	0	32848	32876	
3353	0	33080	32981	
3354	0	33576	32943	
3355	0	33626	33046	
3356	0	32896	33152	
3357	0	32470	32994	
3358	0	32512	32948	
3359	0	32986	32844	
3360	0	33008	32712	
3361	0	32812	32531	
3362	0	32834	32528	
3363	0	32580	32454	
3364	0	32325	32372	
3365	0	32604	32396	
3366	0	32834	32712	
3367	0	33032	33060	
3368	0	32714	32775	
3369	0	32904	32620	
3370	0	32892	32745	
3371	0	33062	33044	
3372	0	32758	32900	
3373	0	32540	33120	
3374	0	32880	33222	
3375	0	33113	33191	
3376	0	33128	32849	
3377	0	32726	32775	
3378	0	32504	32640	
3379	0	32938	32800	
3380	0	33112	32862	
3381	0	32838	33015	
3382	0	32528	32804	
3383	0	32510	32452	
3384	0	32580	32412	
3385	0	33174	32568	
3386	0	33140	32604	
3387	0	32800	32687	
3388	0	32796	32750	
3389	0	32464	32884	
3390	0	32238	33058	
3391	0	32816	32798	
3392	0	32916	32332	
3393	0	32656	32454	
3394	0	32268	32452	
3395	0	32588	32648	
3396	0	32644	32472	
3397	0	32716	32518	
3398	0	33684	32678	
3399	0	33700	32900	
3400	0	33196	32604	
3401	0	32928	32990	
3402	0	32890	33008	
3403	0	32804	33060	
3404	0	32676	32934	
3405	0	33034	32964	
3406	0	32962	33018	
3407	0	32544	32882	
3408	0	32584	32590	
3409	0	32816	32724	
3410	0	32802	32760	
3411	0	32808	32654	
3412	0	32908	32775	
3413	0	32982	32738	
3414	0	32863	32662	
3415	0	32864	32694	
3416	0	32800	32860	
3417	0	32792	32679	
3418	0	32936	32664	
3419	0	32822	32726	
3420	0	32690	32751	
3421	0	32820	32958	
3422	0	33042	32946	
3423	0	32948	33154	
3424	0	32800	32887	
3425	0	32776	32844	
3426	0	32876	32711	
3427	0	32988	32702	
3428	0	32968	32647	
3429	0	33076	32690	
3430	0	32894	32796	
3431	0	32808	32732	
3432	0	32568	32616	
3433	0	32556	32410	
3434	0	32560	32370	
3435	0	32624	32420	
3436	0	32660	32388	
3437	0	32524	32796	
3438	0	32664	32900	
3439	0	32664	33046	
3440	0	32776	33102	
3441	0	32816	33191	
3442	0	32714	33238	
3443	0	32680	32908	
3444	0	32632	32953	
3445	0	32608	32726	
3446	0	32752	32710	
3447	0	32730	32770	
3448	0	32760	32710	
3449	0	32830	32492	
3450	0	32852	32762	
3451	0	32708	32728	
3452	0	32764	32943	
3453	0	32804	32804	
3454	0	33106	32728	
3455	0	33232	32670	
3456	0	32870	32600	
3457	0	32630	32732	
3458	0	32690	32663	
3459	0	32434	32500	
3460	0	32412	32442	
3461	0	32852	32704	
3462	0	32634	33020	
3463	0	32826	33287	
3464	0	32688	33062	
3465	0	32570	32804	
3466	0	32564	32631	
3467	0	32650	32644	
3468	0	32716	32354	
3469	0	32786	32455	
3470	0	32780	32680	
3471	0	32862	32738	
3472	0	32900	32822	
3473	0	33232	32962	
3474	0	33036	33138	
3475	0	32900	33203	
3476	0	32772	33454	
3477	0	32880	33543	
3478	0	32910	33265	
3479	0	32812	32748	
3480	0	32806	32510	
3481	0	32840	32514	
3482	0	32972	32564	
3483	0	33176	32423	
3484	0	32858	32532	
3485	0	32360	32532	
3486	0	31940	32519	
3487	0	32229	32349	
3488	0	32606	32384	
3489	0	32494	32542	
3490	0	32840	32550	
3491	0	33012	32714	
3492	0	33042	33336	
3493	0	32934	33412	
3494	0	33112	32971	
3495	0	33108	32863	
3496	0	33062	32737	
3497	0	32776	32647	
3498	0	32832	32564	
3499	0	32992	32424	
3500	0	32852	32582	
3501	0	32756	32551	
3502	0	32852	32775	
3503	0	32844	32968	
3504	0	32818	32986	
3505	0	32768	32894	
3506	0	32727	32936	
3507	0	32720	33060	
3508	0	32658	32838	
3509	0	32928	32656	
3510	0	33212	32847	
3511	0	32744	32820	
3512	0	32526	32644	
3513	0	32416	32774	
3514	0	32416	32740	
3515	0	33198	32716	
3516	0	33204	32586	
3517	0	33156	32476	
3518	0	32792	32568	
3519	0	32594	32734	
3520	0	32672	32674	
3521	0	32700	32668	
3522	0	32720	32672	
3523	0	32728	32764	
3524	0	32880	32614	
3525	0	32936	32534	
3526	0	32898	32572	
3527	0	32724	32775	
3528	0	32852	32842	
3529	0	32922	32911	
3530	0	32944	32812	
3531	0	33032	32852	
3532	0	33016	32856	
3533	0	32996	32894	
3534	0	32826	32998	
3535	0	32656	32847	
3536	0	32692	32871	
3537	0	32632	32794	
3538	0	32992	32775	
3539	0	32796	32927	
3540	0	32792	32694	
3541	0	32840	32742	
3542	0	32912	32828	
3543	0	32926	32708	
3544	0	32628	32653	
3545	0	32724	32401	
3546	0	32810	32532	
3547	0	32772	32524	
3548	0	32708	32580	
3549	0	32748	32543	
3550	0	32776	32732	
3551	0	32774	32874	
3552	0	32913	32720	
3553	0	32976	32984	
3554	0	32994	33054	
3555	0	33312	33122	
3556	0	33544	33226	
3557	0	33476	33143	
3558	0	33272	32910	
3559	0	33142	32348	
3560	0	32800	32600	
3561	0	32566	32839	
3562	0	32326	32872	
3563	0	32390	32774	
3564	0	32340	32574	
3565	0	32216	32742	
3566	0	32312	32538	
3567	0	32400	32503	
3568	0	32606	32512	
3569	0	32548	32788	
3570	0	32640	32684	
3571	0	32852	32593	
3572	0	32742	32735	
3573	0	32592	32647	
3574	0	32820	32810	
3575	0	33177	32934	
3576	0	33324	32911	
3577	0	33932	32706	
3578	0	34196	32544	
3579	0	33876	32519	
3580	0	33492	32724	
3581	0	32940	32868	
3582	0	32664	32958	
3583	0	32284	33140	
3584	0	31840	33018	
3585	0	31720	32974	
3586	0	31888	33054	
3587	0	32336	32679	
3588	0	32504	32584	
3589	0	32672	32506	
3590	0	32904	32569	
3591	0	32820	32614	
3592	0	32743	32706	
3593	0	32614	32796	
3594	0	32358	32680	
3595	0	32108	32924	
3596	0	32336	32743	
3597	0	32644	32988	
3598	0	32580	32756	
3599	0	32706	32678	
3600	0	32816	32826	
3601	0	32968	32836	
3602	0	33154	32887	
3603	0	33052	32774	
3604	0	33056	32898	
3605	0	33204	32848	
3606	0	33180	32700	
3607	0	32888	32754	
3608	0	32834	32727	
3609	0	32898	32732	
3610	0	33096	32734	
3611	0	32932	32846	
3612	0	33028	32800	
3613	0	33092	32916	
3614	0	32986	33007	
3615	0	32980	32942	
3616	0	32858	32926	
3617	0	32730	32868	
3618	0	32672	32825	
3619	0	32580	32792	
3620	0	32678	32702	
3621	0	32732	32697	
3622	0	32780	32642	
3623	0	32734	32456	
3624	0	33108	32572	
3625	0	32870	32753	
3626	0	32492	32854	
3627	0	32728	32906	
3628	0	32848	32812	
3629	0	33186	32692	
3630	0	33596	32632	
3631	0	33268	32722	
3632	0	33024	32770	
3633	0	32836	32647	
3634	0	32656	32578	
3635	0	32710	32535	
3636	0	32814	32412	
3637	0	32912	32418	
3638	0	32992	32592	
3639	0	33070	32762	
3640	0	33114	33119	
3641	0	33004	33300	
3642	0	32902	33370	
3643	0	32998	33238	
3644	0	33112	33192	
3645	0	33038	33210	
3646	0	33002	33252	
3647	0	32962	33128	
3648	0	32956	33076	
3649	0	32772	32868	
3650	0	32836	32738	
3651	0	32766	32692	
3652	0	32912	32622	
3653	0	32904	32506	
3654	0	33028	32380	
3655	0	33038	32330	
3656	0	32940	32110	
3657	0	32610	32138	
3658	0	32567	32020	
3659	0	32536	32142	
3660	0	32656	32562	
3661	0	32724	32748	
3662	0	32900	33070	
3663	0	33004	33080	
3664	0	32930	32975	
3665	0	32862	32980	
3666	0	32982	33016	
3667	0	32600	32647	
3668	0	32668	32458	
3669	0	32642	32594	
3670	0	32709	32346	
3671	0	32566	32442	
3672	0	32524	32230	
3673	0	32392	32398	
3674	0	32248	32607	
3675	0	32514	32655	
3676	0	32612	32740	
3677	0	32936	32732	
3678	0	32940	32871	
3679	0	32944	33057	
3680	0	33176	33122	
3681	0	33340	33156	
3682	0	33100	33132	
3683	0	33172	32774	
3684	0	33156	32600	
3685	0	32968	32920	
3686	0	33296	32902	
3687	0	33546	32824	
3688	0	33294	32871	
3689	0	33000	32404	
3690	0	33040	32116	
3691	0	33134	32334	
3692	0	32682	32398	
3693	0	32176	32554	
3694	0	31982	32788	
3695	0	31860	32908	
3696	0	32040	32847	
3697	0	32040	32774	
3698	0	32160	32902	
3699	0	32124	32764	
3700	0	32332	32868	
3701	0	32544	32608	
3702	0	32940	32594	
3703	0	33224	32766	
3704	0	33136	32630	
3705	0	32977	32743	
3706	0	32834	32775	
3707	0	33152	32842	
3708	0	33422	33116	
3709	0	33476	33136	
3710	0	33468	33210	
3711	0	33436	33012	
3712	0	33376	32668	
3713	0	33172	32584	
3714	0	32778	32807	
3715	0	32384	32768	
3716	0	32388	33046	
3717	0	32508	32928	
3718	0	32336	32980	
3719	0	32136	32806	
3720	0	32204	32560	
3721	0	32304	32406	
3722	0	32308	32490	
3723	0	32610	32504	
3724	0	32832	32726	
3725	0	32812	33039	
3726	0	32666	33256	
3727	0	32784	33246	
3728	0	32926	33232	
3729	0	33126	32999	
3730	0	33316	32880	
3731	0	33252	32738	
3732	0	33418	32652	
3733	0	33432	32872	
3734	0	33432	33248	
3735	0	33680	33351	
3736	0	33824	33280	
3737	0	33732	33020	
3738	0	33717	32976	
3739	0	33332	32871	
3740	0	33040	32839	
3741	0	32558	32692	
3742	0	32352	32854	
3743	0	32010	32696	
3744	0	32164	32838	
3745	0	32264	32508	
3746	0	32332	32600	
3747	0	32300	32550	
3748	0	32392	32684	
3749	0	32410	32542	
3750	0	32132	32803	
3751	0	32209	32615	
3752	0	32504	32660	
3753	0	32672	32727	
3754	0	32852	32671	
3755	0	32880	32856	
3756	0	32774	32764	
3757	0	32548	32614	
3758	0	32456	32678	
3759	0	32390	32839	
3760	0	32440	32680	
3761	0	32440	32472	
3762	0	32484	32688	
3763	0	32484	32897	
3764	0	32520	32958	
3765	0	32504	32954	
3766	0	32604	33006	
3767	0	32624	32854	
3768	0	32520	32990	
3769	0	32982	32814	
3770	0	33176	33018	
3771	0	33096	32862	
3772	0	33024	32906	
3773	0	33200	32962	
3774	0	33304	32820	
3775	0	33136	32704	
3776	0	33066	32690	
3777	0	33108	32626	
3778	0	33072	32588	
3779	0	32688	32722	
3780	0	32492	32538	
3781	0	32336	32775	
3782	0	32448	32750	
3783	0	32494	33026	
3784	0	32792	32932	
3785	0	33018	32906	
3786	0	33232	32958	
3787	0	33356	32860	
3788	0	33182	32760	
3789	0	33160	32682	
3790	0	32852	32774	
3791	0	32938	32852	
3792	0	33152	32806	
3793	0	33224	32754	
3794	0	33148	32756	
3795	0	33220	32718	
3796	0	33064	32834	
3797	0	32948	32814	
3798	0	32926	32724	
3799	0	32884	32690	
3800	0	32838	32700	
3801	0	33084	32739	
3802	0	32952	33092	
3803	0	32896	33153	
3804	0	32820	33090	
3805	0	32742	33094	
3806	0	32664	32960	
3807	0	32566	32986	
3808	0	32524	32856	
3809	0	32660	32820	
3810	0	32560	32818	
3811	0	32748	32615	
3812	0	32876	32760	
3813	0	33144	32652	
3814	0	33172	32496	
3815	0	33296	32486	
3816	0	33348	32370	
3817	0	33154	32446	
3818	0	32929	32428	
3819	0	32812	32544	
3820	0	32644	32612	
3821	0	32688	32641	
3822	0	32674	32992	
3823	0	32754	32820	
3824	0	32548	32940	
3825	0	32532	33002	
3826	0	32468	32904	
3827	0	32160	32808	
3828	0	32252	32766	
3829	0	32220	32644	
3830	0	32188	32484	
3831	0	32216	32424	
3832	0	32432	32574	
3833	0	32652	32582	
3834	0	32512	32704	
3835	0	32328	32666	
3836	0	31748	32879	
3837	0	32284	32768	
3838	0	32696	32914	
3839	0	32948	32708	
3840	0	32916	32626	
3841	0	32640	32676	
3842	0	32504	32775	
3843	0	32500	32762	
3844	0	32648	32550	
3845	0	32590	32460	
3846	0	32844	32564	
3847	0	33000	32626	
3848	0	33030	32566	
3849	0	33060	32630	
3850	0	33136	32870	
3851	0	33120	33068	
3852	0	33196	32918	
3853	0	33240	32930	
3854	0	33184	32775	
3855	0	32980	32700	
3856	0	32858	32680	
3857	0	32680	32808	
3858	0	32626	32756	
3859	0	32661	32796	
3860	0	32636	32686	
3861	0	32648	32642	
3862	0	32868	32802	
3863	0	32974	32775	
3864	0	33080	32992	
3865	0	33100	33042	
3866	0	33736	32992	
3867	0	33630	32985	
3868	0	33004	32783	
3869	0	32340	32890	
3870	0	32036	32812	
3871	0	32120	32868	
3872	0	32492	32703	
3873	0	32930	32606	
3874	0	32968	32768	
3875	0	32716	32633	
3876	0	32612	32511	
3877	0	32488	32564	
3878	0	32572	32414	
3879	0	33000	32478	
3880	0	32892	32826	
3881	0	32664	32999	
3882	0	32736	33012	
3883	0	33340	32884	
3884	0	33448	32572	
3885	0	33446	32596	
3886	0	33220	32728	
3887	0	32760	32716	
3888	0	32308	32818	
3889	0	32164	32570	
3890	0	32096	32668	
3891	0	32392	32592	
3892	0	32622	32494	
3893	0	32750	32518	
3894	0	32824	32508	
3895	0	32828	32502	
3896	0	33136	32442	
3897	0	33212	32426	
3898	0	33238	32410	
3899	0	32970	32580	
3900	0	32764	32592	
3901	0	32638	32590	
3902	0	32682	32584	
3903	0	32738	32551	
3904	0	32624	32668	
3905	0	32778	32544	
3906	0	33060	32636	
3907	0	33114	32564	
3908	0	33132	32618	
3909	0	33244	32772	
3910	0	33104	33030	
3911	0	32872	32943	
3912	0	32840	32976	
3913	0	33000	32886	
3914	0	33016	32862	
3915	0	32960	32846	
3916	0	32908	32751	
3917	0	32742	32716	
3918	0	32754	32900	
3919	0	32838	33167	
3920	0	32844	33316	
3921	0	32744	33234	
3922	0	32660	33174	
3923	0	32676	32927	
3924	0	32704	32926	
3925	0	32634	33062	
3926	0	32842	32958	
3927	0	32906	32906	
3928	0	32952	32807	
3929	0	33040	32726	
3930	0	32924	32578	
3931	0	32820	32620	
3932	0	32876	32647	
3933	0	33168	32652	
3934	0	33144	32642	
3935	0	33024	32816	
3936	0	32830	32858	
3937	0	32592	33031	
3938	0	32436	33062	
3939	0	32420	32828	
3940	0	32588	32574	
3941	0	32668	32564	
3942	0	32738	32490	
3943	0	32712	32519	
3944	0	32680	32464	
3945	0	32744	32606	
3946	0	32758	32716	
3947	0	32716	32976	
3948	0	32742	33046	
3949	0	32624	33114	
3950	0	32932	33364	
3951	0	33110	33304	
3952	0	33348	33335	
3953	0	33604	33162	
3954	0	33490	33090	
3955	0	33290	33106	
3956	0	32848	32846	
3957	0	32636	32900	
3958	0	32412	32742	
3959	0	32484	32616	
3960	0	32678	32558	
3961	0	32836	32625	
3962	0	32900	32608	
3963	0	32620	32510	
3964	0	32452	32674	
3965	0	32324	32646	
3966	0	32340	32610	
3967	0	32516	32519	
3968	0	32624	32646	
3969	0	32756	32806	
3970	0	32760	32558	
3971	0	32734	32807	
3972	0	32590	32834	
3973	0	32716	32711	
3974	0	33196	32775	
3975	0	33876	32782	
3976	0	34124	32748	
3977	0	33646	32894	
3978	0	32884	32843	
3979	0	32572	32836	
3980	0	32164	32800	
3981	0	32126	32876	
3982	0	32396	32798	
3983	0	32422	32774	
3984	0	32452	32874	
3985	0	32642	32938	
3986	0	32404	32836	
3987	0	32544	32831	
3988	0	32630	32918	
3989	0	32864	32886	
3990	0	32920	32802	
3991	0	32984	32982	
3992	0	33297	32836	
3993	0	33956	32788	
3994	0	34148	32814	
3995	0	34142	32620	
3996	0	33538	32674	
3997	0	33034	32682	
3998	0	32480	32806	
3999	0	32160	32737	
4000	0	32008	32722	
4001	0	31904	32698	
4002	0	32038	32750	
4003	0	32148	32730	
4004	0	32100	32647	
4005	0	32126	32758	
4006	0	32312	32766	
4007	0	32294	32847	
4008	0	32474	32632	
4009	0	32752	32796	
4010	0	32888	32658	
4011	0	33155	32532	
4012	0	33160	32435	
4013	0	33056	32610	
4014	0	32964	32712	
4015	0	32976	32698	
4016	0	32888	32864	
4017	0	33088	33093	
4018	0	33152	33127	
4019	0	33192	33084	
4020	0	33136	32940	
4021	0	33224	32942	
4022	0	33236	32715	
4023	0	33206	32670	
4024	0	33104	32562	
4025	0	33120	32390	
4026	0	32984	32538	
4027	0	32908	32551	
4028	0	32700	32420	
4029	0	32684	32463	
4030	0	32660	32519	
4031	0	32454	32400	
4032	0	32394	32542	
4033	0	32432	32583	
4034	0	32480	32660	
4035	0	32372	32478	
4036	0	32486	32662	
4037	0	32544	32734	
4038	0	32652	32634	
4039	0	32658	32727	
4040	0	32746	32750	
4041	0	32792	32534	
4042	0	32872	32588	
4043	0	33012	32561	
4044	0	33012	32440	
4045	0	33108	32519	
4046	0	33160	32486	
4047	0	33082	32576	
4048	0	33104	32586	
4049	0	33020	32665	
4050	0	32870	32511	
4051	0	32884	32550	
4052	0	33048	32807	
4053	0	33092	32743	
4054	0	33108	32864	
4055	0	33004	32840	
4056	0	32968	32854	
4057	0	32916	33054	
4058	0	33034	33012	
4059	0	32784	33146	
4060	0	32604	33102	
4061	0	32666	33166	
4062	0	32382	33172	
4063	0	32360	33063	
4064	0	32360	33094	
4065	0	32468	32918	
4066	0	32640	32911	
4067	0	32836	32956	
4068	0	32974	32878	
4069	0	33020	32946	
4070	0	32882	32930	
4071	0	32796	32879	
4072	0	32704	33044	
4073	0	32584	33046	
4074	0	32588	32841	
4075	0	32760	32967	
4076	0	33048	32966	
4077	0	33056	32991	
4078	0	33100	32954	
4079	0	32994	32958	
4080	0	32926	33066	
4081	0	33028	33042	
4082	0	32908	32892	
4083	0	32790	33088	
4084	0	32910	32954	
4085	0	33078	32878	
4086	0	32828	32938	
4087	0	32644	32951	
4088	0	32532	32750	
4089	0	32400	32812	
4090	0	32352	32768	
4091	0	32512	32766	
4092	0	32524	32788	
4093	0	32636	32626	
4094	0	32832	32762	
4095	0	32856	32670	
4096	0	32874	32764	
4097	0	32824	32746	
4098	0	32956	32810	
4099	0	32872	32660	
4100	0	32992	32786	
4101	0	33076	32742	
4102	0	33080	32719	
4103	0	33416	32844	
4104	0	33586	32714	
4105	0	33434	32647	
4106	0	33088	32551	
4107	0	32832	32472	
4108	0	32576	32468	
4109	0	32164	32422	
4110	0	32132	32391	
4111	0	32300	32334	
4112	0	32436	32452	
4113	0	32614	32394	
4114	0	32564	32572	
4115	0	32644	32510	
4116	0	33008	32528	
4117	0	33132	32564	
4118	0	33072	32464	
4119	0	32876	32504	
4120	0	32596	32640	
4121	0	32444	32596	
4122	0	32466	32743	
4123	0	32600	32710	
4124	0	32714	32742	
4125	0	32900	32796	
4126	0	32984	32775	
4127	0	33018	32828	
4128	0	32964	32838	
4129	0	33164	32910	
4130	0	33258	32850	
4131	0	33340	32916	
4132	0	33366	32928	
4133	0	33202	32842	
4134	0	33096	32775	
4135	0	32868	32874	
4136	0	32562	32760	
4137	0	32352	32982	
4138	0	32384	32892	
4139	0	32404	33118	
4140	0	32264	32967	
4141	0	32280	33004	
4142	0	32296	32910	
4143	0	32504	32762	
4144	0	32602	32764	
4145	0	32788	32544	
4146	0	32888	32823	
4147	0	33152	32768	
4148	0	33096	32682	
4149	0	32960	32698	
4150	0	33072	32628	
4151	0	33076	32658	
4152	0	33020	32775	
4153	0	33008	32912	
4154	0	32942	32834	
4155	0	32906	32842	
4156	0	32832	32764	
4157	0	32852	32768	
4158	0	32996	32763	
4159	0	33144	32670	
4160	0	33098	32775	
4161	0	33249	32846	
4162	0	33140	33008	
4163	0	33032	32740	
4164	0	32844	32814	
4165	0	32618	32900	
4166	0	32680	32892	
4167	0	32807	32856	
4168	0	32920	32622	
4169	0	32574	32746	
4170	0	32404	32724	
4171	0	32442	32727	
4172	0	32518	32642	
4173	0	32422	32600	
4174	0	32532	32666	
4175	0	32544	32816	
4176	0	32674	32830	
4177	0	32680	32844	
4178	0	32655	32711	
4179	0	32522	32676	
4180	0	32708	32572	
4181	0	32734	32655	
4182	0	32724	32686	
4183	0	32812	32590	
4184	0	32900	32886	
4185	0	32906	32708	
4186	0	33028	32812	
4187	0	32966	32678	
4188	0	33004	32647	
4189	0	32986	32768	
4190	0	32980	32822	
4191	0	33002	32746	
4192	0	33028	32862	
4193	0	32876	32847	
4194	0	32838	32991	
4195	0	32916	32775	
4196	0	32724	32914	
4197	0	32860	32806	
4198	0	33032	33003	
4199	0	32868	32856	
4200	0	32900	32886	
4201	0	32910	32842	
4202	0	32820	32934	
4203	0	32860	32735	
4204	0	32992	32999	
4205	0	32944	32870	
4206	0	33000	32970	
4207	0	33164	32826	
4208	0	33030	32912	
4209	0	32874	32814	
4210	0	32776	32862	
4211	0	32654	32722	
4212	0	32544	32834	
4213	0	32416	32804	
4214	0	32240	32708	
4215	0	32104	32880	
4216	0	32128	32932	
4217	0	32389	32839	
4218	0	32632	32630	
4219	0	32840	32695	
4220	0	32824	32640	
4221	0	32820	32604	
4222	0	33040	32804	
4223	0	33018	32900	
4224	0	33040	33031	
4225	0	32960	32896	
4226	0	32922	32816	
4227	0	33000	32692	
4228	0	33004	32642	
4229	0	33030	32750	
4230	0	32972	32660	
4231	0	32768	32740	
4232	0	32688	32750	
4233	0	32629	32728	
4234	0	32452	32774	
4235	0	32442	32716	
4236	0	32614	32762	
4237	0	32576	32666	
4238	0	32708	32699	
4239	0	32804	32562	
4240	0	32748	32732	
4241	0	32700	32680	
4242	0	32762	32876	
4243	0	32740	32810	
4244	0	32914	32798	
4245	0	32948	32871	
4246	0	32994	32862	
4247	0	33084	32804	
4248	0	33060	32796	
4249	0	32944	32722	
4250	0	32868	32804	
4251	0	32936	32760	
4252	0	32916	32614	
4253	0	32856	32628	
4254	0	32988	32806	
4255	0	32940	32538	
4256	0	32896	32644	
4257	0	33046	32876	
4258	0	32888	33255	
4259	0	32748	33316	
4260	0	32746	33070	
4261	0	32744	32832	
4262	0	32880	32890	
4263	0	32824	32958	
4264	0	32800	32743	
4265	0	32688	32558	
4266	0	32560	32656	
4267	0	32544	32624	
4268	0	32578	32630	
4269	0	32688	32583	
4270	0	32695	32714	
4271	0	32690	32770	
4272	0	32736	32730	
4273	0	32732	32830	
4274	0	32740	32682	
4275	0	32754	32850	
4276	0	32736	32639	
4277	0	32882	32760	
4278	0	32820	32839	
4279	0	32848	32838	
4280	0	32780	32756	
4281	0	32776	32938	
4282	0	32864	32774	
4283	0	32932	32866	
4284	0	32888	32758	
4285	0	32988	32863	
4286	0	32913	32760	
4287	0	32924	32726	
4288	0	32836	32662	
4289	0	32794	32806	
4290	0	32826	32934	
4291	0	32804	32880	
4292	0	32872	32948	
4293	0	32858	32864	
4294	0	32804	32878	
4295	0	32796	32759	
4296	0	32828	32868	
4297	0	32760	32766	
4298	0	32860	32790	
4299	0	32940	32636	
4300	0	33002	32799	
4301	0	32832	32692	
4302	0	32766	32686	
4303	0	32784	32919	
4304	0	32796	32847	
4305	0	32808	32796	
4306	0	32750	32550	
4307	0	32764	32726	
4308	0	32976	32724	
4309	0	32892	32703	
4310	0	32856	32814	
4311	0	32896	32807	
4312	0	32928	32743	
4313	0	32774	32792	
4314	0	32862	32729	
4315	0	32836	32814	
4316	0	32928	32757	
4317	0	32902	32753	
4318	0	32760	32766	
4319	0	32812	32704	
4320	0	32816	32792	
4321	0	32708	32872	
4322	0	32804	32805	
4323	0	32876	32828	
4324	0	32792	32814	
4325	0	32698	32772	
4326	0	32744	32772	
4327	0	32700	32962	
4328	0	32726	32750	
4329	0	32704	32828	
4330	0	32716	32948	
4331	0	32808	32903	
4332	0	32756	32902	
4333	0	32824	32822	
4334	0	32924	32752	
4335	0	32936	32724	
4336	0	32996	32756	
4337	0	32968	32682	
4338	0	32928	32775	
4339	0	32922	32889	
4340	0	32888	32830	
4341	0	32784	32836	
4342	0	32724	32698	
4343	0	32740	32744	
4344	0	32746	32544	
4345	0	32784	32661	
4346	0	32753	32646	
4347	0	32720	32630	
4348	0	32774	32708	
4349	0	32836	32938	
4350	0	32812	32954	
4351	0	32764	33039	
4352	0	32680	32950	
4353	0	32744	32692	
4354	0	32752	32662	
4355	0	32664	32788	
4356	0	32716	32758	
4357	0	32796	32679	
4358	0	32824	32712	
4359	0	32864	32903	
4360	0	32850	32804	
4361	0	32770	32775	
4362	0	32714	32970	
4363	0	32884	32828	
4364	0	32868	32703	
4365	0	32876	32852	
4366	0	32888	32718	
4367	0	32992	32736	
4368	0	32930	32702	
4369	0	32936	32682	
4370	0	32692	32818	
4371	0	32690	32829	
4372	0	32582	32830	
4373	0	32672	32804	
4374	0	32646	32796	
4375	0	32720	32864	
4376	0	32740	32924	
4377	0	32684	32808	
4378	0	32784	32724	
4379	0	32834	32836	
4380	0	32844	32924	
4381	0	32880	32830	
4382	0	32876	32862	
4383	0	32816	32843	
4384	0	32800	32775	
4385	0	32802	32775	
4386	0	32876	32903	
4387	0	32896	32775	
4388	0	32920	33068	
4389	0	32880	32948	
4390	0	32842	32896	
4391	0	32836	32720	
4392	0	32852	32478	
4393	0	32968	32564	
4394	0	32748	32514	
4395	0	32700	32624	
4396	0	32788	32622	
4397	0	32822	32684	
4398	0	32794	32772	
4399	0	32812	32660	
4400	0	32884	32536	
4401	0	32952	32560	
4402	0	32944	32530	
4403	0	32964	32468	
4404	0	32850	32580	
4405	0	32838	32488	
4406	0	32828	32540	
4407	0	32792	32615	
4408	0	32752	32518	
4409	0	32836	32492	
4410	0	32850	32630	
4411	0	32764	32584	
4412	0	32876	32530	
4413	0	32772	32576	
4414	0	32800	32561	
4415	0	32884	32570	
4416	0	32796	32626	
4417	0	32846	32913	
4418	0	32826	32977	
4419	0	32913	32891	
4420	0	32932	33044	
4421	0	32872	32817	
4422	0	32888	32738	
4423	0	32964	32678	
4424	0	32922	32791	
4425	0	32828	32775	
4426	0	32676	32794	
4427	0	32538	32759	
4428	0	32720	32716	
4429	0	32704	32756	
4430	0	32736	32716	
4431	0	32778	32775	
4432	0	32904	32788	
4433	0	32828	32768	
4434	0	32775	32699	
4435	0	32785	32855	
4436	0	32762	32868	
4437	0	32662	32958	
4438	0	32708	32711	
4439	0	32780	32746	
4440	0	32796	32767	
4441	0	32844	32786	
4442	0	32985	32774	
4443	0	33020	32722	
4444	0	32968	32550	
4445	0	33040	32666	
4446	0	32910	32832	
4447	0	32906	32606	
4448	0	32796	32754	
4449	0	32836	32703	
4450	0	32765	32719	
4451	0	32804	32892	
4452	0	32756	32820	
4453	0	32688	32775	
4454	0	32752	32828	
4455	0	32806	32806	
4456	0	32820	32704	
4457	0	32788	32871	
4458	0	32812	32820	
4459	0	32828	32865	
4460	0	32760	32722	
4461	0	32820	32748	
4462	0	32818	32823	
4463	0	32866	32738	
4464	0	32906	32775	
4465	0	32908	32790	
4466	0	32844	32842	
4467	0	32930	32714	
4468	0	32798	32740	
4469	0	32758	32740	
4470	0	32800	32775	
4471	0	32844	32878	
4472	0	32830	32702	
4473	0	32774	32848	
4474	0	32820	32806	
4475	0	32864	32800	
4476	0	32856	32711	
4477	0	32888	32753	
4478	0	32828	32704	
4479	0	32790	32716	
4480	0	32848	32716	
4481	0	32852	32714	
4482	0	32872	32718	
4483	0	32824	32684	
4484	0	32840	32679	
4485	0	32776	32736	
4486	0	32784	32726	
4487	0	32748	32880	
4488	0	32844	32726	
4489	0	32766	32689	
4490	0	32746	32842	
4491	0	32686	32764	
4492	0	32760	32766	
4493	0	32696	32739	
4494	0	32696	32900	
4495	0	32754	33047	
4496	0	32810	32830	
4497	0	32804	33024	
4498	0	32869	32876	
4499	0	32846	32824	
4500	0	32816	32814	
4501	0	32864	32646	
4502	0	32728	32708	
4503	0	32748	32736	
4504	0	32820	32790	
4505	0	32726	32746	
4506	0	32868	32802	
4507	0	32940	32828	
4508	0	32940	32926	
4509	0	32864	32819	
4510	0	32796	32838	
4511	0	32704	32866	
4512	0	32788	32818	
4513	0	32824	32846	
4514	0	32796	32775	
4515	0	32730	32900	
4516	0	32812	32822	
4517	0	32888	32914	
4518	0	32872	32702	
4519	0	32836	32655	
4520	0	32916	32660	
4521	0	32856	32728	
4522	0	32912	32710	
4523	0	32888	32770	
4524	0	32792	32736	
4525	0	32868	32932	
4526	0	32912	32811	
4527	0	32832	32916	
4528	0	32816	32880	
4529	0	32706	32700	
4530	0	32777	32880	
4531	0	32752	32775	
4532	0	32732	32826	
4533	0	32710	32756	
4534	0	32712	32903	
4535	0	32820	32775	
4536	0	32910	32956	
4537	0	32896	32812	
4538	0	32852	32738	
4539	0	32824	32736	
4540	0	32692	32646	
4541	0	32752	32786	
4542	0	32670	32836	
4543	0	32714	32807	
4544	0	32810	32786	
4545	0	32824	32991	
4546	0	32888	33031	
4547	0	32924	32886	
4548	0	32886	32922	
4549	0	32970	32856	
4550	0	32960	32924	
4551	0	33004	32670	
4552	0	33022	32702	
4553	0	32968	32788	
4554	0	33012	32674	
4555	0	32960	32782	
4556	0	32844	32752	
4557	0	32760	32712	
4558	0	32760	32720	
4559	0	32812	32754	
4560	0	32908	32722	
4561	0	32856	32671	
4562	0	32832	32652	
4563	0	32900	32574	
4564	0	32868	32690	
4565	0	32854	32770	
4566	0	32674	32832	
4567	0	32790	32919	
4568	0	32832	33156	
4569	0	32850	33138	
4570	0	32790	33127	
4571	0	32858	32984	
4572	0	32848	32993	
4573	0	32856	32784	
4574	0	32760	32772	
4575	0	32828	32832	
4576	0	32786	32686	
4577	0	32822	32668	
4578	0	32768	32732	
4579	0	32716	32638	
4580	0	32768	32794	
4581	0	32786	32818	
4582	0	32738	32726	
4583	0	32800	32798	
4584	0	32824	32640	
4585	0	32824	32699	
4586	0	32864	32856	
4587	0	32852	32874	
4588	0	32862	32770	
4589	0	32930	32750	
4590	0	32816	32790	
4591	0	32798	32775	
4592	0	32820	32775	
4593	0	32798	32802	
4594	0	32880	32839	
4595	0	32864	32972	
4596	0	32714	32824	
4597	0	32810	32620	
4598	0	32812	32775	
4599	0	32762	32762	
4600	0	32856	32882	
4601	0	32902	32836	
4602	0	32876	32714	
4603	0	32932	32872	
4604	0	32816	32828	
4605	0	32796	32858	
4606	0	32908	32820	
4607	0	32880	32743	
4608	0	32788	32836	
4609	0	32810	32846	
4610	0	32792	32874	
4611	0	32864	32830	
4612	0	32768	32830	
4613	0	32812	32862	
4614	0	32858	32788	
4615	0	32926	32800	
4616	0	32818	32820	
4617	0	32868	32876	
4618	0	32830	32703	
4619	0	32840	32800	
4620	0	32962	32878	
4621	0	32988	32788	
4622	0	32902	32708	
4623	0	32888	32814	
4624	0	32992	32894	
4625	0	32860	32742	
4626	0	32840	32708	
4627	0	32796	32775	
4628	0	32884	32800	
4629	0	32884	32848	
4630	0	32868	32752	
4631	0	32846	32871	
4632	0	32944	32812	
4633	0	32980	32838	
4634	0	32856	32710	
4635	0	32828	32748	
4636	0	32820	32846	
4637	0	32936	32805	
4638	0	32812	32871	
4639	0	32842	32702	
4640	0	32746	32754	
4641	0	32906	32791	
4642	0	32838	32820	
4643	0	32864	32692	
4644	0	32896	32768	
4645	0	32970	32876	
4646	0	32864	32830	
4647	0	32840	32742	
4648	0	32878	32820	
4649	0	32790	32865	
4650	0	32740	32917	
4651	0	32820	32844	
4652	0	32808	32774	
4653	0	32754	32854	
4654	0	32724	32775	
4655	0	32808	32814	
4656	0	32764	32704	
4657	0	32864	32692	
4658	0	32816	32828	
4659	0	32824	32775	
4660	0	32812	32839	
4661	0	32826	32812	
4662	0	32800	32652	
4663	0	32820	32820	
4664	0	32812	32836	
4665	0	32740	32823	
4666	0	32776	32631	
4667	0	32788	32712	
4668	0	32736	32774	
4669	0	32780	32812	
4670	0	32656	32842	
4671	0	32772	32928	
4672	0	32782	32904	
4673	0	32788	32902	
4674	0	32848	32826	
4675	0	32806	32903	
4676	0	32818	32775	
4677	0	32750	32682	
4678	0	32832	32879	
4679	0	32880	32886	
4680	0	32948	32798	
4681	0	33004	32684	
4682	0	32940	32692	
4683	0	32896	32823	
4684	0	32862	32798	
4685	0	32870	32704	
4686	0	32740	32652	
4687	0	32752	32708	
4688	0	32776	32775	
4689	0	32838	32822	
4690	0	32796	32751	
4691	0	32810	32822	
4692	0	32698	32769	
4693	0	32808	32790	
4694	0	32790	32775	
4695	0	32808	32785	
4696	0	32864	32964	
4697	0	32800	32786	
4698	0	32808	32759	
4699	0	32740	32711	
4700	0	32816	32828	
4701	0	32890	32818	
4702	0	32860	32766	
4703	0	32916	32756	
4704	0	32872	32844	
4705	0	32932	32822	
4706	0	32886	32775	
4707	0	32880	32716	
4708	0	32910	32750	
4709	0	33008	32834	
4710	0	32860	32726	
4711	0	32924	32743	
4712	0	32944	32867	
4713	0	32892	32880	
4714	0	32956	32868	
4715	0	32974	32628	
4716	0	32958	32836	
4717	0	32942	32802	
4718	0	32864	32762	
4719	0	32828	32810	
4720	0	32914	32926	
4721	0	32962	32810	
4722	0	32874	32958	
4723	0	32808	32815	
4724	0	32876	32958	
4725	0	32836	32836	
4726	0	32780	32722	
4727	0	32792	32752	
4728	0	32670	32592	
4729	0	32718	32519	
4730	0	32616	32654	
4731	0	32684	32484	
4732	0	32748	32616	
4733	0	32788	32616	
4734	0	32734	32562	
4735	0	32760	32464	
4736	0	32876	32694	
4737	0	32862	32736	
4738	0	32936	32852	
4739	0	32897	32775	
4740	0	32852	32832	
4741	0	32844	32828	
4742	0	32832	32823	
4743	0	32756	32808	
4744	0	32746	32680	
4745	0	32740	32766	
4746	0	32786	32766	
4747	0	32824	32887	
4748	0	32878	32800	
4749	0	32864	32812	
4750	0	32852	32950	
4751	0	32912	32945	
4752	0	32844	32810	
4753	0	32876	32830	
4754	0	32832	32908	
4755	0	32940	32868	
4756	0	32954	32936	
4757	0	32994	32790	
4758	0	33018	32805	
4759	0	32976	32921	
4760	0	32908	32815	
4761	0	32944	32855	
4762	0	32924	32832	
4763	0	32838	32762	
4764	0	32792	32676	
4765	0	32816	32864	
4766	0	32836	32807	
4767	0	32804	32714	
4768	0	32768	32820	
4769	0	32892	32704	
4770	0	32830	32656	
4771	0	32844	32844	
4772	0	32780	32741	
4773	0	32820	32852	
4774	0	32750	32818	
4775	0	32748	32800	
4776	0	32692	32839	
4777	0	32804	32775	
4778	0	32844	32743	
4779	0	32826	32839	
4780	0	32814	32768	
4781	0	32836	32732	
4782	0	32756	32624	
4783	0	32738	32734	
4784	0	32784	32824	
4785	0	32696	32798	
4786	0	32774	32794	
4787	0	32804	32844	
4788	0	32798	32830	
4789	0	32768	32836	
4790	0	32784	32772	
4791	0	32800	32740	
4792	0	32924	32668	
4793	0	32768	32716	
4794	0	32768	32871	
4795	0	32712	32807	
4796	0	32688	32788	
4797	0	32704	32854	
4798	0	32716	32775	
4799	0	32798	32716	
4800	0	32912	32698	
4801	0	32896	32746	
4802	0	32774	32718	
4803	0	32676	32738	
4804	0	32736	32564	
4805	0	32780	32696	
4806	0	32792	32816	
4807	0	32736	32718	
4808	0	32770	32775	
4809	0	32736	32807	
4810	0	32762	32724	
4811	0	32790	32706	
4812	0	32740	32854	
4813	0	32792	32772	
4814	0	32816	32726	
4815	0	32862	32718	
4816	0	32828	32839	
4817	0	32816	32804	
4818	0	32792	32796	
4819	0	32842	32796	
4820	0	32810	32972	
4821	0	32868	32800	
4822	0	32888	32924	
4823	0	32792	32743	
4824	0	32788	32688	
4825	0	32814	32666	
4826	0	32786	32702	
4827	0	32754	32787	
4828	0	32776	32838	
4829	0	32840	32726	
4830	0	32848	32708	
4831	0	32894	32846	
4832	0	32940	32832	
4833	0	32932	32728	
4834	0	32980	32724	
4835	0	32920	32839	
4836	0	32930	32744	
4837	0	32832	32804	
4838	0	32804	32709	
4839	0	32760	32704	
4840	0	32736	32824	
4841	0	32804	32714	
4842	0	32830	32730	
4843	0	32828	32770	
4844	0	32886	32775	
4845	0	32846	32775	
4846	0	32908	32770	
4847	0	32886	32846	
4848	0	32822	32734	
4849	0	32848	32730	
4850	0	32828	32800	
4851	0	32784	32808	
4852	0	32784	32856	
4853	0	32928	32807	
4854	0	32912	32762	
4855	0	32860	32876	
4856	0	32880	32768	
4857	0	32890	32870	
4858	0	32838	32800	
4859	0	32888	32724	
4860	0	32844	32775	
4861	0	32894	32802	
4862	0	32916	32738	
4863	0	32860	32811	
4864	0	32880	32722	
4865	0	32740	32726	
4866	0	32820	32788	
4867	0	32904	32839	
4868	0	32872	32751	
4869	0	32820	32810	
4870	0	32790	32822	
4871	0	32832	32807	
4872	0	32828	32798	
4873	0	32912	32852	
4874	0	32842	32828	
4875	0	32774	32815	
4876	0	32896	32713	
4877	0	32840	32712	
4878	0	32804	32812	
4879	0	32772	32742	
4880	0	32724	32702	
4881	0	32742	32720	
4882	0	32796	32718	
4883	0	32584	32702	
4884	0	32620	32774	
4885	0	32750	32766	
4886	0	32796	32828	
4887	0	32748	32858	
4888	0	32700	32804	
4889	0	32812	32632	
4890	0	32924	32750	
4891	0	32884	32735	
4892	0	32984	32854	
4893	0	32948	32764	
4894	0	32862	32856	
4895	0	32880	32798	
4896	0	32798	32730	
4897	0	32748	32756	
4898	0	32818	32774	
4899	0	32788	32762	
4900	0	32894	32714	
4901	0	32778	32764	
4902	0	32834	32756	
4903	0	32806	32830	
4904	0	32804	32684	
4905	0	32800	32852	
4906	0	32822	32808	
4907	0	32796	32814	
4908	0	32844	32805	
4909	0	32858	32838	
4910	0	32770	32694	
4911	0	32820	32854	
4912	0	32750	32672	
4913	0	32832	32836	
4914	0	32772	32775	
4915	0	32854	32815	
4916	0	32800	32858	
4917	0	32784	32708	
4918	0	32784	32756	
4919	0	32824	32799	
4920	0	32758	32743	
4921	0	32788	32772	
4922	0	32788	32722	
4923	0	32804	32748	
4924	0	32784	32824	
4925	0	32844	32768	
4926	0	32810	32704	
4927	0	32836	32674	
4928	0	32808	32814	
4929	0	32760	32775	
4930	0	32756	32840	
4931	0	32762	32705	
4932	0	32842	32882	
4933	0	32892	32857	
4934	0	32858	32870	
4935	0	32896	32740	
4936	0	32830	32851	
4937	0	32900	32775	
4938	0	32854	32734	
4939	0	32740	32758	
4940	0	32808	32742	
4941	0	32818	32810	
4942	0	32752	32696	
4943	0	32846	32862	
4944	0	32852	32807	
4945	0	32844	32770	
4946	0	32834	32839	
4947	0	32828	32775	
4948	0	32800	32670	
4949	0	32736	32810	
4950	0	32768	32775	
4951	0	32736	32775	
4952	0	32716	32708	
4953	0	32832	32836	
4954	0	32712	32804	
4955	0	32780	32710	
4956	0	32826	32934	
4957	0	32792	32734	
4958	0	32818	32754	
4959	0	32804	32727	
4960	0	32796	32865	
4961	0	32836	32768	
4962	0	32838	32836	
4963	0	32902	32712	
4964	0	32794	32849	
4965	0	32780	32730	
4966	0	32814	32833	
4967	0	32818	32682	
4968	0	32856	32818	
4969	0	32848	32734	
4970	0	32870	32756	
4971	0	32908	32700	
4972	0	32828	32808	
4973	0	32836	32799	
4974	0	32862	32820	
4975	0	32796	32708	
4976	0	32716	32760	
4977	0	32794	32790	
4978	0	32860	32668	
4979	0	32794	32911	
4980	0	32804	32812	
4981	0	32836	32806	
4982	0	32824	32763	
4983	0	32724	32727	
4984	0	32804	32714	
4985	0	32868	32756	
4986	0	32866	32810	
4987	0	32830	32784	
4988	0	32834	32770	
4989	0	32804	32708	
4990	0	32848	32807	
4991	0	32824	32686	
4992	0	32812	32880	
4993	0	32838	32772	
4994	0	32792	32840	
4995	0	32756	32678	
4996	0	32824	32810	
4997	0	32900	32832	
4998	0	32872	32676	
4999	0	32788	32718	
5000	0	32796	32788	
5001	0	32828	32738	
5002	0	32808	32638	
5003	0	32756	32775	
5004	0	32804	32788	
5005	0	32780	32786	
5006	0	32788	32775	
5007	0	32756	32734	
5008	0	32826	32811	
5009	0	32824	32856	
5010	0	32768	32702	
5011	0	32784	32798	
5012	0	32798	32796	
5013	0	32780	32726	
5014	0	32740	32702	
5015	0	32864	32862	
5016	0	32824	32756	
5017	0	32894	32666	
5018	0	32856	32783	
5019	0	32776	32743	
5020	0	32816	32839	
5021	0	32916	32703	
5022	0	32840	32840	
5023	0	32892	32724	
5024	0	32804	32656	
5025	0	32800	32748	
5026	0	32792	32876	
5027	0	32676	32754	
5028	0	32696	32807	
5029	0	32768	32740	
5030	0	32840	32746	
5031	0	32778	32842	
5032	0	32804	32790	
5033	0	32796	32735	
5034	0	32794	32772	
5035	0	32828	32761	
5036	0	32832	32740	
5037	0	32768	32724	
5038	0	32776	32871	
5039	0	32832	32796	
5040	0	32822	32764	
5041	0	32832	32740	
5042	0	32782	32764	
5043	0	32811	32844	
5044	0	32880	32647	
5045	0	32840	32846	
5046	0	32824	32794	
5047	0	32764	32775	
5048	0	32842	32788	
5049	0	32844	32879	
5050	0	32804	32784	
5051	0	32764	32798	
5052	0	32800	32759	
5053	0	32744	32770	
5054	0	32756	32817	
5055	0	32792	32881	
5056	0	32760	32756	
5057	0	32898	32772	
5058	0	32818	32772	
5059	0	32868	32689	
5060	0	32937	32828	
5061	0	32864	32752	
5062	0	32874	32704	
5063	0	32832	32712	
5064	0	32816	32660	
5065	0	32828	32710	
5066	0	32789	32867	
5067	0	32738	32687	
5068	0	32876	32772	
5069	0	32856	32728	
5070	0	32774	32754	
5071	0	32860	32700	
5072	0	32878	32878	
5073	0	32780	32759	
5074	0	32734	32844	
5075	0	32720	32680	
5076	0	32760	32852	
5077	0	32692	32811	
5078	0	32774	32822	
5079	0	32764	32728	
5080	0	32888	32804	
5081	0	32810	32802	
5082	0	32796	32710	
5083	0	32854	32684	
5084	0	32760	32775	
5085	0	32930	32814	
5086	0	32836	32684	
5087	0	32844	32790	
5088	0	32816	32759	
5089	0	32782	32742	
5090	0	32712	32786	
5091	0	32650	32832	
5092	0	32712	32768	
5093	0	32760	32726	
5094	0	32836	32722	
5095	0	32868	32822	
5096	0	32880	32798	
5097	0	32914	32796	
5098	0	32890	32654	
5099	0	32964	32812	
5100	0	32804	32824	
5101	0	32816	32800	
5102	0	32758	32744	
5103	0	32844	32812	
5104	0	32836	32766	
5105	0	32766	32718	
5106	0	32804	32707	
5107	0	32802	32660	
5108	0	32808	32784	
5109	0	32806	32758	
5110	0	32800	32854	
5111	0	32856	32804	
5112	0	32852	32734	
5113	0	32800	32830	
5114	0	32888	32807	
5115	0	32864	32810	
5116	0	32826	32766	
5117	0	32752	32810	
5118	0	32764	32826	
5119	0	32732	32743	
5120	0	32714	32834	
5121	0	32644	32724	
5122	0	32604	32828	
5123	0	32748	32708	
5124	0	32702	32695	
5125	0	32752	32766	
5126	0	32798	32796	
5127	0	32796	32751	
5128	0	32808	32664	
5129	0	32816	32735	
5130	0	32848	32834	
5131	0	32820	32852	
5132	0	32808	32770	
5133	0	32842	32689	
5134	0	32892	32775	
5135	0	32832	32844	
5136	0	32856	32724	
5137	0	32868	32854	
5138	0	32836	32748	
5139	0	32838	32832	
5140	0	32810	32610	
5141	0	32780	32810	
5142	0	32896	32711	
5143	0	32828	32740	
5144	0	32896	32762	
5145	0	32864	32808	
5146	0	32798	32810	
5147	0	32866	32730	
5148	0	32836	32832	
5149	0	32800	32826	
5150	0	32832	32868	
5151	0	32798	32690	
5152	0	32828	32718	
5153	0	32886	32772	
5154	0	32840	32842	
5155	0	32780	32742	
5156	0	32768	32766	
5157	0	32770	32804	
5158	0	32720	32722	
5159	0	32810	32708	
5160	0	32740	32750	
5161	0	32900	32712	
5162	0	32802	32657	
5163	0	32752	32742	
5164	0	32724	32688	
5165	0	32730	32742	
5166	0	32632	32724	
5167	0	32660	32717	
5168	0	32756	32832	
5169	0	32708	32756	
5170	0	32672	32806	
5171	0	32798	32775	
5172	0	32824	32788	
5173	0	32768	32698	
5174	0	32786	32854	
5175	0	32884	32826	
5176	0	32872	32798	
5177	0	32936	32743	
5178	0	32832	32732	
5179	0	32892	32807	
5180	0	32818	32700	
5181	0	32880	32814	
5182	0	32874	32812	
5183	0	32836	32767	
5184	0	32830	32692	
5185	0	32818	32738	
5186	0	32804	32734	
5187	0	32776	32764	
5188	0	32810	32744	
5189	0	32775	32804	
5190	0	32760	32689	
5191	0	32852	32774	
5192	0	32752	32768	
5193	0	32732	32792	
5194	0	32810	32654	
5195	0	32808	32880	
5196	0	32802	32739	
5197	0	32804	32822	
5198	0	32764	32750	
5199	0	32852	32742	
5200	0	32772	32788	
5201	0	32760	32710	
5202	0	32834	32700	
5203	0	32830	32716	
5204	0	32802	32754	
5205	0	32860	32639	
5206	0	32724	32700	
5207	0	32798	32788	
5208	0	32753	32740	
5209	0	32714	32708	
5210	0	32740	32774	
5211	0	32774	32812	
5212	0	32812	32796	
5213	0	32856	32758	
5214	0	32848	32684	
5215	0	32900	32790	
5216	0	32832	32766	
5217	0	32832	32680	
5218	0	32740	32880	
5219	0	32728	32744	
5220	0	32708	32775	
5221	0	32788	32710	
5222	0	32796	32732	
5223	0	32860	32818	
5224	0	32850	32700	
5225	0	32788	32762	
5226	0	32832	32764	
5227	0	32792	32734	
5228	0	32810	32718	
5229	0	32832	32822	
5230	0	32780	32775	
5231	0	32880	32775	
5232	0	32884	32674	
5233	0	32850	32868	
5234	0	32800	32764	
5235	0	32796	32775	
5236	0	32818	32662	
5237	0	32786	32756	
5238	0	32756	32711	
5239	0	32754	32812	
5240	0	32772	32788	
5241	0	32786	32807	
5242	0	32800	32642	
5243	0	32820	32770	
5244	0	32808	32647	
5245	0	32888	32718	
5246	0	32874	32618	
5247	0	32830	32726	
5248	0	32794	32744	
5249	0	32720	32730	
5250	0	32704	32820	
5251	0	32814	32666	
5252	0	32776	32775	
5253	0	32786	32800	
5254	0	32872	32814	
5255	0	32836	32758	
5256	0	32830	32680	
5257	0	32810	32784	
5258	0	32792	32710	
5259	0	32864	32759	
5260	0	32856	32758	
5261	0	32812	32775	
5262	0	32858	32744	
5263	0	32742	32774	
5264	0	32820	32671	
5265	0	32788	32728	
5266	0	32834	32704	
5267	0	32764	32828	
5268	0	32772	32688	
5269	0	32870	32708	
5270	0	32864	32800	
5271	0	32808	32764	
5272	0	32752	32738	
5273	0	32808	32718	
5274	0	32830	32870	
5275	0	32800	32871	
5276	0	32752	32872	
5277	0	32804	32726	
5278	0	32814	32766	
5279	0	32834	32748	
5280	0	32814	32796	
5281	0	32812	32668	
5282	0	32760	32818	
5283	0	32764	32756	
5284	0	32808	32890	
5285	0	32780	32738	
5286	0	32848	32782	
5287	0	32840	32758	
5288	0	32772	32746	
5289	0	32740	32602	
5290	0	32862	32830	
5291	0	32764	32762	
5292	0	32748	32764	
5293	0	32868	32738	
5294	0	32804	32790	
5295	0	32748	32790	
5296	0	32720	32714	
5297	0	32744	32775	
5298	0	32769	32744	
5299	0	32782	32813	
5300	0	32788	32678	
5301	0	32760	32768	
5302	0	32848	32808	
5303	0	32800	32678	
5304	0	32784	32794	
5305	0	32786	32718	
5306	0	32778	32774	
5307	0	32804	32700	
5308	0	32806	32844	
5309	0	32800	32775	
5310	0	32776	32702	
5311	0	32842	32790	
5312	0	32816	32792	
5313	0	32804	32801	
5314	0	32832	32704	
5315	0	32868	32654	
5316	0	32810	32638	
5317	0	32688	32774	
5318	0	32676	32852	
5319	0	32720	32800	
5320	0	32708	32812	
5321	0	32788	32708	
5322	0	32798	32638	
5323	0	32832	32871	
5324	0	32888	32838	
5325	0	32848	32798	
5326	0	32742	32679	
5327	0	32728	32730	
5328	0	32784	32804	
5329	0	32842	32724	
5330	0	32760	32732	
5331	0	32792	32758	
5332	0	32762	32679	
5333	0	32872	32692	
5334	0	32772	32764	
5335	0	32830	32816	
5336	0	32782	32696	
5337	0	32760	32730	
5338	0	32764	32818	
5339	0	32802	32821	
5340	0	32772	32694	
5341	0	32736	32678	
5342	0	32804	32673	
5343	0	32876	32854	
5344	0	32796	32775	
5345	0	32798	32847	
5346	0	32730	32716	
5347	0	32852	32615	
5348	0	32820	32874	
5349	0	32782	32797	
5350	0	32728	32812	
5351	0	32816	32658	
5352	0	32818	32832	
5353	0	32740	32700	
5354	0	32772	32725	
5355	0	32844	32746	
5356	0	32840	32694	
5357	0	32736	32814	
5358	0	32816	32722	
5359	0	32802	32722	
5360	0	32844	32652	
5361	0	32788	32768	
5362	0	32832	32722	
5363	0	32800	32750	
5364	0	32806	32692	
5365	0	32748	32855	
5366	0	32768	32794	
5367	0	32696	32791	
5368	0	32696	32734	
5369	0	32732	32822	
5370	0	32740	32836	
5371	0	32758	32704	
5372	0	32752	32806	
5373	0	32810	32764	
5374	0	32758	32870	
5375	0	32808	32736	
5376	0	32774	32822	
5377	0	32808	32775	
5378	0	32776	32822	
5379	0	32816	32759	
5380	0	32740	32670	
5381	0	32792	32828	
5382	0	32752	32775	
5383	0	32780	32634	
5384	0	32760	32794	
5385	0	32760	32764	
5386	0	32822	32748	
5387	0	32784	32850	
5388	0	32784	32698	
5389	0	32824	32696	
5390	0	32808	32764	
5391	0	32798	32766	
5392	0	32812	32678	
5393	0	32852	32796	
5394	0	32876	32773	
5395	0	32808	32820	
5396	0	32758	32748	
5397	0	32780	32716	
5398	0	32730	32768	
5399	0	32748	32712	
5400	0	32732	32766	
5401	0	32769	32732	
5402	0	32728	32636	
5403	0	32708	32801	
5404	0	32832	32828	
5405	0	32836	32810	
5406	0	32866	32670	
5407	0	32814	32690	
5408	0	32828	32834	
5409	0	32828	32823	
5410	0	32880	32868	
5411	0	32940	32753	
5412	0	32856	32810	
5413	0	32838	32935	
5414	0	32808	32959	
5415	0	32804	32792	
5416	0	32784	32692	
5417	0	32784	32788	
5418	0	32770	32678	
5419	0	32718	32620	
5420	0	32772	32472	
5421	0	32690	32647	
5422	0	32734	32486	
5423	0	32804	32562	
5424	0	32896	32440	
5425	0	32686	32519	
5426	0	32798	32642	
5427	0	32634	32664	
5428	0	32736	32735	
5429	0	32724	32676	
5430	0	32752	32782	
5431	0	32720	32804	
5432	0	32816	32816	
5433	0	32744	32694	
5434	0	32828	32834	
5435	0	32748	32818	
5436	0	32868	32860	
5437	0	32794	32822	
5438	0	32846	32734	
5439	0	32846	32868	
5440	0	32848	32812	
5441	0	32879	32756	
5442	0	32868	32764	
5443	0	32860	32826	
5444	0	32852	32886	
5445	0	32820	32774	
5446	0	32884	32892	
5447	0	32828	32935	
5448	0	32880	32844	
5449	0	32904	32906	
5450	0	32876	32654	
5451	0	32852	32716	
5452	0	32870	32798	
5453	0	32900	32796	
5454	0	32832	32738	
5455	0	32838	32762	
5456	0	32910	32775	
5457	0	32788	32736	
5458	0	32816	32756	
5459	0	32804	32754	
5460	0	32780	32728	
5461	0	32794	32730	
5462	0	32868	32686	
5463	0	32844	32775	
5464	0	32868	32790	
5465	0	32876	32750	
5466	0	32760	32687	
5467	0	32768	32638	
5468	0	32724	32727	
5469	0	32808	32788	
5470	0	32824	32806	
5471	0	32736	32740	
5472	0	32791	32790	
5473	0	32764	32832	
5474	0	32812	32740	
5475	0	32766	32774	
5476	0	32806	32840	
5477	0	32868	32638	
5478	0	32864	32790	
5479	0	32810	32775	
5480	0	32814	32714	
5481	0	32902	32810	
5482	0	32820	32744	
5483	0	32832	32858	
5484	0	32892	32708	
5485	0	32868	32775	
5486	0	32848	32785	
5487	0	32856	32718	
5488	0	32834	32874	
5489	0	32804	32716	
5490	0	32782	32832	
5491	0	32820	32728	
5492	0	32884	32791	
5493	0	32764	32804	
5494	0	32852	32692	
5495	0	32852	32838	
5496	0	32840	32766	
5497	0	32816	32828	
5498	0	32904	32688	
5499	0	32710	32748	
5500	0	32810	32710	
5501	0	32832	32748	
5502	0	32804	32680	
5503	0	32824	32751	
5504	0	32804	32710	
5505	0	32782	32758	
5506	0	32792	32679	
5507	0	32856	32775	
5508	0	32854	32808	
5509	0	32760	32716	
5510	0	32740	32726	
5511	0	32764	32839	
5512	0	32880	32843	
5513	0	32792	32689	
5514	0	32820	32775	
5515	0	32816	32894	
5516	0	32764	32722	
5517	0	32806	32775	
5518	0	32825	32806	
5519	0	32868	32740	
5520	0	32793	32784	
5521	0	32774	32768	
5522	0	32892	32775	
5523	0	32802	32718	
5524	0	32880	32768	
5525	0	32794	32746	
5526	0	32762	32792	
5527	0	32786	32838	
5528	0	32804	32730	
5529	0	32828	32746	
5530	0	32840	32798	
5531	0	32852	32840	
5532	0	32854	32724	
5533	0	32840	32748	
5534	0	32872	32700	
5535	0	32872	32714	
5536	0	32758	32704	
5537	0	32752	32750	
5538	0	32764	32826	
5539	0	32854	32668	
5540	0	32845	32832	
5541	0	32786	32734	
5542	0	32832	32798	
5543	0	32832	32638	
5544	0	32828	32750	
5545	0	32824	32806	
5546	0	32776	32746	
5547	0	32796	32810	
5548	0	32738	32706	
5549	0	32768	32790	
5550	0	32804	32834	
5551	0	32840	32814	
5552	0	32808	32720	
5553	0	32772	32868	
5554	0	32796	32774	
5555	0	32802	32750	
5556	0	32816	32698	
5557	0	32824	32900	
5558	0	32860	32763	
5559	0	32840	32812	
5560	0	32852	32724	
5561	0	32876	32838	
5562	0	32824	32775	
5563	0	32808	32800	
5564	0	32848	32770	
5565	0	32802	32775	
5566	0	32808	32702	
5567	0	32752	32761	
5568	0	32672	32756	
5569	0	32764	32846	
5570	0	32816	32732	
5571	0	32772	32879	
5572	0	32792	32710	
5573	0	32822	32697	
5574	0	32804	32798	
5575	0	32858	32764	
5576	0	32844	32836	
5577	0	32852	32760	
5578	0	32880	32868	
5579	0	32792	32754	
5580	0	32804	32822	
5581	0	32724	32708	
5582	0	32820	32828	
5583	0	32876	32722	
5584	0	32832	32796	
5585	0	32860	32706	
5586	0	32824	32762	
5587	0	32886	32794	
5588	0	32824	32772	
5589	0	32796	32804	
5590	0	32804	32775	
5591	0	32820	32712	
5592	0	32792	32772	
5593	0	32808	32878	
5594	0	32852	32788	
5595	0	32824	32610	
5596	0	32852	32791	
5597	0	32784	32796	
5598	0	32900	32700	
5599	0	32774	32850	
5600	0	32764	32874	
5601	0	32862	32730	
5602	0	32844	32804	
5603	0	32836	32802	
5604	0	32768	32724	
5605	0	32848	32724	
5606	0	32810	32864	
5607	0	32754	32678	
5608	0	32820	32801	
5609	0	32876	32798	
5610	0	32788	32803	
5611	0	32798	32806	
5612	0	32830	32824	
5613	0	32823	32826	
5614	0	32802	32720	
5615	0	32800	32775	
5616	0	32796	32807	
5617	0	32800	32711	
5618	0	32856	32656	
5619	0	32850	32820	
5620	0	32856	32785	
5621	0	32760	32816	
5622	0	32908	32702	
5623	0	32782	32814	
5624	0	32844	32700	
5625	0	32759	32702	
5626	0	32744	32679	
5627	0	32782	32807	
5628	0	32756	32804	
5629	0	32756	32762	
5630	0	32828	32722	
5631	0	32692	32799	
5632	0	32812	32856	
5633	0	32832	32714	
5634	0	32798	32708	
5635	0	32776	32814	
5636	0	32728	32753	
5637	0	32746	32880	
5638	0	32772	32705	
5639	0	32736	32744	
5640	0	32892	32788	
5641	0	32796	32770	
5642	0	32838	32839	
5643	0	32788	32642	
5644	0	32734	32638	
5645	0	32740	32755	
5646	0	32762	32816	
5647	0	32838	32796	
5648	0	32784	32743	
5649	0	32800	32832	
5650	0	32800	32742	
5651	0	32792	32812	
5652	0	32800	32710	
5653	0	32768	32874	
5654	0	32814	32750	
5655	0	32744	32682	
5656	0	32804	32742	
5657	0	32832	32766	
5658	0	32770	32732	
5659	0	32872	32762	
5660	0	32788	32679	
5661	0	32878	32794	
5662	0	32812	32810	
5663	0	32792	32655	
5664	0	32836	32666	
5665	0	32808	32786	
5666	0	32828	32766	
5667	0	32792	32670	
5668	0	32784	32848	
5669	0	32776	32764	
5670	0	32802	32775	
5671	0	32856	32733	
5672	0	32824	32862	
5673	0	32840	32836	
5674	0	32752	32744	
5675	0	32804	32783	
5676	0	32800	32740	
5677	0	32776	32846	
5678	0	32742	32728	
5679	0	32826	32743	
5680	0	32802	32714	
5681	0	32740	32757	
5682	0	32770	32775	
5683	0	32764	32706	
5684	0	32852	32820	
5685	0	32860	32774	
5686	0	32860	32767	
5687	0	32844	32647	
5688	0	32764	32790	
5689	0	32744	32818	
5690	0	32836	32802	
5691	0	32816	32839	
5692	0	32872	32808	
5693	0	32902	32762	
5694	0	32892	32705	
5695	0	32892	32832	
5696	0	32808	32768	
5697	0	32880	32730	
5698	0	32792	32802	
5699	0	32772	32704	
5700	0	32712	32690	
5701	0	32744	32788	
5702	0	32752	32636	
5703	0	32804	32823	
5704	0	32738	32866	
5705	0	32758	32842	
5706	0	32834	32815	
5707	0	32808	32728	
5708	0	32832	32824	
5709	0	32808	32684	
5710	0	32852	32790	
5711	0	32808	32768	
5712	0	32870	32760	
5713	0	32828	32728	
5714	0	32776	32807	
5715	0	32760	32802	
5716	0	32828	32668	
5717	0	32858	32678	
5718	0	32820	32748	
5719	0	32814	32847	
5720	0	32830	32743	
5721	0	32800	32948	
5722	0	32836	32810	
5723	0	32836	32678	
5724	0	32860	32716	
5725	0	32860	32808	
5726	0	32776	32866	
5727	0	32832	32674	
5728	0	32812	32775	
5729	0	32760	32820	
5730	0	32784	32843	
5731	0	32772	32711	
5732	0	32782	32775	
5733	0	32808	32812	
5734	0	32772	32791	
5735	0	32796	32742	
5736	0	32812	32806	
5737	0	32752	32743	
5738	0	32784	32790	
5739	0	32784	32679	
5740	0	32836	32876	
5741	0	32900	32758	
5742	0	32896	32816	
5743	0	32764	32728	
5744	0	32852	32771	
5745	0	32852	32768	
5746	0	32868	32775	
5747	0	32888	32860	
5748	0	32796	32704	
5749	0	32754	32903	
5750	0	32841	32836	
5751	0	32832	32839	
5752	0	32868	32750	
5753	0	32844	32689	
5754	0	32866	32790	
5755	0	32909	32824	
5756	0	32828	32740	
5757	0	32896	32868	
5758	0	32848	32734	
5759	0	32764	32750	
5760	0	32760	32836	
5761	0	32788	32740	
5762	0	32800	32768	
5763	0	32798	32687	
5764	0	32742	32748	
5765	0	32810	32757	
5766	0	32816	32754	
5767	0	32821	32858	
5768	0	32848	32676	
5769	0	32762	32874	
5770	0	32754	32775	
5771	0	32860	32792	
5772	0	32832	32758	
5773	0	32842	32724	
5774	0	32820	32690	
5775	0	32804	32752	
5776	0	32887	32834	
5777	0	32900	32872	
5778	0	32836	32734	
5779	0	32886	32698	
5780	0	32824	32920	
5781	0	32856	32768	
5782	0	32812	32808	
5783	0	32760	32646	
5784	0	32770	32658	
5785	0	32800	32791	
5786	0	32812	32798	
5787	0	32826	32761	
5788	0	32784	32670	
5789	0	32746	32711	
5790	0	32864	32860	
5791	0	32792	32738	
5792	0	32880	32843	
5793	0	32724	32775	
5794	0	32764	32710	
5795	0	32776	32844	
5796	0	32802	32848	
5797	0	32840	32794	
5798	0	32856	32751	
5799	0	32880	32826	
5800	0	32774	32738	
5801	0	32818	32806	
5802	0	32742	32788	
5803	0	32708	32832	
5804	0	32802	32782	
5805	0	32774	32672	
5806	0	32848	32892	
5807	0	32812	32751	
5808	0	32862	32775	
5809	0	32832	32766	
5810	0	32824	32870	
5811	0	32794	32786	
5812	0	32792	32794	
5813	0	32816	32716	
5814	0	32834	32830	
5815	0	32826	32791	
5816	0	32794	32674	
5817	0	32800	32756	
5818	0	32788	32775	
5819	0	32804	32737	
5820	0	32740	32730	
5821	0	32780	32696	
5822	0	32848	32804	
5823	0	32848	32614	
5824	0	32846	32826	
5825	0	32868	32788	
5826	0	32820	32775	
5827	0	32840	32854	
5828	0	32881	32746	
5829	0	32784	32750	
5830	0	32832	32772	
5831	0	32812	32824	
5832	0	32794	32772	
5833	0	32868	32775	
5834	0	32804	32662	
5835	0	32764	32882	
5836	0	32780	32770	
5837	0	32724	32874	
5838	0	32788	32754	
5839	0	32744	32630	
5840	0	32836	32818	
5841	0	32802	32736	
5842	0	32868	32708	
5843	0	32858	32906	
5844	0	32816	32806	
5845	0	32880	32775	
5846	0	32820	32678	
5847	0	32768	32752	
5848	0	32808	32775	
5849	0	32852	32810	
5850	0	32800	32790	
5851	0	32838	32796	
5852	0	32784	32836	
5853	0	32868	32759	
5854	0	32864	32828	
5855	0	32776	32775	
5856	0	32802	32775	
5857	0	32818	32748	
5858	0	32812	32770	
5859	0	32780	32822	
5860	0	32826	32719	
5861	0	32832	32684	
5862	0	32868	32775	
5863	0	32834	32807	
5864	0	32904	32704	
5865	0	32864	32804	
5866	0	32880	32815	
5867	0	32836	32766	
5868	0	32796	32836	
5869	0	32740	32742	
5870	0	32752	32746	
5871	0	32740	32820	
5872	0	32760	32814	
5873	0	32840	32807	
5874	0	32792	32751	
5875	0	32825	32711	
5876	0	32821	32686	
5877	0	32769	32820	
5878	0	32832	32862	
5879	0	32860	32846	
5880	0	32844	32672	
5881	0	32850	32670	
5882	0	32840	32756	
5883	0	32836	32812	
5884	0	32800	32708	
5885	0	32828	32844	
5886	0	32780	32788	
5887	0	32784	32775	
5888	0	32840	32834	
5889	0	32872	32729	
5890	0	32744	32790	
5891	0	32814	32888	
5892	0	32856	32764	
5893	0	32885	32800	
5894	0	32880	32775	
5895	0	32836	32693	
5896	0	32788	32723	
5897	0	32800	32816	
5898	0	32830	32768	
5899	0	32786	32738	
5900	0	32848	32792	
5901	0	32828	32730	
5902	0	32750	32856	
5903	0	32818	32640	
5904	0	32810	32702	
5905	0	32796	32838	
5906	0	32782	32800	
5907	0	32780	32672	
5908	0	32768	32822	
5909	0	32800	32828	
5910	0	32800	32820	
5911	0	32772	32878	
5912	0	32816	32774	
5913	0	32830	32800	
5914	0	32808	32728	
5915	0	32836	32846	
5916	0	32784	32682	
5917	0	32774	32743	
5918	0	32860	32774	
5919	0	32828	32865	
5920	0	32824	32676	
5921	0	32810	32700	
5922	0	32857	32828	
5923	0	32788	32744	
5924	0	32820	32746	
5925	0	32822	32711	
5926	0	32828	32737	
5927	0	32804	32807	
5928	0	32780	32810	
5929	0	32754	32690	
5930	0	32820	32870	
5931	0	32874	32732	
5932	0	32812	32868	
5933	0	32784	32846	
5934	0	32762	32734	
5935	0	32816	32871	
5936	0	32782	32736	
5937	0	32788	32756	
5938	0	32842	32676	
5939	0	32836	32826	
5940	0	32792	32775	
5941	0	32864	32775	
5942	0	32764	32783	
5943	0	32856	32678	
5944	0	32840	32694	
5945	0	32868	32751	
5946	0	32884	32788	
5947	0	32814	32662	
5948	0	32788	32748	
5949	0	32780	32858	
5950	0	32800	32834	
5951	0	32762	32802	
5952	0	32768	32775	
5953	0	32702	32762	
5954	0	32788	32852	
5955	0	32866	32784	
5956	0	32860	32830	
5957	0	32874	32786	
5958	0	32888	32746	
5959	0	32788	32731	
5960	0	32874	32850	
5961	0	32860	32746	
5962	0	32864	32728	
5963	0	32766	32697	
5964	0	32828	32812	
5965	0	32812	32792	
5966	0	32750	32775	
5967	0	32768	32734	
5968	0	32820	32714	
5969	0	32836	32880	
5970	0	32778	32722	
5971	0	32840	32836	
5972	0	32780	32742	
5973	0	32748	32754	
5974	0	32858	32786	
5975	0	32858	32724	
5976	0	32810	32766	
5977	0	32848	32759	
5978	0	32840	32762	
5979	0	32868	32775	
5980	0	32824	32758	
5981	0	32864	32634	
5982	0	32816	32868	
5983	0	32804	32768	
5984	0	32762	32846	
5985	0	32772	32710	
5986	0	32746	32862	
5987	0	32690	32806	
5988	0	32768	32785	
5989	0	32812	32728	
5990	0	32804	32702	
5991	0	32812	32796	
5992	0	32764	32710	
5993	0	32868	32820	
5994	0	32762	32741	
5995	0	32746	32884	
5996	0	32814	32790	
5997	0	32830	32768	
5998	0	32856	32768	
5999	0	32886	32714	
6000	0	32820	32807	
6001	0	32801	32775	
6002	0	32816	32828	
6003	0	32816	32650	
6004	0	32842	32830	
6005	0	32808	32774	
6006	0	32842	32734	
6007	0	32824	32844	
6008	0	32792	32774	
6009	0	32904	32839	
6010	0	32792	32733	
6011	0	32794	32884	
6012	0	32734	32750	
