# OpenSignals Text File Format. Version 1
# {"00:07:80:8C:0A:39": {"position": 0, "device": "biosignalsplux", "device name": "00:07:80:8C:0A:39", "device connection": "BTH00:07:80:8C:0A:39", "sampling rate": 1000, "resolution": [16, 16], "firmware version": 776, "comments": "", "keywords": "", "mode": 0, "sync interval": 2, "date": "2023-3-10", "time": "12:52:47.202", "channels": [1, 2], "sensor": ["EMG", "EMG"], "label": ["CH1", "CH2"], "column": ["nSeq", "DI", "CH1", "CH2"], "special": [{"SpO2": [80, 40, 5, 4, 3, 3]}, {"SpO2": [80, 40, 5, 4, 3, 3]}, {"SpO2": [80, 40, 5, 4, 3, 3]}, {"SpO2": [80, 40, 5, 4, 3, 3]}, {"SpO2": [80, 40, 5, 4, 3, 3]}, {"SpO2": [80, 40, 5, 4, 3, 3]}, {"SpO2": [80, 40, 5, 4, 3, 3]}, {"SpO2": [80, 40, 5, 4, 3, 3]}], "digital IO": [0, 1], "sleeve color": ["gray", "yellow"], "convertedValues": 0}}
# EndOfHeader
0	0	20892	32644	
1	0	20898	32700	
2	0	20900	32752	
3	0	20904	32612	
4	0	20904	32692	
5	0	20902	32790	
6	0	20896	32726	
7	0	20904	32678	
8	0	20910	32616	
9	0	20910	32738	
10	0	20916	32784	
11	0	20908	32768	
12	0	20920	32524	
13	0	20912	32666	
14	0	20920	32856	
15	0	20922	32768	
16	0	20916	32760	
17	0	20912	32662	
18	0	20914	32710	
19	0	20910	32760	
20	0	20912	32620	
21	0	20912	32676	
22	0	20916	32804	
23	0	20908	32732	
24	0	20913	32700	
25	0	20912	32744	
26	0	20912	32542	
27	0	20912	32664	
28	0	20916	32626	
29	0	20916	32720	
30	0	20924	32816	
31	0	20920	32680	
32	0	20924	32712	
33	0	20929	32792	
34	0	20930	32564	
35	0	20924	32636	
36	0	20926	32804	
37	0	20928	32752	
38	0	20932	32656	
39	0	20918	32844	
40	0	20968	32684	
41	0	20928	32774	
42	0	20924	32720	
43	0	20928	32654	
44	0	20928	32792	
45	0	20932	32568	
46	0	20928	32654	
47	0	20930	32775	
48	0	20932	32732	
49	0	20936	32736	
50	0	20932	32714	
51	0	20928	32772	
52	0	20920	32590	
53	0	20924	32634	
54	0	20922	32836	
55	0	20924	32760	
56	0	20921	32612	
57	0	20924	32750	
58	0	20920	32568	
59	0	20920	32708	
60	0	20916	32736	
61	0	20920	32668	
62	0	20913	32672	
63	0	20920	32794	
64	0	20916	32786	
65	0	20920	32834	
66	0	20916	32608	
67	0	20922	32734	
68	0	20916	32652	
69	0	20916	32682	
70	0	20914	32752	
71	0	20914	32636	
72	0	20912	32836	
73	0	20916	32552	
74	0	20908	32752	
75	0	20912	32812	
76	0	20912	32802	
77	0	20912	32728	
78	0	20912	32802	
79	0	20908	32756	
80	0	20908	32532	
81	0	20914	32624	
82	0	20908	32728	
83	0	20912	32838	
84	0	20912	32720	
85	0	20920	32732	
86	0	20912	32748	
87	0	20908	32628	
88	0	20908	32684	
89	0	20912	32782	
90	0	20908	32792	
91	0	20912	32688	
92	0	20908	32756	
93	0	20912	32540	
94	0	20912	32722	
95	0	20912	32808	
96	0	20908	32752	
97	0	20912	32648	
98	0	20912	32616	
99	0	20908	32764	
100	0	20900	32794	
101	0	20904	32552	
102	0	20902	32750	
103	0	20900	32820	
104	0	20900	32792	
105	0	20896	32626	
106	0	20910	32784	
107	0	20900	32598	
108	0	20900	32670	
109	0	20904	32712	
110	0	20902	32740	
111	0	20902	32806	
112	0	20900	32704	
113	0	20902	32680	
114	0	20902	32754	
115	0	20900	32616	
116	0	20898	32548	
117	0	20898	32692	
118	0	20904	32678	
119	0	20906	32772	
120	0	20906	32804	
121	0	20912	32820	
122	0	20906	32766	
123	0	20908	32660	
124	0	20912	32622	
125	0	20908	32710	
126	0	20910	32848	
127	0	20912	32610	
128	0	20912	32516	
129	0	20916	32636	
130	0	20910	32702	
131	0	20914	32802	
132	0	20912	32736	
133	0	20912	32728	
134	0	20910	32670	
135	0	20908	32756	
136	0	20908	32616	
137	0	20916	32636	
138	0	20912	32816	
139	0	20908	32576	
140	0	20912	32796	
141	0	20912	32536	
142	0	20914	32696	
143	0	20912	32804	
144	0	20912	32802	
145	0	20912	32652	
146	0	20916	32780	
147	0	20912	32744	
148	0	20930	32644	
149	0	21082	32740	
150	0	20920	32672	
151	0	20912	32768	
152	0	20916	32528	
153	0	20914	32734	
154	0	20917	32704	
155	0	20920	32636	
156	0	20920	32764	
157	0	20910	32720	
158	0	20916	32816	
159	0	20916	32744	
160	0	20916	32752	
161	0	20920	32618	
162	0	20926	32734	
163	0	20960	32602	
164	0	20922	32768	
165	0	20924	32840	
166	0	20928	32740	
167	0	20912	32880	
168	0	20916	32840	
169	0	20912	32600	
170	0	20908	32716	
171	0	20912	32624	
172	0	20916	32736	
173	0	20904	32832	
174	0	20908	32658	
175	0	20904	32820	
176	0	20904	32744	
177	0	20900	32712	
178	0	20900	32762	
179	0	20902	32628	
180	0	20904	32752	
181	0	20898	32646	
182	0	20900	32732	
183	0	20892	32592	
184	0	20898	32842	
185	0	20896	32736	
186	0	20896	32768	
187	0	20896	32730	
188	0	20892	32508	
189	0	20896	32746	
190	0	20896	32716	
191	0	20892	32712	
192	0	20892	32546	
193	0	20888	32696	
194	0	20888	32792	
195	0	20886	32696	
196	0	20888	32604	
197	0	20888	32696	
198	0	20888	32775	
199	0	20888	32664	
200	0	20888	32742	
201	0	20888	32562	
202	0	20886	32716	
203	0	20888	32616	
204	0	20880	32784	
205	0	20884	32704	
206	0	20876	32692	
207	0	20874	32746	
208	0	20876	32574	
209	0	20876	32752	
210	0	20876	32600	
211	0	20876	32756	
212	0	20874	32608	
213	0	20878	32740	
214	0	20874	32832	
215	0	20872	32684	
216	0	20872	32720	
217	0	20872	32684	
218	0	20872	32784	
219	0	20868	32714	
220	0	20880	32728	
221	0	20876	32718	
222	0	20880	32704	
223	0	20876	32752	
224	0	20864	32708	
225	0	20872	32726	
226	0	20874	32770	
227	0	21044	32608	
228	0	20868	32734	
229	0	20872	32784	
230	0	20872	32806	
231	0	20868	32624	
232	0	20864	32708	
233	0	20868	32568	
234	0	20868	32740	
235	0	20864	32758	
236	0	20908	32606	
237	0	20866	32672	
238	0	20874	32732	
239	0	20876	32692	
240	0	20870	32720	
241	0	20874	32796	
242	0	20868	32644	
243	0	20866	32824	
244	0	20868	32576	
245	0	20880	32692	
246	0	20874	32720	
247	0	20868	32650	
248	0	20868	32540	
249	0	20868	32696	
250	0	20860	32848	
251	0	20872	32608	
252	0	20866	32716	
253	0	20868	32568	
254	0	20864	32737	
255	0	20860	32794	
256	0	20864	32616	
257	0	20860	32720	
258	0	20860	32588	
259	0	20864	32720	
260	0	20866	32810	
261	0	20865	32652	
262	0	20870	32728	
263	0	20866	32736	
264	0	20864	32774	
265	0	20864	32740	
266	0	20864	32804	
267	0	20872	32740	
268	0	20862	32760	
269	0	20868	32794	
270	0	20864	32804	
271	0	20862	32600	
272	0	20864	32684	
273	0	20866	32676	
274	0	20868	32724	
275	0	20868	32652	
276	0	20866	32688	
277	0	20874	32672	
278	0	20868	32775	
279	0	20868	32844	
280	0	20868	32810	
281	0	20868	32796	
282	0	20870	32788	
283	0	20868	32724	
284	0	20866	32708	
285	0	20868	32828	
286	0	20868	32772	
287	0	20866	32746	
288	0	20872	32784	
289	0	20872	32658	
290	0	20872	32680	
291	0	20864	32710	
292	0	20872	32772	
293	0	20872	32708	
294	0	20868	32682	
295	0	20868	32672	
296	0	20880	32648	
297	0	20872	32740	
298	0	20874	32720	
299	0	20876	32662	
300	0	20881	32670	
301	0	20884	32736	
302	0	20882	32762	
303	0	20884	32584	
304	0	20884	32572	
305	0	20882	32644	
306	0	20884	32704	
307	0	20876	32700	
308	0	20872	32820	
309	0	20876	32810	
310	0	20872	32807	
311	0	20868	32804	
312	0	20872	32644	
313	0	20866	32616	
314	0	20864	32714	
315	0	20864	32736	
316	0	20864	32712	
317	0	20860	32824	
318	0	20858	32538	
319	0	20868	32630	
320	0	20864	32668	
321	0	20868	32708	
322	0	20858	32794	
323	0	20864	32686	
324	0	20860	32628	
325	0	20860	32732	
326	0	20860	32766	
327	0	20864	32592	
328	0	21016	32632	
329	0	20860	32712	
330	0	20856	32888	
331	0	20856	32830	
332	0	20860	32788	
333	0	20854	32838	
334	0	20856	32812	
335	0	20858	32832	
336	0	20856	32690	
337	0	20852	32640	
338	0	20856	32688	
339	0	20852	32756	
340	0	20858	32724	
341	0	20856	32760	
342	0	20856	32540	
343	0	20858	32656	
344	0	20858	32722	
345	0	20860	32652	
346	0	20860	32692	
347	0	20856	32764	
348	0	20856	32794	
349	0	20856	32798	
350	0	20856	32768	
351	0	20860	32660	
352	0	20856	32772	
353	0	20848	32698	
354	0	20852	32804	
355	0	20848	32710	
356	0	20844	32792	
357	0	20852	32560	
358	0	20850	32612	
359	0	20848	32690	
360	0	20856	32748	
361	0	20852	32746	
362	0	20852	32776	
363	0	20852	32828	
364	0	20848	32810	
365	0	20848	32834	
366	0	20852	32808	
367	0	20844	32740	
368	0	20860	32736	
369	0	20852	32640	
370	0	20846	32616	
371	0	20852	32762	
372	0	20856	32740	
373	0	20848	32720	
374	0	20852	32775	
375	0	20860	32476	
376	0	20846	32556	
377	0	20852	32784	
378	0	20850	32732	
379	0	20848	32800	
380	0	20848	32752	
381	0	20850	32708	
382	0	20852	32642	
383	0	20852	32674	
384	0	20856	32744	
385	0	20856	32774	
386	0	20856	32608	
387	0	20852	32630	
388	0	20860	32648	
389	0	20852	32732	
390	0	20850	32692	
391	0	20856	32788	
392	0	20852	32788	
393	0	20854	32775	
394	0	20852	32775	
395	0	20856	32628	
396	0	20852	32578	
397	0	20850	32704	
398	0	20856	32760	
399	0	20860	32728	
400	0	20858	32720	
401	0	20858	32820	
402	0	20860	32546	
403	0	20858	32766	
404	0	20856	32696	
405	0	20860	32792	
406	0	20856	32824	
407	0	20856	32836	
408	0	20860	32666	
409	0	20856	32628	
410	0	20852	32688	
411	0	20856	32640	
412	0	20852	32752	
413	0	20852	32732	
414	0	20857	32792	
415	0	20854	32784	
416	0	20858	32784	
417	0	20856	32508	
418	0	20854	32598	
419	0	20852	32668	
420	0	20856	32716	
421	0	20860	32872	
422	0	20856	32750	
423	0	20858	32762	
424	0	20860	32602	
425	0	20856	32664	
426	0	20852	32654	
427	0	20864	32616	
428	0	20856	32656	
429	0	20854	32740	
430	0	20858	32775	
431	0	20856	32788	
432	0	20856	32544	
433	0	20862	32692	
434	0	20860	32736	
435	0	20852	32718	
436	0	20850	32804	
437	0	20856	32775	
438	0	20856	32830	
439	0	20848	32744	
440	0	20854	32832	
441	0	20858	32828	
442	0	20856	32690	
443	0	20850	32644	
444	0	20858	32722	
445	0	20853	32796	
446	0	20852	32772	
447	0	20864	32752	
448	0	20856	32748	
449	0	20856	32816	
450	0	20864	32775	
451	0	20860	32824	
452	0	20868	32806	
453	0	20860	32580	
454	0	20864	32536	
455	0	20868	32614	
456	0	20860	32540	
457	0	20856	32664	
458	0	20868	32564	
459	0	20862	32624	
460	0	20864	32532	
461	0	20860	32748	
462	0	20858	32820	
463	0	20860	32790	
464	0	20860	32726	
465	0	20864	32560	
466	0	20866	32712	
467	0	20868	32646	
468	0	20860	32712	
469	0	20864	32702	
470	0	20860	32696	
471	0	20860	32728	
472	0	20860	32828	
473	0	20868	32764	
474	0	20864	32774	
475	0	20864	32688	
476	0	20860	32708	
477	0	20864	32796	
478	0	20858	32775	
479	0	20860	32812	
480	0	20856	32826	
481	0	20856	32856	
482	0	20856	32744	
483	0	20858	32796	
484	0	20856	32775	
485	0	20860	32760	
486	0	20852	32774	
487	0	20860	32840	
488	0	20852	32820	
489	0	20852	32874	
490	0	20862	32782	
491	0	20856	32708	
492	0	20848	32716	
493	0	20852	32646	
494	0	20860	32712	
495	0	20853	32720	
496	0	20852	32670	
497	0	20850	32780	
498	0	20854	32728	
499	0	20848	32742	
500	0	20852	32528	
501	0	20856	32608	
502	0	20856	32628	
503	0	20852	32692	
504	0	20852	32718	
505	0	20852	32820	
506	0	20854	32836	
507	0	20858	32740	
508	0	20856	32670	
509	0	20852	32664	
510	0	20856	32670	
511	0	20850	32806	
512	0	20848	32776	
513	0	20852	32584	
514	0	20848	32772	
515	0	20848	32775	
516	0	20850	32766	
517	0	20844	32700	
518	0	20844	32664	
519	0	20852	32784	
520	0	20848	32775	
521	0	20848	32584	
522	0	20848	32652	
523	0	20850	32828	
524	0	20852	32704	
525	0	20850	32650	
526	0	20848	32620	
527	0	20850	32710	
528	0	20852	32800	
529	0	20856	32808	
530	0	20854	32630	
531	0	20852	32656	
532	0	20846	32700	
533	0	20853	32864	
534	0	21044	32768	
535	0	20852	32716	
536	0	20856	32640	
537	0	20852	32662	
538	0	20848	32712	
539	0	20856	32724	
540	0	20852	32724	
541	0	20848	32672	
542	0	20852	32760	
543	0	20856	32790	
544	0	20858	32792	
545	0	20852	32672	
546	0	20856	32700	
547	0	20858	32728	
548	0	20856	32734	
549	0	20852	32712	
550	0	20860	32752	
551	0	20860	32784	
552	0	20852	32652	
553	0	20856	32780	
554	0	20854	32484	
555	0	20852	32644	
556	0	20856	32728	
557	0	20848	32800	
558	0	20852	32600	
559	0	20854	32676	
560	0	20852	32800	
561	0	20880	32572	
562	0	20860	32676	
563	0	20848	32682	
564	0	20856	32820	
565	0	20856	32704	
566	0	20856	32734	
567	0	20852	32708	
568	0	20856	32748	
569	0	20850	32536	
570	0	20856	32634	
571	0	20852	32660	
572	0	20853	32676	
573	0	20856	32766	
574	0	20856	32740	
575	0	20856	32668	
576	0	20852	32750	
577	0	20856	32740	
578	0	20852	32736	
579	0	20852	32756	
580	0	20856	32818	
581	0	20858	32752	
582	0	20856	32524	
583	0	20852	32580	
584	0	20856	32592	
585	0	20853	32800	
586	0	20852	32766	
587	0	20852	32744	
588	0	20850	32794	
589	0	20852	32790	
590	0	20852	32580	
591	0	20853	32628	
592	0	20848	32550	
593	0	20856	32500	
594	0	20852	32546	
595	0	20853	32580	
596	0	20856	32744	
597	0	20848	32710	
598	0	20856	32780	
599	0	20856	32750	
600	0	20850	32756	
601	0	20856	32686	
602	0	20860	32650	
603	0	20848	32660	
604	0	20856	32788	
605	0	20856	32782	
606	0	20852	32606	
607	0	20854	32706	
608	0	20852	32696	
609	0	20846	32732	
610	0	20854	32756	
611	0	20850	32775	
612	0	20848	32774	
613	0	20856	32788	
614	0	20856	32674	
615	0	20848	32652	
616	0	20852	32728	
617	0	20848	32760	
618	0	20848	32790	
619	0	20852	32792	
620	0	20852	32752	
621	0	20856	32536	
622	0	20856	32688	
623	0	20856	32792	
624	0	20852	32816	
625	0	20884	32802	
626	0	20852	32740	
627	0	20856	32774	
628	0	20856	32718	
629	0	20852	32740	
630	0	20864	32700	
631	0	20860	32742	
632	0	20858	32768	
633	0	20860	32775	
634	0	20852	32864	
635	0	20864	32580	
636	0	20854	32612	
637	0	20858	32668	
638	0	20856	32614	
639	0	20860	32648	
640	0	20858	32616	
641	0	20864	32512	
642	0	20856	32628	
643	0	20856	32720	
644	0	20862	32704	
645	0	20856	32784	
646	0	20864	32822	
647	0	20856	32780	
648	0	20848	32768	
649	0	20856	32736	
650	0	20852	32840	
651	0	20853	32812	
652	0	20856	32808	
653	0	20852	32856	
654	0	20856	32816	
655	0	20852	32820	
656	0	20850	32756	
657	0	20852	32664	
658	0	20860	32676	
659	0	20860	32682	
660	0	20862	32660	
661	0	20860	32608	
662	0	20856	32678	
663	0	20858	32720	
664	0	20860	32780	
665	0	20858	32560	
666	0	20857	32604	
667	0	20860	32648	
668	0	20864	32596	
669	0	20864	32692	
670	0	20862	32696	
671	0	20862	32674	
672	0	20864	32700	
673	0	20856	32820	
674	0	20864	32836	
675	0	20864	32828	
676	0	20868	32746	
677	0	20866	32700	
678	0	20865	32672	
679	0	20862	32760	
680	0	20864	32700	
681	0	20864	32742	
682	0	20864	32712	
683	0	20860	32764	
684	0	20864	32716	
685	0	20869	32852	
686	0	20864	32770	
687	0	20870	32812	
688	0	20870	32564	
689	0	20872	32558	
690	0	20874	32612	
691	0	20868	32624	
692	0	20878	32720	
693	0	20874	32744	
694	0	20872	32846	
695	0	20880	32788	
696	0	20880	32646	
697	0	20882	32672	
698	0	20884	32784	
699	0	20888	32834	
700	0	20976	32518	
701	0	20884	32644	
702	0	20884	32784	
703	0	20888	32608	
704	0	20880	32696	
705	0	20884	32760	
706	0	20880	32576	
707	0	20884	32636	
708	0	20880	32768	
709	0	20884	32860	
710	0	20882	32720	
711	0	20882	32640	
712	0	20876	32728	
713	0	20870	32756	
714	0	20882	32752	
715	0	20876	32760	
716	0	20880	32664	
717	0	20872	32688	
718	0	20872	32714	
719	0	20878	32816	
720	0	20880	32812	
721	0	20880	32704	
722	0	20878	32718	
723	0	20873	32656	
724	0	20876	32748	
725	0	20872	32863	
726	0	20876	32700	
727	0	20876	32632	
728	0	20886	32766	
729	0	20884	32752	
730	0	20888	32604	
731	0	20894	32740	
732	0	20888	32788	
733	0	20898	32696	
734	0	20896	32712	
735	0	20900	32798	
736	0	20900	32796	
737	0	20904	32720	
738	0	20904	32796	
739	0	20900	32600	
740	0	20906	32708	
741	0	20908	32775	
742	0	20908	32762	
743	0	20916	32714	
744	0	20916	32616	
745	0	20912	32696	
746	0	20912	32740	
747	0	20908	32496	
748	0	20908	32600	
749	0	20908	32646	
750	0	20908	32664	
751	0	20912	32558	
752	0	20904	32644	
753	0	20900	32684	
754	0	20908	32580	
755	0	20904	32698	
756	0	20908	32488	
757	0	20908	32492	
758	0	20904	32514	
759	0	20908	32588	
760	0	20922	32612	
761	0	20920	32700	
762	0	20920	32704	
763	0	20916	32868	
764	0	20920	32720	
765	0	20912	32736	
766	0	20920	32636	
767	0	20912	32670	
768	0	20916	32744	
769	0	20912	32764	
770	0	20916	32816	
771	0	20916	32564	
772	0	20916	32638	
773	0	20916	32774	
774	0	20920	32836	
775	0	20920	32952	
776	0	20924	32932	
777	0	20912	32974	
778	0	20920	32940	
779	0	20916	32878	
780	0	20920	32860	
781	0	20914	32820	
782	0	20912	32920	
783	0	20916	32818	
784	0	20920	32724	
785	0	20918	32732	
786	0	20920	32732	
787	0	20916	32872	
788	0	20920	32610	
789	0	20920	32550	
790	0	20922	32612	
791	0	20916	32730	
792	0	20920	32756	
793	0	20920	32542	
794	0	20926	32480	
795	0	20917	32454	
796	0	20916	32482	
797	0	20912	32502	
798	0	20912	32654	
799	0	20916	32644	
800	0	20916	32568	
801	0	20912	32678	
802	0	20920	32716	
803	0	20912	32708	
804	0	20916	32590	
805	0	20916	32668	
806	0	20922	32702	
807	0	20920	32772	
808	0	20920	32792	
809	0	20920	32824	
810	0	20920	32775	
811	0	20920	32752	
812	0	20922	32684	
813	0	20920	32710	
814	0	20920	32788	
815	0	20920	32700	
816	0	20912	32692	
817	0	20912	32832	
818	0	20920	32775	
819	0	20906	32836	
820	0	20916	32536	
821	0	20916	32652	
822	0	20920	32790	
823	0	20916	32860	
824	0	20912	32792	
825	0	20916	32816	
826	0	20912	32752	
827	0	20916	32788	
828	0	20912	32800	
829	0	20910	32736	
830	0	20918	32704	
831	0	20916	32670	
832	0	20912	32644	
833	0	20912	32652	
834	0	20912	32704	
835	0	20916	32732	
836	0	20920	32748	
837	0	20920	32775	
838	0	20920	32534	
839	0	20922	32712	
840	0	20920	32680	
841	0	20920	32696	
842	0	20920	32764	
843	0	20920	32774	
844	0	20920	32832	
845	0	20920	32668	
846	0	20920	32700	
847	0	20920	32614	
848	0	20924	32686	
849	0	20924	32728	
850	0	20932	32800	
851	0	20928	32660	
852	0	20934	32576	
853	0	20932	32584	
854	0	20936	32604	
855	0	20932	32680	
856	0	20932	32722	
857	0	20932	32698	
858	0	20928	32822	
859	0	20930	32742	
860	0	20936	32604	
861	0	20932	32642	
862	0	20936	32758	
863	0	20934	32762	
864	0	20928	32710	
865	0	20938	32788	
866	0	20936	32556	
867	0	20934	32696	
868	0	20936	32656	
869	0	20944	32704	
870	0	20936	32828	
871	0	20938	32852	
872	0	20944	32694	
873	0	20946	32678	
874	0	20940	32720	
875	0	20940	32760	
876	0	20948	32676	
877	0	20946	32588	
878	0	20956	32548	
879	0	20956	32600	
880	0	20948	32760	
881	0	20954	32564	
882	0	20950	32700	
883	0	20956	32740	
884	0	20960	32796	
885	0	20960	32886	
886	0	20960	32622	
887	0	20954	32676	
888	0	20960	32628	
889	0	20996	32692	
890	0	20962	32750	
891	0	20958	32792	
892	0	20956	32774	
893	0	20952	32583	
894	0	20960	32620	
895	0	20956	32720	
896	0	20960	32754	
897	0	20956	32844	
898	0	20954	32556	
899	0	20958	32718	
900	0	20956	32824	
901	0	20956	32720	
902	0	20956	32560	
903	0	20960	32616	
904	0	20952	32676	
905	0	20956	32775	
906	0	20962	32844	
907	0	20952	32786	
908	0	20953	32696	
909	0	20956	32646	
910	0	20956	32680	
911	0	20960	32760	
912	0	20952	32775	
913	0	20952	32656	
914	0	20953	32784	
915	0	21074	32838	
916	0	20954	32768	
917	0	20945	32636	
918	0	20954	32756	
919	0	20952	32816	
920	0	20948	32704	
921	0	20948	32742	
922	0	20954	32788	
923	0	20948	32836	
924	0	20948	32728	
925	0	20952	32584	
926	0	20944	32812	
927	0	20952	32596	
928	0	20950	32612	
929	0	20952	32706	
930	0	20948	32820	
931	0	20944	32796	
932	0	20950	32726	
933	0	20960	32732	
934	0	20964	32752	
935	0	20956	32570	
936	0	20960	32580	
937	0	20964	32644	
938	0	20960	32628	
939	0	20964	32634	
940	0	20968	32676	
941	0	20966	32700	
942	0	20964	32770	
943	0	20966	32712	
944	0	20972	32774	
945	0	20966	32768	
946	0	20960	32792	
947	0	20956	32696	
948	0	20960	32678	
949	0	20956	32620	
950	0	20948	32636	
951	0	20948	32726	
952	0	20952	32724	
953	0	20950	32848	
954	0	20940	32702	
955	0	20948	32756	
956	0	20946	32686	
957	0	20948	32688	
958	0	20948	32824	
959	0	20952	32732	
960	0	21090	32538	
961	0	20952	32616	
962	0	20956	32664	
963	0	20952	32822	
964	0	20954	32758	
965	0	20952	32632	
966	0	20952	32774	
967	0	20960	32804	
968	0	20956	32580	
969	0	20956	32660	
970	0	20952	32844	
971	0	21078	32746	
972	0	20954	32784	
973	0	20952	32844	
974	0	20958	32750	
975	0	20960	32738	
976	0	20964	32680	
977	0	20962	32628	
978	0	20960	32602	
979	0	20968	32670	
980	0	20976	32712	
981	0	20970	32680	
982	0	20972	32720	
983	0	20970	32748	
984	0	20976	32676	
985	0	20968	32704	
986	0	20972	32788	
987	0	20980	32808	
988	0	20976	32774	
989	0	20970	32604	
990	0	20972	32552	
991	0	20962	32692	
992	0	20968	32672	
993	0	20964	32764	
994	0	20964	32768	
995	0	20964	32816	
996	0	20968	32656	
997	0	20968	32644	
998	0	20968	32775	
999	0	20970	32768	
1000	0	20968	32724	
1001	0	20966	32600	
1002	0	20966	32724	
1003	0	20972	32752	
1004	0	20968	32736	
1005	0	20968	32708	
1006	0	20964	32816	
1007	0	20960	32810	
1008	0	20968	32864	
1009	0	20970	32734	
1010	0	20970	32702	
1011	0	20972	32604	
1012	0	20970	32704	
1013	0	20968	32660	
1014	0	20976	32769	
1015	0	20972	32826	
1016	0	20972	32584	
1017	0	20970	32544	
1018	0	20970	32528	
1019	0	20972	32764	
1020	0	20968	32728	
1021	0	20962	32684	
1022	0	20968	32784	
1023	0	20968	32760	
1024	0	20974	32672	
1025	0	20982	32692	
1026	0	20980	32806	
1027	0	20981	32858	
1028	0	20984	32492	
1029	0	20984	32608	
1030	0	20980	32628	
1031	0	20980	32680	
1032	0	20980	32775	
1033	0	20980	32796	
1034	0	20984	32642	
1035	0	20984	32714	
1036	0	20984	32760	
1037	0	20980	32700	
1038	0	20984	32576	
1039	0	20984	32682	
1040	0	20976	32680	
1041	0	20976	32836	
1042	0	20980	32816	
1043	0	20980	32592	
1044	0	20972	32710	
1045	0	20980	32748	
1046	0	20980	32748	
1047	0	20984	32804	
1048	0	20980	32552	
1049	0	20986	32710	
1050	0	20981	32804	
1051	0	20980	32744	
1052	0	20984	32658	
1053	0	20984	32772	
1054	0	20976	32768	
1055	0	20980	32588	
1056	0	20980	32748	
1057	0	20984	32760	
1058	0	21000	32668	
1059	0	20996	32714	
1060	0	21004	32672	
1061	0	21008	32816	
1062	0	21008	32580	
1063	0	21004	32646	
1064	0	21004	32620	
1065	0	21016	32732	
1066	0	21024	32764	
1067	0	21024	32672	
1068	0	21040	32711	
1069	0	21048	32775	
1070	0	21044	32688	
1071	0	21036	32796	
1072	0	21036	32886	
1073	0	21064	32808	
1074	0	21032	32800	
1075	0	21038	32692	
1076	0	21044	32676	
1077	0	21041	32766	
1078	0	21044	32554	
1079	0	21048	32712	
1080	0	21048	32660	
1081	0	21046	32768	
1082	0	21052	32586	
1083	0	21060	32768	
1084	0	21060	32774	
1085	0	21056	32699	
1086	0	21056	32660	
1087	0	21060	32816	
1088	0	21058	32772	
1089	0	21068	32692	
1090	0	21066	32730	
1091	0	21072	32774	
1092	0	21080	32746	
1093	0	21072	32540	
1094	0	21072	32568	
1095	0	21072	32728	
1096	0	21080	32718	
1097	0	21080	32840	
1098	0	21084	32754	
1099	0	21084	32750	
1100	0	21080	32664	
1101	0	21082	32712	
1102	0	21088	32756	
1103	0	21088	32538	
1104	0	21088	32600	
1105	0	21096	32660	
1106	0	21096	32778	
1107	0	21092	32714	
1108	0	21096	32752	
1109	0	21096	32772	
1110	0	21102	32704	
1111	0	21104	32654	
1112	0	21100	32812	
1113	0	21104	32788	
1114	0	21104	32720	
1115	0	21106	32808	
1116	0	21105	32624	
1117	0	21104	32588	
1118	0	21096	32568	
1119	0	21102	32534	
1120	0	21102	32586	
1121	0	21100	32618	
1122	0	21104	32694	
1123	0	21108	32828	
1124	0	21104	32736	
1125	0	21098	32748	
1126	0	21140	32648	
1127	0	21128	32612	
1128	0	21124	32660	
1129	0	21124	32608	
1130	0	21124	32672	
1131	0	21128	32656	
1132	0	21128	32688	
1133	0	21132	32711	
1134	0	21128	32802	
1135	0	21132	32544	
1136	0	21128	32652	
1137	0	21134	32672	
1138	0	21136	32612	
1139	0	21122	32708	
1140	0	21124	32732	
1141	0	21112	32692	
1142	0	21100	32694	
1143	0	21088	32794	
1144	0	21088	32764	
1145	0	21074	32720	
1146	0	21100	32704	
1147	0	21088	32628	
1148	0	21096	32672	
1149	0	21120	32742	
1150	0	21144	32760	
1151	0	21116	32756	
1152	0	21108	32788	
1153	0	21096	32552	
1154	0	21096	32688	
1155	0	21090	32760	
1156	0	21090	32720	
1157	0	21096	32772	
1158	0	21116	32638	
1159	0	21116	32722	
1160	0	21118	32800	
1161	0	21124	32540	
1162	0	21112	32584	
1163	0	21104	32672	
1164	0	21100	32716	
1165	0	21092	32834	
1166	0	21092	32608	
1167	0	21092	32682	
1168	0	21092	32768	
1169	0	21108	32804	
1170	0	21108	32568	
1171	0	21100	32544	
1172	0	21104	32752	
1173	0	21098	32692	
1174	0	21096	32775	
1175	0	21104	32672	
1176	0	21090	32764	
1177	0	21088	32708	
1178	0	21086	32728	
1179	0	21092	32820	
1180	0	21088	32570	
1181	0	21096	32694	
1182	0	21100	32768	
1183	0	21105	32676	
1184	0	21104	32784	
1185	0	21116	32760	
1186	0	21124	32748	
1187	0	21148	32712	
1188	0	21122	32668	
1189	0	21086	32660	
1190	0	21068	32676	
1191	0	21056	32708	
1192	0	21082	32768	
1193	0	21040	32564	
1194	0	21036	32558	
1195	0	21024	32536	
1196	0	21020	32664	
1197	0	21012	32710	
1198	0	21016	32668	
1199	0	21004	32678	
1200	0	21004	32668	
1201	0	20996	32696	
1202	0	20992	32660	
1203	0	20992	32644	
1204	0	20986	32604	
1205	0	20988	32614	
1206	0	20984	32736	
1207	0	20981	32722	
1208	0	20970	32810	
1209	0	20972	32720	
1210	0	20968	32820	
1211	0	20968	32796	
1212	0	20964	32660	
1213	0	20956	32646	
1214	0	20956	32706	
1215	0	20952	32688	
1216	0	20946	32814	
1217	0	20950	32740	
1218	0	20948	32760	
1219	0	20948	32764	
1220	0	20944	32544	
1221	0	20950	32556	
1222	0	20944	32696	
1223	0	20940	32716	
1224	0	20944	32688	
1225	0	20932	32736	
1226	0	20940	32808	
1227	0	20944	32788	
1228	0	20940	32732	
1229	0	20940	32692	
1230	0	20936	32728	
1231	0	20940	32734	
1232	0	20932	32788	
1233	0	20944	32750	
1234	0	20942	32806	
1235	0	20940	32764	
1236	0	20948	32824	
1237	0	20952	32784	
1238	0	20954	32580	
1239	0	20948	32622	
1240	0	20956	32820	
1241	0	20952	32802	
1242	0	20952	32724	
1243	0	20956	32612	
1244	0	20976	32694	
1245	0	20980	32612	
1246	0	20980	32704	
1247	0	21040	32740	
1248	0	20976	32775	
1249	0	20968	32722	
1250	0	20962	32668	
1251	0	20960	32642	
1252	0	20954	32748	
1253	0	20944	32764	
1254	0	20944	32560	
1255	0	20942	32630	
1256	0	20948	32612	
1257	0	20944	32676	
1258	0	20938	32760	
1259	0	20944	32766	
1260	0	20940	32824	
1261	0	20932	32762	
1262	0	20942	32834	
1263	0	20940	32716	
1264	0	20960	32772	
1265	0	20954	32674	
1266	0	20970	32708	
1267	0	21028	32736	
1268	0	21048	32656	
1269	0	21056	32716	
1270	0	21000	32812	
1271	0	20992	32556	
1272	0	20988	32546	
1273	0	20984	32734	
1274	0	20980	32768	
1275	0	20972	32752	
1276	0	20980	32718	
1277	0	20980	32868	
1278	0	21056	32816	
1279	0	20994	32696	
1280	0	20988	32708	
1281	0	20972	32710	
1282	0	20962	32688	
1283	0	20956	32800	
1284	0	20946	32616	
1285	0	20944	32624	
1286	0	20944	32732	
1287	0	20938	32760	
1288	0	20936	32736	
1289	0	20932	32824	
1290	0	20926	32674	
1291	0	20924	32676	
1292	0	20922	32712	
1293	0	20916	32744	
1294	0	20920	32752	
1295	0	20912	32654	
1296	0	20916	32788	
1297	0	20908	32798	
1298	0	20908	32788	
1299	0	20904	32792	
1300	0	20904	32676	
1301	0	20896	32756	
1302	0	20898	32750	
1303	0	20952	32728	
1304	0	20896	32832	
1305	0	20900	32836	
1306	0	20888	32775	
1307	0	20894	32724	
1308	0	20890	32756	
1309	0	20890	32775	
1310	0	20886	32592	
1311	0	20888	32648	
1312	0	20888	32760	
1313	0	20884	32692	
1314	0	20884	32686	
1315	0	20876	32704	
1316	0	20876	32672	
1317	0	21036	32712	
1318	0	20872	32794	
1319	0	20874	32812	
1320	0	20876	32696	
1321	0	20876	32718	
1322	0	20888	32700	
1323	0	20870	32714	
1324	0	20880	32744	
1325	0	20872	32750	
1326	0	20880	32596	
1327	0	21010	32724	
1328	0	20872	32792	
1329	0	20876	32620	
1330	0	20874	32640	
1331	0	20876	32692	
1332	0	20876	32728	
1333	0	20872	32740	
1334	0	20876	32706	
1335	0	20868	32614	
1336	0	20874	32644	
1337	0	20872	32642	
1338	0	20872	32660	
1339	0	20868	32704	
1340	0	20872	32756	
1341	0	20868	32742	
1342	0	20868	32724	
1343	0	20864	32738	
1344	0	20872	32656	
1345	0	20865	32700	
1346	0	20868	32640	
1347	0	20868	32704	
1348	0	20868	32768	
1349	0	20872	32832	
1350	0	20874	32552	
1351	0	20868	32744	
1352	0	20874	32732	
1353	0	20874	32775	
1354	0	20876	32762	
1355	0	20880	32600	
1356	0	20876	32684	
1357	0	20884	32624	
1358	0	20868	32644	
1359	0	20884	32676	
1360	0	20880	32700	
1361	0	20884	32768	
1362	0	20880	32720	
1363	0	20884	32732	
1364	0	20884	32736	
1365	0	20880	32782	
1366	0	20881	32583	
1367	0	20884	32684	
1368	0	20888	32572	
1369	0	20888	32708	
1370	0	20880	32708	
1371	0	20888	32796	
1372	0	20880	32768	
1373	0	20880	32724	
1374	0	20876	32708	
1375	0	20880	32708	
1376	0	20884	32656	
1377	0	20876	32624	
1378	0	20880	32712	
1379	0	20884	32756	
1380	0	20874	32764	
1381	0	20876	32760	
1382	0	20872	32820	
1383	0	20876	32590	
1384	0	20870	32574	
1385	0	20872	32680	
1386	0	20880	32672	
1387	0	20876	32774	
1388	0	20876	32812	
1389	0	20880	32774	
1390	0	20876	32624	
1391	0	20882	32696	
1392	0	20884	32744	
1393	0	20884	32764	
1394	0	20881	32746	
1395	0	20892	32584	
1396	0	20890	32556	
1397	0	20888	32592	
1398	0	20888	32696	
1399	0	20888	32600	
1400	0	20888	32711	
1401	0	20898	32740	
1402	0	20916	32736	
1403	0	20912	32688	
1404	0	20918	32692	
1405	0	20914	32780	
1406	0	20928	32774	
1407	0	20916	32800	
1408	0	20912	32706	
1409	0	20916	32704	
1410	0	20932	32630	
1411	0	20928	32682	
1412	0	20940	32762	
1413	0	20946	32724	
1414	0	20936	32696	
1415	0	20932	32724	
1416	0	20944	32706	
1417	0	20944	32714	
1418	0	20948	32824	
1419	0	20949	32544	
1420	0	20952	32552	
1421	0	20952	32684	
1422	0	20956	32710	
1423	0	20962	32706	
1424	0	20960	32764	
1425	0	20964	32832	
1426	0	20972	32632	
1427	0	20970	32775	
1428	0	21016	32746	
1429	0	20972	32832	
1430	0	20968	32580	
1431	0	20972	32612	
1432	0	20976	32710	
1433	0	20980	32736	
1434	0	20980	32828	
1435	0	20976	32774	
1436	0	20984	32648	
1437	0	20980	32616	
1438	0	20984	32620	
1439	0	20984	32708	
1440	0	20984	32694	
1441	0	20984	32768	
1442	0	20996	32848	
1443	0	20994	32554	
1444	0	20990	32494	
1445	0	20996	32530	
1446	0	20992	32628	
1447	0	20992	32752	
1448	0	20988	32752	
1449	0	20990	32862	
1450	0	21092	32738	
1451	0	20988	32775	
1452	0	20986	32672	
1453	0	20990	32775	
1454	0	20992	32664	
1455	0	20982	32856	
1456	0	20996	32624	
1457	0	20988	32688	
1458	0	20992	32676	
1459	0	20984	32754	
1460	0	20992	32832	
1461	0	20986	32688	
1462	0	20988	32660	
1463	0	20988	32673	
1464	0	20992	32768	
1465	0	20994	32714	
1466	0	20989	32528	
1467	0	21000	32580	
1468	0	20998	32676	
1469	0	21000	32700	
1470	0	20996	32724	
1471	0	20994	32790	
1472	0	20992	32752	
1473	0	21082	32668	
1474	0	20988	32612	
1475	0	20986	32672	
1476	0	21160	32784	
1477	0	20992	32752	
1478	0	20980	32746	
1479	0	20984	32496	
1480	0	20982	32676	
1481	0	20984	32736	
1482	0	20976	32704	
1483	0	20980	32684	
1484	0	20980	32764	
1485	0	20984	32700	
1486	0	20980	32712	
1487	0	20990	32644	
1488	0	20984	32644	
1489	0	20990	32706	
1490	0	20976	32760	
1491	0	20984	32632	
1492	0	20980	32600	
1493	0	20976	32736	
1494	0	20976	32816	
1495	0	20974	32714	
1496	0	20976	32744	
1497	0	20972	32620	
1498	0	20964	32570	
1499	0	20968	32624	
1500	0	20962	32672	
1501	0	20960	32754	
1502	0	20964	32732	
1503	0	20956	32700	
1504	0	20956	32652	
1505	0	20960	32740	
1506	0	20956	32808	
1507	0	20968	32788	
1508	0	20960	32618	
1509	0	20964	32688	
1510	0	20964	32668	
1511	0	20960	32820	
1512	0	20964	32852	
1513	0	20968	32624	
1514	0	20972	32736	
1515	0	20976	32798	
1516	0	20980	32706	
1517	0	20988	32640	
1518	0	20992	32708	
1519	0	20992	32752	
1520	0	20992	32775	
1521	0	21000	32588	
1522	0	21000	32714	
1523	0	21008	32782	
1524	0	20994	32756	
1525	0	21016	32736	
1526	0	21016	32644	
1527	0	21012	32734	
1528	0	21020	32596	
1529	0	21016	32744	
1530	0	21016	32774	
1531	0	21020	32736	
1532	0	21048	32700	
1533	0	21012	32752	
1534	0	20994	32768	
1535	0	20990	32610	
1536	0	20980	32764	
1537	0	21004	32792	
1538	0	20978	32604	
1539	0	20964	32838	
1540	0	20976	32772	
1541	0	20968	32712	
1542	0	20980	32564	
1543	0	20992	32636	
1544	0	20984	32752	
1545	0	20982	32752	
1546	0	20984	32734	
1547	0	20968	32818	
1548	0	20970	32770	
1549	0	20964	32634	
1550	0	20964	32596	
1551	0	20964	32688	
1552	0	20962	32616	
1553	0	20964	32792	
1554	0	20968	32775	
1555	0	20970	32728	
1556	0	20964	32632	
1557	0	20970	32620	
1558	0	20964	32640	
1559	0	20968	32672	
1560	0	20964	32682	
1561	0	20972	32700	
1562	0	20976	32828	
1563	0	20978	32740	
1564	0	20972	32874	
1565	0	20988	32704	
1566	0	20976	32746	
1567	0	20980	32756	
1568	0	20976	32580	
1569	0	20976	32706	
1570	0	20970	32768	
1571	0	20996	32752	
1572	0	20980	32664	
1573	0	20984	32720	
1574	0	20980	32780	
1575	0	20986	32876	
1576	0	20984	32596	
1577	0	20976	32748	
1578	0	20976	32740	
1579	0	20982	32588	
1580	0	20992	32616	
1581	0	21000	32626	
1582	0	21014	32794	
1583	0	21009	32796	
1584	0	21012	32744	
1585	0	21024	32738	
1586	0	21028	32744	
1587	0	21036	32786	
1588	0	21076	32556	
1589	0	21060	32710	
1590	0	21134	32800	
1591	0	21124	32775	
1592	0	21146	32764	
1593	0	21052	32676	
1594	0	21028	32616	
1595	0	21008	32676	
1596	0	20996	32734	
1597	0	20982	32834	
1598	0	20972	32744	
1599	0	20956	32712	
1600	0	20954	32564	
1601	0	20940	32472	
1602	0	20940	32650	
1603	0	20932	32686	
1604	0	20928	32708	
1605	0	20916	32622	
1606	0	20924	32734	
1607	0	20912	32816	
1608	0	20906	32796	
1609	0	20896	32796	
1610	0	20892	32852	
1611	0	20892	32724	
1612	0	20894	32760	
1613	0	20884	32647	
1614	0	20880	32714	
1615	0	20880	32732	
1616	0	20868	32764	
1617	0	20868	32512	
1618	0	20864	32756	
1619	0	20856	32718	
1620	0	20856	32720	
1621	0	20852	32700	
1622	0	20868	32768	
1623	0	20852	32740	
1624	0	20844	32664	
1625	0	20840	32744	
1626	0	20840	32782	
1627	0	20836	32774	
1628	0	20834	32844	
1629	0	20834	32772	
1630	0	20832	32684	
1631	0	20828	32680	
1632	0	20832	32648	
1633	0	20825	32686	
1634	0	20824	32630	
1635	0	20828	32736	
1636	0	20822	32708	
1637	0	20818	32752	
1638	0	20812	32694	
1639	0	20820	32728	
1640	0	20818	32664	
1641	0	20816	32620	
1642	0	20813	32494	
1643	0	20816	32700	
1644	0	20812	32736	
1645	0	20808	32824	
1646	0	20812	32752	
1647	0	20804	32766	
1648	0	20812	32800	
1649	0	20812	32736	
1650	0	20802	32662	
1651	0	20808	32720	
1652	0	20808	32738	
1653	0	20802	32828	
1654	0	20800	32800	
1655	0	20812	32792	
1656	0	20808	32748	
1657	0	20804	32696	
1658	0	20808	32824	
1659	0	20808	32576	
1660	0	20808	32518	
1661	0	20805	32664	
1662	0	20808	32664	
1663	0	20812	32680	
1664	0	20808	32784	
1665	0	20808	32796	
1666	0	20800	32706	
1667	0	20804	32708	
1668	0	20808	32728	
1669	0	20804	32736	
1670	0	20804	32654	
1671	0	20804	32674	
1672	0	20804	32736	
1673	0	20801	32772	
1674	0	20800	32536	
1675	0	20804	32706	
1676	0	20804	32704	
1677	0	20800	32640	
1678	0	20798	32766	
1679	0	20796	32802	
1680	0	20796	32756	
1681	0	20804	32708	
1682	0	20798	32644	
1683	0	20800	32708	
1684	0	20804	32748	
1685	0	20800	32756	
1686	0	20800	32776	
1687	0	20800	32784	
1688	0	20796	32774	
1689	0	20808	32760	
1690	0	20804	32732	
1691	0	20802	32708	
1692	0	20816	32748	
1693	0	20808	32804	
1694	0	20972	32775	
1695	0	20808	32768	
1696	0	20958	32616	
1697	0	20814	32706	
1698	0	20812	32712	
1699	0	20812	32688	
1700	0	20820	32708	
1701	0	20824	32732	
1702	0	20828	32692	
1703	0	20848	32698	
1704	0	20852	32798	
1705	0	20842	32774	
1706	0	20838	32716	
1707	0	20840	32796	
1708	0	20850	32636	
1709	0	20846	32688	
1710	0	20852	32692	
1711	0	20852	32818	
1712	0	20852	32766	
1713	0	20848	32756	
1714	0	20856	32572	
1715	0	20860	32540	
1716	0	20866	32608	
1717	0	20868	32732	
1718	0	20890	32636	
1719	0	20904	32752	
1720	0	20916	32722	
1721	0	20926	32632	
1722	0	20964	32752	
1723	0	20932	32774	
1724	0	20904	32742	
1725	0	20888	32554	
1726	0	20884	32576	
1727	0	20872	32660	
1728	0	20868	32736	
1729	0	20866	32848	
1730	0	20860	32852	
1731	0	20860	32668	
1732	0	20856	32732	
1733	0	20852	32766	
1734	0	20858	32736	
1735	0	20852	32724	
1736	0	20848	32824	
1737	0	20848	32744	
1738	0	20856	32514	
1739	0	20866	32586	
1740	0	20864	32564	
1741	0	20868	32552	
1742	0	20870	32624	
1743	0	20872	32810	
1744	0	20870	32718	
1745	0	20888	32650	
1746	0	20904	32640	
1747	0	20904	32704	
1748	0	20924	32784	
1749	0	20964	32818	
1750	0	20954	32618	
1751	0	20996	32792	
1752	0	20996	32742	
1753	0	20988	32804	
1754	0	20992	32862	
1755	0	21014	32728	
1756	0	21038	32712	
1757	0	21048	32614	
1758	0	21088	32682	
1759	0	21056	32712	
1760	0	21060	32774	
1761	0	21058	32775	
1762	0	21068	32680	
1763	0	21102	32680	
1764	0	21124	32772	
1765	0	21138	32764	
1766	0	21152	32462	
1767	0	21168	32512	
1768	0	21196	32664	
1769	0	52432	32452	
1770	0	65535	32922	
1771	0	62880	32868	
1772	0	58606	32840	
1773	0	54812	32820	
1774	0	51644	32780	
1775	0	48966	32832	
1776	0	46695	32812	
1777	0	44764	32828	
1778	0	43104	32834	
1779	0	41672	32838	
1780	0	40448	32824	
1781	0	39388	32816	
1782	0	38472	32822	
1783	0	37688	32862	
1784	0	37020	32876	
1785	0	36452	32880	
1786	0	35948	32856	
1787	0	35516	32804	
1788	0	35152	32772	
1789	0	34834	32808	
1790	0	34564	32852	
1791	0	34342	32944	
1792	0	34138	32974	
1793	0	33972	33050	
1794	0	33824	33008	
1795	0	33684	32942	
1796	0	33588	32924	
1797	0	33488	32871	
1798	0	33410	32926	
1799	0	26344	32844	
1800	0	25496	32728	
1801	0	25166	32808	
1802	0	25012	32768	
1803	0	25056	32548	
1804	0	25060	32516	
1805	0	25304	32598	
1806	0	25604	32644	
1807	0	25940	32708	
1808	0	26288	32712	
1809	0	26584	32606	
1810	0	27044	32616	
1811	0	27362	32628	
1812	0	27720	32750	
1813	0	28088	32586	
1814	0	28440	32664	
1815	0	28800	32664	
1816	0	29016	32680	
1817	0	29306	32668	
1818	0	29552	32816	
1819	0	29784	32828	
1820	0	29996	32690	
1821	0	30220	32728	
1822	0	30410	32708	
1823	0	30624	32792	
1824	0	30848	32832	
1825	0	30938	32886	
1826	0	31080	32750	
1827	0	31178	32680	
1828	0	31304	32822	
1829	0	31376	32792	
1830	0	31470	32784	
1831	0	31580	32828	
1832	0	31680	32712	
1833	0	31700	32724	
1834	0	31814	32768	
1835	0	31850	32775	
1836	0	31872	32808	
1837	0	31988	32760	
1838	0	32000	32736	
1839	0	31944	32718	
1840	0	32072	32684	
1841	0	32066	32674	
1842	0	32172	32822	
1843	0	32214	32700	
1844	0	32224	32768	
1845	0	32272	32824	
1846	0	32280	32804	
1847	0	32272	32732	
1848	0	32298	32720	
1849	0	32320	32718	
1850	0	32334	32828	
1851	0	32440	32804	
1852	0	32432	32799	
1853	0	32380	32788	
1854	0	32402	32814	
1855	0	32391	32856	
1856	0	32436	32692	
1857	0	32400	32622	
1858	0	32454	32722	
1859	0	32484	32774	
1860	0	32508	32792	
1861	0	32462	32886	
1862	0	32560	32744	
1863	0	32554	32756	
1864	0	32552	32758	
1865	0	32632	32862	
1866	0	32488	32820	
1867	0	32580	32673	
1868	0	32532	32743	
1869	0	32536	32714	
1870	0	32614	32866	
1871	0	32532	32902	
1872	0	32622	32775	
1873	0	32568	32800	
1874	0	32560	32770	
1875	0	32640	32652	
1876	0	32592	32664	
1877	0	32588	32754	
1878	0	32592	32808	
1879	0	32632	32775	
1880	0	32600	32796	
1881	0	32602	32686	
1882	0	32636	32682	
1883	0	32664	32826	
1884	0	32676	32752	
1885	0	32610	32756	
1886	0	32704	32797	
1887	0	32660	32814	
1888	0	32684	32792	
1889	0	32592	32730	
1890	0	32692	32716	
1891	0	32626	32768	
1892	0	32688	32730	
1893	0	32652	32784	
1894	0	32728	32816	
1895	0	32696	32764	
1896	0	32708	32802	
1897	0	32696	32742	
1898	0	32716	32644	
1899	0	32648	32723	
1900	0	32708	32732	
1901	0	32726	32823	
1902	0	32706	32782	
1903	0	32784	32808	
1904	0	32734	32766	
1905	0	32768	32725	
1906	0	32666	32730	
1907	0	32694	32756	
1908	0	32720	32856	
1909	0	32684	32772	
1910	0	32682	32866	
1911	0	32646	32711	
1912	0	32648	32766	
1913	0	32706	32742	
1914	0	32656	32775	
1915	0	32732	32792	
1916	0	32720	32812	
1917	0	32732	32798	
1918	0	32708	32836	
1919	0	32696	32706	
1920	0	32780	32710	
1921	0	32692	32700	
1922	0	32736	32694	
1923	0	32772	32820	
1924	0	32760	32742	
1925	0	32758	32814	
1926	0	32666	32714	
1927	0	32728	32826	
1928	0	32710	32866	
1929	0	32784	32810	
1930	0	32752	32735	
1931	0	32786	32816	
1932	0	32740	32742	
1933	0	32792	32748	
1934	0	32710	32800	
1935	0	32716	32810	
1936	0	32792	32864	
1937	0	32688	32863	
1938	0	32780	32836	
1939	0	32720	32836	
1940	0	32752	32792	
1941	0	32710	32636	
1942	0	32744	32740	
1943	0	32784	32668	
1944	0	32756	32734	
1945	0	32736	32720	
1946	0	32744	32826	
1947	0	32798	32804	
1948	0	32770	32802	
1949	0	32758	32724	
1950	0	32768	32676	
1951	0	32756	32823	
1952	0	32724	32840	
1953	0	32768	32786	
1954	0	32746	32838	
1955	0	32752	32764	
1956	0	32784	32652	
1957	0	32722	32750	
1958	0	32774	32830	
1959	0	32758	32768	
1960	0	32730	32800	
1961	0	32722	32756	
1962	0	32748	32742	
1963	0	32786	32834	
1964	0	32820	32652	
1965	0	32768	32688	
1966	0	32796	32720	
1967	0	32708	32720	
1968	0	32728	32799	
1969	0	32752	32774	
1970	0	32748	32802	
1971	0	32808	32752	
1972	0	32764	32718	
1973	0	32796	32760	
1974	0	32808	32722	
1975	0	32764	32774	
1976	0	32780	32821	
1977	0	32764	32850	
1978	0	32804	32770	
1979	0	32732	32842	
1980	0	32784	32720	
1981	0	32740	32686	
1982	0	32786	32704	
1983	0	32822	32750	
1984	0	32832	32822	
1985	0	32762	32816	
1986	0	32846	32775	
1987	0	32836	32746	
1988	0	32738	32826	
1989	0	32766	32700	
1990	0	32730	32714	
1991	0	32762	32774	
1992	0	32798	32832	
1993	0	32764	32770	
1994	0	32824	32764	
1995	0	32762	32758	
1996	0	32804	32800	
1997	0	32786	32742	
1998	0	32778	32810	
1999	0	32764	32788	
2000	0	32846	32712	
2001	0	32780	32748	
2002	0	32756	32810	
2003	0	32720	32838	
2004	0	32794	32800	
2005	0	32792	32759	
2006	0	32758	32740	
2007	0	32724	32772	
2008	0	32794	32840	
2009	0	32816	32782	
2010	0	32780	32775	
2011	0	32852	32784	
2012	0	32804	32798	
2013	0	32740	32724	
2014	0	32846	32628	
2015	0	32760	32708	
2016	0	32774	32686	
2017	0	32762	32868	
2018	0	32780	32878	
2019	0	32844	32736	
2020	0	32752	32730	
2021	0	32824	32746	
2022	0	32844	32752	
2023	0	32832	32902	
2024	0	32806	32856	
2025	0	32784	32914	
2026	0	32820	32764	
2027	0	32812	32762	
2028	0	32788	32673	
2029	0	32724	32710	
2030	0	32816	32710	
2031	0	32868	32724	
2032	0	32812	32711	
2033	0	32814	32766	
2034	0	32836	32684	
2035	0	32756	32724	
2036	0	32740	32794	
2037	0	32814	32868	
2038	0	32824	32708	
2039	0	32822	32788	
2040	0	32796	32834	
2041	0	32812	32828	
2042	0	32834	32710	
2043	0	32824	32770	
2044	0	32842	32722	
2045	0	32808	32744	
2046	0	32800	32710	
2047	0	32760	32826	
2048	0	32776	32764	
2049	0	32802	32804	
2050	0	32838	32774	
2051	0	32876	32849	
2052	0	32858	32724	
2053	0	32790	32804	
2054	0	32820	32682	
2055	0	32764	32662	
2056	0	32808	32822	
2057	0	32784	32796	
2058	0	32724	32768	
2059	0	32824	32786	
2060	0	32788	32786	
2061	0	32832	32864	
2062	0	32852	32746	
2063	0	32788	32708	
2064	0	32780	32675	
2065	0	32758	32710	
2066	0	32792	32756	
2067	0	32792	32730	
2068	0	32796	32792	
2069	0	32788	32886	
2070	0	32746	32759	
2071	0	32750	32702	
2072	0	32780	32790	
2073	0	32788	32812	
2074	0	32864	32784	
2075	0	32796	32752	
2076	0	32832	32700	
2077	0	32768	32710	
2078	0	32742	32708	
2079	0	32778	32818	
2080	0	32812	32839	
2081	0	32796	32828	
2082	0	32832	32746	
2083	0	32780	32814	
2084	0	32748	32750	
2085	0	32750	32670	
2086	0	32856	32646	
2087	0	32836	32718	
2088	0	32836	32754	
2089	0	32768	32854	
2090	0	32822	32756	
2091	0	32810	32814	
2092	0	32760	32806	
2093	0	32836	32742	
2094	0	32728	32676	
2095	0	32796	32728	
2096	0	32808	32775	
2097	0	32762	32796	
2098	0	32740	32826	
2099	0	32820	32790	
2100	0	32822	32807	
2101	0	32764	32814	
2102	0	32820	32850	
2103	0	32760	32724	
2104	0	32848	32798	
2105	0	32798	32728	
2106	0	32772	32727	
2107	0	32820	32800	
2108	0	32816	32816	
2109	0	32744	32772	
2110	0	32744	32808	
2111	0	32804	32814	
2112	0	32794	32824	
2113	0	32772	32814	
2114	0	32752	32830	
2115	0	32794	32792	
2116	0	32852	32670	
2117	0	32840	32796	
2118	0	32790	32728	
2119	0	32808	32742	
2120	0	32800	32702	
2121	0	32844	32732	
2122	0	32804	32712	
2123	0	32856	32796	
2124	0	32810	32740	
2125	0	32792	32842	
2126	0	32736	32854	
2127	0	32796	32700	
2128	0	32856	32754	
2129	0	32776	32638	
2130	0	32844	32704	
2131	0	32804	32775	
2132	0	32792	32718	
2133	0	32736	32808	
2134	0	32752	32810	
2135	0	32812	32728	
2136	0	32816	32792	
2137	0	32764	32744	
2138	0	32802	32652	
2139	0	32746	32676	
2140	0	32774	32804	
2141	0	32806	32750	
2142	0	32826	32728	
2143	0	32770	32804	
2144	0	32768	32692	
2145	0	32812	32820	
2146	0	32812	32664	
2147	0	32822	32708	
2148	0	32876	32842	
2149	0	32802	32757	
2150	0	32788	32802	
2151	0	32838	32794	
2152	0	32812	32764	
2153	0	32806	32757	
2154	0	32768	32840	
2155	0	32768	32804	
2156	0	32848	32775	
2157	0	32720	32786	
2158	0	32756	32768	
2159	0	32782	32744	
2160	0	32760	32774	
2161	0	32802	32732	
2162	0	32846	32668	
2163	0	32830	32744	
2164	0	32742	32799	
2165	0	32836	32756	
2166	0	32810	32768	
2167	0	32840	32788	
2168	0	32784	32810	
2169	0	32758	32746	
2170	0	32832	32756	
2171	0	32824	32768	
2172	0	32820	32728	
2173	0	32792	32772	
2174	0	32778	32718	
2175	0	32796	32700	
2176	0	32828	32676	
2177	0	32800	32718	
2178	0	32808	32646	
2179	0	32872	32728	
2180	0	32784	32636	
2181	0	32788	32772	
2182	0	32792	32846	
2183	0	32808	32864	
2184	0	32840	32766	
2185	0	32832	32838	
2186	0	32816	32804	
2187	0	32794	32809	
2188	0	32784	32775	
2189	0	32772	32720	
2190	0	32788	32810	
2191	0	32828	32794	
2192	0	32784	32760	
2193	0	32820	32823	
2194	0	32820	32732	
2195	0	32804	32692	
2196	0	32808	32719	
2197	0	32846	32830	
2198	0	32760	32804	
2199	0	32800	32702	
2200	0	32834	32792	
2201	0	32872	32832	
2202	0	32778	32872	
2203	0	32796	32860	
2204	0	32864	32708	
2205	0	32856	32756	
2206	0	32814	32726	
2207	0	32800	32748	
2208	0	32836	32744	
2209	0	32800	32790	
2210	0	32768	32836	
2211	0	32812	32864	
2212	0	32822	32722	
2213	0	32800	32746	
2214	0	32802	32766	
2215	0	32806	32760	
2216	0	32822	32846	
2217	0	32812	32743	
2218	0	32832	32804	
2219	0	32804	32807	
2220	0	32802	32798	
2221	0	32848	32708	
2222	0	32824	32718	
2223	0	32832	32762	
2224	0	32824	32688	
2225	0	32818	32664	
2226	0	32876	32678	
2227	0	32776	32684	
2228	0	32754	32734	
2229	0	32764	32702	
2230	0	32794	32785	
2231	0	32826	32704	
2232	0	32864	32770	
2233	0	32814	32736	
2234	0	32764	32760	
2235	0	32818	32750	
2236	0	32720	32796	
2237	0	32850	32724	
2238	0	32748	32774	
2239	0	32778	32768	
2240	0	32804	32806	
2241	0	32822	32839	
2242	0	32824	32718	
2243	0	32824	32679	
2244	0	32852	32698	
2245	0	32850	32628	
2246	0	32880	32796	
2247	0	32792	32816	
2248	0	32804	32806	
2249	0	32790	32862	
2250	0	32840	32786	
2251	0	32860	32775	
2252	0	32808	32734	
2253	0	32732	32788	
2254	0	32836	32814	
2255	0	32832	32792	
2256	0	32776	32722	
2257	0	32728	32800	
2258	0	32820	32738	
2259	0	32776	32710	
2260	0	32808	32664	
2261	0	32816	32742	
2262	0	32868	32678	
2263	0	32782	32674	
2264	0	32884	32738	
2265	0	32820	32732	
2266	0	32786	32775	
2267	0	32832	32794	
2268	0	32822	32846	
2269	0	32752	32832	
2270	0	32822	32764	
2271	0	32860	32848	
2272	0	32768	32816	
2273	0	32736	32842	
2274	0	32832	32800	
2275	0	32768	32870	
2276	0	32788	32824	
2277	0	32872	32788	
2278	0	32794	32806	
2279	0	32816	32752	
2280	0	32794	32794	
2281	0	32832	32822	
2282	0	32874	32796	
2283	0	32840	32792	
2284	0	32848	32844	
2285	0	32828	32752	
2286	0	32830	32750	
2287	0	32794	32775	
2288	0	32800	32798	
2289	0	32808	32796	
2290	0	32876	32836	
2291	0	32780	32858	
2292	0	32760	32864	
2293	0	32840	32918	
2294	0	32800	32804	
2295	0	32774	32696	
2296	0	32796	32768	
2297	0	32796	32724	
2298	0	32784	32742	
2299	0	32800	32680	
2300	0	32796	32800	
2301	0	32832	32804	
2302	0	32772	32852	
2303	0	32804	32744	
2304	0	32800	32712	
2305	0	32824	32730	
2306	0	32812	32790	
2307	0	32852	32872	
2308	0	32740	32842	
2309	0	32776	32914	
2310	0	32788	32775	
2311	0	32820	32824	
2312	0	32844	32696	
2313	0	32776	32678	
2314	0	32756	32676	
2315	0	32852	32716	
2316	0	32848	32722	
2317	0	32780	32744	
2318	0	32836	32808	
2319	0	32786	32886	
2320	0	32812	32790	
2321	0	32858	32768	
2322	0	32828	32770	
2323	0	32800	32774	
2324	0	32770	32824	
2325	0	32846	32680	
2326	0	32768	32775	
2327	0	32844	32662	
2328	0	32764	32774	
2329	0	32820	32662	
2330	0	32856	32775	
2331	0	32768	32756	
2332	0	32788	32804	
2333	0	32804	32830	
2334	0	32808	32784	
2335	0	32784	32708	
2336	0	32868	32884	
2337	0	32792	32784	
2338	0	32782	32828	
2339	0	32786	32775	
2340	0	32790	32800	
2341	0	32804	32682	
2342	0	32832	32822	
2343	0	32866	32788	
2344	0	32784	32682	
2345	0	32796	32748	
2346	0	32756	32775	
2347	0	32814	32800	
2348	0	32836	32894	
2349	0	32824	32826	
2350	0	32840	32822	
2351	0	32804	32678	
2352	0	32736	32744	
2353	0	32794	32756	
2354	0	32836	32800	
2355	0	32848	32738	
2356	0	32836	32716	
2357	0	32788	32664	
2358	0	32812	32700	
2359	0	32816	32678	
2360	0	32748	32656	
2361	0	32788	32679	
2362	0	32854	32828	
2363	0	32824	32818	
2364	0	32848	32828	
2365	0	32868	32784	
2366	0	32834	32854	
2367	0	32804	32850	
2368	0	32840	32886	
2369	0	32760	32800	
2370	0	32834	32794	
2371	0	32876	32768	
2372	0	32788	32775	
2373	0	32732	32758	
2374	0	32726	32807	
2375	0	32752	32874	
2376	0	32808	32646	
2377	0	32910	32682	
2378	0	32724	32711	
2379	0	32824	32746	
2380	0	32788	32836	
2381	0	32876	32798	
2382	0	32786	32774	
2383	0	32834	32730	
2384	0	32720	32782	
2385	0	32832	32814	
2386	0	32820	32816	
2387	0	32740	32864	
2388	0	32824	32736	
2389	0	32826	32664	
2390	0	32816	32696	
2391	0	32792	32682	
2392	0	32750	32710	
2393	0	32780	32695	
2394	0	32744	32724	
2395	0	32810	32732	
2396	0	32842	32678	
2397	0	32820	32734	
2398	0	32852	32800	
2399	0	32800	32836	
2400	0	32832	32808	
2401	0	32876	32742	
2402	0	32828	32762	
2403	0	32852	32775	
2404	0	32812	32816	
2405	0	32836	32760	
2406	0	32802	32798	
2407	0	32762	32864	
2408	0	32804	32794	
2409	0	32800	32854	
2410	0	32828	32728	
2411	0	32824	32846	
2412	0	32810	32843	
2413	0	32724	32806	
2414	0	32792	32808	
2415	0	32788	32742	
2416	0	32784	32690	
2417	0	32846	32722	
2418	0	32812	32694	
2419	0	32828	32766	
2420	0	32836	32736	
2421	0	32784	32708	
2422	0	32804	32676	
2423	0	32820	32702	
2424	0	32850	32746	
2425	0	32754	32688	
2426	0	32840	32748	
2427	0	32820	32760	
2428	0	32792	32832	
2429	0	32868	32720	
2430	0	32834	32810	
2431	0	32772	32780	
2432	0	32820	32804	
2433	0	32772	32848	
2434	0	32786	32744	
2435	0	32900	32712	
2436	0	32812	32768	
2437	0	32816	32828	
2438	0	32774	32774	
2439	0	32828	32772	
2440	0	32766	32796	
2441	0	32820	32846	
2442	0	32814	32800	
2443	0	32844	32722	
2444	0	32798	32784	
2445	0	32852	32769	
2446	0	32848	32854	
2447	0	32816	32854	
2448	0	32760	32784	
2449	0	32840	32686	
2450	0	32780	32775	
2451	0	32786	32716	
2452	0	32780	32738	
2453	0	32854	32762	
2454	0	32820	32810	
2455	0	32806	32816	
2456	0	32816	32652	
2457	0	32824	32732	
2458	0	32824	32720	
2459	0	32858	32784	
2460	0	32856	32756	
2461	0	32852	32772	
2462	0	32796	32689	
2463	0	32850	32840	
2464	0	32846	32742	
2465	0	32842	32738	
2466	0	32770	32708	
2467	0	32776	32796	
2468	0	32788	32689	
2469	0	32826	32782	
2470	0	32808	32704	
2471	0	32804	32772	
2472	0	32826	32756	
2473	0	32778	32775	
2474	0	32768	32686	
2475	0	32848	32775	
2476	0	32818	32775	
2477	0	32806	32740	
2478	0	32762	32690	
2479	0	32908	32804	
2480	0	32780	32646	
2481	0	32798	32720	
2482	0	32802	32692	
2483	0	32796	32746	
2484	0	32760	32698	
2485	0	32828	32800	
2486	0	32794	32866	
2487	0	32816	32850	
2488	0	32794	32801	
2489	0	32766	32766	
2490	0	32872	32788	
2491	0	32832	32766	
2492	0	32806	32750	
2493	0	32804	32840	
2494	0	32794	32752	
2495	0	32792	32700	
2496	0	32860	32706	
2497	0	32880	32704	
2498	0	32768	32748	
2499	0	32814	32690	
2500	0	32838	32766	
2501	0	32876	32802	
2502	0	32942	32872	
2503	0	32736	32892	
2504	0	32784	32775	
2505	0	32788	32810	
2506	0	32756	32724	
2507	0	32784	32866	
2508	0	32814	32775	
2509	0	32804	32858	
2510	0	32848	32718	
2511	0	32790	32692	
2512	0	32868	32722	
2513	0	32836	32788	
2514	0	32828	32724	
2515	0	32810	32732	
2516	0	32874	32750	
2517	0	32840	32788	
2518	0	32792	32734	
2519	0	32854	32720	
2520	0	32720	32734	
2521	0	32872	32775	
2522	0	32848	32822	
2523	0	32804	32752	
2524	0	32752	32780	
2525	0	32844	32732	
2526	0	32798	32762	
2527	0	32852	32828	
2528	0	32776	32736	
2529	0	32796	32680	
2530	0	32862	32711	
2531	0	32832	32804	
2532	0	32780	32822	
2533	0	32804	32746	
2534	0	32844	32748	
2535	0	32832	32804	
2536	0	32832	32822	
2537	0	32742	32736	
2538	0	32760	32678	
2539	0	32860	32732	
2540	0	32772	32664	
2541	0	32812	32775	
2542	0	32904	32775	
2543	0	32784	32800	
2544	0	32852	32826	
2545	0	32868	32798	
2546	0	32772	32820	
2547	0	32818	32756	
2548	0	32804	32704	
2549	0	32820	32630	
2550	0	32784	32720	
2551	0	32768	32758	
2552	0	32772	32736	
2553	0	32780	32698	
2554	0	32780	32743	
2555	0	32874	32775	
2556	0	32810	32775	
2557	0	32848	32758	
2558	0	32799	32798	
2559	0	32836	32816	
2560	0	32766	32720	
2561	0	32866	32775	
2562	0	32826	32730	
2563	0	32828	32676	
2564	0	32780	32662	
2565	0	32792	32794	
2566	0	32778	32810	
2567	0	32812	32814	
2568	0	32768	32742	
2569	0	32825	32806	
2570	0	32768	32840	
2571	0	32794	32798	
2572	0	32808	32760	
2573	0	32824	32736	
2574	0	32766	32650	
2575	0	32840	32742	
2576	0	32808	32766	
2577	0	32832	32824	
2578	0	32836	32806	
2579	0	32852	32792	
2580	0	32776	32736	
2581	0	32792	32708	
2582	0	32804	32702	
2583	0	32836	32656	
2584	0	32846	32743	
2585	0	32824	32820	
2586	0	32784	32768	
2587	0	32848	32808	
2588	0	32796	32692	
2589	0	32792	32816	
2590	0	32826	32734	
2591	0	32828	32804	
2592	0	32798	32860	
2593	0	32850	32775	
2594	0	32824	32736	
2595	0	32834	32788	
2596	0	32720	32766	
2597	0	32754	32652	
2598	0	32824	32724	
2599	0	32788	32744	
2600	0	32812	32834	
2601	0	32808	32770	
2602	0	32824	32744	
2603	0	32834	32827	
2604	0	32894	32718	
2605	0	32826	32742	
2606	0	32840	32704	
2607	0	32736	32750	
2608	0	32848	32828	
2609	0	32804	32818	
2610	0	32804	32858	
2611	0	32800	32740	
2612	0	32860	32838	
2613	0	32780	32814	
2614	0	32824	32848	
2615	0	32796	32690	
2616	0	32776	32740	
2617	0	32746	32775	
2618	0	32780	32712	
2619	0	32788	32798	
2620	0	32820	32832	
2621	0	32778	32732	
2622	0	32816	32700	
2623	0	32742	32756	
2624	0	32800	32834	
2625	0	32868	32775	
2626	0	32890	32806	
2627	0	32860	32790	
2628	0	32826	32686	
2629	0	32822	32764	
2630	0	32754	32775	
2631	0	32848	32790	
2632	0	32896	32864	
2633	0	32812	32740	
2634	0	32720	32791	
2635	0	32780	32775	
2636	0	32778	32722	
2637	0	32808	32775	
2638	0	32816	32814	
2639	0	32848	32724	
2640	0	32838	32754	
2641	0	32816	32664	
2642	0	32854	32804	
2643	0	32796	32744	
2644	0	32756	32826	
2645	0	32880	32871	
2646	0	32808	32742	
2647	0	32778	32820	
2648	0	32808	32820	
2649	0	32836	32724	
2650	0	32828	32647	
2651	0	32820	32716	
2652	0	32768	32716	
2653	0	32812	32752	
2654	0	32820	32796	
2655	0	32800	32852	
2656	0	32816	32762	
2657	0	32824	32820	
2658	0	32744	32866	
2659	0	32816	32656	
2660	0	32788	32698	
2661	0	32868	32800	
2662	0	32800	32863	
2663	0	32858	32844	
2664	0	32834	32839	
2665	0	32802	32752	
2666	0	32838	32798	
2667	0	32842	32790	
2668	0	32816	32775	
2669	0	32774	32858	
2670	0	32808	32720	
2671	0	32744	32726	
2672	0	32704	32742	
2673	0	32812	32618	
2674	0	32860	32740	
2675	0	32796	32724	
2676	0	32796	32844	
2677	0	32804	32858	
2678	0	32828	32816	
2679	0	32756	32775	
2680	0	32824	32816	
2681	0	32828	32732	
2682	0	32900	32816	
2683	0	32836	32748	
2684	0	32800	32679	
2685	0	32806	32724	
2686	0	32788	32784	
2687	0	32778	32848	
2688	0	32796	32752	
2689	0	32874	32836	
2690	0	32870	32694	
2691	0	32890	32692	
2692	0	32834	32764	
2693	0	32770	32760	
2694	0	32738	32766	
2695	0	32782	32832	
2696	0	32732	32656	
2697	0	32764	32708	
2698	0	32778	32742	
2699	0	32720	32754	
2700	0	32764	32735	
2701	0	32716	32716	
2702	0	32660	32720	
2703	0	32724	32647	
2704	0	32730	32796	
2705	0	32768	32654	
2706	0	32710	32642	
2707	0	32676	32728	
2708	0	32648	32716	
2709	0	32654	32678	
2710	0	32794	32768	
2711	0	32772	32620	
2712	0	32660	32678	
2713	0	32750	32711	
2714	0	32824	32738	
2715	0	32788	32726	
2716	0	32784	32786	
2717	0	32798	32824	
2718	0	32864	32718	
2719	0	32848	32740	
2720	0	32880	32766	
2721	0	32808	32742	
2722	0	32796	32710	
2723	0	32932	32814	
2724	0	33016	32884	
2725	0	32950	32900	
2726	0	32988	32878	
2727	0	32986	32998	
2728	0	33100	32967	
2729	0	33116	32932	
2730	0	33096	32945	
2731	0	33012	32912	
2732	0	32980	32984	
2733	0	32988	32932	
2734	0	32976	32898	
2735	0	32952	32850	
2736	0	32908	32852	
2737	0	32840	32791	
2738	0	32868	32678	
2739	0	32840	32592	
2740	0	32724	32684	
2741	0	32732	32650	
2742	0	32740	32700	
2743	0	32664	32676	
2744	0	32668	32664	
2745	0	32658	32622	
2746	0	32720	32688	
2747	0	32760	32708	
2748	0	32720	32692	
2749	0	32706	32678	
2750	0	32744	32744	
2751	0	32766	32814	
2752	0	32726	32714	
2753	0	32718	32736	
2754	0	32790	32848	
2755	0	32772	32796	
2756	0	32792	32796	
2757	0	32798	32722	
2758	0	32752	32720	
2759	0	32728	32692	
2760	0	32848	32734	
2761	0	32824	32908	
2762	0	32868	32768	
2763	0	32900	32728	
2764	0	32790	32840	
2765	0	32756	32748	
2766	0	32826	32775	
2767	0	32812	32762	
2768	0	32842	32704	
2769	0	32768	32632	
2770	0	32768	32724	
2771	0	32808	32848	
2772	0	32800	32772	
2773	0	32800	32822	
2774	0	32860	32834	
2775	0	32796	32770	
2776	0	32868	32806	
2777	0	32768	32832	
2778	0	32820	32728	
2779	0	32768	32700	
2780	0	32816	32720	
2781	0	32816	32751	
2782	0	32820	32799	
2783	0	32804	32788	
2784	0	32822	32784	
2785	0	32816	32770	
2786	0	32792	32794	
2787	0	32856	32775	
2788	0	32814	32744	
2789	0	32824	32855	
2790	0	32826	32666	
2791	0	32880	32668	
2792	0	32816	32712	
2793	0	32808	32690	
2794	0	32756	32686	
2795	0	32900	32802	
2796	0	32736	32758	
2797	0	32772	32766	
2798	0	32784	32804	
2799	0	32800	32710	
2800	0	32802	32714	
2801	0	32818	32728	
2802	0	32844	32732	
2803	0	32824	32802	
2804	0	32888	32775	
2805	0	32846	32828	
2806	0	32852	32834	
2807	0	32836	32698	
2808	0	32788	32782	
2809	0	32812	32700	
2810	0	32794	32824	
2811	0	32760	32802	
2812	0	32804	32800	
2813	0	32740	32767	
2814	0	32784	32832	
2815	0	32856	32678	
2816	0	32816	32868	
2817	0	32798	32734	
2818	0	32852	32722	
2819	0	32780	32682	
2820	0	32856	32711	
2821	0	32852	32816	
2822	0	32896	32814	
2823	0	32856	32822	
2824	0	32820	32764	
2825	0	32752	32732	
2826	0	32804	32775	
2827	0	32792	32774	
2828	0	32816	32718	
2829	0	32784	32696	
2830	0	32796	32772	
2831	0	32808	32746	
2832	0	32808	32789	
2833	0	32844	32799	
2834	0	32816	32864	
2835	0	32840	32744	
2836	0	32764	32806	
2837	0	32804	32788	
2838	0	32760	32772	
2839	0	32788	32774	
2840	0	32860	32770	
2841	0	32888	32906	
2842	0	32794	32696	
2843	0	32824	32720	
2844	0	32756	32698	
2845	0	32820	32714	
2846	0	32824	32736	
2847	0	32792	32750	
2848	0	32852	32742	
2849	0	32752	32792	
2850	0	32748	32760	
2851	0	32832	32842	
2852	0	32784	32764	
2853	0	32852	32820	
2854	0	32868	32775	
2855	0	32800	32840	
2856	0	32780	32734	
2857	0	32828	32732	
2858	0	32804	32673	
2859	0	32744	32696	
2860	0	32810	32772	
2861	0	32836	32796	
2862	0	32820	32798	
2863	0	32816	32754	
2864	0	32808	32754	
2865	0	32792	32774	
2866	0	32848	32814	
2867	0	32756	32679	
2868	0	32816	32766	
2869	0	32848	32706	
2870	0	32844	32775	
2871	0	32892	32908	
2872	0	32852	32824	
2873	0	32800	32816	
2874	0	32874	32922	
2875	0	32780	32834	
2876	0	32774	32730	
2877	0	32796	32788	
2878	0	32862	32744	
2879	0	32830	32747	
2880	0	32904	32752	
2881	0	32800	32730	
2882	0	32802	32838	
2883	0	32820	32696	
2884	0	32844	32708	
2885	0	32808	32732	
2886	0	32780	32716	
2887	0	32788	32724	
2888	0	32820	32732	
2889	0	32780	32836	
2890	0	32828	32814	
2891	0	32728	32752	
2892	0	32834	32728	
2893	0	32824	32748	
2894	0	32756	32826	
2895	0	32840	32828	
2896	0	32776	32754	
2897	0	32838	32734	
2898	0	32824	32775	
2899	0	32748	32796	
2900	0	32840	32812	
2901	0	32832	32828	
2902	0	32864	32806	
2903	0	32812	32750	
2904	0	32844	32686	
2905	0	32776	32647	
2906	0	32848	32750	
2907	0	32808	32768	
2908	0	32794	32668	
2909	0	32848	32800	
2910	0	32792	32676	
2911	0	32782	32650	
2912	0	32844	32774	
2913	0	32824	32722	
2914	0	32826	32754	
2915	0	32796	32802	
2916	0	32808	32796	
2917	0	32808	32758	
2918	0	32896	32838	
2919	0	32832	32756	
2920	0	32738	32822	
2921	0	32804	32820	
2922	0	32872	32652	
2923	0	32788	32670	
2924	0	32840	32718	
2925	0	32792	32766	
2926	0	32844	32775	
2927	0	32798	32820	
2928	0	32732	32808	
2929	0	32824	32814	
2930	0	32838	32842	
2931	0	32760	32814	
2932	0	32852	32775	
2933	0	32748	32678	
2934	0	32824	32710	
2935	0	32824	32710	
2936	0	32842	32724	
2937	0	32769	32788	
2938	0	32828	32816	
2939	0	32840	32745	
2940	0	32836	32758	
2941	0	32824	32775	
2942	0	32852	32775	
2943	0	32784	32846	
2944	0	32762	32719	
2945	0	32784	32830	
2946	0	32842	32794	
2947	0	32804	32736	
2948	0	32824	32708	
2949	0	32832	32774	
2950	0	32820	32742	
2951	0	32848	32670	
2952	0	32782	32722	
2953	0	32824	32866	
2954	0	32832	32816	
2955	0	32842	32784	
2956	0	32792	32710	
2957	0	32780	32782	
2958	0	32788	32774	
2959	0	32782	32750	
2960	0	32780	32786	
2961	0	32840	32775	
2962	0	32840	32852	
2963	0	32896	32746	
2964	0	32800	32700	
2965	0	32832	32760	
2966	0	32838	32754	
2967	0	32858	32728	
2968	0	32834	32806	
2969	0	32806	32702	
2970	0	32820	32840	
2971	0	32794	32792	
2972	0	32892	32874	
2973	0	32816	32848	
2974	0	32738	32806	
2975	0	32820	32888	
2976	0	32848	32775	
2977	0	32818	32789	
2978	0	32760	32832	
2979	0	32812	32682	
2980	0	32778	32810	
2981	0	32812	32702	
2982	0	32814	32711	
2983	0	32820	32764	
2984	0	32942	32820	
2985	0	32824	32808	
2986	0	32794	32774	
2987	0	32802	32728	
2988	0	32808	32844	
2989	0	32804	32820	
2990	0	32820	32668	
2991	0	32800	32750	
2992	0	32832	32808	
2993	0	32816	32800	
2994	0	32760	32756	
2995	0	32814	32775	
2996	0	32852	32775	
2997	0	32782	32682	
2998	0	32800	32736	
2999	0	32876	32801	
3000	0	32820	32816	
3001	0	32818	32750	
3002	0	32832	32774	
3003	0	32768	32790	
3004	0	32808	32687	
3005	0	32810	32696	
3006	0	32780	32775	
3007	0	32812	32790	
3008	0	32836	32775	
3009	0	32852	32788	
3010	0	32858	32855	
3011	0	32802	32731	
3012	0	32814	32656	
3013	0	32762	32862	
3014	0	32794	32762	
3015	0	32782	32742	
3016	0	32812	32820	
3017	0	32748	32642	
3018	0	32762	32788	
3019	0	32798	32796	
3020	0	32816	32766	
3021	0	32832	32742	
3022	0	32830	32662	
3023	0	32814	32771	
3024	0	32804	32848	
3025	0	32826	32766	
3026	0	32788	32831	
3027	0	32784	32775	
3028	0	32808	32724	
3029	0	32788	32838	
3030	0	32824	32760	
3031	0	32776	32760	
3032	0	32768	32839	
3033	0	32820	32736	
3034	0	32840	32758	
3035	0	32896	32830	
3036	0	32796	32720	
3037	0	32744	32792	
3038	0	32760	32718	
3039	0	32768	32680	
3040	0	32812	32806	
3041	0	32834	32775	
3042	0	32800	32876	
3043	0	32832	32794	
3044	0	32782	32686	
3045	0	32834	32806	
3046	0	32848	32775	
3047	0	32802	32824	
3048	0	32848	32830	
3049	0	32768	32720	
3050	0	32780	32750	
3051	0	32798	32742	
3052	0	32824	32728	
3053	0	32728	32800	
3054	0	32800	32694	
3055	0	32818	32788	
3056	0	32812	32832	
3057	0	32788	32748	
3058	0	32784	32806	
3059	0	32812	32686	
3060	0	32816	32775	
3061	0	32834	32710	
3062	0	32842	32828	
3063	0	32784	32708	
3064	0	32836	32704	
3065	0	32830	32896	
3066	0	32820	32796	
3067	0	32900	32838	
3068	0	32732	32838	
3069	0	32760	32748	
3070	0	32770	32742	
3071	0	32800	32716	
3072	0	32836	32678	
3073	0	32812	32652	
3074	0	32788	32804	
3075	0	32852	32876	
3076	0	32836	32772	
3077	0	32840	32806	
3078	0	32824	32764	
3079	0	32836	32684	
3080	0	32826	32834	
3081	0	32852	32774	
3082	0	32840	32759	
3083	0	32868	32775	
3084	0	32720	32704	
3085	0	32786	32800	
3086	0	32878	32840	
3087	0	32780	32806	
3088	0	32832	32816	
3089	0	32830	32728	
3090	0	32768	32830	
3091	0	32736	32828	
3092	0	32784	32804	
3093	0	32828	32798	
3094	0	32900	32684	
3095	0	32836	32768	
3096	0	32838	32744	
3097	0	32812	32792	
3098	0	32788	32682	
3099	0	32752	32622	
3100	0	32808	32839	
3101	0	32852	32764	
3102	0	32820	32748	
3103	0	32788	32654	
3104	0	32842	32678	
3105	0	32816	32874	
3106	0	32828	32770	
3107	0	32802	32796	
3108	0	32836	32804	
3109	0	32832	32764	
3110	0	32792	32728	
3111	0	32784	32836	
3112	0	32816	32804	
3113	0	32788	32726	
3114	0	32812	32806	
3115	0	32896	32832	
3116	0	32776	32743	
3117	0	32788	32736	
3118	0	32772	32740	
3119	0	32774	32810	
3120	0	32792	32754	
3121	0	32832	32746	
3122	0	32876	32858	
3123	0	32838	32676	
3124	0	32804	32711	
3125	0	32832	32771	
3126	0	32772	32774	
3127	0	32804	32798	
3128	0	32812	32839	
3129	0	32792	32784	
3130	0	32788	32850	
3131	0	32810	32798	
3132	0	32800	32772	
3133	0	32860	32752	
3134	0	32846	32674	
3135	0	32844	32774	
3136	0	32792	32768	
3137	0	32768	32814	
3138	0	32822	32780	
3139	0	32856	32808	
3140	0	32860	32772	
3141	0	32808	32711	
3142	0	32832	32750	
3143	0	32812	32732	
3144	0	32762	32668	
3145	0	32842	32838	
3146	0	32780	32775	
3147	0	32820	32762	
3148	0	32806	32774	
3149	0	32786	32788	
3150	0	32770	32716	
3151	0	32804	32676	
3152	0	32808	32802	
3153	0	32780	32790	
3154	0	32802	32775	
3155	0	32808	32790	
3156	0	32792	32812	
3157	0	32808	32736	
3158	0	32816	32740	
3159	0	32864	32678	
3160	0	32820	32678	
3161	0	32856	32764	
3162	0	32816	32792	
3163	0	32856	32754	
3164	0	32828	32775	
3165	0	32828	32836	
3166	0	32816	32852	
3167	0	32788	32808	
3168	0	32780	32678	
3169	0	32860	32734	
3170	0	32804	32714	
3171	0	32804	32812	
3172	0	32768	32808	
3173	0	32836	32766	
3174	0	32820	32831	
3175	0	32744	32738	
3176	0	32782	32754	
3177	0	32832	32734	
3178	0	32858	32700	
3179	0	32800	32806	
3180	0	32844	32716	
3181	0	32840	32775	
3182	0	32804	32732	
3183	0	32792	32798	
3184	0	32858	32716	
3185	0	32822	32678	
3186	0	32862	32722	
3187	0	32786	32790	
3188	0	32744	32807	
3189	0	32848	32744	
3190	0	32808	32844	
3191	0	32818	32790	
3192	0	32856	32708	
3193	0	32794	32732	
3194	0	32786	32695	
3195	0	32804	32760	
3196	0	32788	32804	
3197	0	32796	32766	
3198	0	32772	32722	
3199	0	32824	32768	
3200	0	32822	32656	
3201	0	32834	32706	
3202	0	32804	32764	
3203	0	32888	32866	
3204	0	32756	32824	
3205	0	32830	32736	
3206	0	32778	32844	
3207	0	32800	32700	
3208	0	32814	32742	
3209	0	32798	32675	
3210	0	32820	32820	
3211	0	32830	32876	
3212	0	32836	32756	
3213	0	32856	32736	
3214	0	32822	32822	
3215	0	32802	32784	
3216	0	32824	32722	
3217	0	32820	32671	
3218	0	32872	32774	
3219	0	32780	32688	
3220	0	32840	32784	
3221	0	32816	32792	
3222	0	32764	32744	
3223	0	32812	32722	
3224	0	32850	32760	
3225	0	32772	32775	
3226	0	32844	32674	
3227	0	32830	32710	
3228	0	32820	32834	
3229	0	32808	32828	
3230	0	32800	32756	
3231	0	32792	32726	
3232	0	32804	32750	
3233	0	32748	32752	
3234	0	32830	32740	
3235	0	32806	32808	
3236	0	32816	32842	
3237	0	32716	32720	
3238	0	32804	32644	
3239	0	32876	32710	
3240	0	32804	32642	
3241	0	32824	32670	
3242	0	32892	32660	
3243	0	32818	32730	
3244	0	32818	32724	
3245	0	32776	32766	
3246	0	32824	32736	
3247	0	32808	32750	
3248	0	32788	32817	
3249	0	32820	32770	
3250	0	32856	32820	
3251	0	32736	32836	
3252	0	32834	32775	
3253	0	32828	32697	
3254	0	32804	32834	
3255	0	32812	32866	
3256	0	32806	32796	
3257	0	32764	32784	
3258	0	32808	32698	
3259	0	32832	32692	
3260	0	32788	32768	
3261	0	32802	32838	
3262	0	32808	32739	
3263	0	32752	32742	
3264	0	32790	32894	
3265	0	32868	32746	
3266	0	32852	32775	
3267	0	32772	32694	
3268	0	32776	32810	
3269	0	32780	32748	
3270	0	32806	32798	
3271	0	32802	32840	
3272	0	32810	32744	
3273	0	32842	32826	
3274	0	32822	32844	
3275	0	32810	32716	
3276	0	32844	32770	
3277	0	32756	32670	
3278	0	32822	32692	
3279	0	32832	32736	
3280	0	32866	32766	
3281	0	32836	32722	
3282	0	32840	32728	
3283	0	32766	32868	
3284	0	32812	32814	
3285	0	32826	32792	
3286	0	32758	32798	
3287	0	32820	32756	
3288	0	32798	32786	
3289	0	32768	32854	
3290	0	32828	32806	
3291	0	32822	32800	
3292	0	32836	32874	
3293	0	32780	32708	
3294	0	32784	32850	
3295	0	32856	32832	
3296	0	32812	32868	
3297	0	32782	32734	
3298	0	32816	32775	
3299	0	32784	32808	
3300	0	32878	32775	
3301	0	32844	32815	
3302	0	32816	32728	
3303	0	32774	32775	
3304	0	32800	32791	
3305	0	32824	32775	
3306	0	32836	32716	
3307	0	32874	32724	
3308	0	32904	32682	
3309	0	32792	32750	
3310	0	32768	32722	
3311	0	32786	32756	
3312	0	32796	32708	
3313	0	32752	32716	
3314	0	32824	32694	
3315	0	32818	32674	
3316	0	32780	32734	
3317	0	32775	32702	
3318	0	32752	32686	
3319	0	32714	32692	
3320	0	32820	32748	
3321	0	32808	32775	
3322	0	32812	32762	
3323	0	32842	32806	
3324	0	32782	32742	
3325	0	32806	32852	
3326	0	32842	32828	
3327	0	32824	32832	
3328	0	32806	32812	
3329	0	32806	32908	
3330	0	32804	32714	
3331	0	32880	32814	
3332	0	32830	32802	
3333	0	32800	32792	
3334	0	32796	32806	
3335	0	32848	32844	
3336	0	32826	32674	
3337	0	32836	32686	
3338	0	32818	32814	
3339	0	32794	32822	
3340	0	32840	32842	
3341	0	32874	32764	
3342	0	32782	32742	
3343	0	32844	32704	
3344	0	32826	32728	
3345	0	32752	32688	
3346	0	32880	32762	
3347	0	32812	32802	
3348	0	32820	32820	
3349	0	32828	32838	
3350	0	32824	32806	
3351	0	32846	32788	
3352	0	32856	32775	
3353	0	32796	32802	
3354	0	32888	32792	
3355	0	32792	32724	
3356	0	32774	32796	
3357	0	32848	32772	
3358	0	32788	32872	
3359	0	32800	32892	
3360	0	32836	32885	
3361	0	32836	32664	
3362	0	32836	32764	
3363	0	32796	32722	
3364	0	32792	32700	
3365	0	32812	32746	
3366	0	32824	32754	
3367	0	32840	32806	
3368	0	32820	32844	
3369	0	32810	32884	
3370	0	32786	32768	
3371	0	32804	32838	
3372	0	32768	32816	
3373	0	32816	32834	
3374	0	32760	32790	
3375	0	32780	32748	
3376	0	32776	32734	
3377	0	32814	32692	
3378	0	32808	32702	
3379	0	32848	32658	
3380	0	32828	32647	
3381	0	32804	32764	
3382	0	32880	32672	
3383	0	32836	32774	
3384	0	32816	32740	
3385	0	32876	32764	
3386	0	32784	32768	
3387	0	32724	32844	
3388	0	32852	32800	
3389	0	32798	32806	
3390	0	32852	32772	
3391	0	32788	32784	
3392	0	32784	32760	
3393	0	32828	32811	
3394	0	32800	32786	
3395	0	32780	32756	
3396	0	32776	32769	
3397	0	32834	32788	
3398	0	32864	32839	
3399	0	32820	32774	
3400	0	32846	32800	
3401	0	32824	32784	
3402	0	32840	32800	
3403	0	32812	32788	
3404	0	32794	32784	
3405	0	32836	32775	
3406	0	32752	32694	
3407	0	32820	32775	
3408	0	32824	32684	
3409	0	32868	32746	
3410	0	32732	32756	
3411	0	32834	32724	
3412	0	32770	32748	
3413	0	32784	32670	
3414	0	32768	32724	
3415	0	32760	32698	
3416	0	32868	32774	
3417	0	32816	32744	
3418	0	32768	32712	
3419	0	32780	32758	
3420	0	32740	32826	
3421	0	32876	32820	
3422	0	32810	32820	
3423	0	32812	32730	
3424	0	32846	32736	
3425	0	32860	32752	
3426	0	32846	32876	
3427	0	32860	32806	
3428	0	32784	32839	
3429	0	32776	32796	
3430	0	32754	32748	
3431	0	32814	32760	
3432	0	32816	32786	
3433	0	32752	32766	
3434	0	32876	32744	
3435	0	32802	32804	
3436	0	32852	32812	
3437	0	32824	32818	
3438	0	32760	32711	
3439	0	32772	32694	
3440	0	32844	32754	
3441	0	32778	32714	
3442	0	32794	32728	
3443	0	32780	32750	
3444	0	32774	32662	
3445	0	32852	32704	
3446	0	32772	32662	
3447	0	32890	32668	
3448	0	32838	32647	
3449	0	32824	32744	
3450	0	32916	32844	
3451	0	32872	32836	
3452	0	32796	32828	
3453	0	32752	32814	
3454	0	32748	32830	
3455	0	32812	32775	
3456	0	32744	32832	
3457	0	32774	32724	
3458	0	32762	32754	
3459	0	32828	32770	
3460	0	32836	32828	
3461	0	32808	32802	
3462	0	32842	32742	
3463	0	32794	32775	
3464	0	32820	32775	
3465	0	32816	32823	
3466	0	32840	32706	
3467	0	32840	32760	
3468	0	32836	32686	
3469	0	32774	32764	
3470	0	32792	32775	
3471	0	32850	32782	
3472	0	32804	32708	
3473	0	32772	32718	
3474	0	32834	32700	
3475	0	32872	32692	
3476	0	32828	32744	
3477	0	32802	32704	
3478	0	32866	32664	
3479	0	32840	32770	
3480	0	32806	32682	
3481	0	32824	32718	
3482	0	32820	32722	
3483	0	32760	32730	
3484	0	32804	32808	
3485	0	32792	32666	
3486	0	32820	32710	
3487	0	32780	32690	
3488	0	32790	32724	
3489	0	32806	32772	
3490	0	32828	32722	
3491	0	32808	32647	
3492	0	32796	32744	
3493	0	32816	32742	
3494	0	32832	32660	
3495	0	32798	32716	
3496	0	32812	32711	
3497	0	32828	32684	
3498	0	32744	32714	
3499	0	32808	32710	
3500	0	32852	32728	
3501	0	32770	32814	
3502	0	32848	32760	
3503	0	32838	32756	
3504	0	32812	32750	
3505	0	32942	32806	
3506	0	32792	32822	
3507	0	32912	32846	
3508	0	32810	32796	
3509	0	32828	32810	
3510	0	32816	32828	
3511	0	32782	32820	
3512	0	32736	32831	
3513	0	32836	32718	
3514	0	32816	32728	
3515	0	32768	32788	
3516	0	32828	32812	
3517	0	32844	32804	
3518	0	32772	32752	
3519	0	32846	32726	
3520	0	32864	32722	
3521	0	32768	32740	
3522	0	32838	32696	
3523	0	32804	32730	
3524	0	32832	32718	
3525	0	32760	32672	
3526	0	32752	32662	
3527	0	32796	32764	
3528	0	32738	32686	
3529	0	32864	32840	
3530	0	32872	32790	
3531	0	32788	32806	
3532	0	32812	32866	
3533	0	32838	32840	
3534	0	32832	32775	
3535	0	32868	32746	
3536	0	32860	32752	
3537	0	32774	32730	
3538	0	32828	32766	
3539	0	32812	32806	
3540	0	32836	32903	
3541	0	32822	32775	
3542	0	32808	32801	
3543	0	32808	32734	
3544	0	32854	32732	
3545	0	32736	32748	
3546	0	32792	32794	
3547	0	32740	32682	
3548	0	32812	32726	
3549	0	32780	32810	
3550	0	32832	32762	
3551	0	32824	32672	
3552	0	32832	32734	
3553	0	32840	32670	
3554	0	32812	32798	
3555	0	32816	32730	
3556	0	32832	32726	
3557	0	32836	32694	
3558	0	32796	32774	
3559	0	32780	32750	
3560	0	32818	32775	
3561	0	32816	32760	
3562	0	32898	32896	
3563	0	32788	32800	
3564	0	32832	32775	
3565	0	32792	32740	
3566	0	32760	32800	
3567	0	32844	32750	
3568	0	32824	32802	
3569	0	32790	32832	
3570	0	32808	32774	
3571	0	32756	32756	
3572	0	32810	32752	
3573	0	32804	32828	
3574	0	32796	32790	
3575	0	32796	32806	
3576	0	32884	32800	
3577	0	32882	32768	
3578	0	32876	32866	
3579	0	32800	32784	
3580	0	32828	32706	
3581	0	32800	32724	
3582	0	32792	32766	
3583	0	32764	32816	
3584	0	32800	32792	
3585	0	32792	32804	
3586	0	32808	32786	
3587	0	32796	32772	
3588	0	32764	32866	
3589	0	32824	32834	
3590	0	32910	32862	
3591	0	32812	32762	
3592	0	32856	32839	
3593	0	32840	32774	
3594	0	32808	32823	
3595	0	32778	32751	
3596	0	32856	32644	
3597	0	32820	32650	
3598	0	32852	32658	
3599	0	32720	32688	
3600	0	32836	32734	
3601	0	32774	32716	
3602	0	32848	32772	
3603	0	32760	32846	
3604	0	32794	32830	
3605	0	32788	32736	
3606	0	32786	32724	
3607	0	32820	32704	
3608	0	32796	32716	
3609	0	32828	32725	
3610	0	32816	32754	
3611	0	32824	32696	
3612	0	32804	32726	
3613	0	32732	32689	
3614	0	32838	32832	
3615	0	32780	32786	
3616	0	32856	32756	
3617	0	32852	32714	
3618	0	32760	32732	
3619	0	32754	32672	
3620	0	32852	32768	
3621	0	32838	32698	
3622	0	32892	32702	
3623	0	32888	32735	
3624	0	32776	32692	
3625	0	32784	32758	
3626	0	32802	32682	
3627	0	32846	32692	
3628	0	32804	32740	
3629	0	32748	32814	
3630	0	32856	32796	
3631	0	32856	32775	
3632	0	32764	32720	
3633	0	32772	32874	
3634	0	32792	32752	
3635	0	32812	32695	
3636	0	32822	32748	
3637	0	32736	32722	
3638	0	32816	32762	
3639	0	32840	32770	
3640	0	32852	32788	
3641	0	32804	32727	
3642	0	32850	32728	
3643	0	32852	32692	
3644	0	32788	32826	
3645	0	32808	32775	
3646	0	32760	32796	
3647	0	32824	32712	
3648	0	32848	32860	
3649	0	32834	32838	
3650	0	32820	32820	
3651	0	32738	32704	
3652	0	32792	32716	
3653	0	32812	32736	
3654	0	32812	32736	
3655	0	32769	32690	
3656	0	32738	32734	
3657	0	32782	32844	
3658	0	32814	32806	
3659	0	32840	32792	
3660	0	32856	32832	
3661	0	32772	32792	
3662	0	32840	32838	
3663	0	32932	32792	
3664	0	32884	32852	
3665	0	32832	32824	
3666	0	32914	32692	
3667	0	32854	32746	
3668	0	32876	32660	
3669	0	32784	32722	
3670	0	32704	32712	
3671	0	32800	32775	
3672	0	32796	32828	
3673	0	32806	32800	
3674	0	32816	32680	
3675	0	32732	32772	
3676	0	32800	32782	
3677	0	32672	32604	
3678	0	32768	32628	
3679	0	32684	32626	
3680	0	32688	32672	
3681	0	32658	32710	
3682	0	32640	32750	
3683	0	32672	32686	
3684	0	32710	32698	
3685	0	32701	32632	
3686	0	32756	32718	
3687	0	32672	32775	
3688	0	32732	32719	
3689	0	32712	32822	
3690	0	32806	32692	
3691	0	32784	32656	
3692	0	32760	32698	
3693	0	32852	32762	
3694	0	32864	32796	
3695	0	32808	32750	
3696	0	32764	32788	
3697	0	32814	32820	
3698	0	32832	32860	
3699	0	32928	32854	
3700	0	32920	32864	
3701	0	32974	32879	
3702	0	33038	32948	
3703	0	33104	32900	
3704	0	33108	33054	
3705	0	33148	33074	
3706	0	33094	33031	
3707	0	32974	33022	
3708	0	33020	32996	
3709	0	32940	32976	
3710	0	32970	32912	
3711	0	32994	32775	
3712	0	32962	32816	
3713	0	32918	32746	
3714	0	32884	32679	
3715	0	32840	32616	
3716	0	32726	32646	
3717	0	32688	32576	
3718	0	32690	32647	
3719	0	32678	32704	
3720	0	32696	32704	
3721	0	32744	32670	
3722	0	32722	32736	
3723	0	32769	32720	
3724	0	32764	32748	
3725	0	32744	32796	
3726	0	32672	32764	
3727	0	32752	32732	
3728	0	32776	32714	
3729	0	32770	32828	
3730	0	32716	32769	
3731	0	32780	32808	
3732	0	32804	32844	
3733	0	32808	32704	
3734	0	32790	32647	
3735	0	32778	32864	
3736	0	32810	32770	
3737	0	32730	32818	
3738	0	32864	32756	
3739	0	32806	32775	
3740	0	32836	32740	
3741	0	32860	32756	
3742	0	32812	32730	
3743	0	32782	32774	
3744	0	32778	32842	
3745	0	32800	32775	
3746	0	32820	32799	
3747	0	32820	32796	
3748	0	32864	32816	
3749	0	32788	32670	
3750	0	32816	32656	
3751	0	32802	32644	
3752	0	32792	32711	
3753	0	32766	32808	
3754	0	32772	32775	
3755	0	32848	32892	
3756	0	32832	32711	
3757	0	32826	32692	
3758	0	32800	32820	
3759	0	32852	32712	
3760	0	32848	32706	
3761	0	32832	32728	
3762	0	32876	32842	
3763	0	32740	32760	
3764	0	32836	32802	
3765	0	32784	32806	
3766	0	32826	32762	
3767	0	32804	32710	
3768	0	32700	32708	
3769	0	32788	32676	
3770	0	32828	32684	
3771	0	32872	32790	
3772	0	32788	32764	
3773	0	32832	32814	
3774	0	32768	32714	
3775	0	32858	32668	
3776	0	32804	32704	
3777	0	32800	32792	
3778	0	32732	32828	
3779	0	32826	32793	
3780	0	32820	32807	
3781	0	32804	32842	
3782	0	32854	32664	
3783	0	32858	32646	
3784	0	32872	32710	
3785	0	32814	32784	
3786	0	32816	32862	
3787	0	32800	32742	
3788	0	32842	32858	
3789	0	32764	32854	
3790	0	32824	32760	
3791	0	32870	32752	
3792	0	32826	32710	
3793	0	32860	32730	
3794	0	32766	32782	
3795	0	32812	32750	
3796	0	32824	32800	
3797	0	32804	32807	
3798	0	32858	32775	
3799	0	32780	32796	
3800	0	32844	32630	
3801	0	32774	32708	
3802	0	32728	32700	
3803	0	32808	32742	
3804	0	32772	32708	
3805	0	32788	32750	
3806	0	32832	32748	
3807	0	32800	32816	
3808	0	32880	32798	
3809	0	32874	32774	
3810	0	32828	32802	
3811	0	32800	32770	
3812	0	32784	32772	
3813	0	32768	32822	
3814	0	32804	32774	
3815	0	32816	32716	
3816	0	32784	32742	
3817	0	32828	32764	
3818	0	32784	32744	
3819	0	32756	32684	
3820	0	32816	32806	
3821	0	32884	32698	
3822	0	32856	32804	
3823	0	32870	32854	
3824	0	32830	32770	
3825	0	32820	32782	
3826	0	32786	32786	
3827	0	32842	32788	
3828	0	32821	32740	
3829	0	32788	32744	
3830	0	32780	32788	
3831	0	32834	32824	
3832	0	32828	32792	
3833	0	32846	32728	
3834	0	32764	32816	
3835	0	32784	32732	
3836	0	32796	32846	
3837	0	32828	32796	
3838	0	32798	32821	
3839	0	32756	32772	
3840	0	32776	32808	
3841	0	32832	32692	
3842	0	32806	32652	
3843	0	32868	32722	
3844	0	32824	32775	
3845	0	32780	32846	
3846	0	32792	32830	
3847	0	32834	32724	
3848	0	32800	32752	
3849	0	32828	32814	
3850	0	32784	32698	
3851	0	32774	32682	
3852	0	32860	32727	
3853	0	32828	32848	
3854	0	32792	32758	
3855	0	32800	32792	
3856	0	32790	32748	
3857	0	32804	32768	
3858	0	32856	32676	
3859	0	32868	32678	
3860	0	32802	32679	
3861	0	32772	32678	
3862	0	32846	32800	
3863	0	32820	32735	
3864	0	32792	32828	
3865	0	32788	32774	
3866	0	32832	32820	
3867	0	32792	32741	
3868	0	32742	32812	
3869	0	32778	32740	
3870	0	32800	32695	
3871	0	32804	32702	
3872	0	32876	32808	
3873	0	32768	32838	
3874	0	32792	32750	
3875	0	32820	32790	
3876	0	32800	32804	
3877	0	32804	32716	
3878	0	32752	32708	
3879	0	32858	32774	
3880	0	32764	32762	
3881	0	32828	32775	
3882	0	32834	32775	
3883	0	32852	32804	
3884	0	32816	32844	
3885	0	32846	32766	
3886	0	32836	32820	
3887	0	32772	32775	
3888	0	32800	32810	
3889	0	32824	32718	
3890	0	32774	32746	
3891	0	32822	32659	
3892	0	32790	32704	
3893	0	32810	32734	
3894	0	32788	32784	
3895	0	32818	32732	
3896	0	32804	32760	
3897	0	32844	32784	
3898	0	32800	32728	
3899	0	32796	32682	
3900	0	32780	32760	
3901	0	32768	32708	
3902	0	32872	32712	
3903	0	32856	32740	
3904	0	32804	32650	
3905	0	32768	32678	
3906	0	32784	32740	
3907	0	32834	32808	
3908	0	32784	32844	
3909	0	32888	32814	
3910	0	32792	32756	
3911	0	32832	32738	
3912	0	32796	32796	
3913	0	32820	32728	
3914	0	32824	32815	
3915	0	32848	32828	
3916	0	32836	32680	
3917	0	32760	32704	
3918	0	32808	32721	
3919	0	32800	32734	
3920	0	32872	32807	
3921	0	32788	32871	
3922	0	32784	32750	
3923	0	32836	32746	
3924	0	32764	32860	
3925	0	32836	32748	
3926	0	32784	32710	
3927	0	32840	32770	
3928	0	32764	32736	
3929	0	32792	32838	
3930	0	32816	32756	
3931	0	32728	32816	
3932	0	32808	32796	
3933	0	32764	32796	
3934	0	32820	32738	
3935	0	32820	32812	
3936	0	32822	32836	
3937	0	32834	32798	
3938	0	32812	32892	
3939	0	32816	32775	
3940	0	32800	32842	
3941	0	32852	32816	
3942	0	32820	32830	
3943	0	32856	32740	
3944	0	32866	32708	
3945	0	32796	32736	
3946	0	32836	32674	
3947	0	32834	32688	
3948	0	32836	32814	
3949	0	32804	32828	
3950	0	32808	32784	
3951	0	32830	32788	
3952	0	32834	32783	
3953	0	32826	32796	
3954	0	32772	32826	
3955	0	32860	32816	
3956	0	32768	32788	
3957	0	32796	32774	
3958	0	32804	32838	
3959	0	32836	32682	
3960	0	32828	32714	
3961	0	32824	32688	
3962	0	32770	32704	
3963	0	32814	32798	
3964	0	32852	32716	
3965	0	32850	32758	
3966	0	32860	32750	
3967	0	32772	32758	
3968	0	32780	32863	
3969	0	32820	32804	
3970	0	32796	32839	
3971	0	32764	32785	
3972	0	32764	32798	
3973	0	32864	32806	
3974	0	32821	32802	
3975	0	32768	32724	
3976	0	32840	32668	
3977	0	32864	32764	
3978	0	32832	32800	
3979	0	32770	32808	
3980	0	32816	32732	
3981	0	32816	32775	
3982	0	32768	32796	
3983	0	32798	32764	
3984	0	32832	32839	
3985	0	32880	32806	
3986	0	32796	32744	
3987	0	32804	32711	
3988	0	32810	32704	
3989	0	32818	32758	
3990	0	32794	32752	
3991	0	32848	32792	
3992	0	32776	32815	
3993	0	32828	32750	
3994	0	32776	32784	
3995	0	32776	32708	
3996	0	32808	32684	
3997	0	32806	32714	
3998	0	32794	32690	
3999	0	32852	32742	
4000	0	32818	32730	
4001	0	32828	32812	
4002	0	32820	32744	
4003	0	32776	32808	
4004	0	32840	32770	
4005	0	32824	32880	
4006	0	32812	32728	
4007	0	32794	32668	
4008	0	32766	32748	
4009	0	32772	32868	
4010	0	32796	32824	
4011	0	32764	32770	
4012	0	32804	32752	
4013	0	32810	32752	
4014	0	32856	32836	
4015	0	32776	32744	
4016	0	32820	32678	
4017	0	32784	32644	
4018	0	32816	32642	
4019	0	32772	32742	
4020	0	32848	32756	
4021	0	32816	32762	
4022	0	32848	32824	
4023	0	32792	32848	
4024	0	32796	32775	
4025	0	32818	32730	
4026	0	32848	32762	
4027	0	32782	32810	
4028	0	32848	32800	
4029	0	32778	32716	
4030	0	32778	32817	
4031	0	32768	32740	
4032	0	32786	32746	
4033	0	32762	32702	
4034	0	32838	32656	
4035	0	32848	32684	
4036	0	32816	32708	
4037	0	32834	32725	
4038	0	32816	32834	
4039	0	32852	32822	
4040	0	32814	32775	
4041	0	32816	32790	
4042	0	32766	32788	
4043	0	32844	32775	
4044	0	32828	32800	
4045	0	32848	32758	
4046	0	32810	32775	
4047	0	32819	32849	
4048	0	32812	32775	
4049	0	32834	32826	
4050	0	32792	32804	
4051	0	32784	32788	
4052	0	32872	32750	
4053	0	32818	32838	
4054	0	32700	32791	
4055	0	32860	32738	
4056	0	32784	32754	
4057	0	32820	32775	
4058	0	32840	32728	
4059	0	32836	32770	
4060	0	32772	32790	
4061	0	32820	32772	
4062	0	32826	32752	
4063	0	32846	32726	
4064	0	32824	32732	
4065	0	32784	32784	
4066	0	32840	32856	
4067	0	32858	32738	
4068	0	32820	32734	
4069	0	32796	32768	
4070	0	32772	32798	
4071	0	32830	32824	
4072	0	32792	32856	
4073	0	32784	32832	
4074	0	32836	32800	
4075	0	32750	32678	
4076	0	32722	32748	
4077	0	32812	32722	
4078	0	32792	32682	
4079	0	32852	32727	
4080	0	32808	32742	
4081	0	32794	32724	
4082	0	32834	32774	
4083	0	32804	32820	
4084	0	32880	32822	
4085	0	32826	32762	
4086	0	32798	32788	
4087	0	32800	32775	
4088	0	32872	32830	
4089	0	32744	32740	
4090	0	32754	32724	
4091	0	32740	32684	
4092	0	32872	32700	
4093	0	32824	32774	
4094	0	32814	32823	
4095	0	32852	32756	
4096	0	32734	32692	
4097	0	32808	32838	
4098	0	32852	32840	
4099	0	32804	32802	
4100	0	32858	32878	
4101	0	32820	32800	
4102	0	32840	32806	
4103	0	32800	32712	
4104	0	32792	32775	
4105	0	32856	32742	
4106	0	32872	32790	
4107	0	32788	32800	
4108	0	32772	32784	
4109	0	32768	32802	
4110	0	32818	32692	
4111	0	32800	32800	
4112	0	32764	32846	
4113	0	32800	32788	
4114	0	32824	32740	
4115	0	32752	32782	
4116	0	32800	32775	
4117	0	32820	32803	
4118	0	32840	32734	
4119	0	32832	32688	
4120	0	32868	32732	
4121	0	32816	32854	
4122	0	32844	32798	
4123	0	32892	32824	
4124	0	32808	32768	
4125	0	32836	32834	
4126	0	32796	32760	
4127	0	32812	32775	
4128	0	32828	32758	
4129	0	32826	32682	
4130	0	32848	32700	
4131	0	32772	32710	
4132	0	32740	32742	
4133	0	32796	32682	
4134	0	32746	32826	
4135	0	32804	32714	
4136	0	32816	32678	
4137	0	32796	32708	
4138	0	32808	32656	
4139	0	32836	32712	
4140	0	32872	32696	
4141	0	32804	32798	
4142	0	32768	32752	
4143	0	32838	32700	
4144	0	32852	32686	
4145	0	32800	32734	
4146	0	32872	32774	
4147	0	32800	32790	
4148	0	32768	32828	
4149	0	32776	32898	
4150	0	32768	32756	
4151	0	32760	32760	
4152	0	32780	32748	
4153	0	32828	32774	
4154	0	32800	32720	
4155	0	32840	32748	
4156	0	32800	32820	
4157	0	32820	32810	
4158	0	32800	32870	
4159	0	32832	32758	
4160	0	32848	32808	
4161	0	32826	32924	
4162	0	32820	32768	
4163	0	32784	32804	
4164	0	32832	32895	
4165	0	32820	32818	
4166	0	32798	32854	
4167	0	32788	32775	
4168	0	32768	32748	
4169	0	32776	32704	
4170	0	32780	32766	
4171	0	32794	32775	
4172	0	32772	32756	
4173	0	32850	32775	
4174	0	32868	32752	
4175	0	32820	32872	
4176	0	32784	32770	
4177	0	32786	32654	
4178	0	32856	32756	
4179	0	32814	32830	
4180	0	32828	32792	
4181	0	32772	32836	
4182	0	32816	32736	
4183	0	32832	32788	
4184	0	32810	32804	
4185	0	32800	32798	
4186	0	32768	32806	
4187	0	32802	32811	
4188	0	32800	32847	
4189	0	32800	32796	
4190	0	32840	32834	
4191	0	32828	32820	
4192	0	32764	32846	
4193	0	32822	32788	
4194	0	32804	32730	
4195	0	32772	32760	
4196	0	32840	32716	
4197	0	32740	32791	
4198	0	32760	32855	
4199	0	32840	32804	
4200	0	32816	32784	
4201	0	32832	32708	
4202	0	32844	32741	
4203	0	32880	32724	
4204	0	32888	32782	
4205	0	32796	32772	
4206	0	32804	32806	
4207	0	32836	32840	
4208	0	32752	32828	
4209	0	32776	32764	
4210	0	32804	32768	
4211	0	32792	32748	
4212	0	32812	32756	
4213	0	32856	32828	
4214	0	32812	32792	
4215	0	32816	32800	
4216	0	32826	32822	
4217	0	32792	32818	
4218	0	32826	32804	
4219	0	32812	32734	
4220	0	32800	32806	
4221	0	32834	32838	
4222	0	32824	32806	
4223	0	32844	32820	
4224	0	32744	32868	
4225	0	32826	32769	
4226	0	32728	32772	
4227	0	32776	32854	
4228	0	32804	32834	
4229	0	32780	32752	
4230	0	32824	32738	
4231	0	32788	32882	
4232	0	32808	32668	
4233	0	32794	32783	
4234	0	32856	32686	
4235	0	32808	32698	
4236	0	32796	32834	
4237	0	32788	32846	
4238	0	32806	32756	
4239	0	32790	32828	
4240	0	32808	32828	
4241	0	32826	32794	
4242	0	32858	32730	
4243	0	32824	32890	
4244	0	32816	32822	
4245	0	32824	32810	
4246	0	32800	32838	
4247	0	32732	32807	
4248	0	32834	32770	
4249	0	32848	32902	
4250	0	32796	32775	
4251	0	32824	32775	
4252	0	32816	32740	
4253	0	32776	32839	
4254	0	32804	32796	
4255	0	32868	32666	
4256	0	32822	32692	
4257	0	32808	32672	
4258	0	32774	32766	
4259	0	32828	32660	
4260	0	32872	32774	
4261	0	32772	32760	
4262	0	32836	32794	
4263	0	32800	32792	
4264	0	32808	32712	
4265	0	32894	32774	
4266	0	32832	32842	
4267	0	32804	32775	
4268	0	32780	32820	
4269	0	32816	32807	
4270	0	32788	32774	
4271	0	32844	32841	
4272	0	32836	32836	
4273	0	32786	32734	
4274	0	32804	32775	
4275	0	32804	32758	
4276	0	32812	32780	
4277	0	32788	32768	
4278	0	32850	32868	
4279	0	32820	32804	
4280	0	32832	32686	
4281	0	32816	32676	
4282	0	32788	32662	
4283	0	32796	32654	
4284	0	32817	32668	
4285	0	32824	32772	
4286	0	32792	32700	
4287	0	32836	32640	
4288	0	32776	32730	
4289	0	32808	32746	
4290	0	32832	32748	
4291	0	32804	32817	
4292	0	32812	32802	
4293	0	32816	32775	
4294	0	32840	32768	
4295	0	32828	32775	
4296	0	32864	32774	
4297	0	32800	32847	
4298	0	32840	32868	
4299	0	32804	32759	
4300	0	32844	32686	
4301	0	32824	32788	
4302	0	32804	32798	
4303	0	32804	32832	
4304	0	32808	32874	
4305	0	32892	32748	
4306	0	32804	32640	
4307	0	32828	32680	
4308	0	32840	32768	
4309	0	32760	32774	
4310	0	32756	32900	
4311	0	32782	32874	
4312	0	32780	32727	
4313	0	32818	32746	
4314	0	32776	32756	
4315	0	32768	32812	
4316	0	32808	32774	
4317	0	32846	32799	
4318	0	32792	32814	
4319	0	32834	32794	
4320	0	32834	32824	
4321	0	32820	32774	
4322	0	32836	32682	
4323	0	32840	32760	
4324	0	32828	32646	
4325	0	32828	32696	
4326	0	32832	32740	
4327	0	32852	32710	
4328	0	32776	32690	
4329	0	32832	32722	
4330	0	32802	32788	
4331	0	32804	32846	
4332	0	32820	32836	
4333	0	32788	32748	
4334	0	32754	32711	
4335	0	32780	32842	
4336	0	32812	32811	
4337	0	32788	32816	
4338	0	32888	32903	
4339	0	32840	32792	
4340	0	32824	32764	
4341	0	32802	32768	
4342	0	32802	32756	
4343	0	32748	32810	
4344	0	32800	32818	
4345	0	32780	32788	
4346	0	32808	32839	
4347	0	32856	32810	
4348	0	32844	32716	
4349	0	32810	32724	
4350	0	32808	32684	
4351	0	32840	32775	
4352	0	32806	32728	
4353	0	32816	32630	
4354	0	32784	32736	
4355	0	32776	32726	
4356	0	32828	32682	
4357	0	32824	32718	
4358	0	32816	32775	
4359	0	32832	32719	
4360	0	32806	32746	
4361	0	32792	32796	
4362	0	32816	32804	
4363	0	32872	32775	
4364	0	32756	32760	
4365	0	32780	32792	
4366	0	32872	32812	
4367	0	32836	32792	
4368	0	32836	32794	
4369	0	32795	32898	
4370	0	32828	32742	
4371	0	32736	32716	
4372	0	32788	32716	
4373	0	32794	32688	
4374	0	32890	32706	
4375	0	32804	32702	
4376	0	32868	32772	
4377	0	32816	32711	
4378	0	32828	32719	
4379	0	32836	32810	
4380	0	32800	32759	
4381	0	32848	32794	
4382	0	32816	32796	
4383	0	32800	32716	
4384	0	32800	32828	
4385	0	32796	32808	
4386	0	32792	32792	
4387	0	32800	32854	
4388	0	32832	32726	
4389	0	32760	32682	
4390	0	32800	32903	
4391	0	32776	32790	
4392	0	32796	32894	
4393	0	32804	32732	
4394	0	32808	32654	
4395	0	32866	32726	
4396	0	32814	32720	
4397	0	32916	32714	
4398	0	32876	32654	
4399	0	32812	32714	
4400	0	32776	32686	
4401	0	32840	32666	
4402	0	32836	32705	
4403	0	32800	32732	
4404	0	32776	32798	
4405	0	32796	32800	
4406	0	32828	32788	
4407	0	32816	32742	
4408	0	32816	32752	
4409	0	32788	32806	
4410	0	32748	32775	
4411	0	32808	32710	
4412	0	32794	32743	
4413	0	32848	32716	
4414	0	32868	32724	
4415	0	32780	32732	
4416	0	32832	32775	
4417	0	32802	32775	
4418	0	32770	32796	
4419	0	32868	32766	
4420	0	32808	32775	
4421	0	32808	32804	
4422	0	32864	32736	
4423	0	32804	32758	
4424	0	32910	32832	
4425	0	32828	32828	
4426	0	32738	32698	
4427	0	32808	32746	
4428	0	32808	32687	
4429	0	32752	32826	
4430	0	32804	32836	
4431	0	32776	32775	
4432	0	32836	32806	
4433	0	32832	32772	
4434	0	32828	32775	
4435	0	32854	32816	
4436	0	32816	32858	
4437	0	32784	32810	
4438	0	32836	32750	
4439	0	32796	32694	
4440	0	32856	32750	
4441	0	32836	32772	
4442	0	32834	32800	
4443	0	32860	32788	
4444	0	32788	32772	
4445	0	32802	32820	
4446	0	32776	32734	
4447	0	32734	32750	
4448	0	32796	32864	
4449	0	32800	32822	
4450	0	32798	32870	
4451	0	32850	32788	
4452	0	32826	32774	
4453	0	32884	32760	
4454	0	32802	32788	
4455	0	32794	32822	
4456	0	32812	32748	
4457	0	32816	32702	
4458	0	32808	32634	
4459	0	32833	32752	
4460	0	32780	32758	
4461	0	32840	32774	
4462	0	32824	32752	
4463	0	32840	32830	
4464	0	32804	32744	
4465	0	32856	32812	
4466	0	32800	32734	
4467	0	32804	32802	
4468	0	32812	32862	
4469	0	32772	32720	
4470	0	32776	32724	
4471	0	32810	32812	
4472	0	32864	32794	
4473	0	32792	32746	
4474	0	32774	32792	
4475	0	32756	32664	
4476	0	32786	32692	
4477	0	32838	32744	
4478	0	32853	32708	
4479	0	32826	32682	
4480	0	32820	32762	
4481	0	32824	32736	
4482	0	32824	32808	
4483	0	32897	32800	
4484	0	32806	32786	
4485	0	32800	32775	
4486	0	32828	32798	
4487	0	32844	32689	
4488	0	32776	32718	
4489	0	32772	32684	
4490	0	32808	32768	
4491	0	32756	32788	
4492	0	32828	32854	
4493	0	32814	32838	
4494	0	32804	32800	
4495	0	32818	32764	
4496	0	32860	32870	
4497	0	32804	32800	
4498	0	32844	32720	
4499	0	32820	32810	
4500	0	32826	32812	
4501	0	32764	32784	
4502	0	32848	32744	
4503	0	32836	32769	
4504	0	32808	32866	
4505	0	32792	32796	
4506	0	32796	32802	
4507	0	32838	32790	
4508	0	32820	32858	
4509	0	32820	32791	
4510	0	32776	32871	
4511	0	32798	32830	
4512	0	32898	32836	
4513	0	32833	32762	
4514	0	32688	32735	
4515	0	32784	32772	
4516	0	32858	32732	
4517	0	32864	32654	
4518	0	32812	32742	
4519	0	32896	32774	
4520	0	32856	32820	
4521	0	32766	32826	
4522	0	32772	32842	
4523	0	32860	32768	
4524	0	32832	32804	
4525	0	32740	32743	
4526	0	32760	32800	
4527	0	32810	32814	
4528	0	32796	32792	
4529	0	32804	32740	
4530	0	32782	32728	
4531	0	32764	32780	
4532	0	32758	32840	
4533	0	32828	32808	
4534	0	32748	32815	
4535	0	32840	32724	
4536	0	32810	32775	
4537	0	32798	32834	
4538	0	32782	32772	
4539	0	32860	32742	
4540	0	32840	32708	
4541	0	32856	32604	
4542	0	32812	32742	
4543	0	32848	32718	
4544	0	32832	32756	
4545	0	32742	32747	
4546	0	32816	32750	
4547	0	32844	32792	
4548	0	32792	32775	
4549	0	32814	32826	
4550	0	32780	32904	
4551	0	32808	32820	
4552	0	32866	32802	
4553	0	32864	32772	
4554	0	32808	32775	
4555	0	32836	32759	
4556	0	32800	32775	
4557	0	32862	32734	
4558	0	32836	32647	
4559	0	32852	32838	
4560	0	32848	32852	
4561	0	32736	32800	
4562	0	32792	32792	
4563	0	32832	32692	
4564	0	32794	32706	
4565	0	32746	32730	
4566	0	32792	32902	
4567	0	32772	32808	
4568	0	32788	32791	
4569	0	32830	32786	
4570	0	32820	32770	
4571	0	32838	32676	
4572	0	32774	32734	
4573	0	32836	32768	
4574	0	32824	32756	
4575	0	32800	32772	
4576	0	32832	32698	
4577	0	32796	32828	
4578	0	32830	32728	
4579	0	32868	32690	
4580	0	32816	32644	
4581	0	32798	32820	
4582	0	32870	32830	
4583	0	32792	32807	
4584	0	32760	32823	
4585	0	32716	32775	
4586	0	32772	32676	
4587	0	32736	32708	
4588	0	32818	32718	
4589	0	32872	32724	
4590	0	32836	32772	
4591	0	32788	32854	
4592	0	32728	32748	
4593	0	32758	32800	
4594	0	32778	32854	
4595	0	32846	32684	
4596	0	32782	32774	
4597	0	32794	32720	
4598	0	32860	32726	
4599	0	32858	32766	
4600	0	32812	32750	
4601	0	32816	32860	
4602	0	32844	32816	
4603	0	32784	32828	
4604	0	32784	32750	
4605	0	32758	32772	
4606	0	32844	32788	
4607	0	32828	32842	
4608	0	32802	32662	
4609	0	32856	32716	
4610	0	32900	32874	
4611	0	32802	32770	
4612	0	32892	32864	
4613	0	32820	32808	
4614	0	32736	32728	
4615	0	32768	32714	
4616	0	32796	32756	
4617	0	32812	32680	
4618	0	32840	32768	
4619	0	32808	32740	
4620	0	32852	32775	
4621	0	32774	32810	
4622	0	32840	32796	
4623	0	32882	32888	
4624	0	32760	32770	
4625	0	32788	32700	
4626	0	32852	32762	
4627	0	32746	32798	
4628	0	32766	32862	
4629	0	32776	32828	
4630	0	32822	32752	
4631	0	32828	32790	
4632	0	32818	32816	
4633	0	32782	32794	
4634	0	32876	32860	
4635	0	32820	32670	
4636	0	32818	32676	
4637	0	32740	32716	
4638	0	32884	32830	
4639	0	32860	32742	
4640	0	32796	32824	
4641	0	32802	32775	
4642	0	32798	32775	
4643	0	32792	32750	
4644	0	32794	32775	
4645	0	32834	32904	
4646	0	32800	32832	
4647	0	32806	32812	
4648	0	32790	32806	
4649	0	32836	32806	
4650	0	32836	32826	
4651	0	32856	32744	
4652	0	32810	32820	
4653	0	32884	32718	
4654	0	32732	32801	
4655	0	32768	32682	
4656	0	32826	32750	
4657	0	32772	32736	
4658	0	32752	32728	
4659	0	32740	32766	
4660	0	32772	32662	
4661	0	32752	32775	
4662	0	32698	32646	
4663	0	32706	32770	
4664	0	32696	32672	
4665	0	32708	32718	
4666	0	32692	32628	
4667	0	32730	32564	
4668	0	32720	32718	
4669	0	32684	32762	
4670	0	32700	32680	
4671	0	32732	32742	
4672	0	32740	32766	
4673	0	32830	32878	
4674	0	32832	32752	
4675	0	32744	32764	
4676	0	32864	32734	
4677	0	32836	32774	
4678	0	32852	32772	
4679	0	32788	32814	
4680	0	32880	32735	
4681	0	32836	32818	
4682	0	32900	32790	
4683	0	32920	32866	
4684	0	32938	32872	
4685	0	32972	32952	
4686	0	33060	32992	
4687	0	33038	33016	
4688	0	33092	33056	
4689	0	33066	33058	
4690	0	33072	32998	
4691	0	33016	32992	
4692	0	32928	32870	
4693	0	33018	32876	
4694	0	33004	32896	
4695	0	32952	32823	
4696	0	32884	32832	
4697	0	32926	32772	
4698	0	32786	32666	
4699	0	32718	32680	
4700	0	32684	32620	
4701	0	32690	32664	
4702	0	32688	32670	
4703	0	32730	32600	
4704	0	32748	32742	
4705	0	32672	32742	
4706	0	32780	32798	
4707	0	32800	32730	
4708	0	32752	32722	
4709	0	32780	32854	
4710	0	32760	32790	
4711	0	32728	32704	
4712	0	32800	32732	
4713	0	32768	32692	
4714	0	32762	32710	
4715	0	32768	32775	
4716	0	32836	32711	
4717	0	32788	32768	
4718	0	32816	32804	
4719	0	32800	32766	
4720	0	32784	32676	
4721	0	32848	32744	
4722	0	32804	32752	
4723	0	32774	32732	
4724	0	32816	32810	
4725	0	32840	32812	
4726	0	32792	32884	
4727	0	32782	32774	
4728	0	32720	32734	
4729	0	32786	32775	
4730	0	32832	32798	
4731	0	32836	32756	
4732	0	32852	32718	
4733	0	32818	32734	
4734	0	32900	32770	
4735	0	32816	32842	
4736	0	32778	32802	
4737	0	32764	32802	
4738	0	32728	32688	
4739	0	32746	32708	
4740	0	32824	32816	
4741	0	32840	32775	
4742	0	32760	32788	
4743	0	32768	32806	
4744	0	32796	32844	
4745	0	32876	32728	
4746	0	32824	32715	
4747	0	32788	32664	
4748	0	32804	32804	
4749	0	32856	32800	
4750	0	32812	32832	
4751	0	32768	32732	
4752	0	32792	32682	
4753	0	32778	32808	
4754	0	32784	32816	
4755	0	32760	32810	
4756	0	32808	32680	
4757	0	32788	32714	
4758	0	32888	32764	
4759	0	32798	32724	
4760	0	32812	32810	
4761	0	32872	32720	
4762	0	32828	32718	
4763	0	32780	32801	
4764	0	32804	32774	
4765	0	32864	32784	
4766	0	32864	32816	
4767	0	32840	32812	
4768	0	32802	32700	
4769	0	32776	32666	
4770	0	32816	32764	
4771	0	32800	32740	
4772	0	32834	32768	
4773	0	32740	32816	
4774	0	32760	32734	
4775	0	32776	32720	
4776	0	32840	32792	
4777	0	32854	32796	
4778	0	32852	32772	
4779	0	32884	32687	
4780	0	32858	32708	
4781	0	32864	32724	
4782	0	32828	32721	
4783	0	32720	32728	
4784	0	32790	32768	
4785	0	32788	32732	
4786	0	32816	32718	
4787	0	32824	32775	
4788	0	32800	32722	
4789	0	32808	32692	
4790	0	32804	32766	
4791	0	32844	32700	
4792	0	32772	32828	
4793	0	32889	32799	
4794	0	32868	32784	
4795	0	32804	32775	
4796	0	32836	32667	
4797	0	32826	32760	
4798	0	32758	32700	
4799	0	32810	32818	
4800	0	32828	32738	
4801	0	32832	32798	
4802	0	32860	32692	
4803	0	32820	32852	
4804	0	32864	32698	
4805	0	32804	32810	
4806	0	32768	32702	
4807	0	32804	32802	
4808	0	32788	32774	
4809	0	32746	32774	
4810	0	32796	32804	
4811	0	32824	32775	
4812	0	32844	32808	
4813	0	32876	32754	
4814	0	32800	32820	
4815	0	32820	32692	
4816	0	32784	32711	
4817	0	32840	32736	
4818	0	32786	32716	
4819	0	32840	32654	
4820	0	32766	32698	
4821	0	32784	32796	
4822	0	32814	32814	
4823	0	32862	32872	
4824	0	32820	32770	
4825	0	32872	32775	
4826	0	32764	32807	
4827	0	32760	32858	
4828	0	32784	32736	
4829	0	32836	32692	
4830	0	32800	32710	
4831	0	32796	32720	
4832	0	32780	32751	
4833	0	32816	32839	
4834	0	32800	32806	
4835	0	32772	32746	
4836	0	32868	32806	
4837	0	32762	32824	
4838	0	32870	32862	
4839	0	32840	32724	
4840	0	32820	32728	
4841	0	32756	32754	
4842	0	32808	32700	
4843	0	32836	32654	
4844	0	32822	32752	
4845	0	32824	32756	
4846	0	32744	32792	
4847	0	32796	32720	
4848	0	32782	32720	
4849	0	32800	32798	
4850	0	32810	32868	
4851	0	32788	32770	
4852	0	32804	32900	
4853	0	32868	32818	
4854	0	32817	32878	
4855	0	32800	32680	
4856	0	32812	32650	
4857	0	32832	32688	
4858	0	32904	32812	
4859	0	32792	32814	
4860	0	32796	32768	
4861	0	32820	32808	
4862	0	32730	32812	
4863	0	32828	32774	
4864	0	32732	32692	
4865	0	32764	32728	
4866	0	32768	32820	
4867	0	32784	32750	
4868	0	32776	32806	
4869	0	32818	32775	
4870	0	32812	32878	
4871	0	32842	32720	
4872	0	32800	32626	
4873	0	32828	32734	
4874	0	32772	32754	
4875	0	32784	32768	
4876	0	32862	32814	
4877	0	32792	32782	
4878	0	32796	32758	
4879	0	32788	32786	
4880	0	32804	32814	
4881	0	32808	32770	
4882	0	32840	32832	
4883	0	32844	32774	
4884	0	32772	32668	
4885	0	32832	32732	
4886	0	32892	32794	
4887	0	32818	32756	
4888	0	32788	32876	
4889	0	32784	32808	
4890	0	32860	32736	
4891	0	32772	32772	
4892	0	32772	32804	
4893	0	32768	32794	
4894	0	32808	32689	
4895	0	32788	32752	
4896	0	32828	32680	
4897	0	32848	32674	
4898	0	32860	32756	
4899	0	32868	32808	
4900	0	32872	32838	
4901	0	32828	32912	
4902	0	32870	32848	
4903	0	32848	32750	
4904	0	32784	32694	
4905	0	32800	32794	
4906	0	32828	32807	
4907	0	32808	32800	
4908	0	32806	32820	
4909	0	32806	32756	
4910	0	32732	32678	
4911	0	32832	32680	
4912	0	32816	32664	
4913	0	32840	32718	
4914	0	32784	32900	
4915	0	32872	32808	
4916	0	32844	32804	
4917	0	32808	32756	
4918	0	32784	32716	
4919	0	32824	32814	
4920	0	32864	32850	
4921	0	32832	32688	
4922	0	32876	32725	
4923	0	32852	32752	
4924	0	32806	32836	
4925	0	32836	32887	
4926	0	32852	32752	
4927	0	32828	32806	
4928	0	32826	32774	
4929	0	32836	32790	
4930	0	32830	32906	
4931	0	32810	32798	
4932	0	32802	32836	
4933	0	32816	32822	
4934	0	32836	32802	
4935	0	32774	32726	
4936	0	32840	32732	
4937	0	32856	32689	
4938	0	32800	32724	
4939	0	32818	32820	
4940	0	32848	32760	
4941	0	32800	32838	
4942	0	32858	32800	
4943	0	32798	32794	
4944	0	32804	32775	
4945	0	32842	32726	
4946	0	32774	32680	
4947	0	32836	32679	
4948	0	32828	32794	
4949	0	32828	32766	
4950	0	32804	32826	
4951	0	32782	32846	
4952	0	32860	32818	
4953	0	32800	32806	
4954	0	32892	32772	
4955	0	32788	32842	
4956	0	32770	32820	
4957	0	32874	32775	
4958	0	32812	32792	
4959	0	32802	32742	
4960	0	32760	32798	
4961	0	32760	32788	
4962	0	32804	32740	
4963	0	32868	32674	
4964	0	32852	32700	
4965	0	32720	32706	
4966	0	32808	32864	
4967	0	32804	32806	
4968	0	32776	32852	
4969	0	32760	32774	
4970	0	32768	32775	
4971	0	32836	32768	
4972	0	32844	32792	
4973	0	32847	32876	
4974	0	32752	32796	
4975	0	32798	32768	
4976	0	32842	32775	
4977	0	32832	32718	
4978	0	32800	32764	
4979	0	32792	32798	
4980	0	32804	32744	
4981	0	32836	32756	
4982	0	32874	32792	
4983	0	32788	32810	
4984	0	32784	32780	
4985	0	32806	32758	
4986	0	32814	32724	
4987	0	32780	32712	
4988	0	32772	32654	
4989	0	32812	32638	
4990	0	32848	32804	
4991	0	32804	32814	
4992	0	32784	32743	
4993	0	32846	32782	
4994	0	32812	32816	
4995	0	32740	32750	
4996	0	32834	32744	
4997	0	32842	32842	
4998	0	32827	32792	
4999	0	32792	32740	
5000	0	32880	32760	
5001	0	32796	32764	
5002	0	32860	32804	
5003	0	32812	32852	
5004	0	32772	32764	
5005	0	32816	32728	
5006	0	32832	32742	
5007	0	32828	32839	
5008	0	32782	32774	
5009	0	32814	32794	
5010	0	32800	32760	
5011	0	32800	32790	
5012	0	32828	32888	
5013	0	32820	32712	
5014	0	32800	32748	
5015	0	32852	32725	
5016	0	32840	32706	
5017	0	32828	32764	
5018	0	32804	32718	
5019	0	32856	32694	
5020	0	32882	32766	
5021	0	32796	32760	
5022	0	32844	32858	
5023	0	32800	32768	
5024	0	32762	32802	
5025	0	32772	32838	
5026	0	32832	32806	
5027	0	32810	32756	
5028	0	32764	32844	
5029	0	32804	32850	
5030	0	32812	32698	
5031	0	32804	32686	
5032	0	32830	32704	
5033	0	32872	32736	
5034	0	32806	32710	
5035	0	32862	32852	
5036	0	32784	32812	
5037	0	32852	32716	
5038	0	32800	32752	
5039	0	32780	32798	
5040	0	32800	32826	
5041	0	32774	32802	
5042	0	32780	32640	
5043	0	32840	32758	
5044	0	32780	32812	
5045	0	32814	32774	
5046	0	32824	32839	
5047	0	32808	32762	
5048	0	32834	32870	
5049	0	32804	32816	
5050	0	32784	32710	
5051	0	32834	32768	
5052	0	32820	32688	
5053	0	32804	32862	
5054	0	32796	32774	
5055	0	32778	32772	
5056	0	32826	32808	
5057	0	32824	32728	
5058	0	32814	32830	
5059	0	32784	32775	
5060	0	32836	32718	
5061	0	32818	32710	
5062	0	32832	32622	
5063	0	32740	32705	
5064	0	32784	32808	
5065	0	32826	32840	
5066	0	32824	32828	
5067	0	32792	32806	
5068	0	32784	32902	
5069	0	32824	32836	
5070	0	32846	32794	
5071	0	32852	32810	
5072	0	32804	32710	
5073	0	32824	32824	
5074	0	32828	32800	
5075	0	32854	32720	
5076	0	32796	32774	
5077	0	32800	32706	
5078	0	32858	32724	
5079	0	32842	32798	
5080	0	32828	32788	
5081	0	32896	32775	
5082	0	32790	32742	
5083	0	32772	32736	
5084	0	32856	32772	
5085	0	32828	32872	
5086	0	32726	32726	
5087	0	32858	32716	
5088	0	32770	32702	
5089	0	32816	32734	
5090	0	32764	32754	
5091	0	32788	32715	
5092	0	32756	32756	
5093	0	32816	32720	
5094	0	32874	32735	
5095	0	32769	32854	
5096	0	32828	32738	
5097	0	32800	32772	
5098	0	32800	32690	
5099	0	32840	32806	
5100	0	32830	32772	
5101	0	32788	32774	
5102	0	32812	32828	
5103	0	32864	32712	
5104	0	32820	32800	
5105	0	32806	32766	
5106	0	32756	32798	
5107	0	32826	32788	
5108	0	32840	32762	
5109	0	32838	32766	
5110	0	32778	32798	
5111	0	32780	32871	
5112	0	32852	32774	
5113	0	32808	32775	
5114	0	32788	32822	
5115	0	32796	32796	
5116	0	32828	32752	
5117	0	32882	32708	
5118	0	32768	32640	
5119	0	32788	32760	
5120	0	32878	32724	
5121	0	32788	32705	
5122	0	32772	32702	
5123	0	32792	32656	
5124	0	32856	32704	
5125	0	32784	32774	
5126	0	32864	32775	
5127	0	32820	32756	
5128	0	32792	32726	
5129	0	32776	32786	
5130	0	32848	32814	
5131	0	32806	32916	
5132	0	32776	32824	
5133	0	32824	32818	
5134	0	32776	32828	
5135	0	32828	32810	
5136	0	32856	32706	
5137	0	32828	32772	
5138	0	32842	32824	
5139	0	32872	32806	
5140	0	32788	32729	
5141	0	32796	32774	
5142	0	32770	32712	
5143	0	32808	32684	
5144	0	32860	32774	
5145	0	32816	32775	
5146	0	32850	32775	
5147	0	32798	32850	
5148	0	32808	32852	
5149	0	32868	32894	
5150	0	32772	32679	
5151	0	32842	32752	
5152	0	32788	32708	
5153	0	32868	32772	
5154	0	32820	32774	
5155	0	32746	32826	
5156	0	32782	32824	
5157	0	32758	32742	
5158	0	32802	32798	
5159	0	32880	32775	
5160	0	32792	32743	
5161	0	32814	32798	
5162	0	32826	32775	
5163	0	32848	32860	
5164	0	32838	32708	
5165	0	32808	32740	
5166	0	32800	32708	
5167	0	32804	32711	
5168	0	32860	32726	
5169	0	32800	32692	
5170	0	32872	32695	
5171	0	32832	32728	
5172	0	32884	32660	
5173	0	32820	32738	
5174	0	32800	32800	
5175	0	32752	32790	
5176	0	32796	32760	
5177	0	32852	32770	
5178	0	32832	32842	
5179	0	32824	32868	
5180	0	32832	32784	
5181	0	32862	32740	
5182	0	32920	32804	
5183	0	32840	32892	
5184	0	32816	32672	
5185	0	32792	32743	
5186	0	32768	32682	
5187	0	32816	32762	
5188	0	32820	32775	
5189	0	32844	32668	
5190	0	32834	32682	
5191	0	32834	32726	
5192	0	32832	32840	
5193	0	32800	32770	
5194	0	32752	32772	
5195	0	32830	32708	
5196	0	32798	32756	
5197	0	32826	32718	
5198	0	32820	32744	
5199	0	32772	32742	
5200	0	32816	32838	
5201	0	32808	32714	
5202	0	32874	32732	
5203	0	32860	32820	
5204	0	32792	32804	
5205	0	32884	32708	
5206	0	32844	32750	
5207	0	32776	32750	
5208	0	32808	32852	
5209	0	32824	32662	
5210	0	32760	32734	
5211	0	32820	32828	
5212	0	32802	32726	
5213	0	32830	32664	
5214	0	32844	32762	
5215	0	32816	32794	
5216	0	32756	32804	
5217	0	32894	32670	
5218	0	32816	32679	
5219	0	32794	32820	
5220	0	32848	32820	
5221	0	32830	32810	
5222	0	32808	32684	
5223	0	32816	32846	
5224	0	32804	32796	
5225	0	32768	32808	
5226	0	32800	32692	
5227	0	32848	32774	
5228	0	32768	32834	
5229	0	32808	32818	
5230	0	32852	32842	
5231	0	32824	32672	
5232	0	32746	32670	
5233	0	32780	32814	
5234	0	32852	32804	
5235	0	32775	32716	
5236	0	32770	32806	
5237	0	32772	32824	
5238	0	32828	32736	
5239	0	32824	32724	
5240	0	32848	32802	
5241	0	32786	32842	
5242	0	32812	32804	
5243	0	32848	32828	
5244	0	32792	32746	
5245	0	32832	32666	
5246	0	32784	32818	
5247	0	32808	32812	
5248	0	32824	32839	
5249	0	32804	32706	
5250	0	32760	32786	
5251	0	32840	32818	
5252	0	32848	32758	
5253	0	32824	32810	
5254	0	32784	32724	
5255	0	32816	32650	
5256	0	32784	32764	
5257	0	32814	32794	
5258	0	32772	32762	
5259	0	32824	32790	
5260	0	32856	32727	
5261	0	32836	32848	
5262	0	32778	32792	
5263	0	32836	32831	
5264	0	32800	32708	
5265	0	32712	32760	
5266	0	32832	32802	
5267	0	32818	32833	
5268	0	32900	32870	
5269	0	32806	32822	
5270	0	32836	32822	
5271	0	32778	32704	
5272	0	32790	32732	
5273	0	32800	32743	
5274	0	32776	32786	
5275	0	32696	32756	
5276	0	32804	32894	
5277	0	32838	32748	
5278	0	32824	32664	
5279	0	32764	32685	
5280	0	32842	32714	
5281	0	32846	32704	
5282	0	32852	32775	
5283	0	32816	32686	
5284	0	32816	32792	
5285	0	32820	32711	
5286	0	32828	32692	
5287	0	32738	32634	
5288	0	32778	32745	
5289	0	32770	32674	
5290	0	32774	32876	
5291	0	32828	32830	
5292	0	32846	32740	
5293	0	32824	32822	
5294	0	32848	32775	
5295	0	32758	32794	
5296	0	32788	32792	
5297	0	32816	32820	
5298	0	32826	32752	
5299	0	32780	32664	
5300	0	32896	32710	
5301	0	32834	32710	
5302	0	32832	32656	
5303	0	32784	32640	
5304	0	32816	32662	
5305	0	32774	32656	
5306	0	32828	32792	
5307	0	32844	32728	
5308	0	32748	32775	
5309	0	32792	32748	
5310	0	32820	32800	
5311	0	32804	32756	
5312	0	32806	32860	
5313	0	32856	32806	
5314	0	32792	32775	
5315	0	32856	32794	
5316	0	32800	32758	
5317	0	32760	32740	
5318	0	32826	32794	
5319	0	32852	32822	
5320	0	32764	32842	
5321	0	32788	32700	
5322	0	32858	32786	
5323	0	32804	32740	
5324	0	32784	32727	
5325	0	32852	32702	
5326	0	32792	32732	
5327	0	32808	32730	
5328	0	32784	32734	
5329	0	32832	32814	
5330	0	32810	32775	
5331	0	32800	32804	
5332	0	32796	32786	
5333	0	32748	32844	
5334	0	32806	32775	
5335	0	32864	32775	
5336	0	32828	32788	
5337	0	32868	32704	
5338	0	32820	32714	
5339	0	32864	32690	
5340	0	32792	32844	
5341	0	32816	32852	
5342	0	32808	32732	
5343	0	32816	32882	
5344	0	32764	32694	
5345	0	32816	32686	
5346	0	32760	32756	
5347	0	32800	32668	
5348	0	32852	32706	
5349	0	32816	32684	
5350	0	32832	32712	
5351	0	32830	32686	
5352	0	32824	32711	
5353	0	32798	32724	
5354	0	32848	32826	
5355	0	32828	32798	
5356	0	32804	32838	
5357	0	32800	32796	
5358	0	32828	32810	
5359	0	32856	32834	
5360	0	32842	32756	
5361	0	32844	32810	
5362	0	32804	32788	
5363	0	32868	32768	
5364	0	32784	32775	
5365	0	32830	32760	
5366	0	32796	32863	
5367	0	32858	32714	
5368	0	32828	32672	
5369	0	32786	32712	
5370	0	32888	32732	
5371	0	32838	32732	
5372	0	32856	32711	
5373	0	32764	32702	
5374	0	32804	32843	
5375	0	32828	32834	
5376	0	32836	32774	
5377	0	32844	32839	
5378	0	32828	32775	
5379	0	32788	32796	
5380	0	32768	32764	
5381	0	32816	32810	
5382	0	32768	32748	
5383	0	32832	32692	
5384	0	32768	32674	
5385	0	32752	32810	
5386	0	32786	32858	
5387	0	32768	32770	
5388	0	32812	32682	
5389	0	32844	32824	
5390	0	32816	32814	
5391	0	32824	32894	
5392	0	32810	32758	
5393	0	32830	32732	
5394	0	32792	32586	
5395	0	32764	32706	
5396	0	32864	32724	
5397	0	32856	32759	
5398	0	32843	32672	
5399	0	32824	32758	
5400	0	32810	32816	
5401	0	32796	32903	
5402	0	32808	32828	
5403	0	32820	32868	
5404	0	32828	32802	
5405	0	32762	32804	
5406	0	32824	32790	
5407	0	32848	32870	
5408	0	32820	32814	
5409	0	32752	32760	
5410	0	32834	32832	
5411	0	32836	32734	
5412	0	32840	32652	
5413	0	32828	32775	
5414	0	32832	32760	
5415	0	32760	32614	
5416	0	32804	32775	
5417	0	32880	32812	
5418	0	32824	32782	
5419	0	32834	32775	
5420	0	32864	32844	
5421	0	32870	32760	
5422	0	32832	32716	
5423	0	32852	32838	
5424	0	32788	32820	
5425	0	32860	32771	
5426	0	32844	32750	
5427	0	32804	32764	
5428	0	32788	32836	
5429	0	32756	32718	
5430	0	32824	32715	
5431	0	32778	32754	
5432	0	32834	32800	
5433	0	32832	32764	
5434	0	32744	32834	
5435	0	32864	32810	
5436	0	32808	32679	
5437	0	32876	32686	
5438	0	32792	32750	
5439	0	32800	32774	
5440	0	32824	32812	
5441	0	32796	32756	
5442	0	32796	32839	
5443	0	32812	32678	
5444	0	32804	32628	
5445	0	32784	32762	
5446	0	32800	32820	
5447	0	32836	32810	
5448	0	32800	32775	
5449	0	32748	32808	
5450	0	32804	32810	
5451	0	32784	32742	
5452	0	32816	32664	
5453	0	32820	32775	
5454	0	32796	32762	
5455	0	32828	32764	
5456	0	32758	32775	
5457	0	32868	32794	
5458	0	32800	32874	
5459	0	32864	32738	
5460	0	32802	32698	
5461	0	32832	32760	
5462	0	32872	32854	
5463	0	32816	32794	
5464	0	32780	32754	
5465	0	32780	32840	
5466	0	32816	32760	
5467	0	32754	32746	
5468	0	32812	32726	
5469	0	32800	32670	
5470	0	32822	32758	
5471	0	32820	32848	
5472	0	32812	32742	
5473	0	32848	32768	
5474	0	32776	32814	
5475	0	32850	32796	
5476	0	32792	32774	
5477	0	32820	32774	
5478	0	32824	32744	
5479	0	32848	32830	
5480	0	32724	32822	
5481	0	32808	32698	
5482	0	32830	32774	
5483	0	32876	32799	
5484	0	32812	32848	
5485	0	32856	32836	
5486	0	32824	32790	
5487	0	32802	32814	
5488	0	32800	32734	
5489	0	32788	32724	
5490	0	32772	32682	
5491	0	32808	32712	
5492	0	32804	32716	
5493	0	32852	32726	
5494	0	32798	32775	
5495	0	32820	32768	
5496	0	32832	32756	
5497	0	32804	32792	
5498	0	32824	32762	
5499	0	32772	32721	
5500	0	32796	32710	
5501	0	32754	32756	
5502	0	32808	32828	
5503	0	32808	32796	
5504	0	32804	32775	
5505	0	32826	32760	
5506	0	32890	32710	
5507	0	32866	32742	
5508	0	32810	32815	
5509	0	32788	32770	
5510	0	32804	32832	
5511	0	32780	32818	
5512	0	32798	32638	
5513	0	32796	32678	
5514	0	32860	32758	
5515	0	32792	32775	
5516	0	32852	32814	
5517	0	32854	32790	
5518	0	32880	32772	
5519	0	32818	32740	
5520	0	32816	32742	
5521	0	32816	32775	
5522	0	32828	32792	
5523	0	32800	32784	
5524	0	32868	32800	
5525	0	32836	32838	
5526	0	32792	32824	
5527	0	32802	32800	
5528	0	32780	32692	
5529	0	32812	32756	
5530	0	32764	32794	
5531	0	32792	32748	
5532	0	32802	32801	
5533	0	32748	32728	
5534	0	32816	32700	
5535	0	32832	32792	
5536	0	32868	32758	
5537	0	32872	32740	
5538	0	32858	32732	
5539	0	32888	32720	
5540	0	32812	32699	
5541	0	32896	32808	
5542	0	32746	32818	
5543	0	32834	32794	
5544	0	32802	32836	
5545	0	32820	32658	
5546	0	32812	32687	
5547	0	32820	32838	
5548	0	32816	32768	
5549	0	32712	32782	
5550	0	32732	32686	
5551	0	32840	32826	
5552	0	32780	32816	
5553	0	32848	32838	
5554	0	32832	32708	
5555	0	32792	32718	
5556	0	32798	32668	
5557	0	32848	32722	
5558	0	32916	32822	
5559	0	32818	32766	
5560	0	32840	32824	
5561	0	32820	32758	
5562	0	32834	32682	
5563	0	32752	32700	
5564	0	32808	32764	
5565	0	32812	32808	
5566	0	32808	32780	
5567	0	32848	32800	
5568	0	32784	32864	
5569	0	32802	32688	
5570	0	32844	32801	
5571	0	32848	32822	
5572	0	32804	32818	
5573	0	32834	32766	
5574	0	32816	32770	
5575	0	32864	32788	
5576	0	32850	32832	
5577	0	32836	32740	
5578	0	32792	32714	
5579	0	32814	32652	
5580	0	32756	32734	
5581	0	32792	32810	
5582	0	32780	32754	
5583	0	32732	32800	
5584	0	32774	32728	
5585	0	32740	32656	
5586	0	32720	32788	
5587	0	32708	32744	
5588	0	32612	32646	
5589	0	32648	32644	
5590	0	32708	32636	
5591	0	32684	32628	
5592	0	32744	32774	
5593	0	32740	32728	
5594	0	32670	32714	
5595	0	32788	32684	
5596	0	32768	32748	
5597	0	32830	32818	
5598	0	32816	32736	
5599	0	32862	32676	
5600	0	32836	32724	
5601	0	32772	32868	
5602	0	32804	32864	
5603	0	32860	32880	
5604	0	32754	32750	
5605	0	32848	32734	
5606	0	32852	32775	
5607	0	32874	32842	
5608	0	32948	32910	
5609	0	32960	32882	
5610	0	33016	32930	
5611	0	33156	32930	
5612	0	33044	32888	
5613	0	33062	33006	
5614	0	33050	33048	
5615	0	33024	32903	
5616	0	33006	32884	
5617	0	32988	32854	
5618	0	32874	32886	
5619	0	32900	32864	
5620	0	32960	32824	
5621	0	32842	32820	
5622	0	32786	32792	
5623	0	32802	32774	
5624	0	32756	32732	
5625	0	32720	32668	
5626	0	32696	32608	
5627	0	32662	32746	
5628	0	32728	32775	
5629	0	32692	32670	
5630	0	32666	32588	
5631	0	32744	32664	
5632	0	32790	32664	
5633	0	32784	32716	
5634	0	32804	32688	
5635	0	32768	32706	
5636	0	32728	32664	
5637	0	32780	32718	
5638	0	32770	32724	
5639	0	32816	32680	
5640	0	32792	32746	
5641	0	32792	32743	
5642	0	32832	32790	
5643	0	32836	32912	
5644	0	32776	32876	
5645	0	32832	32814	
5646	0	32784	32735	
5647	0	32744	32734	
5648	0	32856	32732	
5649	0	32772	32838	
5650	0	32806	32800	
5651	0	32778	32810	
5652	0	32826	32600	
5653	0	32794	32684	
5654	0	32776	32732	
5655	0	32800	32768	
5656	0	32814	32832	
5657	0	32804	32812	
5658	0	32796	32768	
5659	0	32828	32794	
5660	0	32840	32804	
5661	0	32792	32800	
5662	0	32856	32816	
5663	0	32816	32624	
5664	0	32788	32710	
5665	0	32848	32794	
5666	0	32832	32812	
5667	0	32784	32836	
5668	0	32782	32752	
5669	0	32800	32843	
5670	0	32786	32684	
5671	0	32752	32724	
5672	0	32848	32684	
5673	0	32776	32682	
5674	0	32806	32740	
5675	0	32752	32810	
5676	0	32854	32890	
5677	0	32848	32820	
5678	0	32840	32775	
5679	0	32816	32746	
5680	0	32880	32736	
5681	0	32772	32742	
5682	0	32872	32666	
5683	0	32872	32824	
5684	0	32772	32764	
5685	0	32778	32832	
5686	0	32788	32700	
5687	0	32808	32656	
5688	0	32834	32712	
5689	0	32822	32711	
5690	0	32780	32750	
5691	0	32812	32716	
5692	0	32792	32762	
5693	0	32842	32807	
5694	0	32808	32756	
5695	0	32832	32756	
5696	0	32804	32775	
5697	0	32792	32742	
5698	0	32868	32743	
5699	0	32852	32756	
5700	0	32804	32734	
5701	0	32798	32868	
5702	0	32834	32904	
5703	0	32758	32744	
5704	0	32834	32708	
5705	0	32830	32732	
5706	0	32804	32675	
5707	0	32808	32832	
5708	0	32856	32824	
5709	0	32788	32827	
5710	0	32848	32854	
5711	0	32792	32807	
5712	0	32752	32772	
5713	0	32788	32828	
5714	0	32760	32768	
5715	0	32800	32788	
5716	0	32744	32856	
5717	0	32794	32696	
5718	0	32856	32740	
5719	0	32872	32722	
5720	0	32812	32760	
5721	0	32824	32804	
5722	0	32888	32768	
5723	0	32846	32853	
5724	0	32802	32782	
5725	0	32840	32718	
5726	0	32796	32760	
5727	0	32780	32822	
5728	0	32776	32822	
5729	0	32848	32774	
5730	0	32820	32745	
5731	0	32840	32775	
5732	0	32800	32794	
5733	0	32846	32824	
5734	0	32812	32686	
5735	0	32756	32696	
5736	0	32868	32752	
5737	0	32852	32678	
5738	0	32798	32676	
5739	0	32828	32760	
5740	0	32768	32842	
5741	0	32794	32775	
5742	0	32754	32849	
5743	0	32730	32836	
5744	0	32868	32822	
5745	0	32844	32832	
5746	0	32788	32760	
5747	0	32804	32682	
5748	0	32844	32652	
5749	0	32848	32698	
5750	0	32820	32800	
5751	0	32806	32760	
5752	0	32808	32758	
5753	0	32824	32788	
5754	0	32770	32824	
5755	0	32832	32720	
5756	0	32752	32775	
5757	0	32772	32742	
5758	0	32828	32772	
5759	0	32812	32775	
5760	0	32868	32806	
5761	0	32798	32802	
5762	0	32824	32775	
5763	0	32848	32770	
5764	0	32808	32820	
5765	0	32848	32764	
5766	0	32842	32732	
5767	0	32740	32744	
5768	0	32782	32775	
5769	0	32840	32816	
5770	0	32820	32800	
5771	0	32766	32860	
5772	0	32788	32696	
5773	0	32860	32710	
5774	0	32836	32616	
5775	0	32720	32790	
5776	0	32834	32836	
5777	0	32784	32888	
5778	0	32892	32791	
5779	0	32828	32792	
5780	0	32816	32820	
5781	0	32788	32707	
5782	0	32828	32720	
5783	0	32812	32726	
5784	0	32788	32864	
5785	0	32852	32796	
5786	0	32772	32804	
5787	0	32780	32894	
5788	0	32804	32756	
5789	0	32792	32654	
5790	0	32768	32802	
5791	0	32808	32810	
5792	0	32796	32746	
5793	0	32816	32766	
5794	0	32820	32738	
5795	0	32824	32756	
5796	0	32828	32768	
5797	0	32804	32821	
5798	0	32824	32796	
5799	0	32810	32716	
5800	0	32802	32775	
5801	0	32736	32622	
5802	0	32788	32750	
5803	0	32796	32766	
5804	0	32848	32816	
5805	0	32800	32846	
5806	0	32840	32786	
5807	0	32816	32766	
5808	0	32832	32846	
5809	0	32834	32770	
5810	0	32852	32694	
5811	0	32768	32750	
5812	0	32768	32720	
5813	0	32752	32774	
5814	0	32836	32732	
5815	0	32816	32775	
5816	0	32804	32742	
5817	0	32778	32792	
5818	0	32788	32772	
5819	0	32812	32692	
5820	0	32790	32766	
5821	0	32804	32694	
5822	0	32828	32775	
5823	0	32836	32856	
5824	0	32830	32788	
5825	0	32776	32863	
5826	0	32802	32774	
5827	0	32736	32775	
5828	0	32788	32838	
5829	0	32798	32754	
5830	0	32846	32800	
5831	0	32762	32804	
5832	0	32866	32814	
5833	0	32804	32678	
5834	0	32864	32756	
5835	0	32796	32696	
5836	0	32870	32720	
5837	0	32836	32712	
5838	0	32820	32792	
5839	0	32836	32820	
5840	0	32870	32814	
5841	0	32864	32814	
5842	0	32828	32736	
5843	0	32820	32854	
5844	0	32808	32812	
5845	0	32860	32748	
5846	0	32842	32752	
5847	0	32832	32870	
5848	0	32820	32816	
5849	0	32852	32754	
5850	0	32860	32810	
5851	0	32790	32912	
5852	0	32760	32736	
5853	0	32794	32674	
5854	0	32824	32672	
5855	0	32836	32748	
5856	0	32796	32840	
5857	0	32801	32864	
5858	0	32918	32828	
5859	0	32838	32816	
5860	0	32708	32774	
5861	0	32816	32794	
5862	0	32884	32864	
5863	0	32798	32798	
5864	0	32820	32720	
5865	0	32816	32724	
5866	0	32830	32730	
5867	0	32836	32732	
5868	0	32820	32775	
5869	0	32778	32756	
5870	0	32800	32746	
5871	0	32800	32824	
5872	0	32772	32880	
5873	0	32832	32830	
5874	0	32812	32720	
5875	0	32836	32718	
5876	0	32844	32638	
5877	0	32840	32716	
5878	0	32840	32718	
5879	0	32816	32764	
5880	0	32768	32828	
5881	0	32766	32738	
5882	0	32798	32768	
5883	0	32776	32790	
5884	0	32776	32870	
5885	0	32836	32660	
5886	0	32808	32660	
5887	0	32806	32791	
5888	0	32842	32770	
5889	0	32816	32798	
5890	0	32824	32834	
5891	0	32788	32772	
5892	0	32806	32769	
5893	0	32800	32744	
5894	0	32844	32788	
5895	0	32828	32842	
5896	0	32800	32754	
5897	0	32868	32682	
5898	0	32836	32674	
5899	0	32840	32720	
5900	0	32804	32822	
5901	0	32804	32784	
5902	0	32808	32752	
5903	0	32754	32812	
5904	0	32830	32808	
5905	0	32804	32774	
5906	0	32804	32766	
5907	0	32756	32794	
5908	0	32832	32934	
5909	0	32752	32760	
5910	0	32828	32742	
5911	0	32796	32636	
5912	0	32772	32766	
5913	0	32815	32794	
5914	0	32808	32842	
5915	0	32788	32791	
5916	0	32792	32786	
5917	0	32764	32724	
5918	0	32902	32744	
5919	0	32836	32710	
5920	0	32838	32730	
5921	0	32774	32690	
5922	0	32828	32790	
5923	0	32832	32684	
5924	0	32820	32676	
5925	0	32840	32788	
5926	0	32848	32872	
5927	0	32814	32768	
5928	0	32788	32688	
5929	0	32846	32714	
5930	0	32800	32722	
5931	0	32760	32574	
5932	0	32848	32680	
5933	0	32748	32740	
5934	0	32814	32762	
5935	0	32712	32766	
5936	0	32842	32662	
5937	0	32916	32716	
5938	0	32860	32718	
5939	0	32930	32676	
5940	0	32804	32732	
5941	0	32786	32738	
5942	0	32798	32679	
5943	0	32812	32768	
5944	0	32750	32775	
5945	0	32748	32867	
5946	0	32810	32772	
5947	0	32800	32884	
5948	0	32816	32800	
5949	0	32804	32838	
5950	0	32776	32804	
5951	0	32794	32666	
5952	0	32794	32738	
5953	0	32716	32702	
5954	0	32866	32720	
5955	0	32884	32672	
5956	0	32832	32682	
5957	0	32804	32714	
5958	0	32842	32786	
5959	0	32828	32800	
5960	0	32770	32768	
5961	0	32868	32772	
5962	0	32812	32796	
5963	0	32800	32775	
5964	0	32864	32804	
5965	0	32856	32814	
5966	0	32848	32746	
5967	0	32792	32800	
5968	0	32798	32828	
5969	0	32812	32772	
5970	0	32834	32752	
5971	0	32772	32740	
5972	0	32812	32792	
5973	0	32788	32800	
5974	0	32804	32816	
5975	0	32784	32734	
5976	0	32800	32687	
5977	0	32792	32696	
5978	0	32792	32736	
5979	0	32856	32684	
5980	0	32756	32712	
5981	0	32812	32750	
5982	0	32800	32732	
5983	0	32788	32800	
5984	0	32810	32800	
5985	0	32820	32818	
5986	0	32816	32724	
5987	0	32860	32816	
5988	0	32764	32775	
5989	0	32817	32764	
5990	0	32844	32798	
5991	0	32896	32824	
5992	0	32772	32800	
5993	0	32770	32836	
5994	0	32796	32798	
5995	0	32776	32826	
5996	0	32776	32838	
5997	0	32804	32820	
5998	0	32846	32818	
5999	0	32788	32746	
6000	0	32800	32784	
6001	0	32780	32775	
6002	0	32736	32794	
6003	0	32796	32868	
6004	0	32864	32798	
6005	0	32900	32756	
6006	0	32858	32798	
6007	0	32758	32796	
6008	0	32732	32774	
6009	0	32786	32775	
6010	0	32738	32814	
6011	0	32798	32720	
6012	0	32832	32758	
