# OpenSignals Text File Format. Version 1
# {"00:07:80:8C:0A:39": {"position": 0, "device": "biosignalsplux", "device name": "00:07:80:8C:0A:39", "device connection": "BTH00:07:80:8C:0A:39", "sampling rate": 1000, "resolution": [16, 16], "firmware version": 776, "comments": "", "keywords": "", "mode": 0, "sync interval": 2, "date": "2023-3-19", "time": "11:18:29.264", "channels": [1, 2], "sensor": ["EMG", "EMG"], "label": ["CH1", "CH2"], "column": ["nSeq", "DI", "CH1", "CH2"], "special": [{"SpO2": [80, 40, 5, 4, 3, 3]}, {"SpO2": [80, 40, 5, 4, 3, 3]}, {"SpO2": [80, 40, 5, 4, 3, 3]}, {"SpO2": [80, 40, 5, 4, 3, 3]}, {"SpO2": [80, 40, 5, 4, 3, 3]}, {"SpO2": [80, 40, 5, 4, 3, 3]}, {"SpO2": [80, 40, 5, 4, 3, 3]}, {"SpO2": [80, 40, 5, 4, 3, 3]}], "digital IO": [0, 1], "sleeve color": ["gray", "yellow"], "convertedValues": 0}}
# EndOfHeader
0	0	32840	32725	
1	0	32816	32772	
2	0	32812	32664	
3	0	32860	32820	
4	0	32776	32775	
5	0	32864	32775	
6	0	32828	32699	
7	0	32860	32588	
8	0	32812	32722	
9	0	32812	32820	
10	0	32806	32830	
11	0	32824	32846	
12	0	32808	32730	
13	0	32764	32860	
14	0	32818	32798	
15	0	32782	32766	
16	0	32748	32692	
17	0	32748	32878	
18	0	32810	32775	
19	0	32810	32674	
20	0	32820	32775	
21	0	32760	32742	
22	0	32852	32798	
23	0	32858	32696	
24	0	32806	32759	
25	0	32780	32752	
26	0	32780	32856	
27	0	32778	32700	
28	0	32836	32888	
29	0	32808	32752	
30	0	32780	32810	
31	0	32840	32719	
32	0	32877	32831	
33	0	32878	32700	
34	0	32868	32828	
35	0	32768	32871	
36	0	32820	32766	
37	0	32834	32798	
38	0	32788	32775	
39	0	32812	32801	
40	0	32808	32752	
41	0	32804	32664	
42	0	32814	32768	
43	0	32884	32736	
44	0	32744	32774	
45	0	32864	32674	
46	0	32806	32824	
47	0	32758	32720	
48	0	32824	32862	
49	0	32844	32688	
50	0	32898	32775	
51	0	32826	32742	
52	0	32788	32660	
53	0	32820	32662	
54	0	32800	32771	
55	0	32776	32807	
56	0	32892	32694	
57	0	32800	32660	
58	0	32790	32823	
59	0	32834	32767	
60	0	32800	32769	
61	0	32836	32716	
62	0	32828	32836	
63	0	32836	32796	
64	0	32760	32720	
65	0	32836	32828	
66	0	32684	32791	
67	0	32856	32806	
68	0	32794	32760	
69	0	32832	32678	
70	0	32810	32815	
71	0	32844	32816	
72	0	32772	32810	
73	0	32866	32686	
74	0	32816	32720	
75	0	32864	32794	
76	0	32804	32860	
77	0	32856	32722	
78	0	32852	32626	
79	0	32804	32828	
80	0	32864	32692	
81	0	32804	32743	
82	0	32806	32708	
83	0	32816	32676	
84	0	32776	32812	
85	0	32844	32874	
86	0	32788	32716	
87	0	32820	32807	
88	0	32832	32764	
89	0	32824	32791	
90	0	32824	32775	
91	0	32792	32870	
92	0	32764	32728	
93	0	32856	32730	
94	0	32768	32814	
95	0	32800	32810	
96	0	32830	32748	
97	0	32780	32798	
98	0	32814	32623	
99	0	32812	32718	
100	0	32834	32809	
101	0	32790	32775	
102	0	32848	32647	
103	0	32788	32826	
104	0	32820	32756	
105	0	32804	32732	
106	0	32820	32615	
107	0	32778	32732	
108	0	32800	32903	
109	0	32816	32741	
110	0	32852	32792	
111	0	32820	32762	
112	0	32820	32832	
113	0	32794	32767	
114	0	32774	32772	
115	0	32746	32826	
116	0	32820	32678	
117	0	32808	32694	
118	0	32792	32808	
119	0	32818	32864	
120	0	32808	32716	
121	0	32796	32822	
122	0	32708	32754	
123	0	32832	32737	
124	0	32834	32748	
125	0	32764	32790	
126	0	32775	32710	
127	0	32812	32775	
128	0	32900	32784	
129	0	32816	32782	
130	0	32750	32740	
131	0	32868	32719	
132	0	32808	32764	
133	0	32848	32722	
134	0	32860	32775	
135	0	32841	32754	
136	0	32748	32810	
137	0	32852	32815	
138	0	32826	32736	
139	0	32884	32775	
140	0	32828	32690	
141	0	32784	32824	
142	0	32748	32820	
143	0	32796	32734	
144	0	32812	32674	
145	0	32780	32820	
146	0	32784	32758	
147	0	32872	32830	
148	0	32832	32700	
149	0	32824	32844	
150	0	32804	32757	
151	0	32826	32808	
152	0	32794	32670	
153	0	32824	32796	
154	0	32858	32809	
155	0	32784	32728	
156	0	32756	32690	
157	0	32816	32750	
158	0	32748	32774	
159	0	32802	32794	
160	0	32800	32807	
161	0	32794	32674	
162	0	32868	32727	
163	0	32812	32816	
164	0	32748	32772	
165	0	32776	32810	
166	0	32844	32736	
167	0	32752	32764	
168	0	32832	32769	
169	0	32828	32760	
170	0	32788	32924	
171	0	32836	32704	
172	0	32874	32718	
173	0	32832	32884	
174	0	32880	32849	
175	0	32882	32728	
176	0	32841	32744	
177	0	32800	32852	
178	0	32766	32752	
179	0	32792	32734	
180	0	32806	32816	
181	0	32766	32640	
182	0	32864	32804	
183	0	32856	32708	
184	0	32816	32775	
185	0	32772	32773	
186	0	32856	32804	
187	0	32874	32694	
188	0	32828	32726	
189	0	32792	32824	
190	0	32788	32760	
191	0	32788	32692	
192	0	32775	32807	
193	0	32776	32702	
194	0	32848	32806	
195	0	32810	32862	
196	0	32846	32810	
197	0	32782	32816	
198	0	32816	32736	
199	0	32808	32722	
200	0	32850	32872	
201	0	32747	32764	
202	0	32774	32820	
203	0	32764	32700	
204	0	32836	32686	
205	0	32762	32808	
206	0	32796	32744	
207	0	32800	32736	
208	0	32776	32692	
209	0	32790	32732	
210	0	32832	32834	
211	0	32802	32736	
212	0	32776	32890	
213	0	32734	32744	
214	0	32808	32868	
215	0	32820	32775	
216	0	32786	32655	
217	0	32798	32716	
218	0	32782	32818	
219	0	32748	32775	
220	0	32796	32698	
221	0	32866	32814	
222	0	32790	32826	
223	0	32760	32796	
224	0	32856	32826	
225	0	32756	32775	
226	0	32772	32623	
227	0	32836	32760	
228	0	32832	32870	
229	0	32816	32752	
230	0	32886	32788	
231	0	32832	32711	
232	0	32792	32784	
233	0	32840	32774	
234	0	32812	32738	
235	0	32864	32665	
236	0	32844	32746	
237	0	32842	32834	
238	0	32846	32682	
239	0	32780	32720	
240	0	32772	32694	
241	0	32824	32775	
242	0	32768	32772	
243	0	32844	32872	
244	0	32788	32775	
245	0	32836	32686	
246	0	32804	32759	
247	0	32788	32742	
248	0	32786	32745	
249	0	32800	32714	
250	0	32822	32710	
251	0	32832	32790	
252	0	32796	32794	
253	0	32798	32826	
254	0	32796	32702	
255	0	32828	32752	
256	0	32790	32872	
257	0	32856	32818	
258	0	32839	32788	
259	0	32748	32646	
260	0	32774	32710	
261	0	32900	32830	
262	0	32852	32798	
263	0	32812	32728	
264	0	32776	32810	
265	0	32824	32742	
266	0	32806	32720	
267	0	32870	32756	
268	0	32788	32786	
269	0	32764	32679	
270	0	32804	32796	
271	0	32786	32828	
272	0	32798	32732	
273	0	32817	32780	
274	0	32852	32684	
275	0	32774	32839	
276	0	32880	32814	
277	0	32909	32734	
278	0	32792	32679	
279	0	32802	32838	
280	0	32796	32760	
281	0	32776	32728	
282	0	32796	32678	
283	0	32780	32796	
284	0	32816	32690	
285	0	32762	32742	
286	0	32812	32762	
287	0	32818	32775	
288	0	32836	32710	
289	0	32792	32752	
290	0	32832	32860	
291	0	32856	32696	
292	0	32828	32876	
293	0	32798	32799	
294	0	32804	32742	
295	0	32832	32662	
296	0	32824	32774	
297	0	32772	32804	
298	0	32836	32699	
299	0	32840	32804	
300	0	32792	32802	
301	0	32840	32698	
302	0	32800	32676	
303	0	32762	32742	
304	0	32772	32742	
305	0	32798	32716	
306	0	32764	32788	
307	0	32772	32798	
308	0	32764	32720	
309	0	32788	32848	
310	0	32832	32822	
311	0	32856	32756	
312	0	32924	32654	
313	0	32808	32692	
314	0	32772	32766	
315	0	32778	32722	
316	0	32821	32839	
317	0	32804	32812	
318	0	32830	32696	
319	0	32812	32739	
320	0	32832	32744	
321	0	32838	32752	
322	0	32836	32732	
323	0	32848	32780	
324	0	32784	32770	
325	0	32840	32756	
326	0	32804	32647	
327	0	32856	32768	
328	0	32842	32808	
329	0	32804	32746	
330	0	32796	32832	
331	0	32788	32680	
332	0	32832	32748	
333	0	32798	32679	
334	0	32816	32798	
335	0	32804	32732	
336	0	32800	32850	
337	0	32836	32775	
338	0	32748	32798	
339	0	32736	32794	
340	0	32864	32839	
341	0	32794	32714	
342	0	32808	32740	
343	0	32840	32754	
344	0	32814	32827	
345	0	32780	32710	
346	0	32842	32810	
347	0	32832	32775	
348	0	32828	32775	
349	0	32870	32720	
350	0	32830	32903	
351	0	32736	32748	
352	0	32804	32718	
353	0	32812	32767	
354	0	32824	32708	
355	0	32796	32884	
356	0	32810	32710	
357	0	32786	32703	
358	0	32840	32754	
359	0	32754	32754	
360	0	32826	32806	
361	0	32816	32767	
362	0	32820	32850	
363	0	32808	32796	
364	0	32788	32830	
365	0	32808	32655	
366	0	32812	32831	
367	0	32808	32646	
368	0	32856	32692	
369	0	32828	32736	
370	0	32824	32734	
371	0	32784	32786	
372	0	32868	32652	
373	0	32824	32821	
374	0	32816	32750	
375	0	32820	32790	
376	0	32798	32632	
377	0	32760	32765	
378	0	32820	32804	
379	0	32808	32736	
380	0	32810	32692	
381	0	32834	32748	
382	0	32828	32794	
383	0	32794	32668	
384	0	32816	32816	
385	0	32884	32864	
386	0	32788	32790	
387	0	32836	32746	
388	0	32820	32785	
389	0	32804	32792	
390	0	32832	32814	
391	0	32886	32736	
392	0	32832	32860	
393	0	32792	32734	
394	0	32828	32798	
395	0	32824	32742	
396	0	32792	32700	
397	0	32804	32808	
398	0	32808	32736	
399	0	32804	32831	
400	0	32768	32716	
401	0	32788	32732	
402	0	32824	32822	
403	0	32848	32687	
404	0	32832	32732	
405	0	32800	32716	
406	0	32806	32772	
407	0	32852	32788	
408	0	32720	32736	
409	0	32792	32772	
410	0	32866	32884	
411	0	32814	32764	
412	0	32800	32788	
413	0	32804	32772	
414	0	32830	32754	
415	0	32816	32799	
416	0	32810	32712	
417	0	32840	32770	
418	0	32800	32708	
419	0	32775	32775	
420	0	32860	32682	
421	0	32790	32802	
422	0	32768	32744	
423	0	32786	32810	
424	0	32846	32711	
425	0	32784	32726	
426	0	32828	32764	
427	0	32836	32806	
428	0	32828	32732	
429	0	32792	32812	
430	0	32798	32833	
431	0	32778	32647	
432	0	32844	32735	
433	0	32904	32855	
434	0	32788	32764	
435	0	32836	32770	
436	0	32754	32690	
437	0	32812	32812	
438	0	32876	32775	
439	0	32788	32740	
440	0	32880	32705	
441	0	32878	32810	
442	0	32832	32810	
443	0	32778	32791	
444	0	32818	32742	
445	0	32804	32711	
446	0	32800	32740	
447	0	32824	32734	
448	0	32858	32770	
449	0	32820	32628	
450	0	32852	32836	
451	0	32860	32770	
452	0	32772	32774	
453	0	32792	32688	
454	0	32808	32628	
455	0	32784	32746	
456	0	32788	32873	
457	0	32828	32738	
458	0	32836	32804	
459	0	32788	32807	
460	0	32802	32724	
461	0	32836	32820	
462	0	32832	32752	
463	0	32756	32956	
464	0	32810	32718	
465	0	32761	32950	
466	0	32746	32730	
467	0	32782	32704	
468	0	32896	32758	
469	0	32796	32752	
470	0	32828	32822	
471	0	32890	32692	
472	0	32778	32774	
473	0	32784	32846	
474	0	32876	32632	
475	0	32824	32903	
476	0	32820	32800	
477	0	32760	32663	
478	0	32810	32816	
479	0	32869	32696	
480	0	32848	32686	
481	0	32768	32695	
482	0	32816	32744	
483	0	32864	32718	
484	0	32816	32759	
485	0	32740	32725	
486	0	32772	32914	
487	0	32822	32775	
488	0	32784	32807	
489	0	32836	32775	
490	0	32828	32728	
491	0	32825	32812	
492	0	32852	32804	
493	0	32824	32807	
494	0	32836	32812	
495	0	32844	32782	
496	0	32802	32672	
497	0	32804	32716	
498	0	32834	32758	
499	0	32774	32758	
500	0	32784	32775	
501	0	32788	32708	
502	0	32740	32790	
503	0	32816	32700	
504	0	32790	32810	
505	0	32792	32690	
506	0	32800	32658	
507	0	32830	32736	
508	0	32820	32758	
509	0	32848	32775	
510	0	32848	32814	
511	0	32816	32788	
512	0	32758	32690	
513	0	32822	32636	
514	0	32840	32730	
515	0	32838	32807	
516	0	32808	32872	
517	0	32824	32766	
518	0	32772	32806	
519	0	32840	32692	
520	0	32736	32711	
521	0	32772	32694	
522	0	32762	32760	
523	0	32816	32800	
524	0	32860	32839	
525	0	32814	32698	
526	0	32844	32872	
527	0	32778	32802	
528	0	32798	32796	
529	0	32880	32775	
530	0	32858	32775	
531	0	32726	32647	
532	0	32808	32798	
533	0	32776	32750	
534	0	32776	32785	
535	0	32752	32840	
536	0	32806	32676	
537	0	32788	32788	
538	0	32837	32724	
539	0	32820	32708	
540	0	32860	32844	
541	0	32804	32820	
542	0	32836	32657	
543	0	32816	32823	
544	0	32860	32844	
545	0	32784	32788	
546	0	32776	32802	
547	0	32810	32755	
548	0	32840	32807	
549	0	32862	32775	
550	0	32748	32716	
551	0	32830	32832	
552	0	32874	32788	
553	0	32840	32686	
554	0	32812	32772	
555	0	32796	32840	
556	0	32774	32648	
557	0	32744	32820	
558	0	32764	32721	
559	0	32804	32672	
560	0	32868	32770	
561	0	32848	32788	
562	0	32822	32772	
563	0	32758	32808	
564	0	32806	32828	
565	0	32860	32660	
566	0	32800	32752	
567	0	32776	32814	
568	0	32820	32748	
569	0	32910	32822	
570	0	32812	32804	
571	0	32844	32808	
572	0	32800	32922	
573	0	32820	32668	
574	0	32828	32756	
575	0	32828	32812	
576	0	32736	32744	
577	0	32784	32808	
578	0	32824	32694	
579	0	32856	32682	
580	0	32764	32741	
581	0	32748	32820	
582	0	32808	32706	
583	0	32789	32736	
584	0	32756	32686	
585	0	32796	32710	
586	0	32748	32775	
587	0	32844	32730	
588	0	32804	32790	
589	0	32784	32816	
590	0	32856	32756	
591	0	32828	32768	
592	0	32828	32756	
593	0	32844	32668	
594	0	32804	32775	
595	0	32840	32750	
596	0	32780	32766	
597	0	32788	32742	
598	0	32789	32756	
599	0	32818	32730	
600	0	32848	32858	
601	0	32744	32832	
602	0	32828	32690	
603	0	32876	32790	
604	0	32842	32805	
605	0	32804	32616	
606	0	32794	32816	
607	0	32788	32844	
608	0	32834	32791	
609	0	32760	32836	
610	0	32788	32808	
611	0	32820	32725	
612	0	32829	32820	
613	0	32826	32820	
614	0	32824	32714	
615	0	32880	32839	
616	0	32792	32716	
617	0	32828	32724	
618	0	32894	32792	
619	0	32798	32775	
620	0	32760	32672	
621	0	32800	32810	
622	0	32820	32664	
623	0	32798	32630	
624	0	32830	32868	
625	0	32780	32775	
626	0	32788	32664	
627	0	32778	32852	
628	0	32772	32820	
629	0	32836	32652	
630	0	32860	32850	
631	0	32864	32802	
632	0	32822	32764	
633	0	32820	32686	
634	0	32756	32740	
635	0	32796	32774	
636	0	32792	32708	
637	0	32806	32748	
638	0	32872	32748	
639	0	32758	32716	
640	0	32828	32789	
641	0	32828	32818	
642	0	32788	32756	
643	0	32832	32839	
644	0	32798	32764	
645	0	32872	32836	
646	0	32800	32682	
647	0	32820	32802	
648	0	32824	32836	
649	0	32836	32702	
650	0	32866	32728	
651	0	32866	32823	
652	0	32802	32775	
653	0	32862	32768	
654	0	32832	32764	
655	0	32792	32756	
656	0	32790	32838	
657	0	32812	32714	
658	0	32804	32810	
659	0	32836	32740	
660	0	32837	32710	
661	0	32808	32718	
662	0	32796	32742	
663	0	32820	32860	
664	0	32840	32724	
665	0	32788	32840	
666	0	32816	32724	
667	0	32804	32775	
668	0	32834	32710	
669	0	32812	32740	
670	0	32788	32792	
671	0	32806	32786	
672	0	32822	32740	
673	0	32848	32826	
674	0	32822	32670	
675	0	32828	32862	
676	0	32874	32774	
677	0	32784	32698	
678	0	32876	32775	
679	0	32826	32743	
680	0	32748	32755	
681	0	32780	32716	
682	0	32848	32784	
683	0	32780	32810	
684	0	32768	32756	
685	0	32786	32694	
686	0	32832	32831	
687	0	32736	32826	
688	0	32794	32696	
689	0	32842	32734	
690	0	32814	32854	
691	0	32800	32770	
692	0	32772	32670	
693	0	32800	32771	
694	0	32872	32820	
695	0	32868	32828	
696	0	32858	32686	
697	0	32800	32782	
698	0	32840	32764	
699	0	32775	32660	
700	0	32868	32844	
701	0	32792	32769	
702	0	32808	32828	
703	0	32836	32740	
704	0	32778	32754	
705	0	32802	32807	
706	0	32826	32788	
707	0	32768	32732	
708	0	32752	32682	
709	0	32784	32775	
710	0	32864	32820	
711	0	32850	32748	
712	0	32788	32792	
713	0	32796	32792	
714	0	32808	32696	
715	0	32780	32772	
716	0	32800	32800	
717	0	32764	32768	
718	0	32800	32810	
719	0	32836	32684	
720	0	32820	32818	
721	0	32736	32799	
722	0	32800	32855	
723	0	32844	32694	
724	0	32832	32810	
725	0	32824	32775	
726	0	32824	32863	
727	0	32824	32674	
728	0	32816	32752	
729	0	32837	32792	
730	0	32816	32775	
731	0	32776	32898	
732	0	32842	32728	
733	0	32820	32730	
734	0	32804	32815	
735	0	32800	32730	
736	0	32776	32836	
737	0	32864	32697	
738	0	32806	32692	
739	0	32782	32712	
740	0	32824	32775	
741	0	32798	32700	
742	0	32808	32750	
743	0	32732	32766	
744	0	32852	32820	
745	0	32788	32774	
746	0	32764	32688	
747	0	32880	32732	
748	0	32894	32694	
749	0	32844	32812	
750	0	32756	32775	
751	0	32796	32744	
752	0	32884	32722	
753	0	32824	32855	
754	0	32786	32775	
755	0	32730	32711	
756	0	32824	32828	
757	0	32782	32836	
758	0	32846	32724	
759	0	32852	32868	
760	0	32812	32684	
761	0	32868	32744	
762	0	32780	32698	
763	0	32776	32790	
764	0	32800	32750	
765	0	32816	32706	
766	0	32848	32834	
767	0	32842	32806	
768	0	32778	32796	
769	0	32774	32700	
770	0	32856	32766	
771	0	32838	32788	
772	0	32796	32655	
773	0	32748	32758	
774	0	32868	32716	
775	0	32806	32830	
776	0	32808	32716	
777	0	32792	32706	
778	0	32868	32748	
779	0	32802	32772	
780	0	32778	32707	
781	0	32864	32700	
782	0	32832	32729	
783	0	32775	32758	
784	0	32844	32796	
785	0	32752	32796	
786	0	32788	32726	
787	0	32824	32775	
788	0	32785	32767	
789	0	32775	32775	
790	0	32816	32716	
791	0	32780	32822	
792	0	32856	32799	
793	0	32842	32713	
794	0	32800	32754	
795	0	32782	32708	
796	0	32814	32890	
797	0	32775	32738	
798	0	32788	32670	
799	0	32828	32812	
800	0	32830	32734	
801	0	32804	32762	
802	0	32828	32731	
803	0	32824	32716	
804	0	32832	32820	
805	0	32824	32821	
806	0	32784	32686	
807	0	32812	32775	
808	0	32856	32758	
809	0	32808	32871	
810	0	32820	32804	
811	0	32812	32775	
812	0	32832	32772	
813	0	32858	32818	
814	0	32832	32718	
815	0	32838	32760	
816	0	32852	32830	
817	0	32784	32724	
818	0	32804	32804	
819	0	32774	32724	
820	0	32834	32775	
821	0	32794	32700	
822	0	32776	32798	
823	0	32730	32796	
824	0	32792	32700	
825	0	32774	32775	
826	0	32764	32704	
827	0	32780	32711	
828	0	32820	32850	
829	0	32804	32748	
830	0	32800	32792	
831	0	32814	32796	
832	0	32764	32747	
833	0	32790	32695	
834	0	32836	32720	
835	0	32740	32775	
836	0	32836	32800	
837	0	32870	32790	
838	0	32792	32730	
839	0	32828	32628	
840	0	32874	32810	
841	0	32904	32775	
842	0	32812	32738	
843	0	32912	32644	
844	0	32890	32668	
845	0	32824	32688	
846	0	32928	32592	
847	0	32892	32684	
848	0	32956	32476	
849	0	32898	32678	
850	0	32960	32618	
851	0	32982	32561	
852	0	32920	32548	
853	0	32980	32647	
854	0	33000	32660	
855	0	32932	32570	
856	0	32964	32738	
857	0	33000	32804	
858	0	32896	32634	
859	0	32878	32756	
860	0	32820	32746	
861	0	32824	32800	
862	0	32708	32805	
863	0	32604	32960	
864	0	32578	33026	
865	0	32490	33068	
866	0	32496	33031	
867	0	32404	33159	
868	0	32280	33360	
869	0	32180	33536	
870	0	32342	33409	
871	0	32513	33172	
872	0	32624	32971	
873	0	32740	32861	
874	0	32736	32862	
875	0	32780	32766	
876	0	32792	32742	
877	0	32826	32823	
878	0	32758	32798	
879	0	32808	32716	
880	0	32880	32565	
881	0	32830	32660	
882	0	32862	32644	
883	0	32948	32486	
884	0	32968	32486	
885	0	32888	32540	
886	0	32948	32510	
887	0	33012	32564	
888	0	32976	32666	
889	0	32984	32502	
890	0	32988	32654	
891	0	33000	32612	
892	0	32970	32618	
893	0	32892	32686	
894	0	32880	32738	
895	0	32920	32632	
896	0	32960	32764	
897	0	32846	32696	
898	0	32868	32630	
899	0	32866	32670	
900	0	32824	32683	
901	0	32840	32822	
902	0	32796	32714	
903	0	32772	32746	
904	0	32846	32652	
905	0	32848	32758	
906	0	32754	32868	
907	0	32792	32788	
908	0	32848	32852	
909	0	32792	32812	
910	0	32768	32708	
911	0	32810	32816	
912	0	32816	32756	
913	0	32892	32740	
914	0	32834	32816	
915	0	32738	32804	
916	0	32720	32676	
917	0	32812	32812	
918	0	32786	32795	
919	0	32862	32871	
920	0	32840	32808	
921	0	32795	32688	
922	0	32808	32900	
923	0	32844	32852	
924	0	32760	32856	
925	0	32846	32798	
926	0	32717	32688	
927	0	32788	32816	
928	0	32850	32775	
929	0	32804	32854	
930	0	32760	32796	
931	0	32828	32730	
932	0	32824	32871	
933	0	32820	32746	
934	0	32816	32724	
935	0	32796	32788	
936	0	32812	32850	
937	0	32888	32704	
938	0	32760	32807	
939	0	32746	32740	
940	0	32752	32711	
941	0	32804	32828	
942	0	32852	32743	
943	0	32782	32788	
944	0	32860	32654	
945	0	32828	32792	
946	0	32836	32814	
947	0	32752	32638	
948	0	32790	32864	
949	0	32774	32790	
950	0	32798	32769	
951	0	32826	32865	
952	0	32796	32774	
953	0	32804	32679	
954	0	32776	32705	
955	0	32778	32840	
956	0	32808	32711	
957	0	32836	32862	
958	0	32838	32740	
959	0	32900	32720	
960	0	32844	32802	
961	0	32822	32832	
962	0	32772	32766	
963	0	32804	32654	
964	0	32800	32690	
965	0	32816	32740	
966	0	32804	32846	
967	0	32798	32706	
968	0	32810	32830	
969	0	32804	32751	
970	0	32852	32764	
971	0	32814	32748	
972	0	32756	32756	
973	0	32782	32796	
974	0	32832	32820	
975	0	32772	32655	
976	0	32800	32698	
977	0	32780	32730	
978	0	32786	32716	
979	0	32842	32744	
980	0	32840	32719	
981	0	32740	32796	
982	0	32764	32788	
983	0	32804	32794	
984	0	32840	32734	
985	0	32852	32796	
986	0	32852	32763	
987	0	32862	32772	
988	0	32806	32734	
989	0	32810	32826	
990	0	32736	32748	
991	0	32876	32818	
992	0	32846	32838	
993	0	32832	32698	
994	0	32852	32775	
995	0	32902	32758	
996	0	32846	32766	
997	0	32808	32798	
998	0	32802	32804	
999	0	32836	32802	
1000	0	32828	32647	
1001	0	32752	32790	
1002	0	32812	32746	
1003	0	32868	32752	
1004	0	32824	32724	
1005	0	32842	32678	
1006	0	32828	32816	
1007	0	32792	32775	
1008	0	32844	32712	
1009	0	32820	32806	
1010	0	32734	32807	
1011	0	32781	32732	
1012	0	32796	32698	
1013	0	32798	32806	
1014	0	32870	32830	
1015	0	32820	32798	
1016	0	32784	32820	
1017	0	32762	32760	
1018	0	32788	32688	
1019	0	32780	32750	
1020	0	32836	32732	
1021	0	32832	32775	
1022	0	32794	32647	
1023	0	32806	32862	
1024	0	32778	32759	
1025	0	32780	32808	
1026	0	32800	32704	
1027	0	32800	32824	
1028	0	32824	32742	
1029	0	32776	32733	
1030	0	32797	32668	
1031	0	32786	32759	
1032	0	32820	32848	
1033	0	32808	32766	
1034	0	32793	32814	
1035	0	32812	32682	
1036	0	32830	32791	
1037	0	32848	32746	
1038	0	32836	32801	
1039	0	32868	32717	
1040	0	32816	32806	
1041	0	32820	32742	
1042	0	32760	32747	
1043	0	32830	32754	
1044	0	32784	32814	
1045	0	32772	32823	
1046	0	32836	32702	
1047	0	32848	32804	
1048	0	32816	32728	
1049	0	32772	32686	
1050	0	32772	32756	
1051	0	32870	32759	
1052	0	32802	32734	
1053	0	32830	32690	
1054	0	32760	32686	
1055	0	32842	32838	
1056	0	32772	32800	
1057	0	32806	32900	
1058	0	32806	32734	
1059	0	32852	32810	
1060	0	32824	32816	
1061	0	32804	32846	
1062	0	32780	32642	
1063	0	32824	32716	
1064	0	32823	32816	
1065	0	32836	32825	
1066	0	32824	32664	
1067	0	32820	32704	
1068	0	32802	32700	
1069	0	32748	32842	
1070	0	32816	32748	
1071	0	32768	32753	
1072	0	32762	32792	
1073	0	32774	32830	
1074	0	32774	32678	
1075	0	32784	32628	
1076	0	32834	32839	
1077	0	32832	32727	
1078	0	32792	32775	
1079	0	32836	32700	
1080	0	32832	32736	
1081	0	32882	32714	
1082	0	32816	32690	
1083	0	32858	32655	
1084	0	32804	32804	
1085	0	32782	32728	
1086	0	32826	32730	
1087	0	32868	32838	
1088	0	32816	32726	
1089	0	32808	32807	
1090	0	32784	32743	
1091	0	32816	32748	
1092	0	32808	32847	
1093	0	32796	32724	
1094	0	32788	32792	
1095	0	32836	32727	
1096	0	32840	32814	
1097	0	32868	32768	
1098	0	32814	32816	
1099	0	32782	32708	
1100	0	32832	32871	
1101	0	32840	32788	
1102	0	32784	32822	
1103	0	32794	32650	
1104	0	32850	32802	
1105	0	32836	32822	
1106	0	32808	32686	
1107	0	32782	32775	
1108	0	32848	32775	
1109	0	32796	32729	
1110	0	32808	32752	
1111	0	32832	32839	
1112	0	32868	32774	
1113	0	32832	32692	
1114	0	32798	32750	
1115	0	32792	32722	
1116	0	32772	32836	
1117	0	32868	32664	
1118	0	32812	32806	
1119	0	32778	32832	
1120	0	32758	32708	
1121	0	32818	32790	
1122	0	32788	32767	
1123	0	32848	32756	
1124	0	32890	32727	
1125	0	32800	32736	
1126	0	32848	32736	
1127	0	32796	32926	
1128	0	32752	32748	
1129	0	32834	32770	
1130	0	32796	32820	
1131	0	32752	32670	
1132	0	32872	32708	
1133	0	32788	32770	
1134	0	32844	32764	
1135	0	32746	32711	
1136	0	32784	32879	
1137	0	32750	32775	
1138	0	32816	32703	
1139	0	32792	32846	
1140	0	32750	32838	
1141	0	32844	32786	
1142	0	32768	32666	
1143	0	32776	32759	
1144	0	32866	32762	
1145	0	32796	32754	
1146	0	32742	32958	
1147	0	32864	32832	
1148	0	32732	32870	
1149	0	32860	32702	
1150	0	32774	32788	
1151	0	32756	32820	
1152	0	32762	32662	
1153	0	32800	32775	
1154	0	32812	32738	
1155	0	32804	32876	
1156	0	32844	32710	
1157	0	32836	32784	
1158	0	32834	32828	
1159	0	32812	32806	
1160	0	32808	32679	
1161	0	32802	32792	
1162	0	32820	32718	
1163	0	32828	32807	
1164	0	32858	32682	
1165	0	32804	32851	
1166	0	32826	32775	
1167	0	32852	32775	
1168	0	32774	32732	
1169	0	32818	32771	
1170	0	32816	32721	
1171	0	32824	32839	
1172	0	32842	32672	
1173	0	32814	32848	
1174	0	32800	32718	
1175	0	32792	32775	
1176	0	32808	32736	
1177	0	32776	32772	
1178	0	32792	32806	
1179	0	32868	32678	
1180	0	32768	32740	
1181	0	32850	32864	
1182	0	32874	32742	
1183	0	32828	32792	
1184	0	32826	32740	
1185	0	32732	32706	
1186	0	32804	32854	
1187	0	32790	32699	
1188	0	32816	32769	
1189	0	32800	32682	
1190	0	32776	32832	
1191	0	32876	32726	
1192	0	32788	32772	
1193	0	32764	32670	
1194	0	32800	32799	
1195	0	32854	32743	
1196	0	32874	32656	
1197	0	32890	32775	
1198	0	32904	32734	
1199	0	32782	32760	
1200	0	32812	32808	
1201	0	32804	32737	
1202	0	32804	32794	
1203	0	32776	32772	
1204	0	32784	32692	
1205	0	32844	32793	
1206	0	32752	32858	
1207	0	32848	32860	
1208	0	32708	32622	
1209	0	32844	32804	
1210	0	32852	32854	
1211	0	32876	32680	
1212	0	32828	32770	
1213	0	32764	32718	
1214	0	32810	32796	
1215	0	32848	32674	
1216	0	32824	32786	
1217	0	32824	32880	
1218	0	32778	32638	
1219	0	32816	32807	
1220	0	32828	32807	
1221	0	32728	32711	
1222	0	32810	32772	
1223	0	32860	32689	
1224	0	32848	32822	
1225	0	32848	32774	
1226	0	32836	32728	
1227	0	32874	32814	
1228	0	32896	32775	
1229	0	32808	32743	
1230	0	32760	32746	
1231	0	32788	32868	
1232	0	32780	32679	
1233	0	32812	32692	
1234	0	32884	32724	
1235	0	32762	32796	
1236	0	32802	32718	
1237	0	32844	32775	
1238	0	32780	32832	
1239	0	32772	32816	
1240	0	32804	32742	
1241	0	32776	32655	
1242	0	32818	32880	
1243	0	32814	32790	
1244	0	32910	32736	
1245	0	32808	32735	
1246	0	32836	32738	
1247	0	32832	32832	
1248	0	32814	32680	
1249	0	32856	32750	
1250	0	32800	32775	
1251	0	32824	32746	
1252	0	32848	32736	
1253	0	32804	32878	
1254	0	32772	32743	
1255	0	32756	32735	
1256	0	32778	32676	
1257	0	32780	32800	
1258	0	32820	32818	
1259	0	32856	32692	
1260	0	32828	32766	
1261	0	32848	32815	
1262	0	32866	32832	
1263	0	32786	32728	
1264	0	32810	32772	
1265	0	32848	32756	
1266	0	32832	32750	
1267	0	32820	32807	
1268	0	32798	32789	
1269	0	32788	32955	
1270	0	32904	32754	
1271	0	32772	32720	
1272	0	32822	32756	
1273	0	32802	32772	
1274	0	32828	32742	
1275	0	32840	32710	
1276	0	32836	32706	
1277	0	32828	32775	
1278	0	32844	32814	
1279	0	32798	32734	
1280	0	32792	32772	
1281	0	32788	32775	
1282	0	32776	32646	
1283	0	32778	32668	
1284	0	32824	32881	
1285	0	32748	32758	
1286	0	32832	32824	
1287	0	32864	32704	
1288	0	32772	32871	
1289	0	32796	32790	
1290	0	32740	32750	
1291	0	32812	32796	
1292	0	32788	32767	
1293	0	32792	32842	
1294	0	32884	32698	
1295	0	32860	32828	
1296	0	32788	32802	
1297	0	32736	32822	
1298	0	32816	32716	
1299	0	32836	32758	
1300	0	32816	32743	
1301	0	32842	32806	
1302	0	32814	32784	
1303	0	32756	32792	
1304	0	32868	32725	
1305	0	32840	32798	
1306	0	32836	32860	
1307	0	32774	32636	
1308	0	32852	32844	
1309	0	32884	32726	
1310	0	32840	32738	
1311	0	32828	32740	
1312	0	32804	32804	
1313	0	32764	32744	
1314	0	32780	32835	
1315	0	32808	32796	
1316	0	32836	32814	
1317	0	32800	32786	
1318	0	32804	32834	
1319	0	32796	32840	
1320	0	32892	32664	
1321	0	32780	32763	
1322	0	32768	32804	
1323	0	32732	32688	
1324	0	32824	32748	
1325	0	32788	32743	
1326	0	32808	32814	
1327	0	32820	32702	
1328	0	32852	32816	
1329	0	32848	32802	
1330	0	32876	32750	
1331	0	32828	32730	
1332	0	32800	32816	
1333	0	32764	32684	
1334	0	32752	32788	
1335	0	32812	32703	
1336	0	32904	32753	
1337	0	32824	32790	
1338	0	32828	32703	
1339	0	32782	32786	
1340	0	32804	32903	
1341	0	32820	32775	
1342	0	32860	32828	
1343	0	32740	32806	
1344	0	32744	32674	
1345	0	32754	32812	
1346	0	32848	32788	
1347	0	32748	32748	
1348	0	32840	32735	
1349	0	32790	32768	
1350	0	32836	32692	
1351	0	32794	32812	
1352	0	32792	32703	
1353	0	32836	32800	
1354	0	32840	32807	
1355	0	32756	32838	
1356	0	32804	32682	
1357	0	32772	32807	
1358	0	32796	32708	
1359	0	32744	32852	
1360	0	32810	32663	
1361	0	32800	32754	
1362	0	32792	32844	
1363	0	32836	32806	
1364	0	32810	32721	
1365	0	32842	32884	
1366	0	32768	32816	
1367	0	32780	32711	
1368	0	32856	32775	
1369	0	32836	32788	
1370	0	32752	32690	
1371	0	32764	32732	
1372	0	32804	32866	
1373	0	32776	32744	
1374	0	32826	32706	
1375	0	32823	32794	
1376	0	32806	32791	
1377	0	32780	32838	
1378	0	32780	32718	
1379	0	32772	32794	
1380	0	32826	32775	
1381	0	32810	32748	
1382	0	32856	32732	
1383	0	32774	32640	
1384	0	32825	32812	
1385	0	32786	32724	
1386	0	32804	32768	
1387	0	32852	32647	
1388	0	32856	32766	
1389	0	32774	32816	
1390	0	32814	32806	
1391	0	32864	32736	
1392	0	32816	32774	
1393	0	32828	32804	
1394	0	32840	32816	
1395	0	32892	32679	
1396	0	32886	32624	
1397	0	32856	32770	
1398	0	32810	32762	
1399	0	32740	32775	
1400	0	32808	32697	
1401	0	32766	32634	
1402	0	32780	32753	
1403	0	32796	32800	
1404	0	32800	32754	
1405	0	32732	32730	
1406	0	32772	32898	
1407	0	32912	32802	
1408	0	32850	32716	
1409	0	32808	32772	
1410	0	32834	32784	
1411	0	32770	32767	
1412	0	32808	32766	
1413	0	32911	32839	
1414	0	32806	32694	
1415	0	32864	32829	
1416	0	32734	32842	
1417	0	32828	32697	
1418	0	32834	32812	
1419	0	32816	32816	
1420	0	32792	32663	
1421	0	32788	32704	
1422	0	32752	32834	
1423	0	32810	32728	
1424	0	32808	32775	
1425	0	32788	32735	
1426	0	32780	32704	
1427	0	32816	32706	
1428	0	32808	32712	
1429	0	32804	32786	
1430	0	32816	32684	
1431	0	32896	32740	
1432	0	32812	32806	
1433	0	32788	32775	
1434	0	32780	32812	
1435	0	32824	32775	
1436	0	32864	32746	
1437	0	32832	32743	
1438	0	32796	32806	
1439	0	32806	32806	
1440	0	32796	32726	
1441	0	32792	32756	
1442	0	32754	32792	
1443	0	32916	32632	
1444	0	32870	32775	
1445	0	32772	32730	
1446	0	32796	32863	
1447	0	32804	32694	
1448	0	32814	32806	
1449	0	32860	32820	
1450	0	32868	32710	
1451	0	32844	32774	
1452	0	32840	32766	
1453	0	32842	32705	
1454	0	32800	32743	
1455	0	32798	32750	
1456	0	32816	32824	
1457	0	32808	32680	
1458	0	32796	32826	
1459	0	32810	32726	
1460	0	32796	32720	
1461	0	32816	32847	
1462	0	32800	32775	
1463	0	32808	32711	
1464	0	32744	32802	
1465	0	32748	32818	
1466	0	32820	32679	
1467	0	32824	32798	
1468	0	32828	32742	
1469	0	32808	32828	
1470	0	32874	32736	
1471	0	32788	32740	
1472	0	32821	32750	
1473	0	32768	32767	
1474	0	32872	32807	
1475	0	32852	32730	
1476	0	32798	32724	
1477	0	32836	32720	
1478	0	32824	32804	
1479	0	32764	32684	
1480	0	32748	32769	
1481	0	32818	32705	
1482	0	32866	32775	
1483	0	32808	32705	
1484	0	32736	32817	
1485	0	32764	32716	
1486	0	32820	32872	
1487	0	32800	32796	
1488	0	32824	32754	
1489	0	32800	32740	
1490	0	32836	32782	
1491	0	32788	32756	
1492	0	32784	32808	
1493	0	32828	32768	
1494	0	32838	32688	
1495	0	32784	32764	
1496	0	32760	32775	
1497	0	32876	32800	
1498	0	32798	32764	
1499	0	32800	32742	
1500	0	32832	32775	
1501	0	32792	32788	
1502	0	32816	32740	
1503	0	32836	32844	
1504	0	32792	32775	
1505	0	32832	32772	
1506	0	32794	32740	
1507	0	32808	32784	
1508	0	32784	32878	
1509	0	32800	32697	
1510	0	32788	32815	
1511	0	32794	32718	
1512	0	32721	32690	
1513	0	32856	32756	
1514	0	32724	32791	
1515	0	32776	32718	
1516	0	32794	32673	
1517	0	32792	32720	
1518	0	32848	32775	
1519	0	32806	32812	
1520	0	32836	32668	
1521	0	32876	32826	
1522	0	32836	32806	
1523	0	32794	32720	
1524	0	32834	32756	
1525	0	32816	32807	
1526	0	32824	32796	
1527	0	32812	32774	
1528	0	32876	32736	
1529	0	32844	32774	
1530	0	32858	32732	
1531	0	32802	32844	
1532	0	32785	32830	
1533	0	32872	32694	
1534	0	32776	32735	
1535	0	32838	32775	
1536	0	32736	32756	
1537	0	32744	32863	
1538	0	32814	32764	
1539	0	32840	32750	
1540	0	32788	32802	
1541	0	32848	32792	
1542	0	32800	32772	
1543	0	32760	32663	
1544	0	32808	32834	
1545	0	32876	32850	
1546	0	32864	32766	
1547	0	32822	32742	
1548	0	32824	32711	
1549	0	32804	32804	
1550	0	32868	32836	
1551	0	32812	32671	
1552	0	32808	32796	
1553	0	32752	32796	
1554	0	32816	32714	
1555	0	32800	32702	
1556	0	32848	32807	
1557	0	32816	32730	
1558	0	32838	32790	
1559	0	32780	32704	
1560	0	32804	32788	
1561	0	32828	32826	
1562	0	32816	32822	
1563	0	32776	32676	
1564	0	32806	32736	
1565	0	32852	32727	
1566	0	32740	32816	
1567	0	32844	32700	
1568	0	32818	32806	
1569	0	32844	32775	
1570	0	32856	32694	
1571	0	32756	32578	
1572	0	32740	32812	
1573	0	32810	32737	
1574	0	32896	32810	
1575	0	32798	32792	
1576	0	32840	32828	
1577	0	32808	32816	
1578	0	32780	32672	
1579	0	32770	32706	
1580	0	32822	32868	
1581	0	32790	32794	
1582	0	32762	32678	
1583	0	32806	32652	
1584	0	32716	32806	
1585	0	32828	32802	
1586	0	32796	32807	
1587	0	32814	32726	
1588	0	32846	32694	
1589	0	32844	32655	
1590	0	32856	32760	
1591	0	32842	32822	
1592	0	32744	32736	
1593	0	32820	32894	
1594	0	32810	32718	
1595	0	32840	32772	
1596	0	32784	32622	
1597	0	32806	32804	
1598	0	32793	32746	
1599	0	32832	32714	
1600	0	32834	32658	
1601	0	32780	32756	
1602	0	32824	32716	
1603	0	32816	32782	
1604	0	32816	32788	
1605	0	32794	32854	
1606	0	32836	32826	
1607	0	32769	32740	
1608	0	32768	32790	
1609	0	32840	32598	
1610	0	32800	32760	
1611	0	32864	32830	
1612	0	32812	32766	
1613	0	32792	32792	
1614	0	32864	32716	
1615	0	32828	32807	
1616	0	32808	32832	
1617	0	32796	32703	
1618	0	32812	32791	
1619	0	32806	32758	
1620	0	32828	32676	
1621	0	32826	32692	
1622	0	32744	32726	
1623	0	32786	32810	
1624	0	32764	32754	
1625	0	32732	32810	
1626	0	32756	32719	
1627	0	32792	32823	
1628	0	32840	32828	
1629	0	32796	32686	
1630	0	32822	32794	
1631	0	32892	32798	
1632	0	32784	32722	
1633	0	32780	32775	
1634	0	32824	32770	
1635	0	32848	32700	
1636	0	32900	32775	
1637	0	32820	32775	
1638	0	32764	32731	
1639	0	32884	32820	
1640	0	32746	32826	
1641	0	32774	32775	
1642	0	32748	32660	
1643	0	32800	32734	
1644	0	32896	32752	
1645	0	32828	32735	
1646	0	32772	32839	
1647	0	32840	32684	
1648	0	32774	32660	
1649	0	32750	32711	
1650	0	32764	32820	
1651	0	32824	32676	
1652	0	32824	32774	
1653	0	32809	32749	
1654	0	32768	32728	
1655	0	32900	32752	
1656	0	32860	32775	
1657	0	32844	32718	
1658	0	32800	32878	
1659	0	32786	32801	
1660	0	32782	32720	
1661	0	32824	32764	
1662	0	32772	32807	
1663	0	32849	32680	
1664	0	32800	32724	
1665	0	32760	32827	
1666	0	32756	32847	
1667	0	32792	32730	
1668	0	32808	32823	
1669	0	32856	32808	
1670	0	32880	32725	
1671	0	32776	32858	
1672	0	32812	32725	
1673	0	32812	32832	
1674	0	32814	32678	
1675	0	32872	32715	
1676	0	32852	32790	
1677	0	32816	32722	
1678	0	32920	32748	
1679	0	32748	32726	
1680	0	32736	32775	
1681	0	32848	32756	
1682	0	32860	32834	
1683	0	32832	32652	
1684	0	32840	32772	
1685	0	32784	32844	
1686	0	32792	32732	
1687	0	32784	32762	
1688	0	32822	32834	
1689	0	32790	32739	
1690	0	32756	32823	
1691	0	32832	32900	
1692	0	32852	32775	
1693	0	32800	32682	
1694	0	32824	32775	
1695	0	32840	32804	
1696	0	32904	32706	
1697	0	32752	32692	
1698	0	32808	32800	
1699	0	32768	32846	
1700	0	32788	32678	
1701	0	32798	32774	
1702	0	32830	32764	
1703	0	32788	32728	
1704	0	32792	32660	
1705	0	32804	32786	
1706	0	32804	32774	
1707	0	32796	32902	
1708	0	32824	32711	
1709	0	32836	32798	
1710	0	32836	32734	
1711	0	32812	32666	
1712	0	32839	32774	
1713	0	32832	32832	
1714	0	32882	32791	
1715	0	32800	32702	
1716	0	32772	32732	
1717	0	32792	32748	
1718	0	32796	32842	
1719	0	32824	32823	
1720	0	32800	32871	
1721	0	32836	32678	
1722	0	32752	32708	
1723	0	32792	32830	
1724	0	32776	32730	
1725	0	32720	32772	
1726	0	32864	32862	
1727	0	32846	32714	
1728	0	32808	32755	
1729	0	32832	32775	
1730	0	32804	32757	
1731	0	32740	32798	
1732	0	32728	32828	
1733	0	32832	32720	
1734	0	32840	32721	
1735	0	32806	32876	
1736	0	32896	32754	
1737	0	32836	32858	
1738	0	32768	32679	
1739	0	32792	32775	
1740	0	32784	32734	
1741	0	32772	32793	
1742	0	32808	32834	
1743	0	32828	32700	
1744	0	32778	32807	
1745	0	32808	32784	
1746	0	32744	32766	
1747	0	32890	32772	
1748	0	32842	32730	
1749	0	32760	32656	
1750	0	32724	32740	
1751	0	32754	32785	
1752	0	32748	32864	
1753	0	32832	32718	
1754	0	32784	32740	
1755	0	32778	32839	
1756	0	32784	32804	
1757	0	32784	32844	
1758	0	32840	32746	
1759	0	32816	32794	
1760	0	32816	32686	
1761	0	32860	32775	
1762	0	32768	32830	
1763	0	32804	32650	
1764	0	32856	32846	
1765	0	32832	32714	
1766	0	32852	32824	
1767	0	32928	32724	
1768	0	32860	32788	
1769	0	32888	32700	
1770	0	32866	32576	
1771	0	32892	32738	
1772	0	32924	32728	
1773	0	32920	32620	
1774	0	32896	32676	
1775	0	32864	32689	
1776	0	32892	32486	
1777	0	32960	32608	
1778	0	32978	32586	
1779	0	32952	32519	
1780	0	32942	32631	
1781	0	32956	32692	
1782	0	32928	32562	
1783	0	32908	32772	
1784	0	32860	32668	
1785	0	32904	32695	
1786	0	32848	32862	
1787	0	32842	32792	
1788	0	32848	32720	
1789	0	32748	32839	
1790	0	32664	32988	
1791	0	32660	32910	
1792	0	32586	33073	
1793	0	32496	33150	
1794	0	32456	33106	
1795	0	32340	33304	
1796	0	32236	33523	
1797	0	32320	33440	
1798	0	32416	33260	
1799	0	32648	33060	
1800	0	32664	32874	
1801	0	32674	32868	
1802	0	32784	32798	
1803	0	32684	32944	
1804	0	32740	32765	
1805	0	32740	32812	
1806	0	32758	32748	
1807	0	32912	32660	
1808	0	32942	32644	
1809	0	32984	32654	
1810	0	33024	32564	
1811	0	33008	32460	
1812	0	33012	32456	
1813	0	32960	32556	
1814	0	32952	32631	
1815	0	32976	32504	
1816	0	32932	32639	
1817	0	32984	32618	
1818	0	32898	32618	
1819	0	32888	32632	
1820	0	32894	32588	
1821	0	32874	32706	
1822	0	32836	32550	
1823	0	32864	32753	
1824	0	32932	32815	
1825	0	32872	32641	
1826	0	32830	32766	
1827	0	32844	32742	
1828	0	32853	32785	
1829	0	32868	32775	
1830	0	32838	32638	
1831	0	32816	32710	
1832	0	32792	32834	
1833	0	32814	32788	
1834	0	32772	32770	
1835	0	32766	32764	
1836	0	32756	32789	
1837	0	32800	32838	
1838	0	32800	32728	
1839	0	32804	32732	
1840	0	32794	32834	
1841	0	32796	32819	
1842	0	32736	32712	
1843	0	32848	32686	
1844	0	32812	32818	
1845	0	32801	32856	
1846	0	32788	32736	
1847	0	32850	32768	
1848	0	32800	32804	
1849	0	32782	32856	
1850	0	32830	32742	
1851	0	32788	32851	
1852	0	32856	32814	
1853	0	32856	32816	
1854	0	32844	32623	
1855	0	32780	32730	
1856	0	32792	32775	
1857	0	32798	32791	
1858	0	32804	32838	
1859	0	32812	32720	
1860	0	32848	32726	
1861	0	32838	32774	
1862	0	32810	32814	
1863	0	32836	32882	
1864	0	32874	32724	
1865	0	32852	32806	
1866	0	32830	32775	
1867	0	32744	32730	
1868	0	32784	32772	
1869	0	32724	32718	
1870	0	32725	32798	
1871	0	32776	32919	
1872	0	32800	32818	
1873	0	32818	32768	
1874	0	32854	32634	
1875	0	32809	32759	
1876	0	32852	32743	
1877	0	32836	32610	
1878	0	32780	32772	
1879	0	32792	32726	
1880	0	32884	32720	
1881	0	32804	32634	
1882	0	32792	32736	
1883	0	32847	32784	
1884	0	32786	32754	
1885	0	32816	32775	
1886	0	32824	32774	
1887	0	32844	32828	
1888	0	32824	32916	
1889	0	32802	32866	
1890	0	32792	32744	
1891	0	32832	32748	
1892	0	32788	32812	
1893	0	32820	32794	
1894	0	32816	32814	
1895	0	32752	32687	
1896	0	32820	32668	
1897	0	32884	32697	
1898	0	32820	32775	
1899	0	32808	32862	
1900	0	32768	32808	
1901	0	32804	32743	
1902	0	32860	32695	
1903	0	32808	32734	
1904	0	32786	32832	
1905	0	32832	32750	
1906	0	32845	32680	
1907	0	32824	32704	
1908	0	32766	32826	
1909	0	32826	32760	
1910	0	32768	32764	
1911	0	32756	32820	
1912	0	32744	32798	
1913	0	32836	32738	
1914	0	32810	32754	
1915	0	32760	32807	
1916	0	32812	32734	
1917	0	32812	32764	
1918	0	32856	32652	
1919	0	32872	32890	
1920	0	32840	32820	
1921	0	32760	32794	
1922	0	32812	32888	
1923	0	32832	32700	
1924	0	32752	32827	
1925	0	32844	32876	
1926	0	32796	32775	
1927	0	32824	32850	
1928	0	32812	32656	
1929	0	32804	32775	
1930	0	32848	32826	
1931	0	32762	32750	
1932	0	32876	32821	
1933	0	32804	32684	
1934	0	32775	32748	
1935	0	32772	32801	
1936	0	32816	32786	
1937	0	32802	32760	
1938	0	32822	32702	
1939	0	32794	32775	
1940	0	32792	32770	
1941	0	32802	32743	
1942	0	32824	32804	
1943	0	32817	32734	
1944	0	32788	32824	
1945	0	32762	32672	
1946	0	32846	32802	
1947	0	32788	32775	
1948	0	32752	32690	
1949	0	32780	32898	
1950	0	32832	32820	
1951	0	32858	32766	
1952	0	32840	32728	
1953	0	32828	32710	
1954	0	32824	32790	
1955	0	32808	32699	
1956	0	32828	32812	
1957	0	32858	32748	
1958	0	32844	32690	
1959	0	32842	32800	
1960	0	32874	32821	
1961	0	32808	32719	
1962	0	32774	32810	
1963	0	32788	32790	
1964	0	32804	32864	
1965	0	32852	32775	
1966	0	32804	32844	
1967	0	32834	32708	
1968	0	32868	32847	
1969	0	32824	32735	
1970	0	32798	32740	
1971	0	32776	32680	
1972	0	32796	32816	
1973	0	32784	32804	
1974	0	32782	32754	
1975	0	32868	32768	
1976	0	32852	32808	
1977	0	32792	32732	
1978	0	32796	32726	
1979	0	32804	32748	
1980	0	32832	32676	
1981	0	32792	32724	
1982	0	32842	32794	
1983	0	32792	32808	
1984	0	32776	32807	
1985	0	32814	32738	
1986	0	32836	32720	
1987	0	32852	32818	
1988	0	32760	32788	
1989	0	32810	32618	
1990	0	32768	32718	
1991	0	32868	32802	
1992	0	32854	32728	
1993	0	32869	32721	
1994	0	32814	32871	
1995	0	32808	32799	
1996	0	32864	32847	
1997	0	32764	32828	
1998	0	32784	32716	
1999	0	32842	32775	
2000	0	32776	32814	
2001	0	32864	32668	
2002	0	32764	32748	
2003	0	32900	32742	
2004	0	32792	32687	
2005	0	32800	32846	
2006	0	32810	32764	
2007	0	32784	32697	
2008	0	32796	32812	
2009	0	32808	32790	
2010	0	32788	32710	
2011	0	32784	32806	
2012	0	32770	32724	
2013	0	32800	32721	
2014	0	32852	32718	
2015	0	32892	32817	
2016	0	32776	32796	
2017	0	32732	32686	
2018	0	32788	32758	
2019	0	32800	32775	
2020	0	32866	32720	
2021	0	32740	32746	
2022	0	32792	32796	
2023	0	32788	32808	
2024	0	32792	32727	
2025	0	32812	32860	
2026	0	32840	32725	
2027	0	32834	32766	
2028	0	32858	32750	
2029	0	32820	32784	
2030	0	32728	32798	
2031	0	32754	32775	
2032	0	32800	32774	
2033	0	32842	32824	
2034	0	32944	32662	
2035	0	32834	32756	
2036	0	32822	32754	
2037	0	32816	32741	
2038	0	32840	32748	
2039	0	32840	32686	
2040	0	32780	32732	
2041	0	32748	32810	
2042	0	32888	32814	
2043	0	32846	32640	
2044	0	32789	32803	
2045	0	32868	32810	
2046	0	32796	32784	
2047	0	32794	32740	
2048	0	32792	32830	
2049	0	32788	32742	
2050	0	32768	32816	
2051	0	32732	32743	
2052	0	32740	32807	
2053	0	32820	32794	
2054	0	32828	32774	
2055	0	32860	32750	
2056	0	32756	32798	
2057	0	32840	32770	
2058	0	32848	32756	
2059	0	32800	32688	
2060	0	32884	32916	
2061	0	32834	32758	
2062	0	32828	32634	
2063	0	32800	32749	
2064	0	32864	32775	
2065	0	32828	32903	
2066	0	32790	32746	
2067	0	32752	32884	
2068	0	32802	32710	
2069	0	32840	32846	
2070	0	32772	32796	
2071	0	32820	32799	
2072	0	32816	32720	
2073	0	32810	32887	
2074	0	32753	32752	
2075	0	32820	32820	
2076	0	32740	32686	
2077	0	32760	32839	
2078	0	32842	32664	
2079	0	32876	32742	
2080	0	32788	32764	
2081	0	32828	32808	
2082	0	32870	32870	
2083	0	32832	32636	
2084	0	32746	32809	
2085	0	32762	32805	
2086	0	32772	32732	
2087	0	32776	32808	
2088	0	32834	32744	
2089	0	32832	32710	
2090	0	32802	32868	
2091	0	32816	32804	
2092	0	32788	32756	
2093	0	32764	32703	
2094	0	32786	32702	
2095	0	32820	32868	
2096	0	32784	32754	
2097	0	32776	32791	
2098	0	32820	32662	
2099	0	32792	32686	
2100	0	32840	32775	
2101	0	32841	32759	
2102	0	32854	32663	
2103	0	32828	32670	
2104	0	32796	32799	
2105	0	32828	32748	
2106	0	32788	32850	
2107	0	32760	32625	
2108	0	32768	32900	
2109	0	32812	32856	
2110	0	32738	32842	
2111	0	32816	32631	
2112	0	32768	32756	
2113	0	32808	32734	
2114	0	32852	32758	
2115	0	32910	32735	
2116	0	32864	32840	
2117	0	32858	32775	
2118	0	32820	32630	
2119	0	32816	32775	
2120	0	32806	32830	
2121	0	32796	32858	
2122	0	32884	32718	
2123	0	32842	32801	
2124	0	32848	32809	
2125	0	32884	32692	
2126	0	32724	32840	
2127	0	32812	32718	
2128	0	32804	32812	
2129	0	32760	32588	
2130	0	32814	32908	
2131	0	32886	32850	
2132	0	32760	32792	
2133	0	32782	32682	
2134	0	32817	32868	
2135	0	32796	32806	
2136	0	32800	32711	
2137	0	32815	32862	
2138	0	32896	32816	
2139	0	32784	32756	
2140	0	32840	32680	
2141	0	32844	32764	
2142	0	32798	32801	
2143	0	32760	32695	
2144	0	32772	32740	
2145	0	32800	32775	
2146	0	32804	32820	
2147	0	32860	32670	
2148	0	32804	32712	
2149	0	32820	32863	
2150	0	32861	32752	
2151	0	32796	32740	
2152	0	32792	32663	
2153	0	32848	32830	
2154	0	32804	32817	
2155	0	32752	32704	
2156	0	32780	32737	
2157	0	32768	32756	
2158	0	32816	32782	
2159	0	32784	32826	
2160	0	32820	32768	
2161	0	32836	32756	
2162	0	32790	32774	
2163	0	32846	32758	
2164	0	32838	32819	
2165	0	32758	32734	
2166	0	32792	32694	
2167	0	32840	32770	
2168	0	32820	32734	
2169	0	32828	32732	
2170	0	32840	32772	
2171	0	32780	32832	
2172	0	32774	32732	
2173	0	32832	32676	
2174	0	32808	32720	
2175	0	32800	32660	
2176	0	32728	32766	
2177	0	32800	32756	
2178	0	32848	32850	
2179	0	32772	32684	
2180	0	32784	32764	
2181	0	32828	32766	
2182	0	32780	32758	
2183	0	32740	32788	
2184	0	32826	32768	
2185	0	32838	32844	
2186	0	32816	32734	
2187	0	32808	32833	
2188	0	32816	32830	
2189	0	32816	32766	
2190	0	32868	32852	
2191	0	32788	32678	
2192	0	32816	32766	
2193	0	32852	32743	
2194	0	32810	32775	
2195	0	32816	32748	
2196	0	32776	32856	
2197	0	32794	32812	
2198	0	32789	32859	
2199	0	32872	32786	
2200	0	32821	32734	
2201	0	32824	32578	
2202	0	32780	32822	
2203	0	32782	32756	
2204	0	32816	32679	
2205	0	32796	32775	
2206	0	32844	32761	
2207	0	32724	32810	
2208	0	32810	32756	
2209	0	32870	32800	
2210	0	32824	32810	
2211	0	32818	32832	
2212	0	32816	32666	
2213	0	32804	32834	
2214	0	32798	32736	
2215	0	32800	32826	
2216	0	32766	32708	
2217	0	32812	32851	
2218	0	32814	32712	
2219	0	32760	32834	
2220	0	32860	32698	
2221	0	32828	32662	
2222	0	32808	32775	
2223	0	32860	32742	
2224	0	32856	32807	
2225	0	32780	32834	
2226	0	32856	32708	
2227	0	32796	32752	
2228	0	32844	32844	
2229	0	32814	32850	
2230	0	32832	32848	
2231	0	32832	32706	
2232	0	32852	32808	
2233	0	32746	32764	
2234	0	32756	32724	
2235	0	32785	32752	
2236	0	32844	32760	
2237	0	32744	32769	
2238	0	32850	32770	
2239	0	32808	32684	
2240	0	32834	32718	
2241	0	32774	32720	
2242	0	32758	32704	
2243	0	32820	32844	
2244	0	32876	32670	
2245	0	32814	32775	
2246	0	32852	32806	
2247	0	32792	32802	
2248	0	32852	32684	
2249	0	32794	32784	
2250	0	32868	32775	
2251	0	32818	32756	
2252	0	32832	32892	
2253	0	32792	32775	
2254	0	32756	32810	
2255	0	32840	32692	
2256	0	32816	32772	
2257	0	32794	32774	
2258	0	32816	32647	
2259	0	32784	32815	
2260	0	32836	32807	
2261	0	32808	32723	
2262	0	32846	32794	
2263	0	32772	32818	
2264	0	32724	32748	
2265	0	32784	32775	
2266	0	32836	32807	
2267	0	32828	32772	
2268	0	32792	32704	
2269	0	32849	32794	
2270	0	32856	32697	
2271	0	32820	32782	
2272	0	32812	32852	
2273	0	32816	32646	
2274	0	32798	32799	
2275	0	32814	32800	
2276	0	32820	32756	
2277	0	32794	32670	
2278	0	32800	32833	
2279	0	32776	32775	
2280	0	32832	32807	
2281	0	32834	32692	
2282	0	32780	32798	
2283	0	32832	32775	
2284	0	32802	32684	
2285	0	32794	32734	
2286	0	32838	32820	
2287	0	32768	32671	
2288	0	32808	32784	
2289	0	32788	32826	
2290	0	32804	32700	
2291	0	32812	32830	
2292	0	32828	32775	
2293	0	32840	32727	
2294	0	32828	32754	
2295	0	32800	32834	
2296	0	32798	32712	
2297	0	32832	32835	
2298	0	32820	32766	
2299	0	32784	32762	
2300	0	32840	32740	
2301	0	32838	32680	
2302	0	32818	32806	
2303	0	32792	32696	
2304	0	32834	32768	
2305	0	32834	32786	
2306	0	32820	32690	
2307	0	32844	32880	
2308	0	32756	32758	
2309	0	32788	32790	
2310	0	32844	32795	
2311	0	32768	32814	
2312	0	32842	32774	
2313	0	32850	32724	
2314	0	32804	32740	
2315	0	32788	32647	
2316	0	32780	32714	
2317	0	32778	32782	
2318	0	32732	32734	
2319	0	32916	32830	
2320	0	32792	32804	
2321	0	32810	32722	
2322	0	32884	32826	
2323	0	32868	32721	
2324	0	32876	32726	
2325	0	32780	32768	
2326	0	32792	32800	
2327	0	32812	32714	
2328	0	32814	32746	
2329	0	32856	32770	
2330	0	32792	32695	
2331	0	32844	32698	
2332	0	32834	32730	
2333	0	32872	32810	
2334	0	32794	32676	
2335	0	32798	32844	
2336	0	32844	32775	
2337	0	32792	32784	
2338	0	32826	32810	
2339	0	32780	32786	
2340	0	32834	32806	
2341	0	32812	32670	
2342	0	32838	32746	
2343	0	32816	32682	
2344	0	32772	32804	
2345	0	32808	32679	
2346	0	32734	32775	
2347	0	32780	32792	
2348	0	32740	32844	
2349	0	32832	32688	
2350	0	32900	32822	
2351	0	32910	32785	
2352	0	32804	32839	
2353	0	32752	32647	
2354	0	32774	32746	
2355	0	32800	32814	
2356	0	32782	32712	
2357	0	32864	32775	
2358	0	32804	32789	
2359	0	32808	32868	
2360	0	32752	32676	
2361	0	32772	32823	
2362	0	32816	32804	
2363	0	32864	32804	
2364	0	32812	32815	
2365	0	32789	32664	
2366	0	32796	32926	
2367	0	32792	32810	
2368	0	32832	32766	
2369	0	32800	32766	
2370	0	32846	32723	
2371	0	32852	32687	
2372	0	32860	32676	
2373	0	32808	32736	
2374	0	32800	32742	
2375	0	32840	32746	
2376	0	32856	32766	
2377	0	32820	32806	
2378	0	32812	32808	
2379	0	32784	32683	
2380	0	32746	32748	
2381	0	32832	32748	
2382	0	32802	32791	
2383	0	32806	32756	
2384	0	32868	32836	
2385	0	32820	32770	
2386	0	32878	32784	
2387	0	32782	32726	
2388	0	32836	32758	
2389	0	32746	32750	
2390	0	32788	32666	
2391	0	32770	32839	
2392	0	32806	32786	
2393	0	32826	32672	
2394	0	32824	32700	
2395	0	32874	32772	
2396	0	32738	32775	
2397	0	32816	32700	
2398	0	32814	32692	
2399	0	32768	32775	
2400	0	32804	32702	
2401	0	32772	32775	
2402	0	32900	32762	
2403	0	32824	32842	
2404	0	32814	32712	
2405	0	32792	32762	
2406	0	32808	32810	
2407	0	32870	32694	
2408	0	32838	32850	
2409	0	32836	32743	
2410	0	32854	32810	
2411	0	32840	32924	
2412	0	32852	32775	
2413	0	32836	32740	
2414	0	32764	32775	
2415	0	32812	32760	
2416	0	32802	32712	
2417	0	32776	32696	
2418	0	32870	32758	
2419	0	32800	32636	
2420	0	32852	32752	
2421	0	32828	32744	
2422	0	32836	32794	
2423	0	32768	32746	
2424	0	32762	32772	
2425	0	32748	32730	
2426	0	32816	32732	
2427	0	32844	32764	
2428	0	32810	32710	
2429	0	32764	32788	
2430	0	32814	32884	
2431	0	32812	32700	
2432	0	32848	32824	
2433	0	32844	32830	
2434	0	32864	32654	
2435	0	32776	32844	
2436	0	32774	32802	
2437	0	32760	32772	
2438	0	32788	32775	
2439	0	32824	32791	
2440	0	32826	32711	
2441	0	32774	32854	
2442	0	32832	32784	
2443	0	32780	32796	
2444	0	32849	32662	
2445	0	32854	32700	
2446	0	32814	32756	
2447	0	32836	32750	
2448	0	32772	32766	
2449	0	32800	32852	
2450	0	32772	32737	
2451	0	32808	32711	
2452	0	32820	32768	
2453	0	32840	32722	
2454	0	32802	32830	
2455	0	32784	32823	
2456	0	32836	32623	
2457	0	32810	32900	
2458	0	32788	32775	
2459	0	32800	32682	
2460	0	32840	32868	
2461	0	32804	32828	
2462	0	32776	32746	
2463	0	32764	32775	
2464	0	32854	32676	
2465	0	32832	32808	
2466	0	32868	32790	
2467	0	32828	32716	
2468	0	32816	32838	
2469	0	32808	32775	
2470	0	32844	32678	
2471	0	32780	32738	
2472	0	32774	32806	
2473	0	32828	32692	
2474	0	32756	32722	
2475	0	32800	32807	
2476	0	32808	32775	
2477	0	32822	32733	
2478	0	32790	32812	
2479	0	32834	32796	
2480	0	32764	32744	
2481	0	32868	32886	
2482	0	32784	32775	
2483	0	32844	32722	
2484	0	32816	32807	
2485	0	32818	32810	
2486	0	32844	32650	
2487	0	32864	32792	
2488	0	32822	32810	
2489	0	32834	32750	
2490	0	32828	32810	
2491	0	32800	32828	
2492	0	32824	32684	
2493	0	32848	32754	
2494	0	32788	32794	
2495	0	32790	32679	
2496	0	32772	32827	
2497	0	32772	32798	
2498	0	32834	32766	
2499	0	32788	32812	
2500	0	32792	32790	
2501	0	32852	32724	
2502	0	32816	32728	
2503	0	32850	32807	
2504	0	32792	32816	
2505	0	32764	32706	
2506	0	32849	32748	
2507	0	32768	32836	
2508	0	32828	32719	
2509	0	32896	32902	
2510	0	32840	32826	
2511	0	32804	32721	
2512	0	32798	32838	
2513	0	32800	32688	
2514	0	32784	32756	
2515	0	32818	32660	
2516	0	32780	32768	
2517	0	32844	32832	
2518	0	32788	32756	
2519	0	32840	32759	
2520	0	32820	32770	
2521	0	32816	32746	
2522	0	32804	32767	
2523	0	32780	32754	
2524	0	32820	32762	
2525	0	32830	32775	
2526	0	32860	32762	
2527	0	32792	32836	
2528	0	32816	32802	
2529	0	32756	32644	
2530	0	32808	32794	
2531	0	32772	32860	
2532	0	32788	32752	
2533	0	32775	32903	
2534	0	32772	32768	
2535	0	32836	32692	
2536	0	32762	32775	
2537	0	32796	32740	
2538	0	32808	32744	
2539	0	32860	32740	
2540	0	32848	32722	
2541	0	32704	32775	
2542	0	32724	32732	
2543	0	32810	32730	
2544	0	32744	32750	
2545	0	32862	32816	
2546	0	32922	32714	
2547	0	32800	32843	
2548	0	32768	32802	
2549	0	32836	32684	
2550	0	32840	32814	
2551	0	32872	32842	
2552	0	32808	32732	
2553	0	32788	32852	
2554	0	32848	32736	
2555	0	32834	32764	
2556	0	32832	32718	
2557	0	32834	32775	
2558	0	32817	32840	
2559	0	32894	32689	
2560	0	32828	32882	
2561	0	32780	32729	
2562	0	32784	32736	
2563	0	32764	32775	
2564	0	32838	32775	
2565	0	32808	32775	
2566	0	32866	32722	
2567	0	32816	32820	
2568	0	32790	32828	
2569	0	32736	32774	
2570	0	32780	32814	
2571	0	32804	32739	
2572	0	32816	32761	
2573	0	32870	32696	
2574	0	32792	32788	
2575	0	32812	32775	
2576	0	32760	32761	
2577	0	32816	32775	
2578	0	32828	32812	
2579	0	32848	32696	
2580	0	32840	32804	
2581	0	32792	32792	
2582	0	32798	32690	
2583	0	32726	32842	
2584	0	32806	32759	
2585	0	32800	32794	
2586	0	32812	32660	
2587	0	32836	32719	
2588	0	32774	32714	
2589	0	32844	32814	
2590	0	32860	32752	
2591	0	32806	32738	
2592	0	32876	32824	
2593	0	32836	32826	
2594	0	32810	32678	
2595	0	32776	32812	
2596	0	32850	32734	
2597	0	32778	32703	
2598	0	32788	32760	
2599	0	32716	32799	
2600	0	32860	32752	
2601	0	32808	32759	
2602	0	32810	32674	
2603	0	32812	32852	
2604	0	32796	32775	
2605	0	32836	32737	
2606	0	32784	32812	
2607	0	32872	32812	
2608	0	32820	32870	
2609	0	32872	32704	
2610	0	32812	32810	
2611	0	32824	32775	
2612	0	32758	32785	
2613	0	32828	32638	
2614	0	32822	32775	
2615	0	32786	32774	
2616	0	32754	32654	
2617	0	32848	32716	
2618	0	32782	32750	
2619	0	32850	32798	
2620	0	32780	32854	
2621	0	32798	32742	
2622	0	32780	32720	
2623	0	32824	32775	
2624	0	32780	32844	
2625	0	32800	32852	
2626	0	32794	32858	
2627	0	32848	32687	
2628	0	32808	32793	
2629	0	32800	32714	
2630	0	32854	32775	
2631	0	32768	32664	
2632	0	32780	32768	
2633	0	32852	32874	
2634	0	32806	32647	
2635	0	32804	32762	
2636	0	32792	32862	
2637	0	32792	32775	
2638	0	32800	32720	
2639	0	32828	32849	
2640	0	32750	32762	
2641	0	32860	32842	
2642	0	32860	32667	
2643	0	32808	32800	
2644	0	32788	32824	
2645	0	32788	32772	
2646	0	32814	32708	
2647	0	32868	32775	
2648	0	32772	32802	
2649	0	32834	32652	
2650	0	32900	32835	
2651	0	32800	32902	
2652	0	32866	32775	
2653	0	32806	32740	
2654	0	32796	32678	
2655	0	32784	32830	
2656	0	32788	32750	
2657	0	32832	32816	
2658	0	32872	32647	
2659	0	32796	32696	
2660	0	32780	32775	
2661	0	32764	32868	
2662	0	32776	32676	
2663	0	32896	32852	
2664	0	32766	32813	
2665	0	32834	32752	
2666	0	32800	32742	
2667	0	32866	32810	
2668	0	32864	32775	
2669	0	32764	32665	
2670	0	32736	32702	
2671	0	32764	32832	
2672	0	32852	32816	
2673	0	32808	32722	
2674	0	32792	32719	
2675	0	32716	32914	
2676	0	32878	32783	
2677	0	32860	32744	
2678	0	32760	32734	
2679	0	32806	32824	
2680	0	32788	32788	
2681	0	32824	32689	
2682	0	32794	32756	
2683	0	32836	32737	
2684	0	32808	32645	
2685	0	32820	32643	
2686	0	32826	32862	
2687	0	32840	32790	
2688	0	32802	32704	
2689	0	32782	32700	
2690	0	32852	32820	
2691	0	32786	32857	
2692	0	32782	32794	
2693	0	32776	32634	
2694	0	32788	32754	
2695	0	32792	32796	
2696	0	32802	32720	
2697	0	32794	32817	
2698	0	32744	32732	
2699	0	32784	32896	
2700	0	32792	32746	
2701	0	32818	32712	
2702	0	32808	32742	
2703	0	32770	32775	
2704	0	32798	32804	
2705	0	32868	32740	
2706	0	32840	32775	
2707	0	32892	32906	
2708	0	32844	32750	
2709	0	32792	32828	
2710	0	32876	32688	
2711	0	32848	32784	
2712	0	32808	32743	
2713	0	32756	32748	
2714	0	32780	32727	
2715	0	32844	32775	
2716	0	32832	32791	
2717	0	32800	32804	
2718	0	32760	32704	
2719	0	32836	32775	
2720	0	32724	32794	
2721	0	32848	32746	
2722	0	32820	32673	
2723	0	32800	32794	
2724	0	32802	32807	
2725	0	32824	32840	
2726	0	32874	32762	
2727	0	32832	32726	
2728	0	32752	32753	
2729	0	32802	32800	
2730	0	32806	32808	
2731	0	32860	32764	
2732	0	32844	32816	
2733	0	32825	32854	
2734	0	32792	32746	
2735	0	32800	32798	
2736	0	32816	32754	
2737	0	32824	32678	
2738	0	32800	32816	
2739	0	32852	32703	
2740	0	32850	32775	
2741	0	32780	32772	
2742	0	32808	32812	
2743	0	32786	32886	
2744	0	32792	32708	
2745	0	32824	32736	
2746	0	32824	32812	
2747	0	32802	32738	
2748	0	32776	32854	
2749	0	32834	32692	
2750	0	32786	32796	
2751	0	32864	32751	
2752	0	32848	32804	
2753	0	32810	32788	
2754	0	32806	32706	
2755	0	32892	32775	
2756	0	32760	32738	
2757	0	32846	32800	
2758	0	32738	32760	
2759	0	32810	32756	
2760	0	32736	32799	
2761	0	32832	32672	
2762	0	32788	32726	
2763	0	32784	32804	
2764	0	32802	32688	
2765	0	32812	32808	
2766	0	32852	32775	
2767	0	32864	32704	
2768	0	32796	32810	
2769	0	32804	32774	
2770	0	32812	32742	
2771	0	32844	32732	
2772	0	32832	32775	
2773	0	32806	32744	
2774	0	32834	32600	
2775	0	32852	32738	
2776	0	32884	32788	
2777	0	32884	32716	
2778	0	32872	32734	
2779	0	32844	32719	
2780	0	32894	32640	
2781	0	32922	32742	
2782	0	32860	32736	
2783	0	32904	32696	
2784	0	32894	32692	
2785	0	32902	32644	
2786	0	32960	32614	
2787	0	32964	32596	
2788	0	32970	32598	
2789	0	32928	32631	
2790	0	32992	32668	
2791	0	32940	32514	
2792	0	32874	32634	
2793	0	32964	32696	
2794	0	32888	32728	
2795	0	32888	32730	
2796	0	32884	32728	
2797	0	32862	32754	
2798	0	32790	32903	
2799	0	32656	32884	
2800	0	32616	32844	
2801	0	32498	33068	
2802	0	32532	33101	
2803	0	32492	33031	
2804	0	32396	33278	
2805	0	32252	33412	
2806	0	32256	33461	
2807	0	32382	33280	
2808	0	32564	33138	
2809	0	32642	32948	
2810	0	32764	32927	
2811	0	32738	32775	
2812	0	32778	32913	
2813	0	32760	32808	
2814	0	32794	32731	
2815	0	32832	32821	
2816	0	32848	32714	
2817	0	32848	32594	
2818	0	32816	32582	
2819	0	32948	32560	
2820	0	32900	32454	
2821	0	33028	32550	
2822	0	32904	32608	
2823	0	33018	32500	
2824	0	32954	32602	
2825	0	32944	32575	
2826	0	32936	32692	
2827	0	32984	32551	
2828	0	32928	32775	
2829	0	32888	32708	
2830	0	32866	32576	
2831	0	32892	32686	
2832	0	32888	32644	
2833	0	32880	32704	
2834	0	32896	32738	
2835	0	32816	32766	
2836	0	32892	32696	
2837	0	32852	32657	
2838	0	32816	32754	
2839	0	32844	32688	
2840	0	32726	32770	
2841	0	32884	32692	
2842	0	32806	32806	
2843	0	32796	32810	
2844	0	32796	32700	
2845	0	32794	32823	
2846	0	32780	32847	
2847	0	32744	32845	
2848	0	32784	32718	
2849	0	32808	32794	
2850	0	32786	32830	
2851	0	32810	32719	
2852	0	32785	32864	
2853	0	32830	32884	
2854	0	32792	32708	
2855	0	32832	32854	
2856	0	32754	32775	
2857	0	32772	32720	
2858	0	32768	32798	
2859	0	32828	32802	
2860	0	32868	32784	
2861	0	32824	32722	
2862	0	32796	32854	
2863	0	32834	32712	
2864	0	32864	32774	
2865	0	32816	32686	
2866	0	32760	32754	
2867	0	32844	32812	
2868	0	32824	32766	
2869	0	32790	32828	
2870	0	32796	32678	
2871	0	32786	32760	
2872	0	32792	32810	
2873	0	32828	32696	
2874	0	32868	32766	
2875	0	32842	32711	
2876	0	32836	32839	
2877	0	32832	32750	
2878	0	32810	32764	
2879	0	32836	32788	
2880	0	32796	32830	
2881	0	32788	32752	
2882	0	32816	32775	
2883	0	32840	32754	
2884	0	32728	32823	
2885	0	32816	32832	
2886	0	32820	32750	
2887	0	32846	32775	
2888	0	32854	32751	
2889	0	32822	32736	
2890	0	32824	32788	
2891	0	32806	32768	
2892	0	32816	32807	
2893	0	32860	32724	
2894	0	32848	32816	
2895	0	32784	32810	
2896	0	32768	32791	
2897	0	32744	32647	
2898	0	32792	32823	
2899	0	32838	32822	
2900	0	32758	32708	
2901	0	32832	32813	
2902	0	32805	32802	
2903	0	32824	32742	
2904	0	32896	32744	
2905	0	32808	32834	
2906	0	32864	32775	
2907	0	32844	32740	
2908	0	32772	32694	
2909	0	32744	32860	
2910	0	32826	32810	
2911	0	32794	32676	
2912	0	32792	32752	
2913	0	32804	32728	
2914	0	32880	32816	
2915	0	32800	32679	
2916	0	32792	32774	
2917	0	32854	32892	
2918	0	32764	32774	
2919	0	32784	32686	
2920	0	32868	32738	
2921	0	32780	32810	
2922	0	32796	32796	
2923	0	32744	32680	
2924	0	32828	32696	
2925	0	32784	32732	
2926	0	32834	32756	
2927	0	32806	32688	
2928	0	32884	32750	
2929	0	32848	32829	
2930	0	32828	32838	
2931	0	32878	32698	
2932	0	32818	32742	
2933	0	32826	32720	
2934	0	32788	32796	
2935	0	32828	32698	
2936	0	32832	32770	
2937	0	32858	32738	
2938	0	32834	32722	
2939	0	32732	32789	
2940	0	32828	32772	
2941	0	32820	32698	
2942	0	32820	32746	
2943	0	32860	32772	
2944	0	32756	32801	
2945	0	32826	32704	
2946	0	32884	32696	
2947	0	32858	32775	
2948	0	32876	32792	
2949	0	32778	32722	
2950	0	32774	32775	
2951	0	32884	32896	
2952	0	32836	32710	
2953	0	32862	32636	
2954	0	32816	32808	
2955	0	32764	32728	
2956	0	32756	32678	
2957	0	32824	32848	
2958	0	32818	32796	
2959	0	32828	32740	
2960	0	32784	32696	
2961	0	32768	32847	
2962	0	32818	32752	
2963	0	32760	32696	
2964	0	32780	32807	
2965	0	32816	32775	
2966	0	32784	32826	
2967	0	32880	32743	
2968	0	32804	32704	
2969	0	32842	32826	
2970	0	32814	32752	
2971	0	32842	32766	
2972	0	32824	32791	
2973	0	32804	32644	
2974	0	32884	32746	
2975	0	32798	32748	
2976	0	32868	32838	
2977	0	32836	32798	
2978	0	32804	32694	
2979	0	32816	32854	
2980	0	32796	32775	
2981	0	32804	32860	
2982	0	32760	32715	
2983	0	32808	32798	
2984	0	32780	32790	
2985	0	32832	32756	
2986	0	32802	32684	
2987	0	32874	32606	
2988	0	32800	32786	
2989	0	32866	32816	
2990	0	32758	32679	
2991	0	32776	32806	
2992	0	32818	32775	
2993	0	32910	32832	
2994	0	32778	32638	
2995	0	32800	32879	
2996	0	32820	32822	
2997	0	32848	32847	
2998	0	32800	32692	
2999	0	32792	32786	
3000	0	32786	32700	
3001	0	32830	32775	
3002	0	32748	32622	
3003	0	32840	32796	
3004	0	32764	32775	
3005	0	32822	32796	
3006	0	32836	32726	
3007	0	32768	32763	
3008	0	32792	32855	
3009	0	32800	32830	
3010	0	32806	32816	
3011	0	32768	32679	
3012	0	32856	32775	
3013	0	32780	32821	
3014	0	32792	32798	
3015	0	32892	32678	
3016	0	32864	32796	
3017	0	32784	32732	
3018	0	32772	32790	
3019	0	32848	32790	
3020	0	32874	32804	
3021	0	32810	32716	
3022	0	32836	32720	
3023	0	32821	32852	
3024	0	32820	32774	
3025	0	32850	32736	
3026	0	32846	32726	
3027	0	32892	32742	
3028	0	32834	32784	
3029	0	32790	32702	
3030	0	32816	32664	
3031	0	32804	32878	
3032	0	32793	32760	
3033	0	32794	32774	
3034	0	32776	32616	
3035	0	32796	32775	
3036	0	32818	32720	
3037	0	32756	32842	
3038	0	32818	32727	
3039	0	32778	32743	
3040	0	32800	32798	
3041	0	32802	32799	
3042	0	32828	32772	
3043	0	32750	32756	
3044	0	32814	32864	
3045	0	32764	32772	
3046	0	32816	32832	
3047	0	32858	32678	
3048	0	32824	32742	
3049	0	32781	32720	
3050	0	32812	32734	
3051	0	32834	32769	
3052	0	32816	32762	
3053	0	32816	32804	
3054	0	32836	32796	
3055	0	32820	32821	
3056	0	32762	32919	
3057	0	32808	32710	
3058	0	32802	32875	
3059	0	32806	32775	
3060	0	32810	32838	
3061	0	32856	32640	
3062	0	32868	32869	
3063	0	32880	32757	
3064	0	32788	32830	
3065	0	32756	32684	
3066	0	32844	32775	
3067	0	32894	32844	
3068	0	32772	32735	
3069	0	32864	32787	
3070	0	32892	32759	
3071	0	32808	32744	
3072	0	32764	32818	
3073	0	32760	32714	
3074	0	32828	32774	
3075	0	32760	32812	
3076	0	32796	32730	
3077	0	32836	32661	
3078	0	32750	32798	
3079	0	32820	32722	
3080	0	32832	32788	
3081	0	32804	32764	
3082	0	32848	32876	
3083	0	32776	32851	
3084	0	32858	32702	
3085	0	32788	32820	
3086	0	32816	32798	
3087	0	32708	32742	
3088	0	32748	32820	
3089	0	32840	32822	
3090	0	32756	32822	
3091	0	32832	32847	
3092	0	32800	32804	
3093	0	32764	32664	
3094	0	32808	32876	
3095	0	32876	32838	
3096	0	32792	32799	
3097	0	32832	32775	
3098	0	32764	32750	
3099	0	32840	32683	
3100	0	32821	32759	
3101	0	32764	32814	
3102	0	32828	32734	
3103	0	32784	32687	
3104	0	32849	32832	
3105	0	32816	32830	
3106	0	32808	32711	
3107	0	32852	32816	
3108	0	32830	32751	
3109	0	32804	32722	
3110	0	32846	32760	
3111	0	32824	32718	
3112	0	32824	32894	
3113	0	32838	32798	
3114	0	32808	32760	
3115	0	32840	32912	
3116	0	32756	32866	
3117	0	32800	32714	
3118	0	32760	32756	
3119	0	32828	32728	
3120	0	32836	32736	
3121	0	32740	32748	
3122	0	32796	32821	
3123	0	32796	32740	
3124	0	32856	32772	
3125	0	32808	32820	
3126	0	32812	32698	
3127	0	32848	32748	
3128	0	32784	32816	
3129	0	32806	32782	
3130	0	32916	32718	
3131	0	32892	32684	
3132	0	32804	32806	
3133	0	32880	32750	
3134	0	32820	32650	
3135	0	32820	32810	
3136	0	32852	32775	
3137	0	32828	32755	
3138	0	32776	32752	
3139	0	32772	32710	
3140	0	32818	32736	
3141	0	32774	32771	
3142	0	32764	32740	
3143	0	32800	32839	
3144	0	32762	32810	
3145	0	32820	32850	
3146	0	32768	32754	
3147	0	32874	32710	
3148	0	32764	32790	
3149	0	32800	32720	
3150	0	32862	32820	
3151	0	32844	32812	
3152	0	32836	32792	
3153	0	32860	32728	
3154	0	32870	32754	
3155	0	32924	32775	
3156	0	32840	32718	
3157	0	32780	32775	
3158	0	32756	32856	
3159	0	32736	32770	
3160	0	32732	32764	
3161	0	32760	32763	
3162	0	32860	32788	
3163	0	32780	32775	
3164	0	32796	32838	
3165	0	32808	32860	
3166	0	32796	32788	
3167	0	32804	32806	
3168	0	32800	32692	
3169	0	32772	32789	
3170	0	32772	32742	
3171	0	32886	32804	
3172	0	32808	32710	
3173	0	32780	32737	
3174	0	32850	32775	
3175	0	32786	32737	
3176	0	32784	32632	
3177	0	32740	32696	
3178	0	32844	32618	
3179	0	32788	32775	
3180	0	32788	32732	
3181	0	32800	32802	
3182	0	32804	32722	
3183	0	32812	32772	
3184	0	32808	32772	
3185	0	32864	32699	
3186	0	32892	32742	
3187	0	32858	32786	
3188	0	32788	32842	
3189	0	32886	32860	
3190	0	32900	32764	
3191	0	32874	32788	
3192	0	32812	32764	
3193	0	32812	32836	
3194	0	32740	32804	
3195	0	32792	32721	
3196	0	32818	32720	
3197	0	32816	32678	
3198	0	32808	32866	
3199	0	32824	32772	
3200	0	32808	32679	
3201	0	32784	32714	
3202	0	32766	32834	
3203	0	32774	32775	
3204	0	32776	32740	
3205	0	32794	32718	
3206	0	32832	32784	
3207	0	32852	32775	
3208	0	32730	32700	
3209	0	32736	32734	
3210	0	32756	32796	
3211	0	32756	32830	
3212	0	32854	32732	
3213	0	32812	32798	
3214	0	32788	32775	
3215	0	32868	32775	
3216	0	32888	32708	
3217	0	32872	32734	
3218	0	32824	32839	
3219	0	32804	32742	
3220	0	32880	32808	
3221	0	32916	32775	
3222	0	32874	32744	
3223	0	32840	32809	
3224	0	32828	32830	
3225	0	32798	32816	
3226	0	32872	32720	
3227	0	32780	32788	
3228	0	32816	32774	
3229	0	32740	32839	
3230	0	32775	32682	
3231	0	32780	32774	
3232	0	32826	32702	
3233	0	32790	32732	
3234	0	32816	32718	
3235	0	32816	32860	
3236	0	32768	32710	
3237	0	32792	32702	
3238	0	32780	32775	
3239	0	32736	32740	
3240	0	32744	32794	
3241	0	32764	32708	
3242	0	32812	32788	
3243	0	32804	32736	
3244	0	32804	32794	
3245	0	32860	32670	
3246	0	32849	32818	
3247	0	32866	32868	
3248	0	32816	32775	
3249	0	32812	32759	
3250	0	32852	32679	
3251	0	32816	32770	
3252	0	32846	32794	
3253	0	32840	32900	
3254	0	32817	32676	
3255	0	32796	32710	
3256	0	32802	32838	
3257	0	32748	32719	
3258	0	32808	32775	
3259	0	32796	32712	
3260	0	32768	32772	
3261	0	32828	32774	
3262	0	32840	32756	
3263	0	32872	32806	
3264	0	32798	32775	
3265	0	32774	32684	
3266	0	32794	32774	
3267	0	32896	32801	
3268	0	32796	32810	
3269	0	32860	32852	
3270	0	32900	32666	
3271	0	32760	32752	
3272	0	32870	32828	
3273	0	32784	32774	
3274	0	32782	32670	
3275	0	32724	32684	
3276	0	32708	32812	
3277	0	32720	32750	
3278	0	32720	32840	
3279	0	32808	32741	
3280	0	32712	32662	
3281	0	32876	32740	
3282	0	32816	32828	
3283	0	32768	32806	
3284	0	32824	32871	
3285	0	32848	32775	
3286	0	32860	32775	
3287	0	32846	32786	
3288	0	32826	32694	
3289	0	32820	32790	
3290	0	32770	32673	
3291	0	32832	32711	
3292	0	32808	32732	
3293	0	32808	32766	
3294	0	32768	32837	
3295	0	32784	32862	
3296	0	32880	32720	
3297	0	32912	32714	
3298	0	32898	32678	
3299	0	32844	32775	
3300	0	32762	32796	
3301	0	32810	32684	
3302	0	32800	32834	
3303	0	32848	32770	
3304	0	32820	32718	
3305	0	32816	32730	
3306	0	32812	32820	
3307	0	32768	32847	
3308	0	32844	32676	
3309	0	32788	32768	
3310	0	32782	32824	
3311	0	32832	32704	
3312	0	32774	32772	
3313	0	32816	32804	
3314	0	32716	32710	
3315	0	32774	32840	
3316	0	32760	32740	
3317	0	32804	32652	
3318	0	32816	32789	
3319	0	32804	32763	
3320	0	32808	32838	
3321	0	32794	32726	
3322	0	32868	32762	
3323	0	32776	32782	
3324	0	32860	32712	
3325	0	32814	32734	
3326	0	32840	32828	
3327	0	32832	32775	
3328	0	32792	32770	
3329	0	32800	32826	
3330	0	32778	32806	
3331	0	32880	32712	
3332	0	32820	32748	
3333	0	32800	32708	
3334	0	32834	32759	
3335	0	32836	32775	
3336	0	32852	32774	
3337	0	32780	32738	
3338	0	32768	32736	
3339	0	32856	32815	
3340	0	32792	32692	
3341	0	32870	32814	
3342	0	32866	32798	
3343	0	32768	32700	
3344	0	32824	32862	
3345	0	32842	32812	
3346	0	32790	32839	
3347	0	32784	32716	
3348	0	32836	32768	
3349	0	32789	32816	
3350	0	32828	32760	
3351	0	32806	32724	
3352	0	32772	32862	
3353	0	32828	32828	
3354	0	32776	32728	
3355	0	32860	32814	
3356	0	32768	32756	
3357	0	32844	32766	
3358	0	32822	32674	
3359	0	32800	32786	
3360	0	32864	32828	
3361	0	32848	32775	
3362	0	32748	32679	
3363	0	32798	32711	
3364	0	32712	32740	
3365	0	32796	32774	
3366	0	32768	32892	
3367	0	32780	32730	
3368	0	32780	32816	
3369	0	32804	32823	
3370	0	32868	32615	
3371	0	32840	32770	
3372	0	32728	32754	
3373	0	32768	32688	
3374	0	32794	32689	
3375	0	32868	32822	
3376	0	32900	32820	
3377	0	32918	32844	
3378	0	32816	32852	
3379	0	32824	32840	
3380	0	32792	32647	
3381	0	32836	32726	
3382	0	32784	32740	
3383	0	32656	32690	
3384	0	32734	32775	
3385	0	32760	32828	
3386	0	32758	32912	
3387	0	32794	32700	
3388	0	32762	32844	
3389	0	32790	32668	
3390	0	32872	32770	
3391	0	32840	32702	
3392	0	32822	32750	
3393	0	32780	32745	
3394	0	32837	32807	
3395	0	32958	32760	
3396	0	32992	32748	
3397	0	33028	32935	
3398	0	32880	32672	
3399	0	32934	32796	
3400	0	32869	32838	
3401	0	32804	32895	
3402	0	32808	32662	
3403	0	32700	32805	
3404	0	32672	32806	
3405	0	32670	32775	
3406	0	32706	32662	
3407	0	32736	32806	
3408	0	32706	32742	
3409	0	32740	32775	
3410	0	32756	32735	
3411	0	32750	32736	
3412	0	32820	32814	
3413	0	32864	32791	
3414	0	32884	32744	
3415	0	32838	32652	
3416	0	32780	32772	
3417	0	32792	32775	
3418	0	32768	32756	
3419	0	32764	32758	
3420	0	32812	32748	
3421	0	32826	32775	
3422	0	32844	32727	
3423	0	32892	32832	
3424	0	32936	32742	
3425	0	32860	32876	
3426	0	32836	32798	
3427	0	32810	32850	
3428	0	32836	32806	
3429	0	32776	32774	
3430	0	32776	32750	
3431	0	32806	32800	
3432	0	32748	32662	
3433	0	32712	32716	
3434	0	32772	32719	
3435	0	32708	32818	
3436	0	32724	32716	
3437	0	32726	32720	
3438	0	32738	32786	
3439	0	32712	32775	
3440	0	32712	32702	
3441	0	32828	32843	
3442	0	32864	32743	
3443	0	32904	32718	
3444	0	32998	32636	
3445	0	33034	32812	
3446	0	32932	32775	
3447	0	32916	32744	
3448	0	32892	32828	
3449	0	32908	32804	
3450	0	32788	32742	
3451	0	32764	32710	
3452	0	32762	32672	
3453	0	32756	32682	
3454	0	32800	32738	
3455	0	32712	32808	
3456	0	32678	32679	
3457	0	32712	32886	
3458	0	32676	32796	
3459	0	32704	32794	
3460	0	32712	32750	
3461	0	32848	32858	
3462	0	32820	32728	
3463	0	32780	32830	
3464	0	32789	32726	
3465	0	32790	32894	
3466	0	32730	32807	
3467	0	32810	32802	
3468	0	32804	32756	
3469	0	32820	32807	
3470	0	32732	32730	
3471	0	32856	32766	
3472	0	32852	32751	
3473	0	32892	32706	
3474	0	32892	32830	
3475	0	32916	32704	
3476	0	32906	32758	
3477	0	32740	32679	
3478	0	32666	32814	
3479	0	32680	32754	
3480	0	32814	32734	
3481	0	32512	32647	
3482	0	32216	32800	
3483	0	32276	32756	
3484	0	32260	32704	
3485	0	32258	32808	
3486	0	32228	32775	
3487	0	32316	32700	
3488	0	32268	32766	
3489	0	32366	32792	
3490	0	32484	32663	
3491	0	32640	32730	
3492	0	32792	32856	
3493	0	32692	32710	
3494	0	31131	32712	
3495	0	30440	32816	
3496	0	30534	32786	
3497	0	31088	32646	
3498	0	31692	32775	
3499	0	32276	32805	
3500	0	32662	32678	
3501	0	33072	32692	
3502	0	33316	32871	
3503	0	33536	32818	
3504	0	33720	32740	
3505	0	33744	32752	
3506	0	33836	32768	
3507	0	33852	32788	
3508	0	33788	32806	
3509	0	33712	32756	
3510	0	33628	32702	
3511	0	33612	32786	
3512	0	33600	32716	
3513	0	33620	32775	
3514	0	33536	32690	
3515	0	33552	32799	
3516	0	33532	32756	
3517	0	33470	32732	
3518	0	33456	32726	
3519	0	33380	32788	
3520	0	33392	32816	
3521	0	33292	32752	
3522	0	33268	32690	
3523	0	33278	32792	
3524	0	33202	32726	
3525	0	33264	32801	
3526	0	33162	32708	
3527	0	33062	32724	
3528	0	33004	32844	
3529	0	32956	32712	
3530	0	32944	32866	
3531	0	32804	32784	
3532	0	32746	32792	
3533	0	32692	32660	
3534	0	32804	32688	
3535	0	32900	32800	
3536	0	33124	32807	
3537	0	32946	32732	
3538	0	32932	32664	
3539	0	32964	32748	
3540	0	33154	32904	
3541	0	33172	32834	
3542	0	33080	32775	
3543	0	32832	32752	
3544	0	32716	32852	
3545	0	32666	32692	
3546	0	32668	32750	
3547	0	32648	32775	
3548	0	32612	32644	
3549	0	32646	32796	
3550	0	32624	32775	
3551	0	32590	32852	
3552	0	32598	32734	
3553	0	32644	32834	
3554	0	32654	32744	
3555	0	32752	32774	
3556	0	32800	32828	
3557	0	32782	32758	
3558	0	32856	32850	
3559	0	32928	32632	
3560	0	32892	32846	
3561	0	32928	32708	
3562	0	32924	32804	
3563	0	32836	32804	
3564	0	32826	32742	
3565	0	32844	32775	
3566	0	32774	32862	
3567	0	32620	32750	
3568	0	32620	32740	
3569	0	32656	32638	
3570	0	32754	32644	
3571	0	32724	32903	
3572	0	32864	32804	
3573	0	32888	32814	
3574	0	32878	32746	
3575	0	32904	32658	
3576	0	32844	32807	
3577	0	32772	32759	
3578	0	32772	32732	
3579	0	32836	32775	
3580	0	32804	32486	
3581	0	32732	32807	
3582	0	32702	32754	
3583	0	32702	32794	
3584	0	32520	32740	
3585	0	32596	32775	
3586	0	32605	32859	
3587	0	32710	32824	
3588	0	32676	32760	
3589	0	32708	32790	
3590	0	32688	32772	
3591	0	32804	32878	
3592	0	32836	32748	
3593	0	33024	32834	
3594	0	32950	32752	
3595	0	32888	32636	
3596	0	32832	32721	
3597	0	32774	32802	
3598	0	32664	32798	
3599	0	32632	32796	
3600	0	32680	32719	
3601	0	32754	32806	
3602	0	32741	32826	
3603	0	32712	32742	
3604	0	32888	32771	
3605	0	32876	32746	
3606	0	32876	32828	
3607	0	32988	32796	
3608	0	32944	32806	
3609	0	32988	32672	
3610	0	32984	32900	
3611	0	33060	32775	
3612	0	32956	32730	
3613	0	32860	32794	
3614	0	32916	32702	
3615	0	32876	32790	
3616	0	32814	32844	
3617	0	32784	32775	
3618	0	32744	32727	
3619	0	32776	32602	
3620	0	32724	32770	
3621	0	32772	32775	
3622	0	32854	32628	
3623	0	32784	32756	
3624	0	32844	32824	
3625	0	32794	32824	
3626	0	32800	32732	
3627	0	32844	32772	
3628	0	32872	32828	
3629	0	32848	32775	
3630	0	32852	32794	
3631	0	32924	32880	
3632	0	32972	32872	
3633	0	33004	32714	
3634	0	32915	32676	
3635	0	32944	32803	
3636	0	32932	32738	
3637	0	32914	32838	
3638	0	32772	32748	
3639	0	32700	32806	
3640	0	32736	32775	
3641	0	32726	32678	
3642	0	32742	32765	
3643	0	32780	32775	
3644	0	32752	32692	
3645	0	32778	32786	
3646	0	32784	32719	
3647	0	32712	32745	
3648	0	32740	32768	
3649	0	32904	32836	
3650	0	32988	32679	
3651	0	33024	32782	
3652	0	33008	32761	
3653	0	32966	32775	
3654	0	33132	32711	
3655	0	32972	32714	
3656	0	32818	32760	
3657	0	32730	32822	
3658	0	32668	32797	
3659	0	32576	32775	
3660	0	32442	32724	
3661	0	32400	32634	
3662	0	32452	32775	
3663	0	32546	32772	
3664	0	32600	32808	
3665	0	32680	32632	
3666	0	32704	32775	
3667	0	32604	32886	
3668	0	32700	32751	
3669	0	32888	32784	
3670	0	32944	32868	
3671	0	32858	32771	
3672	0	32892	32788	
3673	0	32938	32876	
3674	0	32900	32724	
3675	0	32912	32766	
3676	0	33000	32766	
3677	0	32926	32860	
3678	0	32884	32806	
3679	0	32862	32878	
3680	0	32822	32728	
3681	0	32708	32676	
3682	0	32704	32854	
3683	0	32650	32756	
3684	0	32564	32686	
3685	0	32508	32732	
3686	0	32548	32804	
3687	0	32524	32748	
3688	0	32616	32752	
3689	0	32614	32722	
3690	0	32716	32864	
3691	0	32844	32740	
3692	0	32812	32780	
3693	0	32848	32678	
3694	0	32708	32788	
3695	0	32744	32756	
3696	0	32816	32830	
3697	0	32820	32750	
3698	0	32788	32732	
3699	0	32904	32814	
3700	0	32864	32775	
3701	0	32760	32880	
3702	0	32828	32712	
3703	0	32742	32806	
3704	0	32702	32679	
3705	0	32688	32842	
3706	0	32638	32735	
3707	0	32608	32682	
3708	0	32657	32727	
3709	0	32664	32798	
3710	0	32646	32620	
3711	0	32726	32743	
3712	0	32734	32798	
3713	0	32836	32852	
3714	0	32954	32818	
3715	0	32961	32815	
3716	0	33088	32775	
3717	0	33072	32710	
3718	0	32981	32690	
3719	0	32912	32623	
3720	0	32912	32734	
3721	0	32852	32722	
3722	0	32796	32868	
3723	0	32746	32790	
3724	0	32816	32631	
3725	0	32872	32839	
3726	0	32756	32682	
3727	0	32772	32846	
3728	0	32664	32684	
3729	0	32560	32798	
3730	0	32616	32714	
3731	0	32678	32769	
3732	0	32712	32820	
3733	0	32824	32839	
3734	0	32748	32631	
3735	0	32776	32807	
3736	0	32756	32706	
3737	0	32688	32658	
3738	0	32736	32735	
3739	0	32784	32600	
3740	0	32776	32638	
3741	0	32964	32546	
3742	0	33058	32620	
3743	0	33120	32602	
3744	0	33060	32543	
3745	0	33048	32696	
3746	0	32982	32714	
3747	0	33120	32560	
3748	0	33080	32692	
3749	0	33060	32679	
3750	0	32952	32668	
3751	0	32832	32596	
3752	0	32936	32735	
3753	0	32908	32836	
3754	0	32840	32656	
3755	0	32564	32895	
3756	0	32464	32946	
3757	0	32452	32823	
3758	0	32380	33031	
3759	0	32364	33031	
3760	0	32354	33136	
3761	0	32092	33276	
3762	0	32028	33608	
3763	0	32402	33356	
3764	0	32750	33208	
3765	0	32878	33014	
3766	0	32980	32988	
3767	0	33034	32798	
3768	0	33258	32808	
3769	0	33252	32814	
3770	0	33116	32792	
3771	0	33024	32667	
3772	0	33096	32740	
3773	0	33022	32620	
3774	0	32866	32632	
3775	0	32898	32624	
3776	0	33012	32622	
3777	0	33036	32711	
3778	0	33016	32600	
3779	0	33076	32502	
3780	0	33116	32596	
3781	0	33094	32560	
3782	0	33060	32583	
3783	0	32928	32711	
3784	0	32684	32650	
3785	0	32692	32676	
3786	0	32488	32668	
3787	0	32510	32647	
3788	0	32588	32636	
3789	0	32860	32596	
3790	0	33152	32740	
3791	0	33232	32728	
3792	0	33268	32582	
3793	0	33148	32604	
3794	0	32780	32627	
3795	0	32892	32767	
3796	0	32860	32680	
3797	0	32916	32766	
3798	0	32886	32815	
3799	0	32777	32836	
3800	0	32894	32775	
3801	0	32929	32868	
3802	0	32908	32903	
3803	0	32902	32775	
3804	0	32676	32772	
3805	0	32752	32739	
3806	0	32648	32694	
3807	0	32515	32868	
3808	0	32730	32862	
3809	0	32800	32835	
3810	0	32732	32854	
3811	0	32900	32647	
3812	0	32860	32692	
3813	0	32816	32673	
3814	0	32766	32664	
3815	0	32680	32710	
3816	0	32596	32646	
3817	0	32592	32807	
3818	0	32772	32824	
3819	0	32820	32870	
3820	0	33088	32999	
3821	0	33090	33254	
3822	0	33118	33146	
3823	0	32954	32842	
3824	0	32958	32647	
3825	0	32922	32881	
3826	0	33093	32917	
3827	0	33100	32742	
3828	0	32812	32590	
3829	0	32711	32695	
3830	0	32756	32396	
3831	0	32740	32496	
3832	0	32852	32398	
3833	0	32916	32528	
3834	0	32914	32606	
3835	0	32694	32764	
3836	0	32532	32812	
3837	0	32518	32860	
3838	0	32340	32775	
3839	0	32272	32678	
3840	0	32118	32596	
3841	0	32648	32600	
3842	0	33322	32628	
3843	0	33380	32703	
3844	0	33400	32846	
3845	0	33440	32718	
3846	0	33160	32828	
3847	0	32724	32846	
3848	0	32376	32863	
3849	0	32660	32986	
3850	0	32760	32994	
3851	0	32692	32918	
3852	0	32556	32952	
3853	0	32710	32977	
3854	0	32720	32818	
3855	0	32720	32696	
3856	0	33000	32775	
3857	0	32746	32644	
3858	0	32272	32564	
3859	0	32572	32528	
3860	0	33152	32596	
3861	0	33232	32828	
3862	0	32718	32665	
3863	0	32322	32794	
3864	0	32222	32865	
3865	0	32644	32792	
3866	0	32842	33012	
3867	0	32668	32912	
3868	0	32808	32836	
3869	0	32872	32606	
3870	0	32648	32940	
3871	0	32584	33001	
3872	0	32540	32848	
3873	0	32696	32692	
3874	0	32788	32714	
3875	0	32774	32647	
3876	0	33236	32770	
3877	0	33174	33078	
3878	0	32994	32964	
3879	0	33202	32721	
3880	0	33072	32694	
3881	0	33006	32820	
3882	0	33048	32668	
3883	0	32858	32632	
3884	0	32512	32654	
3885	0	32368	32775	
3886	0	32484	32720	
3887	0	32612	32775	
3888	0	32912	32572	
3889	0	32740	32551	
3890	0	32732	32642	
3891	0	32788	32519	
3892	0	32882	32506	
3893	0	33076	32820	
3894	0	33084	32554	
3895	0	33204	32480	
3896	0	33119	32804	
3897	0	32760	32784	
3898	0	32248	32818	
3899	0	31854	32654	
3900	0	32100	32822	
3901	0	32298	33059	
3902	0	32808	32916	
3903	0	32764	32946	
3904	0	33094	32758	
3905	0	33246	32980	
3906	0	33328	32948	
3907	0	33460	32786	
3908	0	33176	32822	
3909	0	32932	32903	
3910	0	32832	33036	
3911	0	33030	32754	
3912	0	32968	32688	
3913	0	32396	32550	
3914	0	32376	32684	
3915	0	32328	32356	
3916	0	32496	32551	
3917	0	32449	32673	
3918	0	32400	32510	
3919	0	32764	32732	
3920	0	31940	33016	
3921	0	32472	32996	
3922	0	33620	32964	
3923	0	33964	32876	
3924	0	33956	32806	
3925	0	34128	32738	
3926	0	33412	32644	
3927	0	32336	32516	
3928	0	32544	32625	
3929	0	32524	32716	
3930	0	32128	32654	
3931	0	31528	32562	
3932	0	32380	32811	
3933	0	32502	32858	
3934	0	32516	32956	
3935	0	33082	32971	
3936	0	33958	33132	
3937	0	33744	32866	
3938	0	32632	32844	
3939	0	32122	32644	
3940	0	32054	32618	
3941	0	32544	32609	
3942	0	33304	32682	
3943	0	33078	32748	
3944	0	33176	32824	
3945	0	33336	32967	
3946	0	32858	32998	
3947	0	32232	32958	
3948	0	33096	32560	
3949	0	33620	32647	
3950	0	33844	32750	
3951	0	34158	32706	
3952	0	33558	32680	
3953	0	32372	32556	
3954	0	31836	32714	
3955	0	32296	32924	
3956	0	32492	32948	
3957	0	32169	32840	
3958	0	32364	32634	
3959	0	32358	32622	
3960	0	33352	32661	
3961	0	33092	32820	
3962	0	33156	32580	
3963	0	33038	32700	
3964	0	33034	32660	
3965	0	32188	32530	
3966	0	31900	32724	
3967	0	32150	32556	
3968	0	32440	32578	
3969	0	32532	32750	
3970	0	32864	32868	
3971	0	33240	32900	
3972	0	33460	33060	
3973	0	33118	33351	
3974	0	32412	33222	
3975	0	32948	33326	
3976	0	32788	32982	
3977	0	33172	32747	
3978	0	32930	32716	
3979	0	32772	32378	
3980	0	32948	32232	
3981	0	32928	32204	
3982	0	32524	32464	
3983	0	32836	32666	
3984	0	32500	32748	
3985	0	32496	32560	
3986	0	33316	32644	
3987	0	33032	32600	
3988	0	33258	32666	
3989	0	33160	32679	
3990	0	32620	32892	
3991	0	32948	33118	
3992	0	33276	32990	
3993	0	33444	32998	
3994	0	33252	32988	
3995	0	32980	32858	
3996	0	32736	32770	
3997	0	32834	32558	
3998	0	32284	32720	
3999	0	31976	32673	
4000	0	32028	32702	
4001	0	32646	32710	
4002	0	32462	32704	
4003	0	32388	32910	
4004	0	33054	32718	
4005	0	32620	32436	
4006	0	33378	32276	
4007	0	33204	32532	
4008	0	32584	32724	
4009	0	32930	32828	
4010	0	33232	32890	
4011	0	32924	33119	
4012	0	32504	33140	
4013	0	32872	33318	
4014	0	32728	32935	
4015	0	32385	32940	
4016	0	32092	33050	
4017	0	32708	33158	
4018	0	32904	32996	
4019	0	32884	32492	
4020	0	32786	32484	
4021	0	33200	32252	
4022	0	33312	32508	
4023	0	33040	32174	
4024	0	33124	32342	
4025	0	33024	32596	
4026	0	32288	32596	
4027	0	32416	32578	
4028	0	32744	32902	
4029	0	32286	32881	
4030	0	32696	32764	
4031	0	32748	32608	
4032	0	33928	32746	
4033	0	33340	32924	
4034	0	33092	33198	
4035	0	32884	32912	
4036	0	31952	32764	
4037	0	31636	32708	
4038	0	32448	32871	
4039	0	33068	32927	
4040	0	32756	32505	
4041	0	32644	32788	
4042	0	32832	33220	
4043	0	33190	33264	
4044	0	33080	33359	
4045	0	32896	33089	
4046	0	32846	32614	
4047	0	33016	32702	
4048	0	33320	32614	
4049	0	32804	32724	
4050	0	32614	32676	
4051	0	32448	32350	
4052	0	33316	32390	
4053	0	34112	32330	
4054	0	32824	32640	
4055	0	32490	32670	
4056	0	32077	32440	
4057	0	31168	32412	
4058	0	31770	32727	
4059	0	31826	32636	
4060	0	31532	32642	
4061	0	32234	32868	
4062	0	33352	33062	
4063	0	34360	32952	
4064	0	34972	33020	
4065	0	34688	33010	
4066	0	33594	32666	
4067	0	32184	32678	
4068	0	31828	32596	
4069	0	32196	32548	
4070	0	33096	32678	
4071	0	33552	33044	
4072	0	32696	32902	
4073	0	33040	32812	
4074	0	33076	32743	
4075	0	32996	32647	
4076	0	32620	32376	
4077	0	31900	32474	
4078	0	32284	32324	
4079	0	31956	32910	
4080	0	32235	33692	
4081	0	32824	33968	
4082	0	33348	33238	
4083	0	33310	32948	
4084	0	32922	32516	
4085	0	32964	32562	
4086	0	32784	32506	
4087	0	32650	32404	
4088	0	33092	32242	
4089	0	33408	32542	
4090	0	32940	32518	
4091	0	32744	32654	
4092	0	33402	32664	
4093	0	32320	32689	
4094	0	31428	32716	
4095	0	32850	33053	
4096	0	33016	32994	
4097	0	32312	33022	
4098	0	32116	33054	
4099	0	31524	32856	
4100	0	31938	33047	
4101	0	32696	32790	
4102	0	33708	32662	
4103	0	34132	32324	
4104	0	33004	32460	
4105	0	33428	32302	
4106	0	32672	32320	
4107	0	32920	32408	
4108	0	33454	32230	
4109	0	33608	32828	
4110	0	33880	33070	
4111	0	32420	33220	
4112	0	31140	33328	
4113	0	31428	33655	
4114	0	31980	33500	
4115	0	32678	32860	
4116	0	33798	32625	
4117	0	33698	32455	
4118	0	32660	32212	
4119	0	32944	32356	
4120	0	32844	32294	
4121	0	33472	32276	
4122	0	33472	32420	
4123	0	33124	32712	
4124	0	32612	32816	
4125	0	31990	32730	
4126	0	32508	32668	
4127	0	32440	32614	
4128	0	32698	32611	
4129	0	33252	32863	
4130	0	33622	33008	
4131	0	33618	33164	
4132	0	33400	33066	
4133	0	32740	32902	
4134	0	31580	32808	
4135	0	31068	32844	
4136	0	31424	32716	
4137	0	32678	32930	
4138	0	32176	32800	
4139	0	33628	32788	
4140	0	34440	32628	
4141	0	34108	32644	
4142	0	33500	32976	
4143	0	32672	32903	
4144	0	31900	32918	
4145	0	32334	33050	
4146	0	32912	32996	
4147	0	32274	32834	
4148	0	32756	32807	
4149	0	32704	32684	
4150	0	32954	32256	
4151	0	33008	32399	
4152	0	32608	32716	
4153	0	31944	32512	
4154	0	32478	32340	
4155	0	33694	32452	
4156	0	34004	32552	
4157	0	34644	32976	
4158	0	32904	33008	
4159	0	32380	32892	
4160	0	31560	32826	
4161	0	32354	32756	
4162	0	32140	32853	
4163	0	32264	32526	
4164	0	32630	32838	
4165	0	33120	32966	
4166	0	32840	33078	
4167	0	33066	33063	
4168	0	32596	32970	
4169	0	32834	32410	
4170	0	32912	32190	
4171	0	32956	32408	
4172	0	32940	32790	
4173	0	32570	33050	
4174	0	32864	33222	
4175	0	32730	33604	
4176	0	32808	33736	
4177	0	32548	33552	
4178	0	32694	32961	
4179	0	33792	32631	
4180	0	33953	32294	
4181	0	33108	32476	
4182	0	32348	32407	
4183	0	31988	32362	
4184	0	31956	32240	
4185	0	32022	32390	
4186	0	32888	32332	
4187	0	33040	32634	
4188	0	32680	32660	
4189	0	32092	32660	
4190	0	34048	32476	
4191	0	33772	32602	
4192	0	33500	32686	
4193	0	33088	32666	
4194	0	31746	32840	
4195	0	32020	33074	
4196	0	32220	33062	
4197	0	32352	32924	
4198	0	33580	32656	
4199	0	34360	32812	
4200	0	33760	32931	
4201	0	33778	32682	
4202	0	32242	32656	
4203	0	32444	32566	
4204	0	31914	32694	
4205	0	32776	32872	
4206	0	33596	32964	
4207	0	32504	33068	
4208	0	31836	32968	
4209	0	31452	33031	
4210	0	32742	33207	
4211	0	32968	32896	
4212	0	32624	32636	
4213	0	32704	32314	
4214	0	32240	32490	
4215	0	33276	32876	
4216	0	33136	32954	
4217	0	33744	33026	
4218	0	33028	33242	
4219	0	32874	33154	
4220	0	33012	32830	
4221	0	32512	32795	
4222	0	32156	32602	
4223	0	32390	32594	
4224	0	32881	32638	
4225	0	33218	32734	
4226	0	32760	32499	
4227	0	32812	32164	
4228	0	32868	32332	
4229	0	33140	32584	
4230	0	32548	32260	
4231	0	32616	32554	
4232	0	32320	32702	
4233	0	32946	32666	
4234	0	32696	33008	
4235	0	32848	32990	
4236	0	33128	32927	
4237	0	33008	32916	
4238	0	32420	32842	
4239	0	32800	32632	
4240	0	33224	32562	
4241	0	32336	32614	
4242	0	32546	32836	
4243	0	32962	32999	
4244	0	32820	33182	
4245	0	33124	33410	
4246	0	34156	33270	
4247	0	33836	33164	
4248	0	32100	32900	
4249	0	32306	32582	
4250	0	32910	32576	
4251	0	33468	32548	
4252	0	32854	32682	
4253	0	31460	32602	
4254	0	32164	32444	
4255	0	31880	32514	
4256	0	32140	33191	
4257	0	33176	33132	
4258	0	32702	32862	
4259	0	33584	32527	
4260	0	34490	32384	
4261	0	33232	32382	
4262	0	33948	32330	
4263	0	33000	32130	
4264	0	31858	32448	
4265	0	31904	32812	
4266	0	32136	33184	
4267	0	32204	32994	
4268	0	32188	32788	
4269	0	32152	32886	
4270	0	33008	32786	
4271	0	32252	32768	
4272	0	33004	33018	
4273	0	33016	32673	
4274	0	33772	32628	
4275	0	33636	33159	
4276	0	32772	33226	
4277	0	32746	33098	
4278	0	33038	32882	
4279	0	32904	32775	
4280	0	33040	32660	
4281	0	33304	32600	
4282	0	32830	32746	
4283	0	32736	32800	
4284	0	33268	32680	
4285	0	33024	32372	
4286	0	32872	32318	
4287	0	32860	32304	
4288	0	32320	32568	
4289	0	31652	32849	
4290	0	31884	32932	
4291	0	32996	33176	
4292	0	33360	32832	
4293	0	32924	32705	
4294	0	32272	32992	
4295	0	32444	32916	
4296	0	32782	32644	
4297	0	33092	32652	
4298	0	33736	32834	
4299	0	32776	32566	
4300	0	32640	32464	
4301	0	33210	32682	
4302	0	31732	32692	
4303	0	32110	32726	
4304	0	33204	32666	
4305	0	33652	32820	
4306	0	33090	33144	
4307	0	32224	33474	
4308	0	32592	33014	
4309	0	32936	32708	
4310	0	33772	32608	
4311	0	32988	32276	
4312	0	32650	32386	
4313	0	33020	32542	
4314	0	32952	32634	
4315	0	33320	32508	
4316	0	33132	32632	
4317	0	32992	32734	
4318	0	32196	32727	
4319	0	32622	32920	
4320	0	32612	33002	
4321	0	32616	33088	
4322	0	32608	33238	
4323	0	32784	33079	
4324	0	32624	32788	
4325	0	32378	32440	
4326	0	32888	32606	
4327	0	33284	32574	
4328	0	32670	32738	
4329	0	32336	32588	
4330	0	32444	32656	
4331	0	32588	32416	
4332	0	33072	32596	
4333	0	32725	32680	
4334	0	32652	32921	
4335	0	33236	32984	
4336	0	33292	33364	
4337	0	32448	33031	
4338	0	32484	32932	
4339	0	33720	32928	
4340	0	33076	33102	
4341	0	32984	32804	
4342	0	33020	32588	
4343	0	32556	32408	
4344	0	33084	32479	
4345	0	32352	32766	
4346	0	32476	32802	
4347	0	33340	32690	
4348	0	32326	32660	
4349	0	32250	32678	
4350	0	32468	32474	
4351	0	32768	32530	
4352	0	33864	32767	
4353	0	33172	32828	
4354	0	32564	32584	
4355	0	32760	32764	
4356	0	32340	32968	
4357	0	31456	33067	
4358	0	33876	33132	
4359	0	33764	33096	
4360	0	32940	33108	
4361	0	32240	32816	
4362	0	32700	33180	
4363	0	33196	33097	
4364	0	33670	32804	
4365	0	33022	32924	
4366	0	31368	32272	
4367	0	31380	32283	
4368	0	31998	32036	
4369	0	32564	32124	
4370	0	33084	32514	
4371	0	33078	32828	
4372	0	33070	33100	
4373	0	33584	32950	
4374	0	33608	32444	
4375	0	33246	32490	
4376	0	32603	32967	
4377	0	32620	32892	
4378	0	32888	32568	
4379	0	32868	32556	
4380	0	32762	33016	
4381	0	33000	32984	
4382	0	33080	32742	
4383	0	32918	32810	
4384	0	32836	33154	
4385	0	32788	32886	
4386	0	32720	32804	
4387	0	32740	32641	
4388	0	32796	32895	
4389	0	33008	32878	
4390	0	33364	32528	
4391	0	33624	32672	
4392	0	33218	32821	
4393	0	33340	32942	
4394	0	33248	32801	
4395	0	33262	32824	
4396	0	33009	32770	
4397	0	33802	32726	
4398	0	32948	32458	
4399	0	31756	32508	
4400	0	31816	32610	
4401	0	32180	32620	
4402	0	32881	32767	
4403	0	32865	32952	
4404	0	31548	33166	
4405	0	31268	32999	
4406	0	32272	32654	
4407	0	32324	32984	
4408	0	32406	32894	
4409	0	32398	32708	
4410	0	32876	32775	
4411	0	33058	32689	
4412	0	32608	32572	
4413	0	31936	32518	
4414	0	32768	32372	
4415	0	33592	32488	
4416	0	32756	32732	
4417	0	32640	32922	
4418	0	32756	33002	
4419	0	33726	32880	
4420	0	33034	32956	
4421	0	33112	32825	
4422	0	33636	32652	
4423	0	32704	32630	
4424	0	32356	32920	
4425	0	33262	32608	
4426	0	32732	32583	
4427	0	33000	32615	
4428	0	33340	32844	
4429	0	33252	32994	
4430	0	32878	32980	
4431	0	33350	32896	
4432	0	33648	32556	
4433	0	32804	32764	
4434	0	32452	32892	
4435	0	32076	33094	
4436	0	32536	32844	
4437	0	32948	32908	
4438	0	32836	32807	
4439	0	32352	32630	
4440	0	32228	32500	
4441	0	32492	32694	
4442	0	32984	32788	
4443	0	33188	32972	
4444	0	33428	32900	
4445	0	33668	32820	
4446	0	33778	32689	
4447	0	34460	32358	
4448	0	34164	32463	
4449	0	34004	32668	
4450	0	32524	32634	
4451	0	31384	33054	
4452	0	30940	33092	
4453	0	30884	33076	
4454	0	32669	33028	
4455	0	31996	32676	
4456	0	30684	32382	
4457	0	31366	32500	
4458	0	31808	32468	
4459	0	31444	32372	
4460	0	31796	32430	
4461	0	33276	32474	
4462	0	32976	32714	
4463	0	33214	33248	
4464	0	33271	33444	
4465	0	33640	33436	
4466	0	34654	33206	
4467	0	34608	32703	
4468	0	34310	32614	
4469	0	33420	32302	
4470	0	32948	32758	
4471	0	32772	32446	
4472	0	32268	32744	
4473	0	32484	32519	
4474	0	31892	32853	
4475	0	31608	32927	
4476	0	34020	32740	
4477	0	33812	32642	
4478	0	30708	32644	
4479	0	30932	32672	
4480	0	32012	32714	
4481	0	33020	32704	
4482	0	32760	32794	
4483	0	33348	32596	
4484	0	33820	32566	
4485	0	33040	32502	
4486	0	32958	32609	
4487	0	32904	32858	
4488	0	33038	33304	
4489	0	33096	33630	
4490	0	33344	33337	
4491	0	33456	32740	
4492	0	33668	32518	
4493	0	33282	32498	
4494	0	32840	32702	
4495	0	32750	32574	
4496	0	32708	32684	
4497	0	32852	32535	
4498	0	32956	32664	
4499	0	32920	32688	
4500	0	32808	32944	
4501	0	32508	32844	
4502	0	33068	32849	
4503	0	32052	32752	
4504	0	31868	32634	
4505	0	32104	32766	
4506	0	32300	32824	
4507	0	32536	32884	
4508	0	32484	33006	
4509	0	32716	32924	
4510	0	33728	32746	
4511	0	34000	32478	
4512	0	33804	32508	
4513	0	33548	32664	
4514	0	33148	32775	
4515	0	32134	32800	
4516	0	32444	32764	
4517	0	32014	32702	
4518	0	32208	32748	
4519	0	32588	32650	
4520	0	32640	32860	
4521	0	33636	32962	
4522	0	33406	32714	
4523	0	33272	32560	
4524	0	32632	32775	
4525	0	32144	33044	
4526	0	32594	33072	
4527	0	32936	33006	
4528	0	33184	32622	
4529	0	33786	32588	
4530	0	33818	32380	
4531	0	32722	32484	
4532	0	33810	33070	
4533	0	32616	33108	
4534	0	32396	33064	
4535	0	31844	32902	
4536	0	31592	32528	
4537	0	33276	32492	
4538	0	32746	32552	
4539	0	32494	32654	
4540	0	32684	32618	
4541	0	32592	32703	
4542	0	32464	32632	
4543	0	31980	33047	
4544	0	31480	32870	
4545	0	31972	32954	
4546	0	32000	33143	
4547	0	32152	32878	
4548	0	32372	32652	
4549	0	32580	32775	
4550	0	33088	32672	
4551	0	33466	32584	
4552	0	33972	32622	
4553	0	34096	32756	
4554	0	34280	32668	
4555	0	34760	32728	
4556	0	33798	32894	
4557	0	33194	32764	
4558	0	33532	32734	
4559	0	33796	32750	
4560	0	32550	32660	
4561	0	31896	32424	
4562	0	31572	32664	
4563	0	31182	32730	
4564	0	31601	32750	
4565	0	32776	32980	
4566	0	33228	32972	
4567	0	32820	32714	
4568	0	31460	32764	
4569	0	30856	32822	
4570	0	32330	33212	
4571	0	32472	33100	
4572	0	33522	32758	
4573	0	33256	32830	
4574	0	33381	32822	
4575	0	34172	32775	
4576	0	33876	32684	
4577	0	33908	32618	
4578	0	34392	32502	
4579	0	34506	32552	
4580	0	34612	32496	
4581	0	34052	32530	
4582	0	32958	32814	
4583	0	31846	32758	
4584	0	31736	32902	
4585	0	32324	32945	
4586	0	32392	32836	
4587	0	32040	32782	
4588	0	31442	32494	
4589	0	31498	32500	
4590	0	30958	32624	
4591	0	30920	32526	
4592	0	30544	32612	
4593	0	30604	32554	
4594	0	31982	32690	
4595	0	34062	32802	
4596	0	34144	32935	
4597	0	34660	33372	
4598	0	34592	33050	
4599	0	34018	32748	
4600	0	33576	32518	
4601	0	32448	32798	
4602	0	31632	32880	
4603	0	31364	32828	
4604	0	31204	32775	
4605	0	31556	32830	
4606	0	32080	32866	
4607	0	31817	32680	
4608	0	32024	32898	
4609	0	33072	32814	
4610	0	33216	32616	
4611	0	32496	32512	
4612	0	33128	32751	
4613	0	33424	32606	
4614	0	34156	32494	
4615	0	33884	32604	
4616	0	33984	33204	
4617	0	34176	33102	
4618	0	32896	33062	
4619	0	33320	32762	
4620	0	33664	32680	
4621	0	33476	32638	
4622	0	33296	32583	
4623	0	33330	32590	
4624	0	32848	32536	
4625	0	33040	32839	
4626	0	32984	32900	
4627	0	33562	32978	
4628	0	33472	32766	
4629	0	33348	32802	
4630	0	33354	32598	
4631	0	33164	32740	
4632	0	33234	32686	
4633	0	33638	32740	
4634	0	33650	32770	
4635	0	33086	32593	
4636	0	32496	32630	
4637	0	32036	32598	
4638	0	31644	32330	
4639	0	31448	32632	
4640	0	32072	32724	
4641	0	32960	32844	
4642	0	32412	32852	
4643	0	32204	32572	
4644	0	32836	32632	
4645	0	33040	32636	
4646	0	32916	32928	
4647	0	32800	32894	
4648	0	32608	32930	
4649	0	33952	32858	
4650	0	36164	32686	
4651	0	35872	32607	
4652	0	34096	32412	
4653	0	32800	32519	
4654	0	32148	32518	
4655	0	31714	32884	
4656	0	31132	32894	
4657	0	30184	32844	
4658	0	30264	33146	
4659	0	31304	32872	
4660	0	31084	32593	
4661	0	31100	32374	
4662	0	30838	33024	
4663	0	30744	33130	
4664	0	30856	33038	
4665	0	30838	33172	
4666	0	30860	33492	
4667	0	31462	33383	
4668	0	32465	33026	
4669	0	33752	32920	
4670	0	33428	32868	
4671	0	34352	32816	
4672	0	34530	32647	
4673	0	34012	32702	
4674	0	33696	32572	
4675	0	33104	32704	
4676	0	34256	32878	
4677	0	34032	32686	
4678	0	34396	32712	
4679	0	33424	32442	
4680	0	33056	32548	
4681	0	32906	32646	
4682	0	32662	32974	
4683	0	33540	32732	
4684	0	33780	32832	
4685	0	33668	32644	
4686	0	33482	32618	
4687	0	33208	32542	
4688	0	32802	32737	
4689	0	32678	32998	
4690	0	32946	32768	
4691	0	32924	32658	
4692	0	33000	32752	
4693	0	33306	32556	
4694	0	33798	32590	
4695	0	34600	32620	
4696	0	34660	32768	
4697	0	34476	32759	
4698	0	33468	32920	
4699	0	32412	32756	
4700	0	31800	32564	
4701	0	31574	32524	
4702	0	31444	32552	
4703	0	31632	32634	
4704	0	32138	32691	
4705	0	31938	32702	
4706	0	31992	32748	
4707	0	32336	32734	
4708	0	32550	32832	
4709	0	31968	32740	
4710	0	31708	32884	
4711	0	32122	32903	
4712	0	32900	33134	
4713	0	33072	32966	
4714	0	33388	33057	
4715	0	33884	32974	
4716	0	33748	32716	
4717	0	33016	32602	
4718	0	32618	32593	
4719	0	32660	32278	
4720	0	31400	32130	
4721	0	30920	32442	
4722	0	30914	32676	
4723	0	31624	32775	
4724	0	31972	32960	
4725	0	32644	33062	
4726	0	32838	33004	
4727	0	32344	33112	
4728	0	32111	33098	
4729	0	32194	32720	
4730	0	32428	32756	
4731	0	32834	32786	
4732	0	33168	32775	
4733	0	32868	32842	
4734	0	33588	32872	
4735	0	34092	32880	
4736	0	34032	32796	
4737	0	33800	32770	
4738	0	34092	32642	
4739	0	34284	32642	
4740	0	34792	32604	
4741	0	35016	32740	
4742	0	34894	32846	
4743	0	34146	32750	
4744	0	33652	32864	
4745	0	33628	32748	
4746	0	33404	32816	
4747	0	32916	32748	
4748	0	31968	32788	
4749	0	32128	32666	
4750	0	32104	32652	
4751	0	30295	32706	
4752	0	30768	32775	
4753	0	30142	32798	
4754	0	30946	32618	
4755	0	31310	32686	
4756	0	31828	32540	
4757	0	32050	32680	
4758	0	32546	32594	
4759	0	33080	32842	
4760	0	33112	32790	
4761	0	32964	32718	
4762	0	34988	32840	
4763	0	36380	32932	
4764	0	36052	32919	
4765	0	36148	33044	
4766	0	36492	32986	
4767	0	35426	32766	
4768	0	34420	32730	
4769	0	32490	32620	
4770	0	31510	32474	
4771	0	31424	32474	
4772	0	30646	32846	
4773	0	29704	32816	
4774	0	29130	32700	
4775	0	28940	32844	
4776	0	29284	32790	
4777	0	29352	32510	
4778	0	30104	32550	
4779	0	31300	33008	
4780	0	31864	32960	
4781	0	32600	32952	
4782	0	33748	32718	
4783	0	34050	32632	
4784	0	34322	32708	
4785	0	33856	32964	
4786	0	34300	33136	
4787	0	35388	32936	
4788	0	36450	32790	
4789	0	37512	32611	
4790	0	38424	32578	
4791	0	36792	32464	
4792	0	34088	32488	
4793	0	31407	32372	
4794	0	29790	32582	
4795	0	29548	32620	
4796	0	29264	32828	
4797	0	30012	32862	
4798	0	29668	33190	
4799	0	29178	32794	
4800	0	30054	32827	
4801	0	31060	33052	
4802	0	31964	33128	
4803	0	32286	32807	
4804	0	32872	33002	
4805	0	33558	32872	
4806	0	33904	32646	
4807	0	34338	32524	
4808	0	34888	32756	
4809	0	34600	32684	
4810	0	34692	32618	
4811	0	34510	32536	
4812	0	34280	32562	
4813	0	34216	32642	
4814	0	33978	32688	
4815	0	33594	32593	
4816	0	33344	32583	
4817	0	34056	32868	
4818	0	34516	32826	
4819	0	34180	32964	
4820	0	33924	32935	
4821	0	33468	32648	
4822	0	32494	32794	
4823	0	33342	32772	
4824	0	32800	32716	
4825	0	31924	32676	
4826	0	31884	32951	
4827	0	31848	32668	
4828	0	31024	32644	
4829	0	31478	32748	
4830	0	30836	32696	
4831	0	30060	32690	
4832	0	30151	32678	
4833	0	30936	32794	
4834	0	31482	32636	
4835	0	31692	32852	
4836	0	31396	32708	
4837	0	30552	32775	
4838	0	33292	32862	
4839	0	35428	32696	
4840	0	34200	32706	
4841	0	34564	32810	
4842	0	34308	32689	
4843	0	34020	32823	
4844	0	34174	32878	
4845	0	33766	32902	
4846	0	33096	32743	
4847	0	33064	32750	
4848	0	33064	32798	
4849	0	33764	32506	
4850	0	34004	32867	
4851	0	32982	32888	
4852	0	32076	32964	
4853	0	32421	32848	
4854	0	33580	32856	
4855	0	33940	32792	
4856	0	34102	32760	
4857	0	32554	32702	
4858	0	31672	32602	
4859	0	30792	32644	
4860	0	30580	32719	
4861	0	31242	32576	
4862	0	31828	32605	
4863	0	32818	32647	
4864	0	31836	32590	
4865	0	31626	32662	
4866	0	31916	32768	
4867	0	32428	33028	
4868	0	33140	33159	
4869	0	33256	32978	
4870	0	33716	32876	
4871	0	33808	32822	
4872	0	33744	32769	
4873	0	33576	32884	
4874	0	32744	32826	
4875	0	32846	32458	
4876	0	32488	32738	
4877	0	32384	32692	
4878	0	32200	32497	
4879	0	32160	32372	
4880	0	32212	32826	
4881	0	32652	33018	
4882	0	32662	32926	
4883	0	32852	33204	
4884	0	33160	32785	
4885	0	33264	32678	
4886	0	34024	32628	
4887	0	34100	32724	
4888	0	34058	32766	
4889	0	33774	32644	
4890	0	33380	32682	
4891	0	33540	32746	
4892	0	33690	32775	
4893	0	33360	32692	
4894	0	33224	32839	
4895	0	34808	32742	
4896	0	35112	32760	
4897	0	34688	32553	
4898	0	33780	32624	
4899	0	32296	32708	
4900	0	30776	32703	
4901	0	29900	32824	
4902	0	29446	32908	
4903	0	29338	33008	
4904	0	29932	32958	
4905	0	30862	32718	
4906	0	31738	32500	
4907	0	33130	32736	
4908	0	33848	32788	
4909	0	34212	32684	
4910	0	34182	32806	
4911	0	34566	32906	
4912	0	34968	32806	
4913	0	35116	32864	
4914	0	34198	32862	
4915	0	32540	32556	
4916	0	31312	32647	
4917	0	30396	32872	
4918	0	30004	32628	
4919	0	30448	32688	
4920	0	31776	32708	
4921	0	33096	32933	
4922	0	34196	32922	
4923	0	34160	32692	
4924	0	33092	32798	
4925	0	32684	32684	
4926	0	32010	32710	
4927	0	32124	32628	
4928	0	32160	33010	
4929	0	32102	32700	
4930	0	32880	32724	
4931	0	33878	32688	
4932	0	33608	32748	
4933	0	33176	32658	
4934	0	33092	32647	
4935	0	33452	32894	
4936	0	33252	32840	
4937	0	33452	32724	
4938	0	33514	32897	
4939	0	33232	32892	
4940	0	33280	32666	
4941	0	33182	32972	
4942	0	33052	32934	
4943	0	32708	32742	
4944	0	32596	32884	
4945	0	32608	32994	
4946	0	32570	32652	
4947	0	32754	32775	
4948	0	32858	32886	
4949	0	33084	32732	
4950	0	33436	32704	
4951	0	33606	32844	
4952	0	32952	32684	
4953	0	32584	32724	
4954	0	32436	32660	
4955	0	33352	32584	
4956	0	33168	32664	
4957	0	33180	32956	
4958	0	32226	33006	
4959	0	32025	32654	
4960	0	33194	32650	
4961	0	34336	32676	
4962	0	34048	32624	
4963	0	34134	32424	
4964	0	34410	32748	
4965	0	33892	32932	
4966	0	32952	32810	
4967	0	32236	32706	
4968	0	31052	32742	
4969	0	29912	32706	
4970	0	29784	32650	
4971	0	29724	32708	
4972	0	29900	32634	
4973	0	30656	32788	
4974	0	30716	32775	
4975	0	31088	32764	
4976	0	31806	32930	
4977	0	32748	32870	
4978	0	33204	32946	
4979	0	34004	32789	
4980	0	33844	32864	
4981	0	33712	32774	
4982	0	33500	32798	
4983	0	33156	32611	
4984	0	33168	32590	
4985	0	33284	32711	
4986	0	33292	32826	
4987	0	33474	32686	
4988	0	34480	32740	
4989	0	35976	32922	
4990	0	36196	32882	
4991	0	36182	32696	
4992	0	35568	32688	
4993	0	34340	32895	
4994	0	33480	32919	
4995	0	32392	32908	
4996	0	30976	32698	
4997	0	30332	32808	
4998	0	30522	32684	
4999	0	30676	32804	
5000	0	30404	32625	
5001	0	31424	32656	
5002	0	31884	32680	
5003	0	30816	32594	
5004	0	30584	32726	
5005	0	31998	32816	
5006	0	32554	32848	
5007	0	32460	32668	
5008	0	32800	32774	
5009	0	33592	32684	
5010	0	34148	32660	
5011	0	34056	32800	
5012	0	34036	32804	
5013	0	33768	32614	
5014	0	33662	32788	
5015	0	33972	32724	
5016	0	34046	32816	
5017	0	33728	32672	
5018	0	33698	32846	
5019	0	33672	32748	
5020	0	33884	32692	
5021	0	33921	32980	
5022	0	33210	32844	
5023	0	32817	32775	
5024	0	32108	32764	
5025	0	31284	32822	
5026	0	31252	32774	
5027	0	31544	32804	
5028	0	31716	32839	
5029	0	32000	32828	
5030	0	32768	32590	
5031	0	33322	32750	
5032	0	33208	32655	
5033	0	33514	32656	
5034	0	33968	32894	
5035	0	34692	32822	
5036	0	33682	32720	
5037	0	33428	32864	
5038	0	33364	32984	
5039	0	32896	32954	
5040	0	32968	32804	
5041	0	32888	32807	
5042	0	33194	32838	
5043	0	32978	32676	
5044	0	31476	32664	
5045	0	30826	32586	
5046	0	31064	32598	
5047	0	31132	32964	
5048	0	31114	32743	
5049	0	31344	32656	
5050	0	31725	32839	
5051	0	32168	32994	
5052	0	32960	32908	
5053	0	33390	32662	
5054	0	33786	32704	
5055	0	34216	32718	
5056	0	34362	32718	
5057	0	34308	32900	
5058	0	34184	32816	
5059	0	33852	32551	
5060	0	33780	32647	
5061	0	33548	32832	
5062	0	33872	32700	
5063	0	32914	32614	
5064	0	32410	32798	
5065	0	31340	32662	
5066	0	30940	32696	
5067	0	31064	32726	
5068	0	30872	32932	
5069	0	30824	32826	
5070	0	31132	32815	
5071	0	31130	32952	
5072	0	31956	33124	
5073	0	32572	32900	
5074	0	33020	32846	
5075	0	33932	32752	
5076	0	33910	32519	
5077	0	33402	32644	
5078	0	33848	32784	
5079	0	34584	32708	
5080	0	34490	32592	
5081	0	34032	32762	
5082	0	33406	32807	
5083	0	33172	32771	
5084	0	33332	32696	
5085	0	33282	32761	
5086	0	33192	32628	
5087	0	32804	32624	
5088	0	32872	32775	
5089	0	33136	32894	
5090	0	32632	32987	
5091	0	32490	32743	
5092	0	32382	32807	
5093	0	32646	32828	
5094	0	32856	32802	
5095	0	33406	32624	
5096	0	34240	32796	
5097	0	35130	32724	
5098	0	34720	32724	
5099	0	34112	32647	
5100	0	32870	32775	
5101	0	32234	32788	
5102	0	31722	32838	
5103	0	31348	32712	
5104	0	30012	32760	
5105	0	30730	32695	
5106	0	31010	32726	
5107	0	31394	32768	
5108	0	31493	32846	
5109	0	31400	32775	
5110	0	31578	32686	
5111	0	32368	32758	
5112	0	32828	32743	
5113	0	32749	32854	
5114	0	32932	32769	
5115	0	33012	32948	
5116	0	32696	32984	
5117	0	33012	32991	
5118	0	32552	32696	
5119	0	33088	32738	
5120	0	33402	32744	
5121	0	33832	32660	
5122	0	33798	32795	
5123	0	33870	32802	
5124	0	33556	32954	
5125	0	33616	32668	
5126	0	33296	32728	
5127	0	33428	32742	
5128	0	33288	32638	
5129	0	33532	32794	
5130	0	33496	32743	
5131	0	33896	32636	
5132	0	33886	32711	
5133	0	33404	32711	
5134	0	33222	32654	
5135	0	32784	32660	
5136	0	32200	32839	
5137	0	31660	32686	
5138	0	32298	32724	
5139	0	32984	32844	
5140	0	31582	32814	
5141	0	31324	32786	
5142	0	30884	32640	
5143	0	30796	32772	
5144	0	31424	32884	
5145	0	32392	32740	
5146	0	32476	32802	
5147	0	32968	32620	
5148	0	33816	32784	
5149	0	34068	32822	
5150	0	33219	32756	
5151	0	33312	32868	
5152	0	33596	32855	
5153	0	33274	32748	
5154	0	33144	32860	
5155	0	32914	32904	
5156	0	32296	32802	
5157	0	32206	32630	
5158	0	32520	32732	
5159	0	32808	32749	
5160	0	32928	32697	
5161	0	33136	32774	
5162	0	33168	32826	
5163	0	33256	32692	
5164	0	33044	32646	
5165	0	33073	32750	
5166	0	33940	32760	
5167	0	33264	32656	
5168	0	33482	32766	
5169	0	32646	32652	
5170	0	32296	32726	
5171	0	32508	32726	
5172	0	32512	32804	
5173	0	33072	32854	
5174	0	32880	32903	
5175	0	32645	32898	
5176	0	32674	32672	
5177	0	32564	32868	
5178	0	32504	32724	
5179	0	32888	32530	
5180	0	33686	32740	
5181	0	33412	32792	
5182	0	32832	32647	
5183	0	32310	32770	
5184	0	32286	32876	
5185	0	32202	32810	
5186	0	32232	32860	
5187	0	32351	32728	
5188	0	32364	32806	
5189	0	32344	32692	
5190	0	32416	32849	
5191	0	32760	32719	
5192	0	33192	32696	
5193	0	33438	32656	
5194	0	33262	32800	
5195	0	33442	32806	
5196	0	33604	32846	
5197	0	33884	32762	
5198	0	34452	32806	
5199	0	34332	32826	
5200	0	32932	32864	
5201	0	32716	32646	
5202	0	31700	32590	
5203	0	31326	32746	
5204	0	31120	32676	
5205	0	31272	32804	
5206	0	31520	32878	
5207	0	32208	32772	
5208	0	32414	32725	
5209	0	32708	32793	
5210	0	33204	32658	
5211	0	33632	32654	
5212	0	33232	32766	
5213	0	33466	32720	
5214	0	33614	32764	
5215	0	33284	32884	
5216	0	33320	32772	
5217	0	33148	32775	
5218	0	32620	32724	
5219	0	32286	32820	
5220	0	32410	32808	
5221	0	32536	32929	
5222	0	32696	32710	
5223	0	32906	32564	
5224	0	32912	32706	
5225	0	32852	32744	
5226	0	32692	32706	
5227	0	32798	32870	
5228	0	32516	32836	
5229	0	32784	32679	
5230	0	33220	32652	
5231	0	32768	32774	
5232	0	32736	32914	
5233	0	33526	32728	
5234	0	33476	32838	
5235	0	33288	32820	
5236	0	33604	32644	
5237	0	33284	32704	
5238	0	33240	32764	
5239	0	33308	32764	
5240	0	33204	32818	
5241	0	32852	32894	
5242	0	31948	32718	
5243	0	31464	32806	
5244	0	31236	32832	
5245	0	31254	32885	
5246	0	32092	32752	
5247	0	31636	32775	
5248	0	31940	32876	
5249	0	32608	32714	
5250	0	32896	32660	
5251	0	32846	32772	
5252	0	33144	32652	
5253	0	33050	32752	
5254	0	33100	32782	
5255	0	33308	32818	
5256	0	33492	32708	
5257	0	33456	32662	
5258	0	33342	32775	
5259	0	33124	32822	
5260	0	33316	32710	
5261	0	33076	32748	
5262	0	33044	32852	
5263	0	32876	32708	
5264	0	32884	32680	
5265	0	32988	32635	
5266	0	33072	32692	
5267	0	33208	32820	
5268	0	33284	32888	
5269	0	32784	32740	
5270	0	32704	32834	
5271	0	32770	32908	
5272	0	32514	32596	
5273	0	32580	32716	
5274	0	32644	32710	
5275	0	32632	32736	
5276	0	32716	32836	
5277	0	32744	32792	
5278	0	32728	32679	
5279	0	32768	32858	
5280	0	32776	32744	
5281	0	32852	32766	
5282	0	32720	32980	
5283	0	32650	32766	
5284	0	32876	32734	
5285	0	32772	32732	
5286	0	32712	32736	
5287	0	32912	32654	
5288	0	32987	32774	
5289	0	33046	32718	
5290	0	32886	32756	
5291	0	32972	32808	
5292	0	32928	32775	
5293	0	33152	32630	
5294	0	33128	32828	
5295	0	33120	32919	
5296	0	32640	32754	
5297	0	32572	32740	
5298	0	32316	32708	
5299	0	32418	32792	
5300	0	31598	32710	
5301	0	31988	32616	
5302	0	32600	32608	
5303	0	32496	32725	
5304	0	32816	32704	
5305	0	32990	32994	
5306	0	32838	32894	
5307	0	32942	32684	
5308	0	33482	32732	
5309	0	33180	32775	
5310	0	33178	32807	
5311	0	33220	32766	
5312	0	33172	32702	
5313	0	33086	32662	
5314	0	33124	32664	
5315	0	32862	32854	
5316	0	32952	32812	
5317	0	33012	32743	
5318	0	32576	32597	
5319	0	32458	32746	
5320	0	32404	32785	
5321	0	32384	32772	
5322	0	32174	32700	
5323	0	32292	32834	
5324	0	32516	32864	
5325	0	32569	32718	
5326	0	32672	32738	
5327	0	32790	32775	
5328	0	33016	32820	
5329	0	33100	32820	
5330	0	33036	32804	
5331	0	33032	32792	
5332	0	32976	32652	
5333	0	32960	32788	
5334	0	33008	32832	
5335	0	32960	32644	
5336	0	32792	32860	
5337	0	32732	32823	
5338	0	33552	32630	
5339	0	33148	32746	
5340	0	32996	32694	
5341	0	32756	32818	
5342	0	32504	32742	
5343	0	32622	32916	
5344	0	32638	32897	
5345	0	32766	32744	
5346	0	32776	32702	
5347	0	32714	32818	
5348	0	32900	32706	
5349	0	32888	32720	
5350	0	32948	32692	
5351	0	32896	32700	
5352	0	32820	32734	
5353	0	32884	32762	
5354	0	32696	32726	
5355	0	32544	32740	
5356	0	32784	32775	
5357	0	32706	32722	
5358	0	32544	32735	
5359	0	32840	32798	
5360	0	32848	32775	
5361	0	32878	32847	
5362	0	32904	32762	
5363	0	32948	32814	
5364	0	32872	32804	
5365	0	32836	32867	
5366	0	32785	32690	
5367	0	32586	32734	
5368	0	32682	32806	
5369	0	32956	32696	
5370	0	32786	32775	
5371	0	32864	32870	
5372	0	32836	32684	
5373	0	32784	32856	
5374	0	32868	32859	
5375	0	32700	32678	
5376	0	32648	32866	
5377	0	32746	32816	
5378	0	32790	32705	
5379	0	32988	32852	
5380	0	32892	32746	
5381	0	32684	32687	
5382	0	32604	32744	
5383	0	32864	32720	
5384	0	32996	32636	
5385	0	32752	32734	
5386	0	32960	32714	
5387	0	32724	32700	
5388	0	32760	32656	
5389	0	33160	32680	
5390	0	32532	32798	
5391	0	32560	32804	
5392	0	32298	32720	
5393	0	32418	32772	
5394	0	32889	32830	
5395	0	32808	32822	
5396	0	32800	32680	
5397	0	33068	32810	
5398	0	32786	32816	
5399	0	32820	32864	
5400	0	32852	32780	
5401	0	32852	32775	
5402	0	32792	32718	
5403	0	32772	32652	
5404	0	32948	32667	
5405	0	32968	32834	
5406	0	32888	32874	
5407	0	32904	32822	
5408	0	32832	32636	
5409	0	32764	32828	
5410	0	32764	32756	
5411	0	32756	32815	
5412	0	32772	32716	
5413	0	32752	32746	
5414	0	32868	32748	
5415	0	32764	32802	
5416	0	32796	32678	
5417	0	32806	32743	
5418	0	32700	32706	
5419	0	32870	32775	
5420	0	32960	32652	
5421	0	32670	32850	
5422	0	32988	32736	
5423	0	32926	32610	
5424	0	32828	32711	
5425	0	32725	32760	
5426	0	32780	32642	
5427	0	32798	32936	
5428	0	32808	32860	
5429	0	32866	32840	
5430	0	32750	32820	
5431	0	32852	32668	
5432	0	32854	32580	
5433	0	32810	32775	
5434	0	32652	32794	
5435	0	32900	32820	
5436	0	32804	32694	
5437	0	32794	32816	
5438	0	32840	32790	
5439	0	32892	32740	
5440	0	32812	32740	
5441	0	32800	32811	
5442	0	32826	32794	
5443	0	32832	32810	
5444	0	32800	32808	
5445	0	32806	32774	
5446	0	32832	32707	
5447	0	32788	32688	
5448	0	32784	32847	
5449	0	32878	32774	
5450	0	32816	32718	
5451	0	32814	32830	
5452	0	32852	32670	
5453	0	32832	32782	
5454	0	32844	32775	
5455	0	32856	32742	
5456	0	32882	32702	
5457	0	32760	32826	
5458	0	32660	32759	
5459	0	32740	32814	
5460	0	32936	32671	
5461	0	32676	32807	
5462	0	32928	32716	
5463	0	32968	32775	
5464	0	32840	32772	
5465	0	32712	32807	
5466	0	32764	32775	
5467	0	32880	32730	
5468	0	32912	32726	
5469	0	32868	32615	
5470	0	32780	32758	
5471	0	32816	32775	
5472	0	32792	32708	
5473	0	32808	32796	
5474	0	32714	32858	
5475	0	32792	32735	
5476	0	32736	32704	
5477	0	32768	32694	
5478	0	32792	32711	
5479	0	32762	32775	
5480	0	32808	32760	
5481	0	32852	32816	
5482	0	32778	32678	
5483	0	32782	32800	
5484	0	32804	32764	
5485	0	32836	32708	
5486	0	32808	32823	
5487	0	32792	32775	
5488	0	32836	32714	
5489	0	32788	32841	
5490	0	32840	32817	
5491	0	32752	32712	
5492	0	32908	32846	
5493	0	32822	32758	
5494	0	32870	32666	
5495	0	32844	32759	
5496	0	32840	32732	
5497	0	32904	32740	
5498	0	32880	32670	
5499	0	32858	32722	
5500	0	32886	32764	
5501	0	32932	32738	
5502	0	32872	32672	
5503	0	32844	32696	
5504	0	32950	32612	
5505	0	32856	32606	
5506	0	32860	32584	
5507	0	32984	32716	
5508	0	32952	32626	
5509	0	32930	32630	
5510	0	32900	32628	
5511	0	32938	32630	
5512	0	32970	32604	
5513	0	32890	32647	
5514	0	32862	32478	
5515	0	32922	32718	
5516	0	32903	32748	
5517	0	32864	32694	
5518	0	32872	32855	
5519	0	32906	32804	
5520	0	32892	32823	
5521	0	32766	32846	
5522	0	32604	32928	
5523	0	32560	33056	
5524	0	32452	33060	
5525	0	32442	33114	
5526	0	32360	33210	
5527	0	32356	33479	
5528	0	32276	33618	
5529	0	32426	33408	
5530	0	32432	33300	
5531	0	32596	33132	
5532	0	32602	32846	
5533	0	32592	32816	
5534	0	32692	32832	
5535	0	32680	32838	
5536	0	32750	32854	
5537	0	32812	32775	
5538	0	32824	32615	
5539	0	32876	32702	
5540	0	32828	32614	
5541	0	32934	32478	
5542	0	32912	32564	
5543	0	32916	32538	
5544	0	32998	32406	
5545	0	32918	32502	
5546	0	32884	32514	
5547	0	33012	32542	
5548	0	33052	32478	
5549	0	33080	32614	
5550	0	33008	32624	
5551	0	33088	32655	
5552	0	32978	32513	
5553	0	32876	32663	
5554	0	32884	32674	
5555	0	32866	32748	
5556	0	32904	32698	
5557	0	32886	32684	
5558	0	32840	32790	
5559	0	32868	32790	
5560	0	32868	32832	
5561	0	32864	32784	
5562	0	32874	32700	
5563	0	32848	32775	
5564	0	32834	32764	
5565	0	32780	32714	
5566	0	32820	32743	
5567	0	32833	32686	
5568	0	32818	32789	
5569	0	32760	32774	
5570	0	32784	32748	
5571	0	32828	32740	
5572	0	32814	32828	
5573	0	32814	32839	
5574	0	32768	32731	
5575	0	32812	32768	
5576	0	32816	32831	
5577	0	32788	32848	
5578	0	32864	32694	
5579	0	32752	32806	
5580	0	32718	32734	
5581	0	32668	32830	
5582	0	32730	32808	
5583	0	32708	32752	
5584	0	32712	32750	
5585	0	32784	32724	
5586	0	32782	32744	
5587	0	32830	32814	
5588	0	32796	32788	
5589	0	32798	32828	
5590	0	32814	32710	
5591	0	32832	32807	
5592	0	32840	32814	
5593	0	32812	32686	
5594	0	32700	32830	
5595	0	32824	32762	
5596	0	32760	32844	
5597	0	32784	32614	
5598	0	32796	32748	
5599	0	32872	32816	
5600	0	32856	32767	
5601	0	32772	32794	
5602	0	32794	32772	
5603	0	32846	32738	
5604	0	32852	32764	
5605	0	32850	32745	
5606	0	32788	32484	
5607	0	33520	33144	
5608	0	33544	33392	
5609	0	33130	33202	
5610	0	32828	32996	
5611	0	32710	32936	
5612	0	32572	32753	
5613	0	32611	32707	
5614	0	32529	32650	
5615	0	32512	32588	
5616	0	32546	32618	
5617	0	32674	32609	
5618	0	32806	32696	
5619	0	32774	32574	
5620	0	32788	32696	
5621	0	32800	32746	
5622	0	32740	32668	
5623	0	32792	32638	
5624	0	32756	32718	
5625	0	32684	32802	
5626	0	32768	32692	
5627	0	32775	32676	
5628	0	32784	32686	
5629	0	32808	32762	
5630	0	32778	32615	
5631	0	32712	32728	
5632	0	32760	32679	
5633	0	32768	32702	
5634	0	32772	32700	
5635	0	32860	32775	
5636	0	32786	32804	
5637	0	32746	32692	
5638	0	32748	32761	
5639	0	32814	32744	
5640	0	32820	32736	
5641	0	32860	32856	
5642	0	32848	32824	
5643	0	32858	32670	
5644	0	32820	32798	
5645	0	32928	32820	
5646	0	32868	32775	
5647	0	32890	32810	
5648	0	32848	32746	
5649	0	32810	32724	
5650	0	32778	32647	
5651	0	32838	32726	
5652	0	32784	32764	
5653	0	32814	32620	
5654	0	32860	32764	
5655	0	32864	32807	
5656	0	32842	32766	
5657	0	32830	32848	
5658	0	32926	32847	
5659	0	32832	32684	
5660	0	32856	32874	
5661	0	32862	32840	
5662	0	32796	32734	
5663	0	32824	32804	
5664	0	32832	32820	
5665	0	32842	32694	
5666	0	32912	32872	
5667	0	32856	32804	
5668	0	32832	32784	
5669	0	32768	32724	
5670	0	32804	32744	
5671	0	32770	32828	
5672	0	32746	32638	
5673	0	32770	32758	
5674	0	32828	32692	
5675	0	32740	32715	
5676	0	32818	32739	
5677	0	32836	32732	
5678	0	32866	32802	
5679	0	32880	32892	
5680	0	32756	32760	
5681	0	32824	32764	
5682	0	32700	32704	
5683	0	32708	32864	
5684	0	32860	32824	
5685	0	32888	32775	
5686	0	32882	32774	
5687	0	32828	32848	
5688	0	32824	32775	
5689	0	32836	32670	
5690	0	32736	32775	
5691	0	32852	32674	
5692	0	32860	32754	
5693	0	32836	32628	
5694	0	32750	32744	
5695	0	32712	32838	
5696	0	32782	32647	
5697	0	32864	32742	
5698	0	32740	32804	
5699	0	32856	32724	
5700	0	32828	32828	
5701	0	32780	32836	
5702	0	32894	32828	
5703	0	32868	32743	
5704	0	32898	32852	
5705	0	32960	32770	
5706	0	32916	32750	
5707	0	32766	32775	
5708	0	32784	32790	
5709	0	32748	32837	
5710	0	32744	32660	
5711	0	32800	32863	
5712	0	32742	32727	
5713	0	32734	32768	
5714	0	32748	32552	
5715	0	32762	32688	
5716	0	32762	32708	
5717	0	32828	32768	
5718	0	32904	32708	
5719	0	32828	32848	
5720	0	32920	32864	
5721	0	32856	32647	
5722	0	32812	32788	
5723	0	32880	32796	
5724	0	32836	32846	
5725	0	32870	32839	
5726	0	32858	32847	
5727	0	32904	32784	
5728	0	32788	32754	
5729	0	32844	32824	
5730	0	32796	32742	
5731	0	32790	32850	
5732	0	32750	32702	
5733	0	32802	32664	
5734	0	32774	32692	
5735	0	32788	32695	
5736	0	32832	32719	
5737	0	32788	32734	
5738	0	32826	32812	
5739	0	32848	32673	
5740	0	32866	32842	
5741	0	32804	32818	
5742	0	32772	32880	
5743	0	32794	32698	
5744	0	32864	32750	
5745	0	32812	32844	
5746	0	32866	32866	
5747	0	32804	32775	
5748	0	32798	32876	
5749	0	32750	32864	
5750	0	32700	32633	
5751	0	32708	32708	
5752	0	32716	32760	
5753	0	32754	32687	
5754	0	32770	32745	
5755	0	32782	32732	
5756	0	32770	32804	
5757	0	32717	32710	
5758	0	32838	32678	
5759	0	32756	32892	
5760	0	32823	32694	
5761	0	32772	32822	
5762	0	32746	32746	
5763	0	32832	32788	
5764	0	32834	32740	
5765	0	32808	32839	
5766	0	32804	32900	
5767	0	32804	32764	
5768	0	32688	32764	
5769	0	32784	32748	
5770	0	32752	32708	
5771	0	32721	32760	
5772	0	32776	32804	
5773	0	32716	32647	
5774	0	32784	32734	
5775	0	32764	32724	
5776	0	32812	32732	
5777	0	32836	32678	
5778	0	32880	32830	
5779	0	32944	32775	
5780	0	32932	32799	
5781	0	33008	32780	
5782	0	33044	32814	
5783	0	32996	32838	
5784	0	32952	32810	
5785	0	32964	32854	
5786	0	32888	32794	
5787	0	32964	32838	
5788	0	33032	32733	
5789	0	33028	32746	
5790	0	32900	32652	
5791	0	32870	32738	
5792	0	32856	32719	
5793	0	32766	32692	
5794	0	32726	32712	
5795	0	32722	32758	
5796	0	32736	32804	
5797	0	32752	32760	
5798	0	32780	32816	
5799	0	32848	32719	
5800	0	32906	32875	
5801	0	32868	32834	
5802	0	32776	32868	
5803	0	32852	32770	
5804	0	32832	32868	
5805	0	32804	32850	
5806	0	32772	32756	
5807	0	32792	32792	
5808	0	32808	32775	
5809	0	32770	32724	
5810	0	32812	32732	
5811	0	32776	32768	
5812	0	32788	32820	
5813	0	32776	32700	
5814	0	32716	32839	
5815	0	32704	32846	
5816	0	32752	32691	
5817	0	32868	32714	
5818	0	32846	32759	
5819	0	32860	32737	
5820	0	32892	32772	
5821	0	32752	32772	
5822	0	32828	32775	
5823	0	32790	32816	
5824	0	32788	32796	
5825	0	32822	32734	
5826	0	32768	32822	
5827	0	32776	32834	
5828	0	32784	32726	
5829	0	32700	32794	
5830	0	32816	32804	
5831	0	32728	32692	
5832	0	32782	32743	
5833	0	32798	32756	
5834	0	32748	32636	
5835	0	32758	32724	
5836	0	32748	32732	
5837	0	32816	32834	
5838	0	32768	32732	
5839	0	32880	32822	
5840	0	32932	32810	
5841	0	32834	32756	
5842	0	32856	32818	
5843	0	32852	32854	
5844	0	32820	32728	
5845	0	32820	32807	
5846	0	32804	32790	
5847	0	32806	32716	
5848	0	32775	32858	
5849	0	32760	32766	
5850	0	32720	32674	
5851	0	32792	32667	
5852	0	32740	32682	
5853	0	32740	32796	
5854	0	32754	32668	
5855	0	32804	32682	
5856	0	32768	32759	
5857	0	32752	32676	
5858	0	32800	32806	
5859	0	32852	32832	
5860	0	32820	32800	
5861	0	32894	32772	
5862	0	32876	32836	
5863	0	32772	32798	
5864	0	32832	32874	
5865	0	32706	32775	
5866	0	32758	32728	
5867	0	32802	32742	
5868	0	32868	32845	
5869	0	32804	32806	
5870	0	32792	32737	
5871	0	32852	32732	
5872	0	32806	32807	
5873	0	32772	32644	
5874	0	32756	32664	
5875	0	32750	32604	
5876	0	32806	32820	
5877	0	32832	32754	
5878	0	32832	32734	
5879	0	32864	32703	
5880	0	32820	32876	
5881	0	32840	32858	
5882	0	32852	32708	
5883	0	32916	32855	
5884	0	32888	32831	
5885	0	32848	32818	
5886	0	32812	32806	
5887	0	32836	32840	
5888	0	32842	32782	
5889	0	32804	32852	
5890	0	32848	32690	
5891	0	32838	32708	
5892	0	32784	32816	
5893	0	32768	32687	
5894	0	32804	32698	
5895	0	32784	32764	
5896	0	32782	32706	
5897	0	32852	32740	
5898	0	32828	32775	
5899	0	32806	32820	
5900	0	32898	32708	
5901	0	32870	32836	
5902	0	32880	32798	
5903	0	32872	32892	
5904	0	32828	32746	
5905	0	32770	32816	
5906	0	32778	32842	
5907	0	32840	32824	
5908	0	32820	32802	
5909	0	32794	32794	
5910	0	32822	32679	
5911	0	32812	32690	
5912	0	32872	32818	
5913	0	32820	32806	
5914	0	32776	32624	
5915	0	32800	32726	
5916	0	32808	32775	
5917	0	32870	32706	
5918	0	32884	32724	
5919	0	32852	32838	
5920	0	32896	32812	
5921	0	32817	32798	
5922	0	32820	32806	
5923	0	32806	32726	
5924	0	32796	32880	
5925	0	32810	32879	
5926	0	32836	32678	
5927	0	32900	32758	
5928	0	32824	32775	
5929	0	32810	32790	
5930	0	32800	32720	
5931	0	32812	32782	
5932	0	32744	32732	
5933	0	32732	32814	
5934	0	32804	32658	
5935	0	32788	32850	
5936	0	32833	32710	
5937	0	32880	32647	
5938	0	32848	32700	
5939	0	32820	32796	
5940	0	32906	32828	
5941	0	32848	32708	
5942	0	32824	32868	
5943	0	32892	32858	
5944	0	32852	32807	
5945	0	32872	32744	
5946	0	32830	32800	
5947	0	32816	32828	
5948	0	32796	32708	
5949	0	32775	32738	
5950	0	32704	32752	
5951	0	32720	32794	
5952	0	32716	32634	
5953	0	32686	32742	
5954	0	32785	32700	
5955	0	32860	32708	
5956	0	32792	32634	
5957	0	32860	32750	
5958	0	32884	32864	
5959	0	32872	32805	
5960	0	32836	32878	
5961	0	32924	32702	
5962	0	32828	32807	
5963	0	32932	32823	
5964	0	32892	32760	
5965	0	32876	32840	
5966	0	32878	32802	
5967	0	32824	32859	
5968	0	32860	32708	
5969	0	32740	32820	
5970	0	32764	32860	
5971	0	32790	32630	
5972	0	32808	32690	
5973	0	32800	32808	
5974	0	32804	32628	
5975	0	32848	32738	
5976	0	32852	32716	
5977	0	32832	32695	
5978	0	32868	32740	
5979	0	32856	32775	
5980	0	32884	32858	
5981	0	32872	32838	
5982	0	32852	32720	
5983	0	32754	32864	
5984	0	32756	32852	
5985	0	32793	32775	
5986	0	32700	32734	
5987	0	32704	32854	
5988	0	32718	32840	
5989	0	32616	32792	
5990	0	32654	32644	
5991	0	32636	32761	
5992	0	32704	32636	
5993	0	32652	32799	
5994	0	32740	32738	
5995	0	32678	32708	
5996	0	32740	32743	
5997	0	32754	32708	
5998	0	32896	32775	
5999	0	32854	32684	
6000	0	32865	32870	
6001	0	32924	32882	
6002	0	32879	32775	
6003	0	32856	32775	
6004	0	32772	32815	
6005	0	32814	32856	
6006	0	32764	32803	
6007	0	32804	32814	
6008	0	32796	32806	
6009	0	32800	32752	
6010	0	32794	32730	
6011	0	32768	32775	
6012	0	32842	32688	
