# OpenSignals Text File Format. Version 1
# {"00:07:80:8C:0A:39": {"position": 0, "device": "biosignalsplux", "device name": "00:07:80:8C:0A:39", "device connection": "BTH00:07:80:8C:0A:39", "sampling rate": 1000, "resolution": [16, 16], "firmware version": 776, "comments": "", "keywords": "", "mode": 0, "sync interval": 2, "date": "2023-3-20", "time": "20:15:21.882", "channels": [1, 2], "sensor": ["EMG", "EMG"], "label": ["CH1", "CH2"], "column": ["nSeq", "DI", "CH1", "CH2"], "special": [{"SpO2": [80, 40, 5, 4, 3, 3]}, {"SpO2": [80, 40, 5, 4, 3, 3]}, {"SpO2": [80, 40, 5, 4, 3, 3]}, {"SpO2": [80, 40, 5, 4, 3, 3]}, {"SpO2": [80, 40, 5, 4, 3, 3]}, {"SpO2": [80, 40, 5, 4, 3, 3]}, {"SpO2": [80, 40, 5, 4, 3, 3]}, {"SpO2": [80, 40, 5, 4, 3, 3]}], "digital IO": [0, 1], "sleeve color": ["gray", "yellow"], "convertedValues": 0}}
# EndOfHeader
0	0	32836	32750	
1	0	32868	32716	
2	0	32834	32694	
3	0	32872	32748	
4	0	32772	32763	
5	0	32834	32772	
6	0	32866	32824	
7	0	32828	32876	
8	0	32742	32794	
9	0	32802	32824	
10	0	32796	32724	
11	0	32772	32788	
12	0	32784	32738	
13	0	32798	32786	
14	0	32802	32800	
15	0	32816	32807	
16	0	32848	32750	
17	0	32828	32692	
18	0	32828	32744	
19	0	32858	32868	
20	0	32760	32764	
21	0	32756	32752	
22	0	32772	32828	
23	0	32800	32702	
24	0	32794	32632	
25	0	32840	32680	
26	0	32796	32848	
27	0	32876	32757	
28	0	32832	32774	
29	0	32892	32852	
30	0	32834	32660	
31	0	32846	32676	
32	0	32814	32686	
33	0	32826	32807	
34	0	32928	32774	
35	0	32882	32768	
36	0	32772	32820	
37	0	32696	32702	
38	0	32770	32834	
39	0	32852	32826	
40	0	32792	32728	
41	0	32810	32838	
42	0	32726	32694	
43	0	32744	32804	
44	0	32772	32764	
45	0	32760	32743	
46	0	32782	32774	
47	0	32804	32830	
48	0	32818	32682	
49	0	32866	32624	
50	0	32830	32754	
51	0	32854	32756	
52	0	32832	32802	
53	0	32816	32828	
54	0	32768	32903	
55	0	32844	32804	
56	0	32801	32772	
57	0	32792	32752	
58	0	32830	32774	
59	0	32812	32834	
60	0	32804	32688	
61	0	32876	32734	
62	0	32862	32786	
63	0	32746	32766	
64	0	32808	32734	
65	0	32780	32760	
66	0	32828	32769	
67	0	32830	32794	
68	0	32812	32708	
69	0	32808	32753	
70	0	32812	32775	
71	0	32812	32736	
72	0	32836	32718	
73	0	32780	32775	
74	0	32796	32834	
75	0	32828	32770	
76	0	32804	32692	
77	0	32824	32678	
78	0	32780	32804	
79	0	32780	32740	
80	0	32834	32772	
81	0	32812	32838	
82	0	32756	32700	
83	0	32832	32718	
84	0	32806	32880	
85	0	32852	32802	
86	0	32874	32821	
87	0	32732	32671	
88	0	32768	32718	
89	0	32796	32716	
90	0	32804	32828	
91	0	32829	32788	
92	0	32784	32712	
93	0	32856	32926	
94	0	32892	32892	
95	0	32828	32772	
96	0	32804	32764	
97	0	32816	32792	
98	0	32804	32902	
99	0	32858	32746	
100	0	32900	32812	
101	0	32768	32708	
102	0	32830	32711	
103	0	32768	32724	
104	0	32824	32804	
105	0	32780	32702	
106	0	32804	32666	
107	0	32810	32836	
108	0	32828	32852	
109	0	32790	32784	
110	0	32816	32816	
111	0	32832	32644	
112	0	32816	32714	
113	0	32880	32804	
114	0	32810	32750	
115	0	32916	32791	
116	0	32832	32774	
117	0	32790	32794	
118	0	32772	32684	
119	0	32775	32720	
120	0	32774	32738	
121	0	32800	32802	
122	0	32756	32824	
123	0	32786	32750	
124	0	32806	32842	
125	0	32832	32704	
126	0	32908	32668	
127	0	32808	32775	
128	0	32736	32816	
129	0	32796	32767	
130	0	32772	32810	
131	0	32832	32760	
132	0	32858	32870	
133	0	32864	32640	
134	0	32768	32792	
135	0	32902	32882	
136	0	32840	32768	
137	0	32778	32788	
138	0	32808	32820	
139	0	32872	32732	
140	0	32830	32775	
141	0	32772	32724	
142	0	32808	32812	
143	0	32824	32852	
144	0	32828	32712	
145	0	32796	32712	
146	0	32800	32775	
147	0	32808	32763	
148	0	32800	32724	
149	0	32825	32716	
150	0	32784	32734	
151	0	32828	32826	
152	0	32848	32832	
153	0	32740	32826	
154	0	32768	32719	
155	0	32824	32696	
156	0	32840	32752	
157	0	32800	32801	
158	0	32816	32746	
159	0	32856	32807	
160	0	32868	32798	
161	0	32882	32734	
162	0	32866	32642	
163	0	32928	32720	
164	0	32812	32810	
165	0	32776	32800	
166	0	32808	32862	
167	0	32784	32742	
168	0	32740	32672	
169	0	32808	32775	
170	0	32764	32878	
171	0	32828	32736	
172	0	32856	32721	
173	0	32808	32752	
174	0	32856	32658	
175	0	32808	32740	
176	0	32780	32775	
177	0	32824	32790	
178	0	32752	32818	
179	0	32788	32838	
180	0	32784	32738	
181	0	32792	32767	
182	0	32820	32775	
183	0	32768	32826	
184	0	32796	32792	
185	0	32900	32784	
186	0	32872	32804	
187	0	32780	32775	
188	0	32814	32796	
189	0	32866	32838	
190	0	32896	32746	
191	0	32856	32662	
192	0	32816	32748	
193	0	32832	32818	
194	0	32804	32813	
195	0	32764	32804	
196	0	32704	32722	
197	0	32762	32724	
198	0	32770	32692	
199	0	32776	32672	
200	0	32772	32790	
201	0	32782	32687	
202	0	32752	32610	
203	0	32726	32710	
204	0	32732	32628	
205	0	32740	32574	
206	0	32700	32614	
207	0	32752	32636	
208	0	32788	32588	
209	0	32656	32624	
210	0	32728	32632	
211	0	32706	32666	
212	0	32732	32750	
213	0	32690	32748	
214	0	32802	32734	
215	0	32896	32736	
216	0	32820	32764	
217	0	32798	32816	
218	0	32836	32664	
219	0	32970	32824	
220	0	32952	32748	
221	0	33036	32714	
222	0	33080	32802	
223	0	33124	32938	
224	0	33144	33162	
225	0	33128	33199	
226	0	33124	33216	
227	0	33078	33240	
228	0	33016	33162	
229	0	32880	33055	
230	0	32884	32939	
231	0	32840	32930	
232	0	32720	32812	
233	0	32782	32824	
234	0	32676	32736	
235	0	32784	32578	
236	0	32741	32614	
237	0	32732	32702	
238	0	32716	32512	
239	0	32656	32500	
240	0	32672	32578	
241	0	32686	32690	
242	0	32712	32588	
243	0	32734	32569	
244	0	32772	32671	
245	0	32696	32847	
246	0	32640	32668	
247	0	32776	32697	
248	0	32782	32743	
249	0	32808	32761	
250	0	32748	32740	
251	0	32804	32814	
252	0	32754	32772	
253	0	32880	32752	
254	0	32776	32762	
255	0	32820	32698	
256	0	32842	32760	
257	0	32816	32800	
258	0	32840	32764	
259	0	32848	32758	
260	0	32812	32764	
261	0	32818	32695	
262	0	32780	32838	
263	0	32848	32828	
264	0	32796	32678	
265	0	32832	32775	
266	0	32792	32838	
267	0	32864	32815	
268	0	32848	32774	
269	0	32842	32722	
270	0	32790	32828	
271	0	32782	32762	
272	0	32836	32844	
273	0	32816	32736	
274	0	32848	32740	
275	0	32860	32787	
276	0	32860	32862	
277	0	32856	32704	
278	0	32860	32775	
279	0	32848	32680	
280	0	32866	32775	
281	0	32740	32884	
282	0	32844	32694	
283	0	32852	32744	
284	0	32760	32746	
285	0	32802	32734	
286	0	32868	32812	
287	0	32782	32820	
288	0	32796	32634	
289	0	32772	32810	
290	0	32836	32830	
291	0	32828	32678	
292	0	32848	32828	
293	0	32744	32766	
294	0	32836	32784	
295	0	32810	32822	
296	0	32886	32692	
297	0	32834	32712	
298	0	32768	32680	
299	0	32868	32839	
300	0	32788	32775	
301	0	32826	32726	
302	0	32794	32772	
303	0	32818	32775	
304	0	32820	32698	
305	0	32816	32732	
306	0	32784	32676	
307	0	32772	32839	
308	0	32856	32880	
309	0	32800	32682	
310	0	32776	32718	
311	0	32780	32832	
312	0	32860	32730	
313	0	32860	32816	
314	0	32758	32840	
315	0	32856	32726	
316	0	32728	32848	
317	0	32768	32852	
318	0	32841	32742	
319	0	32832	32784	
320	0	32774	32623	
321	0	32796	32804	
322	0	32804	32696	
323	0	32780	32871	
324	0	32896	32722	
325	0	32801	32807	
326	0	32864	32775	
327	0	32864	32836	
328	0	32784	32804	
329	0	32834	32724	
330	0	32800	32826	
331	0	32814	32714	
332	0	32790	32689	
333	0	32784	32774	
334	0	32790	32790	
335	0	32812	32698	
336	0	32896	32772	
337	0	32800	32764	
338	0	32830	32687	
339	0	32852	32756	
340	0	32796	32806	
341	0	32778	32792	
342	0	32820	32788	
343	0	32772	32796	
344	0	32816	32716	
345	0	32824	32689	
346	0	32808	32838	
347	0	32804	32820	
348	0	32780	32775	
349	0	32824	32820	
350	0	32804	32703	
351	0	32848	32700	
352	0	32804	32802	
353	0	32874	32711	
354	0	32828	32772	
355	0	32808	32694	
356	0	32808	32740	
357	0	32780	32732	
358	0	32788	32821	
359	0	32780	32879	
360	0	32884	32762	
361	0	32878	32814	
362	0	32820	32848	
363	0	32768	32726	
364	0	32785	32672	
365	0	32840	32652	
366	0	32798	32743	
367	0	32730	32868	
368	0	32920	32767	
369	0	32820	32792	
370	0	32848	32767	
371	0	32824	32738	
372	0	32790	32702	
373	0	32812	32712	
374	0	32764	32710	
375	0	32840	32775	
376	0	32872	32788	
377	0	32828	32775	
378	0	32756	32735	
379	0	32822	32788	
380	0	32792	32814	
381	0	32776	32766	
382	0	32856	32775	
383	0	32772	32668	
384	0	32822	32652	
385	0	32804	32715	
386	0	32836	32775	
387	0	32824	32804	
388	0	32823	32836	
389	0	32800	32678	
390	0	32772	32774	
391	0	32826	32718	
392	0	32826	32728	
393	0	32810	32898	
394	0	32800	32730	
395	0	32810	32832	
396	0	32852	32766	
397	0	32844	32700	
398	0	32824	32644	
399	0	32770	32804	
400	0	32784	32740	
401	0	32756	32794	
402	0	32812	32692	
403	0	32820	32826	
404	0	32820	32826	
405	0	32816	32775	
406	0	32824	32739	
407	0	32844	32806	
408	0	32768	32734	
409	0	32849	32672	
410	0	32820	32800	
411	0	32784	32736	
412	0	32804	32838	
413	0	32800	32830	
414	0	32836	32750	
415	0	32748	32766	
416	0	32876	32832	
417	0	32768	32798	
418	0	32802	32748	
419	0	32852	32768	
420	0	32838	32758	
421	0	32786	32806	
422	0	32782	32820	
423	0	32828	32871	
424	0	32800	32676	
425	0	32816	32768	
426	0	32816	32762	
427	0	32804	32698	
428	0	32792	32775	
429	0	32780	32736	
430	0	32800	32672	
431	0	32864	32702	
432	0	32832	32886	
433	0	32768	32818	
434	0	32790	32887	
435	0	32792	32744	
436	0	32808	32775	
437	0	32776	32775	
438	0	32756	32836	
439	0	32808	32680	
440	0	32840	32768	
441	0	32808	32775	
442	0	32878	32775	
443	0	32908	32708	
444	0	32757	32738	
445	0	32780	32734	
446	0	32824	32775	
447	0	32880	32688	
448	0	32888	32694	
449	0	32804	32700	
450	0	32806	32827	
451	0	32902	32788	
452	0	32848	32854	
453	0	32782	32814	
454	0	32746	32742	
455	0	32836	32759	
456	0	32724	32876	
457	0	32796	32786	
458	0	32769	32682	
459	0	32828	32846	
460	0	32770	32836	
461	0	32788	32655	
462	0	32802	32788	
463	0	32814	32710	
464	0	32850	32798	
465	0	32804	32892	
466	0	32824	32742	
467	0	32812	32786	
468	0	32852	32820	
469	0	32848	32708	
470	0	32868	32720	
471	0	32844	32806	
472	0	32822	32734	
473	0	32750	32852	
474	0	32776	32826	
475	0	32748	32720	
476	0	32864	32728	
477	0	32740	32702	
478	0	32808	32838	
479	0	32814	32742	
480	0	32762	32775	
481	0	32810	32768	
482	0	32784	32792	
483	0	32880	32708	
484	0	32832	32754	
485	0	32908	32816	
486	0	32884	32844	
487	0	32834	32700	
488	0	32844	32775	
489	0	32864	32711	
490	0	32848	32698	
491	0	32798	32748	
492	0	32790	32808	
493	0	32824	32806	
494	0	32830	32826	
495	0	32770	32810	
496	0	32782	32724	
497	0	32826	32712	
498	0	32752	32764	
499	0	32820	32775	
500	0	32708	32764	
501	0	32770	32711	
502	0	32768	32756	
503	0	32820	32864	
504	0	32764	32632	
505	0	32852	32732	
506	0	32775	32814	
507	0	32792	32720	
508	0	32752	32862	
509	0	32792	32808	
510	0	32820	32775	
511	0	32820	32722	
512	0	32876	32788	
513	0	32832	32828	
514	0	32864	32806	
515	0	32824	32714	
516	0	32830	32758	
517	0	32816	32692	
518	0	32824	32871	
519	0	32784	32784	
520	0	32876	32756	
521	0	32780	32774	
522	0	32792	32708	
523	0	32780	32591	
524	0	32764	32700	
525	0	32768	32662	
526	0	32798	32789	
527	0	32835	32790	
528	0	32820	32742	
529	0	32768	32784	
530	0	32840	32863	
531	0	32836	32714	
532	0	32756	32769	
533	0	32820	32774	
534	0	32808	32824	
535	0	32782	32807	
536	0	32782	32774	
537	0	32804	32746	
538	0	32842	32758	
539	0	32856	32762	
540	0	32884	32710	
541	0	32824	32682	
542	0	32852	32830	
543	0	32830	32758	
544	0	32802	32738	
545	0	32826	32856	
546	0	32804	32852	
547	0	32836	32692	
548	0	32820	32674	
549	0	32784	32830	
550	0	32828	32832	
551	0	32782	32744	
552	0	32788	32764	
553	0	32770	32862	
554	0	32800	32716	
555	0	32812	32708	
556	0	32804	32774	
557	0	32834	32800	
558	0	32848	32790	
559	0	32782	32750	
560	0	32812	32816	
561	0	32854	32756	
562	0	32780	32824	
563	0	32800	32886	
564	0	32754	32716	
565	0	32792	32670	
566	0	32856	32704	
567	0	32814	32798	
568	0	32864	32786	
569	0	32796	32810	
570	0	32844	32750	
571	0	32874	32836	
572	0	32808	32743	
573	0	32808	32746	
574	0	32820	32748	
575	0	32812	32820	
576	0	32810	32716	
577	0	32748	32786	
578	0	32768	32775	
579	0	32784	32823	
580	0	32794	32744	
581	0	32768	32704	
582	0	32856	32720	
583	0	32786	32826	
584	0	32828	32844	
585	0	32830	32714	
586	0	32806	32756	
587	0	32750	32818	
588	0	32806	32806	
589	0	32838	32704	
590	0	32788	32710	
591	0	32780	32850	
592	0	32824	32801	
593	0	32820	32764	
594	0	32840	32775	
595	0	32908	32775	
596	0	32860	32742	
597	0	32804	32858	
598	0	32846	32812	
599	0	32778	32768	
600	0	32804	32864	
601	0	32788	32719	
602	0	32836	32688	
603	0	32848	32684	
604	0	32840	32860	
605	0	32780	32703	
606	0	32814	32716	
607	0	32804	32710	
608	0	32830	32791	
609	0	32772	32805	
610	0	32816	32834	
611	0	32789	32738	
612	0	32808	32706	
613	0	32816	32656	
614	0	32788	32766	
615	0	32804	32791	
616	0	32816	32818	
617	0	32856	32740	
618	0	32868	32775	
619	0	32864	32798	
620	0	32796	32732	
621	0	32864	32706	
622	0	32762	32734	
623	0	32804	32804	
624	0	32822	32775	
625	0	32844	32711	
626	0	32864	32843	
627	0	32824	32839	
628	0	32802	32652	
629	0	32820	32682	
630	0	32800	32820	
631	0	32800	32834	
632	0	32864	32831	
633	0	32832	32758	
634	0	32804	32839	
635	0	32808	32830	
636	0	32822	32810	
637	0	32810	32830	
638	0	32884	32758	
639	0	32892	32790	
640	0	32712	32794	
641	0	32782	32678	
642	0	32876	32692	
643	0	32820	32830	
644	0	32756	32706	
645	0	32780	32806	
646	0	32864	32775	
647	0	32808	32816	
648	0	32784	32711	
649	0	32848	32710	
650	0	32814	32788	
651	0	32872	32832	
652	0	32822	32814	
653	0	32864	32815	
654	0	32864	32758	
655	0	32818	32858	
656	0	32768	32727	
657	0	32812	32794	
658	0	32812	32748	
659	0	32760	32764	
660	0	32774	32816	
661	0	32772	32822	
662	0	32818	32768	
663	0	32836	32739	
664	0	32798	32710	
665	0	32872	32694	
666	0	32841	32748	
667	0	32856	32858	
668	0	32772	32774	
669	0	32760	32775	
670	0	32816	32818	
671	0	32780	32674	
672	0	32868	32744	
673	0	32810	32684	
674	0	32868	32714	
675	0	32820	32810	
676	0	32794	32810	
677	0	32812	32750	
678	0	32772	32818	
679	0	32790	32774	
680	0	32808	32744	
681	0	32824	32708	
682	0	32786	32734	
683	0	32798	32708	
684	0	32816	32774	
685	0	32826	32770	
686	0	32844	32806	
687	0	32924	32664	
688	0	32840	32742	
689	0	32804	32772	
690	0	32812	32879	
691	0	32806	32812	
692	0	32784	32775	
693	0	32828	32784	
694	0	32760	32696	
695	0	32820	32762	
696	0	32828	32914	
697	0	32812	32758	
698	0	32800	32704	
699	0	32796	32758	
700	0	32800	32826	
701	0	32836	32830	
702	0	32782	32772	
703	0	32816	32746	
704	0	32830	32704	
705	0	32840	32694	
706	0	32808	32775	
707	0	32852	32757	
708	0	32786	32774	
709	0	32798	32700	
710	0	32790	32799	
711	0	32839	32790	
712	0	32848	32678	
713	0	32792	32732	
714	0	32820	32800	
715	0	32812	32850	
716	0	32806	32812	
717	0	32788	32715	
718	0	32792	32711	
719	0	32838	32708	
720	0	32828	32820	
721	0	32744	32880	
722	0	32776	32822	
723	0	32784	32703	
724	0	32804	32682	
725	0	32840	32748	
726	0	32716	32830	
727	0	32806	32748	
728	0	32772	32852	
729	0	32794	32775	
730	0	32808	32766	
731	0	32882	32832	
732	0	32768	32828	
733	0	32792	32799	
734	0	32834	32814	
735	0	32820	32770	
736	0	32764	32706	
737	0	32854	32775	
738	0	32780	32736	
739	0	32817	32738	
740	0	32826	32673	
741	0	32860	32732	
742	0	32832	32663	
743	0	32844	32828	
744	0	32852	32824	
745	0	32776	32747	
746	0	32764	32800	
747	0	32812	32858	
748	0	32828	32818	
749	0	32817	32775	
750	0	32852	32808	
751	0	32812	32791	
752	0	32784	32839	
753	0	32810	32680	
754	0	32788	32694	
755	0	32788	32744	
756	0	32804	32822	
757	0	32804	32784	
758	0	32836	32782	
759	0	32860	32712	
760	0	32896	32811	
761	0	32776	32702	
762	0	32822	32662	
763	0	32806	32694	
764	0	32804	32812	
765	0	32788	32804	
766	0	32892	32838	
767	0	32836	32876	
768	0	32816	32826	
769	0	32834	32732	
770	0	32790	32679	
771	0	32784	32884	
772	0	32800	32768	
773	0	32800	32831	
774	0	32820	32736	
775	0	32776	32742	
776	0	32730	32758	
777	0	32824	32758	
778	0	32782	32871	
779	0	32876	32672	
780	0	32804	32700	
781	0	32756	32806	
782	0	32812	32808	
783	0	32808	32820	
784	0	32764	32728	
785	0	32836	32874	
786	0	32756	32702	
787	0	32776	32750	
788	0	32796	32668	
789	0	32836	32788	
790	0	32834	32764	
791	0	32836	32800	
792	0	32882	32806	
793	0	32798	32922	
794	0	32816	32726	
795	0	32800	32770	
796	0	32828	32764	
797	0	32752	32852	
798	0	32772	32806	
799	0	32742	32836	
800	0	32768	32788	
801	0	32864	32693	
802	0	32832	32742	
803	0	32740	32684	
804	0	32840	32766	
805	0	32832	32830	
806	0	32792	32775	
807	0	32812	32814	
808	0	32780	32730	
809	0	32836	32698	
810	0	32800	32674	
811	0	32798	32702	
812	0	32774	32858	
813	0	32810	32842	
814	0	32818	32791	
815	0	32798	32833	
816	0	32864	32785	
817	0	32838	32804	
818	0	32740	32741	
819	0	32868	32775	
820	0	32816	32796	
821	0	32814	32800	
822	0	32844	32692	
823	0	32816	32740	
824	0	32838	32750	
825	0	32840	32790	
826	0	32820	32760	
827	0	32808	32772	
828	0	32792	32825	
829	0	32802	32702	
830	0	32816	32654	
831	0	32780	32764	
832	0	32844	32766	
833	0	32836	32868	
834	0	32852	32775	
835	0	32816	32810	
836	0	32804	32734	
837	0	32816	32752	
838	0	32852	32772	
839	0	32840	32734	
840	0	32834	32854	
841	0	32804	32810	
842	0	32790	32834	
843	0	32756	32756	
844	0	32896	32798	
845	0	32760	32647	
846	0	32772	32748	
847	0	32816	32858	
848	0	32785	32754	
849	0	32752	32812	
850	0	32858	32711	
851	0	32782	32774	
852	0	32844	32788	
853	0	32806	32756	
854	0	32788	32718	
855	0	32780	32734	
856	0	32850	32804	
857	0	32760	32775	
858	0	32788	32832	
859	0	32810	32738	
860	0	32842	32652	
861	0	32776	32734	
862	0	32800	32756	
863	0	32824	32816	
864	0	32778	32828	
865	0	32808	32838	
866	0	32848	32814	
867	0	32800	32734	
868	0	32894	32692	
869	0	32860	32668	
870	0	32850	32775	
871	0	32824	32807	
872	0	32774	32774	
873	0	32837	32852	
874	0	32880	32826	
875	0	32838	32824	
876	0	32780	32720	
877	0	32792	32700	
878	0	32830	32665	
879	0	32804	32756	
880	0	32768	32850	
881	0	32812	32772	
882	0	32848	32860	
883	0	32858	32794	
884	0	32824	32886	
885	0	32838	32674	
886	0	32796	32859	
887	0	32816	32831	
888	0	32774	32772	
889	0	32764	32716	
890	0	32748	32830	
891	0	32802	32726	
892	0	32834	32616	
893	0	32752	32742	
894	0	32772	32820	
895	0	32780	32788	
896	0	32874	32834	
897	0	32784	32807	
898	0	32762	32854	
899	0	32766	32678	
900	0	32816	32788	
901	0	32800	32902	
902	0	32808	32674	
903	0	32826	32708	
904	0	32826	32690	
905	0	32780	32742	
906	0	32776	32728	
907	0	32862	32839	
908	0	32800	32750	
909	0	32848	32697	
910	0	32799	32746	
911	0	32852	32799	
912	0	32760	32879	
913	0	32880	32810	
914	0	32876	32732	
915	0	32776	32644	
916	0	32820	32706	
917	0	32788	32796	
918	0	32768	32762	
919	0	32754	32882	
920	0	32784	32810	
921	0	32796	32835	
922	0	32748	32756	
923	0	32842	32664	
924	0	32838	32775	
925	0	32834	32775	
926	0	32870	32856	
927	0	32844	32796	
928	0	32828	32770	
929	0	32832	32770	
930	0	32864	32718	
931	0	32800	32775	
932	0	32892	32800	
933	0	32800	32855	
934	0	32810	32798	
935	0	32788	32746	
936	0	32760	32772	
937	0	32792	32678	
938	0	32824	32762	
939	0	32800	32814	
940	0	32840	32844	
941	0	32906	32740	
942	0	32834	32660	
943	0	32816	32716	
944	0	32836	32648	
945	0	32784	32804	
946	0	32808	32688	
947	0	32846	32774	
948	0	32816	32638	
949	0	32814	32775	
950	0	32810	32842	
951	0	32856	32804	
952	0	32840	32775	
953	0	32952	32806	
954	0	32848	32775	
955	0	32852	32702	
956	0	32866	32759	
957	0	32780	32788	
958	0	32792	32775	
959	0	32764	32812	
960	0	32856	32757	
961	0	32752	32770	
962	0	32796	32742	
963	0	32780	32802	
964	0	32836	32808	
965	0	32786	32839	
966	0	32812	32742	
967	0	32816	32842	
968	0	32839	32692	
969	0	32740	32734	
970	0	32832	32740	
971	0	32748	32788	
972	0	32772	32760	
973	0	32728	32716	
974	0	32808	32692	
975	0	32778	32624	
976	0	32746	32720	
977	0	32748	32578	
978	0	32708	32654	
979	0	32670	32627	
980	0	32812	32642	
981	0	32768	32609	
982	0	32764	32743	
983	0	32801	32716	
984	0	32670	32622	
985	0	32698	32711	
986	0	32724	32756	
987	0	32705	32654	
988	0	32798	32756	
989	0	32784	32733	
990	0	32898	32738	
991	0	32838	32775	
992	0	32848	32818	
993	0	32864	32772	
994	0	32896	32687	
995	0	32976	32790	
996	0	33008	32802	
997	0	33036	32890	
998	0	33024	33088	
999	0	33116	33016	
1000	0	33116	33220	
1001	0	33050	33190	
1002	0	33104	33122	
1003	0	32984	33156	
1004	0	32916	33124	
1005	0	32894	33004	
1006	0	32796	32975	
1007	0	32802	32892	
1008	0	32684	32707	
1009	0	32692	32678	
1010	0	32652	32518	
1011	0	32632	32660	
1012	0	32708	32644	
1013	0	32698	32654	
1014	0	32704	32680	
1015	0	32736	32630	
1016	0	32720	32614	
1017	0	32682	32559	
1018	0	32728	32668	
1019	0	32734	32646	
1020	0	32736	32798	
1021	0	32722	32698	
1022	0	32768	32756	
1023	0	32784	32724	
1024	0	32822	32710	
1025	0	32748	32680	
1026	0	32776	32672	
1027	0	32728	32750	
1028	0	32740	32712	
1029	0	32775	32734	
1030	0	32776	32810	
1031	0	32830	32823	
1032	0	32756	32839	
1033	0	32944	32728	
1034	0	32832	32718	
1035	0	32816	32727	
1036	0	32832	32838	
1037	0	32894	32867	
1038	0	32828	32879	
1039	0	32860	32723	
1040	0	32752	32788	
1041	0	32840	32822	
1042	0	32746	32774	
1043	0	32828	32814	
1044	0	32808	32754	
1045	0	32832	32878	
1046	0	32760	32711	
1047	0	32878	32816	
1048	0	32816	32704	
1049	0	32836	32794	
1050	0	32840	32790	
1051	0	32742	32838	
1052	0	32810	32774	
1053	0	32800	32724	
1054	0	32846	32732	
1055	0	32740	32676	
1056	0	32788	32803	
1057	0	32852	32754	
1058	0	32804	32810	
1059	0	32792	32748	
1060	0	32832	32732	
1061	0	32784	32791	
1062	0	32765	32714	
1063	0	32818	32786	
1064	0	32848	32845	
1065	0	32836	32792	
1066	0	32814	32836	
1067	0	32824	32676	
1068	0	32816	32830	
1069	0	32750	32795	
1070	0	32826	32855	
1071	0	32780	32696	
1072	0	32804	32762	
1073	0	32840	32796	
1074	0	32816	32647	
1075	0	32862	32672	
1076	0	32776	32760	
1077	0	32780	32745	
1078	0	32792	32790	
1079	0	32804	32686	
1080	0	32832	32730	
1081	0	32828	32698	
1082	0	32832	32842	
1083	0	32800	32727	
1084	0	32834	32728	
1085	0	32804	32702	
1086	0	32828	32834	
1087	0	32788	32766	
1088	0	32768	32775	
1089	0	32828	32762	
1090	0	32824	32775	
1091	0	32826	32775	
1092	0	32804	32794	
1093	0	32788	32712	
1094	0	32780	32878	
1095	0	32770	32662	
1096	0	32824	32636	
1097	0	32784	32826	
1098	0	32816	32775	
1099	0	32804	32784	
1100	0	32826	32743	
1101	0	32768	32898	
1102	0	32804	32686	
1103	0	32848	32702	
1104	0	32816	32737	
1105	0	32800	32775	
1106	0	32888	32820	
1107	0	32852	32848	
1108	0	32806	32848	
1109	0	32904	32712	
1110	0	32900	32724	
1111	0	32790	32792	
1112	0	32824	32788	
1113	0	32768	32796	
1114	0	32806	32804	
1115	0	32780	32834	
1116	0	32806	32684	
1117	0	32832	32657	
1118	0	32780	32688	
1119	0	32888	32684	
1120	0	32820	32798	
1121	0	32860	32807	
1122	0	32714	32762	
1123	0	32820	32656	
1124	0	32808	32736	
1125	0	32776	32806	
1126	0	32920	32775	
1127	0	32874	32774	
1128	0	32836	32640	
1129	0	32812	32689	
1130	0	32756	32752	
1131	0	32848	32760	
1132	0	32800	32750	
1133	0	32880	32766	
1134	0	32802	32745	
1135	0	32792	32753	
1136	0	32846	32734	
1137	0	32816	32680	
1138	0	32808	32647	
1139	0	32800	32916	
1140	0	32858	32812	
1141	0	32776	32830	
1142	0	32900	32792	
1143	0	32872	32796	
1144	0	32804	32775	
1145	0	32782	32826	
1146	0	32804	32724	
1147	0	32816	32714	
1148	0	32820	32712	
1149	0	32778	32778	
1150	0	32794	32772	
1151	0	32758	32732	
1152	0	32842	32756	
1153	0	32778	32743	
1154	0	32792	32814	
1155	0	32788	32806	
1156	0	32848	32828	
1157	0	32816	32798	
1158	0	32808	32646	
1159	0	32768	32884	
1160	0	32792	32721	
1161	0	32848	32852	
1162	0	32804	32716	
1163	0	32788	32794	
1164	0	32796	32822	
1165	0	32892	32679	
1166	0	32836	32743	
1167	0	32808	32756	
1168	0	32784	32732	
1169	0	32736	32738	
1170	0	32736	32688	
1171	0	32832	32734	
1172	0	32804	32818	
1173	0	32848	32862	
1174	0	32818	32775	
1175	0	32800	32724	
1176	0	32832	32846	
1177	0	32808	32839	
1178	0	32804	32806	
1179	0	32804	32752	
1180	0	32884	32678	
1181	0	32900	32852	
1182	0	32808	32720	
1183	0	32780	32752	
1184	0	32828	32871	
1185	0	32808	32743	
1186	0	32824	32732	
1187	0	32778	32724	
1188	0	32796	32788	
1189	0	32812	32862	
1190	0	32898	32768	
1191	0	32772	32788	
1192	0	32836	32794	
1193	0	32790	32774	
1194	0	32816	32748	
1195	0	32842	32697	
1196	0	32820	32766	
1197	0	32808	32806	
1198	0	32790	32848	
1199	0	32806	32828	
1200	0	32840	32812	
1201	0	32832	32798	
1202	0	32844	32752	
1203	0	32820	32775	
1204	0	32820	32750	
1205	0	32848	32726	
1206	0	32800	32853	
1207	0	32790	32710	
1208	0	32798	32739	
1209	0	32782	32743	
1210	0	32798	32796	
1211	0	32816	32913	
1212	0	32812	32830	
1213	0	32764	32766	
1214	0	32824	32879	
1215	0	32770	32775	
1216	0	32824	32878	
1217	0	32852	32647	
1218	0	32788	32698	
1219	0	32804	32694	
1220	0	32816	32826	
1221	0	32800	32828	
1222	0	32782	32828	
1223	0	32758	32688	
1224	0	32852	32766	
1225	0	32840	32810	
1226	0	32848	32758	
1227	0	32852	32804	
1228	0	32804	32744	
1229	0	32822	32775	
1230	0	32806	32807	
1231	0	32880	32898	
1232	0	32792	32732	
1233	0	32812	32730	
1234	0	32906	32702	
1235	0	32784	32644	
1236	0	32746	32712	
1237	0	32874	32725	
1238	0	32788	32770	
1239	0	32808	32746	
1240	0	32836	32834	
1241	0	32890	32852	
1242	0	32856	32834	
1243	0	32824	32764	
1244	0	32732	32718	
1245	0	32848	32744	
1246	0	32856	32826	
1247	0	32801	32724	
1248	0	32808	32836	
1249	0	32794	32764	
1250	0	32796	32680	
1251	0	32794	32764	
1252	0	32792	32655	
1253	0	32828	32828	
1254	0	32774	32743	
1255	0	32800	32852	
1256	0	32782	32808	
1257	0	32826	32726	
1258	0	32868	32804	
1259	0	32912	32772	
1260	0	32806	32728	
1261	0	32820	32738	
1262	0	32792	32666	
1263	0	32872	32822	
1264	0	32832	32808	
1265	0	32804	32703	
1266	0	32856	32774	
1267	0	32804	32828	
1268	0	32824	32686	
1269	0	32762	32745	
1270	0	32776	32796	
1271	0	32810	32727	
1272	0	32774	32742	
1273	0	32776	32824	
1274	0	32824	32824	
1275	0	32816	32772	
1276	0	32834	32692	
1277	0	32876	32754	
1278	0	32848	32788	
1279	0	32752	32732	
1280	0	32780	32756	
1281	0	32840	32790	
1282	0	32884	32636	
1283	0	32844	32847	
1284	0	32908	32788	
1285	0	32806	32647	
1286	0	32792	32814	
1287	0	32796	32762	
1288	0	32808	32660	
1289	0	32780	32775	
1290	0	32760	32846	
1291	0	32753	32839	
1292	0	32840	32770	
1293	0	32790	32738	
1294	0	32804	32873	
1295	0	32776	32743	
1296	0	32792	32775	
1297	0	32864	32766	
1298	0	32870	32848	
1299	0	32764	32820	
1300	0	32776	32624	
1301	0	32822	32792	
1302	0	32888	32696	
1303	0	32834	32775	
1304	0	32778	32745	
1305	0	32778	32824	
1306	0	32832	32712	
1307	0	32864	32828	
1308	0	32860	32720	
1309	0	32754	32831	
1310	0	32784	32716	
1311	0	32800	32772	
1312	0	32762	32759	
1313	0	32808	32716	
1314	0	32728	32852	
1315	0	32854	32662	
1316	0	32776	32736	
1317	0	32780	32788	
1318	0	32804	32806	
1319	0	32750	32702	
1320	0	32824	32812	
1321	0	32820	32818	
1322	0	32744	32730	
1323	0	32800	32700	
1324	0	32792	32830	
1325	0	32716	32790	
1326	0	32828	32839	
1327	0	32840	32711	
1328	0	32810	32668	
1329	0	32852	32762	
1330	0	32836	32890	
1331	0	32752	32808	
1332	0	32796	32775	
1333	0	32862	32794	
1334	0	32728	32818	
1335	0	32828	32798	
1336	0	32832	32716	
1337	0	32858	32799	
1338	0	32894	32740	
1339	0	32816	32734	
1340	0	32810	32708	
1341	0	32846	32714	
1342	0	32796	32775	
1343	0	32848	32780	
1344	0	32800	32792	
1345	0	32814	32762	
1346	0	32752	32878	
1347	0	32773	32902	
1348	0	32758	32689	
1349	0	32832	32768	
1350	0	32780	32624	
1351	0	32768	32775	
1352	0	32876	32742	
1353	0	32824	32832	
1354	0	32808	32814	
1355	0	32808	32838	
1356	0	32870	32834	
1357	0	32790	32664	
1358	0	32762	32724	
1359	0	32840	32756	
1360	0	32800	32815	
1361	0	32852	32770	
1362	0	32832	32775	
1363	0	32842	32738	
1364	0	32766	32698	
1365	0	32820	32733	
1366	0	32826	32812	
1367	0	32804	32740	
1368	0	32820	32768	
1369	0	32858	32748	
1370	0	32784	32704	
1371	0	32852	32760	
1372	0	32796	32810	
1373	0	32774	32807	
1374	0	32764	32804	
1375	0	32824	32732	
1376	0	32776	32686	
1377	0	32840	32807	
1378	0	32828	32725	
1379	0	32776	32762	
1380	0	32858	32871	
1381	0	32828	32679	
1382	0	32812	32746	
1383	0	32788	32800	
1384	0	32810	32743	
1385	0	32800	32790	
1386	0	32780	32794	
1387	0	32820	32719	
1388	0	32852	32580	
1389	0	32866	32816	
1390	0	32816	32800	
1391	0	32814	32775	
1392	0	32780	32792	
1393	0	32808	32839	
1394	0	32778	32791	
1395	0	32864	32689	
1396	0	32808	32764	
1397	0	32768	32802	
1398	0	32840	32774	
1399	0	32818	32770	
1400	0	32868	32788	
1401	0	32796	32798	
1402	0	32856	32740	
1403	0	32852	32674	
1404	0	32842	32702	
1405	0	32853	32760	
1406	0	32834	32884	
1407	0	32826	32766	
1408	0	32838	32820	
1409	0	32776	32798	
1410	0	32736	32775	
1411	0	32798	32822	
1412	0	32732	32804	
1413	0	32788	32792	
1414	0	32822	32796	
1415	0	32812	32662	
1416	0	32784	32692	
1417	0	32834	32790	
1418	0	32766	32830	
1419	0	32770	32724	
1420	0	32816	32801	
1421	0	32792	32808	
1422	0	32764	32832	
1423	0	32712	32752	
1424	0	32808	32708	
1425	0	32762	32660	
1426	0	32880	32799	
1427	0	32828	32804	
1428	0	32828	32864	
1429	0	32824	32858	
1430	0	32840	32874	
1431	0	32836	32826	
1432	0	32920	32860	
1433	0	32912	32794	
1434	0	32806	32812	
1435	0	32738	32800	
1436	0	32830	32737	
1437	0	32780	32692	
1438	0	32820	32756	
1439	0	32836	32714	
1440	0	32770	32802	
1441	0	32834	32870	
1442	0	32872	32807	
1443	0	32752	32674	
1444	0	32760	32711	
1445	0	32840	32775	
1446	0	32782	32750	
1447	0	32820	32730	
1448	0	32752	32852	
1449	0	32746	32911	
1450	0	32768	32804	
1451	0	32800	32892	
1452	0	32828	32775	
1453	0	32852	32804	
1454	0	32730	32734	
1455	0	32796	32798	
1456	0	32764	32839	
1457	0	32857	32741	
1458	0	32844	32718	
1459	0	32864	32656	
1460	0	32808	32739	
1461	0	32784	32678	
1462	0	32902	32697	
1463	0	32852	32770	
1464	0	32800	32730	
1465	0	32852	32872	
1466	0	32780	32855	
1467	0	32816	32804	
1468	0	32792	32762	
1469	0	32850	32754	
1470	0	32768	32775	
1471	0	32852	32808	
1472	0	32761	32757	
1473	0	32780	32871	
1474	0	32796	32766	
1475	0	32802	32674	
1476	0	32772	32775	
1477	0	32828	32654	
1478	0	32808	32725	
1479	0	32788	32775	
1480	0	32816	32708	
1481	0	32856	32810	
1482	0	32858	32768	
1483	0	32840	32828	
1484	0	32820	32767	
1485	0	32818	32807	
1486	0	32772	32665	
1487	0	32860	32738	
1488	0	32742	32832	
1489	0	32792	32871	
1490	0	32834	32804	
1491	0	32868	32739	
1492	0	32788	32850	
1493	0	32798	32720	
1494	0	32832	32810	
1495	0	32816	32712	
1496	0	32816	32772	
1497	0	32800	32764	
1498	0	32788	32826	
1499	0	32796	32719	
1500	0	32704	32828	
1501	0	32778	32750	
1502	0	32764	32734	
1503	0	32816	32764	
1504	0	32832	32720	
1505	0	32868	32740	
1506	0	32834	32736	
1507	0	32812	32828	
1508	0	32776	32794	
1509	0	32785	32724	
1510	0	32881	32846	
1511	0	32920	32743	
1512	0	32822	32812	
1513	0	32792	32772	
1514	0	32778	32732	
1515	0	32892	32839	
1516	0	32816	32762	
1517	0	32832	32696	
1518	0	32770	32800	
1519	0	32836	32870	
1520	0	32792	32710	
1521	0	32840	32726	
1522	0	32844	32775	
1523	0	32832	32718	
1524	0	32834	32772	
1525	0	32836	32855	
1526	0	32756	32794	
1527	0	32812	32775	
1528	0	32736	32746	
1529	0	32774	32647	
1530	0	32864	32660	
1531	0	32760	32796	
1532	0	32822	32799	
1533	0	32856	32735	
1534	0	32816	32734	
1535	0	32818	32695	
1536	0	32824	32775	
1537	0	32756	32820	
1538	0	32832	32738	
1539	0	32796	32707	
1540	0	32812	32775	
1541	0	32872	32721	
1542	0	32808	32656	
1543	0	32804	32642	
1544	0	32828	32788	
1545	0	32804	32774	
1546	0	32780	32775	
1547	0	32776	32878	
1548	0	32800	32721	
1549	0	32822	32775	
1550	0	32792	32738	
1551	0	32820	32736	
1552	0	32856	32828	
1553	0	32780	32814	
1554	0	32784	32806	
1555	0	32856	32798	
1556	0	32780	32798	
1557	0	32816	32734	
1558	0	32812	32732	
1559	0	32868	32774	
1560	0	32844	32764	
1561	0	32838	32775	
1562	0	32784	32786	
1563	0	32812	32788	
1564	0	32792	32724	
1565	0	32832	32636	
1566	0	32834	32766	
1567	0	32860	32754	
1568	0	32844	32828	
1569	0	32828	32704	
1570	0	32780	32798	
1571	0	32834	32734	
1572	0	32784	32800	
1573	0	32748	32748	
1574	0	32798	32736	
1575	0	32800	32760	
1576	0	32804	32852	
1577	0	32744	32901	
1578	0	32832	32774	
1579	0	32800	32775	
1580	0	32796	32634	
1581	0	32780	32734	
1582	0	32820	32858	
1583	0	32800	32796	
1584	0	32816	32816	
1585	0	32848	32668	
1586	0	32792	32746	
1587	0	32818	32782	
1588	0	32848	32762	
1589	0	32816	32790	
1590	0	32852	32738	
1591	0	32786	32823	
1592	0	32832	32868	
1593	0	32769	32788	
1594	0	32808	32798	
1595	0	32840	32826	
1596	0	32816	32846	
1597	0	32836	32766	
1598	0	32804	32756	
1599	0	32798	32756	
1600	0	32780	32732	
1601	0	32772	32732	
1602	0	32830	32738	
1603	0	32804	32704	
1604	0	32848	32647	
1605	0	32794	32824	
1606	0	32768	32798	
1607	0	32824	32798	
1608	0	32846	32831	
1609	0	32876	32722	
1610	0	32872	32738	
1611	0	32858	32718	
1612	0	32768	32800	
1613	0	32825	32742	
1614	0	32836	32775	
1615	0	32724	32832	
1616	0	32774	32658	
1617	0	32748	32672	
1618	0	32780	32750	
1619	0	32775	32764	
1620	0	32804	32810	
1621	0	32852	32766	
1622	0	32816	32775	
1623	0	32856	32788	
1624	0	32788	32712	
1625	0	32868	32802	
1626	0	32812	32766	
1627	0	32840	32816	
1628	0	32840	32858	
1629	0	32868	32736	
1630	0	32773	32712	
1631	0	32840	32822	
1632	0	32820	32832	
1633	0	32820	32792	
1634	0	32864	32734	
1635	0	32808	32920	
1636	0	32784	32757	
1637	0	32834	32692	
1638	0	32786	32638	
1639	0	32844	32764	
1640	0	32746	32772	
1641	0	32784	32772	
1642	0	32844	32721	
1643	0	32716	32871	
1644	0	32828	32775	
1645	0	32796	32721	
1646	0	32742	32775	
1647	0	32804	32788	
1648	0	32812	32775	
1649	0	32852	32796	
1650	0	32894	32772	
1651	0	32872	32748	
1652	0	32848	32844	
1653	0	32832	32722	
1654	0	32808	32796	
1655	0	32816	32687	
1656	0	32820	32698	
1657	0	32896	32756	
1658	0	32810	32754	
1659	0	32794	32764	
1660	0	32770	32732	
1661	0	32768	32720	
1662	0	32792	32766	
1663	0	32826	32840	
1664	0	32838	32878	
1665	0	32816	32688	
1666	0	32842	32882	
1667	0	32836	32794	
1668	0	32768	32710	
1669	0	32834	32806	
1670	0	32764	32710	
1671	0	32826	32736	
1672	0	32814	32878	
1673	0	32828	32816	
1674	0	32800	32854	
1675	0	32812	32670	
1676	0	32782	32775	
1677	0	32780	32846	
1678	0	32852	32794	
1679	0	32842	32775	
1680	0	32746	32732	
1681	0	32832	32792	
1682	0	32848	32690	
1683	0	32814	32716	
1684	0	32856	32839	
1685	0	32796	32668	
1686	0	32824	32844	
1687	0	32836	32775	
1688	0	32770	32775	
1689	0	32848	32708	
1690	0	32814	32752	
1691	0	32812	32798	
1692	0	32818	32814	
1693	0	32832	32742	
1694	0	32812	32696	
1695	0	32796	32716	
1696	0	32810	32734	
1697	0	32772	32711	
1698	0	32780	32834	
1699	0	32812	32758	
1700	0	32852	32726	
1701	0	32792	32834	
1702	0	32806	32820	
1703	0	32824	32726	
1704	0	32852	32792	
1705	0	32824	32802	
1706	0	32764	32751	
1707	0	32864	32807	
1708	0	32796	32632	
1709	0	32820	32708	
1710	0	32836	32775	
1711	0	32808	32808	
1712	0	32770	32822	
1713	0	32826	32807	
1714	0	32784	32726	
1715	0	32804	32802	
1716	0	32790	32802	
1717	0	32762	32804	
1718	0	32776	32682	
1719	0	32816	32775	
1720	0	32796	32824	
1721	0	32884	32764	
1722	0	32840	32807	
1723	0	32806	32710	
1724	0	32792	32726	
1725	0	32842	32762	
1726	0	32856	32820	
1727	0	32816	32728	
1728	0	32804	32802	
1729	0	32804	32753	
1730	0	32792	32824	
1731	0	32846	32672	
1732	0	32868	32816	
1733	0	32832	32738	
1734	0	32868	32748	
1735	0	32840	32840	
1736	0	32816	32728	
1737	0	32802	32692	
1738	0	32808	32786	
1739	0	32756	32823	
1740	0	32816	32734	
1741	0	32806	32823	
1742	0	32832	32788	
1743	0	32812	32676	
1744	0	32714	32860	
1745	0	32720	32761	
1746	0	32818	32854	
1747	0	32828	32808	
1748	0	32796	32818	
1749	0	32785	32824	
1750	0	32804	32753	
1751	0	32884	32854	
1752	0	32800	32814	
1753	0	32856	32839	
1754	0	32804	32716	
1755	0	32844	32670	
1756	0	32782	32720	
1757	0	32794	32768	
1758	0	32748	32718	
1759	0	32784	32802	
1760	0	32812	32618	
1761	0	32740	32551	
1762	0	32700	32612	
1763	0	32748	32714	
1764	0	32740	32722	
1765	0	32724	32686	
1766	0	32740	32640	
1767	0	32700	32630	
1768	0	32660	32580	
1769	0	32764	32646	
1770	0	32719	32740	
1771	0	32732	32764	
1772	0	32716	32636	
1773	0	32748	32696	
1774	0	32800	32740	
1775	0	32802	32738	
1776	0	32832	32775	
1777	0	32860	32750	
1778	0	32892	32678	
1779	0	32882	32711	
1780	0	32984	32792	
1781	0	33058	32802	
1782	0	33108	32846	
1783	0	33090	32928	
1784	0	33137	33114	
1785	0	33098	33242	
1786	0	33120	33162	
1787	0	33104	33286	
1788	0	32992	33274	
1789	0	32944	32994	
1790	0	32916	33012	
1791	0	32788	33007	
1792	0	32814	32920	
1793	0	32752	32924	
1794	0	32720	32678	
1795	0	32706	32561	
1796	0	32648	32670	
1797	0	32728	32566	
1798	0	32644	32535	
1799	0	32666	32578	
1800	0	32668	32460	
1801	0	32676	32631	
1802	0	32682	32535	
1803	0	32702	32699	
1804	0	32682	32744	
1805	0	32648	32769	
1806	0	32732	32706	
1807	0	32708	32678	
1808	0	32708	32725	
1809	0	32796	32647	
1810	0	32744	32754	
1811	0	32762	32754	
1812	0	32796	32678	
1813	0	32792	32752	
1814	0	32808	32736	
1815	0	32784	32804	
1816	0	32876	32709	
1817	0	32862	32743	
1818	0	32832	32823	
1819	0	32836	32695	
1820	0	32842	32824	
1821	0	32788	32614	
1822	0	32872	32742	
1823	0	32876	32740	
1824	0	32884	32800	
1825	0	32818	32738	
1826	0	32860	32736	
1827	0	32776	32760	
1828	0	32846	32823	
1829	0	32828	32767	
1830	0	32808	32744	
1831	0	32816	32790	
1832	0	32752	32775	
1833	0	32894	32843	
1834	0	32812	32804	
1835	0	32792	32724	
1836	0	32824	32750	
1837	0	32812	32820	
1838	0	32752	32720	
1839	0	32738	32752	
1840	0	32824	32736	
1841	0	32754	32751	
1842	0	32912	32738	
1843	0	32804	32832	
1844	0	32832	32734	
1845	0	32776	32782	
1846	0	32804	32800	
1847	0	32768	32736	
1848	0	32840	32788	
1849	0	32912	32762	
1850	0	32832	32748	
1851	0	32764	32746	
1852	0	32828	32775	
1853	0	32865	32772	
1854	0	32788	32716	
1855	0	32740	32770	
1856	0	32828	32708	
1857	0	32840	32772	
1858	0	32796	32767	
1859	0	32772	32807	
1860	0	32736	32804	
1861	0	32740	32732	
1862	0	32816	32775	
1863	0	32856	32750	
1864	0	32910	32880	
1865	0	32738	32808	
1866	0	32798	32676	
1867	0	32852	32774	
1868	0	32812	32714	
1869	0	32812	32772	
1870	0	32832	32743	
1871	0	32896	32818	
1872	0	32804	32758	
1873	0	32844	32795	
1874	0	32836	32750	
1875	0	32862	32775	
1876	0	32798	32850	
1877	0	32834	32647	
1878	0	32796	32775	
1879	0	32842	32814	
1880	0	32796	32830	
1881	0	32824	32816	
1882	0	32780	32703	
1883	0	32826	32792	
1884	0	32792	32852	
1885	0	32730	32678	
1886	0	32836	32712	
1887	0	32750	32728	
1888	0	32860	32826	
1889	0	32844	32836	
1890	0	32812	32764	
1891	0	32862	32742	
1892	0	32836	32798	
1893	0	32860	32766	
1894	0	32798	32750	
1895	0	32824	32775	
1896	0	32820	32660	
1897	0	32860	32812	
1898	0	32804	32810	
1899	0	32772	32752	
1900	0	32848	32752	
1901	0	32832	32732	
1902	0	32800	32719	
1903	0	32740	32734	
1904	0	32830	32816	
1905	0	32784	32820	
1906	0	32781	32684	
1907	0	32824	32790	
1908	0	32856	32712	
1909	0	32834	32800	
1910	0	32794	32746	
1911	0	32842	32684	
1912	0	32784	32721	
1913	0	32820	32684	
1914	0	32804	32744	
1915	0	32866	32775	
1916	0	32864	32823	
1917	0	32784	32801	
1918	0	32832	32876	
1919	0	32786	32792	
1920	0	32842	32694	
1921	0	32818	32816	
1922	0	32796	32782	
1923	0	32782	32772	
1924	0	32805	32814	
1925	0	32886	32688	
1926	0	32742	32708	
1927	0	32836	32768	
1928	0	32844	32850	
1929	0	32772	32808	
1930	0	32760	32692	
1931	0	32890	32898	
1932	0	32892	32789	
1933	0	32748	32638	
1934	0	32828	32775	
1935	0	32824	32730	
1936	0	32760	32822	
1937	0	32804	32768	
1938	0	32838	32656	
1939	0	32850	32742	
1940	0	32772	32690	
1941	0	32830	32762	
1942	0	32796	32704	
1943	0	32818	32824	
1944	0	32804	32814	
1945	0	32800	32601	
1946	0	32852	32802	
1947	0	32824	32743	
1948	0	32864	32793	
1949	0	32800	32856	
1950	0	32830	32889	
1951	0	32716	32874	
1952	0	32764	32679	
1953	0	32860	32670	
1954	0	32816	32702	
1955	0	32788	32764	
1956	0	32800	32766	
1957	0	32822	32760	
1958	0	32794	32722	
1959	0	32796	32712	
1960	0	32814	32728	
1961	0	32796	32734	
1962	0	32748	32788	
1963	0	32840	32746	
1964	0	32804	32802	
1965	0	32792	32636	
1966	0	32820	32794	
1967	0	32789	32788	
1968	0	32764	32743	
1969	0	32854	32756	
1970	0	32808	32838	
1971	0	32804	32706	
1972	0	32812	32775	
1973	0	32826	32768	
1974	0	32772	32788	
1975	0	32754	32868	
1976	0	32780	32672	
1977	0	32838	32775	
1978	0	32792	32818	
1979	0	32774	32799	
1980	0	32800	32790	
1981	0	32838	32734	
1982	0	32836	32771	
1983	0	32796	32863	
1984	0	32864	32744	
1985	0	32816	32796	
1986	0	32828	32670	
1987	0	32832	32788	
1988	0	32860	32791	
1989	0	32840	32702	
1990	0	32788	32842	
1991	0	32820	32766	
1992	0	32854	32753	
1993	0	32836	32658	
1994	0	32774	32756	
1995	0	32764	32810	
1996	0	32885	32692	
1997	0	32828	32792	
1998	0	32824	32734	
1999	0	32866	32712	
2000	0	32812	32806	
2001	0	32780	32775	
2002	0	32836	32775	
2003	0	32920	32818	
2004	0	32836	32798	
2005	0	32842	32754	
2006	0	32856	32782	
2007	0	32746	32748	
2008	0	32828	32831	
2009	0	32768	32710	
2010	0	32752	32740	
2011	0	32820	32796	
2012	0	32752	32816	
2013	0	32800	32826	
2014	0	32852	32812	
2015	0	32836	32794	
2016	0	32837	32761	
2017	0	32792	32838	
2018	0	32826	32612	
2019	0	32772	32750	
2020	0	32808	32618	
2021	0	32752	32794	
2022	0	32810	32775	
2023	0	32810	32830	
2024	0	32800	32720	
2025	0	32778	32827	
2026	0	32878	32820	
2027	0	32794	32805	
2028	0	32828	32824	
2029	0	32816	32830	
2030	0	32832	32775	
2031	0	32874	32828	
2032	0	32836	32732	
2033	0	32820	32818	
2034	0	32782	32724	
2035	0	32776	32738	
2036	0	32810	32772	
2037	0	32880	32638	
2038	0	32772	32742	
2039	0	32836	32748	
2040	0	32728	32871	
2041	0	32800	32732	
2042	0	32776	32792	
2043	0	32780	32743	
2044	0	32848	32830	
2045	0	32826	32820	
2046	0	32810	32668	
2047	0	32824	32752	
2048	0	32840	32789	
2049	0	32832	32766	
2050	0	32772	32810	
2051	0	32838	32744	
2052	0	32828	32689	
2053	0	32802	32790	
2054	0	32850	32748	
2055	0	32794	32836	
2056	0	32780	32740	
2057	0	32752	32663	
2058	0	32786	32816	
2059	0	32724	32784	
2060	0	32698	32852	
2061	0	32769	32696	
2062	0	32844	32718	
2063	0	32760	32762	
2064	0	32788	32732	
2065	0	32804	32821	
2066	0	32754	32684	
2067	0	32808	32700	
2068	0	32808	32826	
2069	0	32904	32788	
2070	0	32788	32814	
2071	0	32750	32620	
2072	0	32824	32790	
2073	0	32852	32854	
2074	0	32852	32807	
2075	0	32808	32766	
2076	0	32832	32736	
2077	0	32800	32828	
2078	0	32816	32824	
2079	0	32774	32810	
2080	0	32708	32704	
2081	0	32792	32750	
2082	0	32798	32706	
2083	0	32796	32830	
2084	0	32860	32880	
2085	0	32872	32690	
2086	0	32812	32838	
2087	0	32804	32775	
2088	0	32746	32720	
2089	0	32794	32806	
2090	0	32792	32806	
2091	0	32838	32838	
2092	0	32788	32792	
2093	0	32880	32794	
2094	0	32728	32912	
2095	0	32824	32714	
2096	0	32852	32862	
2097	0	32900	32750	
2098	0	32816	32828	
2099	0	32836	32752	
2100	0	32786	32804	
2101	0	32790	32772	
2102	0	32780	32820	
2103	0	32806	32722	
2104	0	32788	32742	
2105	0	32788	32770	
2106	0	32810	32738	
2107	0	32890	32719	
2108	0	32804	32770	
2109	0	32868	32722	
2110	0	32856	32724	
2111	0	32788	32783	
2112	0	32810	32804	
2113	0	32740	32710	
2114	0	32832	32718	
2115	0	32848	32844	
2116	0	32804	32810	
2117	0	32820	32702	
2118	0	32728	32844	
2119	0	32780	32826	
2120	0	32840	32722	
2121	0	32790	32844	
2122	0	32852	32767	
2123	0	32796	32676	
2124	0	32844	32766	
2125	0	32858	32830	
2126	0	32808	32854	
2127	0	32852	32692	
2128	0	32772	32759	
2129	0	32762	32876	
2130	0	32832	32644	
2131	0	32848	32762	
2132	0	32832	32828	
2133	0	32844	32660	
2134	0	32843	32738	
2135	0	32824	32812	
2136	0	32828	32724	
2137	0	32768	32804	
2138	0	32800	32812	
2139	0	32770	32678	
2140	0	32802	32887	
2141	0	32832	32788	
2142	0	32848	32674	
2143	0	32816	32806	
2144	0	32824	32902	
2145	0	32772	32682	
2146	0	32828	32768	
2147	0	32800	32775	
2148	0	32820	32702	
2149	0	32768	32775	
2150	0	32744	32748	
2151	0	32840	32719	
2152	0	32826	32804	
2153	0	32748	32814	
2154	0	32788	32729	
2155	0	32686	32834	
2156	0	32880	32788	
2157	0	32878	32814	
2158	0	32784	32775	
2159	0	32848	32807	
2160	0	32736	32692	
2161	0	32912	32840	
2162	0	32826	32758	
2163	0	32830	32766	
2164	0	32836	32830	
2165	0	32848	32866	
2166	0	32844	32743	
2167	0	32788	32807	
2168	0	32818	32736	
2169	0	32864	32696	
2170	0	32792	32864	
2171	0	32832	32724	
2172	0	32816	32735	
2173	0	32812	32820	
2174	0	32772	32756	
2175	0	32848	32839	
2176	0	32808	32734	
2177	0	32784	32775	
2178	0	32860	32796	
2179	0	32784	32716	
2180	0	32856	32729	
2181	0	32824	32807	
2182	0	32746	32655	
2183	0	32780	32774	
2184	0	32760	32842	
2185	0	32856	32660	
2186	0	32814	32814	
2187	0	32800	32790	
2188	0	32792	32826	
2189	0	32868	32718	
2190	0	32852	32844	
2191	0	32764	32798	
2192	0	32770	32735	
2193	0	32852	32908	
2194	0	32828	32799	
2195	0	32886	32678	
2196	0	32840	32734	
2197	0	32836	32706	
2198	0	32808	32791	
2199	0	32832	32784	
2200	0	32836	32748	
2201	0	32816	32794	
2202	0	32842	32774	
2203	0	32820	32952	
2204	0	32828	32694	
2205	0	32838	32702	
2206	0	32742	32812	
2207	0	32792	32738	
2208	0	32812	32716	
2209	0	32828	32740	
2210	0	32860	32754	
2211	0	32832	32766	
2212	0	32856	32863	
2213	0	32792	32775	
2214	0	32804	32688	
2215	0	32820	32736	
2216	0	32732	32820	
2217	0	32752	32710	
2218	0	32812	32774	
2219	0	32800	32770	
2220	0	32816	32742	
2221	0	32840	32724	
2222	0	32840	32738	
2223	0	32820	32850	
2224	0	32792	32718	
2225	0	32792	32748	
2226	0	32814	32764	
2227	0	32826	32775	
2228	0	32812	32714	
2229	0	32745	32710	
2230	0	32834	32775	
2231	0	32748	32754	
2232	0	32780	32825	
2233	0	32866	32724	
2234	0	32824	32832	
2235	0	32805	32754	
2236	0	32796	32644	
2237	0	32832	32658	
2238	0	32844	32844	
2239	0	32848	32825	
2240	0	32768	32726	
2241	0	32792	32676	
2242	0	32792	32817	
2243	0	32792	32784	
2244	0	32788	32785	
2245	0	32788	32807	
2246	0	32788	32744	
2247	0	32828	32815	
2248	0	32868	32714	
2249	0	32872	32815	
2250	0	32842	32790	
2251	0	32876	32732	
2252	0	32732	32718	
2253	0	32824	32815	
2254	0	32738	32786	
2255	0	32798	32668	
2256	0	32824	32806	
2257	0	32786	32760	
2258	0	32856	32775	
2259	0	32838	32664	
2260	0	32852	32839	
2261	0	32834	32774	
2262	0	32828	32658	
2263	0	32840	32698	
2264	0	32820	32805	
2265	0	32802	32775	
2266	0	32836	32830	
2267	0	32736	32728	
2268	0	32780	32850	
2269	0	32802	32784	
2270	0	32760	32796	
2271	0	32774	32788	
2272	0	32834	32744	
2273	0	32836	32794	
2274	0	32808	32647	
2275	0	32858	32788	
2276	0	32836	32774	
2277	0	32784	32736	
2278	0	32800	32834	
2279	0	32746	32764	
2280	0	32756	32746	
2281	0	32846	32662	
2282	0	32825	32792	
2283	0	32796	32791	
2284	0	32796	32720	
2285	0	32806	32839	
2286	0	32824	32734	
2287	0	32778	32808	
2288	0	32824	32753	
2289	0	32812	32806	
2290	0	32872	32724	
2291	0	32872	32868	
2292	0	32840	32724	
2293	0	32856	32775	
2294	0	32798	32768	
2295	0	32806	32752	
2296	0	32820	32798	
2297	0	32808	32775	
2298	0	32874	32720	
2299	0	32780	32758	
2300	0	32810	32822	
2301	0	32840	32718	
2302	0	32804	32734	
2303	0	32810	32790	
2304	0	32780	32744	
2305	0	32816	32884	
2306	0	32784	32660	
2307	0	32804	32774	
2308	0	32852	32793	
2309	0	32878	32708	
2310	0	32856	32836	
2311	0	32776	32736	
2312	0	32840	32832	
2313	0	32784	32676	
2314	0	32798	32844	
2315	0	32752	32736	
2316	0	32900	32740	
2317	0	32770	32662	
2318	0	32812	32798	
2319	0	32774	32780	
2320	0	32800	32804	
2321	0	32812	32724	
2322	0	32754	32625	
2323	0	32752	32812	
2324	0	32766	32735	
2325	0	32840	32802	
2326	0	32740	32726	
2327	0	32748	32834	
2328	0	32820	32784	
2329	0	32842	32706	
2330	0	32760	32750	
2331	0	32840	32864	
2332	0	32836	32718	
2333	0	32800	32758	
2334	0	32868	32692	
2335	0	32836	32724	
2336	0	32820	32775	
2337	0	32798	32862	
2338	0	32842	32724	
2339	0	32904	32800	
2340	0	32780	32698	
2341	0	32804	32890	
2342	0	32840	32728	
2343	0	32780	32748	
2344	0	32836	32842	
2345	0	32820	32704	
2346	0	32777	32734	
2347	0	32768	32758	
2348	0	32856	32796	
2349	0	32784	32726	
2350	0	32804	32784	
2351	0	32788	32860	
2352	0	32856	32840	
2353	0	32846	32798	
2354	0	32780	32758	
2355	0	32768	32824	
2356	0	32830	32764	
2357	0	32828	32790	
2358	0	32772	32683	
2359	0	32856	32775	
2360	0	32862	32775	
2361	0	32760	32828	
2362	0	32732	32676	
2363	0	32824	32726	
2364	0	32840	32806	
2365	0	32788	32790	
2366	0	32846	32752	
2367	0	32864	32788	
2368	0	32820	32732	
2369	0	32820	32763	
2370	0	32872	32868	
2371	0	32834	32730	
2372	0	32788	32775	
2373	0	32848	32694	
2374	0	32876	32708	
2375	0	32834	32816	
2376	0	32744	32714	
2377	0	32808	32845	
2378	0	32768	32700	
2379	0	32812	32734	
2380	0	32820	32817	
2381	0	32820	32864	
2382	0	32828	32812	
2383	0	32738	32708	
2384	0	32820	32696	
2385	0	32786	32786	
2386	0	32796	32775	
2387	0	32812	32876	
2388	0	32824	32692	
2389	0	32756	32768	
2390	0	32822	32751	
2391	0	32804	32828	
2392	0	32800	32734	
2393	0	32836	32684	
2394	0	32834	32802	
2395	0	32802	32756	
2396	0	32792	32816	
2397	0	32828	32720	
2398	0	32812	32712	
2399	0	32800	32784	
2400	0	32782	32738	
2401	0	32792	32682	
2402	0	32864	32762	
2403	0	32824	32832	
2404	0	32812	32732	
2405	0	32812	32814	
2406	0	32860	32716	
2407	0	32808	32825	
2408	0	32872	32752	
2409	0	32794	32871	
2410	0	32816	32694	
2411	0	32820	32826	
2412	0	32840	32775	
2413	0	32820	32711	
2414	0	32772	32702	
2415	0	32790	32900	
2416	0	32844	32818	
2417	0	32868	32746	
2418	0	32856	32767	
2419	0	32788	32810	
2420	0	32820	32732	
2421	0	32776	32672	
2422	0	32798	32694	
2423	0	32832	32726	
2424	0	32784	32816	
2425	0	32798	32660	
2426	0	32761	32770	
2427	0	32848	32798	
2428	0	32794	32774	
2429	0	32774	32866	
2430	0	32800	32698	
2431	0	32840	32782	
2432	0	32848	32830	
2433	0	32848	32764	
2434	0	32756	32721	
2435	0	32842	32810	
2436	0	32780	32820	
2437	0	32812	32896	
2438	0	32862	32708	
2439	0	32776	32790	
2440	0	32832	32820	
2441	0	32828	32688	
2442	0	32766	32708	
2443	0	32800	32807	
2444	0	32796	32736	
2445	0	32792	32732	
2446	0	32768	32647	
2447	0	32792	32830	
2448	0	32786	32830	
2449	0	32788	32810	
2450	0	32824	32764	
2451	0	32816	32786	
2452	0	32778	32790	
2453	0	32800	32810	
2454	0	32830	32702	
2455	0	32814	32772	
2456	0	32836	32718	
2457	0	32797	32814	
2458	0	32844	32743	
2459	0	32810	32714	
2460	0	32816	32850	
2461	0	32816	32802	
2462	0	32768	32775	
2463	0	32914	32856	
2464	0	32836	32730	
2465	0	32888	32724	
2466	0	32910	32768	
2467	0	32816	32810	
2468	0	32796	32790	
2469	0	32840	32646	
2470	0	32780	32702	
2471	0	32806	32834	
2472	0	32836	32786	
2473	0	32768	32670	
2474	0	32756	32766	
2475	0	32742	32796	
2476	0	32760	32743	
2477	0	32823	32652	
2478	0	32814	32692	
2479	0	32780	32878	
2480	0	32868	32756	
2481	0	32832	32791	
2482	0	32768	32658	
2483	0	32836	32872	
2484	0	32896	32756	
2485	0	32836	32722	
2486	0	32812	32712	
2487	0	32778	32718	
2488	0	32916	32791	
2489	0	32752	32840	
2490	0	32828	32690	
2491	0	32808	32788	
2492	0	32802	32866	
2493	0	32808	32678	
2494	0	32808	32775	
2495	0	32826	32810	
2496	0	32808	32858	
2497	0	32800	32752	
2498	0	32784	32775	
2499	0	32876	32737	
2500	0	32854	32807	
2501	0	32830	32775	
2502	0	32824	32775	
2503	0	32804	32826	
2504	0	32840	32792	
2505	0	32832	32726	
2506	0	32794	32849	
2507	0	32852	32886	
2508	0	32808	32800	
2509	0	32768	32839	
2510	0	32810	32722	
2511	0	32836	32772	
2512	0	32788	32758	
2513	0	32816	32756	
2514	0	32820	32696	
2515	0	32758	32668	
2516	0	32748	32636	
2517	0	32804	32708	
2518	0	32770	32580	
2519	0	32696	32544	
2520	0	32706	32660	
2521	0	32784	32734	
2522	0	32768	32670	
2523	0	32704	32609	
2524	0	32688	32550	
2525	0	32782	32736	
2526	0	32778	32688	
2527	0	32710	32600	
2528	0	32756	32714	
2529	0	32664	32664	
2530	0	32780	32767	
2531	0	32727	32798	
2532	0	32820	32690	
2533	0	32808	32752	
2534	0	32820	32647	
2535	0	32828	32659	
2536	0	32906	32760	
2537	0	32974	32846	
2538	0	33080	32775	
2539	0	33082	32992	
2540	0	33064	32872	
2541	0	33178	33214	
2542	0	33136	33262	
2543	0	33056	33191	
2544	0	33038	33302	
2545	0	32936	33099	
2546	0	32864	33044	
2547	0	32892	33092	
2548	0	32874	32966	
2549	0	32824	33007	
2550	0	32818	32750	
2551	0	32740	32644	
2552	0	32716	32546	
2553	0	32688	32687	
2554	0	32710	32551	
2555	0	32670	32647	
2556	0	32652	32530	
2557	0	32762	32592	
2558	0	32660	32596	
2559	0	32672	32600	
2560	0	32700	32714	
2561	0	32700	32642	
2562	0	32687	32644	
2563	0	32752	32718	
2564	0	32768	32752	
2565	0	32728	32737	
2566	0	32724	32786	
2567	0	32780	32647	
2568	0	32706	32688	
2569	0	32840	32876	
2570	0	32752	32772	
2571	0	32824	32772	
2572	0	32832	32774	
2573	0	32824	32732	
2574	0	32828	32772	
2575	0	32920	32716	
2576	0	32834	32774	
2577	0	32808	32710	
2578	0	32828	32634	
2579	0	32830	32775	
2580	0	32856	32708	
2581	0	32828	32820	
2582	0	32856	32760	
2583	0	32825	32738	
2584	0	32812	32786	
2585	0	32784	32764	
2586	0	32816	32636	
2587	0	32772	32786	
2588	0	32840	32846	
2589	0	32876	32823	
2590	0	32804	32738	
2591	0	32796	32654	
2592	0	32817	32820	
2593	0	32764	32863	
2594	0	32832	32719	
2595	0	32834	32772	
2596	0	32772	32660	
2597	0	32800	32734	
2598	0	32852	32775	
2599	0	32820	32762	
2600	0	32812	32770	
2601	0	32804	32852	
2602	0	32852	32754	
2603	0	32756	32832	
2604	0	32808	32890	
2605	0	32810	32804	
2606	0	32768	32830	
2607	0	32860	32790	
2608	0	32830	32642	
2609	0	32856	32798	
2610	0	32769	32839	
2611	0	32812	32769	
2612	0	32778	32739	
2613	0	32804	32770	
2614	0	32762	32727	
2615	0	32780	32800	
2616	0	32804	32808	
2617	0	32842	32696	
2618	0	32858	32866	
2619	0	32834	32780	
2620	0	32858	32727	
2621	0	32858	32753	
2622	0	32888	32679	
2623	0	32850	32802	
2624	0	32800	32748	
2625	0	32788	32794	
2626	0	32826	32801	
2627	0	32810	32720	
2628	0	32804	32818	
2629	0	32808	32759	
2630	0	32790	32690	
2631	0	32884	32826	
2632	0	32868	32782	
2633	0	32836	32799	
2634	0	32834	32693	
2635	0	32720	32640	
2636	0	32794	32714	
2637	0	32780	32732	
2638	0	32796	32737	
2639	0	32802	32742	
2640	0	32816	32802	
2641	0	32756	32704	
2642	0	32824	32774	
2643	0	32844	32804	
2644	0	32786	32804	
2645	0	32812	32752	
2646	0	32828	32767	
2647	0	32821	32806	
2648	0	32816	32820	
2649	0	32868	32706	
2650	0	32844	32764	
2651	0	32800	32804	
2652	0	32800	32746	
2653	0	32794	32842	
2654	0	32852	32775	
2655	0	32752	32698	
2656	0	32822	32815	
2657	0	32824	32871	
2658	0	32832	32744	
2659	0	32824	32752	
2660	0	32764	32678	
2661	0	32796	32820	
2662	0	32864	32852	
2663	0	32870	32668	
2664	0	32800	32731	
2665	0	32818	32674	
2666	0	32814	32805	
2667	0	32812	32816	
2668	0	32804	32687	
2669	0	32801	32792	
2670	0	32812	32794	
2671	0	32872	32834	
2672	0	32818	32806	
2673	0	32760	32696	
2674	0	32794	32876	
2675	0	32798	32862	
2676	0	32804	32742	
2677	0	32832	32754	
2678	0	32828	32775	
2679	0	32820	32742	
2680	0	32844	32774	
2681	0	32804	32775	
2682	0	32800	32764	
2683	0	32848	32839	
2684	0	32816	32775	
2685	0	32832	32660	
2686	0	32720	32789	
2687	0	32778	32775	
2688	0	32810	32736	
2689	0	32710	32722	
2690	0	32900	32750	
2691	0	32842	32870	
2692	0	32856	32790	
2693	0	32784	32657	
2694	0	32804	32756	
2695	0	32836	32775	
2696	0	32828	32720	
2697	0	32760	32652	
2698	0	32824	32818	
2699	0	32792	32775	
2700	0	32840	32799	
2701	0	32828	32694	
2702	0	32832	32681	
2703	0	32854	32878	
2704	0	32842	32764	
2705	0	32732	32747	
2706	0	32864	32714	
2707	0	32830	32768	
2708	0	32856	32768	
2709	0	32788	32828	
2710	0	32816	32828	
2711	0	32824	32694	
2712	0	32760	32760	
2713	0	32786	32740	
2714	0	32872	32800	
2715	0	32834	32668	
2716	0	32792	32775	
2717	0	32840	32750	
2718	0	32812	32668	
2719	0	32752	32682	
2720	0	32804	32806	
2721	0	32820	32798	
2722	0	32864	32748	
2723	0	32716	32724	
2724	0	32784	32846	
2725	0	32744	32710	
2726	0	32798	32711	
2727	0	32836	32850	
2728	0	32878	32768	
2729	0	32837	32871	
2730	0	32776	32740	
2731	0	32804	32806	
2732	0	32856	32838	
2733	0	32854	32679	
2734	0	32864	32775	
2735	0	32808	32744	
2736	0	32786	32836	
2737	0	32824	32719	
2738	0	32864	32792	
2739	0	32794	32818	
2740	0	32804	32762	
2741	0	32772	32734	
2742	0	32862	32700	
2743	0	32788	32826	
2744	0	32830	32932	
2745	0	32778	32732	
2746	0	32836	32775	
2747	0	32906	32716	
2748	0	32832	32798	
2749	0	32820	32697	
2750	0	32846	32750	
2751	0	32756	32761	
2752	0	32752	32775	
2753	0	32808	32751	
2754	0	32846	32663	
2755	0	32804	32846	
2756	0	32840	32716	
2757	0	32868	32774	
2758	0	32800	32712	
2759	0	32812	32748	
2760	0	32776	32738	
2761	0	32804	32732	
2762	0	32756	32804	
2763	0	32764	32839	
2764	0	32804	32838	
2765	0	32756	32812	
2766	0	32796	32708	
2767	0	32758	32708	
2768	0	32864	32792	
2769	0	32804	32775	
2770	0	32772	32830	
2771	0	32822	32732	
2772	0	32868	32739	
2773	0	32848	32724	
2774	0	32866	32745	
2775	0	32856	32836	
2776	0	32840	32804	
2777	0	32848	32632	
2778	0	32820	32708	
2779	0	32796	32847	
2780	0	32792	32724	
2781	0	32780	32632	
2782	0	32810	32798	
2783	0	32784	32748	
2784	0	32776	32775	
2785	0	32836	32877	
2786	0	32796	32858	
2787	0	32781	32666	
2788	0	32816	32839	
2789	0	32762	32854	
2790	0	32858	32766	
2791	0	32802	32754	
2792	0	32840	32772	
2793	0	32848	32718	
2794	0	32788	32800	
2795	0	32788	32844	
2796	0	32796	32738	
2797	0	32800	32790	
2798	0	32820	32792	
2799	0	32804	32699	
2800	0	32796	32736	
2801	0	32800	32734	
2802	0	32746	32766	
2803	0	32848	32762	
2804	0	32834	32806	
2805	0	32844	32775	
2806	0	32856	32716	
2807	0	32856	32807	
2808	0	32820	32775	
2809	0	32800	32751	
2810	0	32860	32714	
2811	0	32792	32764	
2812	0	32782	32720	
2813	0	32808	32770	
2814	0	32836	32802	
2815	0	32740	32832	
2816	0	32764	32663	
2817	0	32810	32727	
2818	0	32776	32796	
2819	0	32844	32682	
2820	0	32888	32832	
2821	0	32822	32775	
2822	0	32764	32658	
2823	0	32822	32734	
2824	0	32876	32775	
2825	0	32840	32679	
2826	0	32760	32683	
2827	0	32806	32734	
2828	0	32818	32750	
2829	0	32818	32810	
2830	0	32764	32728	
2831	0	32832	32796	
2832	0	32808	32796	
2833	0	32812	32792	
2834	0	32760	32806	
2835	0	32784	32760	
2836	0	32762	32821	
2837	0	32794	32855	
2838	0	32802	32758	
2839	0	32820	32790	
2840	0	32746	32744	
2841	0	32836	32775	
2842	0	32870	32802	
2843	0	32874	32663	
2844	0	32824	32758	
2845	0	32774	32676	
2846	0	32816	32744	
2847	0	32856	32840	
2848	0	32794	32743	
2849	0	32810	32847	
2850	0	32788	32752	
2851	0	32842	32711	
2852	0	32776	32786	
2853	0	32832	32860	
2854	0	32770	32694	
2855	0	32800	32732	
2856	0	32750	32788	
2857	0	32844	32725	
2858	0	32776	32752	
2859	0	32864	32644	
2860	0	32848	32834	
2861	0	32764	32722	
2862	0	32830	32802	
2863	0	32816	32760	
2864	0	32746	32678	
2865	0	32848	32788	
2866	0	32792	32734	
2867	0	32788	32688	
2868	0	32800	32855	
2869	0	32718	32761	
2870	0	32810	32847	
2871	0	32782	32676	
2872	0	32808	32846	
2873	0	32824	32724	
2874	0	32832	32914	
2875	0	32850	32696	
2876	0	32858	32708	
2877	0	32864	32860	
2878	0	32812	32786	
2879	0	32836	32698	
2880	0	32820	32743	
2881	0	32864	32848	
2882	0	32820	32794	
2883	0	32864	32818	
2884	0	32832	32714	
2885	0	32884	32775	
2886	0	32836	32762	
2887	0	32780	32862	
2888	0	32824	32715	
2889	0	32837	32775	
2890	0	32778	32758	
2891	0	32822	32850	
2892	0	32810	32697	
2893	0	32784	32814	
2894	0	32804	32839	
2895	0	32740	32742	
2896	0	32878	32828	
2897	0	32782	32790	
2898	0	32772	32822	
2899	0	32824	32663	
2900	0	32836	32731	
2901	0	32802	32814	
2902	0	32754	32839	
2903	0	32728	32753	
2904	0	32752	32602	
2905	0	32778	32810	
2906	0	32860	32711	
2907	0	32812	32838	
2908	0	32868	32716	
2909	0	32832	32828	
2910	0	32800	32762	
2911	0	32844	32793	
2912	0	32858	32654	
2913	0	32836	32716	
2914	0	32806	32863	
2915	0	32832	32702	
2916	0	32834	32868	
2917	0	32804	32726	
2918	0	32800	32762	
2919	0	32888	32711	
2920	0	32848	32775	
2921	0	32896	32730	
2922	0	32814	32746	
2923	0	32820	32738	
2924	0	32808	32762	
2925	0	32776	32858	
2926	0	32768	32746	
2927	0	32796	32812	
2928	0	32774	32766	
2929	0	32812	32864	
2930	0	32824	32742	
2931	0	32832	32775	
2932	0	32900	32775	
2933	0	32768	32775	
2934	0	32778	32696	
2935	0	32792	32740	
2936	0	32902	32830	
2937	0	32760	32696	
2938	0	32820	32711	
2939	0	32832	32671	
2940	0	32804	32830	
2941	0	32804	32820	
2942	0	32810	32850	
2943	0	32824	32774	
2944	0	32828	32775	
2945	0	32824	32743	
2946	0	32792	32752	
2947	0	32750	32692	
2948	0	32804	32698	
2949	0	32728	32848	
2950	0	32790	32764	
2951	0	32836	32852	
2952	0	32861	32736	
2953	0	32764	32696	
2954	0	32780	32815	
2955	0	32764	32715	
2956	0	32834	32775	
2957	0	32774	32714	
2958	0	32784	32682	
2959	0	32824	32814	
2960	0	32916	32730	
2961	0	32844	32823	
2962	0	32812	32746	
2963	0	32782	32797	
2964	0	32812	32728	
2965	0	32828	32839	
2966	0	32744	32674	
2967	0	32768	32728	
2968	0	32810	32840	
2969	0	32920	32774	
2970	0	32788	32775	
2971	0	32764	32772	
2972	0	32800	32761	
2973	0	32874	32744	
2974	0	32824	32841	
2975	0	32828	32736	
2976	0	32792	32854	
2977	0	32794	32708	
2978	0	32772	32647	
2979	0	32800	32726	
2980	0	32866	32745	
2981	0	32816	32774	
2982	0	32780	32692	
2983	0	32862	32750	
2984	0	32808	32764	
2985	0	32810	32767	
2986	0	32834	32775	
2987	0	32766	32790	
2988	0	32768	32823	
2989	0	32816	32834	
2990	0	32820	32718	
2991	0	32784	32800	
2992	0	32856	32756	
2993	0	32830	32766	
2994	0	32848	32702	
2995	0	32856	32736	
2996	0	32856	32858	
2997	0	32780	32784	
2998	0	32856	32804	
2999	0	32858	32728	
3000	0	32806	32666	
3001	0	32836	32870	
3002	0	32792	32714	
3003	0	32800	32820	
3004	0	32758	32672	
3005	0	32804	32744	
3006	0	32820	32724	
3007	0	32832	32668	
3008	0	32854	32672	
3009	0	32804	32839	
3010	0	32823	32775	
3011	0	32796	32726	
3012	0	32752	32687	
3013	0	32856	32847	
3014	0	32832	32770	
3015	0	32808	32775	
3016	0	32778	32666	
3017	0	32824	32788	
3018	0	32832	32812	
3019	0	32818	32819	
3020	0	32826	32900	
3021	0	32784	32752	
3022	0	32764	32832	
3023	0	32830	32784	
3024	0	32818	32788	
3025	0	32737	32802	
3026	0	32888	32697	
3027	0	32820	32652	
3028	0	32720	32742	
3029	0	32778	32768	
3030	0	32824	32770	
3031	0	32788	32760	
3032	0	32896	32660	
3033	0	32816	32832	
3034	0	32760	32760	
3035	0	32752	32811	
3036	0	32802	32839	
3037	0	32856	32742	
3038	0	32820	32736	
3039	0	32788	32727	
3040	0	32816	32810	
3041	0	32890	32775	
3042	0	32836	32828	
3043	0	32788	32826	
3044	0	32788	32772	
3045	0	32788	32810	
3046	0	32784	32788	
3047	0	32816	32807	
3048	0	32808	32666	
3049	0	32800	32676	
3050	0	32808	32874	
3051	0	32820	32772	
3052	0	32810	32866	
3053	0	32834	32678	
3054	0	32824	32790	
3055	0	32758	32732	
3056	0	32810	32822	
3057	0	32774	32667	
3058	0	32774	32746	
3059	0	32804	32806	
3060	0	32804	32711	
3061	0	32744	32716	
3062	0	32920	32740	
3063	0	32800	32796	
3064	0	32898	32708	
3065	0	32778	32799	
3066	0	32832	32752	
3067	0	32780	32858	
3068	0	32790	32812	
3069	0	32810	32839	
3070	0	32800	32761	
3071	0	32864	32743	
3072	0	32840	32903	
3073	0	32816	32604	
3074	0	32776	32774	
3075	0	32812	32810	
3076	0	32798	32802	
3077	0	32808	32806	
3078	0	32810	32678	
3079	0	32852	32772	
3080	0	32878	32688	
3081	0	32900	32884	
3082	0	32780	32764	
3083	0	32820	32754	
3084	0	32836	32740	
3085	0	32744	32788	
3086	0	32800	32684	
3087	0	32780	32802	
3088	0	32780	32884	
3089	0	32778	32903	
3090	0	32776	32720	
3091	0	32812	32814	
3092	0	32802	32806	
3093	0	32784	32816	
3094	0	32820	32680	
3095	0	32744	32816	
3096	0	32856	32841	
3097	0	32846	32738	
3098	0	32852	32722	
3099	0	32896	32775	
3100	0	32884	32748	
3101	0	32844	32814	
3102	0	32828	32726	
3103	0	32774	32768	
3104	0	32820	32839	
3105	0	32792	32850	
3106	0	32740	32736	
3107	0	32786	32838	
3108	0	32816	32788	
3109	0	32767	32724	
3110	0	32800	32740	
3111	0	32856	32844	
3112	0	32800	32754	
3113	0	32900	32848	
3114	0	32800	32724	
3115	0	32848	32738	
3116	0	32798	32769	
3117	0	32822	32854	
3118	0	32783	32726	
3119	0	32752	32852	
3120	0	32832	32732	
3121	0	32780	32818	
3122	0	32764	32708	
3123	0	32824	32678	
3124	0	32764	32806	
3125	0	32736	32847	
3126	0	32870	32852	
3127	0	32824	32655	
3128	0	32810	32876	
3129	0	32884	32740	
3130	0	32824	32836	
3131	0	32740	32772	
3132	0	32798	32615	
3133	0	32824	32746	
3134	0	32844	32826	
3135	0	32798	32775	
3136	0	32826	32852	
3137	0	32874	32647	
3138	0	32832	32798	
3139	0	32848	32704	
3140	0	32820	32807	
3141	0	32736	32764	
3142	0	32746	32764	
3143	0	32728	32790	
3144	0	32792	32792	
3145	0	32748	32764	
3146	0	32790	32732	
3147	0	32796	32784	
3148	0	32896	32770	
3149	0	32850	32720	
3150	0	32920	32712	
3151	0	32926	32812	
3152	0	32852	32760	
3153	0	32800	32806	
3154	0	32823	32714	
3155	0	32880	32839	
3156	0	32768	32784	
3157	0	32866	32740	
3158	0	32800	32784	
3159	0	32740	32690	
3160	0	32768	32800	
3161	0	32812	32642	
3162	0	32828	32800	
3163	0	32852	32830	
3164	0	32844	32730	
3165	0	32786	32843	
3166	0	32830	32708	
3167	0	32852	32788	
3168	0	32772	32794	
3169	0	32764	32675	
3170	0	32816	32730	
3171	0	32852	32716	
3172	0	32836	32798	
3173	0	32784	32798	
3174	0	32732	32918	
3175	0	32766	32838	
3176	0	32784	32839	
3177	0	32810	32708	
3178	0	32860	32708	
3179	0	32900	32672	
3180	0	32822	32646	
3181	0	32864	32660	
3182	0	32798	32616	
3183	0	32788	32794	
3184	0	32736	32644	
3185	0	32800	32711	
3186	0	32804	32798	
3187	0	32848	32858	
3188	0	32752	32718	
3189	0	32836	32742	
3190	0	32842	32800	
3191	0	32820	32775	
3192	0	32866	32726	
3193	0	32852	32786	
3194	0	32824	32775	
3195	0	32816	32839	
3196	0	32798	32876	
3197	0	32840	32726	
3198	0	32736	32871	
3199	0	32804	32742	
3200	0	32785	32836	
3201	0	32864	32711	
3202	0	32858	32844	
3203	0	32856	32775	
3204	0	32844	32674	
3205	0	32852	32688	
3206	0	32848	32587	
3207	0	32858	32646	
3208	0	32860	32672	
3209	0	32818	32775	
3210	0	32822	32820	
3211	0	32834	32712	
3212	0	32800	32896	
3213	0	32782	32946	
3214	0	32692	32846	
3215	0	32760	32924	
3216	0	32808	32856	
3217	0	32816	32846	
3218	0	32816	32722	
3219	0	32830	32775	
3220	0	32852	32664	
3221	0	32866	32820	
3222	0	32832	32692	
3223	0	32806	32700	
3224	0	32856	32694	
3225	0	32847	32718	
3226	0	32754	32832	
3227	0	32864	32764	
3228	0	32784	32726	
3229	0	32768	32644	
3230	0	32804	32838	
3231	0	32794	32766	
3232	0	32786	32710	
3233	0	32816	32723	
3234	0	32854	32775	
3235	0	32808	32916	
3236	0	32790	32736	
3237	0	32832	32801	
3238	0	32884	32727	
3239	0	32782	32792	
3240	0	32864	32677	
3241	0	32792	32848	
3242	0	32828	32754	
3243	0	32834	32700	
3244	0	32828	32826	
3245	0	32860	32754	
3246	0	32780	32700	
3247	0	32788	32807	
3248	0	32780	32814	
3249	0	32734	32708	
3250	0	32848	32726	
3251	0	32800	32828	
3252	0	32812	32746	
3253	0	32870	32830	
3254	0	32852	32836	
3255	0	32776	32674	
3256	0	32800	32816	
3257	0	32720	32810	
3258	0	32856	32671	
3259	0	32828	32800	
3260	0	32878	32852	
3261	0	32820	32768	
3262	0	32772	32800	
3263	0	32802	32756	
3264	0	32882	32720	
3265	0	32788	32742	
3266	0	32808	32743	
3267	0	32780	32790	
3268	0	32816	32743	
3269	0	32872	32742	
3270	0	32828	32862	
3271	0	32786	32698	
3272	0	32748	32870	
3273	0	32776	32830	
3274	0	32784	32706	
3275	0	32768	32894	
3276	0	32760	32810	
3277	0	32798	32730	
3278	0	32770	32815	
3279	0	32790	32810	
3280	0	32840	32764	
3281	0	32772	32647	
3282	0	32774	32822	
3283	0	32822	32775	
3284	0	32720	32678	
3285	0	32754	32738	
3286	0	32868	32754	
3287	0	32828	32764	
3288	0	32796	32711	
3289	0	32772	32759	
3290	0	32864	32874	
3291	0	32798	32775	
3292	0	32868	32878	
3293	0	32726	32772	
3294	0	32810	32830	
3295	0	32816	32775	
3296	0	32804	32696	
3297	0	32836	32828	
3298	0	32772	32775	
3299	0	32776	32790	
3300	0	32764	32696	
3301	0	32772	32736	
3302	0	32774	32788	
3303	0	32828	32666	
3304	0	32832	32764	
3305	0	32836	32824	
3306	0	32896	32760	
3307	0	32924	32966	
3308	0	32898	32846	
3309	0	32824	32682	
3310	0	32816	32775	
3311	0	32868	32890	
3312	0	32858	32702	
3313	0	32800	32752	
3314	0	32784	32696	
3315	0	32752	32756	
3316	0	32796	32686	
3317	0	32778	32806	
3318	0	32768	32724	
3319	0	32754	32656	
3320	0	32884	32794	
3321	0	32854	32727	
3322	0	32880	32871	
3323	0	32802	32766	
3324	0	32844	32807	
3325	0	32804	32736	
3326	0	32800	32848	
3327	0	32820	32766	
3328	0	32780	32748	
3329	0	32832	32731	
3330	0	32826	32826	
3331	0	32810	32638	
3332	0	32768	32803	
3333	0	32760	32816	
3334	0	32778	32696	
3335	0	32848	32790	
3336	0	32832	32757	
3337	0	32840	32644	
3338	0	32846	32770	
3339	0	32788	32756	
3340	0	32868	32775	
3341	0	32808	32834	
3342	0	32804	32860	
3343	0	32854	32716	
3344	0	32848	32814	
3345	0	32780	32862	
3346	0	32852	32718	
3347	0	32800	32930	
3348	0	32772	32831	
3349	0	32776	32785	
3350	0	32794	32846	
3351	0	32820	32814	
3352	0	32744	32722	
3353	0	32824	32758	
3354	0	32720	32734	
3355	0	32784	32594	
3356	0	32748	32687	
3357	0	32772	32678	
3358	0	32801	32556	
3359	0	32772	32665	
3360	0	32724	32632	
3361	0	32844	32572	
3362	0	32772	32720	
3363	0	32760	32590	
3364	0	32718	32624	
3365	0	32732	32615	
3366	0	32708	32676	
3367	0	32754	32676	
3368	0	32678	32648	
3369	0	32704	32714	
3370	0	32784	32796	
3371	0	32812	32730	
3372	0	32898	32718	
3373	0	32740	32636	
3374	0	32766	32698	
3375	0	32876	32726	
3376	0	32884	32684	
3377	0	32940	32831	
3378	0	33056	32861	
3379	0	33028	32934	
3380	0	33172	33006	
3381	0	33080	33178	
3382	0	33136	33346	
3383	0	33048	33273	
3384	0	33064	33196	
3385	0	32994	33056	
3386	0	32960	33068	
3387	0	32900	33004	
3388	0	32896	32974	
3389	0	32816	32824	
3390	0	32746	32796	
3391	0	32696	32650	
3392	0	32654	32606	
3393	0	32756	32576	
3394	0	32618	32617	
3395	0	32668	32587	
3396	0	32672	32486	
3397	0	32680	32538	
3398	0	32676	32700	
3399	0	32716	32604	
3400	0	32680	32736	
3401	0	32684	32692	
3402	0	32690	32727	
3403	0	32774	32786	
3404	0	32728	32804	
3405	0	32698	32622	
3406	0	32704	32806	
3407	0	32732	32724	
3408	0	32820	32628	
3409	0	32776	32836	
3410	0	32792	32756	
3411	0	32798	32788	
3412	0	32808	32824	
3413	0	32766	32775	
3414	0	32805	32638	
3415	0	32817	32836	
3416	0	32800	32812	
3417	0	32864	32704	
3418	0	32722	32686	
3419	0	32792	32807	
3420	0	32852	32828	
3421	0	32808	32668	
3422	0	32838	32871	
3423	0	32872	32775	
3424	0	32844	32750	
3425	0	32912	32807	
3426	0	32836	32798	
3427	0	32828	32752	
3428	0	32814	32844	
3429	0	32776	32748	
3430	0	32888	32772	
3431	0	32816	32744	
3432	0	32792	32792	
3433	0	32772	32679	
3434	0	32850	32732	
3435	0	32848	32796	
3436	0	32816	32775	
3437	0	32816	32668	
3438	0	32800	32794	
3439	0	32820	32750	
3440	0	32796	32811	
3441	0	32794	32750	
3442	0	32836	32775	
3443	0	32808	32801	
3444	0	32798	32742	
3445	0	32825	32842	
3446	0	32868	32812	
3447	0	32826	32728	
3448	0	32844	32798	
3449	0	32904	32794	
3450	0	32824	32775	
3451	0	32852	32732	
3452	0	32816	32775	
3453	0	32756	32850	
3454	0	32768	32695	
3455	0	32824	32799	
3456	0	32772	32768	
3457	0	32792	32820	
3458	0	32844	32642	
3459	0	32826	32732	
3460	0	32792	32766	
3461	0	32856	32718	
3462	0	32808	32696	
3463	0	32830	32814	
3464	0	32896	32686	
3465	0	32824	32814	
3466	0	32832	32840	
3467	0	32784	32756	
3468	0	32794	32735	
3469	0	32864	32775	
3470	0	32836	32830	
3471	0	32810	32696	
3472	0	32790	32758	
3473	0	32752	32766	
3474	0	32782	32692	
3475	0	32805	32750	
3476	0	32838	32708	
3477	0	32840	32854	
3478	0	32710	32708	
3479	0	32852	32746	
3480	0	32780	32792	
3481	0	32756	32732	
3482	0	32824	32711	
3483	0	32844	32799	
3484	0	32842	32724	
3485	0	32804	32666	
3486	0	32832	32775	
3487	0	32810	32748	
3488	0	32780	32880	
3489	0	32764	32748	
3490	0	32832	32842	
3491	0	32836	32834	
3492	0	32826	32684	
3493	0	32866	32828	
3494	0	32824	32820	
3495	0	32760	32802	
3496	0	32828	32694	
3497	0	32888	32673	
3498	0	32880	32744	
3499	0	32774	32728	
3500	0	32872	32684	
3501	0	32768	32638	
3502	0	32826	32734	
3503	0	32764	32738	
3504	0	32766	32802	
3505	0	32772	32736	
3506	0	32776	32788	
3507	0	32888	32862	
3508	0	32840	32706	
3509	0	32796	32817	
3510	0	32770	32790	
3511	0	32770	32775	
3512	0	32832	32636	
3513	0	32828	32774	
3514	0	32808	32806	
3515	0	32837	32718	
3516	0	32778	32871	
3517	0	32822	32682	
3518	0	32820	32759	
3519	0	32804	32764	
3520	0	32788	32866	
3521	0	32760	32762	
3522	0	32796	32796	
3523	0	32766	32686	
3524	0	32840	32758	
3525	0	32812	32752	
3526	0	32872	32750	
3527	0	32812	32888	
3528	0	32860	32738	
3529	0	32752	32886	
3530	0	32756	32798	
3531	0	32808	32844	
3532	0	32775	32748	
3533	0	32908	32662	
3534	0	32788	32772	
3535	0	32760	32814	
3536	0	32786	32709	
3537	0	32864	32814	
3538	0	32849	32670	
3539	0	32856	32648	
3540	0	32720	32799	
3541	0	32752	32818	
3542	0	32732	32782	
3543	0	32760	32738	
3544	0	32808	32794	
3545	0	32768	32698	
3546	0	32752	32658	
3547	0	32842	32722	
3548	0	32880	32775	
3549	0	32796	32826	
3550	0	32846	32846	
3551	0	32776	32790	
3552	0	32844	32839	
3553	0	32840	32640	
3554	0	32764	32754	
3555	0	32884	32774	
3556	0	32858	32848	
3557	0	32841	32696	
3558	0	32798	32746	
3559	0	32858	32710	
3560	0	32836	32647	
3561	0	32820	32704	
3562	0	32784	32838	
3563	0	32848	32856	
3564	0	32800	32826	
3565	0	32776	32854	
3566	0	32802	32694	
3567	0	32824	32790	
3568	0	32792	32732	
3569	0	32776	32826	
3570	0	32778	32720	
3571	0	32864	32754	
3572	0	32736	32775	
3573	0	32812	32688	
3574	0	32774	32650	
3575	0	32836	32796	
3576	0	32788	32743	
3577	0	32840	32756	
3578	0	32816	32704	
3579	0	32808	32728	
3580	0	32820	32871	
3581	0	32850	32798	
3582	0	32852	32838	
3583	0	32876	32695	
3584	0	32852	32738	
3585	0	32896	32750	
3586	0	32808	32850	
3587	0	32784	32728	
3588	0	32873	32700	
3589	0	32848	32792	
3590	0	32788	32808	
3591	0	32860	32854	
3592	0	32796	32720	
3593	0	32786	32774	
3594	0	32809	32766	
3595	0	32792	32774	
3596	0	32756	32719	
3597	0	32800	32678	
3598	0	32796	32780	
3599	0	32792	32766	
3600	0	32790	32646	
3601	0	32784	32818	
3602	0	32840	32714	
3603	0	32840	32660	
3604	0	32896	32838	
3605	0	32784	32799	
3606	0	32802	32774	
3607	0	32878	32808	
3608	0	32820	32729	
3609	0	32796	32836	
3610	0	32760	32758	
3611	0	32800	32826	
3612	0	32836	32686	
3613	0	32796	32847	
3614	0	32880	32746	
3615	0	32898	32715	
3616	0	32812	32652	
3617	0	32796	32818	
3618	0	32796	32810	
3619	0	32842	32848	
3620	0	32816	32718	
3621	0	32736	32811	
3622	0	32832	32761	
3623	0	32886	32742	
3624	0	32785	32772	
3625	0	32772	32807	
3626	0	32804	32813	
3627	0	32878	32718	
3628	0	32810	32752	
3629	0	32824	32834	
3630	0	32784	32775	
3631	0	32758	32736	
3632	0	32810	32716	
3633	0	32796	32750	
3634	0	32802	32774	
3635	0	32822	32773	
3636	0	32824	32822	
3637	0	32800	32762	
3638	0	32852	32670	
3639	0	32816	32710	
3640	0	32796	32865	
3641	0	32854	32806	
3642	0	32838	32820	
3643	0	32804	32820	
3644	0	32836	32832	
3645	0	32840	32712	
3646	0	32738	32647	
3647	0	32772	32798	
3648	0	32768	32806	
3649	0	32744	32804	
3650	0	32820	32726	
3651	0	32830	32713	
3652	0	32848	32788	
3653	0	32786	32698	
3654	0	32842	32894	
3655	0	32838	32746	
3656	0	32808	32700	
3657	0	32796	32759	
3658	0	32846	32798	
3659	0	32840	32726	
3660	0	32812	32654	
3661	0	32790	32766	
3662	0	32828	32684	
3663	0	32810	32856	
3664	0	32816	32694	
3665	0	32776	32823	
3666	0	32772	32726	
3667	0	32782	32775	
3668	0	32870	32722	
3669	0	32818	32696	
3670	0	32768	32680	
3671	0	32768	32822	
3672	0	32836	32742	
3673	0	32828	32890	
3674	0	32816	32623	
3675	0	32716	32764	
3676	0	32804	32762	
3677	0	32820	32831	
3678	0	32768	32868	
3679	0	32804	32718	
3680	0	32752	32775	
3681	0	32856	32752	
3682	0	32834	32844	
3683	0	32804	32660	
3684	0	32744	32846	
3685	0	32836	32767	
3686	0	32804	32688	
3687	0	32878	32774	
3688	0	32828	32750	
3689	0	32840	32758	
3690	0	32872	32716	
3691	0	32844	32802	
3692	0	32824	32858	
3693	0	32812	32732	
3694	0	32852	32798	
3695	0	32816	32752	
3696	0	32880	32702	
3697	0	32888	32798	
3698	0	32800	32767	
3699	0	32814	32878	
3700	0	32810	32706	
3701	0	32768	32828	
3702	0	32812	32822	
3703	0	32816	32718	
3704	0	32820	32686	
3705	0	32772	32822	
3706	0	32836	32770	
3707	0	32800	32844	
3708	0	32770	32680	
3709	0	32748	32812	
3710	0	32840	32730	
3711	0	32870	32903	
3712	0	32796	32632	
3713	0	32808	32804	
3714	0	32796	32782	
3715	0	32864	32820	
3716	0	32864	32662	
3717	0	32838	32672	
3718	0	32796	32847	
3719	0	32784	32756	
3720	0	32824	32679	
3721	0	32790	32788	
3722	0	32792	32806	
3723	0	32772	32775	
3724	0	32818	32924	
3725	0	32756	32730	
3726	0	32800	32679	
3727	0	32808	32775	
3728	0	32836	32736	
3729	0	32856	32871	
3730	0	32772	32766	
3731	0	32768	32746	
3732	0	32880	32804	
3733	0	32754	32806	
3734	0	32824	32743	
3735	0	32826	32764	
3736	0	32756	32830	
3737	0	32806	32760	
3738	0	32768	32826	
3739	0	32812	32738	
3740	0	32812	32760	
3741	0	32860	32795	
3742	0	32858	32734	
3743	0	32930	32700	
3744	0	32792	32727	
3745	0	32772	32687	
3746	0	32770	32900	
3747	0	32876	32795	
3748	0	32856	32864	
3749	0	32754	32734	
3750	0	32760	32854	
3751	0	32764	32775	
3752	0	32800	32798	
3753	0	32892	32702	
3754	0	32816	32660	
3755	0	32786	32804	
3756	0	32820	32684	
3757	0	32834	32772	
3758	0	32852	32790	
3759	0	32814	32656	
3760	0	32814	32623	
3761	0	32780	32662	
3762	0	32828	32832	
3763	0	32828	32868	
3764	0	32860	32743	
3765	0	32782	32878	
3766	0	32760	32740	
3767	0	32776	32725	
3768	0	32826	32816	
3769	0	32816	32760	
3770	0	32872	32769	
3771	0	32824	32722	
3772	0	32818	32764	
3773	0	32832	32901	
3774	0	32832	32808	
3775	0	32894	32792	
3776	0	32786	32719	
3777	0	32752	32806	
3778	0	32752	32792	
3779	0	32800	32806	
3780	0	32794	32662	
3781	0	32814	32735	
3782	0	32814	32764	
3783	0	32810	32730	
3784	0	32824	32830	
3785	0	32748	32807	
3786	0	32704	32780	
3787	0	32880	32678	
3788	0	32848	32752	
3789	0	32820	32762	
3790	0	32856	32800	
3791	0	32818	32696	
3792	0	32862	32846	
3793	0	32860	32728	
3794	0	32762	32884	
3795	0	32840	32738	
3796	0	32760	32838	
3797	0	32836	32785	
3798	0	32864	32687	
3799	0	32788	32824	
3800	0	32812	32824	
3801	0	32894	32704	
3802	0	32808	32661	
3803	0	32796	32876	
3804	0	32794	32730	
3805	0	32740	32744	
3806	0	32692	32724	
3807	0	32798	32809	
3808	0	32834	32806	
3809	0	32808	32798	
3810	0	32866	32852	
3811	0	32884	32815	
3812	0	32812	32624	
3813	0	32796	32710	
3814	0	32848	32878	
3815	0	32816	32808	
3816	0	32748	32714	
3817	0	32788	32724	
3818	0	32754	32808	
3819	0	32804	32764	
3820	0	32744	32818	
3821	0	32788	32802	
3822	0	32820	32748	
3823	0	32784	32836	
3824	0	32912	32807	
3825	0	32904	32868	
3826	0	32844	32696	
3827	0	32852	32790	
3828	0	32828	32799	
3829	0	32804	32769	
3830	0	32836	32866	
3831	0	32852	32718	
3832	0	32818	32840	
3833	0	32888	32834	
3834	0	32820	32714	
3835	0	32804	32772	
3836	0	32900	32700	
3837	0	32864	32775	
3838	0	32792	32647	
3839	0	32768	32678	
3840	0	32716	32820	
3841	0	32798	32748	
3842	0	32802	32762	
3843	0	32836	32660	
3844	0	32816	32656	
3845	0	32784	32868	
3846	0	32814	32740	
3847	0	32848	32788	
3848	0	32832	32903	
3849	0	32823	32884	
3850	0	32760	32796	
3851	0	32834	32820	
3852	0	32832	32828	
3853	0	32852	32696	
3854	0	32806	32704	
3855	0	32824	32791	
3856	0	32800	32844	
3857	0	32840	32804	
3858	0	32860	32816	
3859	0	32807	32703	
3860	0	32844	32734	
3861	0	32766	32844	
3862	0	32792	32743	
3863	0	32804	32775	
3864	0	32790	32636	
3865	0	32790	32808	
3866	0	32744	32808	
3867	0	32842	32740	
3868	0	32782	32734	
3869	0	32778	32716	
3870	0	32816	32754	
3871	0	32784	32822	
3872	0	32838	32774	
3873	0	32832	32808	
3874	0	32892	32674	
3875	0	32794	32849	
3876	0	32760	32724	
3877	0	32878	32769	
3878	0	32828	32710	
3879	0	32858	32775	
3880	0	32878	32734	
3881	0	32758	32832	
3882	0	32832	32703	
3883	0	32850	32832	
3884	0	32810	32756	
3885	0	32804	32751	
3886	0	32732	32742	
3887	0	32810	32794	
3888	0	32820	32832	
3889	0	32840	32764	
3890	0	32790	32696	
3891	0	32748	32822	
3892	0	32786	32719	
3893	0	32820	32764	
3894	0	32842	32775	
3895	0	32772	32660	
3896	0	32910	32796	
3897	0	32780	32796	
3898	0	32840	32728	
3899	0	32820	32694	
3900	0	32816	32884	
3901	0	32772	32770	
3902	0	32764	32846	
3903	0	32818	32708	
3904	0	32787	32774	
3905	0	32824	32775	
3906	0	32818	32804	
3907	0	32766	32700	
3908	0	32798	32754	
3909	0	32816	32838	
3910	0	32768	32730	
3911	0	32832	32799	
3912	0	32852	32708	
3913	0	32814	32720	
3914	0	32812	32760	
3915	0	32818	32839	
3916	0	32820	32824	
3917	0	32812	32694	
3918	0	32858	32704	
3919	0	32772	32710	
3920	0	32808	32763	
3921	0	32840	32738	
3922	0	32860	32746	
3923	0	32858	32822	
3924	0	32756	32790	
3925	0	32840	32807	
3926	0	32804	32804	
3927	0	32808	32719	
3928	0	32810	32860	
3929	0	32868	32858	
3930	0	32886	32871	
3931	0	32788	32686	
3932	0	32796	32871	
3933	0	32854	32694	
3934	0	32804	32909	
3935	0	32832	32710	
3936	0	32816	32871	
3937	0	32836	32772	
3938	0	32816	32710	
3939	0	32736	32876	
3940	0	32928	32872	
3941	0	32818	32709	
3942	0	32828	32822	
3943	0	32832	32762	
3944	0	32788	32676	
3945	0	32864	32760	
3946	0	32754	32764	
3947	0	32798	32840	
3948	0	32820	32680	
3949	0	32738	32822	
3950	0	32792	32762	
3951	0	32794	32694	
3952	0	32738	32756	
3953	0	32772	32774	
3954	0	32782	32724	
3955	0	32740	32775	
3956	0	32792	32734	
3957	0	32824	32786	
3958	0	32808	32704	
3959	0	32848	32811	
3960	0	32868	32762	
3961	0	32856	32804	
3962	0	32828	32668	
3963	0	32876	32775	
3964	0	32904	32796	
3965	0	32852	32668	
3966	0	32854	32772	
3967	0	32816	32850	
3968	0	32836	32705	
3969	0	32796	32716	
3970	0	32736	32830	
3971	0	32868	32862	
3972	0	32748	32676	
3973	0	32744	32767	
3974	0	32794	32790	
3975	0	32790	32728	
3976	0	32848	32812	
3977	0	32804	32708	
3978	0	32832	32722	
3979	0	32800	32724	
3980	0	32790	32743	
3981	0	32744	32792	
3982	0	32730	32743	
3983	0	32844	32758	
3984	0	32730	32775	
3985	0	32836	32830	
3986	0	32788	32722	
3987	0	32784	32842	
3988	0	32870	32780	
3989	0	32748	32772	
3990	0	32804	32694	
3991	0	32816	32756	
3992	0	32764	32676	
3993	0	32800	32768	
3994	0	32888	32764	
3995	0	32820	32924	
3996	0	32846	32774	
3997	0	32822	32708	
3998	0	32916	32706	
3999	0	32824	32802	
4000	0	32792	32689	
4001	0	32736	32858	
4002	0	32808	32775	
4003	0	32778	32812	
4004	0	32790	32676	
4005	0	32824	32760	
4006	0	32868	32816	
4007	0	32804	32862	
4008	0	32764	32743	
4009	0	32804	32756	
4010	0	32862	32724	
4011	0	32812	32774	
4012	0	32776	32583	
4013	0	32856	32802	
4014	0	32836	32748	
4015	0	32820	32702	
4016	0	32812	32748	
4017	0	32844	32850	
4018	0	32864	32718	
4019	0	32816	32854	
4020	0	32762	32682	
4021	0	32846	32774	
4022	0	32828	32775	
4023	0	32760	32670	
4024	0	32816	32854	
4025	0	32850	32860	
4026	0	32874	32775	
4027	0	32889	32746	
4028	0	32846	32820	
4029	0	32832	32769	
4030	0	32748	32736	
4031	0	32824	32814	
4032	0	32732	32800	
4033	0	32746	32720	
4034	0	32749	32730	
4035	0	32752	32804	
4036	0	32740	32806	
4037	0	32784	32687	
4038	0	32836	32764	
4039	0	32856	32759	
4040	0	32860	32738	
4041	0	32828	32760	
4042	0	32836	32764	
4043	0	32760	32732	
4044	0	32864	32816	
4045	0	32812	32838	
4046	0	32832	32668	
4047	0	32808	32750	
4048	0	32828	32810	
4049	0	32885	32775	
4050	0	32736	32808	
4051	0	32834	32635	
4052	0	32812	32743	
4053	0	32784	32834	
4054	0	32864	32688	
4055	0	32808	32732	
4056	0	32804	32738	
4057	0	32830	32764	
4058	0	32880	32911	
4059	0	32852	32788	
4060	0	32796	32753	
4061	0	32868	32724	
4062	0	32768	32655	
4063	0	32804	32732	
4064	0	32824	32790	
4065	0	32768	32760	
4066	0	32824	32772	
4067	0	32784	32788	
4068	0	32900	32808	
4069	0	32782	32768	
4070	0	32824	32748	
4071	0	32838	32798	
4072	0	32826	32682	
4073	0	32862	32807	
4074	0	32820	32700	
4075	0	32844	32804	
4076	0	32870	32692	
4077	0	32806	32740	
4078	0	32780	32858	
4079	0	32772	32800	
4080	0	32752	32775	
4081	0	32814	32814	
4082	0	32780	32656	
4083	0	32840	32718	
4084	0	32754	32868	
4085	0	32752	32775	
4086	0	32724	32862	
4087	0	32840	32714	
4088	0	32772	32826	
4089	0	32820	32828	
4090	0	32816	32790	
4091	0	32900	32789	
4092	0	32808	32810	
4093	0	32780	32678	
4094	0	32830	32769	
4095	0	32840	32775	
4096	0	32824	32838	
4097	0	32824	32640	
4098	0	32832	32829	
4099	0	32870	32698	
4100	0	32816	32794	
4101	0	32800	32708	
4102	0	32812	32730	
4103	0	32896	32775	
4104	0	32782	32753	
4105	0	32832	32714	
4106	0	32796	32670	
4107	0	32856	32775	
4108	0	32792	32790	
4109	0	32826	32852	
4110	0	32816	32678	
4111	0	32808	32730	
4112	0	32792	32820	
4113	0	32714	32838	
4114	0	32724	32836	
4115	0	32738	32682	
4116	0	32792	32767	
4117	0	32776	32742	
4118	0	32816	32876	
4119	0	32862	32762	
4120	0	32888	32736	
4121	0	32892	32846	
4122	0	32838	32775	
4123	0	32822	32790	
4124	0	32783	32758	
4125	0	32772	32682	
4126	0	32792	32751	
4127	0	32768	32738	
4128	0	32824	32775	
4129	0	32852	32791	
4130	0	32772	32734	
4131	0	32820	32876	
4132	0	32828	32688	
4133	0	32856	32850	
4134	0	32866	32747	
4135	0	32862	32748	
4136	0	32802	32895	
4137	0	32798	32644	
4138	0	32818	32796	
4139	0	32810	32678	
4140	0	32768	32616	
4141	0	32778	32704	
4142	0	32690	32702	
4143	0	32740	32646	
4144	0	32736	32610	
4145	0	32760	32712	
4146	0	32752	32718	
4147	0	32772	32578	
4148	0	32676	32612	
4149	0	32802	32720	
4150	0	32778	32716	
4151	0	32768	32751	
4152	0	32712	32697	
4153	0	32704	32590	
4154	0	32680	32609	
4155	0	32748	32662	
4156	0	32716	32736	
4157	0	32800	32582	
4158	0	32808	32694	
4159	0	32798	32726	
4160	0	32858	32680	
4161	0	32900	32728	
4162	0	32932	32644	
4163	0	32992	32762	
4164	0	33064	32730	
4165	0	33080	32988	
4166	0	33090	32935	
4167	0	33152	33188	
4168	0	33170	33316	
4169	0	33096	33287	
4170	0	33044	33328	
4171	0	32972	33132	
4172	0	32904	33074	
4173	0	32866	33018	
4174	0	32876	33044	
4175	0	32768	32828	
4176	0	32760	32708	
4177	0	32746	32775	
4178	0	32640	32646	
4179	0	32748	32630	
4180	0	32772	32564	
4181	0	32704	32708	
4182	0	32732	32540	
4183	0	32700	32575	
4184	0	32650	32476	
4185	0	32664	32668	
4186	0	32636	32681	
4187	0	32648	32710	
4188	0	32616	32710	
4189	0	32684	32721	
4190	0	32740	32740	
4191	0	32650	32762	
4192	0	32776	32718	
4193	0	32828	32732	
4194	0	32708	32775	
4195	0	32830	32708	
4196	0	32800	32766	
4197	0	32772	32718	
4198	0	32796	32780	
4199	0	32824	32686	
4200	0	32910	32884	
4201	0	32816	32790	
4202	0	32858	32748	
4203	0	32874	32775	
4204	0	32820	32842	
4205	0	32872	32800	
4206	0	32922	32710	
4207	0	32852	32752	
4208	0	32780	32718	
4209	0	32816	32736	
4210	0	32808	32775	
4211	0	32824	32775	
4212	0	32789	32679	
4213	0	32756	32824	
4214	0	32832	32775	
4215	0	32808	32812	
4216	0	32836	32747	
4217	0	32824	32722	
4218	0	32874	32742	
4219	0	32826	32775	
4220	0	32836	32820	
4221	0	32842	32722	
4222	0	32740	32706	
4223	0	32836	32771	
4224	0	32714	32740	
4225	0	32798	32762	
4226	0	32768	32761	
4227	0	32792	32792	
4228	0	32826	32770	
4229	0	32854	32836	
4230	0	32736	32670	
4231	0	32796	32736	
4232	0	32780	32804	
4233	0	32786	32775	
4234	0	32768	32711	
4235	0	32744	32838	
4236	0	32776	32676	
4237	0	32786	32792	
4238	0	32788	32775	
4239	0	32824	32840	
4240	0	32896	32708	
4241	0	32830	32696	
4242	0	32848	32700	
4243	0	32832	32764	
4244	0	32800	32804	
4245	0	32836	32719	
4246	0	32854	32679	
4247	0	32846	32716	
4248	0	32770	32810	
4249	0	32816	32874	
4250	0	32860	32720	
4251	0	32764	32740	
4252	0	32806	32722	
4253	0	32836	32782	
4254	0	32738	32684	
4255	0	32808	32732	
4256	0	32832	32807	
4257	0	32756	32783	
4258	0	32788	32746	
4259	0	32828	32744	
4260	0	32812	32807	
4261	0	32788	32756	
4262	0	32784	32772	
4263	0	32844	32775	
4264	0	32862	32690	
4265	0	32812	32688	
4266	0	32816	32746	
4267	0	32832	32736	
4268	0	32796	32850	
4269	0	32792	32791	
4270	0	32766	32660	
4271	0	32800	32734	
4272	0	32852	32772	
4273	0	32868	32774	
4274	0	32812	32752	
4275	0	32834	32702	
4276	0	32820	32790	
4277	0	32780	32775	
4278	0	32816	32822	
4279	0	32820	32744	
4280	0	32833	32618	
4281	0	32778	32887	
4282	0	32812	32775	
4283	0	32778	32775	
4284	0	32798	32824	
4285	0	32764	32682	
4286	0	32764	32847	
4287	0	32852	32775	
4288	0	32836	32798	
4289	0	32836	32672	
4290	0	32800	32824	
4291	0	32758	32775	
4292	0	32816	32880	
4293	0	32820	32704	
4294	0	32844	32818	
4295	0	32844	32820	
4296	0	32768	32708	
4297	0	32768	32746	
4298	0	32758	32762	
4299	0	32794	32732	
4300	0	32880	32887	
4301	0	32788	32732	
4302	0	32780	32808	
4303	0	32826	32742	
4304	0	32836	32844	
4305	0	32836	32677	
4306	0	32834	32804	
4307	0	32816	32775	
4308	0	32857	32744	
4309	0	32796	32865	
4310	0	32816	32767	
4311	0	32864	32791	
4312	0	32864	32719	
4313	0	32868	32817	
4314	0	32794	32802	
4315	0	32852	32760	
4316	0	32852	32775	
4317	0	32822	32758	
4318	0	32780	32756	
4319	0	32766	32774	
4320	0	32858	32723	
4321	0	32764	32791	
4322	0	32736	32756	
4323	0	32740	32690	
4324	0	32780	32679	
4325	0	32794	32743	
4326	0	32804	32822	
4327	0	32752	32810	
4328	0	32842	32720	
4329	0	32748	32798	
4330	0	32812	32707	
4331	0	32720	32800	
4332	0	32708	32750	
4333	0	32886	32736	
4334	0	32798	32764	
4335	0	32864	32644	
4336	0	32800	32832	
4337	0	32876	32775	
4338	0	32896	32839	
4339	0	32784	32764	
4340	0	32854	32754	
4341	0	32820	32792	
4342	0	32808	32746	
4343	0	32836	32838	
4344	0	32810	32742	
4345	0	32708	32828	
4346	0	32836	32731	
4347	0	32796	32724	
4348	0	32884	32794	
4349	0	32778	32686	
4350	0	32824	32738	
4351	0	32798	32794	
4352	0	32802	32767	
4353	0	32740	32760	
4354	0	32868	32872	
4355	0	32744	32716	
4356	0	32817	32756	
4357	0	32880	32834	
4358	0	32804	32752	
4359	0	32916	32724	
4360	0	32812	32644	
4361	0	32840	32766	
4362	0	32820	32759	
4363	0	32844	32760	
4364	0	32756	32742	
4365	0	32780	32806	
4366	0	32792	32836	
4367	0	32782	32758	
4368	0	32842	32816	
4369	0	32790	32688	
4370	0	32794	32704	
4371	0	32840	32775	
4372	0	32790	32818	
4373	0	32836	32764	
4374	0	32828	32758	
4375	0	32804	32824	
4376	0	32860	32890	
4377	0	32812	32730	
4378	0	32836	32710	
4379	0	32856	32840	
4380	0	32806	32660	
4381	0	32857	32775	
4382	0	32724	32724	
4383	0	32752	32866	
4384	0	32738	32704	
4385	0	32756	32772	
4386	0	32760	32812	
4387	0	32764	32935	
4388	0	32768	32742	
4389	0	32804	32856	
4390	0	32872	32829	
4391	0	32848	32756	
4392	0	32802	32743	
4393	0	32844	32800	
4394	0	32826	32812	
4395	0	32824	32758	
4396	0	32896	32844	
4397	0	32868	32732	
4398	0	32814	32764	
4399	0	32862	32730	
4400	0	32840	32839	
4401	0	32884	32775	
4402	0	32796	32743	
4403	0	32756	32820	
4404	0	32864	32838	
4405	0	32808	32683	
4406	0	32812	32742	
4407	0	32842	32704	
4408	0	32850	32874	
4409	0	32772	32700	
4410	0	32820	32786	
4411	0	32816	32722	
4412	0	32854	32755	
4413	0	32820	32670	
4414	0	32836	32730	
4415	0	32916	32789	
4416	0	32874	32716	
4417	0	32814	32764	
4418	0	32748	32818	
4419	0	32772	32886	
4420	0	32736	32722	
4421	0	32820	32838	
4422	0	32808	32772	
4423	0	32776	32806	
4424	0	32740	32752	
4425	0	32768	32840	
4426	0	32810	32846	
4427	0	32792	32708	
4428	0	32804	32728	
4429	0	32808	32740	
4430	0	32808	32874	
4431	0	32754	32628	
4432	0	32810	32668	
4433	0	32836	32822	
4434	0	32804	32642	
4435	0	32780	32815	
4436	0	32868	32718	
4437	0	32812	32754	
4438	0	32836	32678	
4439	0	32794	32796	
4440	0	32836	32736	
4441	0	32868	32732	
4442	0	32789	32750	
4443	0	32848	32852	
4444	0	32844	32775	
4445	0	32828	32814	
4446	0	32820	32756	
4447	0	32832	32822	
4448	0	32810	32823	
4449	0	32804	32868	
4450	0	32740	32740	
4451	0	32749	32759	
4452	0	32796	32860	
4453	0	32856	32836	
4454	0	32744	32644	
4455	0	32682	32694	
4456	0	32864	32775	
4457	0	32676	32746	
4458	0	32528	32608	
4459	0	32812	32670	
4460	0	32872	32786	
4461	0	32836	32742	
4462	0	32824	32822	
4463	0	32852	32758	
4464	0	32970	32836	
4465	0	32952	32764	
4466	0	32852	32775	
4467	0	32896	32775	
4468	0	32792	32724	
4469	0	32798	32839	
4470	0	32900	32792	
4471	0	32864	32727	
4472	0	32908	32712	
4473	0	32852	32856	
4474	0	32744	32804	
4475	0	32836	32828	
4476	0	32826	32714	
4477	0	32812	32660	
4478	0	32808	32676	
4479	0	32762	32736	
4480	0	32848	32678	
4481	0	32810	32604	
4482	0	32808	32775	
4483	0	32790	32724	
4484	0	32744	32706	
4485	0	32776	32788	
4486	0	32884	32732	
4487	0	32808	32816	
4488	0	32832	32720	
4489	0	32788	32808	
4490	0	32846	32807	
4491	0	32792	32679	
4492	0	32816	32758	
4493	0	32836	32853	
4494	0	32788	32839	
4495	0	32804	32766	
4496	0	32806	32760	
4497	0	32804	32804	
4498	0	32756	32834	
4499	0	32778	32808	
4500	0	32740	32686	
4501	0	32728	32817	
4502	0	32900	32882	
4503	0	32824	32791	
4504	0	32802	32775	
4505	0	32836	32796	
4506	0	32768	32742	
4507	0	32808	32815	
4508	0	32796	32862	
4509	0	32762	32810	
4510	0	32790	32660	
4511	0	32840	32808	
4512	0	32900	32760	
4513	0	32820	32791	
4514	0	32838	32647	
4515	0	32820	32924	
4516	0	32836	32748	
4517	0	32790	32794	
4518	0	32844	32672	
4519	0	32792	32786	
4520	0	32752	32836	
4521	0	32892	32775	
4522	0	32832	32647	
4523	0	32888	32766	
4524	0	32774	32743	
4525	0	32820	32852	
4526	0	32840	32742	
4527	0	32846	32862	
4528	0	32816	32768	
4529	0	32800	32896	
4530	0	32760	32815	
4531	0	32890	32860	
4532	0	32839	32698	
4533	0	32780	32722	
4534	0	32844	32692	
4535	0	32836	32710	
4536	0	32768	32752	
4537	0	32846	32742	
4538	0	32798	32817	
4539	0	32768	32756	
4540	0	32804	32750	
4541	0	32872	32798	
4542	0	32802	32754	
4543	0	32808	32729	
4544	0	32802	32646	
4545	0	32856	32766	
4546	0	32828	32626	
4547	0	32828	32775	
4548	0	32792	32714	
4549	0	32856	32748	
4550	0	32808	32734	
4551	0	32836	32802	
4552	0	32780	32876	
4553	0	32794	32748	
4554	0	32754	32810	
4555	0	32744	32826	
4556	0	32828	32775	
4557	0	32756	32600	
4558	0	32822	32823	
4559	0	32808	32864	
4560	0	32832	32743	
4561	0	32876	32711	
4562	0	32808	32787	
4563	0	32852	32832	
4564	0	32880	32798	
4565	0	32852	32732	
4566	0	32846	32855	
4567	0	32788	32806	
4568	0	32788	32637	
4569	0	32824	32820	
4570	0	32856	32788	
4571	0	32792	32702	
4572	0	32844	32758	
4573	0	32792	32759	
4574	0	32818	32814	
4575	0	32812	32774	
4576	0	32804	32871	
4577	0	32864	32835	
4578	0	32796	32734	
4579	0	32812	32716	
4580	0	32812	32732	
4581	0	32804	32684	
4582	0	32820	32744	
4583	0	32776	32862	
4584	0	32780	32936	
4585	0	32772	32770	
4586	0	32700	32839	
4587	0	32804	32860	
4588	0	32788	32672	
4589	0	32822	32790	
4590	0	32952	32678	
4591	0	32920	32711	
4592	0	32920	32700	
4593	0	32936	32820	
4594	0	32872	32640	
4595	0	32824	32658	
4596	0	32930	32644	
4597	0	32848	32772	
4598	0	32818	32702	
4599	0	32820	32814	
4600	0	32808	32803	
4601	0	32816	32852	
4602	0	32840	32880	
4603	0	32800	32732	
4604	0	32850	32804	
4605	0	32750	32796	
4606	0	32700	32774	
4607	0	32706	32751	
4608	0	32728	32880	
4609	0	32744	32888	
4610	0	32824	32844	
4611	0	32732	32944	
4612	0	32676	32948	
4613	0	32608	32732	
4614	0	32698	32862	
4615	0	32804	32804	
4616	0	32938	32743	
4617	0	32902	32666	
4618	0	32912	32740	
4619	0	32962	32686	
4620	0	33112	32734	
4621	0	33050	32671	
4622	0	32968	32721	
4623	0	32924	32760	
4624	0	32808	32725	
4625	0	32848	32673	
4626	0	32849	32726	
4627	0	32706	32775	
4628	0	32778	32716	
4629	0	32788	32718	
4630	0	32844	32711	
4631	0	32732	32652	
4632	0	32796	32680	
4633	0	32780	32796	
4634	0	32696	32718	
4635	0	32760	32630	
4636	0	32784	32810	
4637	0	32824	32774	
4638	0	32774	32756	
4639	0	32836	32732	
4640	0	32752	32844	
4641	0	32740	32770	
4642	0	32812	32826	
4643	0	32848	32743	
4644	0	32832	32820	
4645	0	32816	32820	
4646	0	32884	33000	
4647	0	32704	32839	
4648	0	32774	32938	
4649	0	32810	32868	
4650	0	32788	32944	
4651	0	32758	32814	
4652	0	32758	32906	
4653	0	32788	32754	
4654	0	32724	32711	
4655	0	32789	32732	
4656	0	32860	32604	
4657	0	32865	32552	
4658	0	32836	32651	
4659	0	32804	32720	
4660	0	32840	32647	
4661	0	32800	32594	
4662	0	32824	32746	
4663	0	32816	32586	
4664	0	32856	32728	
4665	0	32864	32646	
4666	0	32804	32683	
4667	0	32864	32744	
4668	0	32728	32654	
4669	0	32898	32710	
4670	0	32968	32628	
4671	0	32675	32584	
4672	0	32824	32736	
4673	0	32914	32775	
4674	0	32884	32718	
4675	0	32858	32885	
4676	0	32840	32860	
4677	0	32816	32928	
4678	0	32699	32836	
4679	0	32814	32812	
4680	0	32862	32836	
4681	0	32782	32900	
4682	0	32648	32726	
4683	0	32640	32926	
4684	0	32596	32837	
4685	0	32568	32831	
4686	0	32878	32828	
4687	0	33064	32858	
4688	0	33106	32943	
4689	0	33032	32838	
4690	0	32938	32910	
4691	0	32932	32770	
4692	0	32786	32704	
4693	0	32800	32676	
4694	0	32892	32640	
4695	0	32788	32868	
4696	0	32752	32604	
4697	0	32736	32743	
4698	0	32816	32772	
4699	0	32728	32860	
4700	0	32744	32686	
4701	0	32732	32872	
4702	0	32676	32800	
4703	0	32744	32742	
4704	0	32754	32596	
4705	0	32872	32760	
4706	0	32792	32754	
4707	0	32816	32766	
4708	0	32840	32704	
4709	0	32772	32807	
4710	0	32828	32754	
4711	0	32822	32774	
4712	0	32906	32769	
4713	0	32870	32830	
4714	0	32800	32850	
4715	0	32830	32728	
4716	0	32820	32768	
4717	0	32800	32768	
4718	0	32780	32698	
4719	0	32860	32677	
4720	0	32964	32754	
4721	0	32676	32756	
4722	0	32602	32830	
4723	0	32702	32684	
4724	0	32748	32742	
4725	0	32820	32863	
4726	0	32960	32790	
4727	0	32884	32820	
4728	0	32810	32722	
4729	0	32876	32792	
4730	0	32800	32892	
4731	0	32832	32848	
4732	0	32816	32734	
4733	0	32818	32647	
4734	0	32868	32836	
4735	0	32868	32751	
4736	0	32840	32743	
4737	0	32860	32806	
4738	0	32808	32871	
4739	0	32790	32730	
4740	0	32716	32768	
4741	0	32590	32730	
4742	0	32628	32663	
4743	0	32720	32710	
4744	0	32742	32581	
4745	0	32862	32740	
4746	0	32812	32832	
4747	0	32872	32864	
4748	0	32932	32774	
4749	0	32812	32842	
4750	0	32772	32820	
4751	0	32836	32676	
4752	0	32830	32775	
4753	0	32792	32718	
4754	0	32778	32636	
4755	0	32794	32826	
4756	0	32684	32710	
4757	0	32900	32775	
4758	0	32920	32754	
4759	0	32792	32798	
4760	0	32868	32699	
4761	0	32826	32790	
4762	0	32800	32817	
4763	0	32832	32719	
4764	0	32888	32834	
4765	0	32784	32788	
4766	0	32808	32775	
4767	0	32796	32948	
4768	0	32760	32852	
4769	0	32726	32760	
4770	0	32748	32672	
4771	0	32820	32811	
4772	0	32790	32834	
4773	0	32760	32751	
4774	0	32824	32764	
4775	0	32746	32852	
4776	0	32816	32667	
4777	0	32812	32775	
4778	0	32840	32711	
4779	0	32798	32676	
4780	0	32772	32806	
4781	0	32672	32733	
4782	0	32834	32775	
4783	0	32948	32826	
4784	0	32948	32846	
4785	0	32924	32818	
4786	0	32920	32808	
4787	0	32868	32798	
4788	0	32788	32736	
4789	0	32748	32774	
4790	0	32796	32588	
4791	0	32760	32736	
4792	0	32694	32807	
4793	0	32728	32692	
4794	0	32788	32868	
4795	0	32816	32822	
4796	0	32736	32772	
4797	0	32800	32658	
4798	0	32832	32647	
4799	0	32854	32720	
4800	0	32868	32596	
4801	0	32940	32732	
4802	0	32880	32668	
4803	0	32830	32655	
4804	0	32818	32804	
4805	0	32842	32814	
4806	0	32736	32714	
4807	0	32816	32762	
4808	0	32816	32775	
4809	0	32734	32820	
4810	0	32700	32716	
4811	0	32840	32839	
4812	0	32794	32806	
4813	0	32812	32662	
4814	0	32900	32847	
4815	0	32808	32760	
4816	0	32788	32714	
4817	0	32954	32900	
4818	0	32864	32871	
4819	0	32776	32818	
4820	0	32728	32718	
4821	0	32780	32826	
4822	0	32812	32814	
4823	0	32775	32810	
4824	0	32904	32726	
4825	0	32834	32866	
4826	0	32810	32692	
4827	0	32800	32884	
4828	0	32800	32708	
4829	0	32866	32726	
4830	0	32736	32743	
4831	0	32648	32818	
4832	0	32680	32700	
4833	0	32976	32758	
4834	0	32994	32808	
4835	0	33104	32759	
4836	0	33024	32798	
4837	0	32796	32671	
4838	0	32788	32646	
4839	0	32712	32775	
4840	0	32708	32775	
4841	0	32684	32758	
4842	0	32688	32750	
4843	0	32768	32684	
4844	0	32736	32846	
4845	0	32908	32774	
4846	0	32904	32846	
4847	0	32912	32788	
4848	0	32938	32791	
4849	0	32864	32734	
4850	0	32788	32811	
4851	0	32826	32703	
4852	0	32832	32799	
4853	0	32760	32752	
4854	0	32768	32756	
4855	0	32766	32794	
4856	0	32776	32766	
4857	0	32772	32858	
4858	0	32882	32742	
4859	0	32874	32766	
4860	0	32854	32576	
4861	0	32816	32798	
4862	0	32836	32764	
4863	0	32828	32840	
4864	0	32796	32732	
4865	0	32708	32750	
4866	0	32768	32753	
4867	0	32900	32903	
4868	0	32656	32807	
4869	0	32714	32775	
4870	0	32684	32716	
4871	0	32816	32854	
4872	0	32772	32687	
4873	0	32784	32882	
4874	0	32804	32812	
4875	0	32804	32844	
4876	0	32832	32746	
4877	0	32852	32754	
4878	0	32914	32716	
4879	0	32936	32682	
4880	0	32976	32696	
4881	0	32736	32660	
4882	0	32780	32812	
4883	0	32724	32740	
4884	0	32840	32832	
4885	0	32772	32756	
4886	0	32738	32718	
4887	0	32700	32834	
4888	0	32808	32854	
4889	0	32760	32756	
4890	0	32798	32775	
4891	0	32800	32794	
4892	0	32716	32606	
4893	0	32732	32748	
4894	0	32838	32786	
4895	0	33004	32616	
4896	0	32865	32608	
4897	0	32922	32540	
4898	0	32836	32674	
4899	0	32752	32592	
4900	0	32750	32536	
4901	0	32764	32743	
4902	0	32902	32752	
4903	0	32656	32684	
4904	0	32682	32696	
4905	0	32538	32802	
4906	0	32452	32824	
4907	0	32640	32830	
4908	0	32605	32640	
4909	0	32776	32628	
4910	0	32900	32855	
4911	0	32932	32798	
4912	0	32808	32878	
4913	0	32780	32695	
4914	0	32836	32884	
4915	0	32812	32830	
4916	0	32834	32750	
4917	0	33020	32832	
4918	0	33136	32690	
4919	0	33112	32666	
4920	0	33204	32678	
4921	0	33356	32868	
4922	0	33328	32946	
4923	0	33296	33031	
4924	0	33176	33056	
4925	0	33044	32974	
4926	0	32896	33082	
4927	0	32768	33136	
4928	0	32810	32917	
4929	0	32720	32892	
4930	0	32704	32944	
4931	0	32616	32740	
4932	0	32668	32738	
4933	0	32616	32868	
4934	0	32584	32672	
4935	0	32648	32636	
4936	0	32634	32714	
4937	0	32544	32676	
4938	0	32676	32746	
4939	0	32648	32636	
4940	0	32664	32671	
4941	0	32660	32740	
4942	0	32688	32686	
4943	0	32674	32708	
4944	0	32860	32714	
4945	0	32852	32670	
4946	0	32732	32770	
4947	0	32792	32684	
4948	0	32784	32792	
4949	0	32834	32782	
4950	0	32756	32748	
4951	0	32792	32644	
4952	0	32812	32768	
4953	0	32736	32825	
4954	0	32760	32796	
4955	0	32832	32840	
4956	0	33040	32696	
4957	0	32822	32714	
4958	0	32786	32726	
4959	0	32916	32716	
4960	0	32856	32679	
4961	0	32880	32774	
4962	0	32872	32708	
4963	0	32844	32836	
4964	0	32868	33018	
4965	0	32702	33010	
4966	0	32648	32802	
4967	0	32868	32860	
4968	0	32992	32775	
4969	0	32984	32638	
4970	0	32960	32676	
4971	0	32856	32768	
4972	0	32709	32758	
4973	0	32896	32836	
4974	0	32996	32672	
4975	0	32770	32676	
4976	0	32840	32726	
4977	0	32720	32680	
4978	0	32752	32662	
4979	0	32808	32575	
4980	0	32816	32710	
4981	0	32664	32657	
4982	0	32422	32668	
4983	0	32804	32593	
4984	0	32808	32711	
4985	0	32848	32818	
4986	0	32976	32823	
4987	0	32928	32838	
4988	0	32928	32830	
4989	0	32824	32976	
4990	0	32810	32908	
4991	0	32804	32911	
4992	0	32872	32844	
4993	0	32772	32871	
4994	0	32690	32806	
4995	0	32818	32950	
4996	0	32848	32748	
4997	0	32724	32722	
4998	0	32796	32858	
4999	0	32804	32749	
5000	0	32918	32662	
5001	0	32912	32700	
5002	0	32832	32934	
5003	0	32856	32804	
5004	0	32816	32800	
5005	0	32672	32760	
5006	0	32740	32742	
5007	0	32740	32784	
5008	0	32764	32719	
5009	0	32808	32774	
5010	0	32812	32678	
5011	0	32798	32732	
5012	0	32808	32814	
5013	0	32928	32770	
5014	0	32936	32807	
5015	0	32810	32680	
5016	0	32936	32686	
5017	0	32756	32926	
5018	0	32776	33094	
5019	0	32668	32914	
5020	0	32618	32919	
5021	0	32484	32756	
5022	0	32772	32758	
5023	0	33028	32775	
5024	0	32818	32647	
5025	0	32968	32646	
5026	0	32806	32544	
5027	0	32848	32598	
5028	0	32780	32734	
5029	0	32902	32729	
5030	0	32764	32666	
5031	0	32696	32564	
5032	0	32704	32558	
5033	0	32824	32710	
5034	0	32818	32792	
5035	0	32810	32976	
5036	0	33088	32830	
5037	0	32774	32956	
5038	0	32962	32902	
5039	0	33012	32966	
5040	0	32952	32775	
5041	0	32776	32688	
5042	0	32692	32770	
5043	0	32840	32819	
5044	0	32920	32736	
5045	0	32856	32696	
5046	0	32785	32630	
5047	0	32636	32519	
5048	0	32688	32679	
5049	0	32824	32712	
5050	0	32768	32895	
5051	0	32564	32958	
5052	0	32828	32888	
5053	0	32794	32982	
5054	0	32868	32960	
5055	0	32608	32903	
5056	0	32552	32700	
5057	0	32526	32768	
5058	0	32568	32888	
5059	0	32700	32803	
5060	0	32992	33018	
5061	0	33076	32870	
5062	0	33164	32790	
5063	0	33126	32856	
5064	0	33076	32767	
5065	0	33056	32700	
5066	0	32816	32554	
5067	0	32814	32690	
5068	0	32804	32695	
5069	0	32944	32666	
5070	0	32600	32548	
5071	0	32456	32630	
5072	0	32780	32618	
5073	0	32672	32638	
5074	0	32760	32647	
5075	0	32720	32752	
5076	0	32580	32746	
5077	0	32784	32802	
5078	0	33376	32796	
5079	0	33024	32716	
5080	0	32882	32896	
5081	0	32756	32832	
5082	0	32644	32724	
5083	0	32590	32916	
5084	0	32536	33002	
5085	0	32804	33018	
5086	0	32853	32858	
5087	0	32960	32819	
5088	0	33042	32848	
5089	0	32700	32806	
5090	0	32660	32920	
5091	0	32752	32839	
5092	0	32922	32881	
5093	0	32864	32456	
5094	0	32840	32548	
5095	0	32740	32406	
5096	0	32860	32620	
5097	0	32872	32638	
5098	0	32688	32835	
5099	0	32804	32903	
5100	0	32832	33018	
5101	0	32968	32942	
5102	0	32486	32842	
5103	0	32432	32954	
5104	0	32448	32950	
5105	0	32576	32760	
5106	0	32744	32696	
5107	0	32796	32690	
5108	0	33048	32775	
5109	0	33020	32495	
5110	0	32798	32666	
5111	0	32994	32688	
5112	0	33360	32770	
5113	0	32844	32526	
5114	0	32738	32580	
5115	0	32588	32660	
5116	0	32992	32876	
5117	0	33088	32740	
5118	0	32670	32742	
5119	0	33176	32860	
5120	0	33004	32944	
5121	0	33192	32775	
5122	0	33112	32816	
5123	0	33100	32581	
5124	0	32726	32508	
5125	0	32306	32488	
5126	0	32650	32722	
5127	0	32698	32690	
5128	0	32548	32826	
5129	0	32604	33012	
5130	0	32432	32774	
5131	0	32528	32682	
5132	0	32648	32796	
5133	0	32552	32730	
5134	0	32356	32884	
5135	0	32628	33188	
5136	0	33200	33218	
5137	0	32960	33062	
5138	0	33126	33112	
5139	0	32880	32924	
5140	0	32876	33004	
5141	0	33564	33024	
5142	0	33288	32836	
5143	0	32698	32417	
5144	0	33074	32576	
5145	0	33124	32687	
5146	0	32812	32738	
5147	0	32386	32748	
5148	0	33356	32462	
5149	0	32958	32391	
5150	0	32784	32334	
5151	0	32837	32535	
5152	0	32656	32750	
5153	0	32102	32597	
5154	0	32320	32540	
5155	0	32420	32710	
5156	0	32654	32684	
5157	0	32956	32615	
5158	0	33160	32487	
5159	0	33284	32536	
5160	0	33126	32568	
5161	0	33040	32623	
5162	0	32598	32838	
5163	0	32504	32756	
5164	0	32458	32935	
5165	0	32536	32910	
5166	0	32556	32802	
5167	0	32832	32678	
5168	0	32272	32682	
5169	0	32792	32826	
5170	0	33102	32974	
5171	0	32176	32880	
5172	0	32728	32934	
5173	0	32962	33306	
5174	0	33362	32963	
5175	0	33636	33054	
5176	0	33166	33030	
5177	0	33388	32966	
5178	0	33040	32996	
5179	0	32940	32856	
5180	0	32804	32818	
5181	0	32500	32582	
5182	0	32396	32706	
5183	0	32628	32410	
5184	0	32798	32490	
5185	0	32970	32698	
5186	0	32812	32828	
5187	0	32580	32767	
5188	0	32840	32798	
5189	0	33398	32834	
5190	0	32912	32932	
5191	0	32530	32774	
5192	0	32118	32684	
5193	0	32234	32838	
5194	0	32418	33022	
5195	0	32696	33054	
5196	0	32864	33156	
5197	0	33160	32764	
5198	0	33336	32775	
5199	0	33482	32704	
5200	0	33444	32692	
5201	0	33120	32975	
5202	0	32828	33230	
5203	0	32718	33287	
5204	0	32500	33220	
5205	0	32402	33144	
5206	0	32672	32798	
5207	0	32706	32462	
5208	0	32132	32454	
5209	0	32252	32516	
5210	0	32536	32232	
5211	0	32832	32164	
5212	0	32788	32336	
5213	0	32206	32374	
5214	0	32300	32263	
5215	0	33006	32480	
5216	0	32556	32518	
5217	0	32458	32383	
5218	0	33400	32380	
5219	0	34142	32416	
5220	0	33932	32554	
5221	0	33332	32718	
5222	0	32708	32644	
5223	0	32678	32655	
5224	0	32912	32992	
5225	0	33206	32888	
5226	0	32872	33123	
5227	0	32772	33052	
5228	0	32476	32844	
5229	0	32356	32622	
5230	0	32092	32948	
5231	0	32022	33196	
5232	0	32240	33232	
5233	0	32450	33494	
5234	0	32697	33286	
5235	0	32702	33186	
5236	0	32928	32908	
5237	0	33480	32574	
5238	0	33656	32738	
5239	0	33620	32488	
5240	0	33328	32878	
5241	0	32516	32618	
5242	0	32640	32707	
5243	0	32404	33214	
5244	0	32296	33404	
5245	0	32912	32978	
5246	0	32968	32760	
5247	0	32778	32978	
5248	0	32928	32724	
5249	0	33048	32356	
5250	0	32972	31814	
5251	0	33084	31706	
5252	0	32968	31900	
5253	0	33066	31790	
5254	0	33100	31972	
5255	0	33012	32088	
5256	0	32984	32519	
5257	0	33086	32903	
5258	0	32836	33078	
5259	0	32504	33346	
5260	0	32772	33268	
5261	0	32740	33246	
5262	0	32644	33440	
5263	0	32678	33261	
5264	0	32654	33006	
5265	0	32606	32967	
5266	0	32284	32658	
5267	0	32258	32263	
5268	0	32252	32070	
5269	0	32788	32407	
5270	0	31928	32540	
5271	0	32244	32167	
5272	0	32470	32262	
5273	0	32756	32592	
5274	0	33210	32913	
5275	0	33288	32470	
5276	0	33708	32746	
5277	0	34292	32792	
5278	0	33672	32802	
5279	0	33112	32954	
5280	0	33028	33110	
5281	0	32904	33132	
5282	0	32572	33136	
5283	0	32521	33006	
5284	0	32516	33000	
5285	0	32634	33090	
5286	0	32557	32828	
5287	0	32712	32828	
5288	0	33024	33060	
5289	0	32968	33006	
5290	0	32936	32780	
5291	0	32684	32574	
5292	0	32552	32775	
5293	0	32512	32948	
5294	0	32544	32954	
5295	0	32528	33218	
5296	0	32566	33214	
5297	0	32452	32869	
5298	0	32332	33071	
5299	0	32870	33010	
5300	0	32608	32838	
5301	0	32510	32742	
5302	0	32552	32353	
5303	0	34040	32380	
5304	0	33696	32486	
5305	0	33224	32537	
5306	0	33008	32728	
5307	0	32944	32658	
5308	0	32756	32448	
5309	0	32768	32484	
5310	0	32514	32800	
5311	0	32308	32311	
5312	0	32360	32348	
5313	0	32596	32432	
5314	0	32610	32676	
5315	0	32692	32964	
5316	0	32788	33018	
5317	0	32828	33502	
5318	0	32840	33620	
5319	0	32984	33508	
5320	0	33344	33049	
5321	0	33409	32710	
5322	0	32968	32596	
5323	0	32764	32478	
5324	0	32780	32263	
5325	0	33032	32249	
5326	0	33028	32514	
5327	0	32880	32178	
5328	0	32764	32368	
5329	0	32576	32472	
5330	0	32474	32754	
5331	0	32584	32644	
5332	0	32448	33054	
5333	0	32420	33408	
5334	0	32488	33820	
5335	0	32580	33468	
5336	0	32673	33272	
5337	0	32716	33204	
5338	0	32796	32928	
5339	0	32956	32686	
5340	0	32986	32348	
5341	0	32908	32086	
5342	0	32680	32303	
5343	0	32648	32272	
5344	0	32748	32484	
5345	0	32624	32623	
5346	0	32506	32646	
5347	0	32432	32152	
5348	0	32532	32468	
5349	0	32834	32616	
5350	0	32888	32578	
5351	0	33078	32588	
5352	0	33044	33060	
5353	0	33135	33632	
5354	0	33556	33562	
5355	0	33648	33178	
5356	0	33370	32655	
5357	0	33076	32248	
5358	0	32744	32199	
5359	0	32368	32196	
5360	0	32484	32294	
5361	0	32420	32463	
5362	0	32648	32390	
5363	0	32620	32428	
5364	0	32292	32488	
5365	0	32724	32626	
5366	0	32760	32812	
5367	0	32184	33136	
5368	0	32588	33054	
5369	0	33092	33210	
5370	0	32944	33125	
5371	0	33048	33188	
5372	0	33222	33128	
5373	0	33058	32895	
5374	0	32692	33094	
5375	0	33018	33062	
5376	0	32852	33148	
5377	0	32725	33166	
5378	0	32730	32844	
5379	0	32776	32684	
5380	0	32636	32740	
5381	0	32648	32760	
5382	0	32932	32774	
5383	0	32840	32660	
5384	0	32482	32449	
5385	0	32340	32344	
5386	0	32228	32452	
5387	0	32664	32652	
5388	0	32672	32674	
5389	0	32244	32945	
5390	0	32404	32764	
5391	0	32700	33094	
5392	0	33156	32956	
5393	0	33340	33056	
5394	0	33760	33344	
5395	0	33738	33031	
5396	0	33296	32568	
5397	0	32008	32346	
5398	0	32644	32300	
5399	0	32384	32238	
5400	0	31868	32226	
5401	0	32828	32382	
5402	0	33297	32588	
5403	0	33448	32408	
5404	0	33616	32526	
5405	0	33400	32526	
5406	0	33208	32538	
5407	0	32928	32470	
5408	0	32928	32318	
5409	0	32470	32462	
5410	0	32353	32490	
5411	0	32204	32632	
5412	0	32116	33120	
5413	0	32176	33343	
5414	0	32480	33454	
5415	0	32998	33363	
5416	0	32976	33254	
5417	0	33018	32967	
5418	0	33074	33012	
5419	0	32986	33120	
5420	0	32636	32744	
5421	0	32500	32736	
5422	0	32794	32736	
5423	0	32748	32324	
5424	0	32684	32336	
5425	0	32518	32486	
5426	0	32684	32741	
5427	0	32152	32916	
5428	0	32626	33200	
5429	0	32760	32792	
5430	0	33472	32728	
5431	0	33580	32643	
5432	0	33236	32897	
5433	0	33860	33030	
5434	0	33548	32874	
5435	0	33372	32984	
5436	0	32970	32846	
5437	0	32660	32647	
5438	0	32248	32604	
5439	0	32148	32480	
5440	0	32280	32710	
5441	0	32340	32742	
5442	0	32714	32636	
5443	0	32800	33022	
5444	0	32952	32775	
5445	0	32634	32871	
5446	0	32828	32641	
5447	0	32912	32454	
5448	0	32820	32412	
5449	0	32322	32204	
5450	0	32680	32252	
5451	0	32796	32216	
5452	0	32682	32216	
5453	0	32860	32342	
5454	0	32974	32670	
5455	0	32934	32820	
5456	0	32678	32834	
5457	0	32826	33040	
5458	0	32640	33026	
5459	0	32496	33445	
5460	0	32944	33392	
5461	0	32734	33246	
5462	0	32186	32916	
5463	0	32124	32802	
5464	0	32682	32716	
5465	0	33708	32544	
5466	0	32798	32334	
5467	0	32834	32124	
5468	0	33008	32358	
5469	0	32878	32167	
5470	0	33224	32346	
5471	0	32984	32775	
5472	0	33084	33261	
5473	0	33340	33210	
5474	0	32956	33487	
5475	0	32994	33596	
5476	0	32736	33408	
5477	0	32388	32966	
5478	0	32286	32996	
5479	0	32248	32910	
5480	0	32628	32903	
5481	0	32100	33256	
5482	0	32672	33346	
5483	0	33248	32935	
5484	0	33128	32672	
5485	0	32652	32380	
5486	0	32367	32226	
5487	0	33506	32286	
5488	0	33154	31956	
5489	0	32448	31886	
5490	0	32548	32031	
5491	0	32020	32135	
5492	0	31818	32040	
5493	0	32836	32346	
5494	0	34398	32514	
5495	0	34624	32902	
5496	0	33864	33222	
5497	0	33072	33328	
5498	0	32772	33122	
5499	0	32434	32926	
5500	0	32472	32815	
5501	0	32416	32936	
5502	0	32420	33212	
5503	0	32566	32924	
5504	0	32564	32960	
5505	0	32640	33101	
5506	0	32712	33252	
5507	0	32674	33358	
5508	0	32480	32893	
5509	0	32908	32834	
5510	0	33140	32838	
5511	0	32844	33161	
5512	0	33080	33200	
5513	0	32932	32839	
5514	0	32052	32662	
5515	0	32324	32604	
5516	0	32958	32529	
5517	0	33414	32432	
5518	0	33718	32344	
5519	0	33584	32167	
5520	0	33194	32038	
5521	0	32596	32020	
5522	0	32714	31838	
5523	0	32116	32198	
5524	0	31672	32352	
5525	0	31460	32758	
5526	0	32220	33079	
5527	0	33106	33084	
5528	0	33428	32962	
5529	0	33132	33042	
5530	0	33204	33018	
5531	0	33240	33062	
5532	0	33142	32838	
5533	0	33096	32862	
5534	0	32892	33006	
5535	0	32610	33090	
5536	0	32484	32917	
5537	0	32544	32838	
5538	0	32760	32966	
5539	0	32572	33040	
5540	0	32284	33031	
5541	0	32272	33106	
5542	0	31568	33104	
5543	0	32104	33192	
5544	0	32980	33031	
5545	0	33692	32794	
5546	0	33394	32554	
5547	0	33416	32519	
5548	0	33002	32810	
5549	0	32128	32788	
5550	0	33576	32810	
5551	0	33418	32812	
5552	0	32664	32591	
5553	0	32568	32512	
5554	0	32912	32368	
5555	0	33092	32398	
5556	0	33122	32338	
5557	0	32764	32292	
5558	0	33100	32348	
5559	0	33002	32334	
5560	0	32656	32342	
5561	0	32764	32660	
5562	0	32656	33019	
5563	0	32480	32775	
5564	0	32418	32534	
5565	0	32958	32870	
5566	0	32554	32680	
5567	0	32332	32672	
5568	0	32306	32686	
5569	0	32708	32830	
5570	0	32548	32692	
5571	0	32608	32696	
5572	0	33572	32710	
5573	0	33772	32670	
5574	0	33246	32772	
5575	0	32818	32775	
5576	0	32718	32756	
5577	0	32810	33012	
5578	0	32580	32870	
5579	0	32768	32786	
5580	0	32648	32766	
5581	0	32524	32504	
5582	0	32612	32482	
5583	0	32992	32647	
5584	0	32886	32960	
5585	0	33104	32786	
5586	0	33076	32806	
5587	0	32320	32926	
5588	0	31740	32838	
5589	0	32144	32764	
5590	0	32586	32714	
5591	0	32620	32722	
5592	0	32922	32934	
5593	0	32956	33142	
5594	0	33222	33088	
5595	0	33112	33031	
5596	0	32788	32902	
5597	0	32908	33024	
5598	0	33172	32954	
5599	0	33210	32606	
5600	0	32878	32591	
5601	0	32504	32628	
5602	0	32434	32720	
5603	0	32756	32672	
5604	0	32856	32750	
5605	0	32976	32816	
5606	0	32832	32910	
5607	0	32830	32740	
5608	0	32868	32772	
5609	0	32592	32986	
5610	0	32800	32888	
5611	0	33124	32784	
5612	0	33224	32644	
5613	0	33094	32710	
5614	0	33272	32647	
5615	0	33004	32702	
5616	0	33096	32596	
5617	0	32928	32468	
5618	0	32796	32572	
5619	0	32964	32729	
5620	0	32770	32870	
5621	0	32704	33226	
5622	0	32944	33067	
5623	0	33132	32519	
5624	0	32944	32468	
5625	0	32772	32430	
5626	0	32590	32542	
5627	0	32396	32682	
5628	0	32400	32742	
5629	0	32584	32822	
5630	0	32372	32948	
5631	0	32640	33274	
5632	0	32442	33338	
5633	0	32604	33406	
5634	0	32572	33150	
5635	0	32656	32888	
5636	0	32768	32822	
5637	0	33114	32726	
5638	0	33242	32348	
5639	0	33484	32370	
5640	0	33492	32509	
5641	0	33094	32432	
5642	0	33172	32566	
5643	0	33162	32500	
5644	0	32804	32376	
5645	0	32650	32622	
5646	0	32792	32647	
5647	0	32760	32689	
5648	0	32748	32488	
5649	0	32576	32983	
5650	0	32430	32852	
5651	0	32536	32846	
5652	0	32586	32924	
5653	0	32404	32846	
5654	0	32632	32908	
5655	0	32337	32921	
5656	0	32724	32736	
5657	0	32384	32775	
5658	0	32580	32999	
5659	0	33201	32852	
5660	0	33319	32647	
5661	0	32908	32775	
5662	0	33012	32658	
5663	0	33216	32843	
5664	0	32948	32924	
5665	0	32588	32690	
5666	0	32480	32662	
5667	0	32560	32622	
5668	0	32880	32688	
5669	0	33248	32992	
5670	0	33020	32992	
5671	0	32890	32748	
5672	0	32596	32612	
5673	0	32564	32386	
5674	0	32724	32311	
5675	0	32548	32444	
5676	0	32686	32655	
5677	0	32924	32871	
5678	0	32846	32768	
5679	0	32904	32924	
5680	0	32896	33036	
5681	0	32760	33148	
5682	0	32592	33031	
5683	0	32702	32870	
5684	0	32600	32711	
5685	0	32968	32692	
5686	0	32940	32854	
5687	0	32684	32932	
5688	0	32574	32742	
5689	0	33064	32704	
5690	0	33044	32672	
5691	0	32976	32662	
5692	0	32748	32568	
5693	0	32744	33095	
5694	0	32720	32888	
5695	0	32548	32608	
5696	0	32654	32556	
5697	0	32960	32424	
5698	0	32847	32454	
5699	0	32954	32578	
5700	0	32652	32618	
5701	0	32548	32609	
5702	0	32676	32766	
5703	0	32783	32730	
5704	0	32644	32790	
5705	0	32660	32794	
5706	0	32762	32942	
5707	0	32924	33153	
5708	0	33028	32894	
5709	0	33044	32636	
5710	0	33012	32499	
5711	0	32874	32666	
5712	0	32892	32730	
5713	0	32942	32820	
5714	0	33140	32716	
5715	0	33348	32872	
5716	0	33140	32828	
5717	0	33420	32966	
5718	0	33406	33130	
5719	0	33192	33056	
5720	0	32944	33016	
5721	0	32870	32824	
5722	0	32948	32990	
5723	0	32544	32862	
5724	0	32592	33080	
5725	0	32486	32712	
5726	0	32364	32810	
5727	0	32444	32666	
5728	0	32342	32686	
5729	0	32760	32622	
5730	0	33014	32788	
5731	0	32824	32788	
5732	0	32900	32720	
5733	0	32926	32526	
5734	0	32828	32582	
5735	0	32686	32874	
5736	0	32544	32884	
5737	0	32548	32726	
5738	0	32866	32804	
5739	0	32912	32752	
5740	0	33004	32645	
5741	0	33012	32670	
5742	0	32660	32799	
5743	0	32370	32954	
5744	0	32324	32716	
5745	0	32689	32742	
5746	0	33210	32775	
5747	0	33008	32824	
5748	0	32922	32856	
5749	0	32452	32772	
5750	0	32196	32872	
5751	0	32860	32850	
5752	0	32932	32536	
5753	0	32758	32564	
5754	0	33004	32538	
5755	0	33412	32492	
5756	0	33166	33008	
5757	0	33112	32800	
5758	0	32948	32710	
5759	0	32756	32700	
5760	0	32662	32702	
5761	0	32748	32967	
5762	0	32678	32942	
5763	0	32688	32568	
5764	0	32752	32707	
5765	0	32764	32620	
5766	0	32708	32730	
5767	0	32792	32954	
5768	0	32784	32842	
5769	0	32744	32816	
5770	0	32550	32922	
5771	0	32620	32775	
5772	0	32740	32871	
5773	0	33072	32766	
5774	0	33064	32744	
5775	0	32944	32756	
5776	0	33017	32874	
5777	0	32932	32804	
5778	0	32804	32676	
5779	0	32672	32800	
5780	0	32624	32696	
5781	0	32772	32810	
5782	0	32908	32900	
5783	0	32872	32936	
5784	0	33073	32832	
5785	0	32936	32796	
5786	0	33006	32614	
5787	0	32868	32594	
5788	0	32724	32607	
5789	0	32680	32728	
5790	0	32696	32732	
5791	0	32720	32766	
5792	0	32625	32868	
5793	0	32560	32812	
5794	0	32800	32710	
5795	0	32776	32860	
5796	0	32694	33010	
5797	0	32880	32462	
5798	0	32912	32898	
5799	0	32756	32824	
5800	0	32641	32727	
5801	0	32868	32782	
5802	0	33004	32740	
5803	0	32828	32644	
5804	0	32852	32647	
5805	0	32608	32882	
5806	0	32604	32862	
5807	0	32746	32748	
5808	0	32868	32958	
5809	0	32948	33042	
5810	0	33044	33018	
5811	0	32956	32895	
5812	0	32852	32774	
5813	0	32680	32628	
5814	0	32744	32775	
5815	0	32828	32740	
5816	0	32972	32489	
5817	0	32964	32615	
5818	0	32884	32740	
5819	0	32918	32804	
5820	0	33014	32404	
5821	0	33020	32574	
5822	0	32736	32728	
5823	0	32872	32758	
5824	0	32864	32798	
5825	0	32836	32814	
5826	0	32666	32738	
5827	0	32724	32746	
5828	0	32792	32954	
5829	0	33028	32676	
5830	0	32950	32756	
5831	0	32764	32868	
5832	0	32576	32711	
5833	0	32508	33020	
5834	0	32876	33059	
5835	0	32920	32724	
5836	0	33172	32664	
5837	0	32938	32878	
5838	0	32906	32810	
5839	0	32648	32792	
5840	0	32774	32678	
5841	0	32706	33026	
5842	0	32868	32912	
5843	0	32844	32976	
5844	0	32816	32988	
5845	0	32784	32900	
5846	0	32904	32732	
5847	0	32960	32810	
5848	0	32824	32698	
5849	0	32728	32562	
5850	0	32748	32676	
5851	0	32656	32764	
5852	0	32796	32990	
5853	0	33080	33199	
5854	0	32956	33072	
5855	0	32534	32990	
5856	0	32444	32772	
5857	0	32262	32424	
5858	0	32622	32668	
5859	0	32852	32615	
5860	0	33204	32440	
5861	0	32908	31920	
5862	0	32642	32252	
5863	0	32764	32614	
5864	0	32496	32679	
5865	0	32316	33102	
5866	0	32612	33287	
5867	0	32900	32898	
5868	0	32888	32942	
5869	0	32832	32882	
5870	0	33120	32548	
5871	0	32986	32884	
5872	0	33066	33386	
5873	0	33176	33318	
5874	0	33098	33272	
5875	0	33324	32890	
5876	0	32948	32592	
5877	0	32310	32196	
5878	0	32452	32680	
5879	0	32564	32468	
5880	0	32480	32554	
5881	0	32732	32168	
5882	0	32956	32460	
5883	0	32632	32519	
5884	0	32796	32692	
5885	0	33156	32735	
5886	0	33078	33031	
5887	0	32592	32448	
5888	0	32698	32634	
5889	0	32670	33250	
5890	0	32616	33023	
5891	0	33018	32881	
5892	0	33172	32610	
5893	0	33224	32592	
5894	0	33096	32455	
5895	0	32580	32428	
5896	0	32316	32584	
5897	0	32370	32482	
5898	0	32602	32743	
5899	0	32784	32860	
5900	0	33076	32838	
5901	0	33012	32796	
5902	0	33024	32690	
5903	0	33006	32944	
5904	0	33046	32861	
5905	0	33092	32942	
5906	0	33312	32598	
5907	0	33304	32786	
5908	0	33336	32998	
5909	0	33260	33282	
5910	0	33086	33076	
5911	0	32880	33116	
5912	0	32920	32882	
5913	0	32824	32646	
5914	0	32680	32724	
5915	0	32540	32390	
5916	0	32356	32706	
5917	0	32546	32892	
5918	0	32578	33186	
5919	0	32458	32775	
5920	0	32484	32662	
5921	0	32440	32874	
5922	0	32640	32840	
5923	0	32688	32824	
5924	0	32676	32722	
5925	0	32676	32826	
5926	0	32770	32686	
5927	0	32746	32754	
5928	0	32866	32720	
5929	0	32847	32820	
5930	0	32748	32647	
5931	0	32826	32486	
5932	0	32780	32700	
5933	0	32644	32839	
5934	0	32668	32962	
5935	0	32592	32952	
5936	0	32912	33031	
5937	0	33208	32767	
5938	0	33072	32864	
5939	0	33092	32794	
5940	0	33324	32682	
5941	0	33084	32871	
5942	0	32928	32600	
5943	0	33104	32647	
5944	0	32932	32650	
5945	0	32900	32730	
5946	0	33036	32615	
5947	0	32792	32860	
5948	0	32584	32550	
5949	0	32514	32529	
5950	0	32652	32684	
5951	0	32736	32512	
5952	0	32498	32374	
5953	0	32324	32902	
5954	0	32902	32838	
5955	0	33132	32671	
5956	0	32944	32871	
5957	0	32616	32896	
5958	0	32596	33095	
5959	0	32460	32659	
5960	0	32572	32932	
5961	0	32632	32964	
5962	0	32740	33022	
5963	0	32896	33098	
5964	0	32992	33044	
5965	0	32921	32919	
5966	0	32876	32652	
5967	0	33128	32808	
5968	0	33076	32836	
5969	0	32912	32500	
5970	0	32840	32290	
5971	0	32930	32606	
5972	0	32712	32576	
5973	0	32772	32762	
5974	0	32884	32642	
5975	0	32884	32498	
5976	0	32610	32748	
5977	0	32632	32946	
5978	0	32670	32686	
5979	0	32768	33046	
5980	0	33090	32884	
5981	0	33348	32802	
5982	0	32920	32674	
5983	0	32718	32836	
5984	0	32924	32880	
5985	0	32952	32623	
5986	0	32812	32664	
5987	0	32718	32775	
5988	0	32714	32860	
5989	0	32858	32770	
5990	0	32592	33108	
5991	0	32592	32702	
5992	0	32772	32814	
5993	0	32878	32852	
5994	0	32840	32704	
5995	0	32824	32775	
5996	0	32720	32670	
5997	0	32645	32546	
5998	0	32638	32654	
5999	0	32708	32878	
6000	0	32708	32712	
6001	0	32994	32766	
6002	0	33180	32840	
6003	0	33012	32710	
6004	0	32844	32567	
6005	0	32744	32600	
6006	0	32622	32706	
6007	0	32544	32992	
6008	0	32640	32938	
6009	0	32712	32954	
6010	0	32938	32726	
6011	0	32789	32700	
6012	0	32896	32804	
