# OpenSignals Text File Format. Version 1
# {"00:07:80:8C:0A:39": {"position": 0, "device": "biosignalsplux", "device name": "00:07:80:8C:0A:39", "device connection": "BTH00:07:80:8C:0A:39", "sampling rate": 1000, "resolution": [16, 16], "firmware version": 776, "comments": "", "keywords": "", "mode": 0, "sync interval": 2, "date": "2023-3-17", "time": "10:56:18.27", "channels": [1, 2], "sensor": ["EMG", "EMG"], "label": ["CH1", "CH2"], "column": ["nSeq", "DI", "CH1", "CH2"], "special": [{"SpO2": [80, 40, 5, 4, 3, 3]}, {"SpO2": [80, 40, 5, 4, 3, 3]}, {"SpO2": [80, 40, 5, 4, 3, 3]}, {"SpO2": [80, 40, 5, 4, 3, 3]}, {"SpO2": [80, 40, 5, 4, 3, 3]}, {"SpO2": [80, 40, 5, 4, 3, 3]}, {"SpO2": [80, 40, 5, 4, 3, 3]}, {"SpO2": [80, 40, 5, 4, 3, 3]}], "digital IO": [0, 1], "sleeve color": ["gray", "yellow"], "convertedValues": 0}}
# EndOfHeader
0	0	32816	32870	
1	0	32804	32742	
2	0	32852	32726	
3	0	32778	32775	
4	0	32804	32807	
5	0	32852	32755	
6	0	32816	32744	
7	0	32816	32694	
8	0	32810	32670	
9	0	32800	32719	
10	0	32824	32686	
11	0	32792	32823	
12	0	32762	32727	
13	0	32816	32758	
14	0	32792	32722	
15	0	32884	32744	
16	0	32836	32876	
17	0	32856	32760	
18	0	32775	32818	
19	0	32760	32726	
20	0	32828	32710	
21	0	32848	32718	
22	0	32800	32862	
23	0	32752	32711	
24	0	32826	32806	
25	0	32832	32690	
26	0	32864	32784	
27	0	32860	32760	
28	0	32848	32716	
29	0	32784	32792	
30	0	32852	32772	
31	0	32788	32804	
32	0	32829	32702	
33	0	32792	32728	
34	0	32852	32759	
35	0	32756	32772	
36	0	32860	32740	
37	0	32816	32775	
38	0	32830	32734	
39	0	32832	32824	
40	0	32804	32696	
41	0	32792	32666	
42	0	32796	32744	
43	0	32866	32760	
44	0	32804	32769	
45	0	32846	32874	
46	0	32848	32775	
47	0	32804	32754	
48	0	32780	32750	
49	0	32868	32752	
50	0	32760	32847	
51	0	32812	32803	
52	0	32832	32732	
53	0	32816	32741	
54	0	32800	32716	
55	0	32796	32711	
56	0	32792	32804	
57	0	32764	32660	
58	0	32828	32710	
59	0	32840	32852	
60	0	32849	32814	
61	0	32810	32775	
62	0	32808	32762	
63	0	32784	32818	
64	0	32824	32740	
65	0	32804	32721	
66	0	32826	32668	
67	0	32808	32662	
68	0	32796	32722	
69	0	32836	32662	
70	0	32816	32748	
71	0	32800	32858	
72	0	32834	32808	
73	0	32810	32794	
74	0	32804	32818	
75	0	32798	32794	
76	0	32808	32772	
77	0	32816	32754	
78	0	32840	32742	
79	0	32806	32814	
80	0	32820	32802	
81	0	32832	32775	
82	0	32814	32847	
83	0	32856	32800	
84	0	32806	32856	
85	0	32840	32768	
86	0	32804	32738	
87	0	32788	32697	
88	0	32800	32652	
89	0	32796	32814	
90	0	32772	32775	
91	0	32868	32742	
92	0	32852	32844	
93	0	32812	32884	
94	0	32876	32768	
95	0	32768	32738	
96	0	32792	32696	
97	0	32800	32679	
98	0	32828	32756	
99	0	32832	32856	
100	0	32816	32804	
101	0	32820	32806	
102	0	32820	32714	
103	0	32816	32815	
104	0	32846	32732	
105	0	32848	32674	
106	0	32832	32682	
107	0	32772	32708	
108	0	32822	32692	
109	0	32768	32760	
110	0	32844	32799	
111	0	32768	32805	
112	0	32864	32790	
113	0	32806	32807	
114	0	32764	32800	
115	0	32792	32830	
116	0	32844	32829	
117	0	32832	32775	
118	0	32844	32775	
119	0	32828	32740	
120	0	32798	32814	
121	0	32864	32758	
122	0	32788	32807	
123	0	32842	32761	
124	0	32844	32790	
125	0	32732	32694	
126	0	32840	32692	
127	0	32780	32660	
128	0	32844	32738	
129	0	32836	32696	
130	0	32874	32750	
131	0	32820	32772	
132	0	32842	32704	
133	0	32810	32734	
134	0	32752	32730	
135	0	32836	32748	
136	0	32816	32743	
137	0	32784	32814	
138	0	32868	32813	
139	0	32872	32794	
140	0	32868	32836	
141	0	32820	32854	
142	0	32812	32757	
143	0	32805	32764	
144	0	32800	32772	
145	0	32848	32772	
146	0	32820	32848	
147	0	32870	32764	
148	0	32860	32732	
149	0	32824	32768	
150	0	32784	32631	
151	0	32808	32670	
152	0	32828	32738	
153	0	32776	32775	
154	0	32768	32903	
155	0	32766	32858	
156	0	32800	32858	
157	0	32812	32792	
158	0	32777	32838	
159	0	32800	32743	
160	0	32794	32774	
161	0	32816	32846	
162	0	32826	32742	
163	0	32856	32799	
164	0	32808	32775	
165	0	32796	32759	
166	0	32800	32737	
167	0	32888	32720	
168	0	32844	32858	
169	0	32804	32852	
170	0	32806	32772	
171	0	32796	32730	
172	0	32820	32766	
173	0	32808	32862	
174	0	32824	32760	
175	0	32836	32774	
176	0	32812	32654	
177	0	32740	32836	
178	0	32800	32804	
179	0	32812	32740	
180	0	32774	32852	
181	0	32801	32729	
182	0	32848	32774	
183	0	32804	32736	
184	0	32836	32839	
185	0	32860	32812	
186	0	32828	32820	
187	0	32832	32752	
188	0	32832	32740	
189	0	32882	32709	
190	0	32794	32700	
191	0	32796	32774	
192	0	32808	32686	
193	0	32782	32830	
194	0	32776	32742	
195	0	32866	32724	
196	0	32788	32740	
197	0	32860	32772	
198	0	32798	32672	
199	0	32840	32741	
200	0	32842	32886	
201	0	32812	32750	
202	0	32800	32812	
203	0	32808	32670	
204	0	32828	32790	
205	0	32820	32750	
206	0	32784	32828	
207	0	32804	32772	
208	0	32845	32798	
209	0	32828	32822	
210	0	32776	32834	
211	0	32820	32820	
212	0	32778	32744	
213	0	32870	32816	
214	0	32772	32790	
215	0	32828	32796	
216	0	32840	32704	
217	0	32791	32766	
218	0	32844	32694	
219	0	32764	32746	
220	0	32788	32708	
221	0	32844	32797	
222	0	32812	32718	
223	0	32784	32746	
224	0	32836	32638	
225	0	32756	32766	
226	0	32852	32796	
227	0	32804	32762	
228	0	32824	32846	
229	0	32868	32676	
230	0	32868	32738	
231	0	32836	32704	
232	0	32789	32802	
233	0	32772	32750	
234	0	32802	32772	
235	0	32778	32855	
236	0	32824	32704	
237	0	32774	32790	
238	0	32836	32759	
239	0	32784	32756	
240	0	32784	32684	
241	0	32838	32743	
242	0	32916	32752	
243	0	32820	32706	
244	0	32796	32743	
245	0	32824	32670	
246	0	32778	32790	
247	0	32856	32740	
248	0	32832	32764	
249	0	32836	32852	
250	0	32764	32751	
251	0	32808	32835	
252	0	32766	32775	
253	0	32818	32810	
254	0	32812	32695	
255	0	32820	32790	
256	0	32794	32932	
257	0	32884	32840	
258	0	32839	32794	
259	0	32832	32802	
260	0	32828	32804	
261	0	32846	32775	
262	0	32796	32736	
263	0	32792	32724	
264	0	32849	32786	
265	0	32788	32746	
266	0	32856	32725	
267	0	32768	32730	
268	0	32752	32784	
269	0	32828	32790	
270	0	32837	32844	
271	0	32848	32818	
272	0	32866	32847	
273	0	32800	32812	
274	0	32792	32876	
275	0	32856	32775	
276	0	32812	32775	
277	0	32822	32775	
278	0	32810	32764	
279	0	32808	32727	
280	0	32892	32775	
281	0	32856	32718	
282	0	32772	32753	
283	0	32774	32734	
284	0	32824	32716	
285	0	32802	32647	
286	0	32864	32692	
287	0	32800	32871	
288	0	32808	32792	
289	0	32800	32664	
290	0	32774	32762	
291	0	32778	32748	
292	0	32848	32864	
293	0	32824	32830	
294	0	32784	32682	
295	0	32692	32775	
296	0	32844	32748	
297	0	32802	32756	
298	0	32748	32812	
299	0	32784	32798	
300	0	32840	32716	
301	0	32796	32714	
302	0	32800	32615	
303	0	32816	32775	
304	0	32852	32812	
305	0	32774	32767	
306	0	32830	32742	
307	0	32832	32758	
308	0	32836	32775	
309	0	32780	32668	
310	0	32860	32704	
311	0	32798	32765	
312	0	32834	32903	
313	0	32848	32686	
314	0	32824	32727	
315	0	32812	32738	
316	0	32784	32818	
317	0	32848	32774	
318	0	32784	32791	
319	0	32820	32796	
320	0	32808	32805	
321	0	32834	32836	
322	0	32840	32822	
323	0	32796	32686	
324	0	32736	32628	
325	0	32767	32680	
326	0	32808	32652	
327	0	32768	32751	
328	0	32792	32753	
329	0	32840	32754	
330	0	32804	32782	
331	0	32814	32748	
332	0	32798	32806	
333	0	32792	32772	
334	0	32796	32844	
335	0	32834	32792	
336	0	32844	32738	
337	0	32852	32736	
338	0	32826	32774	
339	0	32796	32775	
340	0	32780	32744	
341	0	32852	32772	
342	0	32760	32759	
343	0	32782	32722	
344	0	32842	32660	
345	0	32844	32696	
346	0	32804	32756	
347	0	32774	32792	
348	0	32808	32698	
349	0	32840	32734	
350	0	32774	32751	
351	0	32816	32718	
352	0	32780	32918	
353	0	32810	32810	
354	0	32834	32856	
355	0	32836	32678	
356	0	32864	32822	
357	0	32784	32874	
358	0	32744	32838	
359	0	32912	32695	
360	0	32848	32712	
361	0	32808	32748	
362	0	32860	32740	
363	0	32784	32761	
364	0	32822	32720	
365	0	32792	32831	
366	0	32844	32708	
367	0	32816	32743	
368	0	32784	32697	
369	0	32878	32724	
370	0	32836	32814	
371	0	32792	32775	
372	0	32822	32766	
373	0	32840	32839	
374	0	32812	32760	
375	0	32750	32732	
376	0	32796	32711	
377	0	32812	32660	
378	0	32804	32834	
379	0	32876	32775	
380	0	32800	32834	
381	0	32744	32812	
382	0	32860	32719	
383	0	32844	32654	
384	0	32798	32742	
385	0	32768	32678	
386	0	32830	32814	
387	0	32876	32734	
388	0	32790	32798	
389	0	32796	32775	
390	0	32820	32652	
391	0	32788	32822	
392	0	32798	32772	
393	0	32800	32828	
394	0	32814	32759	
395	0	32812	32806	
396	0	32842	32750	
397	0	32784	32679	
398	0	32742	32690	
399	0	32854	32692	
400	0	32806	32839	
401	0	32800	32788	
402	0	32838	32866	
403	0	32760	32786	
404	0	32812	32744	
405	0	32872	32716	
406	0	32764	32775	
407	0	32764	32748	
408	0	32830	32760	
409	0	32824	32764	
410	0	32816	32711	
411	0	32780	32671	
412	0	32788	32764	
413	0	32820	32856	
414	0	32856	32930	
415	0	32832	32775	
416	0	32748	32724	
417	0	32768	32810	
418	0	32888	32823	
419	0	32836	32710	
420	0	32782	32734	
421	0	32852	32728	
422	0	32832	32775	
423	0	32782	32774	
424	0	32830	32775	
425	0	32838	32790	
426	0	32832	32775	
427	0	32808	32818	
428	0	32768	32768	
429	0	32812	32660	
430	0	32752	32684	
431	0	32772	32814	
432	0	32812	32812	
433	0	32804	32878	
434	0	32792	32822	
435	0	32824	32826	
436	0	32816	32734	
437	0	32788	32806	
438	0	32732	32828	
439	0	32801	32772	
440	0	32776	32879	
441	0	32740	32746	
442	0	32840	32759	
443	0	32806	32718	
444	0	32865	32718	
445	0	32844	32706	
446	0	32756	32678	
447	0	32812	32641	
448	0	32836	32711	
449	0	32852	32720	
450	0	32788	32702	
451	0	32784	32702	
452	0	32775	32732	
453	0	32832	32844	
454	0	32812	32846	
455	0	32836	32750	
456	0	32868	32785	
457	0	32812	32812	
458	0	32789	32732	
459	0	32752	32738	
460	0	32820	32668	
461	0	32804	32702	
462	0	32825	32822	
463	0	32828	32820	
464	0	32808	32788	
465	0	32856	32708	
466	0	32810	32836	
467	0	32812	32762	
468	0	32806	32764	
469	0	32740	32752	
470	0	32820	32774	
471	0	32844	32756	
472	0	32840	32868	
473	0	32792	32832	
474	0	32812	32775	
475	0	32840	32695	
476	0	32844	32655	
477	0	32792	32814	
478	0	32820	32775	
479	0	32886	32828	
480	0	32800	32805	
481	0	32866	32734	
482	0	32856	32724	
483	0	32812	32802	
484	0	32830	32748	
485	0	32764	32836	
486	0	32814	32828	
487	0	32800	32744	
488	0	32808	32684	
489	0	32784	32804	
490	0	32772	32682	
491	0	32828	32822	
492	0	32744	32811	
493	0	32805	32775	
494	0	32780	32699	
495	0	32792	32730	
496	0	32812	32764	
497	0	32816	32710	
498	0	32782	32694	
499	0	32740	32736	
500	0	32710	32724	
501	0	32764	32622	
502	0	32794	32630	
503	0	32736	32744	
504	0	32732	32668	
505	0	32724	32726	
506	0	32740	32816	
507	0	32768	32727	
508	0	32756	32684	
509	0	32721	32676	
510	0	32816	32866	
511	0	32800	32818	
512	0	32840	32815	
513	0	32830	32992	
514	0	32892	32864	
515	0	32890	32795	
516	0	32852	32830	
517	0	32880	32900	
518	0	32908	32966	
519	0	32952	32934	
520	0	33008	32934	
521	0	32978	32830	
522	0	33002	32810	
523	0	32938	32853	
524	0	32932	32864	
525	0	32840	32884	
526	0	32876	32759	
527	0	32846	32800	
528	0	32894	32824	
529	0	32856	32903	
530	0	32892	32862	
531	0	32870	32794	
532	0	32852	32872	
533	0	32804	32892	
534	0	32816	32794	
535	0	32752	32758	
536	0	32808	32750	
537	0	32806	32788	
538	0	32734	32615	
539	0	32770	32596	
540	0	32692	32628	
541	0	32746	32636	
542	0	32760	32647	
543	0	32820	32672	
544	0	32814	32698	
545	0	32704	32692	
546	0	32808	32706	
547	0	32746	32758	
548	0	32740	32720	
549	0	32806	32775	
550	0	32812	32752	
551	0	32744	32724	
552	0	32818	32796	
553	0	32820	32847	
554	0	32788	32772	
555	0	32868	32775	
556	0	32728	32793	
557	0	32830	32799	
558	0	32732	32734	
559	0	32808	32716	
560	0	32796	32708	
561	0	32800	32782	
562	0	32856	32760	
563	0	32880	32804	
564	0	32760	32732	
565	0	32822	32802	
566	0	32800	32815	
567	0	32826	32764	
568	0	32836	32731	
569	0	32820	32660	
570	0	32820	32710	
571	0	32814	32860	
572	0	32764	32809	
573	0	32888	32817	
574	0	32800	32826	
575	0	32800	32644	
576	0	32824	32742	
577	0	32764	32788	
578	0	32822	32724	
579	0	32814	32790	
580	0	32826	32868	
581	0	32786	32807	
582	0	32832	32775	
583	0	32772	32682	
584	0	32822	32788	
585	0	32796	32728	
586	0	32832	32750	
587	0	32804	32743	
588	0	32788	32752	
589	0	32822	32622	
590	0	32784	32734	
591	0	32852	32823	
592	0	32864	32744	
593	0	32820	32775	
594	0	32704	32750	
595	0	32820	32772	
596	0	32748	32852	
597	0	32794	32768	
598	0	32856	32844	
599	0	32824	32762	
600	0	32808	32742	
601	0	32832	32860	
602	0	32856	32748	
603	0	32764	32794	
604	0	32834	32812	
605	0	32784	32708	
606	0	32860	32724	
607	0	32796	32742	
608	0	32888	32743	
609	0	32824	32744	
610	0	32776	32708	
611	0	32772	32814	
612	0	32844	32806	
613	0	32814	32836	
614	0	32796	32761	
615	0	32800	32706	
616	0	32844	32634	
617	0	32832	32820	
618	0	32760	32758	
619	0	32848	32753	
620	0	32810	32816	
621	0	32818	32766	
622	0	32780	32698	
623	0	32846	32734	
624	0	32816	32806	
625	0	32820	32703	
626	0	32782	32826	
627	0	32804	32788	
628	0	32776	32656	
629	0	32876	32828	
630	0	32856	32734	
631	0	32840	32800	
632	0	32816	32818	
633	0	32776	32751	
634	0	32852	32852	
635	0	32730	32794	
636	0	32772	32673	
637	0	32772	32826	
638	0	32820	32810	
639	0	32816	32654	
640	0	32828	32746	
641	0	32756	32692	
642	0	32881	32796	
643	0	32816	32798	
644	0	32796	32743	
645	0	32856	32775	
646	0	32786	32768	
647	0	32796	32668	
648	0	32784	32694	
649	0	32774	32832	
650	0	32832	32746	
651	0	32846	32836	
652	0	32874	32844	
653	0	32796	32826	
654	0	32800	32924	
655	0	32820	32800	
656	0	32758	32734	
657	0	32836	32712	
658	0	32808	32676	
659	0	32768	32775	
660	0	32856	32788	
661	0	32768	32743	
662	0	32792	32750	
663	0	32872	32758	
664	0	32792	32812	
665	0	32804	32738	
666	0	32820	32684	
667	0	32870	32756	
668	0	32844	32852	
669	0	32796	32775	
670	0	32794	32742	
671	0	32800	32811	
672	0	32788	32850	
673	0	32842	32798	
674	0	32808	32888	
675	0	32854	32688	
676	0	32796	32671	
677	0	32828	32774	
678	0	32862	32788	
679	0	32832	32791	
680	0	32760	32760	
681	0	32848	32752	
682	0	32728	32764	
683	0	32840	32775	
684	0	32856	32726	
685	0	32796	32670	
686	0	32840	32740	
687	0	32852	32730	
688	0	32776	32775	
689	0	32828	32736	
690	0	32820	32775	
691	0	32808	32775	
692	0	32748	32812	
693	0	32778	32794	
694	0	32782	32766	
695	0	32804	32752	
696	0	32784	32759	
697	0	32840	32822	
698	0	32856	32743	
699	0	32786	32736	
700	0	32838	32775	
701	0	32820	32818	
702	0	32782	32726	
703	0	32802	32684	
704	0	32790	32684	
705	0	32804	32775	
706	0	32804	32775	
707	0	32824	32752	
708	0	32844	32788	
709	0	32800	32816	
710	0	32858	32706	
711	0	32778	32839	
712	0	32796	32828	
713	0	32820	32799	
714	0	32776	32808	
715	0	32782	32730	
716	0	32810	32756	
717	0	32792	32850	
718	0	32856	32631	
719	0	32792	32775	
720	0	32820	32815	
721	0	32806	32756	
722	0	32836	32671	
723	0	32810	32702	
724	0	32776	32807	
725	0	32816	32775	
726	0	32840	32786	
727	0	32844	32714	
728	0	32774	32702	
729	0	32856	32821	
730	0	32796	32862	
731	0	32806	32670	
732	0	32824	32820	
733	0	32839	32803	
734	0	32754	32884	
735	0	32836	32748	
736	0	32740	32820	
737	0	32796	32718	
738	0	32840	32796	
739	0	32840	32727	
740	0	32797	32756	
741	0	32764	32696	
742	0	32758	32839	
743	0	32872	32775	
744	0	32884	32718	
745	0	32798	32671	
746	0	32846	32809	
747	0	32828	32758	
748	0	32736	32806	
749	0	32790	32743	
750	0	32832	32814	
751	0	32804	32650	
752	0	32828	32829	
753	0	32870	32876	
754	0	32736	32756	
755	0	32798	32734	
756	0	32788	32698	
757	0	32834	32664	
758	0	32792	32866	
759	0	32772	32860	
760	0	32836	32756	
761	0	32774	32770	
762	0	32808	32799	
763	0	32870	32742	
764	0	32836	32775	
765	0	32796	32858	
766	0	32756	32674	
767	0	32856	32743	
768	0	32848	32824	
769	0	32834	32734	
770	0	32752	32722	
771	0	32828	32774	
772	0	32864	32734	
773	0	32828	32801	
774	0	32796	32792	
775	0	32698	32876	
776	0	32780	32620	
777	0	32752	32706	
778	0	32836	32790	
779	0	32804	32804	
780	0	32858	32700	
781	0	32856	32806	
782	0	32862	32648	
783	0	32806	32808	
784	0	32794	32734	
785	0	32800	32796	
786	0	32814	32771	
787	0	32780	32714	
788	0	32884	32807	
789	0	32740	32740	
790	0	32840	32746	
791	0	32828	32836	
792	0	32842	32772	
793	0	32828	32815	
794	0	32876	32767	
795	0	32836	32860	
796	0	32868	32702	
797	0	32808	32694	
798	0	32726	32762	
799	0	32828	32828	
800	0	32766	32644	
801	0	32778	32796	
802	0	32808	32822	
803	0	32820	32720	
804	0	32774	32642	
805	0	32796	32692	
806	0	32768	32866	
807	0	32764	32756	
808	0	32816	32738	
809	0	32802	32636	
810	0	32816	32663	
811	0	32857	32694	
812	0	32828	32884	
813	0	32856	32904	
814	0	32796	32796	
815	0	32816	32852	
816	0	32792	32678	
817	0	32816	32716	
818	0	32808	32702	
819	0	32824	32750	
820	0	32816	32764	
821	0	32852	32742	
822	0	32782	32760	
823	0	32828	32706	
824	0	32836	32676	
825	0	32836	32720	
826	0	32848	32711	
827	0	32726	32771	
828	0	32780	32800	
829	0	32838	32682	
830	0	32866	32750	
831	0	32837	32783	
832	0	32810	32850	
833	0	32770	32856	
834	0	32828	32712	
835	0	32828	32690	
836	0	32789	32890	
837	0	32794	32812	
838	0	32788	32816	
839	0	32880	32734	
840	0	32788	32698	
841	0	32760	32775	
842	0	32814	32791	
843	0	32778	32788	
844	0	32852	32694	
845	0	32788	32700	
846	0	32826	32770	
847	0	32824	32730	
848	0	32776	32700	
849	0	32790	32794	
850	0	32840	32671	
851	0	32800	32679	
852	0	32754	32786	
853	0	32834	32806	
854	0	32818	32826	
855	0	32852	32834	
856	0	32812	32810	
857	0	32816	32808	
858	0	32812	32687	
859	0	32826	32682	
860	0	32832	32814	
861	0	32794	32870	
862	0	32788	32692	
863	0	32834	32642	
864	0	32842	32790	
865	0	32844	32814	
866	0	32834	32742	
867	0	32796	32802	
868	0	32828	32828	
869	0	32808	32704	
870	0	32800	32790	
871	0	32822	32744	
872	0	32802	32736	
873	0	32814	32836	
874	0	32824	32838	
875	0	32772	32838	
876	0	32820	32769	
877	0	32800	32806	
878	0	32824	32711	
879	0	32826	32722	
880	0	32804	32774	
881	0	32774	32802	
882	0	32818	32772	
883	0	32812	32823	
884	0	32744	32760	
885	0	32798	32668	
886	0	32770	32656	
887	0	32824	32775	
888	0	32788	32784	
889	0	32826	32754	
890	0	32780	32766	
891	0	32768	32720	
892	0	32798	32760	
893	0	32836	32878	
894	0	32808	32714	
895	0	32780	32791	
896	0	32848	32804	
897	0	32812	32732	
898	0	32836	32824	
899	0	32790	32839	
900	0	32876	32688	
901	0	32794	32774	
902	0	32834	32751	
903	0	32784	32660	
904	0	32872	32716	
905	0	32814	32770	
906	0	32828	32794	
907	0	32836	32798	
908	0	32796	32825	
909	0	32778	32610	
910	0	32868	32718	
911	0	32800	32732	
912	0	32836	32820	
913	0	32782	32775	
914	0	32772	32794	
915	0	32852	32723	
916	0	32744	32711	
917	0	32778	32808	
918	0	32888	32766	
919	0	32842	32775	
920	0	32812	32708	
921	0	32796	32742	
922	0	32796	32816	
923	0	32778	32710	
924	0	32748	32775	
925	0	32790	32710	
926	0	32844	32806	
927	0	32828	32768	
928	0	32828	32834	
929	0	32817	32733	
930	0	32880	32742	
931	0	32862	32818	
932	0	32852	32792	
933	0	32834	32806	
934	0	32833	32740	
935	0	32782	32790	
936	0	32740	32828	
937	0	32864	32774	
938	0	32798	32814	
939	0	32842	32750	
940	0	32792	32740	
941	0	32804	32842	
942	0	32848	32762	
943	0	32816	32764	
944	0	32922	32802	
945	0	32770	32812	
946	0	32816	32742	
947	0	32788	32726	
948	0	32784	32640	
949	0	32896	32698	
950	0	32824	32788	
951	0	32830	32752	
952	0	32840	32858	
953	0	32820	32790	
954	0	32856	32806	
955	0	32868	32775	
956	0	32836	32830	
957	0	32760	32756	
958	0	32774	32762	
959	0	32790	32804	
960	0	32844	32811	
961	0	32846	32702	
962	0	32824	32756	
963	0	32788	32708	
964	0	32821	32660	
965	0	32824	32724	
966	0	32844	32839	
967	0	32800	32748	
968	0	32844	32706	
969	0	32824	32788	
970	0	32794	32774	
971	0	32808	32718	
972	0	32802	32792	
973	0	32815	32706	
974	0	32808	32740	
975	0	32770	32830	
976	0	32864	32828	
977	0	32858	32806	
978	0	32836	32770	
979	0	32740	32850	
980	0	32852	32774	
981	0	32840	32702	
982	0	32836	32746	
983	0	32844	32762	
984	0	32792	32736	
985	0	32790	32696	
986	0	32800	32775	
987	0	32808	32824	
988	0	32808	32828	
989	0	32798	32772	
990	0	32782	32720	
991	0	32800	32734	
992	0	32840	32711	
993	0	32828	32783	
994	0	32756	32714	
995	0	32840	32798	
996	0	32792	32792	
997	0	32810	32839	
998	0	32792	32775	
999	0	32844	32700	
1000	0	32840	32658	
1001	0	32836	32839	
1002	0	32788	32806	
1003	0	32762	32730	
1004	0	32862	32872	
1005	0	32818	32826	
1006	0	32808	32720	
1007	0	32766	32774	
1008	0	32796	32752	
1009	0	32816	32772	
1010	0	32796	32730	
1011	0	32828	32806	
1012	0	32884	32748	
1013	0	32786	32758	
1014	0	32774	32863	
1015	0	32824	32790	
1016	0	32864	32898	
1017	0	32800	32716	
1018	0	32772	32713	
1019	0	32802	32807	
1020	0	32820	32788	
1021	0	32862	32718	
1022	0	32854	32706	
1023	0	32874	32710	
1024	0	32800	32743	
1025	0	32832	32806	
1026	0	32798	32810	
1027	0	32872	32757	
1028	0	32732	32839	
1029	0	32798	32735	
1030	0	32784	32682	
1031	0	32820	32749	
1032	0	32756	32756	
1033	0	32844	32876	
1034	0	32800	32770	
1035	0	32808	32749	
1036	0	32776	32884	
1037	0	32836	32716	
1038	0	32800	32772	
1039	0	32754	32764	
1040	0	32748	32682	
1041	0	32814	32700	
1042	0	32794	32774	
1043	0	32820	32758	
1044	0	32838	32716	
1045	0	32820	32740	
1046	0	32846	32816	
1047	0	32748	32750	
1048	0	32854	32675	
1049	0	32870	32716	
1050	0	32820	32818	
1051	0	32820	32828	
1052	0	32868	32767	
1053	0	32810	32820	
1054	0	32805	32744	
1055	0	32810	32775	
1056	0	32770	32678	
1057	0	32845	32748	
1058	0	32812	32814	
1059	0	32784	32758	
1060	0	32796	32756	
1061	0	32752	32688	
1062	0	32828	32791	
1063	0	32854	32716	
1064	0	32820	32742	
1065	0	32802	32862	
1066	0	32836	32830	
1067	0	32832	32689	
1068	0	32790	32748	
1069	0	32800	32802	
1070	0	32842	32737	
1071	0	32840	32794	
1072	0	32776	32756	
1073	0	32852	32732	
1074	0	32848	32833	
1075	0	32760	32750	
1076	0	32810	32758	
1077	0	32760	32771	
1078	0	32788	32752	
1079	0	32794	32703	
1080	0	32860	32839	
1081	0	32806	32734	
1082	0	32796	32764	
1083	0	32776	32712	
1084	0	32880	32684	
1085	0	32816	32775	
1086	0	32832	32822	
1087	0	32892	32822	
1088	0	32832	32752	
1089	0	32780	32728	
1090	0	32764	32775	
1091	0	32792	32824	
1092	0	32790	32806	
1093	0	32858	32842	
1094	0	32768	32762	
1095	0	32784	32732	
1096	0	32776	32734	
1097	0	32832	32775	
1098	0	32788	32752	
1099	0	32784	32844	
1100	0	32836	32711	
1101	0	32788	32814	
1102	0	32812	32756	
1103	0	32806	32775	
1104	0	32880	32718	
1105	0	32808	32764	
1106	0	32836	32862	
1107	0	32770	32726	
1108	0	32788	32687	
1109	0	32824	32815	
1110	0	32802	32740	
1111	0	32734	32828	
1112	0	32816	32767	
1113	0	32838	32850	
1114	0	32810	32753	
1115	0	32820	32700	
1116	0	32808	32823	
1117	0	32844	32814	
1118	0	32848	32703	
1119	0	32764	32702	
1120	0	32824	32721	
1121	0	32874	32840	
1122	0	32826	32792	
1123	0	32756	32775	
1124	0	32776	32710	
1125	0	32792	32657	
1126	0	32788	32826	
1127	0	32802	32738	
1128	0	32844	32775	
1129	0	32828	32834	
1130	0	32892	32708	
1131	0	32896	32772	
1132	0	32816	32876	
1133	0	32778	32762	
1134	0	32788	32818	
1135	0	32816	32764	
1136	0	32804	32754	
1137	0	32746	32746	
1138	0	32808	32774	
1139	0	32812	32775	
1140	0	32792	32732	
1141	0	32882	32704	
1142	0	32778	32728	
1143	0	32720	32828	
1144	0	32832	32763	
1145	0	32884	32834	
1146	0	32796	32775	
1147	0	32824	32770	
1148	0	32778	32676	
1149	0	32802	32796	
1150	0	32792	32774	
1151	0	32820	32886	
1152	0	32848	32687	
1153	0	32860	32775	
1154	0	32884	32848	
1155	0	32840	32740	
1156	0	32828	32848	
1157	0	32808	32742	
1158	0	32832	32768	
1159	0	32780	32790	
1160	0	32744	32756	
1161	0	32828	32807	
1162	0	32856	32794	
1163	0	32802	32730	
1164	0	32804	32753	
1165	0	32852	32742	
1166	0	32808	32764	
1167	0	32810	32807	
1168	0	32812	32718	
1169	0	32788	32748	
1170	0	32788	32775	
1171	0	32774	32775	
1172	0	32844	32801	
1173	0	32856	32746	
1174	0	32817	32823	
1175	0	32820	32775	
1176	0	32812	32764	
1177	0	32800	32738	
1178	0	32816	32710	
1179	0	32852	32775	
1180	0	32828	32775	
1181	0	32820	32774	
1182	0	32816	32654	
1183	0	32772	32788	
1184	0	32804	32792	
1185	0	32824	32714	
1186	0	32772	32724	
1187	0	32796	32801	
1188	0	32804	32720	
1189	0	32836	32762	
1190	0	32766	32855	
1191	0	32886	32768	
1192	0	32792	32852	
1193	0	32834	32768	
1194	0	32888	32750	
1195	0	32800	32796	
1196	0	32820	32801	
1197	0	32820	32740	
1198	0	32808	32748	
1199	0	32780	32846	
1200	0	32820	32774	
1201	0	32808	32674	
1202	0	32781	32686	
1203	0	32794	32775	
1204	0	32784	32799	
1205	0	32866	32724	
1206	0	32816	32774	
1207	0	32884	32800	
1208	0	32830	32708	
1209	0	32812	32660	
1210	0	32814	32718	
1211	0	32832	32686	
1212	0	32772	32690	
1213	0	32788	32775	
1214	0	32768	32836	
1215	0	32812	32796	
1216	0	32784	32732	
1217	0	32840	32858	
1218	0	32840	32718	
1219	0	32800	32700	
1220	0	32812	32720	
1221	0	32816	32820	
1222	0	32804	32732	
1223	0	32846	32682	
1224	0	32796	32750	
1225	0	32784	32670	
1226	0	32748	32644	
1227	0	32788	32631	
1228	0	32820	32590	
1229	0	32754	32711	
1230	0	32744	32774	
1231	0	32740	32802	
1232	0	32760	32750	
1233	0	32732	32743	
1234	0	32704	32775	
1235	0	32756	32764	
1236	0	32744	32753	
1237	0	32752	32719	
1238	0	32768	32678	
1239	0	32728	32664	
1240	0	32766	32710	
1241	0	32874	32796	
1242	0	32866	32808	
1243	0	32906	32728	
1244	0	32872	32671	
1245	0	32868	32746	
1246	0	32884	32940	
1247	0	32882	32935	
1248	0	32888	32830	
1249	0	32906	32913	
1250	0	32936	32995	
1251	0	32996	32903	
1252	0	33008	32903	
1253	0	32960	33004	
1254	0	32912	32911	
1255	0	32850	32940	
1256	0	32848	32903	
1257	0	32832	32710	
1258	0	32858	32772	
1259	0	32856	32803	
1260	0	32808	32914	
1261	0	32936	32911	
1262	0	32860	32866	
1263	0	32868	32823	
1264	0	32814	32768	
1265	0	32808	32724	
1266	0	32810	32774	
1267	0	32792	32670	
1268	0	32768	32712	
1269	0	32696	32708	
1270	0	32712	32596	
1271	0	32738	32668	
1272	0	32760	32724	
1273	0	32728	32702	
1274	0	32732	32622	
1275	0	32724	32766	
1276	0	32664	32748	
1277	0	32728	32774	
1278	0	32766	32676	
1279	0	32792	32774	
1280	0	32820	32742	
1281	0	32768	32800	
1282	0	32804	32694	
1283	0	32784	32698	
1284	0	32804	32832	
1285	0	32852	32775	
1286	0	32770	32768	
1287	0	32820	32754	
1288	0	32836	32666	
1289	0	32814	32774	
1290	0	32748	32762	
1291	0	32792	32892	
1292	0	32824	32794	
1293	0	32840	32800	
1294	0	32812	32814	
1295	0	32836	32775	
1296	0	32824	32843	
1297	0	32816	32790	
1298	0	32826	32652	
1299	0	32792	32775	
1300	0	32806	32728	
1301	0	32800	32792	
1302	0	32812	32760	
1303	0	32824	32692	
1304	0	32828	32737	
1305	0	32834	32852	
1306	0	32876	32795	
1307	0	32764	32827	
1308	0	32836	32704	
1309	0	32798	32632	
1310	0	32812	32756	
1311	0	32798	32824	
1312	0	32856	32775	
1313	0	32772	32702	
1314	0	32860	32711	
1315	0	32802	32894	
1316	0	32804	32744	
1317	0	32796	32818	
1318	0	32824	32698	
1319	0	32784	32723	
1320	0	32814	32856	
1321	0	32824	32704	
1322	0	32820	32740	
1323	0	32816	32836	
1324	0	32822	32802	
1325	0	32776	32684	
1326	0	32788	32687	
1327	0	32794	32775	
1328	0	32800	32732	
1329	0	32800	32815	
1330	0	32826	32679	
1331	0	32870	32712	
1332	0	32775	32706	
1333	0	32776	32830	
1334	0	32776	32836	
1335	0	32772	32775	
1336	0	32808	32701	
1337	0	32780	32748	
1338	0	32814	32860	
1339	0	32770	32706	
1340	0	32756	32816	
1341	0	32814	32770	
1342	0	32804	32680	
1343	0	32894	32880	
1344	0	32864	32775	
1345	0	32817	32736	
1346	0	32776	32764	
1347	0	32804	32724	
1348	0	32852	32656	
1349	0	32848	32754	
1350	0	32810	32756	
1351	0	32772	32766	
1352	0	32857	32704	
1353	0	32912	32879	
1354	0	32820	32812	
1355	0	32800	32814	
1356	0	32820	32844	
1357	0	32804	32664	
1358	0	32808	32720	
1359	0	32834	32844	
1360	0	32740	32724	
1361	0	32884	32830	
1362	0	32794	32646	
1363	0	32799	32860	
1364	0	32876	32738	
1365	0	32816	32767	
1366	0	32836	32775	
1367	0	32810	32622	
1368	0	32844	32821	
1369	0	32796	32798	
1370	0	32817	32742	
1371	0	32820	32710	
1372	0	32832	32763	
1373	0	32756	32798	
1374	0	32818	32877	
1375	0	32780	32832	
1376	0	32804	32738	
1377	0	32814	32678	
1378	0	32806	32886	
1379	0	32770	32760	
1380	0	32824	32775	
1381	0	32764	32632	
1382	0	32804	32834	
1383	0	32822	32795	
1384	0	32808	32794	
1385	0	32840	32792	
1386	0	32742	32742	
1387	0	32856	32711	
1388	0	32748	32762	
1389	0	32828	32688	
1390	0	32836	32858	
1391	0	32820	32662	
1392	0	32872	32758	
1393	0	32768	32823	
1394	0	32848	32807	
1395	0	32834	32748	
1396	0	32804	32756	
1397	0	32808	32768	
1398	0	32824	32828	
1399	0	32784	32818	
1400	0	32868	32842	
1401	0	32854	32688	
1402	0	32792	32702	
1403	0	32816	32772	
1404	0	32820	32796	
1405	0	32804	32760	
1406	0	32784	32806	
1407	0	32760	32692	
1408	0	32836	32714	
1409	0	32772	32823	
1410	0	32853	32812	
1411	0	32836	32802	
1412	0	32834	32806	
1413	0	32838	32750	
1414	0	32848	32744	
1415	0	32840	32812	
1416	0	32824	32775	
1417	0	32764	32760	
1418	0	32844	32799	
1419	0	32830	32722	
1420	0	32776	32658	
1421	0	32772	32686	
1422	0	32806	32724	
1423	0	32817	32806	
1424	0	32770	32771	
1425	0	32804	32746	
1426	0	32804	32775	
1427	0	32816	32792	
1428	0	32800	32775	
1429	0	32868	32839	
1430	0	32802	32711	
1431	0	32772	32728	
1432	0	32804	32756	
1433	0	32816	32732	
1434	0	32756	32816	
1435	0	32824	32679	
1436	0	32816	32768	
1437	0	32788	32830	
1438	0	32812	32823	
1439	0	32800	32768	
1440	0	32792	32748	
1441	0	32848	32711	
1442	0	32800	32748	
1443	0	32848	32772	
1444	0	32810	32724	
1445	0	32852	32654	
1446	0	32814	32812	
1447	0	32852	32724	
1448	0	32836	32730	
1449	0	32818	32759	
1450	0	32780	32819	
1451	0	32800	32748	
1452	0	32836	32732	
1453	0	32778	32830	
1454	0	32804	32825	
1455	0	32800	32826	
1456	0	32832	32839	
1457	0	32775	32704	
1458	0	32856	32728	
1459	0	32770	32826	
1460	0	32736	32798	
1461	0	32804	32744	
1462	0	32860	32804	
1463	0	32772	32748	
1464	0	32904	32726	
1465	0	32852	32710	
1466	0	32868	32810	
1467	0	32800	32766	
1468	0	32852	32750	
1469	0	32836	32772	
1470	0	32780	32728	
1471	0	32770	32692	
1472	0	32800	32847	
1473	0	32810	32775	
1474	0	32764	32796	
1475	0	32792	32842	
1476	0	32784	32706	
1477	0	32816	32642	
1478	0	32828	32654	
1479	0	32780	32836	
1480	0	32788	32940	
1481	0	32860	32730	
1482	0	32800	32864	
1483	0	32844	32746	
1484	0	32758	32704	
1485	0	32846	32683	
1486	0	32804	32717	
1487	0	32780	32796	
1488	0	32792	32748	
1489	0	32816	32700	
1490	0	32836	32702	
1491	0	32844	32838	
1492	0	32776	32847	
1493	0	32816	32838	
1494	0	32785	32808	
1495	0	32816	32811	
1496	0	32800	32775	
1497	0	32784	32740	
1498	0	32802	32828	
1499	0	32820	32662	
1500	0	32900	32736	
1501	0	32790	32854	
1502	0	32772	32754	
1503	0	32860	32798	
1504	0	32872	32836	
1505	0	32854	32816	
1506	0	32826	32804	
1507	0	32788	32700	
1508	0	32848	32696	
1509	0	32816	32796	
1510	0	32816	32727	
1511	0	32820	32858	
1512	0	32808	32748	
1513	0	32792	32710	
1514	0	32827	32838	
1515	0	32764	32766	
1516	0	32792	32814	
1517	0	32853	32729	
1518	0	32854	32774	
1519	0	32816	32688	
1520	0	32796	32692	
1521	0	32782	32824	
1522	0	32816	32769	
1523	0	32825	32836	
1524	0	32828	32743	
1525	0	32806	32692	
1526	0	32820	32709	
1527	0	32754	32830	
1528	0	32848	32760	
1529	0	32824	32764	
1530	0	32782	32868	
1531	0	32790	32679	
1532	0	32788	32804	
1533	0	32758	32825	
1534	0	32832	32846	
1535	0	32836	32738	
1536	0	32808	32691	
1537	0	32804	32724	
1538	0	32812	32762	
1539	0	32810	32706	
1540	0	32816	32756	
1541	0	32868	32798	
1542	0	32824	32670	
1543	0	32796	32708	
1544	0	32798	32828	
1545	0	32856	32722	
1546	0	32840	32772	
1547	0	32816	32738	
1548	0	32782	32693	
1549	0	32816	32604	
1550	0	32768	32855	
1551	0	32790	32762	
1552	0	32820	32826	
1553	0	32792	32826	
1554	0	32830	32724	
1555	0	32838	32876	
1556	0	32832	32736	
1557	0	32808	32772	
1558	0	32730	32726	
1559	0	32812	32794	
1560	0	32824	32855	
1561	0	32836	32692	
1562	0	32868	32774	
1563	0	32842	32808	
1564	0	32832	32691	
1565	0	32802	32754	
1566	0	32860	32839	
1567	0	32800	32774	
1568	0	32758	32818	
1569	0	32876	32742	
1570	0	32800	32702	
1571	0	32788	32854	
1572	0	32852	32744	
1573	0	32772	32775	
1574	0	32856	32775	
1575	0	32796	32719	
1576	0	32864	32830	
1577	0	32844	32788	
1578	0	32832	32800	
1579	0	32792	32721	
1580	0	32824	32724	
1581	0	32836	32839	
1582	0	32776	32724	
1583	0	32792	32694	
1584	0	32788	32860	
1585	0	32848	32708	
1586	0	32800	32728	
1587	0	32868	32734	
1588	0	32832	32768	
1589	0	32776	32864	
1590	0	32794	32656	
1591	0	32800	32852	
1592	0	32730	32764	
1593	0	32744	32764	
1594	0	32872	32718	
1595	0	32872	32728	
1596	0	32800	32775	
1597	0	32856	32816	
1598	0	32800	32682	
1599	0	32848	32794	
1600	0	32784	32807	
1601	0	32794	32788	
1602	0	32808	32622	
1603	0	32804	32836	
1604	0	32790	32674	
1605	0	32836	32753	
1606	0	32804	32804	
1607	0	32808	32799	
1608	0	32766	32812	
1609	0	32812	32734	
1610	0	32774	32727	
1611	0	32806	32787	
1612	0	32820	32764	
1613	0	32816	32855	
1614	0	32814	32828	
1615	0	32784	32932	
1616	0	32860	32634	
1617	0	32802	32896	
1618	0	32824	32798	
1619	0	32796	32668	
1620	0	32804	32704	
1621	0	32860	32775	
1622	0	32798	32796	
1623	0	32788	32742	
1624	0	32784	32751	
1625	0	32856	32839	
1626	0	32828	32802	
1627	0	32772	32678	
1628	0	32808	32828	
1629	0	32768	32732	
1630	0	32796	32760	
1631	0	32828	32844	
1632	0	32849	32760	
1633	0	32852	32737	
1634	0	32800	32884	
1635	0	32848	32732	
1636	0	32764	32746	
1637	0	32796	32822	
1638	0	32876	32680	
1639	0	32774	32812	
1640	0	32880	32860	
1641	0	32812	32852	
1642	0	32848	32726	
1643	0	32820	32802	
1644	0	32804	32824	
1645	0	32828	32728	
1646	0	32784	32660	
1647	0	32780	32852	
1648	0	32836	32842	
1649	0	32808	32655	
1650	0	32858	32820	
1651	0	32784	32696	
1652	0	32796	32818	
1653	0	32824	32744	
1654	0	32772	32842	
1655	0	32812	32746	
1656	0	32834	32911	
1657	0	32774	32695	
1658	0	32776	32756	
1659	0	32836	32760	
1660	0	32816	32744	
1661	0	32822	32714	
1662	0	32808	32794	
1663	0	32856	32838	
1664	0	32814	32700	
1665	0	32786	32698	
1666	0	32794	32750	
1667	0	32822	32807	
1668	0	32836	32766	
1669	0	32794	32743	
1670	0	32848	32740	
1671	0	32796	32773	
1672	0	32740	32812	
1673	0	32804	32770	
1674	0	32778	32836	
1675	0	32836	32812	
1676	0	32845	32775	
1677	0	32786	32775	
1678	0	32804	32746	
1679	0	32840	32838	
1680	0	32740	32796	
1681	0	32756	32808	
1682	0	32806	32766	
1683	0	32792	32634	
1684	0	32832	32804	
1685	0	32786	32772	
1686	0	32804	32812	
1687	0	32756	32807	
1688	0	32788	32662	
1689	0	32826	32700	
1690	0	32800	32726	
1691	0	32750	32806	
1692	0	32860	32722	
1693	0	32800	32870	
1694	0	32824	32728	
1695	0	32830	32870	
1696	0	32788	32743	
1697	0	32760	32698	
1698	0	32864	32805	
1699	0	32808	32812	
1700	0	32896	32756	
1701	0	32788	32688	
1702	0	32756	32816	
1703	0	32748	32788	
1704	0	32880	32790	
1705	0	32872	32764	
1706	0	32758	32724	
1707	0	32760	32750	
1708	0	32672	32798	
1709	0	32792	32804	
1710	0	32768	32658	
1711	0	32876	32756	
1712	0	32874	32826	
1713	0	32776	32814	
1714	0	32792	32676	
1715	0	32856	32790	
1716	0	32784	32798	
1717	0	32836	32828	
1718	0	32816	32824	
1719	0	32780	32703	
1720	0	32852	32710	
1721	0	32874	32828	
1722	0	32882	32788	
1723	0	32770	32767	
1724	0	32816	32700	
1725	0	32828	32810	
1726	0	32804	32772	
1727	0	32808	32804	
1728	0	32834	32675	
1729	0	32804	32794	
1730	0	32740	32775	
1731	0	32822	32622	
1732	0	32768	32798	
1733	0	32804	32768	
1734	0	32814	32738	
1735	0	32846	32764	
1736	0	32886	32712	
1737	0	32796	32775	
1738	0	32734	32826	
1739	0	32804	32759	
1740	0	32798	32818	
1741	0	32804	32682	
1742	0	32812	32748	
1743	0	32844	32788	
1744	0	32850	32744	
1745	0	32812	32804	
1746	0	32780	32714	
1747	0	32800	32707	
1748	0	32800	32814	
1749	0	32842	32798	
1750	0	32800	32806	
1751	0	32836	32720	
1752	0	32740	32700	
1753	0	32772	32839	
1754	0	32836	32756	
1755	0	32752	32910	
1756	0	32844	32758	
1757	0	32824	32742	
1758	0	32840	32844	
1759	0	32832	32703	
1760	0	32794	32743	
1761	0	32832	32772	
1762	0	32816	32657	
1763	0	32908	32721	
1764	0	32868	32814	
1765	0	32786	32814	
1766	0	32800	32704	
1767	0	32794	32810	
1768	0	32844	32742	
1769	0	32772	32692	
1770	0	32804	32676	
1771	0	32798	32754	
1772	0	32768	32796	
1773	0	32813	32783	
1774	0	32788	32868	
1775	0	32844	32772	
1776	0	32900	32770	
1777	0	32800	32714	
1778	0	32844	32830	
1779	0	32868	32770	
1780	0	32844	32796	
1781	0	32812	32788	
1782	0	32840	32700	
1783	0	32800	32636	
1784	0	32792	32784	
1785	0	32784	32738	
1786	0	32852	32752	
1787	0	32820	32678	
1788	0	32756	32836	
1789	0	32791	32774	
1790	0	32860	32644	
1791	0	32828	32680	
1792	0	32808	32786	
1793	0	32832	32880	
1794	0	32776	32807	
1795	0	32818	32808	
1796	0	32822	32711	
1797	0	32824	32695	
1798	0	32860	32752	
1799	0	32818	32807	
1800	0	32854	32732	
1801	0	32856	32734	
1802	0	32784	32854	
1803	0	32808	32789	
1804	0	32800	32750	
1805	0	32812	32830	
1806	0	32776	32730	
1807	0	32790	32797	
1808	0	32816	32740	
1809	0	32772	32734	
1810	0	32822	32724	
1811	0	32852	32868	
1812	0	32876	32814	
1813	0	32832	32806	
1814	0	32816	32704	
1815	0	32802	32708	
1816	0	32834	32766	
1817	0	32844	32820	
1818	0	32836	32736	
1819	0	32812	32796	
1820	0	32792	32708	
1821	0	32814	32738	
1822	0	32752	32828	
1823	0	32824	32743	
1824	0	32772	32693	
1825	0	32790	32662	
1826	0	32844	32743	
1827	0	32776	32718	
1828	0	32764	32750	
1829	0	32889	32708	
1830	0	32834	32686	
1831	0	32854	32728	
1832	0	32776	32832	
1833	0	32808	32854	
1834	0	32820	32784	
1835	0	32748	32700	
1836	0	32828	32830	
1837	0	32844	32808	
1838	0	32878	32774	
1839	0	32828	32798	
1840	0	32808	32775	
1841	0	32788	32708	
1842	0	32764	32698	
1843	0	32744	32788	
1844	0	32804	32730	
1845	0	32798	32775	
1846	0	32828	32852	
1847	0	32808	32766	
1848	0	32756	32678	
1849	0	32774	32702	
1850	0	32817	32775	
1851	0	32848	32742	
1852	0	32810	32808	
1853	0	32884	32832	
1854	0	32796	32711	
1855	0	32894	32754	
1856	0	32784	32771	
1857	0	32760	32764	
1858	0	32838	32846	
1859	0	32872	32716	
1860	0	32870	32750	
1861	0	32842	32816	
1862	0	32760	32720	
1863	0	32828	32830	
1864	0	32788	32695	
1865	0	32812	32720	
1866	0	32856	32730	
1867	0	32806	32702	
1868	0	32853	32806	
1869	0	32804	32680	
1870	0	32832	32852	
1871	0	32828	32734	
1872	0	32804	32818	
1873	0	32844	32802	
1874	0	32818	32838	
1875	0	32840	32878	
1876	0	32872	32660	
1877	0	32836	32882	
1878	0	32786	32710	
1879	0	32846	32804	
1880	0	32796	32712	
1881	0	32832	32692	
1882	0	32820	32780	
1883	0	32804	32804	
1884	0	32780	32711	
1885	0	32776	32704	
1886	0	32844	32805	
1887	0	32810	32804	
1888	0	32820	32870	
1889	0	32804	32700	
1890	0	32775	32752	
1891	0	32794	32800	
1892	0	32810	32806	
1893	0	32762	32732	
1894	0	32812	32708	
1895	0	32854	32790	
1896	0	32812	32832	
1897	0	32816	32791	
1898	0	32726	32846	
1899	0	32876	32742	
1900	0	32866	32804	
1901	0	32800	32668	
1902	0	32784	32828	
1903	0	32876	32772	
1904	0	32874	32656	
1905	0	32820	32708	
1906	0	32824	32775	
1907	0	32804	32720	
1908	0	32778	32678	
1909	0	32824	32801	
1910	0	32858	32836	
1911	0	32845	32732	
1912	0	32720	32822	
1913	0	32860	32775	
1914	0	32766	32732	
1915	0	32790	32726	
1916	0	32864	32796	
1917	0	32826	32807	
1918	0	32828	32728	
1919	0	32784	32743	
1920	0	32824	32748	
1921	0	32868	32847	
1922	0	32820	32710	
1923	0	32804	32828	
1924	0	32842	32743	
1925	0	32828	32874	
1926	0	32812	32756	
1927	0	32828	32700	
1928	0	32772	32814	
1929	0	32770	32796	
1930	0	32792	32746	
1931	0	32754	32806	
1932	0	32828	32880	
1933	0	32772	32746	
1934	0	32772	32708	
1935	0	32806	32796	
1936	0	32768	32742	
1937	0	32870	32676	
1938	0	32772	32838	
1939	0	32802	32762	
1940	0	32806	32846	
1941	0	32810	32774	
1942	0	32840	32773	
1943	0	32804	32828	
1944	0	32832	32768	
1945	0	32810	32807	
1946	0	32814	32771	
1947	0	32800	32704	
1948	0	32836	32684	
1949	0	32822	32775	
1950	0	32848	32750	
1951	0	32750	32774	
1952	0	32844	32856	
1953	0	32854	32820	
1954	0	32838	32698	
1955	0	32816	32802	
1956	0	32880	32866	
1957	0	32760	32682	
1958	0	32872	32775	
1959	0	32766	32814	
1960	0	32848	32634	
1961	0	32844	32767	
1962	0	32846	32765	
1963	0	32836	32815	
1964	0	32856	32689	
1965	0	32706	32838	
1966	0	32796	32742	
1967	0	32802	32705	
1968	0	32820	32808	
1969	0	32780	32743	
1970	0	32808	32674	
1971	0	32784	32786	
1972	0	32798	32700	
1973	0	32802	32764	
1974	0	32760	32662	
1975	0	32842	32758	
1976	0	32774	32833	
1977	0	32860	32638	
1978	0	32724	32762	
1979	0	32768	32730	
1980	0	32726	32672	
1981	0	32761	32646	
1982	0	32772	32686	
1983	0	32692	32818	
1984	0	32730	32714	
1985	0	32664	32754	
1986	0	32744	32676	
1987	0	32742	32847	
1988	0	32722	32762	
1989	0	32788	32744	
1990	0	32820	32748	
1991	0	32868	32742	
1992	0	32864	32761	
1993	0	32908	32856	
1994	0	32792	32882	
1995	0	32920	32912	
1996	0	32887	33030	
1997	0	32872	32994	
1998	0	33012	32930	
1999	0	32884	33072	
2000	0	32956	33051	
2001	0	33096	32976	
2002	0	33016	32950	
2003	0	32864	32892	
2004	0	32840	32822	
2005	0	32856	32826	
2006	0	32896	32887	
2007	0	32904	32740	
2008	0	32850	32730	
2009	0	32822	32666	
2010	0	32834	32748	
2011	0	32708	32756	
2012	0	32816	32710	
2013	0	32824	32646	
2014	0	32757	32542	
2015	0	32806	32551	
2016	0	32772	32632	
2017	0	32792	32620	
2018	0	32728	32584	
2019	0	32776	32724	
2020	0	32720	32596	
2021	0	32764	32688	
2022	0	32762	32706	
2023	0	32788	32690	
2024	0	32772	32740	
2025	0	32766	32775	
2026	0	32772	32702	
2027	0	32786	32735	
2028	0	32800	32814	
2029	0	32760	32775	
2030	0	32796	32836	
2031	0	32788	32868	
2032	0	32804	32714	
2033	0	32814	32768	
2034	0	32804	32742	
2035	0	32808	32804	
2036	0	32832	32780	
2037	0	32896	32870	
2038	0	32848	32823	
2039	0	32810	32775	
2040	0	32796	32720	
2041	0	32790	32802	
2042	0	32894	32804	
2043	0	32872	32768	
2044	0	32782	32858	
2045	0	32764	32842	
2046	0	32734	32750	
2047	0	32734	32890	
2048	0	32710	32742	
2049	0	32764	32772	
2050	0	32724	32759	
2051	0	32842	32726	
2052	0	32780	32675	
2053	0	32716	32670	
2054	0	32880	32664	
2055	0	32906	32816	
2056	0	32864	32750	
2057	0	32816	32714	
2058	0	32804	32686	
2059	0	32816	32903	
2060	0	32878	32826	
2061	0	32840	32812	
2062	0	32816	32734	
2063	0	32792	32647	
2064	0	32830	32694	
2065	0	32802	32836	
2066	0	32790	32968	
2067	0	32860	32802	
2068	0	32888	32800	
2069	0	32817	32706	
2070	0	32878	32564	
2071	0	32912	32628	
2072	0	32960	32759	
2073	0	32844	32855	
2074	0	32822	32903	
2075	0	32958	32840	
2076	0	32900	32722	
2077	0	32820	32748	
2078	0	32856	32887	
2079	0	32756	32950	
2080	0	32780	32804	
2081	0	32738	32791	
2082	0	32788	32596	
2083	0	32741	32628	
2084	0	32719	32670	
2085	0	32666	32636	
2086	0	32668	32590	
2087	0	32796	32662	
2088	0	32884	32774	
2089	0	32704	32871	
2090	0	32552	32806	
2091	0	32516	32772	
2092	0	32442	32878	
2093	0	32612	32950	
2094	0	32858	32804	
2095	0	32976	32798	
2096	0	32972	32751	
2097	0	33044	32612	
2098	0	32896	32507	
2099	0	32936	32604	
2100	0	32868	32678	
2101	0	32872	32676	
2102	0	32714	32714	
2103	0	32716	32706	
2104	0	32844	32592	
2105	0	32916	32608	
2106	0	32792	32868	
2107	0	32928	32844	
2108	0	32856	32812	
2109	0	32966	32874	
2110	0	32976	32688	
2111	0	32932	32746	
2112	0	32798	32902	
2113	0	32772	32959	
2114	0	32728	32967	
2115	0	32686	32902	
2116	0	32644	32748	
2117	0	32778	32775	
2118	0	32814	32823	
2119	0	32800	32942	
2120	0	32720	32878	
2121	0	32804	32824	
2122	0	32848	32884	
2123	0	32858	32775	
2124	0	32928	32654	
2125	0	32872	32606	
2126	0	32856	32536	
2127	0	32818	32564	
2128	0	32808	32716	
2129	0	32852	32684	
2130	0	32792	32718	
2131	0	32866	32696	
2132	0	32816	32775	
2133	0	32928	32775	
2134	0	32840	32746	
2135	0	32788	32728	
2136	0	32948	32760	
2137	0	32829	32682	
2138	0	32844	32700	
2139	0	32756	32822	
2140	0	32796	32748	
2141	0	32800	32879	
2142	0	32772	32975	
2143	0	32766	32828	
2144	0	32824	32796	
2145	0	32804	32879	
2146	0	32818	32822	
2147	0	32716	32761	
2148	0	32856	32903	
2149	0	32852	32820	
2150	0	32832	32722	
2151	0	32816	32806	
2152	0	32792	32753	
2153	0	32926	32678	
2154	0	32908	32652	
2155	0	32658	32788	
2156	0	32724	32644	
2157	0	32988	32663	
2158	0	32940	32612	
2159	0	32828	32611	
2160	0	32804	32806	
2161	0	32788	32838	
2162	0	32700	32844	
2163	0	32704	32932	
2164	0	32822	33028	
2165	0	33024	32961	
2166	0	32848	32860	
2167	0	32628	32908	
2168	0	32824	32990	
2169	0	32928	32870	
2170	0	32984	32838	
2171	0	33102	32647	
2172	0	32760	32608	
2173	0	32586	32706	
2174	0	32440	32718	
2175	0	32444	32758	
2176	0	32372	32764	
2177	0	32576	32740	
2178	0	32768	32630	
2179	0	32744	32684	
2180	0	32784	32568	
2181	0	32876	32615	
2182	0	32906	32530	
2183	0	32884	32583	
2184	0	32876	32650	
2185	0	32904	32642	
2186	0	33060	32644	
2187	0	32980	32711	
2188	0	32804	32755	
2189	0	32928	32572	
2190	0	32828	32582	
2191	0	32812	32852	
2192	0	32884	32927	
2193	0	32962	32838	
2194	0	33180	32870	
2195	0	33156	32872	
2196	0	32772	32888	
2197	0	32704	32884	
2198	0	32588	32908	
2199	0	32616	32743	
2200	0	32752	32708	
2201	0	32592	32678	
2202	0	32602	32682	
2203	0	32584	32679	
2204	0	32608	32604	
2205	0	32702	32846	
2206	0	33028	32806	
2207	0	32968	32767	
2208	0	32936	32634	
2209	0	32892	32764	
2210	0	32880	32738	
2211	0	33012	32714	
2212	0	32818	32806	
2213	0	32900	32762	
2214	0	32904	32816	
2215	0	32756	32866	
2216	0	32830	32871	
2217	0	32700	32838	
2218	0	32780	32850	
2219	0	32840	32796	
2220	0	32890	32766	
2221	0	32868	32812	
2222	0	32856	32702	
2223	0	32772	32788	
2224	0	32748	32684	
2225	0	33072	32767	
2226	0	32942	32711	
2227	0	32888	32790	
2228	0	32828	32660	
2229	0	32804	32640	
2230	0	32816	32654	
2231	0	32752	32790	
2232	0	32788	32774	
2233	0	32780	33028	
2234	0	32716	32851	
2235	0	32732	32730	
2236	0	32836	32812	
2237	0	32908	32800	
2238	0	32948	32945	
2239	0	32820	32910	
2240	0	32728	32913	
2241	0	32826	32862	
2242	0	32900	32711	
2243	0	32836	32802	
2244	0	32849	32774	
2245	0	32928	32727	
2246	0	33050	32769	
2247	0	32938	32855	
2248	0	32766	32828	
2249	0	32730	32819	
2250	0	32810	32672	
2251	0	32620	32740	
2252	0	32706	32868	
2253	0	32880	32940	
2254	0	32662	32911	
2255	0	32668	32836	
2256	0	32840	32720	
2257	0	32640	32718	
2258	0	32568	32770	
2259	0	32804	32708	
2260	0	32836	32710	
2261	0	33044	32874	
2262	0	33132	32767	
2263	0	32908	32736	
2264	0	32822	32625	
2265	0	32810	32582	
2266	0	32668	32632	
2267	0	32530	32622	
2268	0	32700	32775	
2269	0	32670	32664	
2270	0	32656	32690	
2271	0	32720	32815	
2272	0	32712	32660	
2273	0	32926	32746	
2274	0	33104	32732	
2275	0	33120	32679	
2276	0	33024	32699	
2277	0	32864	32615	
2278	0	32828	32562	
2279	0	32960	32609	
2280	0	33128	32806	
2281	0	32844	32862	
2282	0	32726	32950	
2283	0	32676	32824	
2284	0	32486	32752	
2285	0	32432	32784	
2286	0	32492	32814	
2287	0	32552	32782	
2288	0	32542	32886	
2289	0	32720	32762	
2290	0	32852	32714	
2291	0	32948	32727	
2292	0	33034	32874	
2293	0	33242	32688	
2294	0	33084	32646	
2295	0	32924	32682	
2296	0	32766	32628	
2297	0	32644	32510	
2298	0	32632	32544	
2299	0	32916	32710	
2300	0	32814	32775	
2301	0	32804	32878	
2302	0	32754	32927	
2303	0	32880	33012	
2304	0	32960	32810	
2305	0	32778	32790	
2306	0	32704	32807	
2307	0	32832	32850	
2308	0	32732	32836	
2309	0	32730	32903	
2310	0	32754	32724	
2311	0	32712	32784	
2312	0	32636	32924	
2313	0	32684	32903	
2314	0	33040	32880	
2315	0	33048	32711	
2316	0	33074	32636	
2317	0	32966	32834	
2318	0	32877	32855	
2319	0	32774	32828	
2320	0	32698	32734	
2321	0	32708	32742	
2322	0	32680	32666	
2323	0	32668	32716	
2324	0	32772	32510	
2325	0	32792	32486	
2326	0	32746	32620	
2327	0	32656	32762	
2328	0	32874	32878	
2329	0	32982	32784	
2330	0	32956	32799	
2331	0	32824	32848	
2332	0	32783	32774	
2333	0	32832	32911	
2334	0	32934	32990	
2335	0	32816	32868	
2336	0	32840	32787	
2337	0	32704	32764	
2338	0	32824	32758	
2339	0	32914	32775	
2340	0	32958	32908	
2341	0	32798	32984	
2342	0	32640	32878	
2343	0	32972	32712	
2344	0	33290	32728	
2345	0	33216	33084	
2346	0	32924	32900	
2347	0	32752	32732	
2348	0	32732	32838	
2349	0	32590	32775	
2350	0	32394	32550	
2351	0	32408	32577	
2352	0	32340	32654	
2353	0	32546	32726	
2354	0	32588	32384	
2355	0	32680	32572	
2356	0	32840	32510	
2357	0	32892	32510	
2358	0	32948	32607	
2359	0	33044	32646	
2360	0	33080	32647	
2361	0	33220	32872	
2362	0	33058	32866	
2363	0	32808	32794	
2364	0	32844	32726	
2365	0	32804	32878	
2366	0	32614	33026	
2367	0	32816	33137	
2368	0	32864	33082	
2369	0	32672	32726	
2370	0	32724	32686	
2371	0	33160	32620	
2372	0	33052	32673	
2373	0	33186	32736	
2374	0	33076	32896	
2375	0	32782	32790	
2376	0	32480	32775	
2377	0	32384	32837	
2378	0	32456	32878	
2379	0	32668	32934	
2380	0	32614	32775	
2381	0	32784	32830	
2382	0	32820	32706	
2383	0	33276	32698	
2384	0	33092	32588	
2385	0	33050	32631	
2386	0	32920	32831	
2387	0	32712	32760	
2388	0	32576	32664	
2389	0	32648	32772	
2390	0	32682	32687	
2391	0	32754	32622	
2392	0	32796	32774	
2393	0	32820	32732	
2394	0	32780	32800	
2395	0	32742	32726	
2396	0	32870	32806	
2397	0	32896	32720	
2398	0	32834	32647	
2399	0	32840	32871	
2400	0	32952	32806	
2401	0	32824	32734	
2402	0	32926	32690	
2403	0	32992	32806	
2404	0	32892	32863	
2405	0	32864	32800	
2406	0	32864	32726	
2407	0	32764	32647	
2408	0	32828	32772	
2409	0	32820	32790	
2410	0	32780	32756	
2411	0	32768	32788	
2412	0	32736	32884	
2413	0	32764	32878	
2414	0	32808	32876	
2415	0	32776	32946	
2416	0	32840	32804	
2417	0	32832	32836	
2418	0	33008	32862	
2419	0	32988	32800	
2420	0	32865	32888	
2421	0	32772	32758	
2422	0	32812	32774	
2423	0	32620	32770	
2424	0	32558	32792	
2425	0	32568	32633	
2426	0	32625	32615	
2427	0	32680	32614	
2428	0	32686	32658	
2429	0	32848	32744	
2430	0	32808	32750	
2431	0	32816	32871	
2432	0	32821	32903	
2433	0	32912	32624	
2434	0	32880	32774	
2435	0	32776	32818	
2436	0	32906	32743	
2437	0	32912	32775	
2438	0	32636	32790	
2439	0	32656	32802	
2440	0	32974	32808	
2441	0	32988	32752	
2442	0	33046	32807	
2443	0	33060	32806	
2444	0	33166	32683	
2445	0	33160	32702	
2446	0	32916	32772	
2447	0	32648	32750	
2448	0	32678	32680	
2449	0	32720	32738	
2450	0	32484	32742	
2451	0	32500	32703	
2452	0	32652	32705	
2453	0	32777	32756	
2454	0	32776	32892	
2455	0	32782	32839	
2456	0	32736	32879	
2457	0	32712	32922	
2458	0	32914	32750	
2459	0	32987	32662	
2460	0	32956	32720	
2461	0	32816	32720	
2462	0	32688	32712	
2463	0	32766	32592	
2464	0	32958	32592	
2465	0	32670	32686	
2466	0	32490	32764	
2467	0	32960	32754	
2468	0	33056	32633	
2469	0	33002	32775	
2470	0	33024	32679	
2471	0	32664	32712	
2472	0	32298	32775	
2473	0	32458	32834	
2474	0	32972	32890	
2475	0	33262	32774	
2476	0	33220	32662	
2477	0	32626	32596	
2478	0	32776	32791	
2479	0	33060	32718	
2480	0	33006	32702	
2481	0	32983	32718	
2482	0	32792	32658	
2483	0	32768	32662	
2484	0	32638	32660	
2485	0	32636	32698	
2486	0	32740	32663	
2487	0	32726	32788	
2488	0	32700	32672	
2489	0	32690	32692	
2490	0	32762	32767	
2491	0	32796	32862	
2492	0	32876	33018	
2493	0	32736	32924	
2494	0	32840	32846	
2495	0	32752	32808	
2496	0	32784	32880	
2497	0	32804	32828	
2498	0	32796	32820	
2499	0	32912	32966	
2500	0	32900	32798	
2501	0	32848	32775	
2502	0	32912	32902	
2503	0	32856	32726	
2504	0	32894	32807	
2505	0	32872	32775	
2506	0	32840	32709	
2507	0	32852	32615	
2508	0	32724	32620	
2509	0	32772	32739	
2510	0	32811	32870	
2511	0	32772	33044	
2512	0	32704	32775	
2513	0	32846	32895	
2514	0	32856	32872	
2515	0	32810	32804	
2516	0	32826	32694	
2517	0	32996	32926	
2518	0	32908	32984	
2519	0	32840	32986	
2520	0	32735	32784	
2521	0	32748	32916	
2522	0	32624	32676	
2523	0	32772	32772	
2524	0	32772	32600	
2525	0	32768	32604	
2526	0	32832	32664	
2527	0	32810	32686	
2528	0	32874	32696	
2529	0	32886	32584	
2530	0	32884	32583	
2531	0	32880	32592	
2532	0	32810	32612	
2533	0	32804	32970	
2534	0	32730	32935	
2535	0	32712	32775	
2536	0	32676	32796	
2537	0	32773	32790	
2538	0	32800	32679	
2539	0	33040	32662	
2540	0	33180	32620	
2541	0	32752	32654	
2542	0	32498	32604	
2543	0	32764	32586	
2544	0	33076	32623	
2545	0	32902	32686	
2546	0	32756	32888	
2547	0	32916	32830	
2548	0	33114	32788	
2549	0	32592	32902	
2550	0	32608	32952	
2551	0	32866	32954	
2552	0	32540	32802	
2553	0	32480	32934	
2554	0	32544	32884	
2555	0	32404	32918	
2556	0	32756	32700	
2557	0	32880	32704	
2558	0	32684	32760	
2559	0	32833	32748	
2560	0	32966	32718	
2561	0	32924	32556	
2562	0	33000	32478	
2563	0	32964	32514	
2564	0	32888	32707	
2565	0	32848	32839	
2566	0	32996	32822	
2567	0	32768	32874	
2568	0	32984	32820	
2569	0	33174	32804	
2570	0	32756	32857	
2571	0	32584	32977	
2572	0	33060	32876	
2573	0	32616	32762	
2574	0	32834	32944	
2575	0	33050	32838	
2576	0	32872	32918	
2577	0	32556	32960	
2578	0	32680	32794	
2579	0	32884	32820	
2580	0	32756	32800	
2581	0	32710	32775	
2582	0	32732	32718	
2583	0	32764	32724	
2584	0	32774	32804	
2585	0	32956	32644	
2586	0	32912	32640	
2587	0	32812	32503	
2588	0	32746	32464	
2589	0	32785	32538	
2590	0	32840	32560	
2591	0	32808	32664	
2592	0	32802	32692	
2593	0	32890	32756	
2594	0	32860	32814	
2595	0	33060	32860	
2596	0	33060	32823	
2597	0	33042	32590	
2598	0	32852	32746	
2599	0	32618	32828	
2600	0	32472	32775	
2601	0	32600	32774	
2602	0	32580	32814	
2603	0	32672	32626	
2604	0	32790	32720	
2605	0	32832	32790	
2606	0	32934	32852	
2607	0	32784	32862	
2608	0	32852	32807	
2609	0	32888	32930	
2610	0	32944	32903	
2611	0	32956	32836	
2612	0	32912	32750	
2613	0	33000	32692	
2614	0	33068	32760	
2615	0	33108	32877	
2616	0	32900	32818	
2617	0	32750	32775	
2618	0	33032	32698	
2619	0	33176	32828	
2620	0	32958	32964	
2621	0	32405	32884	
2622	0	32184	32748	
2623	0	32272	32775	
2624	0	32452	32624	
2625	0	32480	32642	
2626	0	32620	32650	
2627	0	32772	32607	
2628	0	33073	32487	
2629	0	32954	32614	
2630	0	32796	32704	
2631	0	32908	32740	
2632	0	32788	32800	
2633	0	32816	32702	
2634	0	32880	32647	
2635	0	32708	32759	
2636	0	32792	32760	
2637	0	32970	32826	
2638	0	33074	32860	
2639	0	33040	32830	
2640	0	33352	32803	
2641	0	33012	32783	
2642	0	33216	32812	
2643	0	32742	32711	
2644	0	32412	32706	
2645	0	32388	32881	
2646	0	32696	32830	
2647	0	32828	32798	
2648	0	32814	32740	
2649	0	33002	32680	
2650	0	32816	32596	
2651	0	32672	32807	
2652	0	32428	32753	
2653	0	32376	32788	
2654	0	32812	32898	
2655	0	33192	32852	
2656	0	33240	32894	
2657	0	33132	32982	
2658	0	33038	32962	
2659	0	32630	32994	
2660	0	32426	32968	
2661	0	32520	32796	
2662	0	32884	32720	
2663	0	32848	32742	
2664	0	32394	32834	
2665	0	32282	32567	
2666	0	32474	32559	
2667	0	32634	32600	
2668	0	32682	32426	
2669	0	32968	32382	
2670	0	32956	32359	
2671	0	32932	32359	
2672	0	32724	32542	
2673	0	33064	32566	
2674	0	33212	32615	
2675	0	33220	32689	
2676	0	32520	32966	
2677	0	32248	32895	
2678	0	32832	33146	
2679	0	33588	33094	
2680	0	33162	32967	
2681	0	32994	32818	
2682	0	32792	32852	
2683	0	32804	32970	
2684	0	32608	33012	
2685	0	32680	33025	
2686	0	33092	33002	
2687	0	32860	33127	
2688	0	32784	33026	
2689	0	32740	32804	
2690	0	32772	32730	
2691	0	32696	32744	
2692	0	32720	32822	
2693	0	32784	32636	
2694	0	32772	32583	
2695	0	32688	32728	
2696	0	32664	32538	
2697	0	32712	32624	
2698	0	32568	32426	
2699	0	32796	32476	
2700	0	33028	32654	
2701	0	32984	32678	
2702	0	32998	32616	
2703	0	33078	32678	
2704	0	33084	32656	
2705	0	32864	32700	
2706	0	32780	32714	
2707	0	32656	32721	
2708	0	32668	32767	
2709	0	32740	32710	
2710	0	32608	32804	
2711	0	32292	32679	
2712	0	32650	32802	
2713	0	33068	32700	
2714	0	33108	32662	
2715	0	32768	32743	
2716	0	32454	32652	
2717	0	32708	32836	
2718	0	33118	32748	
2719	0	33116	32930	
2720	0	32772	32916	
2721	0	32848	32852	
2722	0	32722	32888	
2723	0	32770	32852	
2724	0	32664	32711	
2725	0	32708	32676	
2726	0	32472	32632	
2727	0	32446	32693	
2728	0	32704	32582	
2729	0	32558	32614	
2730	0	32854	32725	
2731	0	33010	32740	
2732	0	32740	32591	
2733	0	32544	32767	
2734	0	33392	32694	
2735	0	33704	32719	
2736	0	33076	32610	
2737	0	32775	32903	
2738	0	32636	32804	
2739	0	32386	32768	
2740	0	33012	32713	
2741	0	33152	32896	
2742	0	32604	32981	
2743	0	32664	33022	
2744	0	33162	33194	
2745	0	33112	33130	
2746	0	32924	33106	
2747	0	33208	33196	
2748	0	33216	33028	
2749	0	32770	32894	
2750	0	32510	32864	
2751	0	32212	32737	
2752	0	32714	32824	
2753	0	32718	32862	
2754	0	32340	32902	
2755	0	32778	32725	
2756	0	33958	32680	
2757	0	33362	32673	
2758	0	32920	32710	
2759	0	32438	32679	
2760	0	32332	32618	
2761	0	32578	32623	
2762	0	32400	32715	
2763	0	32772	32583	
2764	0	32734	32608	
2765	0	33314	32582	
2766	0	32774	32610	
2767	0	32934	32790	
2768	0	33864	32814	
2769	0	33880	33090	
2770	0	33200	33006	
2771	0	32098	32930	
2772	0	31968	32770	
2773	0	31548	32743	
2774	0	31660	32736	
2775	0	32100	32512	
2776	0	32584	32464	
2777	0	32618	32472	
2778	0	33076	32864	
2779	0	33312	32992	
2780	0	33452	33138	
2781	0	33692	32880	
2782	0	33102	32786	
2783	0	32956	33000	
2784	0	32680	32919	
2785	0	32422	32705	
2786	0	32892	32398	
2787	0	32756	32478	
2788	0	33216	32472	
2789	0	33393	32278	
2790	0	33572	32370	
2791	0	33024	32692	
2792	0	32312	32747	
2793	0	32938	32695	
2794	0	33468	32894	
2795	0	33142	32806	
2796	0	32237	32624	
2797	0	31976	32664	
2798	0	31844	32684	
2799	0	31848	32636	
2800	0	32156	32652	
2801	0	32474	32814	
2802	0	32614	32756	
2803	0	32588	32704	
2804	0	32582	32718	
2805	0	33468	32806	
2806	0	33444	32775	
2807	0	33316	32628	
2808	0	32996	32746	
2809	0	33096	32804	
2810	0	32774	32938	
2811	0	32824	33008	
2812	0	32740	32964	
2813	0	32804	33279	
2814	0	32896	33180	
2815	0	32930	33079	
2816	0	32992	32926	
2817	0	32830	32932	
2818	0	32826	32790	
2819	0	32704	32646	
2820	0	32640	32806	
2821	0	32596	32726	
2822	0	32620	32650	
2823	0	32866	32696	
2824	0	33016	32718	
2825	0	32924	32699	
2826	0	33226	32794	
2827	0	33672	32775	
2828	0	33760	32894	
2829	0	33052	32960	
2830	0	32420	32960	
2831	0	32364	32865	
2832	0	32192	32942	
2833	0	32264	32796	
2834	0	32418	32836	
2835	0	32500	32770	
2836	0	32480	32647	
2837	0	32596	32430	
2838	0	32654	32474	
2839	0	32884	32554	
2840	0	32864	32542	
2841	0	32764	32472	
2842	0	32378	32538	
2843	0	32792	32527	
2844	0	33960	32479	
2845	0	33920	32486	
2846	0	33794	32625	
2847	0	33240	32654	
2848	0	32896	32770	
2849	0	32450	32980	
2850	0	32666	32824	
2851	0	32554	32995	
2852	0	32200	32846	
2853	0	32100	33008	
2854	0	31896	32850	
2855	0	31728	32874	
2856	0	32388	32822	
2857	0	33570	32983	
2858	0	33746	32871	
2859	0	33418	32972	
2860	0	32912	33055	
2861	0	33400	33024	
2862	0	34484	33054	
2863	0	33358	32868	
2864	0	32544	32852	
2865	0	31984	32647	
2866	0	31710	32574	
2867	0	31592	32359	
2868	0	32512	32486	
2869	0	32894	32458	
2870	0	33208	32480	
2871	0	33457	32465	
2872	0	33048	32604	
2873	0	32876	32530	
2874	0	32666	32876	
2875	0	32246	32774	
2876	0	32056	32785	
2877	0	32292	32886	
2878	0	32562	32866	
2879	0	32104	32895	
2880	0	32628	32740	
2881	0	34296	32872	
2882	0	33904	33018	
2883	0	33532	32950	
2884	0	33156	32976	
2885	0	32858	33010	
2886	0	32496	32912	
2887	0	32540	32708	
2888	0	32922	32732	
2889	0	32878	32806	
2890	0	32716	32922	
2891	0	33204	32864	
2892	0	32640	32854	
2893	0	32662	32706	
2894	0	33080	32532	
2895	0	32500	32393	
2896	0	32244	32448	
2897	0	32049	32401	
2898	0	32124	32431	
2899	0	32272	32400	
2900	0	32484	32500	
2901	0	32872	32772	
2902	0	33044	32852	
2903	0	33012	32818	
2904	0	32980	32992	
2905	0	32992	32852	
2906	0	33036	32775	
2907	0	33365	32850	
2908	0	33212	32919	
2909	0	32928	33031	
2910	0	32928	33086	
2911	0	32982	32911	
2912	0	33094	33287	
2913	0	32844	33239	
2914	0	33176	33130	
2915	0	32866	33156	
2916	0	32750	32990	
2917	0	32492	33048	
2918	0	33018	32908	
2919	0	32734	32788	
2920	0	32748	32512	
2921	0	33624	32366	
2922	0	33240	32236	
2923	0	32344	32167	
2924	0	32357	32288	
2925	0	32536	32398	
2926	0	32480	32402	
2927	0	32998	32366	
2928	0	32998	32340	
2929	0	32580	32244	
2930	0	32224	32612	
2931	0	32404	32810	
2932	0	32248	32917	
2933	0	32566	33084	
2934	0	32768	33236	
2935	0	33060	33121	
2936	0	33120	33088	
2937	0	33490	32952	
2938	0	33098	33002	
2939	0	32884	33162	
2940	0	32388	33144	
2941	0	32380	33142	
2942	0	32558	32964	
2943	0	32932	32878	
2944	0	32870	32738	
2945	0	32472	32650	
2946	0	32628	32672	
2947	0	33284	32564	
2948	0	33624	32551	
2949	0	33204	32622	
2950	0	34174	32608	
2951	0	33516	32410	
2952	0	32804	32270	
2953	0	32284	32367	
2954	0	31938	32642	
2955	0	32016	32560	
2956	0	32150	32698	
2957	0	32396	32810	
2958	0	32438	32871	
2959	0	32590	32647	
2960	0	32748	32662	
2961	0	33000	32648	
2962	0	32912	32802	
2963	0	33118	32710	
2964	0	33624	32842	
2965	0	33423	32692	
2966	0	33756	32839	
2967	0	33200	32824	
2968	0	32810	32762	
2969	0	32675	32743	
2970	0	32288	32764	
2971	0	31864	32912	
2972	0	32328	32922	
2973	0	32528	33022	
2974	0	32618	33081	
2975	0	32366	33063	
2976	0	32356	33047	
2977	0	32786	32996	
2978	0	32828	33088	
2979	0	32718	33031	
2980	0	33148	32830	
2981	0	33252	32847	
2982	0	33116	32743	
2983	0	33270	32844	
2984	0	33822	32992	
2985	0	32956	32944	
2986	0	32612	32860	
2987	0	32726	32484	
2988	0	32884	32391	
2989	0	32874	32436	
2990	0	32560	32502	
2991	0	32338	32484	
2992	0	32632	32566	
2993	0	32292	32496	
2994	0	32464	32620	
2995	0	32460	32810	
2996	0	32536	32772	
2997	0	32622	32724	
2998	0	32582	32705	
2999	0	32932	32473	
3000	0	33016	32476	
3001	0	33282	32737	
3002	0	34048	32822	
3003	0	33598	32903	
3004	0	33156	32967	
3005	0	33176	32968	
3006	0	32792	32832	
3007	0	32452	32775	
3008	0	32496	32916	
3009	0	32360	32734	
3010	0	32688	32812	
3011	0	32560	32903	
3012	0	32532	32987	
3013	0	32390	32922	
3014	0	32770	32942	
3015	0	33418	32678	
3016	0	33628	32543	
3017	0	33040	32303	
3018	0	33380	32351	
3019	0	33089	32551	
3020	0	32248	32690	
3021	0	32060	32958	
3022	0	31920	33159	
3023	0	32506	33216	
3024	0	32896	33330	
3025	0	32744	33356	
3026	0	32808	33174	
3027	0	32913	33012	
3028	0	32725	32800	
3029	0	32884	32506	
3030	0	32997	32272	
3031	0	32788	32295	
3032	0	32860	32492	
3033	0	32542	32662	
3034	0	32464	32546	
3035	0	33072	32446	
3036	0	33845	32484	
3037	0	33580	32456	
3038	0	33264	32358	
3039	0	32744	32366	
3040	0	32500	32743	
3041	0	32108	33052	
3042	0	32432	32908	
3043	0	32404	32793	
3044	0	33380	32886	
3045	0	32636	32764	
3046	0	32460	32882	
3047	0	32000	32874	
3048	0	32506	32946	
3049	0	34160	32896	
3050	0	34584	33110	
3051	0	33145	33156	
3052	0	32104	32886	
3053	0	31924	32743	
3054	0	32273	32564	
3055	0	32654	32488	
3056	0	32380	32615	
3057	0	32324	32612	
3058	0	32768	32535	
3059	0	33340	32494	
3060	0	32972	32386	
3061	0	33102	32300	
3062	0	32754	32440	
3063	0	32332	32430	
3064	0	32384	32679	
3065	0	32652	32852	
3066	0	32732	33175	
3067	0	32804	32896	
3068	0	32844	32994	
3069	0	33308	33060	
3070	0	32924	33122	
3071	0	33432	33254	
3072	0	33668	33168	
3073	0	33392	33335	
3074	0	33018	33332	
3075	0	32576	33222	
3076	0	32338	33240	
3077	0	32320	32930	
3078	0	32868	32572	
3079	0	33572	32526	
3080	0	33924	32631	
3081	0	32996	32706	
3082	0	32612	32420	
3083	0	32102	32474	
3084	0	31712	32418	
3085	0	31400	32452	
3086	0	32209	32423	
3087	0	32442	32396	
3088	0	32376	32354	
3089	0	32482	32422	
3090	0	33270	32478	
3091	0	32984	32358	
3092	0	32708	32670	
3093	0	33183	32566	
3094	0	33172	32599	
3095	0	33260	32646	
3096	0	33244	32870	
3097	0	33140	32846	
3098	0	33224	32862	
3099	0	33446	32868	
3100	0	33404	32860	
3101	0	32712	32950	
3102	0	32794	32998	
3103	0	32766	32935	
3104	0	32585	33102	
3105	0	32824	33092	
3106	0	32808	32982	
3107	0	32452	32985	
3108	0	32280	32760	
3109	0	32234	32763	
3110	0	32362	32945	
3111	0	32548	32948	
3112	0	32517	33106	
3113	0	32484	32996	
3114	0	32758	33194	
3115	0	33280	33064	
3116	0	33204	33052	
3117	0	33412	32646	
3118	0	33372	32740	
3119	0	33032	32429	
3120	0	33156	32524	
3121	0	32664	32390	
3122	0	31882	32319	
3123	0	32876	32567	
3124	0	33492	32403	
3125	0	32932	32570	
3126	0	32412	32504	
3127	0	32688	32704	
3128	0	33024	32670	
3129	0	33030	32722	
3130	0	33342	32823	
3131	0	32970	32716	
3132	0	32496	32718	
3133	0	32272	32934	
3134	0	31940	32732	
3135	0	32170	32914	
3136	0	32230	32836	
3137	0	32428	32850	
3138	0	32808	32791	
3139	0	32814	32714	
3140	0	32928	32880	
3141	0	33620	32896	
3142	0	33004	32976	
3143	0	33132	32852	
3144	0	33680	33031	
3145	0	33228	33089	
3146	0	32952	33031	
3147	0	32594	32950	
3148	0	33176	32984	
3149	0	32904	33010	
3150	0	32388	32910	
3151	0	33132	32608	
3152	0	33116	32684	
3153	0	33000	32890	
3154	0	32930	32656	
3155	0	32672	32572	
3156	0	32096	32400	
3157	0	31286	32512	
3158	0	31620	32428	
3159	0	32720	32334	
3160	0	33070	32534	
3161	0	33032	32431	
3162	0	32766	32480	
3163	0	32408	32502	
3164	0	32724	32612	
3165	0	33656	32840	
3166	0	33794	32952	
3167	0	33348	32586	
3168	0	32774	32542	
3169	0	32081	32567	
3170	0	32748	32680	
3171	0	34448	32792	
3172	0	34104	33024	
3173	0	33184	33031	
3174	0	32706	33082	
3175	0	32760	32990	
3176	0	33616	32754	
3177	0	33100	32695	
3178	0	32192	32838	
3179	0	31480	32932	
3180	0	31148	32754	
3181	0	31080	32818	
3182	0	31956	32702	
3183	0	32216	32872	
3184	0	32298	32832	
3185	0	32628	32798	
3186	0	32736	32644	
3187	0	32978	32564	
3188	0	33160	32775	
3189	0	33172	32642	
3190	0	33382	32576	
3191	0	33556	32578	
3192	0	33520	32610	
3193	0	33392	32612	
3194	0	33358	32698	
3195	0	32914	32832	
3196	0	32888	32800	
3197	0	33028	32815	
3198	0	32986	33084	
3199	0	32922	32766	
3200	0	32640	32844	
3201	0	32778	32762	
3202	0	32576	32868	
3203	0	32316	32994	
3204	0	33156	32871	
3205	0	33748	32903	
3206	0	33068	32810	
3207	0	32766	32692	
3208	0	32756	32900	
3209	0	32784	32892	
3210	0	33354	32790	
3211	0	33120	32746	
3212	0	32300	32915	
3213	0	32149	32943	
3214	0	31876	32972	
3215	0	31846	32695	
3216	0	32362	32702	
3217	0	32578	32736	
3218	0	32702	32671	
3219	0	32552	32816	
3220	0	33036	32793	
3221	0	32940	33018	
3222	0	32592	32750	
3223	0	33106	32828	
3224	0	32920	32646	
3225	0	32986	32775	
3226	0	32596	32790	
3227	0	33400	32628	
3228	0	33888	32468	
3229	0	33400	32652	
3230	0	32868	32668	
3231	0	33292	32576	
3232	0	32432	32538	
3233	0	31908	32652	
3234	0	33184	32730	
3235	0	33166	32676	
3236	0	33066	32686	
3237	0	32166	32793	
3238	0	32176	32887	
3239	0	32725	32856	
3240	0	33152	32916	
3241	0	32784	33042	
3242	0	32068	33167	
3243	0	31956	33207	
3244	0	31970	33134	
3245	0	31780	33002	
3246	0	31992	32698	
3247	0	32764	32488	
3248	0	33384	32391	
3249	0	33832	32546	
3250	0	34272	32420	
3251	0	33544	32384	
3252	0	33780	32462	
3253	0	34116	32540	
3254	0	33060	32462	
3255	0	32358	32316	
3256	0	31908	32405	
3257	0	32286	32417	
3258	0	32078	32532	
3259	0	32132	32628	
3260	0	33030	32870	
3261	0	33660	33002	
3262	0	32928	33058	
3263	0	33230	32914	
3264	0	33112	33034	
3265	0	33076	32919	
3266	0	32584	32916	
3267	0	32244	32852	
3268	0	32348	32934	
3269	0	32446	32784	
3270	0	32760	32643	
3271	0	32384	32750	
3272	0	32621	32886	
3273	0	33618	33218	
3274	0	33380	33060	
3275	0	32972	32762	
3276	0	32578	32900	
3277	0	32156	32807	
3278	0	32552	32834	
3279	0	31768	32530	
3280	0	32720	32580	
3281	0	32902	32566	
3282	0	32884	32888	
3283	0	33740	32838	
3284	0	33324	32759	
3285	0	32866	32764	
3286	0	32736	32768	
3287	0	32452	32934	
3288	0	32438	32804	
3289	0	32884	32824	
3290	0	32740	32692	
3291	0	33002	32742	
3292	0	33224	32732	
3293	0	33216	32768	
3294	0	33182	32895	
3295	0	33226	32886	
3296	0	33360	33031	
3297	0	33736	33100	
3298	0	32456	32726	
3299	0	31312	32708	
3300	0	31121	32812	
3301	0	31404	32774	
3302	0	32049	32692	
3303	0	32056	32574	
3304	0	32468	32308	
3305	0	32828	32503	
3306	0	33012	32656	
3307	0	33264	32644	
3308	0	33684	32440	
3309	0	33512	32567	
3310	0	33958	32590	
3311	0	33144	32614	
3312	0	33012	32832	
3313	0	34196	32934	
3314	0	34932	32906	
3315	0	33324	33112	
3316	0	31340	32999	
3317	0	31446	33047	
3318	0	32028	32996	
3319	0	31264	32984	
3320	0	31542	32647	
3321	0	31716	32916	
3322	0	31948	32924	
3323	0	33564	32874	
3324	0	35784	32775	
3325	0	33880	32796	
3326	0	33908	32856	
3327	0	32498	32798	
3328	0	33000	32624	
3329	0	33653	32422	
3330	0	32352	32150	
3331	0	31660	32756	
3332	0	31872	32903	
3333	0	31876	32948	
3334	0	31460	32686	
3335	0	32288	32410	
3336	0	33052	32503	
3337	0	33668	32548	
3338	0	34008	32519	
3339	0	34572	32471	
3340	0	33668	32220	
3341	0	32968	32292	
3342	0	32824	32514	
3343	0	32350	32984	
3344	0	32392	33094	
3345	0	31841	32944	
3346	0	31864	33062	
3347	0	32288	33009	
3348	0	33048	33031	
3349	0	32464	33066	
3350	0	31860	32760	
3351	0	32680	32730	
3352	0	34436	32878	
3353	0	33716	32974	
3354	0	32272	33084	
3355	0	33120	32926	
3356	0	33782	32974	
3357	0	33278	32834	
3358	0	33180	32832	
3359	0	32996	32752	
3360	0	32436	32836	
3361	0	32268	32754	
3362	0	32410	32772	
3363	0	32716	32389	
3364	0	32844	32332	
3365	0	32764	32577	
3366	0	32488	32704	
3367	0	33296	32948	
3368	0	33482	33028	
3369	0	32992	33129	
3370	0	33416	33134	
3371	0	33250	33042	
3372	0	32204	33058	
3373	0	32956	32894	
3374	0	33240	32712	
3375	0	33220	32858	
3376	0	32556	33076	
3377	0	31810	32760	
3378	0	31736	32889	
3379	0	31928	32832	
3380	0	31794	32764	
3381	0	32460	32608	
3382	0	32864	32720	
3383	0	32328	32478	
3384	0	31908	32450	
3385	0	32092	32504	
3386	0	34084	32616	
3387	0	35600	32806	
3388	0	34050	32884	
3389	0	33670	33126	
3390	0	32940	33200	
3391	0	32254	33204	
3392	0	32632	32970	
3393	0	32428	32807	
3394	0	32578	32566	
3395	0	33792	32492	
3396	0	32680	32487	
3397	0	33514	32422	
3398	0	33156	32275	
3399	0	32313	32325	
3400	0	32484	32358	
3401	0	32426	32532	
3402	0	32410	32572	
3403	0	31794	32488	
3404	0	31784	32518	
3405	0	32688	32767	
3406	0	33420	32746	
3407	0	33369	32698	
3408	0	31828	32602	
3409	0	33136	32658	
3410	0	34472	32564	
3411	0	34068	32718	
3412	0	33244	32852	
3413	0	32343	32946	
3414	0	31900	32954	
3415	0	32260	33116	
3416	0	32468	32990	
3417	0	32816	32800	
3418	0	32862	32726	
3419	0	32836	32492	
3420	0	33636	32448	
3421	0	33240	32530	
3422	0	33136	32518	
3423	0	33288	32458	
3424	0	32923	32494	
3425	0	33072	32405	
3426	0	33680	32420	
3427	0	33590	32596	
3428	0	33192	32802	
3429	0	33280	33062	
3430	0	32606	32982	
3431	0	32224	32964	
3432	0	32104	32655	
3433	0	31336	32508	
3434	0	31300	32230	
3435	0	31440	32498	
3436	0	33031	32631	
3437	0	31626	32684	
3438	0	31512	32903	
3439	0	32018	33000	
3440	0	32188	32870	
3441	0	32680	32628	
3442	0	33924	32912	
3443	0	34484	33016	
3444	0	34088	32740	
3445	0	33286	32622	
3446	0	33376	32896	
3447	0	33728	33179	
3448	0	33124	33068	
3449	0	32944	32987	
3450	0	33356	32919	
3451	0	33460	32967	
3452	0	33056	32984	
3453	0	32908	33066	
3454	0	32700	33135	
3455	0	32472	32964	
3456	0	32486	33011	
3457	0	32282	33180	
3458	0	32320	33287	
3459	0	32616	32830	
3460	0	32832	32641	
3461	0	33324	32696	
3462	0	32906	32812	
3463	0	33841	32676	
3464	0	34300	32828	
3465	0	33944	32586	
3466	0	32988	32655	
3467	0	31940	32550	
3468	0	31546	32671	
3469	0	32068	32628	
3470	0	31774	32737	
3471	0	32748	32674	
3472	0	33358	32836	
3473	0	32608	32774	
3474	0	32678	32672	
3475	0	31912	32708	
3476	0	31600	32604	
3477	0	31898	32767	
3478	0	32184	32640	
3479	0	31876	32866	
3480	0	31788	32852	
3481	0	33310	32760	
3482	0	34602	32760	
3483	0	34180	32774	
3484	0	34080	32544	
3485	0	33746	32480	
3486	0	33182	32514	
3487	0	32764	32702	
3488	0	32980	32880	
3489	0	33016	32628	
3490	0	32172	32548	
3491	0	31238	32378	
3492	0	31462	32615	
3493	0	32622	32600	
3494	0	32919	32860	
3495	0	33128	32950	
3496	0	33022	32846	
3497	0	33544	33048	
3498	0	33772	32956	
3499	0	32978	33364	
3500	0	31332	33168	
3501	0	30780	33106	
3502	0	32750	32656	
3503	0	33596	32466	
3504	0	33640	32289	
3505	0	33348	32476	
3506	0	33096	32622	
3507	0	32800	32884	
3508	0	32490	32636	
3509	0	32366	32470	
3510	0	32408	32302	
3511	0	32506	32436	
3512	0	33264	32471	
3513	0	32196	32440	
3514	0	33020	32768	
3515	0	34266	32804	
3516	0	34032	32744	
3517	0	34314	32936	
3518	0	33020	33564	
3519	0	32548	33654	
3520	0	32520	33594	
3521	0	32196	33336	
3522	0	32716	32852	
3523	0	35470	32492	
3524	0	33480	32684	
3525	0	31372	32838	
3526	0	30636	32542	
3527	0	29281	32409	
3528	0	29841	32534	
3529	0	31236	32432	
3530	0	31916	32384	
3531	0	32638	32310	
3532	0	33142	32456	
3533	0	33244	32660	
3534	0	33560	32748	
3535	0	33896	32576	
3536	0	33842	32453	
3537	0	34224	32511	
3538	0	33332	32728	
3539	0	33336	32612	
3540	0	33333	32624	
3541	0	32634	32932	
3542	0	32966	33159	
3543	0	32952	33008	
3544	0	32808	32928	
3545	0	33104	33022	
3546	0	32440	33100	
3547	0	32784	33070	
3548	0	32960	32945	
3549	0	32764	32942	
3550	0	32712	32947	
3551	0	32908	32743	
3552	0	32744	32987	
3553	0	32372	33206	
3554	0	32360	33134	
3555	0	31968	32732	
3556	0	33066	32484	
3557	0	33424	32259	
3558	0	32880	32440	
3559	0	32696	32807	
3560	0	32950	32714	
3561	0	33260	32750	
3562	0	33034	32902	
3563	0	32836	32830	
3564	0	32584	32693	
3565	0	32700	32647	
3566	0	31296	32698	
3567	0	32904	32822	
3568	0	34178	32902	
3569	0	33844	32706	
3570	0	33048	32678	
3571	0	32348	32583	
3572	0	32570	32716	
3573	0	32108	32742	
3574	0	32768	32666	
3575	0	32416	32766	
3576	0	32680	32660	
3577	0	32320	32799	
3578	0	32656	33002	
3579	0	32396	32984	
3580	0	32932	32998	
3581	0	32948	32708	
3582	0	33038	32307	
3583	0	33444	32356	
3584	0	33592	32202	
3585	0	32796	32421	
3586	0	33250	32716	
3587	0	32952	32884	
3588	0	33132	32792	
3589	0	32948	32740	
3590	0	32590	32954	
3591	0	32468	32848	
3592	0	32508	32900	
3593	0	32328	32760	
3594	0	31960	32799	
3595	0	32644	32775	
3596	0	32992	32764	
3597	0	33018	32639	
3598	0	32606	32764	
3599	0	32836	32720	
3600	0	33216	32650	
3601	0	32958	32580	
3602	0	33716	32752	
3603	0	33240	32716	
3604	0	32597	32668	
3605	0	33652	32588	
3606	0	32718	32686	
3607	0	32664	32720	
3608	0	32808	32682	
3609	0	32194	33068	
3610	0	32494	33150	
3611	0	31370	33262	
3612	0	31408	33134	
3613	0	33297	33016	
3614	0	33476	32982	
3615	0	32864	32926	
3616	0	33112	32792	
3617	0	32552	32660	
3618	0	33360	32430	
3619	0	33276	32398	
3620	0	32836	32506	
3621	0	32772	32619	
3622	0	33528	32728	
3623	0	33256	32785	
3624	0	32806	33012	
3625	0	32644	32851	
3626	0	32436	33050	
3627	0	33226	32919	
3628	0	33006	32868	
3629	0	33156	32558	
3630	0	32968	32455	
3631	0	32718	32473	
3632	0	32640	32647	
3633	0	32056	32612	
3634	0	31980	32687	
3635	0	32552	32606	
3636	0	32872	32734	
3637	0	32840	32807	
3638	0	32996	32916	
3639	0	33008	32755	
3640	0	33080	32754	
3641	0	33140	32628	
3642	0	33116	32590	
3643	0	33444	32546	
3644	0	32968	32710	
3645	0	32826	32944	
3646	0	32668	32994	
3647	0	32968	33040	
3648	0	32548	32750	
3649	0	31820	32734	
3650	0	32454	32976	
3651	0	32776	33010	
3652	0	32784	33020	
3653	0	32580	32900	
3654	0	32984	32847	
3655	0	33382	33086	
3656	0	33845	33002	
3657	0	33468	32920	
3658	0	32888	32768	
3659	0	32304	32482	
3660	0	31964	32402	
3661	0	31996	32431	
3662	0	32212	32575	
3663	0	32644	32540	
3664	0	32792	32557	
3665	0	32910	32428	
3666	0	33226	32647	
3667	0	32904	32728	
3668	0	32820	32811	
3669	0	33344	32853	
3670	0	32984	33002	
3671	0	32378	33012	
3672	0	32968	32995	
3673	0	32864	32930	
3674	0	32849	32872	
3675	0	32970	32830	
3676	0	32952	33016	
3677	0	32314	32980	
3678	0	32830	33126	
3679	0	33204	33039	
3680	0	33121	32868	
3681	0	33558	32604	
3682	0	33132	32418	
3683	0	33188	32594	
3684	0	32568	32716	
3685	0	32566	32980	
3686	0	32504	32846	
3687	0	32276	32692	
3688	0	32356	32942	
3689	0	32380	32884	
3690	0	32382	32698	
3691	0	32250	32641	
3692	0	32356	32927	
3693	0	32792	32892	
3694	0	33364	32614	
3695	0	33034	32482	
3696	0	32854	32359	
3697	0	32742	32408	
3698	0	33520	32286	
3699	0	33126	32306	
3700	0	33118	32490	
3701	0	34018	32670	
3702	0	33752	32801	
3703	0	32864	32862	
3704	0	32486	32740	
3705	0	32008	32884	
3706	0	31992	32954	
3707	0	32340	33040	
3708	0	32382	33212	
3709	0	33096	33207	
3710	0	33136	32926	
3711	0	32308	32486	
3712	0	32228	32079	
3713	0	33504	32380	
3714	0	33662	32898	
3715	0	32318	33176	
3716	0	33760	32833	
3717	0	32816	32782	
3718	0	32128	32807	
3719	0	32137	33010	
3720	0	32192	33012	
3721	0	32468	32850	
3722	0	32456	32858	
3723	0	33232	32884	
3724	0	33124	32799	
3725	0	33072	32742	
3726	0	32860	32596	
3727	0	32486	32634	
3728	0	33090	32431	
3729	0	33400	32608	
3730	0	33068	32728	
3731	0	32552	32679	
3732	0	32962	32903	
3733	0	32868	32720	
3734	0	32852	32623	
3735	0	33002	32344	
3736	0	33068	32350	
3737	0	32424	32874	
3738	0	33128	33034	
3739	0	33640	32982	
3740	0	32584	32871	
3741	0	32508	32850	
3742	0	33784	32744	
3743	0	32842	32664	
3744	0	32392	32422	
3745	0	31630	32708	
3746	0	31850	33120	
3747	0	32802	33175	
3748	0	32580	32955	
3749	0	33146	32670	
3750	0	32980	32718	
3751	0	32802	32696	
3752	0	32528	32752	
3753	0	32096	32708	
3754	0	32220	32672	
3755	0	32528	32602	
3756	0	33052	32418	
3757	0	33152	32527	
3758	0	33020	32454	
3759	0	32748	32642	
3760	0	33170	32865	
3761	0	33250	32839	
3762	0	33044	32742	
3763	0	33054	32750	
3764	0	33008	32842	
3765	0	32876	32864	
3766	0	32960	32750	
3767	0	32900	32694	
3768	0	32774	32422	
3769	0	32816	32263	
3770	0	32938	32130	
3771	0	32854	32529	
3772	0	32852	32716	
3773	0	32894	33066	
3774	0	32036	33214	
3775	0	31716	33208	
3776	0	33672	33124	
3777	0	33088	33230	
3778	0	33344	33158	
3779	0	32820	33256	
3780	0	32960	33127	
3781	0	33068	33079	
3782	0	33274	33020	
3783	0	33242	33008	
3784	0	32816	33066	
3785	0	32432	32982	
3786	0	31852	32958	
3787	0	32016	32680	
3788	0	32200	32706	
3789	0	32588	32476	
3790	0	32628	32374	
3791	0	32726	32306	
3792	0	32852	32508	
3793	0	32896	32618	
3794	0	32892	32681	
3795	0	32952	32692	
3796	0	33064	32692	
3797	0	33205	32568	
3798	0	32764	32640	
3799	0	32644	32416	
3800	0	33348	32565	
3801	0	32786	32668	
3802	0	32544	32762	
3803	0	32996	32834	
3804	0	33508	32860	
3805	0	33160	32914	
3806	0	32684	32996	
3807	0	32896	33082	
3808	0	33076	32924	
3809	0	32132	32444	
3810	0	32604	32244	
3811	0	33328	32508	
3812	0	33508	32686	
3813	0	33224	32800	
3814	0	32116	32759	
3815	0	32420	32758	
3816	0	32502	32828	
3817	0	32628	32884	
3818	0	32588	33044	
3819	0	32456	32988	
3820	0	32746	32834	
3821	0	32296	32927	
3822	0	32888	32970	
3823	0	32796	33006	
3824	0	32972	32757	
3825	0	33276	32340	
3826	0	32990	32359	
3827	0	33208	32316	
3828	0	32856	32490	
3829	0	33080	32682	
3830	0	32714	32754	
3831	0	32596	32692	
3832	0	32392	32804	
3833	0	32396	32788	
3834	0	32255	32544	
3835	0	32648	32700	
3836	0	32836	32759	
3837	0	32972	32976	
3838	0	33216	32774	
3839	0	33152	32944	
3840	0	33104	32887	
3841	0	33324	32887	
3842	0	32228	32836	
3843	0	32292	32918	
3844	0	32534	33024	
3845	0	33092	32864	
3846	0	33340	32878	
3847	0	33258	32688	
3848	0	33116	32583	
3849	0	32824	32647	
3850	0	32532	32757	
3851	0	32604	32684	
3852	0	32784	32770	
3853	0	32866	32751	
3854	0	32606	32846	
3855	0	32484	32964	
3856	0	32620	32862	
3857	0	33940	32976	
3858	0	33482	32882	
3859	0	32911	32838	
3860	0	33280	32542	
3861	0	32228	32366	
3862	0	31920	32732	
3863	0	32206	32582	
3864	0	32404	32664	
3865	0	32308	32920	
3866	0	32390	32623	
3867	0	32674	32692	
3868	0	32866	32510	
3869	0	33000	32666	
3870	0	33096	32722	
3871	0	32924	32639	
3872	0	32902	32882	
3873	0	32814	32884	
3874	0	32858	32775	
3875	0	33130	33010	
3876	0	33032	33112	
3877	0	32640	33031	
3878	0	32620	32986	
3879	0	32816	32994	
3880	0	33280	32804	
3881	0	32641	32880	
3882	0	32844	32560	
3883	0	32925	32770	
3884	0	33360	32942	
3885	0	33396	32728	
3886	0	32922	32766	
3887	0	32504	32668	
3888	0	32238	32698	
3889	0	32080	32530	
3890	0	32396	32730	
3891	0	32648	32887	
3892	0	32778	32844	
3893	0	33060	32738	
3894	0	32908	32327	
3895	0	32638	32634	
3896	0	32114	32700	
3897	0	33016	32892	
3898	0	33584	32844	
3899	0	33102	33028	
3900	0	33108	32938	
3901	0	32976	32762	
3902	0	32761	32800	
3903	0	32670	32658	
3904	0	32980	32678	
3905	0	32932	32516	
3906	0	33092	32484	
3907	0	32562	32352	
3908	0	32540	32284	
3909	0	33504	32508	
3910	0	33220	32834	
3911	0	32804	32894	
3912	0	32920	32886	
3913	0	32528	33060	
3914	0	32344	33137	
3915	0	32440	33168	
3916	0	32664	33030	
3917	0	32684	33012	
3918	0	31944	32818	
3919	0	32656	32482	
3920	0	33176	32564	
3921	0	32696	32732	
3922	0	32876	32734	
3923	0	32686	32823	
3924	0	33116	32849	
3925	0	33284	32628	
3926	0	32612	32768	
3927	0	32786	32772	
3928	0	33120	32646	
3929	0	33300	32455	
3930	0	33100	32636	
3931	0	33150	32678	
3932	0	32668	32850	
3933	0	32214	33154	
3934	0	32376	32985	
3935	0	32556	32610	
3936	0	32478	32439	
3937	0	32632	32684	
3938	0	32400	32828	
3939	0	32884	32608	
3940	0	32974	32665	
3941	0	33128	32663	
3942	0	32904	32860	
3943	0	32860	32943	
3944	0	33073	32915	
3945	0	33064	32911	
3946	0	32708	32862	
3947	0	33028	32714	
3948	0	32980	32922	
3949	0	32680	32647	
3950	0	32372	32535	
3951	0	32424	32679	
3952	0	32606	32544	
3953	0	32672	32559	
3954	0	32916	32662	
3955	0	32900	32788	
3956	0	32936	32830	
3957	0	33012	32772	
3958	0	33194	32926	
3959	0	33164	33087	
3960	0	32804	33152	
3961	0	32722	33192	
3962	0	32752	32830	
3963	0	32732	32784	
3964	0	32786	32519	
3965	0	33070	32771	
3966	0	33128	32618	
3967	0	32976	32696	
3968	0	32706	32670	
3969	0	32734	32798	
3970	0	32336	32759	
3971	0	32348	32858	
3972	0	32751	32690	
3973	0	32942	32719	
3974	0	32660	32708	
3975	0	32841	32440	
3976	0	32612	32664	
3977	0	32726	32839	
3978	0	32642	32992	
3979	0	32540	32852	
3980	0	33048	32792	
3981	0	32984	32806	
3982	0	32840	32679	
3983	0	33324	32794	
3984	0	32858	32724	
3985	0	32816	32750	
3986	0	32888	32938	
3987	0	32800	32940	
3988	0	32692	32710	
3989	0	32864	32775	
3990	0	32644	32642	
3991	0	32716	32476	
3992	0	32538	32612	
3993	0	32270	32696	
3994	0	32636	32672	
3995	0	33232	32820	
3996	0	33312	32858	
3997	0	32858	32847	
3998	0	32972	32746	
3999	0	32916	32792	
4000	0	32900	32927	
4001	0	32628	32790	
4002	0	32748	32932	
4003	0	32868	32660	
4004	0	32740	32622	
4005	0	33082	32471	
4006	0	32880	32576	
4007	0	32676	32840	
4008	0	32566	32736	
4009	0	32644	32570	
4010	0	32590	32345	
4011	0	32752	32540	
4012	0	32648	32814	
4013	0	32944	33073	
4014	0	32872	33026	
4015	0	32600	32898	
4016	0	33246	32840	
4017	0	33560	32948	
4018	0	33020	32846	
4019	0	32180	32710	
4020	0	32376	32855	
4021	0	32527	32847	
4022	0	32916	32966	
4023	0	32880	32956	
4024	0	32716	32902	
4025	0	32800	32935	
4026	0	32928	32902	
4027	0	32964	32864	
4028	0	32836	32878	
4029	0	32852	32881	
4030	0	33088	32718	
4031	0	32894	32596	
4032	0	33040	32622	
4033	0	33024	32496	
4034	0	32752	32598	
4035	0	32252	32570	
4036	0	32578	32812	
4037	0	32984	32688	
4038	0	32817	32702	
4039	0	32884	32662	
4040	0	32564	32706	
4041	0	32410	32807	
4042	0	32640	32825	
4043	0	32704	32744	
4044	0	32920	32534	
4045	0	32924	32548	
4046	0	32838	32572	
4047	0	32908	32330	
4048	0	32964	32615	
4049	0	32924	32670	
4050	0	32832	32742	
4051	0	32936	33044	
4052	0	32868	32918	
4053	0	32816	32775	
4054	0	32864	32927	
4055	0	32840	32903	
4056	0	32886	32935	
4057	0	32928	33028	
4058	0	32810	32896	
4059	0	32804	32912	
4060	0	32784	32775	
4061	0	32860	32720	
4062	0	32776	32775	
4063	0	32976	32775	
4064	0	32700	32980	
4065	0	32684	32999	
4066	0	32654	32982	
4067	0	32830	32836	
4068	0	32710	32588	
4069	0	32750	32518	
4070	0	32784	32832	
4071	0	32868	32761	
4072	0	32808	33068	
4073	0	32876	33073	
4074	0	32780	32470	
4075	0	32849	32299	
4076	0	32968	32372	
4077	0	32820	32662	
4078	0	32564	32732	
4079	0	32448	32684	
4080	0	32494	32738	
4081	0	32620	32826	
4082	0	32727	32832	
4083	0	32758	32618	
4084	0	33060	32646	
4085	0	33040	32647	
4086	0	33010	32551	
4087	0	33220	32624	
4088	0	33287	33063	
4089	0	32904	33360	
4090	0	33108	33375	
4091	0	33062	32900	
4092	0	32888	32446	
4093	0	32960	32680	
4094	0	32828	32948	
4095	0	32972	32786	
4096	0	32996	32807	
4097	0	32814	32880	
4098	0	32818	32928	
4099	0	33036	32836	
4100	0	32652	32722	
4101	0	32684	32712	
4102	0	32698	32711	
4103	0	32608	32647	
4104	0	32324	32546	
4105	0	32532	32532	
4106	0	32712	32545	
4107	0	32580	32628	
4108	0	32744	32898	
4109	0	32970	32732	
4110	0	32824	32746	
4111	0	32950	32817	
4112	0	32880	32590	
4113	0	32880	32426	
4114	0	32772	32718	
4115	0	32972	32804	
4116	0	32956	32614	
4117	0	32904	32766	
4118	0	32792	32848	
4119	0	32838	32884	
4120	0	32940	32950	
4121	0	32852	32718	
4122	0	33196	32686	
4123	0	33012	32695	
4124	0	33240	32788	
4125	0	32810	32860	
4126	0	32896	32844	
4127	0	32696	32866	
4128	0	32696	32608	
4129	0	32380	32594	
4130	0	32482	32339	
4131	0	32330	32421	
4132	0	32319	32538	
4133	0	32634	32775	
4134	0	32772	32794	
4135	0	32904	32752	
4136	0	32884	32752	
4137	0	32862	32734	
4138	0	32840	32796	
4139	0	32916	32718	
4140	0	32856	32774	
4141	0	32988	32634	
4142	0	32922	32672	
4143	0	32924	32752	
4144	0	32900	32920	
4145	0	32828	32844	
4146	0	32810	32710	
4147	0	32816	32863	
4148	0	32708	32972	
4149	0	32820	32798	
4150	0	32817	32485	
4151	0	32692	32367	
4152	0	32748	32794	
4153	0	32748	32812	
4154	0	32736	32775	
4155	0	32808	32956	
4156	0	32730	32876	
4157	0	32728	32903	
4158	0	32942	32928	
4159	0	32976	32662	
4160	0	32682	32478	
4161	0	32804	32626	
4162	0	32772	32498	
4163	0	32736	32551	
4164	0	32564	32742	
4165	0	32612	32796	
4166	0	32684	32642	
4167	0	32584	32498	
4168	0	32814	32510	
4169	0	32764	32456	
4170	0	32608	32560	
4171	0	32718	32492	
4172	0	32768	32588	
4173	0	33214	33172	
4174	0	32892	32943	
4175	0	32960	32815	
4176	0	32976	32473	
4177	0	32660	32389	
4178	0	32652	32882	
4179	0	32872	33058	
4180	0	33002	33126	
4181	0	32792	33350	
4182	0	33156	33440	
4183	0	33012	33367	
4184	0	33080	33262	
4185	0	32912	32998	
4186	0	32938	32958	
4187	0	32864	33108	
4188	0	32816	32943	
4189	0	32874	32870	
4190	0	32842	32836	
4191	0	32738	32687	
4192	0	32940	32550	
4193	0	32940	32708	
4194	0	32952	32918	
4195	0	32892	32796	
4196	0	32930	32702	
4197	0	32834	32690	
4198	0	32738	32663	
4199	0	32736	32630	
4200	0	32730	32478	
4201	0	32688	32670	
4202	0	32820	32518	
4203	0	32852	32640	
4204	0	32828	32716	
4205	0	32868	32632	
4206	0	32954	32708	
4207	0	32996	32775	
4208	0	32966	32734	
4209	0	32688	32890	
4210	0	32852	32836	
4211	0	32850	32788	
4212	0	32807	32948	
4213	0	32802	32918	
4214	0	32676	32967	
4215	0	32790	32956	
4216	0	32792	32848	
4217	0	32778	32832	
4218	0	32844	32892	
4219	0	32786	33082	
4220	0	32828	33082	
4221	0	32800	32552	
4222	0	32616	32242	
4223	0	32724	32281	
4224	0	32688	32660	
4225	0	32688	32932	
4226	0	32493	32764	
4227	0	32626	32546	
4228	0	32658	32336	
4229	0	32876	32078	
4230	0	33340	32420	
4231	0	33372	32644	
4232	0	33084	32838	
4233	0	32922	32942	
4234	0	32672	32820	
4235	0	32684	32794	
4236	0	32700	32774	
4237	0	32650	32816	
4238	0	32842	32608	
4239	0	32858	32830	
4240	0	33016	33056	
4241	0	32780	32874	
4242	0	33072	32943	
4243	0	32572	32978	
4244	0	32478	32816	
4245	0	32924	33022	
4246	0	32684	32967	
4247	0	32226	32730	
4248	0	32676	32606	
4249	0	32616	32647	
4250	0	32552	32846	
4251	0	32630	32676	
4252	0	32852	32686	
4253	0	32972	32775	
4254	0	32960	32749	
4255	0	33008	32766	
4256	0	33050	32775	
4257	0	33024	32615	
4258	0	32952	32754	
4259	0	32932	32607	
4260	0	32952	32710	
4261	0	32958	32814	
4262	0	32830	32519	
4263	0	32800	32728	
4264	0	32834	32848	
4265	0	32906	32583	
4266	0	32928	32742	
4267	0	32840	32775	
4268	0	32756	32775	
4269	0	32866	32708	
4270	0	32842	32705	
4271	0	32826	32743	
4272	0	32838	32678	
4273	0	32908	32647	
4274	0	32788	32647	
4275	0	32792	32710	
4276	0	32592	33040	
4277	0	32574	32930	
4278	0	32776	32890	
4279	0	32934	32974	
4280	0	32832	33020	
4281	0	32900	33084	
4282	0	32872	32903	
4283	0	32990	32955	
4284	0	32880	32860	
4285	0	32746	32886	
4286	0	32680	32622	
4287	0	32768	32438	
4288	0	32812	32704	
4289	0	32820	32750	
4290	0	32746	32562	
4291	0	32780	32415	
4292	0	32743	32330	
4293	0	32680	32574	
4294	0	32800	32782	
4295	0	32821	32650	
4296	0	32724	32924	
4297	0	32630	33066	
4298	0	32708	32886	
4299	0	32752	32697	
4300	0	32756	32688	
4301	0	32688	33110	
4302	0	32850	33062	
4303	0	32872	32775	
4304	0	33013	32519	
4305	0	33096	32564	
4306	0	33034	32694	
4307	0	32836	32901	
4308	0	32934	32868	
4309	0	32888	32908	
4310	0	32880	32911	
4311	0	32884	32888	
4312	0	32760	32788	
4313	0	32714	32726	
4314	0	32768	32775	
4315	0	32684	32775	
4316	0	32622	32736	
4317	0	32712	32736	
4318	0	32768	32866	
4319	0	32808	32788	
4320	0	32769	32620	
4321	0	32876	32662	
4322	0	32948	32692	
4323	0	33168	32672	
4324	0	32708	32450	
4325	0	32912	32564	
4326	0	32812	32708	
4327	0	32670	32760	
4328	0	32428	32814	
4329	0	32412	32450	
4330	0	32442	32560	
4331	0	32452	32694	
4332	0	32724	32939	
4333	0	32905	32726	
4334	0	32760	32820	
4335	0	32572	32759	
4336	0	32620	32842	
4337	0	32660	33031	
4338	0	32776	32807	
4339	0	32860	32935	
4340	0	32956	32888	
4341	0	32988	32866	
4342	0	32892	32801	
4343	0	32460	32834	
4344	0	33320	32775	
4345	0	33305	32796	
4346	0	32932	32759	
4347	0	32876	32774	
4348	0	32894	32742	
4349	0	32764	32658	
4350	0	32940	32740	
4351	0	32716	32836	
4352	0	32708	32902	
4353	0	32660	32573	
4354	0	32674	32916	
4355	0	32536	32944	
4356	0	32536	32924	
4357	0	32560	32794	
4358	0	32556	32860	
4359	0	32648	32951	
4360	0	32808	33110	
4361	0	32866	32842	
4362	0	32902	32698	
4363	0	32830	32618	
4364	0	32920	32720	
4365	0	32816	32802	
4366	0	32888	32740	
4367	0	32870	32812	
4368	0	32888	32684	
4369	0	32900	32564	
4370	0	32968	32711	
4371	0	32824	32868	
4372	0	32860	32660	
4373	0	32808	32686	
4374	0	32880	32646	
4375	0	32938	32794	
4376	0	32862	33038	
4377	0	32768	33026	
4378	0	32772	32932	
4379	0	32840	32896	
4380	0	32964	32802	
4381	0	32802	32847	
4382	0	32764	32752	
4383	0	32704	32808	
4384	0	32762	32758	
4385	0	32732	32668	
4386	0	32788	32795	
4387	0	32758	32828	
4388	0	32748	32710	
4389	0	32852	32804	
4390	0	32768	32592	
4391	0	32804	32687	
4392	0	32856	32738	
4393	0	32760	32874	
4394	0	32894	32950	
4395	0	32856	32647	
4396	0	32854	32852	
4397	0	32820	32818	
4398	0	32760	32950	
4399	0	32764	33000	
4400	0	32936	32772	
4401	0	32932	32711	
4402	0	32830	32710	
4403	0	32818	32876	
4404	0	32846	32642	
4405	0	32736	32838	
4406	0	32656	32807	
4407	0	32782	32743	
4408	0	32832	32676	
4409	0	32884	32478	
4410	0	32756	32558	
4411	0	32830	32740	
4412	0	32856	32738	
4413	0	32880	32676	
4414	0	32858	32903	
4415	0	32828	32839	
4416	0	32916	32750	
4417	0	33064	32736	
4418	0	32850	32977	
4419	0	32740	32968	
4420	0	32940	32826	
4421	0	32772	32964	
4422	0	32848	32962	
4423	0	32745	32886	
4424	0	32774	32629	
4425	0	32708	32420	
4426	0	32590	32618	
4427	0	32692	32775	
4428	0	32806	32960	
4429	0	32744	32806	
4430	0	32768	32689	
4431	0	32624	32686	
4432	0	32816	32647	
4433	0	32808	32391	
4434	0	32906	32576	
4435	0	32866	32812	
4436	0	32824	32890	
4437	0	32802	32804	
4438	0	32802	32788	
4439	0	32770	32934	
4440	0	32702	32871	
4441	0	33000	32926	
4442	0	32976	33031	
4443	0	32928	32975	
4444	0	32776	32967	
4445	0	32834	32940	
4446	0	32720	32726	
4447	0	32756	32540	
4448	0	32632	32598	
4449	0	32660	32736	
4450	0	32620	32794	
4451	0	32697	32680	
4452	0	32712	32278	
4453	0	32730	32255	
4454	0	32804	32542	
4455	0	32906	32660	
4456	0	32968	32862	
4457	0	32788	33044	
4458	0	32844	32838	
4459	0	32836	32640	
4460	0	32900	32815	
4461	0	32924	32863	
4462	0	32928	32892	
4463	0	32896	32647	
4464	0	32852	32704	
4465	0	32770	32884	
4466	0	32837	32854	
4467	0	32832	32806	
4468	0	32820	32694	
4469	0	32752	32556	
4470	0	32780	32670	
4471	0	32724	32696	
4472	0	32788	32834	
4473	0	32774	32644	
4474	0	32904	32604	
4475	0	32792	32660	
4476	0	32758	32804	
4477	0	32780	32796	
4478	0	32706	32847	
4479	0	32784	32794	
4480	0	32784	32712	
4481	0	32780	32726	
4482	0	32856	32792	
4483	0	33020	32976	
4484	0	32902	33004	
4485	0	32896	33005	
4486	0	32924	32814	
4487	0	32804	32666	
4488	0	32744	32482	
4489	0	32718	32682	
4490	0	32824	32840	
4491	0	32792	32872	
4492	0	32768	33016	
4493	0	32756	32879	
4494	0	32876	32687	
4495	0	32824	32620	
4496	0	32774	32630	
4497	0	32780	32673	
4498	0	32764	32724	
4499	0	32798	32814	
4500	0	32960	32950	
4501	0	33024	32943	
4502	0	32780	32798	
4503	0	32900	32479	
4504	0	32780	32486	
4505	0	32712	32730	
4506	0	32798	32654	
4507	0	32824	32590	
4508	0	32848	32664	
4509	0	32864	32519	
4510	0	32664	32682	
4511	0	32812	32612	
4512	0	32756	32770	
4513	0	32764	32767	
4514	0	32788	32791	
4515	0	32796	32896	
4516	0	32788	32930	
4517	0	32828	32846	
4518	0	32896	32832	
4519	0	32866	32767	
4520	0	32908	32900	
4521	0	32860	32770	
4522	0	32864	32679	
4523	0	32880	32660	
4524	0	32798	32742	
4525	0	32852	32903	
4526	0	32848	32806	
4527	0	32838	32837	
4528	0	32806	32790	
4529	0	32932	32866	
4530	0	33048	32743	
4531	0	33092	32758	
4532	0	32814	32847	
4533	0	32798	32734	
4534	0	32628	32719	
4535	0	32556	32716	
4536	0	32632	32450	
4537	0	32604	32608	
4538	0	32624	32892	
4539	0	32696	32884	
4540	0	32698	32858	
4541	0	32788	32775	
4542	0	32872	32806	
4543	0	32820	32714	
4544	0	32930	32840	
4545	0	32908	32640	
4546	0	32836	32738	
4547	0	32876	32728	
4548	0	32897	32802	
4549	0	32932	32834	
4550	0	32844	32836	
4551	0	32824	32800	
4552	0	32868	32732	
4553	0	32862	32727	
4554	0	32860	32759	
4555	0	32786	32632	
4556	0	32772	32673	
4557	0	32900	32780	
4558	0	32781	32628	
4559	0	32868	32775	
4560	0	32840	32791	
4561	0	32676	32846	
4562	0	32812	32652	
4563	0	32840	32760	
4564	0	32894	32812	
4565	0	32846	32862	
4566	0	32894	32793	
4567	0	32784	32616	
4568	0	32720	32746	
4569	0	32704	32805	
4570	0	32610	32752	
4571	0	32696	32678	
4572	0	32640	32524	
4573	0	32732	32742	
4574	0	32780	32798	
4575	0	32796	32902	
4576	0	32730	32764	
4577	0	32808	32810	
4578	0	33000	32924	
4579	0	32860	32886	
4580	0	32782	32753	
4581	0	32886	32743	
4582	0	32952	32655	
4583	0	33112	32846	
4584	0	33024	32902	
4585	0	32926	32874	
4586	0	32768	32694	
4587	0	32708	32512	
4588	0	32728	32524	
4589	0	32616	32674	
4590	0	32670	32775	
4591	0	32632	32697	
4592	0	32616	32825	
4593	0	32700	32790	
4594	0	32708	32728	
4595	0	32812	32775	
4596	0	32900	32800	
4597	0	32856	32832	
4598	0	32920	32876	
4599	0	32930	32838	
4600	0	32948	32762	
4601	0	32952	32793	
4602	0	32856	32911	
4603	0	32888	32794	
4604	0	32778	32780	
4605	0	32898	32789	
4606	0	32856	32718	
4607	0	32821	32682	
4608	0	32820	32684	
4609	0	32802	32838	
4610	0	32786	32712	
4611	0	32824	32510	
4612	0	32840	32534	
4613	0	32756	32726	
4614	0	32808	32958	
4615	0	32856	32935	
4616	0	32858	33022	
4617	0	32748	32921	
4618	0	32756	32814	
4619	0	32808	32916	
4620	0	32850	32806	
4621	0	32800	32706	
4622	0	32754	32743	
4623	0	32792	32652	
4624	0	32816	32647	
4625	0	32840	32711	
4626	0	32856	32636	
4627	0	32768	32679	
4628	0	32824	32692	
4629	0	32780	32690	
4630	0	32818	32719	
4631	0	32848	32872	
4632	0	32878	32828	
4633	0	32848	32894	
4634	0	32824	32844	
4635	0	32820	32964	
4636	0	32848	32930	
4637	0	32848	32864	
4638	0	32846	32746	
4639	0	32816	32775	
4640	0	32780	32702	
4641	0	32836	32916	
4642	0	32778	32816	
4643	0	32848	32804	
4644	0	32880	32616	
4645	0	32792	32532	
4646	0	32750	32514	
4647	0	32800	32558	
4648	0	32820	32706	
4649	0	32756	32711	
4650	0	32758	32638	
4651	0	32802	32766	
4652	0	32688	32794	
4653	0	32830	32714	
4654	0	32874	32752	
4655	0	32890	32926	
4656	0	32796	32856	
4657	0	32828	32896	
4658	0	32744	32862	
4659	0	32996	32712	
4660	0	32804	32700	
4661	0	32580	32674	
4662	0	32552	32718	
4663	0	32712	32772	
4664	0	32764	32764	
4665	0	32772	32980	
4666	0	32806	33052	
4667	0	32736	32862	
4668	0	32884	32513	
4669	0	32824	32384	
4670	0	32688	32767	
4671	0	33016	32772	
4672	0	33402	32889	
4673	0	33208	32748	
4674	0	33004	32758	
4675	0	32593	32896	
4676	0	32672	32807	
4677	0	32646	32900	
4678	0	32554	32831	
4679	0	32500	32774	
4680	0	32636	32806	
4681	0	32684	32774	
4682	0	32718	32814	
4683	0	32748	32748	
4684	0	32946	32654	
4685	0	32900	32654	
4686	0	33012	32728	
4687	0	32960	32666	
4688	0	32934	32720	
4689	0	32922	32567	
4690	0	32906	32759	
4691	0	32920	32684	
4692	0	32871	32655	
4693	0	32836	32680	
4694	0	32826	32852	
4695	0	32760	32872	
4696	0	32810	32756	
4697	0	32756	32704	
4698	0	32788	32810	
4699	0	32752	32880	
4700	0	32836	32826	
4701	0	32802	32860	
4702	0	32886	32848	
4703	0	32792	32791	
4704	0	32844	32936	
4705	0	32830	32951	
4706	0	32824	32770	
4707	0	32798	32726	
4708	0	32817	32775	
4709	0	32778	32794	
4710	0	32820	32791	
4711	0	32796	32682	
4712	0	32762	32734	
4713	0	32800	32774	
4714	0	32780	32726	
4715	0	32869	32810	
4716	0	32884	32866	
4717	0	32854	32670	
4718	0	32762	32822	
4719	0	32768	32838	
4720	0	32868	32806	
4721	0	32798	32734	
4722	0	32784	32839	
4723	0	32748	33110	
4724	0	32836	32958	
4725	0	32762	32644	
4726	0	32848	32255	
4727	0	32776	32366	
4728	0	32824	32658	
4729	0	32800	32662	
4730	0	32788	32602	
4731	0	32698	32775	
4732	0	32826	32872	
4733	0	32864	32688	
4734	0	32940	32687	
4735	0	32784	32823	
4736	0	32880	32689	
4737	0	32836	32796	
4738	0	32800	32760	
4739	0	32721	32868	
4740	0	32678	32791	
4741	0	32652	32824	
4742	0	32894	32868	
4743	0	33296	32916	
4744	0	32966	32816	
4745	0	32948	32775	
4746	0	32960	32976	
4747	0	32782	32914	
4748	0	32652	32759	
4749	0	32644	32598	
4750	0	32656	32396	
4751	0	32716	32714	
4752	0	32768	32686	
4753	0	32786	32702	
4754	0	32800	32686	
4755	0	32868	32767	
4756	0	32748	32918	
4757	0	32840	32830	
4758	0	32836	32888	
4759	0	32732	32934	
4760	0	32788	32826	
4761	0	32860	32825	
4762	0	32872	32814	
4763	0	32898	32744	
4764	0	32890	32764	
4765	0	32764	32704	
4766	0	32768	32742	
4767	0	32788	32772	
4768	0	32800	32610	
4769	0	32824	32748	
4770	0	32848	32700	
4771	0	32840	32709	
4772	0	32808	32679	
4773	0	32778	32826	
4774	0	32824	32780	
4775	0	32852	32850	
4776	0	32812	32727	
4777	0	32862	32842	
4778	0	32790	32812	
4779	0	32844	32756	
4780	0	32760	32774	
4781	0	32828	32804	
4782	0	32792	32874	
4783	0	32820	32742	
4784	0	32834	32740	
4785	0	32900	32830	
4786	0	32792	32772	
4787	0	32862	32800	
4788	0	32836	32775	
4789	0	32776	32730	
4790	0	32784	32692	
4791	0	32832	32790	
4792	0	32746	32678	
4793	0	32810	32847	
4794	0	32730	32846	
4795	0	32824	32950	
4796	0	32796	32799	
4797	0	32882	32854	
4798	0	32848	32874	
4799	0	32774	32811	
4800	0	32828	32664	
4801	0	32776	32764	
4802	0	32786	32739	
4803	0	32806	32830	
4804	0	32838	32676	
4805	0	32820	32775	
4806	0	32816	32800	
4807	0	32768	32787	
4808	0	32808	32751	
4809	0	32850	32634	
4810	0	32888	32703	
4811	0	32798	32811	
4812	0	32840	32804	
4813	0	32856	32766	
4814	0	32792	32752	
4815	0	32836	32878	
4816	0	32864	32810	
4817	0	32752	32638	
4818	0	32796	32866	
4819	0	32808	32834	
4820	0	32798	32870	
4821	0	32802	32583	
4822	0	32772	32630	
4823	0	32800	32764	
4824	0	32844	32762	
4825	0	32794	32626	
4826	0	32856	32615	
4827	0	32848	32700	
4828	0	32704	32569	
4829	0	32740	32673	
4830	0	32692	32575	
4831	0	32688	32694	
4832	0	32644	32784	
4833	0	32510	32856	
4834	0	32534	32804	
4835	0	32614	32802	
4836	0	32526	32790	
4837	0	32860	32727	
4838	0	32796	32878	
4839	0	32710	32815	
4840	0	32964	32696	
4841	0	33170	32775	
4842	0	33252	32806	
4843	0	32948	32892	
4844	0	32832	32944	
4845	0	32784	32932	
4846	0	32790	32965	
4847	0	32888	32928	
4848	0	32820	33026	
4849	0	32924	33039	
4850	0	33092	32958	
4851	0	32986	32946	
4852	0	32976	32798	
4853	0	32860	32802	
4854	0	32844	32866	
4855	0	32864	32960	
4856	0	32714	33127	
4857	0	32948	32999	
4858	0	33012	32884	
4859	0	32886	32732	
4860	0	32816	32775	
4861	0	32886	32775	
4862	0	32772	32716	
4863	0	32820	32564	
4864	0	32762	32647	
4865	0	32716	32576	
4866	0	32734	32632	
4867	0	32730	32478	
4868	0	32704	32452	
4869	0	32655	32540	
4870	0	32732	32519	
4871	0	32844	32567	
4872	0	32764	32550	
4873	0	32852	32724	
4874	0	32804	32702	
4875	0	32736	32734	
4876	0	32820	32690	
4877	0	32758	32696	
4878	0	32764	32820	
4879	0	32740	32788	
4880	0	32776	32798	
4881	0	32788	32812	
4882	0	32844	32860	
4883	0	32882	32840	
4884	0	32836	32804	
4885	0	32912	32788	
4886	0	32788	32752	
4887	0	32780	32720	
4888	0	32810	32680	
4889	0	32764	32719	
4890	0	32802	32672	
4891	0	32844	32732	
4892	0	32834	32775	
4893	0	32800	32850	
4894	0	32866	32688	
4895	0	32844	32752	
4896	0	32830	32800	
4897	0	32812	32804	
4898	0	32936	32852	
4899	0	33060	32772	
4900	0	32972	32839	
4901	0	32816	32816	
4902	0	32530	32910	
4903	0	32656	32944	
4904	0	32748	32842	
4905	0	32608	32688	
4906	0	32680	32647	
4907	0	32564	32646	
4908	0	32664	32720	
4909	0	32708	32602	
4910	0	32874	32672	
4911	0	32808	32732	
4912	0	32756	32848	
4913	0	32800	32888	
4914	0	32808	32743	
4915	0	32776	32800	
4916	0	33026	32756	
4917	0	33080	32700	
4918	0	33032	32740	
4919	0	33024	32892	
4920	0	32988	32844	
4921	0	32802	32734	
4922	0	32854	32760	
4923	0	32748	32722	
4924	0	32666	32743	
4925	0	32746	32770	
4926	0	32672	32705	
4927	0	32804	32798	
4928	0	32764	32671	
4929	0	32758	32729	
4930	0	32592	32644	
4931	0	32820	32718	
4932	0	32962	32868	
4933	0	32944	32866	
4934	0	32866	32916	
4935	0	32848	32695	
4936	0	32852	32876	
4937	0	32792	32711	
4938	0	32752	32762	
4939	0	32628	32564	
4940	0	32792	32698	
4941	0	32724	32830	
4942	0	32790	32788	
4943	0	32708	32766	
4944	0	32798	32928	
4945	0	32970	32668	
4946	0	32926	32720	
4947	0	32774	32578	
4948	0	32792	32736	
4949	0	32884	32816	
4950	0	32894	32775	
4951	0	32900	32812	
4952	0	32798	32708	
4953	0	32796	32758	
4954	0	32892	32871	
4955	0	32792	32874	
4956	0	32772	32770	
4957	0	32830	32764	
4958	0	32814	32932	
4959	0	32806	32794	
4960	0	32792	32708	
4961	0	32820	32740	
4962	0	32820	32802	
4963	0	32836	32735	
4964	0	32776	32752	
4965	0	32824	32775	
4966	0	32800	32648	
4967	0	32748	32670	
4968	0	32698	32769	
4969	0	32794	32784	
4970	0	32924	32717	
4971	0	33060	32644	
4972	0	32900	32846	
4973	0	32860	32844	
4974	0	32940	32800	
4975	0	32798	32818	
4976	0	32810	32754	
4977	0	32668	32812	
4978	0	32628	32791	
4979	0	32644	32782	
4980	0	32750	32824	
4981	0	32786	32734	
4982	0	32876	32647	
4983	0	32848	32836	
4984	0	32844	32790	
4985	0	33112	32747	
4986	0	32940	32668	
4987	0	32628	32711	
4988	0	32656	32807	
4989	0	32674	32750	
4990	0	32694	32775	
4991	0	32752	32784	
4992	0	32808	32690	
4993	0	32832	32710	
4994	0	32720	32772	
4995	0	32804	32840	
4996	0	32904	32762	
4997	0	32974	32744	
4998	0	32934	32748	
4999	0	32878	32724	
5000	0	32888	32764	
5001	0	32752	32740	
5002	0	32646	32832	
5003	0	32856	32692	
5004	0	33016	32758	
5005	0	33080	32754	
5006	0	33044	32732	
5007	0	32876	32926	
5008	0	32844	32824	
5009	0	32732	32733	
5010	0	32498	32698	
5011	0	32416	32660	
5012	0	32644	32766	
5013	0	32680	32791	
5014	0	32644	32743	
5015	0	32724	32728	
5016	0	32700	32810	
5017	0	32764	32658	
5018	0	32812	32828	
5019	0	32924	32812	
5020	0	32950	32732	
5021	0	32928	32657	
5022	0	32984	32756	
5023	0	32904	32746	
5024	0	32886	32852	
5025	0	32820	32634	
5026	0	32900	32685	
5027	0	32812	32815	
5028	0	32850	32736	
5029	0	32804	32772	
5030	0	32728	32657	
5031	0	32822	32668	
5032	0	33080	32910	
5033	0	32860	32768	
5034	0	32868	32846	
5035	0	32752	32842	
5036	0	32752	32842	
5037	0	32752	32752	
5038	0	32812	32853	
5039	0	32774	32746	
5040	0	32764	32896	
5041	0	32772	32775	
5042	0	32832	32788	
5043	0	32764	32686	
5044	0	32804	32800	
5045	0	32860	32730	
5046	0	32752	32752	
5047	0	32800	32716	
5048	0	32826	32822	
5049	0	32864	32740	
5050	0	32878	32748	
5051	0	32896	32654	
5052	0	32906	32676	
5053	0	32778	32860	
5054	0	32764	32772	
5055	0	32754	32852	
5056	0	32844	32764	
5057	0	32944	32858	
5058	0	32740	32804	
5059	0	32700	32856	
5060	0	32672	32790	
5061	0	32780	32751	
5062	0	32688	32821	
5063	0	32916	32758	
5064	0	32808	32807	
5065	0	32690	32815	
5066	0	32532	32724	
5067	0	32932	32742	
5068	0	32976	32753	
5069	0	32738	32711	
5070	0	33080	32768	
5071	0	33140	32678	
5072	0	32956	32775	
5073	0	32808	32740	
5074	0	32540	32862	
5075	0	32596	32752	
5076	0	32816	32690	
5077	0	32756	32788	
5078	0	32668	32788	
5079	0	32616	32868	
5080	0	32846	32766	
5081	0	32736	32756	
5082	0	32700	32807	
5083	0	32540	32748	
5084	0	32582	32884	
5085	0	32884	32638	
5086	0	32996	32684	
5087	0	33050	32807	
5088	0	32896	32764	
5089	0	32872	32746	
5090	0	32912	32788	
5091	0	32944	32678	
5092	0	32800	32735	
5093	0	33050	32734	
5094	0	32886	32888	
5095	0	32720	32818	
5096	0	32662	32824	
5097	0	32704	32756	
5098	0	32726	32760	
5099	0	32740	32792	
5100	0	32884	32726	
5101	0	32904	32808	
5102	0	32824	32770	
5103	0	32820	32852	
5104	0	32778	32770	
5105	0	32884	32734	
5106	0	32814	32736	
5107	0	32676	32725	
5108	0	32848	32694	
5109	0	33024	32692	
5110	0	32919	32692	
5111	0	32954	32636	
5112	0	33036	32804	
5113	0	32820	32804	
5114	0	32756	32768	
5115	0	32802	32800	
5116	0	32632	32750	
5117	0	32596	32770	
5118	0	32734	32690	
5119	0	32828	32852	
5120	0	32774	32756	
5121	0	32680	32860	
5122	0	32832	32770	
5123	0	32864	32647	
5124	0	32784	32775	
5125	0	32642	32682	
5126	0	32612	32764	
5127	0	32698	32652	
5128	0	32716	32764	
5129	0	32792	32802	
5130	0	32768	32807	
5131	0	32708	32686	
5132	0	32848	32775	
5133	0	32914	32826	
5134	0	32960	32826	
5135	0	32920	32858	
5136	0	32906	32702	
5137	0	32900	32855	
5138	0	32910	32775	
5139	0	32976	32874	
5140	0	32962	32743	
5141	0	32736	32718	
5142	0	32782	32796	
5143	0	33032	32752	
5144	0	32852	32746	
5145	0	32656	32698	
5146	0	32702	32673	
5147	0	32672	32660	
5148	0	32708	32656	
5149	0	32784	32732	
5150	0	32728	32676	
5151	0	32758	32739	
5152	0	32844	32726	
5153	0	32932	32804	
5154	0	32876	32810	
5155	0	32884	32884	
5156	0	32870	32704	
5157	0	32852	32844	
5158	0	32902	32910	
5159	0	32892	32762	
5160	0	32686	32794	
5161	0	32772	32716	
5162	0	32694	32775	
5163	0	32816	32855	
5164	0	33060	32614	
5165	0	32918	32775	
5166	0	32556	32602	
5167	0	32704	32698	
5168	0	32872	32746	
5169	0	32816	32708	
5170	0	32769	32788	
5171	0	32566	32536	
5172	0	32440	32570	
5173	0	32790	32718	
5174	0	33048	32800	
5175	0	32900	32836	
5176	0	32908	32720	
5177	0	32900	32716	
5178	0	32810	32852	
5179	0	32830	32801	
5180	0	32774	32928	
5181	0	32815	32716	
5182	0	32784	32849	
5183	0	32676	32700	
5184	0	32788	32775	
5185	0	32988	32696	
5186	0	32800	32820	
5187	0	32862	32692	
5188	0	32886	32732	
5189	0	32912	32740	
5190	0	32744	32708	
5191	0	32664	32836	
5192	0	32804	32768	
5193	0	32926	32832	
5194	0	32828	32798	
5195	0	32924	32700	
5196	0	32972	32832	
5197	0	32751	32818	
5198	0	32872	32844	
5199	0	32996	32730	
5200	0	32924	32848	
5201	0	32816	32794	
5202	0	32704	32872	
5203	0	32620	32711	
5204	0	32676	32622	
5205	0	32622	32742	
5206	0	32572	32764	
5207	0	32644	32806	
5208	0	32808	32681	
5209	0	32800	32839	
5210	0	32778	32794	
5211	0	32790	32764	
5212	0	32792	32807	
5213	0	32876	32812	
5214	0	32868	32706	
5215	0	32944	32746	
5216	0	32926	32730	
5217	0	32864	32698	
5218	0	32893	32816	
5219	0	32960	32775	
5220	0	32848	32775	
5221	0	32836	32676	
5222	0	32836	32689	
5223	0	32892	32817	
5224	0	32846	32815	
5225	0	32868	32759	
5226	0	32845	32711	
5227	0	32824	32862	
5228	0	32822	32736	
5229	0	32836	32816	
5230	0	32772	32679	
5231	0	32688	32693	
5232	0	32876	32748	
5233	0	32992	32724	
5234	0	32898	32862	
5235	0	32750	32706	
5236	0	32734	32704	
5237	0	32644	32816	
5238	0	32616	32828	
5239	0	32772	32775	
5240	0	32780	32799	
5241	0	32756	32698	
5242	0	32860	32746	
5243	0	33046	32806	
5244	0	32932	32764	
5245	0	32784	32804	
5246	0	32842	32842	
5247	0	32840	32748	
5248	0	32800	32676	
5249	0	32914	32679	
5250	0	32692	32804	
5251	0	32784	32812	
5252	0	32792	32770	
5253	0	32820	32775	
5254	0	32788	32638	
5255	0	32710	32770	
5256	0	32624	32770	
5257	0	32844	32796	
5258	0	32748	32742	
5259	0	32774	32702	
5260	0	32804	32768	
5261	0	32848	32767	
5262	0	32878	32775	
5263	0	32782	32766	
5264	0	32808	32734	
5265	0	32905	32732	
5266	0	32922	32742	
5267	0	32756	32756	
5268	0	32684	32748	
5269	0	32900	32756	
5270	0	33304	32690	
5271	0	33414	32748	
5272	0	33280	32676	
5273	0	32996	32775	
5274	0	32656	32753	
5275	0	32359	32775	
5276	0	32148	32883	
5277	0	32246	32940	
5278	0	32636	32839	
5279	0	32688	32762	
5280	0	32658	32854	
5281	0	32732	32808	
5282	0	32775	32896	
5283	0	32836	32911	
5284	0	32944	32855	
5285	0	32868	32866	
5286	0	32888	32800	
5287	0	32934	32710	
5288	0	32864	32612	
5289	0	32920	32722	
5290	0	32892	32769	
5291	0	33024	32682	
5292	0	32964	32796	
5293	0	32920	32730	
5294	0	32842	32722	
5295	0	32825	32675	
5296	0	32850	32658	
5297	0	32720	32839	
5298	0	32784	32792	
5299	0	32836	32775	
5300	0	32860	32838	
5301	0	32794	32807	
5302	0	32796	32788	
5303	0	32772	32719	
5304	0	32820	32610	
5305	0	32850	32686	
5306	0	32804	32756	
5307	0	32800	32770	
5308	0	32764	32784	
5309	0	32838	32720	
5310	0	32642	32794	
5311	0	32686	32702	
5312	0	32862	32682	
5313	0	32828	32688	
5314	0	32736	32794	
5315	0	32788	32807	
5316	0	32872	32837	
5317	0	32824	32794	
5318	0	32788	32816	
5319	0	32785	32830	
5320	0	32770	32722	
5321	0	32816	32690	
5322	0	32802	32686	
5323	0	32756	32768	
5324	0	32756	32858	
5325	0	32820	32772	
5326	0	32780	32775	
5327	0	32810	32790	
5328	0	32824	32768	
5329	0	32824	32647	
5330	0	32838	32653	
5331	0	32820	32716	
5332	0	32828	32770	
5333	0	32837	32678	
5334	0	32848	32807	
5335	0	32776	32726	
5336	0	32810	32734	
5337	0	32816	32708	
5338	0	32832	32704	
5339	0	32718	32835	
5340	0	32853	32874	
5341	0	32912	32847	
5342	0	32744	32915	
5343	0	32692	32702	
5344	0	33160	32774	
5345	0	32992	32883	
5346	0	32780	32804	
5347	0	32850	32811	
5348	0	32752	32807	
5349	0	32728	32722	
5350	0	32736	32698	
5351	0	32668	32786	
5352	0	32720	32750	
5353	0	32748	32824	
5354	0	32728	32856	
5355	0	32708	32821	
5356	0	32734	32828	
5357	0	32776	32850	
5358	0	32894	32768	
5359	0	32889	32826	
5360	0	32872	32756	
5361	0	32916	32820	
5362	0	32928	32839	
5363	0	33000	32720	
5364	0	32884	32655	
5365	0	32864	32774	
5366	0	32664	32682	
5367	0	32740	32670	
5368	0	32700	32654	
5369	0	32676	32680	
5370	0	32784	32631	
5371	0	32668	32668	
5372	0	32858	32788	
5373	0	32904	32796	
5374	0	32840	32847	
5375	0	32784	32826	
5376	0	32834	32796	
5377	0	32836	32718	
5378	0	32846	32848	
5379	0	32858	32772	
5380	0	32834	32826	
5381	0	32916	32852	
5382	0	32848	32879	
5383	0	32866	32814	
5384	0	32728	32702	
5385	0	33090	32693	
5386	0	33006	32646	
5387	0	32928	32756	
5388	0	32848	32762	
5389	0	32736	32732	
5390	0	32732	32694	
5391	0	32718	32754	
5392	0	32636	32798	
5393	0	32704	32728	
5394	0	32630	32760	
5395	0	32640	32760	
5396	0	32708	32756	
5397	0	32840	32804	
5398	0	32904	32841	
5399	0	32968	32759	
5400	0	32848	32748	
5401	0	32842	32806	
5402	0	32812	32842	
5403	0	32820	32890	
5404	0	32844	32678	
5405	0	32880	32728	
5406	0	32828	32740	
5407	0	32816	32766	
5408	0	32784	32703	
5409	0	32880	32668	
5410	0	32800	32748	
5411	0	32840	32748	
5412	0	32892	32662	
5413	0	32852	32655	
5414	0	32792	32830	
5415	0	32768	32732	
5416	0	32796	32824	
5417	0	32756	32720	
5418	0	32800	32687	
5419	0	32856	32775	
5420	0	32972	32836	
5421	0	32738	32892	
5422	0	32724	32804	
5423	0	32796	32766	
5424	0	32886	32794	
5425	0	32804	32830	
5426	0	32724	32758	
5427	0	32690	32707	
5428	0	32772	32666	
5429	0	32824	32804	
5430	0	32760	32756	
5431	0	32824	32814	
5432	0	32840	32790	
5433	0	32826	32682	
5434	0	32865	32714	
5435	0	32832	32712	
5436	0	32772	32863	
5437	0	32840	32868	
5438	0	32736	32766	
5439	0	32862	32834	
5440	0	33072	32738	
5441	0	33140	32804	
5442	0	32882	32865	
5443	0	32932	32780	
5444	0	32834	32775	
5445	0	32660	32727	
5446	0	32578	32761	
5447	0	32438	32628	
5448	0	32498	32682	
5449	0	32606	32630	
5450	0	32752	32735	
5451	0	32724	32830	
5452	0	32896	32830	
5453	0	32902	32792	
5454	0	32922	32750	
5455	0	32816	32690	
5456	0	32924	32600	
5457	0	32924	32715	
5458	0	32894	32718	
5459	0	32844	32738	
5460	0	32824	32633	
5461	0	32816	32602	
5462	0	32810	32576	
5463	0	32880	32696	
5464	0	32728	32630	
5465	0	32772	32722	
5466	0	32740	32618	
5467	0	32764	32580	
5468	0	32752	32714	
5469	0	32692	32654	
5470	0	32708	32654	
5471	0	32736	32704	
5472	0	32752	32614	
5473	0	32656	32800	
5474	0	32788	32756	
5475	0	32833	32772	
5476	0	32832	32788	
5477	0	32852	32838	
5478	0	32832	32974	
5479	0	32896	32915	
5480	0	32895	32924	
5481	0	32876	33044	
5482	0	32902	32933	
5483	0	32884	33104	
5484	0	32820	33064	
5485	0	32878	33030	
5486	0	32946	32970	
5487	0	33060	33151	
5488	0	33100	32972	
5489	0	32924	32880	
5490	0	32860	32878	
5491	0	32736	32772	
5492	0	32880	32788	
5493	0	32952	32884	
5494	0	32824	32868	
5495	0	32816	32900	
5496	0	32944	32924	
5497	0	32922	32750	
5498	0	32892	32708	
5499	0	32848	32774	
5500	0	32816	32700	
5501	0	32796	32654	
5502	0	32768	32696	
5503	0	32784	32708	
5504	0	32730	32596	
5505	0	32720	32519	
5506	0	32732	32536	
5507	0	32852	32638	
5508	0	32736	32600	
5509	0	32744	32575	
5510	0	32776	32657	
5511	0	32764	32610	
5512	0	32764	32741	
5513	0	32740	32718	
5514	0	32778	32759	
5515	0	32785	32704	
5516	0	32846	32772	
5517	0	32768	32820	
5518	0	32908	32806	
5519	0	32846	32706	
5520	0	32788	32743	
5521	0	32836	32831	
5522	0	32950	32774	
5523	0	32836	32744	
5524	0	32852	32842	
5525	0	32602	32652	
5526	0	32480	32810	
5527	0	33004	32830	
5528	0	33064	32796	
5529	0	32814	32702	
5530	0	32816	32626	
5531	0	32768	32679	
5532	0	32754	32808	
5533	0	32638	32782	
5534	0	32682	32846	
5535	0	32856	32758	
5536	0	32904	32712	
5537	0	32834	32823	
5538	0	32808	32828	
5539	0	32836	32868	
5540	0	32832	32724	
5541	0	32816	32863	
5542	0	32808	32772	
5543	0	32784	32774	
5544	0	32810	32750	
5545	0	32810	32606	
5546	0	32864	32711	
5547	0	32812	32727	
5548	0	32842	32758	
5549	0	32800	32775	
5550	0	32825	32754	
5551	0	32788	32666	
5552	0	32762	32692	
5553	0	32818	32782	
5554	0	32802	32716	
5555	0	32820	32830	
5556	0	32828	32719	
5557	0	32848	32708	
5558	0	32792	32888	
5559	0	32820	32862	
5560	0	32892	32796	
5561	0	32812	32844	
5562	0	32808	32804	
5563	0	32720	32732	
5564	0	32740	32740	
5565	0	32792	32842	
5566	0	32842	32775	
5567	0	32756	32670	
5568	0	32842	32712	
5569	0	32784	32799	
5570	0	32864	32807	
5571	0	32844	32689	
5572	0	32892	32716	
5573	0	32800	32903	
5574	0	32856	32858	
5575	0	32824	32710	
5576	0	32812	32775	
5577	0	32832	32760	
5578	0	32764	32612	
5579	0	32874	32757	
5580	0	32864	32743	
5581	0	32766	32820	
5582	0	32736	32774	
5583	0	32816	32679	
5584	0	32864	32806	
5585	0	32916	32698	
5586	0	32756	32710	
5587	0	32734	32676	
5588	0	32776	32700	
5589	0	32834	32800	
5590	0	32806	32754	
5591	0	32828	32668	
5592	0	32775	32692	
5593	0	32702	32732	
5594	0	32736	32746	
5595	0	32768	32756	
5596	0	32764	32613	
5597	0	32784	32759	
5598	0	32808	32812	
5599	0	32808	32789	
5600	0	32852	32924	
5601	0	32844	32918	
5602	0	32872	33019	
5603	0	32820	33012	
5604	0	32796	32898	
5605	0	32848	32922	
5606	0	32876	32912	
5607	0	32856	32790	
5608	0	32878	32746	
5609	0	32794	32708	
5610	0	32834	32618	
5611	0	32800	32586	
5612	0	32828	32656	
5613	0	32794	32746	
5614	0	32784	32684	
5615	0	32740	32743	
5616	0	32780	32686	
5617	0	32766	32654	
5618	0	32824	32775	
5619	0	32852	32801	
5620	0	32848	32766	
5621	0	32810	32670	
5622	0	32744	32775	
5623	0	32848	32804	
5624	0	32860	32825	
5625	0	32756	32798	
5626	0	32858	32680	
5627	0	32832	32712	
5628	0	32818	32670	
5629	0	32676	32756	
5630	0	32764	32663	
5631	0	32852	32721	
5632	0	32904	32775	
5633	0	32900	32824	
5634	0	32856	32836	
5635	0	32834	32775	
5636	0	32776	32870	
5637	0	32688	32676	
5638	0	32710	32754	
5639	0	32736	32704	
5640	0	32680	32924	
5641	0	32616	32812	
5642	0	32662	32802	
5643	0	32718	32708	
5644	0	32804	32775	
5645	0	32928	32839	
5646	0	32896	32854	
5647	0	32836	32679	
5648	0	32844	32622	
5649	0	32876	32711	
5650	0	32772	32608	
5651	0	32782	32684	
5652	0	32810	32668	
5653	0	32884	32820	
5654	0	32780	32766	
5655	0	32870	32815	
5656	0	32848	32746	
5657	0	32836	32922	
5658	0	32856	32754	
5659	0	32860	32815	
5660	0	32816	32731	
5661	0	32816	32676	
5662	0	32837	32786	
5663	0	32800	32866	
5664	0	32840	32775	
5665	0	32898	32876	
5666	0	32786	32705	
5667	0	32720	32644	
5668	0	32844	32704	
5669	0	32804	32658	
5670	0	32780	32756	
5671	0	32804	32734	
5672	0	32776	32863	
5673	0	32732	32803	
5674	0	32792	32784	
5675	0	32732	32816	
5676	0	32800	32828	
5677	0	32840	32768	
5678	0	32784	32802	
5679	0	32840	32770	
5680	0	32846	32814	
5681	0	32801	32728	
5682	0	32828	32768	
5683	0	32836	32742	
5684	0	32821	32826	
5685	0	32868	32752	
5686	0	32810	32838	
5687	0	32808	32775	
5688	0	32786	32711	
5689	0	32820	32710	
5690	0	32832	32679	
5691	0	32864	32758	
5692	0	32876	32774	
5693	0	32828	32868	
5694	0	32850	32830	
5695	0	32758	32708	
5696	0	32800	32878	
5697	0	32804	32800	
5698	0	32816	32796	
5699	0	32852	32736	
5700	0	32908	32839	
5701	0	32880	32756	
5702	0	32850	32826	
5703	0	32828	32642	
5704	0	32788	32763	
5705	0	32710	32726	
5706	0	32656	32616	
5707	0	32676	32655	
5708	0	32828	32734	
5709	0	32794	32775	
5710	0	32776	32647	
5711	0	32821	32800	
5712	0	32768	32740	
5713	0	32810	32744	
5714	0	32804	32746	
5715	0	32788	32759	
5716	0	32864	32764	
5717	0	32848	32870	
5718	0	32848	32766	
5719	0	32816	32868	
5720	0	32858	32710	
5721	0	32796	32850	
5722	0	32876	32742	
5723	0	32844	32775	
5724	0	32840	32796	
5725	0	32836	32876	
5726	0	32824	32742	
5727	0	32840	32644	
5728	0	32828	32679	
5729	0	32832	32660	
5730	0	32868	32756	
5731	0	32814	32684	
5732	0	32788	32768	
5733	0	32774	32795	
5734	0	32816	32774	
5735	0	32912	32690	
5736	0	32748	32799	
5737	0	32852	32935	
5738	0	32870	32896	
5739	0	32806	32750	
5740	0	32808	32791	
5741	0	32868	32844	
5742	0	32824	32870	
5743	0	32714	32847	
5744	0	32772	32684	
5745	0	32788	32716	
5746	0	32786	32842	
5747	0	32820	32826	
5748	0	32828	32743	
5749	0	32850	32734	
5750	0	32792	32750	
5751	0	32940	32870	
5752	0	32870	32766	
5753	0	32876	32758	
5754	0	32664	32844	
5755	0	32796	32772	
5756	0	32740	32645	
5757	0	32844	32615	
5758	0	32780	32796	
5759	0	32878	32688	
5760	0	32832	32726	
5761	0	32768	32584	
5762	0	32804	32816	
5763	0	32928	32775	
5764	0	32720	32800	
5765	0	32852	32692	
5766	0	32912	32692	
5767	0	32944	32756	
5768	0	32936	32710	
5769	0	32832	32688	
5770	0	32660	32796	
5771	0	32624	32640	
5772	0	32748	32832	
5773	0	32736	32767	
5774	0	32760	32824	
5775	0	32696	32879	
5776	0	32720	32800	
5777	0	32775	32878	
5778	0	32760	32852	
5779	0	32818	32757	
5780	0	32868	32772	
5781	0	32784	32698	
5782	0	32864	32672	
5783	0	32840	32744	
5784	0	32880	32768	
5785	0	32896	32746	
5786	0	32904	32684	
5787	0	32796	32730	
5788	0	32880	32678	
5789	0	32826	32644	
5790	0	32764	32762	
5791	0	32788	32708	
5792	0	32764	32714	
5793	0	32812	32752	
5794	0	32848	32775	
5795	0	32826	32711	
5796	0	32808	32836	
5797	0	32824	32774	
5798	0	32808	32775	
5799	0	32840	32809	
5800	0	32828	32804	
5801	0	32784	32743	
5802	0	32864	32847	
5803	0	32816	32739	
5804	0	32822	32786	
5805	0	32836	32647	
5806	0	32824	32676	
5807	0	32800	32762	
5808	0	32840	32703	
5809	0	32832	32775	
5810	0	32832	32710	
5811	0	32840	32730	
5812	0	32828	32742	
5813	0	32850	32815	
5814	0	32844	32775	
5815	0	32874	32660	
5816	0	32800	32748	
5817	0	32748	32890	
5818	0	32670	32806	
5819	0	32792	32804	
5820	0	32716	32818	
5821	0	32740	32752	
5822	0	32780	32718	
5823	0	32708	32738	
5824	0	32764	32756	
5825	0	32774	32756	
5826	0	32880	32775	
5827	0	32756	32698	
5828	0	32844	32660	
5829	0	32788	32732	
5830	0	32796	32764	
5831	0	32802	32742	
5832	0	32850	32775	
5833	0	32904	32726	
5834	0	32836	32720	
5835	0	32828	32824	
5836	0	32836	32766	
5837	0	32822	32894	
5838	0	32866	32752	
5839	0	32896	32748	
5840	0	32800	32902	
5841	0	32900	32878	
5842	0	32774	32838	
5843	0	32792	32692	
5844	0	32892	32674	
5845	0	32754	32816	
5846	0	32776	32831	
5847	0	32708	32671	
5848	0	32772	32720	
5849	0	32704	32788	
5850	0	32840	32608	
5851	0	32849	32756	
5852	0	32700	32767	
5853	0	32786	32800	
5854	0	32836	32874	
5855	0	32804	32748	
5856	0	32816	32774	
5857	0	32830	32834	
5858	0	32792	32765	
5859	0	32926	32824	
5860	0	32856	32772	
5861	0	32806	32804	
5862	0	32768	32743	
5863	0	32873	32750	
5864	0	32798	32822	
5865	0	32820	32676	
5866	0	32864	32703	
5867	0	32852	32820	
5868	0	32836	32764	
5869	0	32849	32756	
5870	0	32816	32810	
5871	0	32752	32722	
5872	0	32780	32790	
5873	0	32794	32695	
5874	0	32860	32712	
5875	0	33013	32751	
5876	0	32852	32686	
5877	0	32816	32846	
5878	0	32800	32753	
5879	0	32740	32647	
5880	0	32720	32732	
5881	0	32764	32758	
5882	0	32741	32814	
5883	0	32752	32759	
5884	0	32716	32830	
5885	0	32696	32806	
5886	0	32808	32736	
5887	0	32762	32808	
5888	0	32824	32620	
5889	0	32742	32698	
5890	0	32832	32705	
5891	0	32912	32698	
5892	0	32810	32750	
5893	0	32952	32775	
5894	0	32970	32716	
5895	0	32816	32864	
5896	0	32864	32842	
5897	0	32836	32825	
5898	0	32802	32724	
5899	0	32760	32764	
5900	0	32782	32762	
5901	0	32824	32770	
5902	0	32808	32838	
5903	0	32796	32788	
5904	0	32794	32689	
5905	0	32810	32788	
5906	0	32738	32740	
5907	0	32736	32858	
5908	0	32864	32756	
5909	0	32836	32657	
5910	0	32776	32732	
5911	0	32786	32775	
5912	0	32776	32759	
5913	0	32856	32711	
5914	0	32836	32672	
5915	0	32832	32812	
5916	0	32756	32812	
5917	0	32764	32864	
5918	0	32766	32666	
5919	0	32728	32810	
5920	0	32784	32790	
5921	0	32744	32792	
5922	0	32840	32708	
5923	0	32868	32750	
5924	0	32888	32839	
5925	0	32896	32804	
5926	0	32804	32706	
5927	0	33028	32753	
5928	0	32966	32711	
5929	0	32836	32766	
5930	0	32784	32682	
5931	0	32774	32756	
5932	0	32786	32808	
5933	0	32744	32768	
5934	0	32768	32812	
5935	0	32678	32762	
5936	0	32680	32682	
5937	0	32766	32857	
5938	0	32752	32866	
5939	0	32752	32808	
5940	0	32828	32646	
5941	0	32886	32948	
5942	0	32868	32820	
5943	0	32828	32792	
5944	0	32786	32682	
5945	0	32884	32674	
5946	0	32876	32785	
5947	0	32848	32726	
5948	0	32898	32822	
5949	0	32756	32652	
5950	0	32808	32802	
5951	0	32780	32717	
5952	0	32980	32764	
5953	0	32908	32682	
5954	0	32834	32806	
5955	0	32748	32855	
5956	0	32696	32738	
5957	0	32736	32802	
5958	0	32836	32851	
5959	0	32820	32772	
5960	0	32756	32804	
5961	0	32625	32839	
5962	0	32736	32799	
5963	0	32736	32705	
5964	0	32892	32808	
5965	0	32738	32807	
5966	0	32812	32824	
5967	0	32852	32687	
5968	0	32890	32886	
5969	0	32980	32687	
5970	0	32970	32759	
5971	0	32840	32652	
5972	0	32752	32714	
5973	0	32744	32687	
5974	0	32756	32622	
5975	0	32704	32833	
5976	0	32740	32767	
5977	0	32772	32920	
5978	0	32788	32758	
5979	0	32820	32807	
5980	0	32750	32844	
5981	0	32754	32684	
5982	0	32824	32791	
5983	0	32864	32792	
5984	0	32846	32678	
5985	0	32856	32684	
5986	0	32864	32775	
5987	0	32834	32775	
5988	0	32772	32658	
5989	0	32824	32632	
5990	0	32858	32828	
5991	0	32884	32755	
5992	0	32774	32742	
5993	0	32928	32791	
5994	0	32792	32710	
5995	0	32828	32794	
5996	0	32836	32812	
5997	0	32788	32831	
5998	0	32808	32754	
5999	0	32816	32729	
6000	0	32808	32714	
6001	0	32820	32886	
6002	0	32936	32788	
6003	0	32800	32799	
6004	0	32784	32668	
6005	0	32780	32834	
6006	0	32769	32763	
6007	0	32780	32838	
6008	0	32898	32744	
6009	0	32792	32724	
6010	0	32812	32786	
6011	0	32868	32740	
6012	0	32828	32772	
