# OpenSignals Text File Format. Version 1
# {"00:07:80:8C:0A:39": {"position": 0, "device": "biosignalsplux", "device name": "00:07:80:8C:0A:39", "device connection": "BTH00:07:80:8C:0A:39", "sampling rate": 1000, "resolution": [16, 16], "firmware version": 776, "comments": "", "keywords": "", "mode": 0, "sync interval": 2, "date": "2023-3-20", "time": "10:2:24.835", "channels": [1, 2], "sensor": ["EMG", "EMG"], "label": ["CH1", "CH2"], "column": ["nSeq", "DI", "CH1", "CH2"], "special": [{"SpO2": [80, 40, 5, 4, 3, 3]}, {"SpO2": [80, 40, 5, 4, 3, 3]}, {"SpO2": [80, 40, 5, 4, 3, 3]}, {"SpO2": [80, 40, 5, 4, 3, 3]}, {"SpO2": [80, 40, 5, 4, 3, 3]}, {"SpO2": [80, 40, 5, 4, 3, 3]}, {"SpO2": [80, 40, 5, 4, 3, 3]}, {"SpO2": [80, 40, 5, 4, 3, 3]}], "digital IO": [0, 1], "sleeve color": ["gray", "yellow"], "convertedValues": 0}}
# EndOfHeader
0	0	32866	32673	
1	0	32852	32802	
2	0	32828	32846	
3	0	32848	32775	
4	0	32840	32820	
5	0	32792	32825	
6	0	32868	32663	
7	0	32800	32666	
8	0	32844	32656	
9	0	32822	32816	
10	0	32812	32772	
11	0	32840	32736	
12	0	32856	32836	
13	0	32786	32710	
14	0	32788	32647	
15	0	32752	32858	
16	0	32780	32807	
17	0	32860	32714	
18	0	32784	32774	
19	0	32884	32775	
20	0	32778	32600	
21	0	32796	32750	
22	0	32876	32728	
23	0	32786	32838	
24	0	32812	32740	
25	0	32784	32807	
26	0	32824	32730	
27	0	32820	32631	
28	0	32826	32712	
29	0	32820	32800	
30	0	32824	32855	
31	0	32824	32868	
32	0	32844	32792	
33	0	32860	32761	
34	0	32814	32714	
35	0	32792	32720	
36	0	32776	32802	
37	0	32804	32726	
38	0	32756	32826	
39	0	32818	32791	
40	0	32800	32734	
41	0	32820	32688	
42	0	32908	32816	
43	0	32808	32740	
44	0	32808	32804	
45	0	32816	32734	
46	0	32784	32798	
47	0	32888	32736	
48	0	32814	32771	
49	0	32792	32722	
50	0	32808	32768	
51	0	32834	32842	
52	0	32788	32740	
53	0	32784	32676	
54	0	32804	32753	
55	0	32854	32758	
56	0	32872	32808	
57	0	32812	32756	
58	0	32856	32775	
59	0	32834	32750	
60	0	32788	32794	
61	0	32814	32698	
62	0	32680	32876	
63	0	32836	32762	
64	0	32892	32775	
65	0	32798	32808	
66	0	32828	32798	
67	0	32722	32828	
68	0	32769	32814	
69	0	32736	32710	
70	0	32764	32752	
71	0	32830	32748	
72	0	32760	32916	
73	0	32760	32775	
74	0	32902	32775	
75	0	32852	32674	
76	0	32908	32711	
77	0	32964	32656	
78	0	32988	32562	
79	0	32924	32580	
80	0	32956	32622	
81	0	32910	32676	
82	0	32970	32650	
83	0	32934	32656	
84	0	32988	32647	
85	0	32986	32700	
86	0	32876	32743	
87	0	32868	32716	
88	0	32828	32751	
89	0	32900	32644	
90	0	32908	32646	
91	0	32924	32706	
92	0	32888	32812	
93	0	32768	32818	
94	0	32674	32750	
95	0	32724	32832	
96	0	32632	32909	
97	0	32660	32900	
98	0	32612	33028	
99	0	32568	33014	
100	0	32470	33174	
101	0	32400	33170	
102	0	32352	33216	
103	0	32492	33093	
104	0	32596	33102	
105	0	32572	32956	
106	0	32644	32942	
107	0	32708	32870	
108	0	32732	32826	
109	0	32768	32816	
110	0	32834	32745	
111	0	32806	32618	
112	0	32808	32580	
113	0	32812	32556	
114	0	32916	32607	
115	0	32888	32622	
116	0	32948	32642	
117	0	33062	32628	
118	0	32948	32689	
119	0	32980	32590	
120	0	32970	32692	
121	0	32932	32660	
122	0	32948	32686	
123	0	32876	32730	
124	0	32860	32642	
125	0	32880	32632	
126	0	32972	32772	
127	0	32876	32758	
128	0	32836	32824	
129	0	32808	32712	
130	0	32806	32692	
131	0	32792	32641	
132	0	32794	32711	
133	0	32760	32636	
134	0	32866	32700	
135	0	32770	32792	
136	0	32772	32727	
137	0	32772	32672	
138	0	32852	32710	
139	0	32788	32886	
140	0	32772	32847	
141	0	32744	32788	
142	0	32794	32856	
143	0	32818	32808	
144	0	32804	32826	
145	0	32842	32782	
146	0	32820	32796	
147	0	32818	32708	
148	0	32762	32710	
149	0	32760	32816	
150	0	32800	32742	
151	0	32800	32798	
152	0	32832	32774	
153	0	32856	32759	
154	0	32836	32818	
155	0	32778	32722	
156	0	32876	32722	
157	0	32824	32684	
158	0	32740	32831	
159	0	32744	32838	
160	0	32838	32744	
161	0	32836	32768	
162	0	32808	32848	
163	0	32782	32808	
164	0	32824	32774	
165	0	32846	32799	
166	0	32846	32674	
167	0	32758	32686	
168	0	32817	32710	
169	0	32844	32740	
170	0	32836	32744	
171	0	32860	32724	
172	0	32832	32821	
173	0	32756	32798	
174	0	32814	32817	
175	0	32768	32660	
176	0	32796	32742	
177	0	32836	32716	
178	0	32820	32758	
179	0	32836	32748	
180	0	32772	32766	
181	0	32840	32724	
182	0	32766	32775	
183	0	32788	32806	
184	0	32798	32770	
185	0	32820	32824	
186	0	32760	32817	
187	0	32844	32767	
188	0	32866	32700	
189	0	32772	32764	
190	0	32826	32796	
191	0	32798	32758	
192	0	32812	32791	
193	0	32896	32775	
194	0	32758	32766	
195	0	32775	32700	
196	0	32780	32712	
197	0	32764	32697	
198	0	32832	32782	
199	0	32864	32839	
200	0	32800	32775	
201	0	32744	32748	
202	0	32856	32788	
203	0	32842	32804	
204	0	32752	32706	
205	0	32880	32718	
206	0	32792	32696	
207	0	32868	32816	
208	0	32820	32726	
209	0	32856	32806	
210	0	32892	32814	
211	0	32796	32775	
212	0	32754	32696	
213	0	32880	32644	
214	0	32812	32704	
215	0	32788	32745	
216	0	32812	32830	
217	0	32754	32812	
218	0	32832	32758	
219	0	32820	32754	
220	0	32816	32738	
221	0	32800	32677	
222	0	32780	32768	
223	0	32816	32859	
224	0	32804	32810	
225	0	32772	32790	
226	0	32842	32794	
227	0	32844	32754	
228	0	32800	32684	
229	0	32860	32700	
230	0	32868	32772	
231	0	32834	32826	
232	0	32844	32775	
233	0	32808	32775	
234	0	32844	32742	
235	0	32846	32821	
236	0	32816	32792	
237	0	32804	32756	
238	0	32798	32716	
239	0	32838	32759	
240	0	32780	32728	
241	0	32832	32882	
242	0	32762	32867	
243	0	32786	32838	
244	0	32860	32692	
245	0	32792	32679	
246	0	32844	32732	
247	0	32810	32852	
248	0	32804	32736	
249	0	32856	32762	
250	0	32864	32828	
251	0	32832	32812	
252	0	32776	32775	
253	0	32820	32697	
254	0	32848	32700	
255	0	32802	32730	
256	0	32768	32792	
257	0	32838	32849	
258	0	32772	32860	
259	0	32796	32822	
260	0	32792	32796	
261	0	32821	32860	
262	0	32780	32826	
263	0	32808	32812	
264	0	32820	32846	
265	0	32862	32774	
266	0	32856	32788	
267	0	32828	32842	
268	0	32808	32848	
269	0	32788	32836	
270	0	32826	32752	
271	0	32840	32767	
272	0	32836	32752	
273	0	32820	32772	
274	0	32816	32831	
275	0	32744	32751	
276	0	32814	32722	
277	0	32856	32748	
278	0	32814	32690	
279	0	32794	32775	
280	0	32724	32718	
281	0	32872	32714	
282	0	32808	32727	
283	0	32876	32734	
284	0	32849	32821	
285	0	32768	32898	
286	0	32820	32724	
287	0	32844	32770	
288	0	32850	32754	
289	0	32832	32828	
290	0	32764	32830	
291	0	32814	32844	
292	0	32716	32844	
293	0	32850	32816	
294	0	32836	32814	
295	0	32804	32715	
296	0	32836	32750	
297	0	32840	32775	
298	0	32815	32678	
299	0	32848	32766	
300	0	32788	32775	
301	0	32818	32756	
302	0	32780	32728	
303	0	32808	32866	
304	0	32824	32736	
305	0	32824	32752	
306	0	32862	32709	
307	0	32852	32774	
308	0	32812	32686	
309	0	32902	32804	
310	0	32748	32846	
311	0	32808	32774	
312	0	32826	32775	
313	0	32840	32714	
314	0	32753	32854	
315	0	32796	32751	
316	0	32792	32785	
317	0	32836	32775	
318	0	32740	32774	
319	0	32780	32800	
320	0	32836	32788	
321	0	32816	32756	
322	0	32830	32666	
323	0	32794	32729	
324	0	32848	32692	
325	0	32832	32738	
326	0	32854	32840	
327	0	32816	32831	
328	0	32808	32850	
329	0	32868	32815	
330	0	32930	32794	
331	0	32824	32736	
332	0	32808	32801	
333	0	32782	32775	
334	0	32752	32712	
335	0	32798	32762	
336	0	32760	32807	
337	0	32860	32725	
338	0	32846	32806	
339	0	32842	32775	
340	0	32716	32836	
341	0	32792	32838	
342	0	32760	32696	
343	0	32842	32836	
344	0	32780	32788	
345	0	32844	32744	
346	0	32832	32839	
347	0	32852	32852	
348	0	32810	32764	
349	0	32800	32775	
350	0	32842	32728	
351	0	32756	32788	
352	0	32724	32816	
353	0	32758	32746	
354	0	32756	32832	
355	0	32792	32775	
356	0	32796	32806	
357	0	32792	32722	
358	0	32808	32815	
359	0	32804	32726	
360	0	32772	32864	
361	0	32804	32892	
362	0	32780	32790	
363	0	32804	32754	
364	0	32846	32752	
365	0	32760	32864	
366	0	32812	32750	
367	0	32834	32660	
368	0	32768	32740	
369	0	32792	32852	
370	0	32804	32744	
371	0	32812	32823	
372	0	32816	32868	
373	0	32764	32774	
374	0	32784	32807	
375	0	32806	32660	
376	0	32860	32775	
377	0	32788	32860	
378	0	32810	32788	
379	0	32848	32752	
380	0	32794	32868	
381	0	32876	32800	
382	0	32804	32802	
383	0	32802	32846	
384	0	32814	32736	
385	0	32896	32742	
386	0	32804	32728	
387	0	32804	32694	
388	0	32834	32807	
389	0	32832	32808	
390	0	32834	32734	
391	0	32804	32834	
392	0	32844	32754	
393	0	32780	32762	
394	0	32876	32672	
395	0	32833	32632	
396	0	32788	32702	
397	0	32824	32824	
398	0	32790	32760	
399	0	32826	32830	
400	0	32788	32800	
401	0	32732	32775	
402	0	32776	32752	
403	0	32792	32728	
404	0	32792	32655	
405	0	32794	32718	
406	0	32828	32690	
407	0	32806	32876	
408	0	32824	32775	
409	0	32818	32814	
410	0	32808	32762	
411	0	32780	32772	
412	0	32832	32839	
413	0	32814	32826	
414	0	32816	32774	
415	0	32808	32722	
416	0	32840	32639	
417	0	32832	32814	
418	0	32820	32804	
419	0	32854	32786	
420	0	32810	32860	
421	0	32794	32822	
422	0	32716	32748	
423	0	32808	32684	
424	0	32804	32638	
425	0	32828	32676	
426	0	32847	32863	
427	0	32806	32772	
428	0	32756	32743	
429	0	32788	32752	
430	0	32860	32794	
431	0	32836	32714	
432	0	32820	32692	
433	0	32803	32738	
434	0	32840	32826	
435	0	32752	32762	
436	0	32764	32759	
437	0	32794	32750	
438	0	32836	32775	
439	0	32764	32802	
440	0	32778	32768	
441	0	32812	32756	
442	0	32788	32800	
443	0	32854	32819	
444	0	32852	32804	
445	0	32837	32856	
446	0	32821	32772	
447	0	32833	32716	
448	0	32856	32728	
449	0	32852	32743	
450	0	32852	32832	
451	0	32808	32775	
452	0	32816	32740	
453	0	32832	32770	
454	0	32820	32681	
455	0	32830	32647	
456	0	32788	32711	
457	0	32872	32823	
458	0	32856	32748	
459	0	32760	32702	
460	0	32778	32869	
461	0	32768	32766	
462	0	32846	32775	
463	0	32834	32727	
464	0	32832	32686	
465	0	32848	32748	
466	0	32788	32798	
467	0	32766	32708	
468	0	32796	32831	
469	0	32788	32772	
470	0	32812	32711	
471	0	32764	32743	
472	0	32808	32700	
473	0	32848	32775	
474	0	32828	32775	
475	0	32838	32764	
476	0	32852	32651	
477	0	32862	32816	
478	0	32816	32836	
479	0	32796	32780	
480	0	32808	32770	
481	0	32808	32800	
482	0	32834	32722	
483	0	32796	32742	
484	0	32836	32767	
485	0	32838	32775	
486	0	32814	32858	
487	0	32746	32700	
488	0	32820	32676	
489	0	32868	32759	
490	0	32836	32756	
491	0	32808	32734	
492	0	32838	32812	
493	0	32796	32734	
494	0	32780	32704	
495	0	32818	32738	
496	0	32780	32790	
497	0	32784	32775	
498	0	32784	32742	
499	0	32778	32770	
500	0	32796	32775	
501	0	32834	32844	
502	0	32806	32774	
503	0	32784	32806	
504	0	32814	32852	
505	0	32756	32800	
506	0	32786	32720	
507	0	32836	32678	
508	0	32820	32684	
509	0	32754	32727	
510	0	32796	32752	
511	0	32824	32838	
512	0	32812	32800	
513	0	32832	32932	
514	0	32844	32774	
515	0	32834	32782	
516	0	32780	32673	
517	0	32824	32711	
518	0	32788	32684	
519	0	32844	32628	
520	0	32804	32792	
521	0	32794	32762	
522	0	32824	32788	
523	0	32774	32810	
524	0	32804	32812	
525	0	32804	32692	
526	0	32906	32868	
527	0	32800	32814	
528	0	32884	32775	
529	0	32810	32748	
530	0	32748	32682	
531	0	32808	32718	
532	0	32764	32775	
533	0	32768	32788	
534	0	32856	32694	
535	0	32777	32884	
536	0	32840	32794	
537	0	32864	32686	
538	0	32852	32761	
539	0	32832	32847	
540	0	32856	32759	
541	0	32740	32829	
542	0	32800	32794	
543	0	32852	32706	
544	0	32840	32791	
545	0	32788	32860	
546	0	32832	32824	
547	0	32808	32775	
548	0	32778	32756	
549	0	32816	32775	
550	0	32854	32770	
551	0	32796	32788	
552	0	32788	32814	
553	0	32804	32726	
554	0	32824	32774	
555	0	32804	32747	
556	0	32776	32813	
557	0	32804	32708	
558	0	32792	32764	
559	0	32810	32732	
560	0	32816	32784	
561	0	32832	32738	
562	0	32836	32768	
563	0	32872	32772	
564	0	32784	32852	
565	0	32864	32807	
566	0	32772	32820	
567	0	32810	32735	
568	0	32832	32732	
569	0	32872	32734	
570	0	32860	32716	
571	0	32832	32671	
572	0	32766	32740	
573	0	32712	32688	
574	0	32730	32695	
575	0	32800	32722	
576	0	32770	32687	
577	0	32772	32710	
578	0	32896	32736	
579	0	32812	32924	
580	0	32860	32804	
581	0	32841	32838	
582	0	32826	32818	
583	0	32856	32816	
584	0	32828	32756	
585	0	32868	32775	
586	0	32816	32708	
587	0	32756	32809	
588	0	32724	32798	
589	0	32784	32806	
590	0	32774	32796	
591	0	32798	32775	
592	0	32824	32846	
593	0	32821	32684	
594	0	32816	32646	
595	0	32800	32706	
596	0	32810	32630	
597	0	32816	32724	
598	0	32784	32836	
599	0	32860	32852	
600	0	32828	32824	
601	0	32856	32796	
602	0	32832	32730	
603	0	32816	32824	
604	0	32804	32794	
605	0	32840	32824	
606	0	32798	32884	
607	0	32838	32752	
608	0	32802	32862	
609	0	32872	32744	
610	0	32866	32804	
611	0	32794	32660	
612	0	32804	32736	
613	0	32828	32700	
614	0	32764	32792	
615	0	32840	32711	
616	0	32824	32831	
617	0	32844	32758	
618	0	32834	32852	
619	0	32804	32836	
620	0	32796	32792	
621	0	32846	32775	
622	0	32778	32792	
623	0	32796	32824	
624	0	32816	32775	
625	0	32868	32772	
626	0	32840	32824	
627	0	32744	32762	
628	0	32852	32714	
629	0	32820	32680	
630	0	32802	32632	
631	0	32762	32742	
632	0	32820	32692	
633	0	32816	32792	
634	0	32804	32829	
635	0	32746	32820	
636	0	32821	32686	
637	0	32812	32774	
638	0	32800	32802	
639	0	32804	32767	
640	0	32810	32760	
641	0	32796	32662	
642	0	32800	32743	
643	0	32796	32728	
644	0	32772	32702	
645	0	32858	32852	
646	0	32774	32775	
647	0	32840	32784	
648	0	32802	32775	
649	0	32812	32816	
650	0	32750	32844	
651	0	32804	32720	
652	0	32852	32756	
653	0	32814	32775	
654	0	32784	32686	
655	0	32804	32711	
656	0	32898	32832	
657	0	32808	32772	
658	0	32812	32743	
659	0	32816	32770	
660	0	32772	32774	
661	0	32804	32754	
662	0	32810	32660	
663	0	32756	32702	
664	0	32788	32732	
665	0	32834	32856	
666	0	32864	32806	
667	0	32860	32800	
668	0	32812	32770	
669	0	32785	32647	
670	0	32788	32711	
671	0	32878	32858	
672	0	32880	32794	
673	0	32808	32668	
674	0	32824	32858	
675	0	32812	32823	
676	0	32872	32864	
677	0	32816	32770	
678	0	32800	32743	
679	0	32800	32652	
680	0	32764	32846	
681	0	32860	32798	
682	0	32834	32838	
683	0	32756	32896	
684	0	32772	32740	
685	0	32848	32766	
686	0	32834	32713	
687	0	32808	32775	
688	0	32824	32700	
689	0	32800	32720	
690	0	32804	32744	
691	0	32788	32696	
692	0	32740	32730	
693	0	32824	32747	
694	0	32766	32775	
695	0	32808	32840	
696	0	32840	32766	
697	0	32852	32704	
698	0	32788	32742	
699	0	32768	32672	
700	0	32794	32775	
701	0	32792	32658	
702	0	32818	32870	
703	0	32753	32806	
704	0	32836	32700	
705	0	32794	32798	
706	0	32946	32690	
707	0	32862	32794	
708	0	32804	32824	
709	0	32792	32852	
710	0	32822	32742	
711	0	32832	32674	
712	0	32770	32710	
713	0	32794	32774	
714	0	32820	32788	
715	0	32770	32766	
716	0	32816	32775	
717	0	32736	32852	
718	0	32802	32836	
719	0	32776	32700	
720	0	32784	32766	
721	0	32772	32857	
722	0	32780	32740	
723	0	32832	32788	
724	0	32800	32810	
725	0	32836	32676	
726	0	32778	32682	
727	0	32840	32872	
728	0	32860	32802	
729	0	32856	32810	
730	0	32893	32756	
731	0	32818	32770	
732	0	32768	32832	
733	0	32806	32775	
734	0	32856	32732	
735	0	32808	32687	
736	0	32832	32694	
737	0	32780	32736	
738	0	32812	32862	
739	0	32832	32775	
740	0	32780	32830	
741	0	32838	32741	
742	0	32872	32788	
743	0	32812	32756	
744	0	32812	32724	
745	0	32812	32714	
746	0	32804	32830	
747	0	32836	32752	
748	0	32780	32711	
749	0	32798	32718	
750	0	32772	32738	
751	0	32804	32654	
752	0	32848	32716	
753	0	32836	32868	
754	0	32808	32750	
755	0	32764	32790	
756	0	32812	32805	
757	0	32802	32814	
758	0	32788	32793	
759	0	32790	32738	
760	0	32792	32708	
761	0	32750	32702	
762	0	32782	32740	
763	0	32774	32754	
764	0	32862	32700	
765	0	32792	32880	
766	0	32812	32775	
767	0	32856	32788	
768	0	32848	32727	
769	0	32798	32784	
770	0	32838	32838	
771	0	32824	32794	
772	0	32728	32721	
773	0	32812	32732	
774	0	32788	32674	
775	0	32876	32718	
776	0	32802	32743	
777	0	32760	32886	
778	0	32884	32784	
779	0	32794	32730	
780	0	32792	32758	
781	0	32748	32685	
782	0	32800	32772	
783	0	32786	32814	
784	0	32856	32804	
785	0	32754	32794	
786	0	32806	32658	
787	0	32840	32704	
788	0	32858	32716	
789	0	32788	32710	
790	0	32832	32678	
791	0	32786	32751	
792	0	32758	32792	
793	0	32792	32758	
794	0	32800	32792	
795	0	32756	32798	
796	0	32784	32759	
797	0	32890	32796	
798	0	32900	32775	
799	0	32770	32828	
800	0	32848	32814	
801	0	32764	32804	
802	0	32812	32711	
803	0	32824	32700	
804	0	32784	32634	
805	0	32782	32756	
806	0	32856	32699	
807	0	32908	32774	
808	0	32846	32838	
809	0	32876	32722	
810	0	32842	32818	
811	0	32760	32815	
812	0	32798	32703	
813	0	32816	32743	
814	0	32834	32694	
815	0	32794	32710	
816	0	32756	32672	
817	0	32800	32684	
818	0	32736	32823	
819	0	32724	32831	
820	0	32772	32804	
821	0	32772	32871	
822	0	32760	32892	
823	0	32792	32820	
824	0	32832	32794	
825	0	32822	32806	
826	0	32832	32789	
827	0	32884	32718	
828	0	32888	32670	
829	0	32932	32582	
830	0	33004	32620	
831	0	32888	32546	
832	0	32962	32644	
833	0	32936	32631	
834	0	32996	32622	
835	0	32956	32640	
836	0	32968	32556	
837	0	32988	32732	
838	0	32960	32791	
839	0	32884	32708	
840	0	32832	32636	
841	0	32820	32612	
842	0	32890	32740	
843	0	32932	32725	
844	0	32868	32746	
845	0	32842	32775	
846	0	32820	32758	
847	0	32812	32831	
848	0	32664	32772	
849	0	32662	32784	
850	0	32608	32970	
851	0	32640	32950	
852	0	32574	33030	
853	0	32536	33088	
854	0	32490	33156	
855	0	32420	33144	
856	0	32398	33074	
857	0	32516	33096	
858	0	32592	32970	
859	0	32648	33031	
860	0	32689	32994	
861	0	32736	32775	
862	0	32740	32900	
863	0	32716	32775	
864	0	32784	32682	
865	0	32924	32572	
866	0	32900	32650	
867	0	32868	32748	
868	0	32960	32698	
869	0	32956	32644	
870	0	32948	32564	
871	0	32962	32596	
872	0	33024	32602	
873	0	32936	32604	
874	0	32904	32662	
875	0	32880	32661	
876	0	32828	32766	
877	0	32886	32574	
878	0	32906	32670	
879	0	32896	32647	
880	0	32836	32756	
881	0	32820	32810	
882	0	32816	32791	
883	0	32820	32775	
884	0	32732	32738	
885	0	32742	32798	
886	0	32768	32732	
887	0	32824	32746	
888	0	32762	32734	
889	0	32852	32672	
890	0	32836	32756	
891	0	32822	32690	
892	0	32846	32736	
893	0	32820	32752	
894	0	32804	32710	
895	0	32804	32708	
896	0	32816	32700	
897	0	32764	32728	
898	0	32820	32692	
899	0	32804	32666	
900	0	32800	32726	
901	0	32786	32788	
902	0	32744	32838	
903	0	32770	32742	
904	0	32824	32898	
905	0	32876	32831	
906	0	32836	32743	
907	0	32874	32743	
908	0	32888	32786	
909	0	32794	32711	
910	0	32828	32738	
911	0	32804	32772	
912	0	32836	32789	
913	0	32776	32802	
914	0	32734	32675	
915	0	32826	32860	
916	0	32780	32806	
917	0	32822	32834	
918	0	32826	32740	
919	0	32774	32772	
920	0	32844	32748	
921	0	32840	32775	
922	0	32848	32804	
923	0	32788	32830	
924	0	32756	32798	
925	0	32840	32820	
926	0	32810	32704	
927	0	32794	32708	
928	0	32828	32684	
929	0	32832	32608	
930	0	32868	32740	
931	0	32760	32750	
932	0	32824	32718	
933	0	32796	32750	
934	0	32760	32694	
935	0	32824	32862	
936	0	32840	32746	
937	0	32784	32815	
938	0	32838	32830	
939	0	32852	32618	
940	0	32840	32671	
941	0	32816	32740	
942	0	32801	32739	
943	0	32798	32738	
944	0	32816	32726	
945	0	32824	32743	
946	0	32802	32756	
947	0	32804	32802	
948	0	32792	32720	
949	0	32836	32656	
950	0	32812	32850	
951	0	32820	32740	
952	0	32794	32800	
953	0	32746	32922	
954	0	32848	32786	
955	0	32900	32724	
956	0	32824	32814	
957	0	32804	32756	
958	0	32840	32808	
959	0	32816	32759	
960	0	32764	32784	
961	0	32760	32808	
962	0	32824	32806	
963	0	32830	32848	
964	0	32872	32807	
965	0	32884	32810	
966	0	32762	32775	
967	0	32872	32750	
968	0	32850	32786	
969	0	32836	32718	
970	0	32784	32826	
971	0	32862	32818	
972	0	32838	32816	
973	0	32768	32775	
974	0	32782	32742	
975	0	32792	32718	
976	0	32836	32718	
977	0	32856	32752	
978	0	32828	32775	
979	0	32792	32746	
980	0	32792	32766	
981	0	32782	32754	
982	0	32746	32726	
983	0	32820	32694	
984	0	32800	32661	
985	0	32770	32700	
986	0	32824	32828	
987	0	32806	32796	
988	0	32760	32762	
989	0	32840	32848	
990	0	32808	32772	
991	0	32870	32842	
992	0	32778	32712	
993	0	32812	32798	
994	0	32820	32830	
995	0	32760	32817	
996	0	32856	32719	
997	0	32832	32772	
998	0	32756	32748	
999	0	32820	32714	
1000	0	32754	32775	
1001	0	32744	32721	
1002	0	32736	32718	
1003	0	32880	32688	
1004	0	32812	32735	
1005	0	32906	32791	
1006	0	32884	32775	
1007	0	32824	32768	
1008	0	32858	32855	
1009	0	32808	32768	
1010	0	32788	32788	
1011	0	32808	32796	
1012	0	32782	32692	
1013	0	32804	32748	
1014	0	32860	32728	
1015	0	32822	32740	
1016	0	32832	32722	
1017	0	32808	32804	
1018	0	32820	32775	
1019	0	32828	32794	
1020	0	32768	32676	
1021	0	32756	32684	
1022	0	32788	32742	
1023	0	32796	32724	
1024	0	32814	32700	
1025	0	32894	32696	
1026	0	32792	32714	
1027	0	32784	32740	
1028	0	32880	32668	
1029	0	32800	32668	
1030	0	32814	32860	
1031	0	32804	32740	
1032	0	32818	32800	
1033	0	32876	32801	
1034	0	32772	32760	
1035	0	32828	32754	
1036	0	32776	32760	
1037	0	32788	32738	
1038	0	32768	32710	
1039	0	32828	32720	
1040	0	32842	32771	
1041	0	32788	32876	
1042	0	32900	32732	
1043	0	32826	32692	
1044	0	32824	32772	
1045	0	32804	32740	
1046	0	32854	32727	
1047	0	32812	32746	
1048	0	32808	32761	
1049	0	32790	32722	
1050	0	32810	32666	
1051	0	32854	32874	
1052	0	32844	32752	
1053	0	32804	32822	
1054	0	32878	32796	
1055	0	32820	32734	
1056	0	32798	32718	
1057	0	32832	32888	
1058	0	32792	32851	
1059	0	32816	32820	
1060	0	32812	32794	
1061	0	32848	32820	
1062	0	32780	32820	
1063	0	32798	32812	
1064	0	32834	32822	
1065	0	32880	32804	
1066	0	32852	32802	
1067	0	32730	32844	
1068	0	32808	32775	
1069	0	32788	32792	
1070	0	32862	32758	
1071	0	32838	32666	
1072	0	32768	32700	
1073	0	32824	32788	
1074	0	32766	32784	
1075	0	32856	32735	
1076	0	32842	32692	
1077	0	32856	32751	
1078	0	32728	32808	
1079	0	32804	32794	
1080	0	32798	32862	
1081	0	32780	32823	
1082	0	32762	32862	
1083	0	32794	32856	
1084	0	32824	32820	
1085	0	32836	32732	
1086	0	32824	32744	
1087	0	32750	32710	
1088	0	32804	32748	
1089	0	32810	32696	
1090	0	32804	32732	
1091	0	32852	32725	
1092	0	32818	32702	
1093	0	32820	32807	
1094	0	32778	32866	
1095	0	32764	32759	
1096	0	32794	32798	
1097	0	32860	32848	
1098	0	32806	32786	
1099	0	32760	32702	
1100	0	32760	32852	
1101	0	32769	32802	
1102	0	32768	32746	
1103	0	32824	32757	
1104	0	32748	32690	
1105	0	32816	32748	
1106	0	32702	32674	
1107	0	32828	32694	
1108	0	32830	32704	
1109	0	32826	32734	
1110	0	32784	32808	
1111	0	32764	32775	
1112	0	32851	32687	
1113	0	32808	32775	
1114	0	32784	32834	
1115	0	32848	32784	
1116	0	32768	32752	
1117	0	32756	32732	
1118	0	32842	32696	
1119	0	32740	32794	
1120	0	32788	32775	
1121	0	32741	32764	
1122	0	32852	32848	
1123	0	32856	32775	
1124	0	32858	32762	
1125	0	32824	32832	
1126	0	32864	32816	
1127	0	32832	32762	
1128	0	32828	32686	
1129	0	32816	32724	
1130	0	32856	32748	
1131	0	32800	32840	
1132	0	32840	32724	
1133	0	32832	32862	
1134	0	32852	32792	
1135	0	32769	32719	
1136	0	32826	32722	
1137	0	32756	32748	
1138	0	32828	32788	
1139	0	32826	32700	
1140	0	32800	32696	
1141	0	32784	32775	
1142	0	32772	32758	
1143	0	32824	32772	
1144	0	32852	32796	
1145	0	32832	32839	
1146	0	32918	32752	
1147	0	32810	32775	
1148	0	32888	32708	
1149	0	32812	32764	
1150	0	32834	32788	
1151	0	32778	32769	
1152	0	32792	32754	
1153	0	32778	32727	
1154	0	32828	32874	
1155	0	32816	32806	
1156	0	32774	32674	
1157	0	32832	32679	
1158	0	32818	32712	
1159	0	32780	32774	
1160	0	32818	32730	
1161	0	32800	32804	
1162	0	32858	32796	
1163	0	32764	32771	
1164	0	32817	32726	
1165	0	32792	32798	
1166	0	32792	32775	
1167	0	32840	32764	
1168	0	32816	32742	
1169	0	32836	32775	
1170	0	32834	32828	
1171	0	32818	32840	
1172	0	32884	32696	
1173	0	32806	32696	
1174	0	32804	32636	
1175	0	32836	32732	
1176	0	32816	32732	
1177	0	32798	32836	
1178	0	32796	32800	
1179	0	32804	32732	
1180	0	32748	32775	
1181	0	32786	32852	
1182	0	32786	32666	
1183	0	32796	32671	
1184	0	32840	32836	
1185	0	32820	32788	
1186	0	32804	32792	
1187	0	32828	32846	
1188	0	32824	32792	
1189	0	32804	32718	
1190	0	32828	32727	
1191	0	32820	32791	
1192	0	32828	32751	
1193	0	32844	32702	
1194	0	32816	32724	
1195	0	32888	32744	
1196	0	32872	32864	
1197	0	32836	32784	
1198	0	32800	32711	
1199	0	32760	32775	
1200	0	32828	32790	
1201	0	32798	32820	
1202	0	32732	32740	
1203	0	32742	32692	
1204	0	32768	32738	
1205	0	32856	32824	
1206	0	32840	32860	
1207	0	32862	32766	
1208	0	32832	32716	
1209	0	32814	32847	
1210	0	32824	32774	
1211	0	32842	32770	
1212	0	32814	32762	
1213	0	32824	32686	
1214	0	32774	32812	
1215	0	32736	32836	
1216	0	32766	32822	
1217	0	32796	32724	
1218	0	32832	32746	
1219	0	32794	32748	
1220	0	32836	32704	
1221	0	32780	32815	
1222	0	32804	32710	
1223	0	32823	32700	
1224	0	32844	32698	
1225	0	32764	32842	
1226	0	32828	32775	
1227	0	32924	32864	
1228	0	32770	32694	
1229	0	32864	32716	
1230	0	32812	32730	
1231	0	32796	32710	
1232	0	32769	32682	
1233	0	32800	32806	
1234	0	32856	32812	
1235	0	32766	32828	
1236	0	32838	32836	
1237	0	32860	32788	
1238	0	32852	32838	
1239	0	32756	32750	
1240	0	32776	32737	
1241	0	32788	32756	
1242	0	32826	32718	
1243	0	32800	32684	
1244	0	32786	32805	
1245	0	32794	32746	
1246	0	32826	32765	
1247	0	32826	32775	
1248	0	32840	32670	
1249	0	32844	32706	
1250	0	32786	32762	
1251	0	32786	32750	
1252	0	32818	32719	
1253	0	32828	32825	
1254	0	32868	32688	
1255	0	32832	32774	
1256	0	32828	32894	
1257	0	32778	32699	
1258	0	32785	32892	
1259	0	32790	32775	
1260	0	32808	32692	
1261	0	32728	32720	
1262	0	32788	32830	
1263	0	32796	32790	
1264	0	32796	32794	
1265	0	32828	32911	
1266	0	32826	32654	
1267	0	32768	32706	
1268	0	32788	32823	
1269	0	32836	32806	
1270	0	32780	32734	
1271	0	32856	32639	
1272	0	32826	32719	
1273	0	32836	32775	
1274	0	32838	32775	
1275	0	32724	32852	
1276	0	32800	32838	
1277	0	32836	32746	
1278	0	32816	32722	
1279	0	32810	32775	
1280	0	32774	32722	
1281	0	32762	32744	
1282	0	32792	32744	
1283	0	32818	32908	
1284	0	32808	32876	
1285	0	32866	32770	
1286	0	32792	32710	
1287	0	32898	32838	
1288	0	32842	32751	
1289	0	32769	32728	
1290	0	32802	32756	
1291	0	32804	32756	
1292	0	32824	32692	
1293	0	32852	32784	
1294	0	32780	32750	
1295	0	32848	32684	
1296	0	32847	32679	
1297	0	32806	32724	
1298	0	32758	32696	
1299	0	32832	32720	
1300	0	32822	32830	
1301	0	32784	32762	
1302	0	32836	32810	
1303	0	32772	32793	
1304	0	32772	32734	
1305	0	32792	32704	
1306	0	32744	32882	
1307	0	32758	32696	
1308	0	32802	32812	
1309	0	32804	32812	
1310	0	32820	32814	
1311	0	32865	32703	
1312	0	32836	32620	
1313	0	32808	32700	
1314	0	32840	32678	
1315	0	32784	32786	
1316	0	32782	32750	
1317	0	32772	32711	
1318	0	32836	32842	
1319	0	32732	32774	
1320	0	32776	32790	
1321	0	32792	32775	
1322	0	32784	32759	
1323	0	32764	32692	
1324	0	32832	32775	
1325	0	32784	32772	
1326	0	32818	32766	
1327	0	32836	32756	
1328	0	32806	32832	
1329	0	32788	32750	
1330	0	32816	32750	
1331	0	32910	32740	
1332	0	32868	32854	
1333	0	32838	32775	
1334	0	32874	32796	
1335	0	32802	32827	
1336	0	32880	32775	
1337	0	32744	32870	
1338	0	32752	32712	
1339	0	32792	32730	
1340	0	32784	32786	
1341	0	32823	32736	
1342	0	32808	32704	
1343	0	32820	32828	
1344	0	32796	32871	
1345	0	32824	32792	
1346	0	32784	32742	
1347	0	32788	32720	
1348	0	32816	32710	
1349	0	32780	32846	
1350	0	32796	32804	
1351	0	32804	32830	
1352	0	32848	32864	
1353	0	32836	32718	
1354	0	32828	32686	
1355	0	32756	32816	
1356	0	32826	32842	
1357	0	32834	32814	
1358	0	32820	32847	
1359	0	32824	32772	
1360	0	32824	32716	
1361	0	32743	32697	
1362	0	32828	32687	
1363	0	32882	32864	
1364	0	32825	32708	
1365	0	32828	32830	
1366	0	32852	32866	
1367	0	32830	32692	
1368	0	32820	32700	
1369	0	32856	32746	
1370	0	32820	32662	
1371	0	32736	32801	
1372	0	32775	32794	
1373	0	32860	32823	
1374	0	32820	32838	
1375	0	32820	32823	
1376	0	32780	32821	
1377	0	32780	32766	
1378	0	32800	32775	
1379	0	32838	32886	
1380	0	32804	32746	
1381	0	32760	32830	
1382	0	32816	32711	
1383	0	32786	32732	
1384	0	32744	32724	
1385	0	32888	32646	
1386	0	32774	32736	
1387	0	32798	32703	
1388	0	32892	32764	
1389	0	32756	32722	
1390	0	32864	32807	
1391	0	32842	32815	
1392	0	32836	32806	
1393	0	32762	32727	
1394	0	32824	32788	
1395	0	32864	32786	
1396	0	32886	32775	
1397	0	32760	32775	
1398	0	32808	32775	
1399	0	32769	32838	
1400	0	32792	32775	
1401	0	32752	32756	
1402	0	32852	32658	
1403	0	32832	32732	
1404	0	32775	32802	
1405	0	32842	32790	
1406	0	32772	32718	
1407	0	32788	32825	
1408	0	32800	32767	
1409	0	32860	32740	
1410	0	32820	32720	
1411	0	32848	32666	
1412	0	32796	32740	
1413	0	32788	32734	
1414	0	32782	32736	
1415	0	32784	32679	
1416	0	32792	32868	
1417	0	32788	32820	
1418	0	32834	32828	
1419	0	32787	32842	
1420	0	32830	32766	
1421	0	32790	32852	
1422	0	32820	32732	
1423	0	32834	32762	
1424	0	32782	32632	
1425	0	32775	32747	
1426	0	32828	32622	
1427	0	32784	32743	
1428	0	32800	32724	
1429	0	32808	32710	
1430	0	32852	32745	
1431	0	32828	32879	
1432	0	32832	32694	
1433	0	32852	32788	
1434	0	32837	32720	
1435	0	32854	32844	
1436	0	32856	32758	
1437	0	32788	32676	
1438	0	32820	32708	
1439	0	32784	32687	
1440	0	32760	32718	
1441	0	32720	32759	
1442	0	32828	32743	
1443	0	32812	32858	
1444	0	32812	32820	
1445	0	32796	32826	
1446	0	32794	32775	
1447	0	32892	32725	
1448	0	32768	32662	
1449	0	32806	32684	
1450	0	32760	32860	
1451	0	32756	32796	
1452	0	32760	32734	
1453	0	32776	32775	
1454	0	32834	32759	
1455	0	32730	32750	
1456	0	32792	32697	
1457	0	32832	32714	
1458	0	32804	32718	
1459	0	32848	32862	
1460	0	32804	32836	
1461	0	32768	32818	
1462	0	32764	32791	
1463	0	32800	32836	
1464	0	32812	32720	
1465	0	32842	32762	
1466	0	32868	32740	
1467	0	32784	32735	
1468	0	32802	32679	
1469	0	32848	32874	
1470	0	32894	32802	
1471	0	32860	32750	
1472	0	32852	32767	
1473	0	32768	32758	
1474	0	32800	32664	
1475	0	32808	32743	
1476	0	32810	32804	
1477	0	32820	32732	
1478	0	32748	32775	
1479	0	32784	32815	
1480	0	32760	32727	
1481	0	32742	32714	
1482	0	32788	32687	
1483	0	32756	32753	
1484	0	32748	32800	
1485	0	32796	32734	
1486	0	32840	32842	
1487	0	32841	32752	
1488	0	32846	32775	
1489	0	32792	32798	
1490	0	32818	32747	
1491	0	32832	32782	
1492	0	32804	32708	
1493	0	32834	32730	
1494	0	32812	32703	
1495	0	32856	32804	
1496	0	32808	32840	
1497	0	32840	32838	
1498	0	32784	32734	
1499	0	32836	32729	
1500	0	32834	32775	
1501	0	32828	32834	
1502	0	32820	32730	
1503	0	32768	32788	
1504	0	32800	32752	
1505	0	32760	32654	
1506	0	32833	32724	
1507	0	32868	32800	
1508	0	32766	32814	
1509	0	32766	32800	
1510	0	32828	32748	
1511	0	32838	32804	
1512	0	32840	32764	
1513	0	32760	32742	
1514	0	32728	32768	
1515	0	32816	32662	
1516	0	32800	32772	
1517	0	32808	32832	
1518	0	32828	32796	
1519	0	32804	32769	
1520	0	32808	32827	
1521	0	32806	32725	
1522	0	32770	32748	
1523	0	32868	32775	
1524	0	32804	32772	
1525	0	32796	32716	
1526	0	32818	32702	
1527	0	32824	32720	
1528	0	32853	32852	
1529	0	32832	32760	
1530	0	32860	32785	
1531	0	32756	32775	
1532	0	32884	32766	
1533	0	32832	32806	
1534	0	32872	32826	
1535	0	32814	32756	
1536	0	32800	32784	
1537	0	32846	32824	
1538	0	32832	32772	
1539	0	32816	32798	
1540	0	32740	32726	
1541	0	32736	32638	
1542	0	32808	32688	
1543	0	32738	32711	
1544	0	32804	32752	
1545	0	32828	32720	
1546	0	32832	32678	
1547	0	32789	32746	
1548	0	32830	32732	
1549	0	32840	32828	
1550	0	32876	32746	
1551	0	32846	32788	
1552	0	32778	32772	
1553	0	32812	32805	
1554	0	32734	32826	
1555	0	32801	32775	
1556	0	32794	32775	
1557	0	32776	32732	
1558	0	32821	32682	
1559	0	32792	32708	
1560	0	32812	32638	
1561	0	32842	32716	
1562	0	32760	32743	
1563	0	32842	32884	
1564	0	32760	32820	
1565	0	32800	32706	
1566	0	32804	32826	
1567	0	32832	32839	
1568	0	32808	32656	
1569	0	32868	32710	
1570	0	32784	32726	
1571	0	32832	32772	
1572	0	32828	32740	
1573	0	32792	32683	
1574	0	32808	32722	
1575	0	32792	32775	
1576	0	32766	32886	
1577	0	32840	32800	
1578	0	32840	32820	
1579	0	32828	32816	
1580	0	32792	32807	
1581	0	32790	32814	
1582	0	32728	32822	
1583	0	32738	32761	
1584	0	32836	32720	
1585	0	32814	32698	
1586	0	32836	32630	
1587	0	32876	32720	
1588	0	32956	32700	
1589	0	32968	32666	
1590	0	32884	32624	
1591	0	32996	32574	
1592	0	32956	32604	
1593	0	33004	32570	
1594	0	33000	32602	
1595	0	32960	32647	
1596	0	32920	32686	
1597	0	32906	32604	
1598	0	32888	32623	
1599	0	32864	32596	
1600	0	32898	32676	
1601	0	32908	32696	
1602	0	32916	32689	
1603	0	32918	32802	
1604	0	32862	32788	
1605	0	32840	32826	
1606	0	32718	32906	
1607	0	32716	32798	
1608	0	32636	32814	
1609	0	32640	32902	
1610	0	32620	33048	
1611	0	32564	33052	
1612	0	32508	33062	
1613	0	32444	33144	
1614	0	32428	33176	
1615	0	32490	33190	
1616	0	32464	33079	
1617	0	32564	32990	
1618	0	32676	32980	
1619	0	32670	32796	
1620	0	32688	32839	
1621	0	32720	32732	
1622	0	32748	32775	
1623	0	32796	32744	
1624	0	32824	32687	
1625	0	32912	32692	
1626	0	32892	32706	
1627	0	32928	32724	
1628	0	32978	32478	
1629	0	32968	32542	
1630	0	33060	32543	
1631	0	32944	32658	
1632	0	32936	32624	
1633	0	32916	32702	
1634	0	32904	32614	
1635	0	32854	32638	
1636	0	32968	32692	
1637	0	32864	32752	
1638	0	32892	32731	
1639	0	32780	32768	
1640	0	32816	32756	
1641	0	32850	32744	
1642	0	32814	32725	
1643	0	32814	32692	
1644	0	32808	32744	
1645	0	32821	32830	
1646	0	32806	32788	
1647	0	32872	32805	
1648	0	32808	32808	
1649	0	32732	32802	
1650	0	32780	32722	
1651	0	32780	32716	
1652	0	32798	32727	
1653	0	32856	32756	
1654	0	32760	32810	
1655	0	32844	32836	
1656	0	32734	32858	
1657	0	32884	32676	
1658	0	32824	32742	
1659	0	32852	32790	
1660	0	32818	32812	
1661	0	32744	32826	
1662	0	32780	32866	
1663	0	32724	32700	
1664	0	32846	32740	
1665	0	32783	32810	
1666	0	32856	32775	
1667	0	32846	32710	
1668	0	32800	32788	
1669	0	32844	32700	
1670	0	32864	32708	
1671	0	32832	32802	
1672	0	32832	32832	
1673	0	32820	32740	
1674	0	32868	32766	
1675	0	32858	32840	
1676	0	32788	32736	
1677	0	32884	32672	
1678	0	32812	32688	
1679	0	32837	32700	
1680	0	32808	32734	
1681	0	32752	32756	
1682	0	32784	32830	
1683	0	32800	32748	
1684	0	32788	32807	
1685	0	32804	32852	
1686	0	32872	32762	
1687	0	32810	32804	
1688	0	32828	32862	
1689	0	32824	32710	
1690	0	32804	32647	
1691	0	32842	32732	
1692	0	32824	32855	
1693	0	32824	32768	
1694	0	32858	32820	
1695	0	32820	32754	
1696	0	32812	32838	
1697	0	32802	32850	
1698	0	32772	32775	
1699	0	32794	32695	
1700	0	32892	32740	
1701	0	32780	32640	
1702	0	32768	32714	
1703	0	32878	32742	
1704	0	32796	32866	
1705	0	32832	32823	
1706	0	32832	32788	
1707	0	32814	32824	
1708	0	32804	32788	
1709	0	32792	32664	
1710	0	32768	32684	
1711	0	32840	32772	
1712	0	32848	32743	
1713	0	32828	32774	
1714	0	32798	32846	
1715	0	32840	32750	
1716	0	32824	32679	
1717	0	32788	32728	
1718	0	32772	32775	
1719	0	32870	32774	
1720	0	32804	32743	
1721	0	32848	32806	
1722	0	32790	32710	
1723	0	32824	32724	
1724	0	32812	32860	
1725	0	32784	32775	
1726	0	32760	32766	
1727	0	32884	32727	
1728	0	32802	32720	
1729	0	32766	32848	
1730	0	32852	32756	
1731	0	32832	32716	
1732	0	32768	32720	
1733	0	32876	32695	
1734	0	32794	32775	
1735	0	32710	32846	
1736	0	32780	32796	
1737	0	32794	32775	
1738	0	32828	32786	
1739	0	32804	32796	
1740	0	32796	32711	
1741	0	32824	32760	
1742	0	32826	32799	
1743	0	32710	32718	
1744	0	32754	32688	
1745	0	32844	32676	
1746	0	32816	32844	
1747	0	32864	32820	
1748	0	32774	32756	
1749	0	32838	32822	
1750	0	32880	32838	
1751	0	32814	32814	
1752	0	32848	32690	
1753	0	32844	32695	
1754	0	32800	32852	
1755	0	32806	32791	
1756	0	32836	32798	
1757	0	32796	32802	
1758	0	32812	32743	
1759	0	32796	32792	
1760	0	32824	32684	
1761	0	32754	32821	
1762	0	32764	32798	
1763	0	32848	32895	
1764	0	32792	32742	
1765	0	32852	32686	
1766	0	32788	32695	
1767	0	32712	32788	
1768	0	32818	32668	
1769	0	32864	32766	
1770	0	32848	32830	
1771	0	32832	32751	
1772	0	32772	32876	
1773	0	32788	32782	
1774	0	32784	32856	
1775	0	32788	32836	
1776	0	32825	32796	
1777	0	32804	32676	
1778	0	32800	32764	
1779	0	32788	32706	
1780	0	32808	32820	
1781	0	32752	32775	
1782	0	32854	32780	
1783	0	32804	32844	
1784	0	32808	32810	
1785	0	32792	32772	
1786	0	32764	32732	
1787	0	32804	32647	
1788	0	32844	32800	
1789	0	32776	32668	
1790	0	32784	32812	
1791	0	32828	32796	
1792	0	32837	32770	
1793	0	32832	32788	
1794	0	32812	32673	
1795	0	32792	32814	
1796	0	32820	32817	
1797	0	32888	32839	
1798	0	32794	32752	
1799	0	32796	32762	
1800	0	32842	32774	
1801	0	32808	32791	
1802	0	32816	32772	
1803	0	32788	32775	
1804	0	32844	32858	
1805	0	32776	32722	
1806	0	32868	32796	
1807	0	32840	32775	
1808	0	32840	32759	
1809	0	32786	32818	
1810	0	32852	32820	
1811	0	32840	32775	
1812	0	32812	32792	
1813	0	32832	32838	
1814	0	32784	32734	
1815	0	32822	32692	
1816	0	32800	32803	
1817	0	32784	32735	
1818	0	32785	32804	
1819	0	32790	32796	
1820	0	32760	32847	
1821	0	32860	32761	
1822	0	32790	32756	
1823	0	32812	32745	
1824	0	32828	32903	
1825	0	32840	32831	
1826	0	32764	32814	
1827	0	32788	32770	
1828	0	32792	32874	
1829	0	32789	32676	
1830	0	32858	32878	
1831	0	32828	32766	
1832	0	32772	32794	
1833	0	32804	32718	
1834	0	32832	32839	
1835	0	32786	32868	
1836	0	32810	32812	
1837	0	32824	32810	
1838	0	32808	32856	
1839	0	32814	32804	
1840	0	32792	32730	
1841	0	32834	32903	
1842	0	32780	32814	
1843	0	32816	32792	
1844	0	32764	32628	
1845	0	32808	32775	
1846	0	32816	32860	
1847	0	32792	32770	
1848	0	32812	32788	
1849	0	32806	32785	
1850	0	32844	32828	
1851	0	32764	32879	
1852	0	32780	32775	
1853	0	32844	32711	
1854	0	32832	32751	
1855	0	32756	32740	
1856	0	32828	32750	
1857	0	32848	32694	
1858	0	32768	32684	
1859	0	32768	32702	
1860	0	32806	32914	
1861	0	32752	32802	
1862	0	32808	32792	
1863	0	32848	32842	
1864	0	32764	32838	
1865	0	32784	32766	
1866	0	32808	32724	
1867	0	32808	32790	
1868	0	32884	32796	
1869	0	32852	32764	
1870	0	32792	32804	
1871	0	32802	32826	
1872	0	32832	32846	
1873	0	32812	32808	
1874	0	32788	32692	
1875	0	32808	32632	
1876	0	32776	32830	
1877	0	32764	32830	
1878	0	32812	32834	
1879	0	32788	32817	
1880	0	32834	32756	
1881	0	32740	32817	
1882	0	32876	32830	
1883	0	32820	32750	
1884	0	32838	32732	
1885	0	32824	32766	
1886	0	32822	32804	
1887	0	32816	32804	
1888	0	32820	32734	
1889	0	32854	32746	
1890	0	32812	32810	
1891	0	32780	32802	
1892	0	32824	32836	
1893	0	32800	32696	
1894	0	32792	32657	
1895	0	32800	32658	
1896	0	32800	32775	
1897	0	32860	32737	
1898	0	32856	32868	
1899	0	32756	32852	
1900	0	32824	32798	
1901	0	32798	32764	
1902	0	32786	32758	
1903	0	32866	32694	
1904	0	32788	32806	
1905	0	32808	32791	
1906	0	32772	32821	
1907	0	32858	32806	
1908	0	32780	32854	
1909	0	32842	32746	
1910	0	32852	32838	
1911	0	32864	32770	
1912	0	32900	32798	
1913	0	32810	32817	
1914	0	32872	32775	
1915	0	32812	32808	
1916	0	32832	32831	
1917	0	32788	32814	
1918	0	32832	32752	
1919	0	32856	32828	
1920	0	32740	32774	
1921	0	32768	32772	
1922	0	32828	32828	
1923	0	32852	32848	
1924	0	32854	32767	
1925	0	32842	32832	
1926	0	32764	32788	
1927	0	32868	32764	
1928	0	32760	32814	
1929	0	32808	32718	
1930	0	32876	32644	
1931	0	32804	32758	
1932	0	32872	32686	
1933	0	32824	32708	
1934	0	32836	32662	
1935	0	32732	32750	
1936	0	32778	32775	
1937	0	32816	32766	
1938	0	32796	32786	
1939	0	32858	32746	
1940	0	32764	32815	
1941	0	32764	32742	
1942	0	32764	32770	
1943	0	32832	32870	
1944	0	32848	32768	
1945	0	32796	32793	
1946	0	32824	32752	
1947	0	32848	32816	
1948	0	32812	32770	
1949	0	32704	32736	
1950	0	32816	32812	
1951	0	32788	32775	
1952	0	32836	32736	
1953	0	32852	32820	
1954	0	32800	32764	
1955	0	32816	32756	
1956	0	32852	32788	
1957	0	32801	32759	
1958	0	32816	32742	
1959	0	32824	32767	
1960	0	32820	32688	
1961	0	32772	32754	
1962	0	32748	32806	
1963	0	32778	32836	
1964	0	32808	32740	
1965	0	32844	32753	
1966	0	32850	32796	
1967	0	32844	32788	
1968	0	32832	32804	
1969	0	32764	32807	
1970	0	32864	32790	
1971	0	32740	32804	
1972	0	32872	32866	
1973	0	32842	32800	
1974	0	32840	32725	
1975	0	32804	32758	
1976	0	32852	32808	
1977	0	32804	32796	
1978	0	32812	32772	
1979	0	32888	32786	
1980	0	32770	32680	
1981	0	32812	32722	
1982	0	32744	32750	
1983	0	32824	32786	
1984	0	32754	32800	
1985	0	32808	32799	
1986	0	32814	32821	
1987	0	32864	32854	
1988	0	32808	32692	
1989	0	32820	32742	
1990	0	32837	32678	
1991	0	32800	32775	
1992	0	32782	32704	
1993	0	32858	32696	
1994	0	32828	32759	
1995	0	32806	32862	
1996	0	32808	32807	
1997	0	32826	32835	
1998	0	32852	32852	
1999	0	32802	32658	
2000	0	32804	32764	
2001	0	32796	32664	
2002	0	32821	32679	
2003	0	32792	32898	
2004	0	32816	32775	
2005	0	32816	32729	
2006	0	32790	32786	
2007	0	32786	32796	
2008	0	32784	32786	
2009	0	32804	32800	
2010	0	32894	32762	
2011	0	32820	32689	
2012	0	32798	32607	
2013	0	32920	32721	
2014	0	32852	32842	
2015	0	32842	32804	
2016	0	32812	32728	
2017	0	32812	32801	
2018	0	32776	32775	
2019	0	32856	32644	
2020	0	32832	32704	
2021	0	32814	32684	
2022	0	32798	32836	
2023	0	32812	32640	
2024	0	32796	32693	
2025	0	32852	32708	
2026	0	32804	32707	
2027	0	32892	32734	
2028	0	32786	32712	
2029	0	32824	32775	
2030	0	32844	32724	
2031	0	32792	32860	
2032	0	32808	32815	
2033	0	32848	32788	
2034	0	32792	32788	
2035	0	32816	32841	
2036	0	32798	32775	
2037	0	32870	32762	
2038	0	32818	32726	
2039	0	32857	32775	
2040	0	32784	32810	
2041	0	32798	32734	
2042	0	32722	32695	
2043	0	32774	32792	
2044	0	32774	32680	
2045	0	32849	32768	
2046	0	32814	32687	
2047	0	32792	32710	
2048	0	32788	32718	
2049	0	32820	32840	
2050	0	32838	32796	
2051	0	32828	32874	
2052	0	32864	32834	
2053	0	32888	32804	
2054	0	32796	32760	
2055	0	32744	32730	
2056	0	32804	32715	
2057	0	32850	32768	
2058	0	32816	32721	
2059	0	32740	32822	
2060	0	32834	32892	
2061	0	32782	32810	
2062	0	32790	32748	
2063	0	32812	32744	
2064	0	32808	32800	
2065	0	32804	32738	
2066	0	32785	32775	
2067	0	32886	32791	
2068	0	32806	32788	
2069	0	32846	32825	
2070	0	32832	32882	
2071	0	32782	32764	
2072	0	32844	32743	
2073	0	32850	32746	
2074	0	32828	32762	
2075	0	32776	32788	
2076	0	32924	32748	
2077	0	32852	32734	
2078	0	32788	32770	
2079	0	32766	32852	
2080	0	32784	32766	
2081	0	32800	32775	
2082	0	32788	32813	
2083	0	32810	32820	
2084	0	32808	32772	
2085	0	32821	32726	
2086	0	32812	32760	
2087	0	32868	32810	
2088	0	32804	32766	
2089	0	32836	32740	
2090	0	32772	32663	
2091	0	32772	32647	
2092	0	32804	32725	
2093	0	32806	32678	
2094	0	32800	32711	
2095	0	32804	32689	
2096	0	32854	32698	
2097	0	32832	32702	
2098	0	32832	32700	
2099	0	32848	32758	
2100	0	32784	32688	
2101	0	32804	32671	
2102	0	32832	32758	
2103	0	32826	32678	
2104	0	32852	32775	
2105	0	32820	32724	
2106	0	32814	32670	
2107	0	32804	32716	
2108	0	32830	32716	
2109	0	32820	32704	
2110	0	32810	32728	
2111	0	32784	32646	
2112	0	32768	32654	
2113	0	32778	32679	
2114	0	32816	32760	
2115	0	32848	32716	
2116	0	32816	32747	
2117	0	32838	32702	
2118	0	32832	32728	
2119	0	32802	32750	
2120	0	32824	32576	
2121	0	32786	32711	
2122	0	32788	32718	
2123	0	32790	32684	
2124	0	32832	32726	
2125	0	32804	32708	
2126	0	32836	32756	
2127	0	32860	32852	
2128	0	32786	32788	
2129	0	32816	32764	
2130	0	32796	32748	
2131	0	32820	32730	
2132	0	32775	32820	
2133	0	32793	32775	
2134	0	32832	32802	
2135	0	32764	32768	
2136	0	32774	32922	
2137	0	32828	32854	
2138	0	32832	32714	
2139	0	32804	32802	
2140	0	32736	32820	
2141	0	32808	32764	
2142	0	32828	32888	
2143	0	32748	32810	
2144	0	32804	32834	
2145	0	32772	32839	
2146	0	32824	32775	
2147	0	32854	32790	
2148	0	32766	32775	
2149	0	32808	32792	
2150	0	32848	32702	
2151	0	32840	32706	
2152	0	32852	32800	
2153	0	32816	32788	
2154	0	32812	32848	
2155	0	32820	32866	
2156	0	32848	32854	
2157	0	32836	32815	
2158	0	32846	32690	
2159	0	32764	32676	
2160	0	32770	32902	
2161	0	32766	32798	
2162	0	32828	32775	
2163	0	32840	32847	
2164	0	32868	32864	
2165	0	32854	32743	
2166	0	32792	32838	
2167	0	32808	32708	
2168	0	32794	32700	
2169	0	32844	32702	
2170	0	32836	32724	
2171	0	32760	32738	
2172	0	32772	32694	
2173	0	32784	32714	
2174	0	32802	32804	
2175	0	32780	32770	
2176	0	32798	32734	
2177	0	32768	32750	
2178	0	32804	32752	
2179	0	32836	32772	
2180	0	32776	32818	
2181	0	32816	32800	
2182	0	32834	32775	
2183	0	32850	32768	
2184	0	32852	32704	
2185	0	32764	32730	
2186	0	32798	32839	
2187	0	32865	32802	
2188	0	32804	32775	
2189	0	32808	32810	
2190	0	32814	32790	
2191	0	32802	32745	
2192	0	32836	32812	
2193	0	32756	32711	
2194	0	32800	32782	
2195	0	32788	32760	
2196	0	32844	32772	
2197	0	32816	32750	
2198	0	32806	32742	
2199	0	32864	32668	
2200	0	32850	32768	
2201	0	32788	32810	
2202	0	32792	32930	
2203	0	32820	32820	
2204	0	32832	32807	
2205	0	32816	32796	
2206	0	32768	32734	
2207	0	32844	32754	
2208	0	32818	32732	
2209	0	32804	32816	
2210	0	32862	32826	
2211	0	32760	32808	
2212	0	32762	32775	
2213	0	32788	32786	
2214	0	32792	32826	
2215	0	32808	32871	
2216	0	32777	32812	
2217	0	32818	32735	
2218	0	32792	32800	
2219	0	32836	32732	
2220	0	32808	32816	
2221	0	32759	32728	
2222	0	32796	32825	
2223	0	32784	32886	
2224	0	32772	32800	
2225	0	32788	32724	
2226	0	32806	32711	
2227	0	32849	32792	
2228	0	32836	32678	
2229	0	32820	32654	
2230	0	32887	32796	
2231	0	32816	32794	
2232	0	32816	32729	
2233	0	32740	32796	
2234	0	32760	32686	
2235	0	32772	32772	
2236	0	32804	32775	
2237	0	32808	32720	
2238	0	32810	32798	
2239	0	32832	32834	
2240	0	32800	32812	
2241	0	32832	32772	
2242	0	32796	32862	
2243	0	32776	32839	
2244	0	32830	32828	
2245	0	32798	32734	
2246	0	32762	32732	
2247	0	32832	32800	
2248	0	32864	32757	
2249	0	32788	32864	
2250	0	32836	32786	
2251	0	32812	32823	
2252	0	32820	32816	
2253	0	32788	32794	
2254	0	32816	32764	
2255	0	32801	32834	
2256	0	32804	32736	
2257	0	32776	32806	
2258	0	32848	32872	
2259	0	32948	32775	
2260	0	32832	32772	
2261	0	32744	32636	
2262	0	32790	32694	
2263	0	32846	32624	
2264	0	32882	32775	
2265	0	32828	32716	
2266	0	32908	32742	
2267	0	32898	32814	
2268	0	32736	32762	
2269	0	32814	32816	
2270	0	32836	32772	
2271	0	32828	32775	
2272	0	32820	32768	
2273	0	32804	32740	
2274	0	32814	32772	
2275	0	32860	32774	
2276	0	32770	32846	
2277	0	32802	32839	
2278	0	32844	32758	
2279	0	32808	32775	
2280	0	32800	32790	
2281	0	32752	32914	
2282	0	32804	32742	
2283	0	32800	32798	
2284	0	32804	32772	
2285	0	32860	32711	
2286	0	32838	32722	
2287	0	32776	32716	
2288	0	32860	32672	
2289	0	32812	32756	
2290	0	32848	32628	
2291	0	32838	32724	
2292	0	32842	32758	
2293	0	32800	32828	
2294	0	32826	32775	
2295	0	32826	32775	
2296	0	32764	32742	
2297	0	32788	32775	
2298	0	32852	32808	
2299	0	32788	32774	
2300	0	32924	32680	
2301	0	32792	32679	
2302	0	32834	32748	
2303	0	32776	32718	
2304	0	32834	32876	
2305	0	32852	32782	
2306	0	32786	32801	
2307	0	32852	32828	
2308	0	32790	32792	
2309	0	32824	32768	
2310	0	32836	32850	
2311	0	32836	32738	
2312	0	32808	32727	
2313	0	32822	32660	
2314	0	32804	32839	
2315	0	32832	32794	
2316	0	32826	32742	
2317	0	32714	32742	
2318	0	32816	32802	
2319	0	32794	32798	
2320	0	32804	32805	
2321	0	32768	32690	
2322	0	32780	32767	
2323	0	32840	32864	
2324	0	32796	32790	
2325	0	32832	32786	
2326	0	32832	32775	
2327	0	32812	32821	
2328	0	32856	32823	
2329	0	32876	32858	
2330	0	32804	32775	
2331	0	32820	32678	
2332	0	32836	32676	
2333	0	32832	32680	
2334	0	32784	32748	
2335	0	32792	32756	
2336	0	32800	32828	
2337	0	32764	32775	
2338	0	32838	32722	
2339	0	32842	32790	
2340	0	32832	32740	
2341	0	32778	32870	
2342	0	32810	32759	
2343	0	32784	32775	
2344	0	32874	32798	
2345	0	32772	32688	
2346	0	32812	32710	
2347	0	32750	32808	
2348	0	32800	32796	
2349	0	32796	32804	
2350	0	32777	32872	
2351	0	32808	32872	
2352	0	32788	32788	
2353	0	32830	32742	
2354	0	32745	32676	
2355	0	32748	32654	
2356	0	32892	32768	
2357	0	32844	32734	
2358	0	32844	32743	
2359	0	32894	32748	
2360	0	32916	32702	
2361	0	32892	32592	
2362	0	32920	32678	
2363	0	32980	32629	
2364	0	32948	32574	
2365	0	33006	32598	
2366	0	32962	32622	
2367	0	32996	32660	
2368	0	32964	32544	
2369	0	32880	32616	
2370	0	32860	32775	
2371	0	32836	32766	
2372	0	32884	32724	
2373	0	32932	32668	
2374	0	32858	32657	
2375	0	32932	32609	
2376	0	32888	32760	
2377	0	32824	32806	
2378	0	32720	32860	
2379	0	32673	32970	
2380	0	32708	32961	
2381	0	32608	32880	
2382	0	32608	32872	
2383	0	32582	33104	
2384	0	32472	33018	
2385	0	32438	33180	
2386	0	32440	33120	
2387	0	32434	33055	
2388	0	32484	33132	
2389	0	32546	33048	
2390	0	32640	32998	
2391	0	32676	32890	
2392	0	32684	32744	
2393	0	32730	32748	
2394	0	32771	32852	
2395	0	32844	32743	
2396	0	32886	32668	
2397	0	32940	32657	
2398	0	32860	32680	
2399	0	32894	32666	
2400	0	33004	32583	
2401	0	33048	32706	
2402	0	32964	32644	
2403	0	32980	32538	
2404	0	32954	32630	
2405	0	32920	32738	
2406	0	33008	32664	
2407	0	32974	32640	
2408	0	32828	32660	
2409	0	32868	32727	
2410	0	32858	32706	
2411	0	32860	32695	
2412	0	32864	32662	
2413	0	32804	32686	
2414	0	32760	32766	
2415	0	32816	32758	
2416	0	32796	32788	
2417	0	32858	32756	
2418	0	32742	32709	
2419	0	32834	32775	
2420	0	32716	32860	
2421	0	32792	32716	
2422	0	32744	32758	
2423	0	32764	32826	
2424	0	32836	32750	
2425	0	32810	32700	
2426	0	32792	32742	
2427	0	32836	32775	
2428	0	32778	32802	
2429	0	32808	32775	
2430	0	32888	32832	
2431	0	32832	32831	
2432	0	32820	32772	
2433	0	32884	32772	
2434	0	32798	32664	
2435	0	32816	32652	
2436	0	32816	32804	
2437	0	32784	32758	
2438	0	32822	32852	
2439	0	32766	32834	
2440	0	32840	32772	
2441	0	32812	32772	
2442	0	32760	32792	
2443	0	32836	32730	
2444	0	32758	32775	
2445	0	32774	32866	
2446	0	32870	32652	
2447	0	32848	32732	
2448	0	32828	32738	
2449	0	32788	32790	
2450	0	32818	32724	
2451	0	32874	32882	
2452	0	32816	32844	
2453	0	32788	32757	
2454	0	32776	32720	
2455	0	32834	32806	
2456	0	32840	32756	
2457	0	32840	32722	
2458	0	32762	32752	
2459	0	32842	32734	
2460	0	32856	32790	
2461	0	32804	32838	
2462	0	32800	32756	
2463	0	32812	32700	
2464	0	32870	32654	
2465	0	32824	32716	
2466	0	32844	32760	
2467	0	32792	32806	
2468	0	32774	32863	
2469	0	32817	32787	
2470	0	32808	32775	
2471	0	32804	32684	
2472	0	32792	32796	
2473	0	32810	32807	
2474	0	32850	32740	
2475	0	32832	32710	
2476	0	32790	32688	
2477	0	32804	32684	
2478	0	32776	32775	
2479	0	32788	32743	
2480	0	32824	32724	
2481	0	32828	32704	
2482	0	32794	32832	
2483	0	32784	32788	
2484	0	32782	32748	
2485	0	32800	32810	
2486	0	32862	32775	
2487	0	32782	32842	
2488	0	32884	32802	
2489	0	32852	32786	
2490	0	32848	32796	
2491	0	32832	32756	
2492	0	32800	32805	
2493	0	32826	32678	
2494	0	32788	32770	
2495	0	32836	32834	
2496	0	32806	32884	
2497	0	32816	32718	
2498	0	32788	32732	
2499	0	32774	32814	
2500	0	32832	32860	
2501	0	32812	32764	
2502	0	32752	32772	
2503	0	32830	32769	
2504	0	32781	32846	
2505	0	32830	32660	
2506	0	32806	32764	
2507	0	32836	32678	
2508	0	32792	32806	
2509	0	32848	32762	
2510	0	32744	32789	
2511	0	32852	32798	
2512	0	32872	32815	
2513	0	32820	32764	
2514	0	32800	32696	
2515	0	32820	32675	
2516	0	32832	32759	
2517	0	32853	32650	
2518	0	32798	32790	
2519	0	32772	32740	
2520	0	32814	32806	
2521	0	32808	32788	
2522	0	32812	32772	
2523	0	32828	32687	
2524	0	32806	32721	
2525	0	32788	32839	
2526	0	32814	32854	
2527	0	32775	32744	
2528	0	32858	32764	
2529	0	32776	32775	
2530	0	32736	32775	
2531	0	32836	32724	
2532	0	32826	32644	
2533	0	32844	32825	
2534	0	32820	32764	
2535	0	32856	32760	
2536	0	32798	32844	
2537	0	32817	32800	
2538	0	32848	32774	
2539	0	32792	32668	
2540	0	32752	32808	
2541	0	32772	32798	
2542	0	32800	32775	
2543	0	32820	32708	
2544	0	32794	32818	
2545	0	32816	32678	
2546	0	32766	32775	
2547	0	32866	32772	
2548	0	32862	32790	
2549	0	32800	32722	
2550	0	32836	32690	
2551	0	32894	32830	
2552	0	32868	32775	
2553	0	32820	32775	
2554	0	32792	32688	
2555	0	32804	32804	
2556	0	32816	32844	
2557	0	32810	32699	
2558	0	32824	32736	
2559	0	32789	32732	
2560	0	32832	32741	
2561	0	32734	32742	
2562	0	32756	32872	
2563	0	32808	32770	
2564	0	32792	32712	
2565	0	32800	32708	
2566	0	32814	32716	
2567	0	32788	32869	
2568	0	32810	32774	
2569	0	32820	32770	
2570	0	32832	32695	
2571	0	32820	32878	
2572	0	32804	32826	
2573	0	32872	32888	
2574	0	32804	32862	
2575	0	32798	32774	
2576	0	32772	32714	
2577	0	32834	32748	
2578	0	32804	32658	
2579	0	32804	32698	
2580	0	32800	32798	
2581	0	32796	32759	
2582	0	32806	32806	
2583	0	32816	32786	
2584	0	32784	32823	
2585	0	32830	32734	
2586	0	32820	32769	
2587	0	32868	32734	
2588	0	32801	32876	
2589	0	32916	32822	
2590	0	32860	32823	
2591	0	32798	32708	
2592	0	32840	32786	
2593	0	32836	32775	
2594	0	32832	32805	
2595	0	32844	32802	
2596	0	32846	32788	
2597	0	32784	32743	
2598	0	32854	32736	
2599	0	32854	32804	
2600	0	32774	32853	
2601	0	32780	32818	
2602	0	32804	32868	
2603	0	32852	32722	
2604	0	32818	32830	
2605	0	32770	32800	
2606	0	32832	32830	
2607	0	32804	32788	
2608	0	32825	32746	
2609	0	32822	32786	
2610	0	32810	32693	
2611	0	32768	32676	
2612	0	32832	32678	
2613	0	32840	32775	
2614	0	32800	32753	
2615	0	32802	32808	
2616	0	32764	32820	
2617	0	32860	32844	
2618	0	32826	32746	
2619	0	32792	32692	
2620	0	32828	32688	
2621	0	32756	32714	
2622	0	32784	32818	
2623	0	32748	32807	
2624	0	32784	32774	
2625	0	32828	32814	
2626	0	32844	32852	
2627	0	32800	32838	
2628	0	32830	32775	
2629	0	32842	32720	
2630	0	32792	32702	
2631	0	32856	32720	
2632	0	32860	32788	
2633	0	32838	32775	
2634	0	32808	32775	
2635	0	32724	32814	
2636	0	32812	32732	
2637	0	32860	32722	
2638	0	32808	32720	
2639	0	32774	32798	
2640	0	32780	32838	
2641	0	32836	32867	
2642	0	32796	32786	
2643	0	32784	32684	
2644	0	32814	32740	
2645	0	32840	32832	
2646	0	32852	32820	
2647	0	32840	32751	
2648	0	32856	32786	
2649	0	32832	32804	
2650	0	32784	32688	
2651	0	32740	32711	
2652	0	32786	32728	
2653	0	32800	32836	
2654	0	32800	32828	
2655	0	32744	32682	
2656	0	32748	32806	
2657	0	32808	32858	
2658	0	32792	32798	
2659	0	32772	32807	
2660	0	32784	32711	
2661	0	32814	32676	
2662	0	32832	32678	
2663	0	32762	32743	
2664	0	32926	32790	
2665	0	32848	32822	
2666	0	32832	32791	
2667	0	32824	32918	
2668	0	32824	32750	
2669	0	32823	32664	
2670	0	32782	32671	
2671	0	32854	32740	
2672	0	32784	32710	
2673	0	32824	32774	
2674	0	32884	32742	
2675	0	32836	32814	
2676	0	32796	32772	
2677	0	32814	32614	
2678	0	32896	32723	
2679	0	32800	32748	
2680	0	32840	32876	
2681	0	32808	32772	
2682	0	32868	32852	
2683	0	32784	32750	
2684	0	32840	32812	
2685	0	32844	32772	
2686	0	32864	32664	
2687	0	32846	32698	
2688	0	32784	32740	
2689	0	32810	32746	
2690	0	32796	32790	
2691	0	32864	32736	
2692	0	32790	32811	
2693	0	32788	32768	
2694	0	32848	32645	
2695	0	32732	32668	
2696	0	32816	32707	
2697	0	32816	32817	
2698	0	32764	32732	
2699	0	32820	32775	
2700	0	32796	32864	
2701	0	32766	32722	
2702	0	32816	32647	
2703	0	32816	32751	
2704	0	32796	32688	
2705	0	32840	32858	
2706	0	32824	32798	
2707	0	32832	32766	
2708	0	32866	32758	
2709	0	32903	32743	
2710	0	32776	32814	
2711	0	32798	32790	
2712	0	32804	32672	
2713	0	32834	32740	
2714	0	32820	32708	
2715	0	32800	32817	
2716	0	32848	32810	
2717	0	32836	32786	
2718	0	32760	32794	
2719	0	32768	32740	
2720	0	32832	32722	
2721	0	32822	32792	
2722	0	32852	32738	
2723	0	32832	32852	
2724	0	32790	32814	
2725	0	32834	32742	
2726	0	32878	32747	
2727	0	32834	32775	
2728	0	32806	32756	
2729	0	32800	32756	
2730	0	32826	32807	
2731	0	32864	32758	
2732	0	32836	32882	
2733	0	32722	32772	
2734	0	32834	32838	
2735	0	32704	32798	
2736	0	32824	32743	
2737	0	32848	32640	
2738	0	32798	32704	
2739	0	32798	32796	
2740	0	32744	32790	
2741	0	32764	32850	
2742	0	32796	32884	
2743	0	32856	32816	
2744	0	32926	32648	
2745	0	32904	32664	
2746	0	32868	32612	
2747	0	32752	32598	
2748	0	32754	32604	
2749	0	32868	32678	
2750	0	32870	32766	
2751	0	32788	32724	
2752	0	32800	32826	
2753	0	32772	32924	
2754	0	32808	32862	
2755	0	32810	32775	
2756	0	32766	32772	
2757	0	32876	32724	
2758	0	32848	32676	
2759	0	32836	32775	
2760	0	32712	32849	
2761	0	32772	32918	
2762	0	32788	32834	
2763	0	32838	32910	
2764	0	32836	32900	
2765	0	32812	32822	
2766	0	32799	32733	
2767	0	32776	32652	
2768	0	32676	32566	
2769	0	32752	32726	
2770	0	32796	32754	
2771	0	32904	32734	
2772	0	32932	32839	
2773	0	32820	32696	
2774	0	32904	32646	
2775	0	32750	32734	
2776	0	32768	32724	
2777	0	32786	32750	
2778	0	32840	32716	
2779	0	32768	32630	
2780	0	32756	32775	
2781	0	32708	32808	
2782	0	32740	32741	
2783	0	32758	32738	
2784	0	32806	32775	
2785	0	32720	32860	
2786	0	32784	32838	
2787	0	32816	32814	
2788	0	32860	32756	
2789	0	32820	32750	
2790	0	32884	32724	
2791	0	33012	32724	
2792	0	33000	32940	
2793	0	32956	32898	
2794	0	32872	32872	
2795	0	32874	32828	
2796	0	32876	32804	
2797	0	33052	32756	
2798	0	33298	32768	
2799	0	33192	32800	
2800	0	32952	32780	
2801	0	32852	32772	
2802	0	32672	32746	
2803	0	32546	32690	
2804	0	32092	32568	
2805	0	32170	32709	
2806	0	32400	32926	
2807	0	32480	32918	
2808	0	32372	32814	
2809	0	32524	32788	
2810	0	32508	32702	
2811	0	32640	32530	
2812	0	32880	32484	
2813	0	33022	32532	
2814	0	32980	32658	
2815	0	32952	32734	
2816	0	32996	32775	
2817	0	32874	32724	
2818	0	32840	32804	
2819	0	32970	32734	
2820	0	32916	32855	
2821	0	32864	32802	
2822	0	32900	32898	
2823	0	32840	32816	
2824	0	32912	32839	
2825	0	32878	32846	
2826	0	32836	32764	
2827	0	32742	32754	
2828	0	32920	32706	
2829	0	32840	32719	
2830	0	32820	32620	
2831	0	32868	32678	
2832	0	32798	32716	
2833	0	32806	32852	
2834	0	32736	32830	
2835	0	32820	32746	
2836	0	32870	32775	
2837	0	32862	32732	
2838	0	32840	32842	
2839	0	32792	32839	
2840	0	32830	32744	
2841	0	32862	32774	
2842	0	32844	32740	
2843	0	32856	32718	
2844	0	32832	32775	
2845	0	32804	32679	
2846	0	32848	32718	
2847	0	32830	32836	
2848	0	32846	32775	
2849	0	32820	32766	
2850	0	32784	32740	
2851	0	32812	32700	
2852	0	32836	32767	
2853	0	32756	32806	
2854	0	32776	32775	
2855	0	32868	32764	
2856	0	32800	32724	
2857	0	32828	32854	
2858	0	32766	32836	
2859	0	32834	32798	
2860	0	32792	32769	
2861	0	32810	32752	
2862	0	32736	32748	
2863	0	32776	32670	
2864	0	32788	32660	
2865	0	32794	32712	
2866	0	32756	32686	
2867	0	32828	32647	
2868	0	32808	32688	
2869	0	32792	32766	
2870	0	32818	32796	
2871	0	32845	32740	
2872	0	32832	32818	
2873	0	32784	32775	
2874	0	32836	32792	
2875	0	32816	32816	
2876	0	32872	32775	
2877	0	32910	32742	
2878	0	32852	32718	
2879	0	32824	32748	
2880	0	32820	32736	
2881	0	32708	32740	
2882	0	32664	32774	
2883	0	32776	32719	
2884	0	32764	32782	
2885	0	32834	32727	
2886	0	32812	32790	
2887	0	32796	32774	
2888	0	32828	32806	
2889	0	32852	32762	
2890	0	32860	32788	
2891	0	32760	32743	
2892	0	32862	32725	
2893	0	32828	32836	
2894	0	32808	32775	
2895	0	32824	32824	
2896	0	32784	32788	
2897	0	32892	32747	
2898	0	32820	32736	
2899	0	32836	32808	
2900	0	32844	32761	
2901	0	32794	32614	
2902	0	32818	32722	
2903	0	32766	32748	
2904	0	32842	32686	
2905	0	32792	32855	
2906	0	32836	32794	
2907	0	32771	32794	
2908	0	32752	32718	
2909	0	32792	32806	
2910	0	32844	32807	
2911	0	32860	32725	
2912	0	32724	32764	
2913	0	32836	32742	
2914	0	32860	32698	
2915	0	32874	32754	
2916	0	32816	32770	
2917	0	32840	32863	
2918	0	32824	32844	
2919	0	32816	32774	
2920	0	32832	32662	
2921	0	32752	32740	
2922	0	32788	32696	
2923	0	32800	32775	
2924	0	32816	32747	
2925	0	32819	32854	
2926	0	32860	32839	
2927	0	32798	32806	
2928	0	32836	32732	
2929	0	32838	32756	
2930	0	32820	32830	
2931	0	32776	32798	
2932	0	32782	32742	
2933	0	32820	32762	
2934	0	32784	32692	
2935	0	32808	32672	
2936	0	32814	32688	
2937	0	32804	32647	
2938	0	32740	32852	
2939	0	32844	32828	
2940	0	32826	32864	
2941	0	32834	32838	
2942	0	32786	32790	
2943	0	32808	32759	
2944	0	32778	32785	
2945	0	32804	32808	
2946	0	32734	32768	
2947	0	32792	32766	
2948	0	32876	32692	
2949	0	32792	32674	
2950	0	32802	32692	
2951	0	32788	32734	
2952	0	32788	32775	
2953	0	32818	32859	
2954	0	32812	32843	
2955	0	32798	32756	
2956	0	32828	32815	
2957	0	32822	32715	
2958	0	32868	32734	
2959	0	32816	32692	
2960	0	32778	32818	
2961	0	32818	32762	
2962	0	32804	32746	
2963	0	32804	32727	
2964	0	32830	32822	
2965	0	32812	32834	
2966	0	32770	32822	
2967	0	32760	32678	
2968	0	32802	32700	
2969	0	32854	32695	
2970	0	32844	32823	
2971	0	32840	32830	
2972	0	32812	32839	
2973	0	32816	32720	
2974	0	32734	32804	
2975	0	32784	32834	
2976	0	32832	32743	
2977	0	32880	32704	
2978	0	32790	32752	
2979	0	32838	32720	
2980	0	32770	32810	
2981	0	32798	32748	
2982	0	32774	32775	
2983	0	32760	32762	
2984	0	32832	32846	
2985	0	32810	32788	
2986	0	32757	32738	
2987	0	32768	32772	
2988	0	32810	32679	
2989	0	32788	32686	
2990	0	32762	32763	
2991	0	32818	32818	
2992	0	32868	32814	
2993	0	32822	32714	
2994	0	32804	32774	
2995	0	32824	32702	
2996	0	32816	32718	
2997	0	32828	32736	
2998	0	32832	32847	
2999	0	32822	32740	
3000	0	32844	32807	
3001	0	32832	32774	
3002	0	32774	32676	
3003	0	32852	32724	
3004	0	32824	32826	
3005	0	32775	32734	
3006	0	32772	32712	
3007	0	32792	32839	
3008	0	32834	32700	
3009	0	32840	32736	
3010	0	32756	32814	
3011	0	32842	32830	
3012	0	32840	32764	
3013	0	32824	32830	
3014	0	32872	32735	
3015	0	32868	32696	
3016	0	32812	32714	
3017	0	32794	32808	
3018	0	32772	32732	
3019	0	32788	32750	
3020	0	32746	32836	
3021	0	32740	32766	
3022	0	32768	32734	
3023	0	32824	32775	
3024	0	32810	32775	
3025	0	32792	32736	
3026	0	32878	32862	
3027	0	32792	32772	
3028	0	32804	32734	
3029	0	32856	32775	
3030	0	32830	32852	
3031	0	32814	32852	
3032	0	32826	32798	
3033	0	32778	32700	
3034	0	32838	32679	
3035	0	32840	32760	
3036	0	32852	32676	
3037	0	32916	32852	
3038	0	32876	32750	
3039	0	32828	32692	
3040	0	32852	32788	
3041	0	32812	32812	
3042	0	32760	32720	
3043	0	32752	32852	
3044	0	32792	32822	
3045	0	32746	32768	
3046	0	32758	32690	
3047	0	32810	32738	
3048	0	32836	32740	
3049	0	32870	32811	
3050	0	32796	32812	
3051	0	32825	32810	
3052	0	32844	32700	
3053	0	32836	32766	
3054	0	32826	32854	
3055	0	32834	32830	
3056	0	32752	32836	
3057	0	32804	32814	
3058	0	32932	32756	
3059	0	32936	32774	
3060	0	32936	32694	
3061	0	32844	32652	
3062	0	32728	32752	
3063	0	32700	32802	
3064	0	32657	32850	
3065	0	32764	32827	
3066	0	32771	32862	
3067	0	32760	32828	
3068	0	32876	32748	
3069	0	32818	32775	
3070	0	32852	32639	
3071	0	32780	32660	
3072	0	32820	32712	
3073	0	32784	32856	
3074	0	32828	32836	
3075	0	32822	32775	
3076	0	32802	32878	
3077	0	32796	32772	
3078	0	32764	32767	
3079	0	32724	32732	
3080	0	32756	32759	
3081	0	32812	32746	
3082	0	32832	32806	
3083	0	32828	32846	
3084	0	32872	32903	
3085	0	32904	32774	
3086	0	32870	32679	
3087	0	32848	32674	
3088	0	32860	32724	
3089	0	32788	32711	
3090	0	32798	32804	
3091	0	32744	32746	
3092	0	32880	32788	
3093	0	32814	32764	
3094	0	32766	32784	
3095	0	32892	32775	
3096	0	32900	32818	
3097	0	32792	32768	
3098	0	32812	32806	
3099	0	32722	32772	
3100	0	32708	32742	
3101	0	32728	32631	
3102	0	32728	32642	
3103	0	32784	32743	
3104	0	32904	32812	
3105	0	32816	32810	
3106	0	32856	32775	
3107	0	32936	32900	
3108	0	32808	32842	
3109	0	32872	32742	
3110	0	32872	32748	
3111	0	32697	32814	
3112	0	32720	32758	
3113	0	32640	32726	
3114	0	32792	32700	
3115	0	32852	32748	
3116	0	32860	32816	
3117	0	32964	32772	
3118	0	32924	32798	
3119	0	32868	32766	
3120	0	32830	32774	
3121	0	32708	32712	
3122	0	32716	32818	
3123	0	32700	32836	
3124	0	32846	32798	
3125	0	32932	32714	
3126	0	32802	32772	
3127	0	32936	32775	
3128	0	32870	32710	
3129	0	32848	32757	
3130	0	32628	32708	
3131	0	32480	32764	
3132	0	32604	32714	
3133	0	32904	32772	
3134	0	33044	32790	
3135	0	32834	32762	
3136	0	32520	32748	
3137	0	32480	32808	
3138	0	32748	32774	
3139	0	33066	32804	
3140	0	33300	32870	
3141	0	33358	32836	
3142	0	33298	32836	
3143	0	33092	32775	
3144	0	32980	32818	
3145	0	32712	32692	
3146	0	32356	32870	
3147	0	32144	32794	
3148	0	32240	32814	
3149	0	32528	32826	
3150	0	32648	32838	
3151	0	32848	32628	
3152	0	32888	32806	
3153	0	32756	32684	
3154	0	32690	32700	
3155	0	32848	32606	
3156	0	33108	32766	
3157	0	33326	32590	
3158	0	33354	32506	
3159	0	33184	32576	
3160	0	32876	32622	
3161	0	32444	32620	
3162	0	32544	32647	
3163	0	32766	32678	
3164	0	33560	32638	
3165	0	33884	32772	
3166	0	33604	32644	
3167	0	33060	32711	
3168	0	32648	32654	
3169	0	32020	32700	
3170	0	31788	32692	
3171	0	31892	32718	
3172	0	32164	32764	
3173	0	32584	32812	
3174	0	32632	32864	
3175	0	32840	32883	
3176	0	32820	32972	
3177	0	33145	32792	
3178	0	33328	32942	
3179	0	33368	32940	
3180	0	33136	32946	
3181	0	32498	33184	
3182	0	32164	33201	
3183	0	32022	33126	
3184	0	32260	33048	
3185	0	32698	33150	
3186	0	33028	33098	
3187	0	33556	32903	
3188	0	33724	32810	
3189	0	33244	32746	
3190	0	32884	32722	
3191	0	32502	32838	
3192	0	32028	32802	
3193	0	31480	32695	
3194	0	31720	32652	
3195	0	32604	32570	
3196	0	32980	32470	
3197	0	32998	32518	
3198	0	33004	32642	
3199	0	33216	32601	
3200	0	33201	32626	
3201	0	33140	32598	
3202	0	32974	32572	
3203	0	33188	32602	
3204	0	33136	32766	
3205	0	33004	32819	
3206	0	32912	32722	
3207	0	32752	32807	
3208	0	32632	32804	
3209	0	32860	32848	
3210	0	33180	32762	
3211	0	33404	32734	
3212	0	33422	32669	
3213	0	32748	32711	
3214	0	32284	32700	
3215	0	32296	32871	
3216	0	32422	32796	
3217	0	32657	32775	
3218	0	32610	32825	
3219	0	32612	32849	
3220	0	32628	32772	
3221	0	32752	32775	
3222	0	32952	32772	
3223	0	32912	32804	
3224	0	33156	32810	
3225	0	33134	32716	
3226	0	33052	32756	
3227	0	33200	32789	
3228	0	33508	32766	
3229	0	33420	32840	
3230	0	33278	32850	
3231	0	32836	32771	
3232	0	32486	32775	
3233	0	32520	32676	
3234	0	32300	32676	
3235	0	32184	32628	
3236	0	32164	32647	
3237	0	32416	32664	
3238	0	32730	32680	
3239	0	33034	32639	
3240	0	32696	32716	
3241	0	32824	32746	
3242	0	33024	32716	
3243	0	32808	32766	
3244	0	32578	32754	
3245	0	32632	32758	
3246	0	32796	32884	
3247	0	32948	32826	
3248	0	32926	32762	
3249	0	33102	32742	
3250	0	33096	32722	
3251	0	32888	32731	
3252	0	32960	32692	
3253	0	33252	32764	
3254	0	33134	32832	
3255	0	33028	32791	
3256	0	33024	32752	
3257	0	32662	32708	
3258	0	32448	32830	
3259	0	32978	32788	
3260	0	32837	32775	
3261	0	32732	32680	
3262	0	31864	32693	
3263	0	31938	32860	
3264	0	32000	32724	
3265	0	31880	32860	
3266	0	32410	32694	
3267	0	33116	32687	
3268	0	33316	32856	
3269	0	33520	32840	
3270	0	33498	32738	
3271	0	33340	32738	
3272	0	33516	32703	
3273	0	33472	32768	
3274	0	32596	32686	
3275	0	32472	32708	
3276	0	32672	32751	
3277	0	33182	32748	
3278	0	33004	32764	
3279	0	32386	32775	
3280	0	32432	32775	
3281	0	32480	32876	
3282	0	32584	32886	
3283	0	32788	32926	
3284	0	32946	32866	
3285	0	33344	32832	
3286	0	32860	32818	
3287	0	32148	32748	
3288	0	32804	32752	
3289	0	33044	32582	
3290	0	32440	32591	
3291	0	32490	32674	
3292	0	32248	32639	
3293	0	32940	32744	
3294	0	33068	32775	
3295	0	33428	32871	
3296	0	33152	32936	
3297	0	32938	32874	
3298	0	33001	32904	
3299	0	32545	32844	
3300	0	32684	32812	
3301	0	32924	32792	
3302	0	33450	32782	
3303	0	33596	32839	
3304	0	33436	32828	
3305	0	32980	32727	
3306	0	32252	32775	
3307	0	32088	32716	
3308	0	32020	32757	
3309	0	32056	32660	
3310	0	32208	32719	
3311	0	32416	32664	
3312	0	32650	32647	
3313	0	32382	32728	
3314	0	33075	32852	
3315	0	33156	32870	
3316	0	33286	32726	
3317	0	33124	32744	
3318	0	32704	32790	
3319	0	32568	32806	
3320	0	32782	32688	
3321	0	33236	32670	
3322	0	32900	32728	
3323	0	33140	32726	
3324	0	32992	32772	
3325	0	32960	32699	
3326	0	33016	32766	
3327	0	33312	32780	
3328	0	33404	32868	
3329	0	32984	32799	
3330	0	32444	32706	
3331	0	32432	32774	
3332	0	32364	32783	
3333	0	32056	32698	
3334	0	32198	32616	
3335	0	32228	32647	
3336	0	32868	32660	
3337	0	33428	32662	
3338	0	33524	32794	
3339	0	33492	32750	
3340	0	33688	32868	
3341	0	33438	32871	
3342	0	32800	32962	
3343	0	32894	32988	
3344	0	32874	32952	
3345	0	31976	32948	
3346	0	31824	32934	
3347	0	32170	32796	
3348	0	32298	32647	
3349	0	32152	32692	
3350	0	32452	32694	
3351	0	32452	32602	
3352	0	32904	32564	
3353	0	33132	32591	
3354	0	33184	32584	
3355	0	33084	32618	
3356	0	32754	32826	
3357	0	32848	32730	
3358	0	33226	32692	
3359	0	33626	32724	
3360	0	33246	32790	
3361	0	32772	32836	
3362	0	32996	32771	
3363	0	33632	32756	
3364	0	33042	32760	
3365	0	32798	32934	
3366	0	32188	33080	
3367	0	31936	33328	
3368	0	32240	33202	
3369	0	33258	33068	
3370	0	33888	32950	
3371	0	32926	32866	
3372	0	31776	32606	
3373	0	31880	32484	
3374	0	32440	32590	
3375	0	32840	32604	
3376	0	32786	32396	
3377	0	32962	32302	
3378	0	32916	32326	
3379	0	33192	32327	
3380	0	33436	32462	
3381	0	32936	32436	
3382	0	32680	32768	
3383	0	32400	32802	
3384	0	32026	32892	
3385	0	32156	32996	
3386	0	32832	33244	
3387	0	32996	33472	
3388	0	32954	33542	
3389	0	32740	33572	
3390	0	32542	33634	
3391	0	32356	33410	
3392	0	32926	33344	
3393	0	33328	32836	
3394	0	33412	32476	
3395	0	33164	32130	
3396	0	32842	31772	
3397	0	32004	31404	
3398	0	32366	31200	
3399	0	32850	31542	
3400	0	33272	31663	
3401	0	32870	31879	
3402	0	32836	32234	
3403	0	32817	32556	
3404	0	32599	32775	
3405	0	32622	33173	
3406	0	33344	33325	
3407	0	33860	33386	
3408	0	33814	33444	
3409	0	32936	33378	
3410	0	32200	33264	
3411	0	32004	33218	
3412	0	31892	33071	
3413	0	33124	32968	
3414	0	33972	32990	
3415	0	33880	32839	
3416	0	33416	32616	
3417	0	32808	32640	
3418	0	31702	32725	
3419	0	31796	32930	
3420	0	32132	32906	
3421	0	31780	32917	
3422	0	31742	32916	
3423	0	32170	32798	
3424	0	33368	32868	
3425	0	33612	32870	
3426	0	33748	32900	
3427	0	33478	32922	
3428	0	32184	32846	
3429	0	31014	32902	
3430	0	31708	32678	
3431	0	32456	32630	
3432	0	33178	32734	
3433	0	33344	33120	
3434	0	33584	33082	
3435	0	33712	32990	
3436	0	33660	33076	
3437	0	33446	33372	
3438	0	33450	33744	
3439	0	33324	33868	
3440	0	33136	33816	
3441	0	33056	33311	
3442	0	32764	32528	
3443	0	32404	31879	
3444	0	32474	31746	
3445	0	32368	31399	
3446	0	32866	31350	
3447	0	33284	31214	
3448	0	32896	31079	
3449	0	32628	31072	
3450	0	31857	31340	
3451	0	31484	32052	
3452	0	32004	32556	
3453	0	33054	32895	
3454	0	33832	33216	
3455	0	33676	33384	
3456	0	32950	33428	
3457	0	32612	33518	
3458	0	32200	33576	
3459	0	31906	33542	
3460	0	32064	33582	
3461	0	32570	33529	
3462	0	32836	33521	
3463	0	33328	33314	
3464	0	33358	32948	
3465	0	32900	32576	
3466	0	32608	32638	
3467	0	32568	32610	
3468	0	32536	32552	
3469	0	33088	32508	
3470	0	33700	32352	
3471	0	33428	32380	
3472	0	33392	32474	
3473	0	33360	32601	
3474	0	33088	32794	
3475	0	32818	32870	
3476	0	32788	33086	
3477	0	32344	33104	
3478	0	31926	33012	
3479	0	32152	32884	
3480	0	32568	32644	
3481	0	32844	32390	
3482	0	33348	32370	
3483	0	33700	32474	
3484	0	33858	32630	
3485	0	33244	32752	
3486	0	32564	32775	
3487	0	32470	32832	
3488	0	32230	32892	
3489	0	31978	33020	
3490	0	32196	33078	
3491	0	32704	33102	
3492	0	32702	32884	
3493	0	32900	32788	
3494	0	32740	32798	
3495	0	32572	32788	
3496	0	32430	32670	
3497	0	32984	32647	
3498	0	33658	32551	
3499	0	33128	32439	
3500	0	33192	32344	
3501	0	33172	32545	
3502	0	32344	32702	
3503	0	32092	32742	
3504	0	33104	32959	
3505	0	32932	33056	
3506	0	32388	33074	
3507	0	32200	33031	
3508	0	32256	33044	
3509	0	32440	32898	
3510	0	33292	32700	
3511	0	33364	32696	
3512	0	33166	32775	
3513	0	33116	32826	
3514	0	33236	32792	
3515	0	34300	32682	
3516	0	32653	32836	
3517	0	32424	32871	
3518	0	32184	32756	
3519	0	32372	32710	
3520	0	32586	32734	
3521	0	32736	32577	
3522	0	32864	32804	
3523	0	33080	32946	
3524	0	33008	33076	
3525	0	33120	33228	
3526	0	32588	33508	
3527	0	32538	33758	
3528	0	32780	33828	
3529	0	33306	33454	
3530	0	33034	33126	
3531	0	32884	32807	
3532	0	32806	32454	
3533	0	32481	32183	
3534	0	32732	31798	
3535	0	33240	31774	
3536	0	33256	31772	
3537	0	33792	31868	
3538	0	33508	32096	
3539	0	32634	32463	
3540	0	32372	32608	
3541	0	32066	32630	
3542	0	31836	32350	
3543	0	32566	32548	
3544	0	32536	32490	
3545	0	31692	32358	
3546	0	30524	32383	
3547	0	30788	32716	
3548	0	32416	32692	
3549	0	33414	32832	
3550	0	33620	33122	
3551	0	33810	33284	
3552	0	33784	33511	
3553	0	34016	33663	
3554	0	33964	33428	
3555	0	32920	33132	
3556	0	32540	32881	
3557	0	32300	32746	
3558	0	32508	32689	
3559	0	32826	32470	
3560	0	32572	32292	
3561	0	32282	32308	
3562	0	32768	31974	
3563	0	33248	31926	
3564	0	33252	32058	
3565	0	33196	32616	
3566	0	33364	32812	
3567	0	33384	33086	
3568	0	33758	33514	
3569	0	33866	33972	
3570	0	33730	33991	
3571	0	33252	33642	
3572	0	33234	33095	
3573	0	33420	32799	
3574	0	33060	32519	
3575	0	32016	32346	
3576	0	31032	32391	
3577	0	30922	32268	
3578	0	31660	32174	
3579	0	32456	32112	
3580	0	32666	32330	
3581	0	32836	32688	
3582	0	33564	33280	
3583	0	33250	33328	
3584	0	32568	33188	
3585	0	31550	33408	
3586	0	31362	33426	
3587	0	32354	33578	
3588	0	33124	33702	
3589	0	33540	33354	
3590	0	33188	32806	
3591	0	33278	32356	
3592	0	33488	32186	
3593	0	33956	32210	
3594	0	33880	32292	
3595	0	33920	32196	
3596	0	33668	32385	
3597	0	33336	32430	
3598	0	33380	32560	
3599	0	33564	32530	
3600	0	32736	32308	
3601	0	31604	32530	
3602	0	31420	32732	
3603	0	30778	32391	
3604	0	31052	32280	
3605	0	32056	32384	
3606	0	32008	32295	
3607	0	32104	32288	
3608	0	32128	32479	
3609	0	32514	32578	
3610	0	32884	32742	
3611	0	33356	32758	
3612	0	33536	33188	
3613	0	33068	33362	
3614	0	33383	33412	
3615	0	33692	33504	
3616	0	33546	33274	
3617	0	33208	33140	
3618	0	33386	33154	
3619	0	33354	32900	
3620	0	33401	32996	
3621	0	33464	33324	
3622	0	33520	33490	
3623	0	33342	33116	
3624	0	33076	32792	
3625	0	32810	32488	
3626	0	32934	32592	
3627	0	32092	32734	
3628	0	31680	32676	
3629	0	31390	32654	
3630	0	31336	32487	
3631	0	31972	32032	
3632	0	32980	32076	
3633	0	33416	31820	
3634	0	32920	32287	
3635	0	31952	32400	
3636	0	31476	32908	
3637	0	31518	33412	
3638	0	31632	33370	
3639	0	32290	32794	
3640	0	33512	32364	
3641	0	35312	32094	
3642	0	35684	31810	
3643	0	34152	31628	
3644	0	32830	32111	
3645	0	31998	32154	
3646	0	31668	32746	
3647	0	31620	33361	
3648	0	31886	33521	
3649	0	32272	33164	
3650	0	32972	32839	
3651	0	32736	32257	
3652	0	32828	31892	
3653	0	33566	31975	
3654	0	34062	32004	
3655	0	34062	32364	
3656	0	33864	32990	
3657	0	33656	33876	
3658	0	33312	34476	
3659	0	32684	34916	
3660	0	32416	34388	
3661	0	32268	33990	
3662	0	31944	33644	
3663	0	32384	33062	
3664	0	32988	32406	
3665	0	33040	31614	
3666	0	32516	31082	
3667	0	32108	31550	
3668	0	32590	31737	
3669	0	32554	32391	
3670	0	32596	32994	
3671	0	32576	33031	
3672	0	32666	34119	
3673	0	33256	34182	
3674	0	33372	34044	
3675	0	33574	33606	
3676	0	33540	33582	
3677	0	33102	33204	
3678	0	33238	33166	
3679	0	32948	32708	
3680	0	32668	31839	
3681	0	32736	31510	
3682	0	32852	31124	
3683	0	32298	30998	
3684	0	31820	30996	
3685	0	32094	31158	
3686	0	32664	31456	
3687	0	32942	32700	
3688	0	32778	33312	
3689	0	32030	33766	
3690	0	31652	33920	
3691	0	32082	34512	
3692	0	32804	34762	
3693	0	33544	35110	
3694	0	33628	34894	
3695	0	33516	34823	
3696	0	33500	34708	
3697	0	33484	35079	
3698	0	33604	34677	
3699	0	32844	33022	
3700	0	32248	31508	
3701	0	32044	29856	
3702	0	33032	28760	
3703	0	32936	28204	
3704	0	33384	27676	
3705	0	33348	28276	
3706	0	32950	29076	
3707	0	32348	30716	
3708	0	32268	32072	
3709	0	32700	32996	
3710	0	32476	33672	
3711	0	32252	34096	
3712	0	32644	34554	
3713	0	32252	34876	
3714	0	31912	35398	
3715	0	32146	36116	
3716	0	32212	35706	
3717	0	32356	35110	
3718	0	33192	34639	
3719	0	33742	34212	
3720	0	33768	33926	
3721	0	33569	33084	
3722	0	33480	32373	
3723	0	33078	31978	
3724	0	32676	31676	
3725	0	32320	31676	
3726	0	32836	32088	
3727	0	33448	32724	
3728	0	33390	33666	
3729	0	33268	33616	
3730	0	33236	33064	
3731	0	32816	33287	
3732	0	32268	32583	
3733	0	32450	32124	
3734	0	32964	32244	
3735	0	33750	31040	
3736	0	33144	29932	
3737	0	32176	29600	
3738	0	31680	30388	
3739	0	31900	31718	
3740	0	32972	32688	
3741	0	32625	32270	
3742	0	31210	31588	
3743	0	30388	31460	
3744	0	32128	31358	
3745	0	33688	31508	
3746	0	34226	32199	
3747	0	33888	32912	
3748	0	33557	33644	
3749	0	33578	34124	
3750	0	33248	34152	
3751	0	32950	34712	
3752	0	32966	34870	
3753	0	32906	35028	
3754	0	33767	34600	
3755	0	33576	34556	
3756	0	33246	34700	
3757	0	32660	34080	
3758	0	31756	33748	
3759	0	31468	34200	
3760	0	31948	34110	
3761	0	32660	34148	
3762	0	33100	33888	
3763	0	33716	33620	
3764	0	33980	34448	
3765	0	33306	33900	
3766	0	32664	32652	
3767	0	31904	31256	
3768	0	31660	30436	
3769	0	32092	29926	
3770	0	32468	29170	
3771	0	32820	28406	
3772	0	33026	27982	
3773	0	32505	28540	
3774	0	32358	29672	
3775	0	32590	30710	
3776	0	32824	31966	
3777	0	32584	32704	
3778	0	32856	33380	
3779	0	32976	34261	
3780	0	32528	35472	
3781	0	32840	35584	
3782	0	33032	35618	
3783	0	33514	35776	
3784	0	33628	35884	
3785	0	33472	35250	
3786	0	33356	33952	
3787	0	32988	33228	
3788	0	32476	33232	
3789	0	32442	33380	
3790	0	32890	33166	
3791	0	32942	32774	
3792	0	32962	32410	
3793	0	32688	32848	
3794	0	32474	33430	
3795	0	32868	32478	
3796	0	32937	31684	
3797	0	32592	30764	
3798	0	33092	30348	
3799	0	32592	30630	
3800	0	32736	32556	
3801	0	32592	33116	
3802	0	32972	32940	
3803	0	33600	33258	
3804	0	33704	33478	
3805	0	33120	33012	
3806	0	32248	32182	
3807	0	31980	32732	
3808	0	32400	33140	
3809	0	31906	33488	
3810	0	32348	33721	
3811	0	33116	34758	
3812	0	33436	33080	
3813	0	33320	30790	
3814	0	32474	28886	
3815	0	32726	28144	
3816	0	32748	28184	
3817	0	32404	28604	
3818	0	32454	29384	
3819	0	32544	31254	
3820	0	32652	32888	
3821	0	32864	34805	
3822	0	32980	37040	
3823	0	33188	38168	
3824	0	33240	37767	
3825	0	32960	36634	
3826	0	33036	35142	
3827	0	33154	34144	
3828	0	32768	33236	
3829	0	32916	32540	
3830	0	33048	32303	
3831	0	32976	33542	
3832	0	32740	33648	
3833	0	32936	32940	
3834	0	32906	31962	
3835	0	32792	32438	
3836	0	32708	32772	
3837	0	32452	33728	
3838	0	32758	35032	
3839	0	32502	35206	
3840	0	32188	33770	
3841	0	32648	32558	
3842	0	32780	31300	
3843	0	32888	30592	
3844	0	32660	30208	
3845	0	32884	29827	
3846	0	33344	28996	
3847	0	33372	28644	
3848	0	32824	30356	
3849	0	32416	32032	
3850	0	32572	32544	
3851	0	32306	33726	
3852	0	32445	34628	
3853	0	32304	33918	
3854	0	32736	33607	
3855	0	33188	33372	
3856	0	32994	33302	
3857	0	33168	34174	
3858	0	33512	34449	
3859	0	33600	34050	
3860	0	33980	33076	
3861	0	33986	32838	
3862	0	33356	32682	
3863	0	32182	33152	
3864	0	32010	32316	
3865	0	32244	31406	
3866	0	32620	30622	
3867	0	32256	30468	
3868	0	32056	31140	
3869	0	32636	31902	
3870	0	32252	32382	
3871	0	32116	32487	
3872	0	31640	32948	
3873	0	31720	33340	
3874	0	31652	33572	
3875	0	32200	34164	
3876	0	33032	36846	
3877	0	33524	36630	
3878	0	33700	35796	
3879	0	33434	35089	
3880	0	33290	34360	
3881	0	32704	33342	
3882	0	32720	32878	
3883	0	32212	32884	
3884	0	33094	32372	
3885	0	33368	30328	
3886	0	33168	29052	
3887	0	33136	28698	
3888	0	33154	29178	
3889	0	33286	29582	
3890	0	33084	30350	
3891	0	32964	31353	
3892	0	32808	32294	
3893	0	32920	33287	
3894	0	33252	34326	
3895	0	33530	34488	
3896	0	33594	33566	
3897	0	33504	33159	
3898	0	32998	33319	
3899	0	32416	33332	
3900	0	32148	33600	
3901	0	32284	33440	
3902	0	32336	33287	
3903	0	32548	33884	
3904	0	32660	34518	
3905	0	32856	35346	
3906	0	32812	37862	
3907	0	32692	38436	
3908	0	32838	38496	
3909	0	32556	36394	
3910	0	32684	34584	
3911	0	32912	32974	
3912	0	32864	31158	
3913	0	32728	29984	
3914	0	32900	28772	
3915	0	33205	27844	
3916	0	33280	27306	
3917	0	33162	26890	
3918	0	32830	26914	
3919	0	32988	28308	
3920	0	32860	28624	
3921	0	33436	31232	
3922	0	33518	33148	
3923	0	33308	34310	
3924	0	32916	34324	
3925	0	32984	34478	
3926	0	32896	34266	
3927	0	32266	33904	
3928	0	32068	33882	
3929	0	32076	34084	
3930	0	32086	33812	
3931	0	32188	33520	
3932	0	32212	32312	
3933	0	32716	31552	
3934	0	33116	31006	
3935	0	33420	31454	
3936	0	33596	32030	
3937	0	33508	32725	
3938	0	33552	33984	
3939	0	33336	34424	
3940	0	33124	34342	
3941	0	32990	34076	
3942	0	32796	33460	
3943	0	32754	33071	
3944	0	32984	33058	
3945	0	32994	32724	
3946	0	33344	32508	
3947	0	33154	32696	
3948	0	32657	33050	
3949	0	32620	33232	
3950	0	32648	32958	
3951	0	32608	33862	
3952	0	32824	35078	
3953	0	33060	36212	
3954	0	33476	35748	
3955	0	33276	34494	
3956	0	32788	34011	
3957	0	31824	34250	
3958	0	31302	33962	
3959	0	31780	32670	
3960	0	32244	31218	
3961	0	32318	29926	
3962	0	32700	28576	
3963	0	32516	28000	
3964	0	32580	28018	
3965	0	32546	28234	
3966	0	32572	29138	
3967	0	32694	30469	
3968	0	33042	32140	
3969	0	33180	33958	
3970	0	32988	34934	
3971	0	32990	34944	
3972	0	33172	35276	
3973	0	33106	35428	
3974	0	33284	34630	
3975	0	33284	34176	
3976	0	33160	33468	
3977	0	32908	32824	
3978	0	32824	32103	
3979	0	32646	31832	
3980	0	32336	32046	
3981	0	32332	32102	
3982	0	32296	32431	
3983	0	32668	33450	
3984	0	33222	34166	
3985	0	33296	34258	
3986	0	33380	35102	
3987	0	33424	36724	
3988	0	33262	34796	
3989	0	32420	33198	
3990	0	31930	31896	
3991	0	31948	31262	
3992	0	31800	30590	
3993	0	31942	31730	
3994	0	32384	33334	
3995	0	32758	32722	
3996	0	33004	31156	
3997	0	33036	30422	
3998	0	33012	30200	
3999	0	33120	30958	
4000	0	33174	31502	
4001	0	33124	31730	
4002	0	32968	32156	
4003	0	32986	33638	
4004	0	33004	35951	
4005	0	33028	36110	
4006	0	32934	35014	
4007	0	32866	33223	
4008	0	32844	32127	
4009	0	32724	32222	
4010	0	32820	32975	
4011	0	32740	32474	
4012	0	32842	31396	
4013	0	32824	30112	
4014	0	32746	29978	
4015	0	32732	30116	
4016	0	32752	30620	
4017	0	32840	31484	
4018	0	32852	32156	
4019	0	32860	32808	
4020	0	32968	33338	
4021	0	33044	33406	
4022	0	32864	33760	
4023	0	32554	33934	
4024	0	32328	34452	
4025	0	32270	34484	
4026	0	32386	34327	
4027	0	32598	34396	
4028	0	32730	34206	
4029	0	32653	34202	
4030	0	32884	34242	
4031	0	33000	33671	
4032	0	32996	33602	
4033	0	32808	33242	
4034	0	32788	33170	
4035	0	32576	32884	
4036	0	32552	32710	
4037	0	32724	33062	
4038	0	32852	36184	
4039	0	32822	37042	
4040	0	32910	36167	
4041	0	32886	33742	
4042	0	32984	32660	
4043	0	32962	31996	
4044	0	32818	31300	
4045	0	32817	30888	
4046	0	32817	31425	
4047	0	32672	32340	
4048	0	32660	31720	
4049	0	32720	31048	
4050	0	32738	30188	
4051	0	32656	29504	
4052	0	32592	28806	
4053	0	32624	28130	
4054	0	32680	27404	
4055	0	32896	27360	
4056	0	33049	28580	
4057	0	33036	31786	
4058	0	33052	33580	
4059	0	32958	33748	
4060	0	32776	34678	
4061	0	32712	35842	
4062	0	32510	35998	
4063	0	32388	35894	
4064	0	32438	36506	
4065	0	32528	36204	
4066	0	32448	34559	
4067	0	32574	33882	
4068	0	32700	33180	
4069	0	32940	32207	
4070	0	33012	32030	
4071	0	33144	32646	
4072	0	33102	33217	
4073	0	33014	33204	
4074	0	32702	32572	
4075	0	32856	32367	
4076	0	32764	31998	
4077	0	32796	31648	
4078	0	32706	32144	
4079	0	32684	32391	
4080	0	32702	32904	
4081	0	32941	33480	
4082	0	33002	33752	
4083	0	32832	33796	
4084	0	32824	33662	
4085	0	32922	33720	
4086	0	32892	33870	
4087	0	32836	33588	
4088	0	32836	33188	
4089	0	32898	32719	
4090	0	32916	32482	
4091	0	33016	32263	
4092	0	32988	32666	
4093	0	32816	32414	
4094	0	32864	31724	
4095	0	32708	32014	
4096	0	32672	32839	
4097	0	32724	33540	
4098	0	32752	33646	
4099	0	32832	33560	
4100	0	32824	33502	
4101	0	32864	32945	
4102	0	32884	32500	
4103	0	32846	32572	
4104	0	32776	32999	
4105	0	32774	32248	
4106	0	32804	31644	
4107	0	32726	32058	
4108	0	32748	31904	
4109	0	32792	31334	
4110	0	32856	31394	
4111	0	32902	31940	
4112	0	32980	33212	
4113	0	32982	34536	
4114	0	33030	35048	
4115	0	33160	36436	
4116	0	32936	35510	
4117	0	32822	33430	
4118	0	32720	32206	
4119	0	32762	31239	
4120	0	32680	30442	
4121	0	32560	30760	
4122	0	32720	30920	
4123	0	32789	30176	
4124	0	32728	29540	
4125	0	32780	30708	
4126	0	32700	31302	
4127	0	32798	31182	
4128	0	32782	32302	
4129	0	32780	33136	
4130	0	32782	33856	
4131	0	32828	34246	
4132	0	32744	34988	
4133	0	32756	34948	
4134	0	32798	34812	
4135	0	32748	33934	
4136	0	32828	33246	
4137	0	32862	32794	
4138	0	32902	33214	
4139	0	32828	33287	
4140	0	32972	33610	
4141	0	32996	33748	
4142	0	32740	34203	
4143	0	32694	35160	
4144	0	32738	34502	
4145	0	32788	33767	
4146	0	32840	32816	
4147	0	32734	31910	
4148	0	32784	30336	
4149	0	32936	29702	
4150	0	33084	29884	
4151	0	33048	29842	
4152	0	32892	30040	
4153	0	32808	30644	
4154	0	32778	31751	
4155	0	32868	32614	
4156	0	32720	33308	
4157	0	32676	33887	
4158	0	32564	34500	
4159	0	32762	34521	
4160	0	32770	35310	
4161	0	32724	35272	
4162	0	32780	35830	
4163	0	32876	35079	
4164	0	32980	33667	
4165	0	33018	32124	
4166	0	32940	30914	
4167	0	32862	30196	
4168	0	32933	30073	
4169	0	32756	30743	
4170	0	32752	31680	
4171	0	32636	32622	
4172	0	32684	34159	
4173	0	32624	34076	
4174	0	32748	33575	
4175	0	32804	33489	
4176	0	32980	33580	
4177	0	32920	33556	
4178	0	32856	32878	
4179	0	32832	33768	
4180	0	32868	33012	
4181	0	32837	32886	
4182	0	32876	31852	
4183	0	32828	30812	
4184	0	32818	29856	
4185	0	32848	29626	
4186	0	32566	30024	
4187	0	32484	30940	
4188	0	32492	32134	
4189	0	32496	33112	
4190	0	32671	33626	
4191	0	32762	33642	
4192	0	33002	33226	
4193	0	33040	33244	
4194	0	32972	32992	
4195	0	32970	32714	
4196	0	32880	33338	
4197	0	32956	33830	
4198	0	32886	34228	
4199	0	32856	34078	
4200	0	32816	34242	
4201	0	32870	33612	
4202	0	32796	32962	
4203	0	32648	32538	
4204	0	32576	32254	
4205	0	32548	32390	
4206	0	32728	33504	
4207	0	32944	33696	
4208	0	32940	33572	
4209	0	32936	33242	
4210	0	32874	33140	
4211	0	32816	33834	
4212	0	32768	33615	
4213	0	32736	32802	
4214	0	32772	31984	
4215	0	32784	31684	
4216	0	32810	31358	
4217	0	32864	31730	
4218	0	32892	31916	
4219	0	32824	31548	
4220	0	32720	31172	
4221	0	32752	31462	
4222	0	32812	32408	
4223	0	32802	34474	
4224	0	32908	36224	
4225	0	32922	35860	
4226	0	32886	34858	
4227	0	32836	33874	
4228	0	32790	33744	
4229	0	32764	33240	
4230	0	32692	32810	
4231	0	32800	32444	
4232	0	32776	31324	
4233	0	32762	30516	
4234	0	32748	30320	
4235	0	32796	30346	
4236	0	32844	30234	
4237	0	32766	31562	
4238	0	32840	32612	
4239	0	32878	32359	
4240	0	32836	32228	
4241	0	32892	31660	
4242	0	32788	31040	
4243	0	32834	31364	
4244	0	32848	31332	
4245	0	32910	32036	
4246	0	32986	32966	
4247	0	32954	33286	
4248	0	32960	35636	
4249	0	32952	35873	
4250	0	32920	34778	
4251	0	32784	34070	
4252	0	32644	33531	
4253	0	32636	32926	
4254	0	32832	32440	
4255	0	33084	32356	
4256	0	33090	32067	
4257	0	32984	32199	
4258	0	32974	32496	
4259	0	32970	33704	
4260	0	32852	34686	
4261	0	32708	34194	
4262	0	32644	33732	
4263	0	32712	33543	
4264	0	32564	33692	
4265	0	32448	33972	
4266	0	32432	34318	
4267	0	32620	34132	
4268	0	32602	33272	
4269	0	32780	32644	
4270	0	32944	32692	
4271	0	32956	33246	
4272	0	32982	31972	
4273	0	32852	31236	
4274	0	32824	30824	
4275	0	32860	30442	
4276	0	32900	30544	
4277	0	33080	30754	
4278	0	33014	31225	
4279	0	32920	31239	
4280	0	32844	31121	
4281	0	32812	31344	
4282	0	32760	31254	
4283	0	32752	31616	
4284	0	32754	32474	
4285	0	32824	33876	
4286	0	32808	34770	
4287	0	32860	35838	
4288	0	32892	35640	
4289	0	32816	35488	
4290	0	32772	34758	
4291	0	32784	34654	
4292	0	32790	34254	
4293	0	32748	33640	
4294	0	32668	33276	
4295	0	32741	32582	
4296	0	32846	31634	
4297	0	32884	30884	
4298	0	32870	30278	
4299	0	32864	29936	
4300	0	32968	29844	
4301	0	32938	30614	
4302	0	32862	31526	
4303	0	32922	32544	
4304	0	32818	33139	
4305	0	32796	33076	
4306	0	32774	33330	
4307	0	32844	33468	
4308	0	32736	33674	
4309	0	32792	34988	
4310	0	32870	35740	
4311	0	32844	35150	
4312	0	32868	34752	
4313	0	32824	34157	
4314	0	32792	33143	
4315	0	32852	32519	
4316	0	32772	32668	
4317	0	32806	32648	
4318	0	32884	32190	
4319	0	32908	32248	
4320	0	32816	32263	
4321	0	32846	32944	
4322	0	32804	32982	
4323	0	32760	32927	
4324	0	32766	32546	
4325	0	32820	32743	
4326	0	32808	32876	
4327	0	32792	32882	
4328	0	32788	32286	
4329	0	32752	31086	
4330	0	32758	30166	
4331	0	32768	29636	
4332	0	32768	29905	
4333	0	32754	31412	
4334	0	32788	31954	
4335	0	32832	32046	
4336	0	32836	32586	
4337	0	32744	33711	
4338	0	32750	34208	
4339	0	32744	34196	
4340	0	32856	34288	
4341	0	32916	34134	
4342	0	32864	33738	
4343	0	32876	33244	
4344	0	32840	32860	
4345	0	32928	32414	
4346	0	32826	31878	
4347	0	32820	32046	
4348	0	32840	32648	
4349	0	32824	33084	
4350	0	32788	33348	
4351	0	32804	33858	
4352	0	32782	33916	
4353	0	32832	33794	
4354	0	32852	33799	
4355	0	32868	33423	
4356	0	32770	33058	
4357	0	32814	32868	
4358	0	32784	32788	
4359	0	32816	32846	
4360	0	32818	34132	
4361	0	32736	34262	
4362	0	32796	33922	
4363	0	32784	33652	
4364	0	32796	33318	
4365	0	32838	34050	
4366	0	32824	34087	
4367	0	32762	33836	
4368	0	32722	33608	
4369	0	32878	32556	
4370	0	32866	31340	
4371	0	32712	31100	
4372	0	32792	30358	
4373	0	32730	30624	
4374	0	32788	31572	
4375	0	32728	31352	
4376	0	32820	30514	
4377	0	32892	30092	
4378	0	32728	29892	
4379	0	32798	30098	
4380	0	32912	30350	
4381	0	32854	30694	
4382	0	32828	31904	
4383	0	32802	32524	
4384	0	32798	33145	
4385	0	32748	33994	
4386	0	32796	34049	
4387	0	32744	34022	
4388	0	32784	33986	
4389	0	32740	33926	
4390	0	32736	33894	
4391	0	32790	33625	
4392	0	32800	33402	
4393	0	32834	33380	
4394	0	32740	33656	
4395	0	32783	33694	
4396	0	32812	34036	
4397	0	32824	34258	
4398	0	32786	33988	
4399	0	32834	33620	
4400	0	32788	33134	
4401	0	32760	33168	
4402	0	32692	33622	
4403	0	32728	33928	
4404	0	32753	33492	
4405	0	32764	33116	
4406	0	32784	32762	
4407	0	32780	32546	
4408	0	32812	32774	
4409	0	32802	33226	
4410	0	32746	32584	
4411	0	32732	32128	
4412	0	32760	31430	
4413	0	32816	30881	
4414	0	32856	31938	
4415	0	32848	31648	
4416	0	32820	31154	
4417	0	32840	30734	
4418	0	32852	30870	
4419	0	32900	31580	
4420	0	32882	32516	
4421	0	32856	32806	
4422	0	32854	32790	
4423	0	32868	32928	
4424	0	32824	33952	
4425	0	32844	35190	
4426	0	32814	34986	
4427	0	32828	35180	
4428	0	32826	34340	
4429	0	32840	34058	
4430	0	32772	33406	
4431	0	32836	33060	
4432	0	32788	32270	
4433	0	32810	31626	
4434	0	32822	31302	
4435	0	32806	32028	
4436	0	32828	31696	
4437	0	32794	31158	
4438	0	32748	30926	
4439	0	32844	31146	
4440	0	32812	31744	
4441	0	32900	32330	
4442	0	32816	32647	
4443	0	32762	32514	
4444	0	32788	32398	
4445	0	32816	32602	
4446	0	32840	32788	
4447	0	32908	32926	
4448	0	32844	32823	
4449	0	32888	32474	
4450	0	32888	32516	
4451	0	32804	32638	
4452	0	32760	32798	
4453	0	32786	33488	
4454	0	32810	33663	
4455	0	32768	33774	
4456	0	32800	33886	
4457	0	32836	33872	
4458	0	32872	34061	
4459	0	32840	33886	
4460	0	32862	33520	
4461	0	32904	33248	
4462	0	32880	32854	
4463	0	32852	32622	
4464	0	32792	32676	
4465	0	32736	32668	
4466	0	32652	32492	
4467	0	32610	33086	
4468	0	32624	33714	
4469	0	32684	34415	
4470	0	32680	34254	
4471	0	32740	33428	
4472	0	32768	32448	
4473	0	32788	32148	
4474	0	32824	31927	
4475	0	32888	32058	
4476	0	32836	31574	
4477	0	32860	31525	
4478	0	32920	31655	
4479	0	32892	31828	
4480	0	32912	31892	
4481	0	32900	32140	
4482	0	32924	32312	
4483	0	32842	32358	
4484	0	33016	32186	
4485	0	33177	32774	
4486	0	33178	33434	
4487	0	33064	33266	
4488	0	32856	32622	
4489	0	32588	32440	
4490	0	32330	32272	
4491	0	32280	31972	
4492	0	32508	32094	
4493	0	32658	32212	
4494	0	32862	32432	
4495	0	32880	32504	
4496	0	32940	32866	
4497	0	32908	33184	
4498	0	32828	33432	
4499	0	32864	33494	
4500	0	32856	33652	
4501	0	32908	33566	
4502	0	32980	33671	
4503	0	32908	33631	
4504	0	32914	33374	
4505	0	32902	32994	
4506	0	32892	33303	
4507	0	32808	33543	
4508	0	32822	33338	
4509	0	32834	33226	
4510	0	32744	33231	
4511	0	32784	33452	
4512	0	32772	33838	
4513	0	32834	33414	
4514	0	32832	32668	
4515	0	32805	31742	
4516	0	32846	31323	
4517	0	32804	31192	
4518	0	32868	31798	
4519	0	32874	32935	
4520	0	32878	34372	
4521	0	32828	33870	
4522	0	32832	32880	
4523	0	32800	32202	
4524	0	32814	31734	
4525	0	32808	30974	
4526	0	32784	30292	
4527	0	32720	30470	
4528	0	32772	31350	
4529	0	32728	31927	
4530	0	32760	32254	
4531	0	32776	32519	
4532	0	32852	32532	
4533	0	32826	32580	
4534	0	32796	32766	
4535	0	32862	33530	
4536	0	32760	34302	
4537	0	32760	34724	
4538	0	32816	34630	
4539	0	32824	34311	
4540	0	32856	33836	
4541	0	32748	33463	
4542	0	32820	32868	
4543	0	32764	32572	
4544	0	32800	32324	
4545	0	32812	32182	
4546	0	32764	32024	
4547	0	32788	32010	
4548	0	32876	32167	
4549	0	32806	32342	
4550	0	32804	32615	
4551	0	32842	32772	
4552	0	32782	32982	
4553	0	32786	32988	
4554	0	32836	33210	
4555	0	32932	33354	
4556	0	32757	33273	
4557	0	32830	33208	
4558	0	32868	33111	
4559	0	32862	33006	
4560	0	32838	32894	
4561	0	32852	32750	
4562	0	32832	32798	
4563	0	32792	32812	
4564	0	32876	32690	
4565	0	32774	32746	
4566	0	32804	32736	
4567	0	32780	32760	
4568	0	32656	32743	
4569	0	32744	32682	
4570	0	32852	32762	
4571	0	32788	32876	
4572	0	32804	33356	
4573	0	32760	33441	
4574	0	32768	33095	
4575	0	32748	32880	
4576	0	32754	32785	
4577	0	32806	32832	
4578	0	32864	32838	
4579	0	32824	32390	
4580	0	32808	32226	
4581	0	32780	31872	
4582	0	32784	31900	
4583	0	32782	32210	
4584	0	32828	32447	
4585	0	32757	32468	
4586	0	32804	32246	
4587	0	32692	32304	
4588	0	32796	32352	
4589	0	32892	32377	
4590	0	32812	32740	
4591	0	32780	32964	
4592	0	32808	33127	
4593	0	32804	33159	
4594	0	32904	33166	
4595	0	32820	32950	
4596	0	32824	32872	
4597	0	32862	32608	
4598	0	32938	32583	
4599	0	32848	32552	
4600	0	32852	32542	
4601	0	32884	32753	
4602	0	32900	33182	
4603	0	32876	33132	
4604	0	32856	33072	
4605	0	32882	32966	
4606	0	32814	32967	
4607	0	32810	32842	
4608	0	32784	32894	
4609	0	32720	32898	
4610	0	32802	32811	
4611	0	32764	32774	
4612	0	32676	32743	
4613	0	32696	32766	
4614	0	32736	32680	
4615	0	32742	32642	
4616	0	32694	32642	
4617	0	32732	32647	
4618	0	32784	32664	
4619	0	32880	32604	
4620	0	32832	32666	
4621	0	32800	32624	
4622	0	32854	32743	
4623	0	32830	32647	
4624	0	32832	32642	
4625	0	32828	32654	
4626	0	32790	32706	
4627	0	32768	32662	
4628	0	32788	32615	
4629	0	32796	32670	
4630	0	32860	32710	
4631	0	32812	32734	
4632	0	32870	32750	
4633	0	32831	32796	
4634	0	32832	32842	
4635	0	32832	32806	
4636	0	32736	32832	
4637	0	32742	32822	
4638	0	32768	32710	
4639	0	32772	32622	
4640	0	32852	32703	
4641	0	32872	32723	
4642	0	32816	32830	
4643	0	32772	32756	
4644	0	32794	32692	
4645	0	32804	32704	
4646	0	32720	32743	
4647	0	32768	32746	
4648	0	32828	32831	
4649	0	32836	32812	
4650	0	32780	32775	
4651	0	32768	32790	
4652	0	32704	32932	
4653	0	32856	32734	
4654	0	32748	32754	
4655	0	32716	32740	
4656	0	32796	32862	
4657	0	32781	32802	
4658	0	32816	32852	
4659	0	32912	32766	
4660	0	32844	32728	
4661	0	32862	32576	
4662	0	32856	32622	
4663	0	32852	32593	
4664	0	32804	32674	
4665	0	32812	32838	
4666	0	32824	32814	
4667	0	32756	32798	
4668	0	32838	32732	
4669	0	32752	32750	
4670	0	32740	32870	
4671	0	32782	32852	
4672	0	32740	32738	
4673	0	32792	32751	
4674	0	32756	32746	
4675	0	32784	32758	
4676	0	32902	32807	
4677	0	32866	32812	
4678	0	32892	32770	
4679	0	32860	32818	
4680	0	32802	32840	
4681	0	32900	32770	
4682	0	32846	32871	
4683	0	32868	32902	
4684	0	32816	32772	
4685	0	32756	32753	
4686	0	32840	32840	
4687	0	32736	32734	
4688	0	32700	32850	
4689	0	32762	32883	
4690	0	32760	32670	
4691	0	32772	32710	
4692	0	32884	32758	
4693	0	32864	32742	
4694	0	32932	32802	
4695	0	32928	32810	
4696	0	32954	32864	
4697	0	32940	32718	
4698	0	32930	32614	
4699	0	33034	32678	
4700	0	32928	32566	
4701	0	33022	32480	
4702	0	32972	32510	
4703	0	32894	32580	
4704	0	32904	32674	
4705	0	32910	32774	
4706	0	32964	32951	
4707	0	33008	32828	
4708	0	32948	32666	
4709	0	32920	32668	
4710	0	32794	32593	
4711	0	32704	32391	
4712	0	32664	32508	
4713	0	32660	32525	
4714	0	32728	32528	
4715	0	32620	32605	
4716	0	32560	32966	
4717	0	32578	33022	
4718	0	32414	33104	
4719	0	32502	33322	
4720	0	32510	33326	
4721	0	32524	33335	
4722	0	32612	33140	
4723	0	32668	33120	
4724	0	32665	33076	
4725	0	32708	32902	
4726	0	32734	32864	
4727	0	32776	32934	
4728	0	32800	32854	
4729	0	32798	32824	
4730	0	32810	32798	
4731	0	32816	32632	
4732	0	32864	32614	
4733	0	32918	32596	
4734	0	32996	32570	
4735	0	32964	32615	
4736	0	32872	32647	
4737	0	32876	32550	
4738	0	32856	32572	
4739	0	32870	32572	
4740	0	32922	32652	
4741	0	32864	32742	
4742	0	32916	32684	
4743	0	32932	32706	
4744	0	32916	32796	
4745	0	32948	32924	
4746	0	32828	32880	
4747	0	32762	32807	
4748	0	32846	32756	
4749	0	32746	32772	
4750	0	32682	32788	
4751	0	32743	32860	
4752	0	32754	32807	
4753	0	32752	32842	
4754	0	32684	32672	
4755	0	32714	32652	
4756	0	32864	32726	
4757	0	32960	32704	
4758	0	32874	32690	
4759	0	32876	32772	
4760	0	32828	32658	
4761	0	32878	32686	
4762	0	32840	32588	
4763	0	32848	32590	
4764	0	32820	32592	
4765	0	32864	32600	
4766	0	32796	32935	
4767	0	32800	33014	
4768	0	32874	33002	
4769	0	32752	32955	
4770	0	32872	32754	
4771	0	32870	32641	
4772	0	32858	32500	
4773	0	32788	32359	
4774	0	32710	32246	
4775	0	32746	32432	
4776	0	32836	32666	
4777	0	32816	32878	
4778	0	32856	33076	
4779	0	32836	33010	
4780	0	32793	32994	
4781	0	32770	32924	
4782	0	32916	32900	
4783	0	32828	32863	
4784	0	32832	32830	
4785	0	32864	32818	
4786	0	32800	32710	
4787	0	32840	32697	
4788	0	32716	32850	
4789	0	32720	32719	
4790	0	32768	32770	
4791	0	32768	32744	
4792	0	32812	32775	
4793	0	32828	32700	
4794	0	32846	32690	
4795	0	32824	32736	
4796	0	32786	32692	
4797	0	32814	32774	
4798	0	32852	32838	
4799	0	32792	32736	
4800	0	32866	32704	
4801	0	32864	32792	
4802	0	32884	32738	
4803	0	32856	32789	
4804	0	32868	32796	
4805	0	32824	32823	
4806	0	32824	32806	
4807	0	32804	32972	
4808	0	32800	32928	
4809	0	32873	32924	
4810	0	32748	32828	
4811	0	32764	32920	
4812	0	32736	32852	
4813	0	32712	32690	
4814	0	32772	32686	
4815	0	32836	32612	
4816	0	32770	32412	
4817	0	32774	32500	
4818	0	32868	32471	
4819	0	32865	32492	
4820	0	32896	32516	
4821	0	32810	32660	
4822	0	32801	32708	
4823	0	32896	32897	
4824	0	32820	32864	
4825	0	32880	32982	
4826	0	32796	32916	
4827	0	32844	33041	
4828	0	32732	33030	
4829	0	32832	33022	
4830	0	32810	32986	
4831	0	32676	32903	
4832	0	32830	32822	
4833	0	32738	32860	
4834	0	32832	32828	
4835	0	32812	32665	
4836	0	32892	32696	
4837	0	32834	32682	
4838	0	32800	32688	
4839	0	32782	32775	
4840	0	32849	32696	
4841	0	32806	32760	
4842	0	32869	32764	
4843	0	32824	32729	
4844	0	32860	32886	
4845	0	32804	32863	
4846	0	32848	32852	
4847	0	32804	32879	
4848	0	32724	32826	
4849	0	32752	32850	
4850	0	32728	32736	
4851	0	32712	32807	
4852	0	32824	32822	
4853	0	32754	32692	
4854	0	32744	32788	
4855	0	32800	32722	
4856	0	32852	32750	
4857	0	32832	32660	
4858	0	32848	32658	
4859	0	32840	32868	
4860	0	32910	32814	
4861	0	32860	32854	
4862	0	32828	32736	
4863	0	32716	32730	
4864	0	32842	32903	
4865	0	32878	32818	
4866	0	32840	32839	
4867	0	32750	32754	
4868	0	32751	32644	
4869	0	32772	32716	
4870	0	32752	32608	
4871	0	32720	32756	
4872	0	32824	32854	
4873	0	32748	32808	
4874	0	32872	32868	
4875	0	32820	32758	
4876	0	32868	32752	
4877	0	32836	32788	
4878	0	32903	32834	
4879	0	32820	32806	
4880	0	32852	32722	
4881	0	32800	32618	
4882	0	32822	32800	
4883	0	32828	32766	
4884	0	32800	32724	
4885	0	32820	32823	
4886	0	32728	32830	
4887	0	32830	32794	
4888	0	32780	32791	
4889	0	32732	32775	
4890	0	32808	32888	
4891	0	32768	32840	
4892	0	32810	32796	
4893	0	32774	32852	
4894	0	32782	32881	
4895	0	32808	32766	
4896	0	32872	32756	
4897	0	32884	32754	
4898	0	32858	32828	
4899	0	32850	32674	
4900	0	32834	32841	
4901	0	32816	32652	
4902	0	32872	32894	
4903	0	32836	32816	
4904	0	32840	32768	
4905	0	32882	32774	
4906	0	32924	32736	
4907	0	32804	32756	
4908	0	32784	32808	
4909	0	32768	32730	
4910	0	32772	32775	
4911	0	32764	32738	
4912	0	32818	32796	
4913	0	32772	32798	
4914	0	32874	32748	
4915	0	32774	32816	
4916	0	32784	32678	
4917	0	32752	32578	
4918	0	32892	32640	
4919	0	32840	32732	
4920	0	32840	32774	
4921	0	32856	32784	
4922	0	32816	32775	
4923	0	32812	32775	
4924	0	32836	32792	
4925	0	32774	32838	
4926	0	32840	32673	
4927	0	32866	32700	
4928	0	32752	32692	
4929	0	32788	32788	
4930	0	32848	32775	
4931	0	32784	32838	
4932	0	32734	32775	
4933	0	32788	32614	
4934	0	32858	32700	
4935	0	32788	32676	
4936	0	32788	32742	
4937	0	32810	32742	
4938	0	32856	32718	
4939	0	32836	32716	
4940	0	32836	32742	
4941	0	32820	32926	
4942	0	32812	32803	
4943	0	32896	32838	
4944	0	32896	32892	
4945	0	32854	32764	
4946	0	32792	32670	
4947	0	32788	32660	
4948	0	32764	32883	
4949	0	32830	32784	
4950	0	32754	32784	
4951	0	32772	32654	
4952	0	32848	32775	
4953	0	32800	32871	
4954	0	32816	32721	
4955	0	32824	32751	
4956	0	32788	32670	
4957	0	32804	32647	
4958	0	32796	32774	
4959	0	32832	32775	
4960	0	32882	32750	
4961	0	32852	32734	
4962	0	32940	32826	
4963	0	32804	32822	
4964	0	32772	32796	
4965	0	32804	32769	
4966	0	32788	32752	
4967	0	32828	32700	
4968	0	32772	32730	
4969	0	32760	32765	
4970	0	32780	32808	
4971	0	32784	32934	
4972	0	32760	32836	
4973	0	32784	32775	
4974	0	32832	32828	
4975	0	32772	32844	
4976	0	32788	32810	
4977	0	32798	32770	
4978	0	32808	32766	
4979	0	32808	32774	
4980	0	32804	32854	
4981	0	32808	32775	
4982	0	32852	32738	
4983	0	32856	32922	
4984	0	32842	32831	
4985	0	32780	32788	
4986	0	32748	32775	
4987	0	32764	32823	
4988	0	32836	32640	
4989	0	32834	32671	
4990	0	32772	32822	
4991	0	32772	32748	
4992	0	32710	32757	
4993	0	32774	32680	
4994	0	32816	32828	
4995	0	32786	32820	
4996	0	32836	32796	
4997	0	32864	32746	
4998	0	32796	32716	
4999	0	32832	32692	
5000	0	32884	32672	
5001	0	32834	32798	
5002	0	32852	32788	
5003	0	32856	32744	
5004	0	32868	32806	
5005	0	32824	32752	
5006	0	32794	32775	
5007	0	32820	32689	
5008	0	32728	32682	
5009	0	32760	32710	
5010	0	32728	32825	
5011	0	32814	32844	
5012	0	32804	32798	
5013	0	32748	32804	
5014	0	32769	32764	
5015	0	32812	32774	
5016	0	32812	32798	
5017	0	32888	32830	
5018	0	32856	32802	
5019	0	32812	32720	
5020	0	32884	32790	
5021	0	32844	32764	
5022	0	32844	32672	
5023	0	32834	32764	
5024	0	32860	32821	
5025	0	32782	32775	
5026	0	32820	32810	
5027	0	32800	32802	
5028	0	32764	32858	
5029	0	32756	32784	
5030	0	32776	32740	
5031	0	32728	32694	
5032	0	32777	32732	
5033	0	32800	32775	
5034	0	32688	32876	
5035	0	32762	32764	
5036	0	32840	32744	
5037	0	32840	32718	
5038	0	32872	32768	
5039	0	32844	32808	
5040	0	32880	32751	
5041	0	32816	32692	
5042	0	32832	32666	
5043	0	32792	32736	
5044	0	32774	32758	
5045	0	32800	32814	
5046	0	32840	32802	
5047	0	32788	32812	
5048	0	32822	32726	
5049	0	32828	32736	
5050	0	32718	32764	
5051	0	32757	32768	
5052	0	32752	32774	
5053	0	32744	32750	
5054	0	32840	32670	
5055	0	32844	32775	
5056	0	32852	32823	
5057	0	32844	32756	
5058	0	32852	32703	
5059	0	32929	32718	
5060	0	32758	32823	
5061	0	32764	32694	
5062	0	32888	32704	
5063	0	32852	32775	
5064	0	32794	32708	
5065	0	32798	32870	
5066	0	32824	32873	
5067	0	32760	32876	
5068	0	32816	32804	
5069	0	32784	32794	
5070	0	32756	32804	
5071	0	32776	32684	
5072	0	32788	32742	
5073	0	32832	32860	
5074	0	32816	32799	
5075	0	32846	32746	
5076	0	32816	32726	
5077	0	32880	32798	
5078	0	32910	32692	
5079	0	32784	32764	
5080	0	32876	32775	
5081	0	32844	32736	
5082	0	32818	32682	
5083	0	32824	32662	
5084	0	32760	32762	
5085	0	32812	32834	
5086	0	32772	32726	
5087	0	32806	32804	
5088	0	32844	32830	
5089	0	32800	32708	
5090	0	32788	32766	
5091	0	32764	32854	
5092	0	32736	32815	
5093	0	32828	32867	
5094	0	32820	32756	
5095	0	32756	32842	
5096	0	32788	32751	
5097	0	32830	32756	
5098	0	32832	32732	
5099	0	32906	32816	
5100	0	32898	32648	
5101	0	32888	32628	
5102	0	32854	32689	
5103	0	32872	32812	
5104	0	32792	32774	
5105	0	32772	32830	
5106	0	32792	32746	
5107	0	32744	32812	
5108	0	32760	32761	
5109	0	32820	32772	
5110	0	32768	32775	
5111	0	32760	32842	
5112	0	32768	32718	
5113	0	32788	32724	
5114	0	32769	32814	
5115	0	32826	32784	
5116	0	32810	32858	
5117	0	32816	32788	
5118	0	32876	32792	
5119	0	32836	32791	
5120	0	32888	32782	
5121	0	32828	32720	
5122	0	32842	32688	
5123	0	32832	32732	
5124	0	32852	32812	
5125	0	32904	32824	
5126	0	32768	32800	
5127	0	32740	32711	
5128	0	32721	32758	
5129	0	32770	32860	
5130	0	32738	32743	
5131	0	32824	32692	
5132	0	32818	32678	
5133	0	32708	32716	
5134	0	32764	32644	
5135	0	32852	32615	
5136	0	32828	32735	
5137	0	32848	32766	
5138	0	32862	32820	
5139	0	32842	32775	
5140	0	32888	32734	
5141	0	32860	32740	
5142	0	32872	32823	
5143	0	32808	32804	
5144	0	32780	32806	
5145	0	32782	32788	
5146	0	32830	32774	
5147	0	32778	32722	
5148	0	32790	32736	
5149	0	32802	32694	
5150	0	32800	32690	
5151	0	32792	32772	
5152	0	32712	32952	
5153	0	32746	32710	
5154	0	32780	32715	
5155	0	32808	32810	
5156	0	32828	32724	
5157	0	32824	32764	
5158	0	32820	32712	
5159	0	32904	32754	
5160	0	32884	32708	
5161	0	32830	32655	
5162	0	32840	32718	
5163	0	32818	32732	
5164	0	32900	32830	
5165	0	32836	32859	
5166	0	32760	32823	
5167	0	32864	32807	
5168	0	32786	32823	
5169	0	32868	32822	
5170	0	32768	32750	
5171	0	32720	32814	
5172	0	32760	32790	
5173	0	32706	32739	
5174	0	32814	32732	
5175	0	32776	32832	
5176	0	32808	32788	
5177	0	32812	32855	
5178	0	32826	32774	
5179	0	32808	32821	
5180	0	32888	32690	
5181	0	32886	32690	
5182	0	32792	32678	
5183	0	32820	32836	
5184	0	32848	32804	
5185	0	32764	32775	
5186	0	32862	32804	
5187	0	32740	32850	
5188	0	32788	32716	
5189	0	32820	32701	
5190	0	32746	32748	
5191	0	32764	32775	
5192	0	32794	32838	
5193	0	32744	32827	
5194	0	32784	32773	
5195	0	32796	32751	
5196	0	32766	32753	
5197	0	32820	32736	
5198	0	32842	32774	
5199	0	32876	32854	
5200	0	32856	32696	
5201	0	32864	32692	
5202	0	32836	32666	
5203	0	32800	32696	
5204	0	32768	32878	
5205	0	32788	32708	
5206	0	32780	32856	
5207	0	32852	32838	
5208	0	32818	32790	
5209	0	32790	32754	
5210	0	32810	32826	
5211	0	32714	32644	
5212	0	32780	32720	
5213	0	32772	32761	
5214	0	32740	32840	
5215	0	32818	32794	
5216	0	32782	32772	
5217	0	32812	32700	
5218	0	32824	32814	
5219	0	32876	32794	
5220	0	32808	32775	
5221	0	32872	32657	
5222	0	32820	32656	
5223	0	32820	32724	
5224	0	32760	32721	
5225	0	32820	32830	
5226	0	32824	32826	
5227	0	32772	32834	
5228	0	32742	32790	
5229	0	32782	32775	
5230	0	32732	32790	
5231	0	32760	32841	
5232	0	32800	32730	
5233	0	32740	32708	
5234	0	32780	32703	
5235	0	32788	32756	
5236	0	32784	32822	
5237	0	32840	32836	
5238	0	32824	32740	
5239	0	32864	32794	
5240	0	32816	32775	
5241	0	32778	32754	
5242	0	32892	32662	
5243	0	32842	32646	
5244	0	32796	32717	
5245	0	32850	32616	
5246	0	32828	32748	
5247	0	32816	32746	
5248	0	32820	32808	
5249	0	32744	32716	
5250	0	32813	32674	
5251	0	32846	32662	
5252	0	32784	32710	
5253	0	32756	32768	
5254	0	32794	32754	
5255	0	32820	32789	
5256	0	32800	32686	
5257	0	32814	32754	
5258	0	32780	32678	
5259	0	32856	32664	
5260	0	32908	32706	
5261	0	32880	32692	
5262	0	32848	32822	
5263	0	32882	32814	
5264	0	32816	32808	
5265	0	32808	32764	
5266	0	32784	32718	
5267	0	32764	32738	
5268	0	32772	32775	
5269	0	32788	32804	
5270	0	32732	32794	
5271	0	32834	32810	
5272	0	32824	32800	
5273	0	32798	32798	
5274	0	32760	32703	
5275	0	32794	32647	
5276	0	32884	32680	
5277	0	32816	32704	
5278	0	32816	32698	
5279	0	32804	32847	
5280	0	32880	32796	
5281	0	32874	32775	
5282	0	32840	32807	
5283	0	32774	32643	
5284	0	32856	32753	
5285	0	32798	32816	
5286	0	32778	32800	
5287	0	32824	32682	
5288	0	32800	32736	
5289	0	32752	32700	
5290	0	32752	32658	
5291	0	32772	32732	
5292	0	32740	32846	
5293	0	32810	32801	
5294	0	32818	32774	
5295	0	32810	32775	
5296	0	32804	32878	
5297	0	32866	32775	
5298	0	32864	32686	
5299	0	32844	32742	
5300	0	32824	32686	
5301	0	32852	32792	
5302	0	32828	32714	
5303	0	32828	32782	
5304	0	32780	32756	
5305	0	32826	32784	
5306	0	32836	32742	
5307	0	32820	32726	
5308	0	32724	32744	
5309	0	32760	32775	
5310	0	32760	32796	
5311	0	32742	32710	
5312	0	32788	32686	
5313	0	32760	32682	
5314	0	32760	32775	
5315	0	32776	32758	
5316	0	32760	32788	
5317	0	32816	32762	
5318	0	32796	32698	
5319	0	32910	32754	
5320	0	32888	32775	
5321	0	32828	32750	
5322	0	32836	32725	
5323	0	32852	32674	
5324	0	32864	32736	
5325	0	32828	32740	
5326	0	32782	32796	
5327	0	32792	32800	
5328	0	32826	32748	
5329	0	32830	32785	
5330	0	32740	32756	
5331	0	32676	32706	
5332	0	32784	32682	
5333	0	32776	32727	
5334	0	32772	32670	
5335	0	32840	32850	
5336	0	32828	32656	
5337	0	32840	32679	
5338	0	32828	32663	
5339	0	32876	32694	
5340	0	32916	32703	
5341	0	32858	32744	
5342	0	32864	32626	
5343	0	32826	32742	
5344	0	32796	32852	
5345	0	32816	32783	
5346	0	32784	32775	
5347	0	32775	32852	
5348	0	32780	32791	
5349	0	32808	32832	
5350	0	32768	32795	
5351	0	32776	32768	
5352	0	32778	32730	
5353	0	32768	32818	
5354	0	32752	32796	
5355	0	32782	32732	
5356	0	32732	32668	
5357	0	32790	32730	
5358	0	32826	32772	
5359	0	32812	32886	
5360	0	32920	32838	
5361	0	32854	32770	
5362	0	32884	32775	
5363	0	32878	32794	
5364	0	32742	32775	
5365	0	32824	32686	
5366	0	32848	32686	
5367	0	32814	32647	
5368	0	32820	32693	
5369	0	32802	32738	
5370	0	32736	32794	
5371	0	32788	32808	
5372	0	32784	32802	
5373	0	32802	32807	
5374	0	32868	32766	
5375	0	32772	32774	
5376	0	32920	32806	
5377	0	32784	32790	
5378	0	32780	32688	
5379	0	32874	32740	
5380	0	32808	32671	
5381	0	32848	32728	
5382	0	32890	32775	
5383	0	32836	32856	
5384	0	32816	32852	
5385	0	32832	32804	
5386	0	32792	32826	
5387	0	32808	32756	
5388	0	32736	32824	
5389	0	32788	32775	
5390	0	32766	32662	
5391	0	32736	32734	
5392	0	32762	32744	
5393	0	32784	32702	
5394	0	32772	32802	
5395	0	32804	32834	
5396	0	32776	32772	
5397	0	32782	32771	
5398	0	32864	32839	
5399	0	32848	32764	
5400	0	32900	32748	
5401	0	32836	32679	
5402	0	32868	32744	
5403	0	32820	32718	
5404	0	32752	32728	
5405	0	32802	32731	
5406	0	32816	32860	
5407	0	32774	32818	
5408	0	32882	32853	
5409	0	32768	32762	
5410	0	32732	32747	
5411	0	32772	32770	
5412	0	32770	32758	
5413	0	32737	32770	
5414	0	32780	32843	
5415	0	32776	32820	
5416	0	32872	32775	
5417	0	32824	32758	
5418	0	32826	32696	
5419	0	32832	32775	
5420	0	32800	32775	
5421	0	32792	32758	
5422	0	32748	32839	
5423	0	32778	32828	
5424	0	32764	32798	
5425	0	32824	32720	
5426	0	32824	32726	
5427	0	32826	32688	
5428	0	32894	32628	
5429	0	32900	32614	
5430	0	32920	32636	
5431	0	32896	32540	
5432	0	32884	32568	
5433	0	32960	32575	
5434	0	32974	32672	
5435	0	32950	32708	
5436	0	32884	32684	
5437	0	32868	32692	
5438	0	32940	32720	
5439	0	32848	32766	
5440	0	32838	32732	
5441	0	32924	32714	
5442	0	32992	32674	
5443	0	32900	32593	
5444	0	32872	32711	
5445	0	32814	32712	
5446	0	32806	32868	
5447	0	32684	32856	
5448	0	32688	32840	
5449	0	32684	32870	
5450	0	32636	32934	
5451	0	32612	32935	
5452	0	32536	33051	
5453	0	32530	33147	
5454	0	32453	33158	
5455	0	32466	33140	
5456	0	32380	33130	
5457	0	32578	33044	
5458	0	32599	32956	
5459	0	32694	32879	
5460	0	32732	32928	
5461	0	32796	32847	
5462	0	32794	32832	
5463	0	32830	32853	
5464	0	32908	32775	
5465	0	32960	32775	
5466	0	32868	32678	
5467	0	32840	32662	
5468	0	32920	32548	
5469	0	32908	32524	
5470	0	32953	32564	
5471	0	32938	32630	
5472	0	32896	32738	
5473	0	32866	32708	
5474	0	32840	32646	
5475	0	32932	32718	
5476	0	32894	32688	
5477	0	32832	32681	
5478	0	32928	32647	
5479	0	32876	32666	
5480	0	32846	32775	
5481	0	32860	32752	
5482	0	32890	32734	
5483	0	32764	32798	
5484	0	32844	32775	
5485	0	32798	32775	
5486	0	32792	32775	
5487	0	32770	32788	
5488	0	32824	32850	
5489	0	32788	32814	
5490	0	32780	32806	
5491	0	32780	32852	
5492	0	32732	32836	
5493	0	32740	32798	
5494	0	32784	32864	
5495	0	32772	32775	
5496	0	32816	32726	
5497	0	32842	32785	
5498	0	32814	32848	
5499	0	32872	32751	
5500	0	32854	32820	
5501	0	32852	32827	
5502	0	32810	32748	
5503	0	32832	32718	
5504	0	32842	32746	
5505	0	32864	32722	
5506	0	32826	32750	
5507	0	32828	32719	
5508	0	32804	32748	
5509	0	32784	32838	
5510	0	32860	32726	
5511	0	32788	32839	
5512	0	32780	32734	
5513	0	32742	32748	
5514	0	32788	32810	
5515	0	32768	32734	
5516	0	32772	32710	
5517	0	32816	32816	
5518	0	32816	32742	
5519	0	32884	32768	
5520	0	32894	32700	
5521	0	32888	32623	
5522	0	32804	32738	
5523	0	32868	32694	
5524	0	32828	32682	
5525	0	32830	32692	
5526	0	32860	32688	
5527	0	32824	32740	
5528	0	32814	32846	
5529	0	32788	32830	
5530	0	32744	32747	
5531	0	32764	32760	
5532	0	32740	32728	
5533	0	32740	32775	
5534	0	32810	32798	
5535	0	32804	32812	
5536	0	32748	32847	
5537	0	32848	32768	
5538	0	32836	32759	
5539	0	32841	32814	
5540	0	32860	32742	
5541	0	32884	32775	
5542	0	32788	32775	
5543	0	32836	32736	
5544	0	32840	32692	
5545	0	32780	32760	
5546	0	32854	32758	
5547	0	32776	32722	
5548	0	32696	32704	
5549	0	32844	32752	
5550	0	32824	32702	
5551	0	32762	32681	
5552	0	32720	32755	
5553	0	32816	32756	
5554	0	32788	32748	
5555	0	32852	32718	
5556	0	32852	32775	
5557	0	32816	32908	
5558	0	32796	32764	
5559	0	32856	32810	
5560	0	32844	32740	
5561	0	32864	32774	
5562	0	32814	32727	
5563	0	32872	32766	
5564	0	32838	32754	
5565	0	32796	32737	
5566	0	32856	32802	
5567	0	32812	32807	
5568	0	32798	32806	
5569	0	32800	32742	
5570	0	32768	32840	
5571	0	32760	32692	
5572	0	32712	32766	
5573	0	32676	32760	
5574	0	32852	32798	
5575	0	32860	32852	
5576	0	32812	32816	
5577	0	32804	32802	
5578	0	32834	32748	
5579	0	32876	32728	
5580	0	32844	32830	
5581	0	32828	32724	
5582	0	32880	32720	
5583	0	32874	32718	
5584	0	32804	32775	
5585	0	32812	32815	
5586	0	32814	32756	
5587	0	32764	32700	
5588	0	32840	32775	
5589	0	32784	32756	
5590	0	32830	32792	
5591	0	32852	32774	
5592	0	32724	32762	
5593	0	32728	32772	
5594	0	32792	32938	
5595	0	32776	32775	
5596	0	32816	32740	
5597	0	32774	32730	
5598	0	32836	32700	
5599	0	32838	32732	
5600	0	32880	32748	
5601	0	32816	32711	
5602	0	32808	32716	
5603	0	32844	32775	
5604	0	32866	32719	
5605	0	32832	32762	
5606	0	32802	32780	
5607	0	32804	32868	
5608	0	32794	32907	
5609	0	32804	32792	
5610	0	32818	32784	
5611	0	32785	32774	
5612	0	32790	32823	
5613	0	32782	32714	
5614	0	32840	32742	
5615	0	32800	32793	
5616	0	32802	32768	
5617	0	32812	32734	
5618	0	32812	32830	
5619	0	32846	32828	
5620	0	32858	32798	
5621	0	32868	32864	
5622	0	32868	32767	
5623	0	32834	32756	
5624	0	32892	32730	
5625	0	32856	32807	
5626	0	32790	32758	
5627	0	32830	32712	
5628	0	32776	32698	
5629	0	32816	32768	
5630	0	32772	32698	
5631	0	32788	32726	
5632	0	32844	32662	
5633	0	32770	32759	
5634	0	32740	32688	
5635	0	32836	32775	
5636	0	32826	32750	
5637	0	32860	32774	
5638	0	32816	32808	
5639	0	32830	32816	
5640	0	32869	32820	
5641	0	32804	32792	
5642	0	32865	32738	
5643	0	32792	32796	
5644	0	32808	32799	
5645	0	32832	32882	
5646	0	32852	32836	
5647	0	32806	32774	
5648	0	32806	32802	
5649	0	32824	32808	
5650	0	32804	32849	
5651	0	32780	32759	
5652	0	32744	32746	
5653	0	32752	32706	
5654	0	32768	32676	
5655	0	32864	32660	
5656	0	32760	32727	
5657	0	32836	32852	
5658	0	32844	32800	
5659	0	32840	32808	
5660	0	32836	32826	
5661	0	32910	32804	
5662	0	32860	32726	
5663	0	32912	32724	
5664	0	32760	32804	
5665	0	32784	32760	
5666	0	32849	32790	
5667	0	32776	32694	
5668	0	32800	32687	
5669	0	32808	32846	
5670	0	32760	32784	
5671	0	32774	32828	
5672	0	32728	32823	
5673	0	32756	32839	
5674	0	32760	32820	
5675	0	32760	32742	
5676	0	32816	32668	
5677	0	32766	32722	
5678	0	32804	32764	
5679	0	32900	32674	
5680	0	32802	32706	
5681	0	32834	32732	
5682	0	32836	32815	
5683	0	32842	32772	
5684	0	32852	32782	
5685	0	32888	32802	
5686	0	32810	32823	
5687	0	32756	32806	
5688	0	32820	32773	
5689	0	32760	32822	
5690	0	32784	32850	
5691	0	32744	32835	
5692	0	32756	32834	
5693	0	32810	32864	
5694	0	32848	32810	
5695	0	32856	32746	
5696	0	32802	32764	
5697	0	32788	32815	
5698	0	32840	32708	
5699	0	32812	32760	
5700	0	32818	32768	
5701	0	32856	32820	
5702	0	32808	32770	
5703	0	32860	32775	
5704	0	32798	32759	
5705	0	32844	32719	
5706	0	32772	32730	
5707	0	32764	32646	
5708	0	32768	32852	
5709	0	32728	32816	
5710	0	32740	32775	
5711	0	32760	32838	
5712	0	32768	32824	
5713	0	32772	32800	
5714	0	32816	32838	
5715	0	32766	32887	
5716	0	32864	32788	
5717	0	32804	32746	
5718	0	32772	32791	
5719	0	32836	32742	
5720	0	32836	32698	
5721	0	32830	32884	
5722	0	32916	32764	
5723	0	32860	32644	
5724	0	32886	32866	
5725	0	32816	32823	
5726	0	32864	32764	
5727	0	32776	32772	
5728	0	32844	32736	
5729	0	32728	32743	
5730	0	32794	32796	
5731	0	32776	32800	
5732	0	32832	32798	
5733	0	32792	32848	
5734	0	32768	32836	
5735	0	32775	32796	
5736	0	32808	32734	
5737	0	32770	32796	
5738	0	32876	32710	
5739	0	32864	32740	
5740	0	32860	32842	
5741	0	32892	32736	
5742	0	32840	32862	
5743	0	32804	32775	
5744	0	32844	32737	
5745	0	32778	32737	
5746	0	32812	32726	
5747	0	32816	32687	
5748	0	32764	32748	
5749	0	32812	32718	
5750	0	32800	32682	
5751	0	32796	32880	
5752	0	32844	32812	
5753	0	32812	32826	
5754	0	32878	32839	
5755	0	32792	32823	
5756	0	32800	32775	
5757	0	32785	32766	
5758	0	32820	32748	
5759	0	32846	32799	
5760	0	32792	32807	
5761	0	32934	32814	
5762	0	32868	32823	
5763	0	32834	32762	
5764	0	32880	32828	
5765	0	32770	32708	
5766	0	32806	32747	
5767	0	32816	32752	
5768	0	32784	32733	
5769	0	32698	32756	
5770	0	32760	32807	
5771	0	32772	32807	
5772	0	32820	32820	
5773	0	32752	32903	
5774	0	32812	32764	
5775	0	32760	32686	
5776	0	32870	32706	
5777	0	32836	32662	
5778	0	32748	32710	
5779	0	32796	32748	
5780	0	32812	32682	
5781	0	32824	32718	
5782	0	32844	32704	
5783	0	32840	32708	
5784	0	32788	32766	
5785	0	32812	32738	
5786	0	32860	32774	
5787	0	32764	32703	
5788	0	32840	32764	
5789	0	32812	32732	
5790	0	32844	32775	
5791	0	32766	32847	
5792	0	32774	32788	
5793	0	32752	32690	
5794	0	32772	32740	
5795	0	32812	32650	
5796	0	32830	32710	
5797	0	32824	32711	
5798	0	32800	32662	
5799	0	32852	32720	
5800	0	32788	32834	
5801	0	32796	32766	
5802	0	32890	32832	
5803	0	32814	32792	
5804	0	32852	32736	
5805	0	32796	32708	
5806	0	32832	32756	
5807	0	32828	32782	
5808	0	32840	32791	
5809	0	32766	32775	
5810	0	32748	32743	
5811	0	32736	32834	
5812	0	32800	32756	
5813	0	32818	32839	
5814	0	32792	32742	
5815	0	32786	32754	
5816	0	32828	32752	
5817	0	32767	32750	
5818	0	32782	32748	
5819	0	32860	32816	
5820	0	32842	32775	
5821	0	32824	32801	
5822	0	32840	32801	
5823	0	32832	32852	
5824	0	32834	32814	
5825	0	32878	32798	
5826	0	32884	32772	
5827	0	32753	32770	
5828	0	32788	32747	
5829	0	32772	32828	
5830	0	32762	32760	
5831	0	32824	32795	
5832	0	32752	32775	
5833	0	32764	32810	
5834	0	32822	32798	
5835	0	32804	32768	
5836	0	32826	32858	
5837	0	32804	32828	
5838	0	32800	32775	
5839	0	32820	32753	
5840	0	32916	32748	
5841	0	32872	32875	
5842	0	32864	32792	
5843	0	32830	32736	
5844	0	32874	32812	
5845	0	32780	32736	
5846	0	32826	32775	
5847	0	32780	32732	
5848	0	32748	32760	
5849	0	32832	32761	
5850	0	32764	32772	
5851	0	32752	32735	
5852	0	32744	32763	
5853	0	32800	32806	
5854	0	32798	32764	
5855	0	32768	32836	
5856	0	32790	32766	
5857	0	32808	32816	
5858	0	32878	32757	
5859	0	32796	32855	
5860	0	32876	32796	
5861	0	32818	32775	
5862	0	32832	32706	
5863	0	32880	32772	
5864	0	32852	32810	
5865	0	32836	32810	
5866	0	32824	32807	
5867	0	32770	32772	
5868	0	32822	32760	
5869	0	32814	32804	
5870	0	32792	32751	
5871	0	32770	32706	
5872	0	32824	32706	
5873	0	32820	32746	
5874	0	32780	32852	
5875	0	32750	32775	
5876	0	32826	32774	
5877	0	32800	32828	
5878	0	32836	32732	
5879	0	32858	32714	
5880	0	32870	32759	
5881	0	32906	32679	
5882	0	32864	32622	
5883	0	32868	32704	
5884	0	32808	32874	
5885	0	32864	32837	
5886	0	32774	32806	
5887	0	32798	32788	
5888	0	32804	32806	
5889	0	32802	32822	
5890	0	32858	32698	
5891	0	32780	32746	
5892	0	32784	32807	
5893	0	32750	32732	
5894	0	32730	32758	
5895	0	32716	32663	
5896	0	32834	32730	
5897	0	32876	32732	
5898	0	32788	32839	
5899	0	32840	32823	
5900	0	32964	32748	
5901	0	32924	32808	
5902	0	32970	32774	
5903	0	32940	32774	
5904	0	32848	32768	
5905	0	32784	32785	
5906	0	32740	32790	
5907	0	32782	32775	
5908	0	32672	32766	
5909	0	32742	32735	
5910	0	32712	32692	
5911	0	32800	32734	
5912	0	32764	32692	
5913	0	32740	32692	
5914	0	32810	32843	
5915	0	32832	32864	
5916	0	32792	32820	
5917	0	32804	32847	
5918	0	32834	32848	
5919	0	32864	32791	
5920	0	32854	32800	
5921	0	32856	32852	
5922	0	32892	32774	
5923	0	32844	32772	
5924	0	32812	32756	
5925	0	32790	32900	
5926	0	32814	32833	
5927	0	32768	32823	
5928	0	32756	32795	
5929	0	32760	32822	
5930	0	32774	32843	
5931	0	32746	32824	
5932	0	32820	32820	
5933	0	32796	32800	
5934	0	32817	32821	
5935	0	32820	32854	
5936	0	32858	32754	
5937	0	32806	32733	
5938	0	32800	32676	
5939	0	32762	32708	
5940	0	32866	32724	
5941	0	32923	32693	
5942	0	32872	32716	
5943	0	32872	32679	
5944	0	32774	32719	
5945	0	32788	32841	
5946	0	32798	32734	
5947	0	32820	32802	
5948	0	32777	32731	
5949	0	32794	32808	
5950	0	32740	32855	
5951	0	32804	32791	
5952	0	32820	32821	
5953	0	32836	32712	
5954	0	32774	32708	
5955	0	32814	32647	
5956	0	32796	32689	
5957	0	32828	32775	
5958	0	32816	32690	
5959	0	32769	32750	
5960	0	32808	32839	
5961	0	32812	32807	
5962	0	32868	32730	
5963	0	32880	32812	
5964	0	32826	32822	
5965	0	32820	32844	
5966	0	32836	32830	
5967	0	32888	32775	
5968	0	32816	32734	
5969	0	32732	32811	
5970	0	32780	32766	
5971	0	32806	32711	
5972	0	32804	32702	
5973	0	32812	32706	
5974	0	32788	32753	
5975	0	32776	32816	
5976	0	32868	32752	
5977	0	32786	32796	
5978	0	32788	32784	
5979	0	32886	32798	
5980	0	32820	32874	
5981	0	32856	32744	
5982	0	32876	32690	
5983	0	32864	32623	
5984	0	32845	32860	
5985	0	32794	32818	
5986	0	32816	32839	
5987	0	32836	32775	
5988	0	32816	32660	
5989	0	32740	32707	
5990	0	32796	32735	
5991	0	32794	32858	
5992	0	32768	32679	
5993	0	32848	32807	
5994	0	32802	32798	
5995	0	32836	32754	
5996	0	32824	32736	
5997	0	32808	32636	
5998	0	32860	32842	
5999	0	32842	32804	
6000	0	32804	32772	
6001	0	32952	32732	
6002	0	32890	32814	
6003	0	32832	32750	
6004	0	32836	32792	
6005	0	32836	32790	
6006	0	32774	32750	
6007	0	32764	32676	
6008	0	32752	32666	
6009	0	32794	32823	
6010	0	32728	32806	
6011	0	32744	32769	
6012	0	32780	32840	
