# OpenSignals Text File Format. Version 1
# {"00:07:80:8C:0A:39": {"position": 0, "device": "biosignalsplux", "device name": "00:07:80:8C:0A:39", "device connection": "BTH00:07:80:8C:0A:39", "sampling rate": 1000, "resolution": [16, 16], "firmware version": 776, "comments": "", "keywords": "", "mode": 0, "sync interval": 2, "date": "2023-3-17", "time": "14:38:59.315", "channels": [1, 2], "sensor": ["EMG", "EMG"], "label": ["CH1", "CH2"], "column": ["nSeq", "DI", "CH1", "CH2"], "special": [{"SpO2": [80, 40, 5, 4, 3, 3]}, {"SpO2": [80, 40, 5, 4, 3, 3]}, {"SpO2": [80, 40, 5, 4, 3, 3]}, {"SpO2": [80, 40, 5, 4, 3, 3]}, {"SpO2": [80, 40, 5, 4, 3, 3]}, {"SpO2": [80, 40, 5, 4, 3, 3]}, {"SpO2": [80, 40, 5, 4, 3, 3]}, {"SpO2": [80, 40, 5, 4, 3, 3]}], "digital IO": [0, 1], "sleeve color": ["gray", "yellow"], "convertedValues": 0}}
# EndOfHeader
0	0	32848	32727	
1	0	32870	32810	
2	0	32784	32775	
3	0	32772	32712	
4	0	32816	32728	
5	0	32864	32786	
6	0	32870	32732	
7	0	32780	32844	
8	0	32788	32830	
9	0	32776	32711	
10	0	32828	32780	
11	0	32792	32752	
12	0	32788	32775	
13	0	32768	32700	
14	0	32868	32658	
15	0	32752	32751	
16	0	32858	32814	
17	0	32802	32704	
18	0	32796	32854	
19	0	32824	32807	
20	0	32786	32726	
21	0	32776	32762	
22	0	32768	32838	
23	0	32804	32686	
24	0	32802	32732	
25	0	32816	32720	
26	0	32852	32800	
27	0	32812	32848	
28	0	32832	32742	
29	0	32904	32772	
30	0	32832	32775	
31	0	32800	32686	
32	0	32890	32775	
33	0	32792	32868	
34	0	32848	32764	
35	0	32824	32775	
36	0	32768	32836	
37	0	32820	32740	
38	0	32808	32792	
39	0	32764	32822	
40	0	32754	32692	
41	0	32770	32738	
42	0	32808	32852	
43	0	32746	32704	
44	0	32888	32760	
45	0	32804	32738	
46	0	32824	32798	
47	0	32816	32778	
48	0	32836	32671	
49	0	32834	32771	
50	0	32870	32853	
51	0	32778	32674	
52	0	32832	32774	
53	0	32794	32806	
54	0	32738	32696	
55	0	32782	32786	
56	0	32806	32834	
57	0	32902	32718	
58	0	32760	32743	
59	0	32804	32804	
60	0	32792	32710	
61	0	32756	32758	
62	0	32870	32773	
63	0	32816	32750	
64	0	32844	32772	
65	0	32832	32748	
66	0	32824	32826	
67	0	32772	32884	
68	0	32814	32734	
69	0	32832	32824	
70	0	32860	32752	
71	0	32792	32775	
72	0	32836	32792	
73	0	32832	32719	
74	0	32832	32788	
75	0	32788	32807	
76	0	32812	32674	
77	0	32784	32816	
78	0	32856	32692	
79	0	32818	32679	
80	0	32804	32796	
81	0	32821	32658	
82	0	32796	32736	
83	0	32820	32775	
84	0	32808	32775	
85	0	32800	32786	
86	0	32789	32762	
87	0	32816	32815	
88	0	32848	32774	
89	0	32810	32727	
90	0	32804	32712	
91	0	32838	32752	
92	0	32808	32750	
93	0	32804	32718	
94	0	32774	32774	
95	0	32820	32679	
96	0	32752	32768	
97	0	32730	32802	
98	0	32870	32718	
99	0	32808	32712	
100	0	32824	32804	
101	0	32808	32768	
102	0	32752	32705	
103	0	32772	32816	
104	0	32794	32742	
105	0	32788	32748	
106	0	32800	32830	
107	0	32844	32742	
108	0	32840	32847	
109	0	32846	32806	
110	0	32802	32638	
111	0	32768	32620	
112	0	32820	32832	
113	0	32772	32823	
114	0	32766	32672	
115	0	32792	32770	
116	0	32836	32768	
117	0	32828	32712	
118	0	32820	32772	
119	0	32770	32803	
120	0	32832	32828	
121	0	32936	32752	
122	0	32820	32770	
123	0	32820	32784	
124	0	32792	32692	
125	0	32820	32728	
126	0	32880	32830	
127	0	32800	32775	
128	0	32900	32766	
129	0	32824	32652	
130	0	32752	32850	
131	0	32844	32740	
132	0	32906	32788	
133	0	32740	32847	
134	0	32804	32680	
135	0	32820	32762	
136	0	32810	32783	
137	0	32801	32816	
138	0	32778	32822	
139	0	32832	32764	
140	0	32812	32692	
141	0	32852	32740	
142	0	32820	32862	
143	0	32812	32812	
144	0	32792	32774	
145	0	32804	32756	
146	0	32794	32892	
147	0	32844	32775	
148	0	32920	32839	
149	0	32884	32748	
150	0	32836	32800	
151	0	32826	32739	
152	0	32784	32767	
153	0	32888	32903	
154	0	32828	32856	
155	0	32832	32844	
156	0	32816	32742	
157	0	32836	32938	
158	0	32860	32924	
159	0	32868	32846	
160	0	32840	32882	
161	0	32870	32744	
162	0	32832	32804	
163	0	32752	32666	
164	0	32596	32538	
165	0	32584	32506	
166	0	32670	32574	
167	0	32612	32423	
168	0	32600	32511	
169	0	32612	32406	
170	0	32604	32423	
171	0	32712	32449	
172	0	32740	32679	
173	0	32816	32673	
174	0	32876	32692	
175	0	32832	32794	
176	0	32840	32892	
177	0	32884	32914	
178	0	32868	32848	
179	0	32860	32852	
180	0	32838	32854	
181	0	32864	32922	
182	0	32936	32942	
183	0	32904	32938	
184	0	33016	32935	
185	0	32916	32869	
186	0	32819	32934	
187	0	32904	32932	
188	0	32902	32860	
189	0	32866	32901	
190	0	32840	32850	
191	0	32850	32852	
192	0	32828	32668	
193	0	32910	32864	
194	0	32868	32768	
195	0	32840	32838	
196	0	32852	32686	
197	0	32792	32770	
198	0	32840	32832	
199	0	32834	32806	
200	0	32808	32702	
201	0	32754	32662	
202	0	32818	32766	
203	0	32800	32698	
204	0	32778	32708	
205	0	32760	32744	
206	0	32780	32800	
207	0	32764	32775	
208	0	32780	32704	
209	0	32832	32722	
210	0	32812	32828	
211	0	32754	32664	
212	0	32800	32638	
213	0	32803	32742	
214	0	32872	32866	
215	0	32802	32733	
216	0	32832	32688	
217	0	32822	32792	
218	0	32830	32775	
219	0	32730	32670	
220	0	32808	32914	
221	0	32744	32768	
222	0	32754	32818	
223	0	32804	32692	
224	0	32892	32775	
225	0	32812	32796	
226	0	32812	32892	
227	0	32868	32838	
228	0	32808	32694	
229	0	32748	32698	
230	0	32816	32756	
231	0	32796	32882	
232	0	32772	32724	
233	0	32832	32706	
234	0	32776	32775	
235	0	32792	32756	
236	0	32872	32735	
237	0	32834	32652	
238	0	32852	32797	
239	0	32816	32788	
240	0	32786	32839	
241	0	32756	32786	
242	0	32760	32694	
243	0	32744	32830	
244	0	32796	32722	
245	0	32850	32804	
246	0	32844	32820	
247	0	32856	32816	
248	0	32844	32725	
249	0	32802	32694	
250	0	32784	32750	
251	0	32812	32818	
252	0	32864	32736	
253	0	32826	32760	
254	0	32804	32756	
255	0	32792	32758	
256	0	32784	32795	
257	0	32792	32768	
258	0	32840	32766	
259	0	32818	32694	
260	0	32866	32772	
261	0	32874	32830	
262	0	32890	32794	
263	0	32786	32766	
264	0	32784	32703	
265	0	32776	32710	
266	0	32836	32775	
267	0	32816	32730	
268	0	32808	32836	
269	0	32812	32674	
270	0	32796	32852	
271	0	32820	32736	
272	0	32764	32842	
273	0	32770	32632	
274	0	32808	32860	
275	0	32760	32775	
276	0	32840	32802	
277	0	32726	32638	
278	0	32808	32678	
279	0	32768	32775	
280	0	32786	32809	
281	0	32800	32719	
282	0	32846	32862	
283	0	32826	32713	
284	0	32830	32775	
285	0	32778	32748	
286	0	32784	32722	
287	0	32814	32762	
288	0	32840	32854	
289	0	32766	32678	
290	0	32814	32848	
291	0	32828	32823	
292	0	32796	32702	
293	0	32794	32708	
294	0	32794	32775	
295	0	32804	32792	
296	0	32852	32698	
297	0	32844	32730	
298	0	32856	32772	
299	0	32766	32727	
300	0	32806	32706	
301	0	32844	32662	
302	0	32846	32822	
303	0	32770	32788	
304	0	32774	32748	
305	0	32774	32647	
306	0	32772	32892	
307	0	32792	32808	
308	0	32858	32759	
309	0	32856	32877	
310	0	32864	32752	
311	0	32796	32756	
312	0	32832	32710	
313	0	32828	32628	
314	0	32862	32870	
315	0	32794	32736	
316	0	32778	32802	
317	0	32858	32724	
318	0	32772	32704	
319	0	32752	32830	
320	0	32762	32854	
321	0	32838	32775	
322	0	32740	32850	
323	0	32772	32828	
324	0	32796	32676	
325	0	32734	32850	
326	0	32788	32775	
327	0	32812	32839	
328	0	32898	32700	
329	0	32820	32764	
330	0	32798	32748	
331	0	32750	32594	
332	0	32834	32796	
333	0	32865	32718	
334	0	32820	32716	
335	0	32836	32818	
336	0	32820	32748	
337	0	32868	32775	
338	0	32832	32774	
339	0	32768	32800	
340	0	32808	32838	
341	0	32748	32640	
342	0	32806	32842	
343	0	32760	32792	
344	0	32796	32728	
345	0	32804	32668	
346	0	32740	32872	
347	0	32760	32722	
348	0	32764	32820	
349	0	32830	32732	
350	0	32840	32714	
351	0	32852	32756	
352	0	32864	32738	
353	0	32820	32702	
354	0	32794	32656	
355	0	32848	32881	
356	0	32828	32806	
357	0	32814	32826	
358	0	32876	32714	
359	0	32784	32855	
360	0	32816	32720	
361	0	32738	32769	
362	0	32808	32774	
363	0	32776	32753	
364	0	32802	32714	
365	0	32852	32858	
366	0	32796	32687	
367	0	32804	32712	
368	0	32832	32844	
369	0	32804	32727	
370	0	32756	32798	
371	0	32832	32754	
372	0	32848	32738	
373	0	32872	32794	
374	0	32860	32774	
375	0	32790	32657	
376	0	32816	32800	
377	0	32774	32690	
378	0	32864	32839	
379	0	32828	32700	
380	0	32780	32775	
381	0	32792	32852	
382	0	32784	32772	
383	0	32840	32814	
384	0	32780	32724	
385	0	32804	32689	
386	0	32848	32721	
387	0	32800	32791	
388	0	32798	32874	
389	0	32820	32678	
390	0	32770	32866	
391	0	32756	32808	
392	0	32828	32846	
393	0	32796	32810	
394	0	32820	32655	
395	0	32808	32794	
396	0	32864	32773	
397	0	32868	32852	
398	0	32864	32746	
399	0	32820	32692	
400	0	32849	32816	
401	0	32832	32748	
402	0	32762	32775	
403	0	32738	32734	
404	0	32822	32831	
405	0	32775	32736	
406	0	32788	32848	
407	0	32844	32704	
408	0	32776	32702	
409	0	32810	32852	
410	0	32856	32710	
411	0	32804	32793	
412	0	32824	32773	
413	0	32790	32672	
414	0	32800	32752	
415	0	32818	32798	
416	0	32788	32750	
417	0	32808	32775	
418	0	32788	32711	
419	0	32760	32774	
420	0	32824	32712	
421	0	32716	32791	
422	0	32796	32762	
423	0	32768	32712	
424	0	32818	32647	
425	0	32778	32774	
426	0	32776	32805	
427	0	32874	32770	
428	0	32788	32756	
429	0	32768	32762	
430	0	32820	32804	
431	0	32896	32840	
432	0	32794	32748	
433	0	32832	32854	
434	0	32856	32794	
435	0	32792	32871	
436	0	32806	32832	
437	0	32840	32810	
438	0	32856	32830	
439	0	32725	32800	
440	0	32888	32770	
441	0	32796	32775	
442	0	32836	32758	
443	0	32775	32708	
444	0	32816	32756	
445	0	32800	32646	
446	0	32784	32890	
447	0	32768	32788	
448	0	32828	32790	
449	0	32804	32804	
450	0	32824	32746	
451	0	32740	32790	
452	0	32836	32752	
453	0	32887	32732	
454	0	32866	32724	
455	0	32834	32775	
456	0	32788	32602	
457	0	32826	32860	
458	0	32833	32668	
459	0	32804	32807	
460	0	32808	32700	
461	0	32820	32775	
462	0	32828	32730	
463	0	32852	32775	
464	0	32764	32620	
465	0	32770	32800	
466	0	32824	32772	
467	0	32880	32838	
468	0	32814	32775	
469	0	32852	32858	
470	0	32816	32870	
471	0	32772	32712	
472	0	32804	32698	
473	0	32832	32734	
474	0	32878	32912	
475	0	32786	32687	
476	0	32804	32716	
477	0	32820	32846	
478	0	32786	32866	
479	0	32788	32762	
480	0	32732	32716	
481	0	32796	32842	
482	0	32774	32728	
483	0	32782	32792	
484	0	32750	32772	
485	0	32788	32714	
486	0	32732	32768	
487	0	32832	32821	
488	0	32868	32680	
489	0	32782	32808	
490	0	32853	32838	
491	0	32804	32913	
492	0	32888	32772	
493	0	32844	32736	
494	0	32752	32826	
495	0	32844	32768	
496	0	32840	32724	
497	0	32748	32800	
498	0	32804	32758	
499	0	32816	32814	
500	0	32834	32679	
501	0	32812	32838	
502	0	32828	32832	
503	0	32800	32660	
504	0	32800	32775	
505	0	32804	32804	
506	0	32808	32740	
507	0	32804	32836	
508	0	32858	32808	
509	0	32840	32800	
510	0	32828	32678	
511	0	32796	32750	
512	0	32854	32745	
513	0	32850	32826	
514	0	32828	32764	
515	0	32828	32748	
516	0	32788	32710	
517	0	32820	32796	
518	0	32872	32838	
519	0	32810	32718	
520	0	32772	32751	
521	0	32680	32801	
522	0	32868	32731	
523	0	32848	32791	
524	0	32772	32678	
525	0	32758	32686	
526	0	32828	32832	
527	0	32834	32772	
528	0	32820	32870	
529	0	32816	32680	
530	0	32824	32882	
531	0	32872	32740	
532	0	32778	32718	
533	0	32796	32696	
534	0	32892	32828	
535	0	32766	32756	
536	0	32780	32718	
537	0	32808	32802	
538	0	32808	32772	
539	0	32816	32718	
540	0	32836	32756	
541	0	32820	32792	
542	0	32824	32775	
543	0	32826	32706	
544	0	32836	32775	
545	0	32842	32821	
546	0	32874	32790	
547	0	32868	32876	
548	0	32800	32792	
549	0	32812	32806	
550	0	32786	32700	
551	0	32896	32799	
552	0	32812	32835	
553	0	32832	32688	
554	0	32808	32788	
555	0	32756	32753	
556	0	32760	32710	
557	0	32790	32712	
558	0	32834	32705	
559	0	32766	32647	
560	0	32784	32830	
561	0	32800	32690	
562	0	32836	32775	
563	0	32780	32631	
564	0	32828	32874	
565	0	32780	32846	
566	0	32756	32775	
567	0	32838	32844	
568	0	32860	32815	
569	0	32804	32750	
570	0	32814	32684	
571	0	32800	32860	
572	0	32804	32846	
573	0	32752	32728	
574	0	32848	32838	
575	0	32854	32686	
576	0	32838	32679	
577	0	32784	32707	
578	0	32828	32814	
579	0	32780	32824	
580	0	32838	32868	
581	0	32800	32775	
582	0	32772	32796	
583	0	32726	32764	
584	0	32808	32761	
585	0	32794	32804	
586	0	32860	32796	
587	0	32782	32760	
588	0	32846	32728	
589	0	32828	32836	
590	0	32804	32784	
591	0	32800	32700	
592	0	32846	32839	
593	0	32824	32816	
594	0	32808	32725	
595	0	32840	32693	
596	0	32826	32856	
597	0	32832	32808	
598	0	32868	32770	
599	0	32814	32828	
600	0	32864	32844	
601	0	32832	32767	
602	0	32812	32708	
603	0	32814	32751	
604	0	32848	32694	
605	0	32836	32762	
606	0	32712	32772	
607	0	32788	32767	
608	0	32836	32852	
609	0	32812	32705	
610	0	32748	32774	
611	0	32848	32660	
612	0	32820	32757	
613	0	32828	32839	
614	0	32896	32662	
615	0	32808	32855	
616	0	32854	32834	
617	0	32810	32710	
618	0	32780	32756	
619	0	32836	32742	
620	0	32800	32740	
621	0	32794	32758	
622	0	32772	32810	
623	0	32830	32799	
624	0	32794	32836	
625	0	32752	32766	
626	0	32808	32764	
627	0	32792	32806	
628	0	32756	32756	
629	0	32812	32830	
630	0	32810	32786	
631	0	32840	32748	
632	0	32768	32748	
633	0	32828	32670	
634	0	32824	32830	
635	0	32836	32799	
636	0	32802	32802	
637	0	32798	32766	
638	0	32818	32684	
639	0	32828	32760	
640	0	32878	32686	
641	0	32772	32790	
642	0	32872	32888	
643	0	32788	32710	
644	0	32828	32725	
645	0	32772	32775	
646	0	32810	32768	
647	0	32778	32770	
648	0	32820	32858	
649	0	32776	32816	
650	0	32780	32711	
651	0	32772	32772	
652	0	32750	32775	
653	0	32832	32679	
654	0	32792	32662	
655	0	32788	32718	
656	0	32868	32860	
657	0	32814	32716	
658	0	32808	32729	
659	0	32848	32832	
660	0	32828	32682	
661	0	32794	32775	
662	0	32762	32798	
663	0	32816	32710	
664	0	32852	32852	
665	0	32812	32868	
666	0	32836	32712	
667	0	32864	32784	
668	0	32802	32800	
669	0	32798	32652	
670	0	32756	32736	
671	0	32764	32796	
672	0	32804	32748	
673	0	32816	32666	
674	0	32816	32736	
675	0	32884	32742	
676	0	32756	32704	
677	0	32868	32822	
678	0	32842	32880	
679	0	32864	32726	
680	0	32840	32811	
681	0	32816	32844	
682	0	32840	32672	
683	0	32820	32745	
684	0	32842	32748	
685	0	32772	32711	
686	0	32764	32864	
687	0	32764	32836	
688	0	32788	32744	
689	0	32832	32784	
690	0	32868	32756	
691	0	32832	32684	
692	0	32826	32802	
693	0	32830	32804	
694	0	32772	32772	
695	0	32886	32728	
696	0	32884	32800	
697	0	32820	32766	
698	0	32840	32766	
699	0	32860	32724	
700	0	32776	32808	
701	0	32774	32798	
702	0	32834	32728	
703	0	32858	32798	
704	0	32808	32834	
705	0	32804	32708	
706	0	32788	32896	
707	0	32772	32840	
708	0	32860	32748	
709	0	32844	32743	
710	0	32796	32746	
711	0	32788	32775	
712	0	32798	32871	
713	0	32746	32632	
714	0	32764	32868	
715	0	32862	32739	
716	0	32790	32706	
717	0	32826	32764	
718	0	32808	32759	
719	0	32813	32816	
720	0	32836	32742	
721	0	32794	32888	
722	0	32762	32734	
723	0	32794	32690	
724	0	32758	32712	
725	0	32784	32807	
726	0	32832	32807	
727	0	32840	32712	
728	0	32826	32758	
729	0	32846	32756	
730	0	32860	32864	
731	0	32854	32728	
732	0	32848	32758	
733	0	32748	32736	
734	0	32872	32802	
735	0	32812	32764	
736	0	32844	32656	
737	0	32794	32818	
738	0	32832	32770	
739	0	32808	32822	
740	0	32774	32842	
741	0	32794	32721	
742	0	32780	32766	
743	0	32866	32714	
744	0	32804	32743	
745	0	32800	32774	
746	0	32892	32692	
747	0	32796	32826	
748	0	32798	32739	
749	0	32840	32802	
750	0	32840	32821	
751	0	32832	32750	
752	0	32832	32775	
753	0	32808	32764	
754	0	32808	32832	
755	0	32820	32726	
756	0	32804	32750	
757	0	32804	32721	
758	0	32768	32830	
759	0	32852	32647	
760	0	32884	32660	
761	0	32832	32800	
762	0	32868	32686	
763	0	32872	32743	
764	0	32804	32741	
765	0	32796	32724	
766	0	32810	32836	
767	0	32816	32743	
768	0	32856	32743	
769	0	32814	32794	
770	0	32880	32839	
771	0	32744	32835	
772	0	32866	32839	
773	0	32810	32716	
774	0	32802	32799	
775	0	32780	32644	
776	0	32782	32774	
777	0	32760	32842	
778	0	32800	32738	
779	0	32804	32736	
780	0	32784	32796	
781	0	32864	32807	
782	0	32812	32734	
783	0	32808	32812	
784	0	32908	32810	
785	0	32744	32684	
786	0	32828	32819	
787	0	32788	32872	
788	0	32824	32695	
789	0	32772	32782	
790	0	32832	32791	
791	0	32856	32698	
792	0	32836	32775	
793	0	32732	32737	
794	0	32804	32753	
795	0	32784	32775	
796	0	32796	32690	
797	0	32820	32791	
798	0	32774	32688	
799	0	32826	32796	
800	0	32844	32732	
801	0	32726	32846	
802	0	32750	32892	
803	0	32788	32734	
804	0	32806	32798	
805	0	32824	32662	
806	0	32856	32896	
807	0	32838	32878	
808	0	32852	32711	
809	0	32814	32734	
810	0	32828	32774	
811	0	32832	32820	
812	0	32856	32839	
813	0	32802	32761	
814	0	32824	32817	
815	0	32856	32732	
816	0	32854	32750	
817	0	32821	32756	
818	0	32812	32697	
819	0	32780	32892	
820	0	32810	32815	
821	0	32860	32740	
822	0	32782	32808	
823	0	32746	32740	
824	0	32796	32839	
825	0	32924	32872	
826	0	32816	32876	
827	0	32844	32967	
828	0	32952	32902	
829	0	32908	32903	
830	0	32842	32870	
831	0	32900	32844	
832	0	32892	32814	
833	0	32840	32842	
834	0	32780	32710	
835	0	32742	32620	
836	0	32660	32556	
837	0	32584	32517	
838	0	32680	32534	
839	0	32628	32395	
840	0	32652	32464	
841	0	32544	32404	
842	0	32672	32434	
843	0	32660	32640	
844	0	32788	32616	
845	0	32808	32710	
846	0	32830	32698	
847	0	32836	32842	
848	0	32816	32896	
849	0	32800	32752	
850	0	32816	32903	
851	0	32894	32827	
852	0	32840	32898	
853	0	32848	32951	
854	0	32952	32910	
855	0	32936	32935	
856	0	32944	32895	
857	0	32832	32919	
858	0	32878	32935	
859	0	32878	32818	
860	0	32844	32838	
861	0	32826	32879	
862	0	32832	32760	
863	0	32874	32804	
864	0	32844	32856	
865	0	32768	32764	
866	0	32836	32868	
867	0	32836	32764	
868	0	32794	32794	
869	0	32824	32719	
870	0	32776	32816	
871	0	32824	32792	
872	0	32756	32655	
873	0	32788	32798	
874	0	32800	32742	
875	0	32732	32740	
876	0	32824	32672	
877	0	32796	32818	
878	0	32836	32796	
879	0	32796	32724	
880	0	32764	32766	
881	0	32784	32734	
882	0	32808	32831	
883	0	32857	32660	
884	0	32702	32691	
885	0	32736	32802	
886	0	32874	32752	
887	0	32834	32879	
888	0	32804	32663	
889	0	32844	32806	
890	0	32784	32758	
891	0	32770	32862	
892	0	32806	32774	
893	0	32846	32832	
894	0	32868	32809	
895	0	32754	32754	
896	0	32774	32722	
897	0	32812	32796	
898	0	32756	32718	
899	0	32844	32726	
900	0	32796	32788	
901	0	32776	32788	
902	0	32752	32634	
903	0	32772	32775	
904	0	32812	32838	
905	0	32808	32682	
906	0	32830	32768	
907	0	32820	32844	
908	0	32804	32864	
909	0	32808	32758	
910	0	32820	32798	
911	0	32796	32831	
912	0	32814	32764	
913	0	32856	32622	
914	0	32796	32801	
915	0	32840	32828	
916	0	32832	32742	
917	0	32754	32852	
918	0	32758	32711	
919	0	32800	32743	
920	0	32740	32868	
921	0	32786	32736	
922	0	32750	32734	
923	0	32794	32799	
924	0	32854	32843	
925	0	32788	32708	
926	0	32806	32820	
927	0	32866	32807	
928	0	32908	32702	
929	0	32844	32751	
930	0	32780	32775	
931	0	32816	32722	
932	0	32784	32775	
933	0	32804	32808	
934	0	32792	32712	
935	0	32788	32698	
936	0	32784	32751	
937	0	32804	32828	
938	0	32780	32846	
939	0	32808	32662	
940	0	32808	32814	
941	0	32784	32682	
942	0	32812	32785	
943	0	32884	32828	
944	0	32806	32682	
945	0	32840	32770	
946	0	32832	32804	
947	0	32860	32754	
948	0	32784	32830	
949	0	32828	32690	
950	0	32762	32764	
951	0	32846	32794	
952	0	32826	32812	
953	0	32824	32727	
954	0	32808	32766	
955	0	32880	32788	
956	0	32788	32748	
957	0	32802	32692	
958	0	32804	32632	
959	0	32748	32774	
960	0	32828	32756	
961	0	32784	32690	
962	0	32800	32896	
963	0	32776	32802	
964	0	32822	32718	
965	0	32772	32871	
966	0	32836	32806	
967	0	32868	32742	
968	0	32852	32768	
969	0	32874	32718	
970	0	32836	32826	
971	0	32804	32774	
972	0	32854	32687	
973	0	32808	32910	
974	0	32808	32806	
975	0	32716	32734	
976	0	32784	32810	
977	0	32760	32678	
978	0	32788	32750	
979	0	32804	32815	
980	0	32836	32775	
981	0	32828	32723	
982	0	32808	32875	
983	0	32838	32791	
984	0	32874	32692	
985	0	32780	32806	
986	0	32800	32830	
987	0	32864	32706	
988	0	32754	32865	
989	0	32791	32792	
990	0	32748	32772	
991	0	32734	32748	
992	0	32836	32768	
993	0	32886	32820	
994	0	32816	32770	
995	0	32794	32704	
996	0	32804	32796	
997	0	32842	32837	
998	0	32800	32756	
999	0	32780	32752	
1000	0	32780	32742	
1001	0	32800	32654	
1002	0	32736	32766	
1003	0	32800	32732	
1004	0	32808	32711	
1005	0	32832	32696	
1006	0	32828	32775	
1007	0	32846	32728	
1008	0	32884	32886	
1009	0	32822	32664	
1010	0	32830	32775	
1011	0	32822	32775	
1012	0	32796	32859	
1013	0	32740	32852	
1014	0	32756	32820	
1015	0	32800	32705	
1016	0	32792	32700	
1017	0	32812	32814	
1018	0	32792	32748	
1019	0	32826	32754	
1020	0	32860	32775	
1021	0	32848	32766	
1022	0	32786	32802	
1023	0	32798	32692	
1024	0	32708	32692	
1025	0	32828	32836	
1026	0	32804	32798	
1027	0	32808	32730	
1028	0	32774	32822	
1029	0	32810	32807	
1030	0	32860	32763	
1031	0	32790	32812	
1032	0	32808	32740	
1033	0	32792	32758	
1034	0	32872	32706	
1035	0	32860	32836	
1036	0	32856	32814	
1037	0	32844	32707	
1038	0	32760	32766	
1039	0	32856	32748	
1040	0	32852	32732	
1041	0	32804	32647	
1042	0	32812	32796	
1043	0	32780	32792	
1044	0	32784	32692	
1045	0	32776	32815	
1046	0	32829	32826	
1047	0	32796	32788	
1048	0	32844	32807	
1049	0	32878	32792	
1050	0	32768	32647	
1051	0	32753	32755	
1052	0	32716	32817	
1053	0	32780	32736	
1054	0	32824	32896	
1055	0	32848	32751	
1056	0	32874	32698	
1057	0	32764	32806	
1058	0	32782	32743	
1059	0	32844	32798	
1060	0	32812	32716	
1061	0	32772	32852	
1062	0	32818	32812	
1063	0	32796	32675	
1064	0	32806	32695	
1065	0	32816	32762	
1066	0	32846	32742	
1067	0	32808	32763	
1068	0	32804	32808	
1069	0	32842	32648	
1070	0	32844	32818	
1071	0	32842	32804	
1072	0	32772	32698	
1073	0	32806	32812	
1074	0	32774	32828	
1075	0	32804	32678	
1076	0	32812	32788	
1077	0	32808	32730	
1078	0	32908	32801	
1079	0	32782	32692	
1080	0	32818	32838	
1081	0	32792	32755	
1082	0	32804	32772	
1083	0	32782	32799	
1084	0	32812	32697	
1085	0	32777	32770	
1086	0	32776	32823	
1087	0	32864	32718	
1088	0	32864	32775	
1089	0	32828	32792	
1090	0	32848	32743	
1091	0	32822	32854	
1092	0	32808	32864	
1093	0	32868	32727	
1094	0	32816	32734	
1095	0	32888	32828	
1096	0	32812	32761	
1097	0	32832	32791	
1098	0	32812	32742	
1099	0	32818	32831	
1100	0	32792	32806	
1101	0	32780	32757	
1102	0	32812	32839	
1103	0	32824	32806	
1104	0	32802	32656	
1105	0	32856	32788	
1106	0	32820	32802	
1107	0	32828	32876	
1108	0	32784	32873	
1109	0	32812	32703	
1110	0	32806	32742	
1111	0	32764	32732	
1112	0	32834	32740	
1113	0	32888	32746	
1114	0	32836	32682	
1115	0	32844	32784	
1116	0	32778	32704	
1117	0	32834	32828	
1118	0	32800	32707	
1119	0	32780	32843	
1120	0	32860	32871	
1121	0	32844	32775	
1122	0	32820	32764	
1123	0	32788	32799	
1124	0	32784	32652	
1125	0	32842	32834	
1126	0	32846	32786	
1127	0	32848	32824	
1128	0	32838	32794	
1129	0	32920	32800	
1130	0	32812	32775	
1131	0	32792	32724	
1132	0	32814	32698	
1133	0	32748	32676	
1134	0	32848	32760	
1135	0	32810	32726	
1136	0	32852	32758	
1137	0	32762	32850	
1138	0	32832	32670	
1139	0	32808	32796	
1140	0	32880	32807	
1141	0	32720	32724	
1142	0	32832	32838	
1143	0	32830	32750	
1144	0	32760	32820	
1145	0	32754	32838	
1146	0	32792	32720	
1147	0	32834	32818	
1148	0	32792	32855	
1149	0	32736	32711	
1150	0	32832	32764	
1151	0	32846	32775	
1152	0	32828	32695	
1153	0	32820	32738	
1154	0	32864	32756	
1155	0	32784	32650	
1156	0	32836	32834	
1157	0	32798	32758	
1158	0	32790	32690	
1159	0	32820	32732	
1160	0	32788	32711	
1161	0	32784	32838	
1162	0	32792	32806	
1163	0	32798	32724	
1164	0	32816	32802	
1165	0	32830	32806	
1166	0	32824	32838	
1167	0	32868	32742	
1168	0	32812	32730	
1169	0	32824	32751	
1170	0	32818	32786	
1171	0	32780	32631	
1172	0	32804	32730	
1173	0	32872	32684	
1174	0	32866	32810	
1175	0	32796	32798	
1176	0	32788	32680	
1177	0	32769	32832	
1178	0	32716	32704	
1179	0	32728	32738	
1180	0	32808	32772	
1181	0	32841	32834	
1182	0	32788	32751	
1183	0	32812	32659	
1184	0	32860	32775	
1185	0	32848	32752	
1186	0	32820	32822	
1187	0	32776	32844	
1188	0	32844	32818	
1189	0	32798	32800	
1190	0	32808	32838	
1191	0	32884	32775	
1192	0	32832	32640	
1193	0	32800	32788	
1194	0	32804	32742	
1195	0	32766	32698	
1196	0	32876	32796	
1197	0	32756	32732	
1198	0	32848	32736	
1199	0	32784	32822	
1200	0	32782	32762	
1201	0	32772	32702	
1202	0	32886	32736	
1203	0	32824	32846	
1204	0	32820	32774	
1205	0	32792	32788	
1206	0	32846	32838	
1207	0	32742	32750	
1208	0	32868	32680	
1209	0	32834	32790	
1210	0	32822	32874	
1211	0	32904	32714	
1212	0	32788	32754	
1213	0	32766	32814	
1214	0	32824	32775	
1215	0	32828	32742	
1216	0	32758	32766	
1217	0	32854	32814	
1218	0	32832	32742	
1219	0	32838	32734	
1220	0	32756	32767	
1221	0	32774	32704	
1222	0	32844	32740	
1223	0	32772	32844	
1224	0	32810	32744	
1225	0	32792	32708	
1226	0	32800	32802	
1227	0	32832	32760	
1228	0	32792	32775	
1229	0	32836	32754	
1230	0	32836	32767	
1231	0	32796	32772	
1232	0	32844	32740	
1233	0	32784	32860	
1234	0	32800	32738	
1235	0	32848	32810	
1236	0	32832	32766	
1237	0	32830	32694	
1238	0	32784	32800	
1239	0	32770	32759	
1240	0	32794	32849	
1241	0	32876	32726	
1242	0	32850	32746	
1243	0	32762	32756	
1244	0	32762	32703	
1245	0	32744	32806	
1246	0	32784	32831	
1247	0	32796	32688	
1248	0	32868	32775	
1249	0	32824	32774	
1250	0	32826	32732	
1251	0	32804	32775	
1252	0	32816	32774	
1253	0	32776	32663	
1254	0	32804	32774	
1255	0	32838	32729	
1256	0	32756	32836	
1257	0	32800	32726	
1258	0	32862	32775	
1259	0	32846	32808	
1260	0	32806	32726	
1261	0	32844	32804	
1262	0	32880	32812	
1263	0	32852	32710	
1264	0	32792	32820	
1265	0	32740	32775	
1266	0	32788	32760	
1267	0	32820	32820	
1268	0	32862	32775	
1269	0	32852	32775	
1270	0	32804	32761	
1271	0	32738	32704	
1272	0	32856	32710	
1273	0	32796	32908	
1274	0	32840	32663	
1275	0	32852	32788	
1276	0	32846	32706	
1277	0	32850	32775	
1278	0	32728	32775	
1279	0	32820	32678	
1280	0	32789	32800	
1281	0	32768	32716	
1282	0	32838	32799	
1283	0	32774	32828	
1284	0	32808	32834	
1285	0	32840	32748	
1286	0	32906	32720	
1287	0	32856	32746	
1288	0	32804	32764	
1289	0	32852	32770	
1290	0	32786	32679	
1291	0	32844	32756	
1292	0	32816	32756	
1293	0	32818	32756	
1294	0	32844	32764	
1295	0	32812	32828	
1296	0	32824	32792	
1297	0	32810	32720	
1298	0	32884	32851	
1299	0	32784	32850	
1300	0	32778	32678	
1301	0	32756	32854	
1302	0	32808	32775	
1303	0	32824	32684	
1304	0	32768	32854	
1305	0	32728	32802	
1306	0	32804	32771	
1307	0	32832	32810	
1308	0	32806	32750	
1309	0	32900	32836	
1310	0	32836	32850	
1311	0	32802	32742	
1312	0	32890	32676	
1313	0	32846	32660	
1314	0	32824	32768	
1315	0	32772	32730	
1316	0	32732	32826	
1317	0	32804	32775	
1318	0	32864	32795	
1319	0	32844	32818	
1320	0	32744	32714	
1321	0	32748	32774	
1322	0	32844	32810	
1323	0	32812	32720	
1324	0	32770	32786	
1325	0	32836	32790	
1326	0	32776	32716	
1327	0	32832	32876	
1328	0	32840	32696	
1329	0	32804	32723	
1330	0	32818	32796	
1331	0	32812	32817	
1332	0	32816	32718	
1333	0	32842	32738	
1334	0	32794	32872	
1335	0	32884	32700	
1336	0	32803	32806	
1337	0	32824	32764	
1338	0	32852	32724	
1339	0	32820	32767	
1340	0	32792	32690	
1341	0	32786	32872	
1342	0	32816	32775	
1343	0	32800	32738	
1344	0	32838	32774	
1345	0	32849	32760	
1346	0	32746	32775	
1347	0	32812	32766	
1348	0	32840	32816	
1349	0	32842	32750	
1350	0	32824	32756	
1351	0	32830	32759	
1352	0	32870	32636	
1353	0	32808	32775	
1354	0	32800	32736	
1355	0	32794	32697	
1356	0	32816	32876	
1357	0	32872	32868	
1358	0	32858	32610	
1359	0	32790	32738	
1360	0	32756	32775	
1361	0	32816	32656	
1362	0	32780	32770	
1363	0	32822	32816	
1364	0	32791	32679	
1365	0	32774	32826	
1366	0	32888	32850	
1367	0	32770	32770	
1368	0	32768	32827	
1369	0	32816	32784	
1370	0	32816	32730	
1371	0	32792	32854	
1372	0	32840	32838	
1373	0	32808	32682	
1374	0	32820	32756	
1375	0	32796	32804	
1376	0	32798	32752	
1377	0	32764	32816	
1378	0	32840	32825	
1379	0	32808	32602	
1380	0	32760	32814	
1381	0	32894	32718	
1382	0	32808	32774	
1383	0	32880	32846	
1384	0	32796	32814	
1385	0	32846	32838	
1386	0	32862	32768	
1387	0	32836	32716	
1388	0	32842	32746	
1389	0	32852	32756	
1390	0	32826	32718	
1391	0	32856	32775	
1392	0	32822	32764	
1393	0	32780	32806	
1394	0	32848	32730	
1395	0	32788	32756	
1396	0	32783	32760	
1397	0	32762	32758	
1398	0	32752	32775	
1399	0	32812	32615	
1400	0	32765	32788	
1401	0	32848	32823	
1402	0	32794	32643	
1403	0	32752	32794	
1404	0	32764	32839	
1405	0	32840	32646	
1406	0	32892	32758	
1407	0	32804	32686	
1408	0	32756	32793	
1409	0	32760	32839	
1410	0	32796	32684	
1411	0	32866	32816	
1412	0	32872	32824	
1413	0	32804	32800	
1414	0	32832	32734	
1415	0	32804	32758	
1416	0	32808	32636	
1417	0	32816	32766	
1418	0	32838	32708	
1419	0	32852	32871	
1420	0	32812	32796	
1421	0	32818	32708	
1422	0	32780	32852	
1423	0	32864	32774	
1424	0	32808	32641	
1425	0	32808	32831	
1426	0	32788	32716	
1427	0	32820	32768	
1428	0	32868	32724	
1429	0	32814	32728	
1430	0	32824	32762	
1431	0	32844	32743	
1432	0	32816	32807	
1433	0	32780	32766	
1434	0	32794	32700	
1435	0	32784	32802	
1436	0	32784	32734	
1437	0	32788	32822	
1438	0	32816	32772	
1439	0	32816	32679	
1440	0	32792	32804	
1441	0	32825	32830	
1442	0	32802	32700	
1443	0	32832	32842	
1444	0	32812	32849	
1445	0	32830	32787	
1446	0	32804	32748	
1447	0	32810	32908	
1448	0	32812	32760	
1449	0	32832	32775	
1450	0	32804	32731	
1451	0	32820	32708	
1452	0	32746	32688	
1453	0	32800	32662	
1454	0	32842	32857	
1455	0	32852	32838	
1456	0	32792	32664	
1457	0	32826	32734	
1458	0	32876	32800	
1459	0	32728	32674	
1460	0	32796	32804	
1461	0	32820	32686	
1462	0	32804	32698	
1463	0	32808	32764	
1464	0	32808	32743	
1465	0	32801	32790	
1466	0	32840	32699	
1467	0	32840	32808	
1468	0	32756	32678	
1469	0	32864	32791	
1470	0	32836	32832	
1471	0	32800	32692	
1472	0	32784	32792	
1473	0	32902	32800	
1474	0	32814	32702	
1475	0	32870	32775	
1476	0	32824	32790	
1477	0	32784	32646	
1478	0	32718	32738	
1479	0	32784	32826	
1480	0	32798	32824	
1481	0	32776	32788	
1482	0	32850	32715	
1483	0	32810	32854	
1484	0	32734	32852	
1485	0	32800	32706	
1486	0	32824	32839	
1487	0	32824	32812	
1488	0	32872	32775	
1489	0	32872	32852	
1490	0	32800	32806	
1491	0	32834	32772	
1492	0	32864	32839	
1493	0	32834	32775	
1494	0	32870	32734	
1495	0	32802	32660	
1496	0	32824	32694	
1497	0	32816	32852	
1498	0	32788	32742	
1499	0	32804	32870	
1500	0	32810	32810	
1501	0	32772	32687	
1502	0	32740	32824	
1503	0	32783	32840	
1504	0	32832	32712	
1505	0	32832	32852	
1506	0	32816	32858	
1507	0	32958	32924	
1508	0	32942	32903	
1509	0	32900	32852	
1510	0	32908	32876	
1511	0	32872	32926	
1512	0	32868	32675	
1513	0	32788	32754	
1514	0	32764	32648	
1515	0	32672	32606	
1516	0	32636	32519	
1517	0	32616	32449	
1518	0	32632	32486	
1519	0	32624	32442	
1520	0	32610	32483	
1521	0	32672	32519	
1522	0	32700	32534	
1523	0	32762	32676	
1524	0	32754	32724	
1525	0	32796	32808	
1526	0	32788	32802	
1527	0	32860	32740	
1528	0	32880	32844	
1529	0	32892	32875	
1530	0	32852	32847	
1531	0	32892	33023	
1532	0	32862	32855	
1533	0	32900	32974	
1534	0	32958	32901	
1535	0	32888	32852	
1536	0	32920	32968	
1537	0	32856	32810	
1538	0	32882	32800	
1539	0	32860	32924	
1540	0	32848	32862	
1541	0	32836	32770	
1542	0	32876	32876	
1543	0	32820	32839	
1544	0	32868	32824	
1545	0	32852	32719	
1546	0	32824	32826	
1547	0	32760	32862	
1548	0	32844	32738	
1549	0	32762	32791	
1550	0	32783	32786	
1551	0	32744	32692	
1552	0	32788	32772	
1553	0	32764	32656	
1554	0	32777	32826	
1555	0	32754	32670	
1556	0	32756	32771	
1557	0	32836	32732	
1558	0	32836	32761	
1559	0	32844	32748	
1560	0	32804	32659	
1561	0	32740	32770	
1562	0	32836	32810	
1563	0	32820	32650	
1564	0	32854	32775	
1565	0	32800	32710	
1566	0	32828	32756	
1567	0	32864	32842	
1568	0	32810	32760	
1569	0	32864	32756	
1570	0	32844	32750	
1571	0	32788	32790	
1572	0	32836	32706	
1573	0	32750	32838	
1574	0	32808	32775	
1575	0	32836	32648	
1576	0	32800	32815	
1577	0	32772	32850	
1578	0	32808	32711	
1579	0	32820	32839	
1580	0	32758	32736	
1581	0	32864	32742	
1582	0	32740	32766	
1583	0	32792	32903	
1584	0	32804	32692	
1585	0	32816	32745	
1586	0	32798	32775	
1587	0	32830	32798	
1588	0	32852	32774	
1589	0	32785	32820	
1590	0	32824	32688	
1591	0	32828	32807	
1592	0	32840	32810	
1593	0	32832	32710	
1594	0	32726	32774	
1595	0	32842	32792	
1596	0	32804	32729	
1597	0	32808	32788	
1598	0	32792	32694	
1599	0	32828	32814	
1600	0	32784	32847	
1601	0	32824	32786	
1602	0	32836	32598	
1603	0	32836	32854	
1604	0	32836	32740	
1605	0	32794	32740	
1606	0	32740	32698	
1607	0	32772	32768	
1608	0	32824	32828	
1609	0	32744	32704	
1610	0	32828	32646	
1611	0	32844	32846	
1612	0	32832	32866	
1613	0	32848	32823	
1614	0	32842	32674	
1615	0	32864	32821	
1616	0	32736	32725	
1617	0	32846	32670	
1618	0	32774	32767	
1619	0	32782	32816	
1620	0	32748	32746	
1621	0	32810	32798	
1622	0	32871	32730	
1623	0	32824	32804	
1624	0	32794	32852	
1625	0	32796	32812	
1626	0	32818	32732	
1627	0	32810	32821	
1628	0	32902	32790	
1629	0	32868	32628	
1630	0	32838	32807	
1631	0	32836	32742	
1632	0	32844	32700	
1633	0	32804	32696	
1634	0	32804	32742	
1635	0	32784	32706	
1636	0	32778	32830	
1637	0	32768	32727	
1638	0	32814	32800	
1639	0	32810	32794	
1640	0	32772	32807	
1641	0	32754	32730	
1642	0	32824	32820	
1643	0	32842	32840	
1644	0	32880	32764	
1645	0	32852	32741	
1646	0	32884	32810	
1647	0	32816	32806	
1648	0	32852	32695	
1649	0	32858	32814	
1650	0	32772	32823	
1651	0	32834	32766	
1652	0	32760	32726	
1653	0	32784	32736	
1654	0	32788	32788	
1655	0	32856	32694	
1656	0	32826	32726	
1657	0	32816	32688	
1658	0	32792	32742	
1659	0	32804	32736	
1660	0	32810	32848	
1661	0	32788	32815	
1662	0	32736	32724	
1663	0	32797	32772	
1664	0	32814	32711	
1665	0	32842	32772	
1666	0	32792	32702	
1667	0	32796	32810	
1668	0	32808	32838	
1669	0	32772	32807	
1670	0	32886	32775	
1671	0	32890	32826	
1672	0	32718	32711	
1673	0	32790	32806	
1674	0	32804	32722	
1675	0	32836	32748	
1676	0	32804	32858	
1677	0	32828	32695	
1678	0	32880	32856	
1679	0	32814	32750	
1680	0	32792	32826	
1681	0	32832	32750	
1682	0	32802	32922	
1683	0	32746	32764	
1684	0	32756	32708	
1685	0	32728	32816	
1686	0	32840	32860	
1687	0	32804	32792	
1688	0	32838	32710	
1689	0	32854	32842	
1690	0	32778	32804	
1691	0	32798	32774	
1692	0	32888	32710	
1693	0	32840	32711	
1694	0	32876	32887	
1695	0	32780	32788	
1696	0	32760	32775	
1697	0	32880	32798	
1698	0	32896	32678	
1699	0	32836	32862	
1700	0	32808	32822	
1701	0	32808	32806	
1702	0	32820	32714	
1703	0	32836	32638	
1704	0	32848	32744	
1705	0	32756	32762	
1706	0	32736	32728	
1707	0	32794	32708	
1708	0	32810	32868	
1709	0	32812	32860	
1710	0	32832	32880	
1711	0	32782	32710	
1712	0	32836	32804	
1713	0	32826	32716	
1714	0	32784	32768	
1715	0	32856	32721	
1716	0	32834	32716	
1717	0	32760	32718	
1718	0	32724	32718	
1719	0	32738	32697	
1720	0	32788	32828	
1721	0	32712	32720	
1722	0	32808	32902	
1723	0	32812	32728	
1724	0	32828	32758	
1725	0	32832	32711	
1726	0	32840	32769	
1727	0	32867	32766	
1728	0	32872	32786	
1729	0	32856	32683	
1730	0	32804	32821	
1731	0	32842	32702	
1732	0	32836	32764	
1733	0	32768	32740	
1734	0	32756	32836	
1735	0	32768	32772	
1736	0	32820	32751	
1737	0	32820	32862	
1738	0	32856	32772	
1739	0	32825	32679	
1740	0	32798	32718	
1741	0	32796	32716	
1742	0	32792	32820	
1743	0	32798	32702	
1744	0	32764	32814	
1745	0	32784	32820	
1746	0	32812	32700	
1747	0	32762	32736	
1748	0	32864	32792	
1749	0	32822	32734	
1750	0	32820	32822	
1751	0	32802	32758	
1752	0	32780	32730	
1753	0	32800	32749	
1754	0	32760	32790	
1755	0	32804	32814	
1756	0	32782	32670	
1757	0	32832	32744	
1758	0	32836	32830	
1759	0	32864	32698	
1760	0	32776	32825	
1761	0	32842	32751	
1762	0	32804	32746	
1763	0	32808	32807	
1764	0	32807	32820	
1765	0	32954	32760	
1766	0	32768	32767	
1767	0	32830	32775	
1768	0	32734	32847	
1769	0	32780	32724	
1770	0	32812	32762	
1771	0	32730	32740	
1772	0	32828	32742	
1773	0	32788	32711	
1774	0	32812	32774	
1775	0	32778	32790	
1776	0	32872	32800	
1777	0	32841	32762	
1778	0	32816	32696	
1779	0	32816	32807	
1780	0	32824	32730	
1781	0	32845	32700	
1782	0	32788	32718	
1783	0	32800	32736	
1784	0	32812	32780	
1785	0	32776	32672	
1786	0	32786	32775	
1787	0	32820	32798	
1788	0	32938	32707	
1789	0	32856	32804	
1790	0	32812	32854	
1791	0	32804	32772	
1792	0	32880	32775	
1793	0	32810	32746	
1794	0	32742	32766	
1795	0	32740	32750	
1796	0	32756	32830	
1797	0	32826	32814	
1798	0	32790	32734	
1799	0	32847	32769	
1800	0	32756	32630	
1801	0	32806	32838	
1802	0	32724	32775	
1803	0	32764	32672	
1804	0	32852	32758	
1805	0	32814	32724	
1806	0	32816	32807	
1807	0	32844	32806	
1808	0	32930	32674	
1809	0	32820	32824	
1810	0	32864	32786	
1811	0	32840	32703	
1812	0	32812	32734	
1813	0	32844	32775	
1814	0	32792	32790	
1815	0	32761	32892	
1816	0	32784	32652	
1817	0	32720	32824	
1818	0	32768	32647	
1819	0	32792	32702	
1820	0	32786	32703	
1821	0	32808	32839	
1822	0	32753	32846	
1823	0	32734	32694	
1824	0	32840	32775	
1825	0	32800	32748	
1826	0	32804	32871	
1827	0	32822	32734	
1828	0	32804	32714	
1829	0	32852	32839	
1830	0	32846	32756	
1831	0	32936	32748	
1832	0	32848	32741	
1833	0	32792	32720	
1834	0	32832	32775	
1835	0	32828	32801	
1836	0	32852	32814	
1837	0	32876	32666	
1838	0	32908	32772	
1839	0	32868	32748	
1840	0	32850	32748	
1841	0	32848	32774	
1842	0	32832	32740	
1843	0	32868	32700	
1844	0	32894	32775	
1845	0	32920	32714	
1846	0	32752	32742	
1847	0	32748	32832	
1848	0	32804	32830	
1849	0	32776	32764	
1850	0	32744	32678	
1851	0	32840	32768	
1852	0	32828	32716	
1853	0	32808	32700	
1854	0	32780	32830	
1855	0	32860	32836	
1856	0	32866	32755	
1857	0	32924	32798	
1858	0	32806	32807	
1859	0	32806	32743	
1860	0	32830	32844	
1861	0	32722	32838	
1862	0	32764	32674	
1863	0	32816	32786	
1864	0	32818	32716	
1865	0	32872	32826	
1866	0	32924	32772	
1867	0	32808	32670	
1868	0	32792	32834	
1869	0	32800	32788	
1870	0	32892	32677	
1871	0	32872	32732	
1872	0	32856	32836	
1873	0	32936	32768	
1874	0	32784	32768	
1875	0	32824	32878	
1876	0	32796	32839	
1877	0	32732	32654	
1878	0	32748	32858	
1879	0	32792	32730	
1880	0	32744	32692	
1881	0	32748	32700	
1882	0	32804	32840	
1883	0	32834	32894	
1884	0	32764	32700	
1885	0	32784	32827	
1886	0	32760	32748	
1887	0	32864	32800	
1888	0	32790	32812	
1889	0	32916	32836	
1890	0	32864	32810	
1891	0	32896	32830	
1892	0	32802	32791	
1893	0	32796	32658	
1894	0	32920	32767	
1895	0	32932	32794	
1896	0	32856	32710	
1897	0	32824	32852	
1898	0	32782	32716	
1899	0	32816	32732	
1900	0	32804	32700	
1901	0	32736	32775	
1902	0	32806	32762	
1903	0	32824	32738	
1904	0	32840	32832	
1905	0	32732	32881	
1906	0	32784	32854	
1907	0	32728	32830	
1908	0	32810	32841	
1909	0	32748	32734	
1910	0	32790	32720	
1911	0	32828	32702	
1912	0	32708	32820	
1913	0	32738	32647	
1914	0	32796	32846	
1915	0	32820	32775	
1916	0	32824	32764	
1917	0	32790	32647	
1918	0	32840	32775	
1919	0	32880	32772	
1920	0	32864	32694	
1921	0	32848	32794	
1922	0	32924	32828	
1923	0	32884	32775	
1924	0	32834	32764	
1925	0	32816	32775	
1926	0	32671	32814	
1927	0	32752	32622	
1928	0	32712	32822	
1929	0	32708	32820	
1930	0	32700	32814	
1931	0	32804	32828	
1932	0	32812	32766	
1933	0	32806	32775	
1934	0	32828	32900	
1935	0	32760	32740	
1936	0	32848	32766	
1937	0	32764	32710	
1938	0	32744	32812	
1939	0	32672	32844	
1940	0	32780	32784	
1941	0	32800	32862	
1942	0	32756	32732	
1943	0	32800	32768	
1944	0	32784	32856	
1945	0	32740	32686	
1946	0	32800	32794	
1947	0	32766	32846	
1948	0	32790	32775	
1949	0	32592	32738	
1950	0	32756	32855	
1951	0	32684	32690	
1952	0	32788	32608	
1953	0	32756	32751	
1954	0	32792	32750	
1955	0	32920	32738	
1956	0	32780	32724	
1957	0	32804	32752	
1958	0	32816	32641	
1959	0	32820	32818	
1960	0	32810	32836	
1961	0	32852	32764	
1962	0	32808	32759	
1963	0	32814	32850	
1964	0	32824	32756	
1965	0	32724	32763	
1966	0	32752	32759	
1967	0	32802	32856	
1968	0	32844	32800	
1969	0	32788	32775	
1970	0	32816	32800	
1971	0	32816	32772	
1972	0	32850	32756	
1973	0	32850	32742	
1974	0	32780	32750	
1975	0	32816	32656	
1976	0	32746	32743	
1977	0	32780	32775	
1978	0	32890	32734	
1979	0	32900	32775	
1980	0	32860	32790	
1981	0	32789	32756	
1982	0	32784	32682	
1983	0	32876	32788	
1984	0	32752	32842	
1985	0	32832	32669	
1986	0	32914	32806	
1987	0	32884	32744	
1988	0	32820	32796	
1989	0	32856	32730	
1990	0	32788	32784	
1991	0	32846	32846	
1992	0	32880	32822	
1993	0	32868	32642	
1994	0	32760	32756	
1995	0	32812	32800	
1996	0	32836	32775	
1997	0	32766	32798	
1998	0	32788	32764	
1999	0	32676	32768	
2000	0	32712	32740	
2001	0	32720	32744	
2002	0	32716	32884	
2003	0	32792	32750	
2004	0	32832	32774	
2005	0	32864	32750	
2006	0	32960	32722	
2007	0	33152	32892	
2008	0	33028	32764	
2009	0	32980	32692	
2010	0	32884	32738	
2011	0	32774	32756	
2012	0	32744	32612	
2013	0	32710	32712	
2014	0	32650	32816	
2015	0	32778	32775	
2016	0	32700	32768	
2017	0	32690	32742	
2018	0	32742	32624	
2019	0	32736	32775	
2020	0	32884	32791	
2021	0	32820	32698	
2022	0	32776	32852	
2023	0	32820	32903	
2024	0	32876	32764	
2025	0	32920	32890	
2026	0	32916	32852	
2027	0	32904	32852	
2028	0	32772	32825	
2029	0	32604	32878	
2030	0	32602	32790	
2031	0	32572	32724	
2032	0	32712	32768	
2033	0	32852	32704	
2034	0	33132	32682	
2035	0	33448	32678	
2036	0	33524	32742	
2037	0	33408	32684	
2038	0	33234	32758	
2039	0	33114	32804	
2040	0	33032	32751	
2041	0	32730	32858	
2042	0	32484	32808	
2043	0	32300	32635	
2044	0	32356	32742	
2045	0	32332	32624	
2046	0	32320	32586	
2047	0	32228	32533	
2048	0	32282	32695	
2049	0	32448	32742	
2050	0	32560	32690	
2051	0	32600	32996	
2052	0	32796	32868	
2053	0	32840	33044	
2054	0	32740	32846	
2055	0	32744	33015	
2056	0	32730	32918	
2057	0	32712	32804	
2058	0	32880	32938	
2059	0	33008	32838	
2060	0	33156	32750	
2061	0	33060	32830	
2062	0	33184	32698	
2063	0	33160	32788	
2064	0	33282	32743	
2065	0	33236	32828	
2066	0	33012	32825	
2067	0	32888	32678	
2068	0	32860	32732	
2069	0	32796	32903	
2070	0	32756	32812	
2071	0	32764	32817	
2072	0	32706	32634	
2073	0	32570	32667	
2074	0	32436	32716	
2075	0	32396	32703	
2076	0	32484	32706	
2077	0	32576	32690	
2078	0	32628	32754	
2079	0	32760	32806	
2080	0	32864	32732	
2081	0	32918	32756	
2082	0	32996	32828	
2083	0	32932	32948	
2084	0	32968	32848	
2085	0	32952	32744	
2086	0	32990	32870	
2087	0	32936	32812	
2088	0	32964	32728	
2089	0	32872	32836	
2090	0	32904	32842	
2091	0	32880	32750	
2092	0	32904	32746	
2093	0	32922	32766	
2094	0	32932	32697	
2095	0	32901	32710	
2096	0	32834	32750	
2097	0	32780	32606	
2098	0	32808	32743	
2099	0	32896	32711	
2100	0	32856	32860	
2101	0	32836	32862	
2102	0	32808	32718	
2103	0	32794	32894	
2104	0	32726	32842	
2105	0	32696	32718	
2106	0	32888	32823	
2107	0	32832	32867	
2108	0	32816	32788	
2109	0	32798	32775	
2110	0	32776	32844	
2111	0	32749	32734	
2112	0	32730	32775	
2113	0	32773	32844	
2114	0	32764	32734	
2115	0	32752	32924	
2116	0	32812	32850	
2117	0	32804	32830	
2118	0	32712	32903	
2119	0	32792	32927	
2120	0	32814	32903	
2121	0	32836	32614	
2122	0	32964	32580	
2123	0	32964	32632	
2124	0	33060	32583	
2125	0	33130	32497	
2126	0	33124	32567	
2127	0	33008	32570	
2128	0	32916	32625	
2129	0	32902	32673	
2130	0	32774	32738	
2131	0	32730	32684	
2132	0	32564	32775	
2133	0	32544	32760	
2134	0	32520	32740	
2135	0	32492	32894	
2136	0	32592	33095	
2137	0	32508	33020	
2138	0	32512	33048	
2139	0	32408	33002	
2140	0	32480	32824	
2141	0	32460	32928	
2142	0	32642	32892	
2143	0	32736	32748	
2144	0	32892	32616	
2145	0	33112	32666	
2146	0	33056	32600	
2147	0	33112	32802	
2148	0	32898	32863	
2149	0	32756	32532	
2150	0	32966	32502	
2151	0	33192	32614	
2152	0	33228	32696	
2153	0	33278	32674	
2154	0	33444	32561	
2155	0	33332	32462	
2156	0	33044	32552	
2157	0	32836	32682	
2158	0	32684	32644	
2159	0	32708	32912	
2160	0	32725	33106	
2161	0	32832	33095	
2162	0	32640	32992	
2163	0	32510	32863	
2164	0	32762	32880	
2165	0	32412	32900	
2166	0	32140	32862	
2167	0	31864	32998	
2168	0	31978	33054	
2169	0	32288	32800	
2170	0	32420	32822	
2171	0	32408	32876	
2172	0	32436	32555	
2173	0	32616	32676	
2174	0	32880	32546	
2175	0	33172	32756	
2176	0	33314	32743	
2177	0	33334	32746	
2178	0	33248	32850	
2179	0	33306	32732	
2180	0	33412	32929	
2181	0	33272	32917	
2182	0	33192	32874	
2183	0	33060	32821	
2184	0	32844	32775	
2185	0	32892	32608	
2186	0	32840	32740	
2187	0	32868	32556	
2188	0	32872	32484	
2189	0	32874	32610	
2190	0	32992	32650	
2191	0	32864	32516	
2192	0	32628	32575	
2193	0	32552	32468	
2194	0	32534	32391	
2195	0	32500	32540	
2196	0	32636	32672	
2197	0	32720	32658	
2198	0	32736	32734	
2199	0	32744	32767	
2200	0	32728	32926	
2201	0	32696	32990	
2202	0	32777	32864	
2203	0	32817	32944	
2204	0	32872	32848	
2205	0	32950	32834	
2206	0	33028	32812	
2207	0	33136	32919	
2208	0	33160	32834	
2209	0	33050	32814	
2210	0	33068	32753	
2211	0	33006	32576	
2212	0	33000	32582	
2213	0	32920	32532	
2214	0	32932	32596	
2215	0	32880	32724	
2216	0	32920	32767	
2217	0	32860	32840	
2218	0	32848	32878	
2219	0	32732	33008	
2220	0	32678	33016	
2221	0	32746	33155	
2222	0	32692	33086	
2223	0	32868	33143	
2224	0	32966	33102	
2225	0	33116	33038	
2226	0	33430	32934	
2227	0	33760	32820	
2228	0	33768	32565	
2229	0	33300	32706	
2230	0	32804	32720	
2231	0	32170	32802	
2232	0	31752	32871	
2233	0	31668	32512	
2234	0	31940	32548	
2235	0	32684	32535	
2236	0	33224	32744	
2237	0	33684	32422	
2238	0	34060	32378	
2239	0	33820	32178	
2240	0	33312	32104	
2241	0	32672	31972	
2242	0	32164	32384	
2243	0	32192	32666	
2244	0	32108	32952	
2245	0	31978	33089	
2246	0	31988	33172	
2247	0	31698	33052	
2248	0	31508	33122	
2249	0	31272	32878	
2250	0	31390	32760	
2251	0	31716	32872	
2252	0	32094	33236	
2253	0	32756	33632	
2254	0	32960	33512	
2255	0	33130	33496	
2256	0	33320	33459	
2257	0	33344	33287	
2258	0	33270	32832	
2259	0	33024	32424	
2260	0	32758	32322	
2261	0	32668	31976	
2262	0	32804	31798	
2263	0	33134	32158	
2264	0	33636	32414	
2265	0	33848	32508	
2266	0	33826	32636	
2267	0	33630	32760	
2268	0	33636	32726	
2269	0	33468	32816	
2270	0	33376	32812	
2271	0	33284	32966	
2272	0	33176	32956	
2273	0	32880	32884	
2274	0	32792	32943	
2275	0	32484	32934	
2276	0	32404	32748	
2277	0	32166	32836	
2278	0	32116	32775	
2279	0	32120	32772	
2280	0	32280	32784	
2281	0	32366	32767	
2282	0	32436	32775	
2283	0	32612	32775	
2284	0	32768	32846	
2285	0	32928	32858	
2286	0	33056	32846	
2287	0	33252	32767	
2288	0	33308	32878	
2289	0	33256	32760	
2290	0	33122	32711	
2291	0	33018	32450	
2292	0	32792	32553	
2293	0	32804	32636	
2294	0	32828	32714	
2295	0	32764	32632	
2296	0	32762	32676	
2297	0	32706	32720	
2298	0	32684	32811	
2299	0	32724	32802	
2300	0	32796	32919	
2301	0	32766	32762	
2302	0	32832	32774	
2303	0	32818	32740	
2304	0	32936	32716	
2305	0	32904	32775	
2306	0	32856	32562	
2307	0	32968	32703	
2308	0	32962	32694	
2309	0	32996	32775	
2310	0	33212	32736	
2311	0	33230	32784	
2312	0	33092	32820	
2313	0	32970	32890	
2314	0	32838	32775	
2315	0	32772	32938	
2316	0	32762	32835	
2317	0	32828	32870	
2318	0	32750	32821	
2319	0	32668	32922	
2320	0	32576	32878	
2321	0	32420	32741	
2322	0	32728	32688	
2323	0	33476	32587	
2324	0	33452	32298	
2325	0	32368	32380	
2326	0	31440	32363	
2327	0	31092	32519	
2328	0	31536	32854	
2329	0	31916	32952	
2330	0	32322	32922	
2331	0	32756	33187	
2332	0	32886	33166	
2333	0	32706	32935	
2334	0	32644	32438	
2335	0	32574	32324	
2336	0	32712	32484	
2337	0	32940	32792	
2338	0	32972	32743	
2339	0	32894	32958	
2340	0	32832	33210	
2341	0	32744	33191	
2342	0	32988	33087	
2343	0	32890	32946	
2344	0	33030	33016	
2345	0	32964	33287	
2346	0	32770	32951	
2347	0	32814	32839	
2348	0	32636	32663	
2349	0	32742	32612	
2350	0	32660	32231	
2351	0	32600	32596	
2352	0	32580	32902	
2353	0	31972	33056	
2354	0	31630	33320	
2355	0	31640	32786	
2356	0	32060	32440	
2357	0	32544	32310	
2358	0	33068	32280	
2359	0	33616	32422	
2360	0	33772	32316	
2361	0	33764	32386	
2362	0	33628	32588	
2363	0	33556	32818	
2364	0	33580	32782	
2365	0	33610	32638	
2366	0	33432	32903	
2367	0	33156	32967	
2368	0	33024	32980	
2369	0	32916	33319	
2370	0	33024	33478	
2371	0	33284	33440	
2372	0	33352	33108	
2373	0	33368	32927	
2374	0	33340	32746	
2375	0	33182	32726	
2376	0	33022	32697	
2377	0	33028	32692	
2378	0	33086	32570	
2379	0	32992	32537	
2380	0	32872	32407	
2381	0	32772	32540	
2382	0	32724	32490	
2383	0	32760	32688	
2384	0	32792	32612	
2385	0	32912	32652	
2386	0	33026	32858	
2387	0	32956	32839	
2388	0	32862	32758	
2389	0	32760	32711	
2390	0	32858	32440	
2391	0	32940	32606	
2392	0	32900	32760	
2393	0	32832	32775	
2394	0	32766	32801	
2395	0	32828	32668	
2396	0	33094	32844	
2397	0	33164	32746	
2398	0	33120	32744	
2399	0	33032	32572	
2400	0	33084	32740	
2401	0	32878	32790	
2402	0	32652	32860	
2403	0	32544	32768	
2404	0	32468	32700	
2405	0	32860	32668	
2406	0	32600	32798	
2407	0	32000	32774	
2408	0	31584	32660	
2409	0	31796	32788	
2410	0	32012	32686	
2411	0	32268	32775	
2412	0	32620	32864	
2413	0	33398	32740	
2414	0	33716	32879	
2415	0	33620	32951	
2416	0	33436	32998	
2417	0	33072	32743	
2418	0	32768	32566	
2419	0	32420	32614	
2420	0	32248	32536	
2421	0	32052	32704	
2422	0	31976	32854	
2423	0	31972	33144	
2424	0	31780	33050	
2425	0	32064	32536	
2426	0	32248	32470	
2427	0	32446	32694	
2428	0	32946	32768	
2429	0	33492	32644	
2430	0	33776	32804	
2431	0	33728	32748	
2432	0	33826	32862	
2433	0	33272	32934	
2434	0	32608	32879	
2435	0	32412	32709	
2436	0	32756	32831	
2437	0	33036	32801	
2438	0	33008	32892	
2439	0	33260	32447	
2440	0	32936	32358	
2441	0	32358	32346	
2442	0	32088	32414	
2443	0	31880	32258	
2444	0	31884	32926	
2445	0	32096	33258	
2446	0	32448	33228	
2447	0	32818	33358	
2448	0	33336	33479	
2449	0	33960	33340	
2450	0	33698	33378	
2451	0	33328	33458	
2452	0	32808	33329	
2453	0	32492	33022	
2454	0	32433	32530	
2455	0	32440	32362	
2456	0	32900	32610	
2457	0	33088	32628	
2458	0	32880	32438	
2459	0	32972	32295	
2460	0	33188	31940	
2461	0	33144	31634	
2462	0	33088	31792	
2463	0	33010	31960	
2464	0	32680	31986	
2465	0	32610	32623	
2466	0	32752	32600	
2467	0	32772	32788	
2468	0	32874	32994	
2469	0	32848	33060	
2470	0	32864	33496	
2471	0	32808	33556	
2472	0	32558	33500	
2473	0	32404	33572	
2474	0	32352	33662	
2475	0	32606	33136	
2476	0	32800	32928	
2477	0	32974	32660	
2478	0	33196	32816	
2479	0	33224	32679	
2480	0	33028	32846	
2481	0	32716	32458	
2482	0	33000	32367	
2483	0	33484	32622	
2484	0	33052	32996	
2485	0	32604	32775	
2486	0	32456	32512	
2487	0	32332	32644	
2488	0	32588	32646	
2489	0	33032	32612	
2490	0	33158	32372	
2491	0	33216	32476	
2492	0	32996	32810	
2493	0	32924	32474	
2494	0	32609	32404	
2495	0	32486	32448	
2496	0	32632	32732	
2497	0	32542	33083	
2498	0	32795	32924	
2499	0	32816	33074	
2500	0	32688	32924	
2501	0	32980	32884	
2502	0	32995	32807	
2503	0	33292	32932	
2504	0	33204	33051	
2505	0	32986	32848	
2506	0	33656	32924	
2507	0	34036	32660	
2508	0	33948	32628	
2509	0	33112	32596	
2510	0	32196	32762	
2511	0	31482	32754	
2512	0	31248	33095	
2513	0	31664	32647	
2514	0	32360	32540	
2515	0	32600	32635	
2516	0	33072	32657	
2517	0	33360	32284	
2518	0	32648	32007	
2519	0	31936	32359	
2520	0	31594	32244	
2521	0	31850	32772	
2522	0	32208	33191	
2523	0	32940	33080	
2524	0	33252	33138	
2525	0	33548	33159	
2526	0	33890	33286	
2527	0	33528	32992	
2528	0	33158	32817	
2529	0	33204	32926	
2530	0	33261	33086	
2531	0	33276	32967	
2532	0	32876	32804	
2533	0	33004	33159	
2534	0	33422	33220	
2535	0	33278	33025	
2536	0	32761	32316	
2537	0	32378	32044	
2538	0	32520	32258	
2539	0	32698	32261	
2540	0	32870	32504	
2541	0	32656	33155	
2542	0	32282	32867	
2543	0	32266	32682	
2544	0	32556	32688	
2545	0	33182	32326	
2546	0	33520	32250	
2547	0	33016	32231	
2548	0	32732	32495	
2549	0	32720	33082	
2550	0	32652	33287	
2551	0	32324	33411	
2552	0	32248	33146	
2553	0	32164	33448	
2554	0	31812	33572	
2555	0	32324	33412	
2556	0	33048	33332	
2557	0	32670	33186	
2558	0	31784	32836	
2559	0	31234	32182	
2560	0	31954	31628	
2561	0	33156	31780	
2562	0	34114	32610	
2563	0	34664	32682	
2564	0	34816	32744	
2565	0	34828	32640	
2566	0	34728	32631	
2567	0	34172	32436	
2568	0	33526	32180	
2569	0	33340	32096	
2570	0	32352	32582	
2571	0	31752	32736	
2572	0	31136	33006	
2573	0	30705	32980	
2574	0	30276	32710	
2575	0	30544	33031	
2576	0	31400	33014	
2577	0	32040	33060	
2578	0	32816	33119	
2579	0	33886	33464	
2580	0	33778	33284	
2581	0	33316	33253	
2582	0	33482	32966	
2583	0	33880	32770	
2584	0	33778	32612	
2585	0	33716	32623	
2586	0	33282	32626	
2587	0	33204	32676	
2588	0	33256	32590	
2589	0	33240	32540	
2590	0	32824	32690	
2591	0	32540	32388	
2592	0	32458	32516	
2593	0	32648	32519	
2594	0	32924	32682	
2595	0	32794	32508	
2596	0	32494	32526	
2597	0	32380	32476	
2598	0	32412	32967	
2599	0	32540	32926	
2600	0	32508	32975	
2601	0	32688	32906	
2602	0	32840	32870	
2603	0	32928	32551	
2604	0	32906	32408	
2605	0	32484	32558	
2606	0	32208	32775	
2607	0	32714	32665	
2608	0	33137	32921	
2609	0	33356	33020	
2610	0	33536	33004	
2611	0	33280	32988	
2612	0	33282	33040	
2613	0	33822	32926	
2614	0	34572	32820	
2615	0	34980	32914	
2616	0	34030	32966	
2617	0	32696	33330	
2618	0	31160	32742	
2619	0	30922	32676	
2620	0	31088	32112	
2621	0	31208	31664	
2622	0	31023	31374	
2623	0	31470	31974	
2624	0	32220	32804	
2625	0	33008	32999	
2626	0	33210	33084	
2627	0	33772	33497	
2628	0	33106	33344	
2629	0	32932	32632	
2630	0	33708	32732	
2631	0	33644	33060	
2632	0	33448	33181	
2633	0	33968	33047	
2634	0	34928	32480	
2635	0	33946	31719	
2636	0	33164	32204	
2637	0	32604	32988	
2638	0	31556	33983	
2639	0	31452	33790	
2640	0	30994	33720	
2641	0	30876	33812	
2642	0	30776	33621	
2643	0	31524	33218	
2644	0	32326	33158	
2645	0	32614	33119	
2646	0	32858	32538	
2647	0	32526	32356	
2648	0	32398	32338	
2649	0	32514	31946	
2650	0	33028	32007	
2651	0	33980	31968	
2652	0	34396	32391	
2653	0	34664	32276	
2654	0	34632	32214	
2655	0	33702	31866	
2656	0	33544	32444	
2657	0	33172	32820	
2658	0	33272	32798	
2659	0	32866	32932	
2660	0	31592	33130	
2661	0	31444	33657	
2662	0	31398	33384	
2663	0	31692	32766	
2664	0	31800	32360	
2665	0	31830	32494	
2666	0	32416	31914	
2667	0	33246	31927	
2668	0	33296	32654	
2669	0	33038	32932	
2670	0	33084	32858	
2671	0	33200	32966	
2672	0	33044	33054	
2673	0	32748	33072	
2674	0	32536	33126	
2675	0	32674	32700	
2676	0	33152	32933	
2677	0	33328	32900	
2678	0	33378	32764	
2679	0	33300	32850	
2680	0	33678	32792	
2681	0	33920	32546	
2682	0	34192	32704	
2683	0	33988	32768	
2684	0	33326	32508	
2685	0	33852	32676	
2686	0	33338	32850	
2687	0	32652	33230	
2688	0	32064	33184	
2689	0	32492	33044	
2690	0	32384	32702	
2691	0	32288	32830	
2692	0	32140	32754	
2693	0	32416	32484	
2694	0	32828	32518	
2695	0	33340	33124	
2696	0	33644	32832	
2697	0	33044	32860	
2698	0	31890	32558	
2699	0	30956	32108	
2700	0	30840	31892	
2701	0	31676	32447	
2702	0	33520	33090	
2703	0	33564	32756	
2704	0	33064	33030	
2705	0	32442	33106	
2706	0	32170	33100	
2707	0	32846	32804	
2708	0	34280	32580	
2709	0	34752	32444	
2710	0	33592	32468	
2711	0	32348	32350	
2712	0	31660	32228	
2713	0	31668	32494	
2714	0	31460	32406	
2715	0	31869	32816	
2716	0	32700	32554	
2717	0	32606	32647	
2718	0	32456	33144	
2719	0	32128	33484	
2720	0	32108	33513	
2721	0	31796	33244	
2722	0	32952	33515	
2723	0	34082	33562	
2724	0	33968	33662	
2725	0	33318	33525	
2726	0	33752	33348	
2727	0	34780	32880	
2728	0	33952	32592	
2729	0	33774	32794	
2730	0	32872	32394	
2731	0	31916	31886	
2732	0	31284	31604	
2733	0	31212	31766	
2734	0	31148	32410	
2735	0	30906	33028	
2736	0	31320	33218	
2737	0	32200	33464	
2738	0	32386	33740	
2739	0	32832	33394	
2740	0	32970	33518	
2741	0	34034	32266	
2742	0	35708	31604	
2743	0	36384	32064	
2744	0	36164	32124	
2745	0	35732	32058	
2746	0	34890	31926	
2747	0	33484	32614	
2748	0	31732	33024	
2749	0	31068	32992	
2750	0	31016	33630	
2751	0	30272	33550	
2752	0	30540	32748	
2753	0	31476	31970	
2754	0	31690	31995	
2755	0	31956	32519	
2756	0	31804	33224	
2757	0	31298	32998	
2758	0	31280	33172	
2759	0	31096	32986	
2760	0	31436	32714	
2761	0	31728	32903	
2762	0	32026	33079	
2763	0	32736	33045	
2764	0	33144	32752	
2765	0	33916	32412	
2766	0	34940	32926	
2767	0	36376	32558	
2768	0	35472	32684	
2769	0	34232	32758	
2770	0	34616	32720	
2771	0	33858	33015	
2772	0	33492	32610	
2773	0	33616	33166	
2774	0	33909	33084	
2775	0	33852	32893	
2776	0	33572	32472	
2777	0	33500	32186	
2778	0	32816	32164	
2779	0	32204	32167	
2780	0	31558	32280	
2781	0	31156	32160	
2782	0	30846	32369	
2783	0	31214	32166	
2784	0	31584	32922	
2785	0	31854	33120	
2786	0	32596	33216	
2787	0	32116	33574	
2788	0	31912	33600	
2789	0	32624	33194	
2790	0	32810	33228	
2791	0	34428	33328	
2792	0	34696	33448	
2793	0	35060	33652	
2794	0	34548	33594	
2795	0	33640	32554	
2796	0	32520	32007	
2797	0	31308	32614	
2798	0	30940	32415	
2799	0	31592	31966	
2800	0	32684	31758	
2801	0	33046	31950	
2802	0	33306	32134	
2803	0	32808	32459	
2804	0	32346	32670	
2805	0	32216	32788	
2806	0	32102	32847	
2807	0	32418	33246	
2808	0	32672	33340	
2809	0	32740	32801	
2810	0	33850	32671	
2811	0	33134	32574	
2812	0	32922	32484	
2813	0	32698	33174	
2814	0	34788	33784	
2815	0	34776	33196	
2816	0	34016	33320	
2817	0	33264	32760	
2818	0	31878	31928	
2819	0	32640	31623	
2820	0	32984	31719	
2821	0	33030	32096	
2822	0	32816	32910	
2823	0	32592	33166	
2824	0	31802	33328	
2825	0	30691	32918	
2826	0	30160	32246	
2827	0	30214	33646	
2828	0	30336	33524	
2829	0	30996	32404	
2830	0	31370	32164	
2831	0	32200	32983	
2832	0	33924	33106	
2833	0	34810	33550	
2834	0	35286	33824	
2835	0	35804	33916	
2836	0	34856	33274	
2837	0	33761	32644	
2838	0	32986	32479	
2839	0	33316	32942	
2840	0	33244	33031	
2841	0	34332	32932	
2842	0	34464	33384	
2843	0	33420	32436	
2844	0	33130	31359	
2845	0	32820	30692	
2846	0	31996	30990	
2847	0	30796	31698	
2848	0	30824	32504	
2849	0	30322	33148	
2850	0	29480	33008	
2851	0	30196	32738	
2852	0	31780	32961	
2853	0	32320	33312	
2854	0	33416	33654	
2855	0	34452	33184	
2856	0	36128	32196	
2857	0	36518	32066	
2858	0	34996	32263	
2859	0	33662	32900	
2860	0	33404	33311	
2861	0	32860	33274	
2862	0	31960	32342	
2863	0	31292	31904	
2864	0	31708	32108	
2865	0	32389	32552	
2866	0	32924	32988	
2867	0	32914	33284	
2868	0	32430	33400	
2869	0	32156	33264	
2870	0	31702	33184	
2871	0	30970	32596	
2872	0	30702	32434	
2873	0	31496	32870	
2874	0	31744	33824	
2875	0	31300	33916	
2876	0	31080	33194	
2877	0	31796	32486	
2878	0	32986	32376	
2879	0	33998	32308	
2880	0	34884	33172	
2881	0	35238	33702	
2882	0	35456	32948	
2883	0	34852	32712	
2884	0	34892	32423	
2885	0	36176	32558	
2886	0	35088	32551	
2887	0	34148	31924	
2888	0	33721	31460	
2889	0	32593	31776	
2890	0	32336	32362	
2891	0	32268	32768	
2892	0	32488	32892	
2893	0	33304	32970	
2894	0	33052	32948	
2895	0	33040	32903	
2896	0	32988	33028	
2897	0	33044	33114	
2898	0	32294	33296	
2899	0	31720	33524	
2900	0	30856	33414	
2901	0	30200	32775	
2902	0	31150	32068	
2903	0	32480	31932	
2904	0	32752	32444	
2905	0	32064	33689	
2906	0	31592	33708	
2907	0	31768	32884	
2908	0	32660	32687	
2909	0	32992	33502	
2910	0	32648	32492	
2911	0	32708	32234	
2912	0	32584	32223	
2913	0	31440	32630	
2914	0	32080	32816	
2915	0	32268	33168	
2916	0	32376	32568	
2917	0	32853	31928	
2918	0	33072	31584	
2919	0	33216	32132	
2920	0	33110	32676	
2921	0	32988	32871	
2922	0	32982	32960	
2923	0	34248	33076	
2924	0	34926	33302	
2925	0	34440	33520	
2926	0	33406	33415	
2927	0	33418	33176	
2928	0	35662	32884	
2929	0	37104	32691	
2930	0	35452	32518	
2931	0	34560	32516	
2932	0	31946	32775	
2933	0	30138	33338	
2934	0	30108	32972	
2935	0	30180	32542	
2936	0	31188	32340	
2937	0	33032	32070	
2938	0	32394	32254	
2939	0	31164	32767	
2940	0	30476	32756	
2941	0	30855	33396	
2942	0	32540	33248	
2943	0	32440	32620	
2944	0	33658	32666	
2945	0	34640	33194	
2946	0	33548	32976	
2947	0	32948	32004	
2948	0	31956	32628	
2949	0	31424	33510	
2950	0	33184	33620	
2951	0	34432	33598	
2952	0	33912	33700	
2953	0	33856	33128	
2954	0	33548	32254	
2955	0	32238	30916	
2956	0	31604	31164	
2957	0	31786	31868	
2958	0	32202	32378	
2959	0	32622	31628	
2960	0	33614	32023	
2961	0	33940	32900	
2962	0	34048	33348	
2963	0	33272	33548	
2964	0	32692	32998	
2965	0	32576	32703	
2966	0	32152	33094	
2967	0	31876	33392	
2968	0	31546	33414	
2969	0	31264	33196	
2970	0	31436	32775	
2971	0	31862	32924	
2972	0	31644	32704	
2973	0	31392	32478	
2974	0	31978	32660	
2975	0	33668	32470	
2976	0	34940	32444	
2977	0	35712	32646	
2978	0	35784	32870	
2979	0	34874	32828	
2980	0	33368	32942	
2981	0	32540	33235	
2982	0	32884	33434	
2983	0	32976	33404	
2984	0	33544	33048	
2985	0	33700	32110	
2986	0	34896	32326	
2987	0	34828	32872	
2988	0	33962	33380	
2989	0	32796	33240	
2990	0	32736	33046	
2991	0	33036	32442	
2992	0	32212	31948	
2993	0	31300	32180	
2994	0	30058	32624	
2995	0	29582	33004	
2996	0	30276	33980	
2997	0	30890	33476	
2998	0	31200	33044	
2999	0	30085	32822	
3000	0	29608	31726	
3001	0	30084	31039	
3002	0	29880	31502	
3003	0	30840	32342	
3004	0	32624	32718	
3005	0	34438	32632	
3006	0	35076	32718	
3007	0	36220	33288	
3008	0	38004	33912	
3009	0	36836	32804	
3010	0	35432	32694	
3011	0	34392	32896	
3012	0	33644	32700	
3013	0	33434	32548	
3014	0	32980	32924	
3015	0	32732	32878	
3016	0	32566	32996	
3017	0	31824	33342	
3018	0	32234	32876	
3019	0	32680	32568	
3020	0	32170	32742	
3021	0	31652	32981	
3022	0	32732	32800	
3023	0	33200	32743	
3024	0	32392	32766	
3025	0	31498	32616	
3026	0	30688	32640	
3027	0	30926	32713	
3028	0	33092	32592	
3029	0	34656	32384	
3030	0	34724	32460	
3031	0	33804	32449	
3032	0	32724	32812	
3033	0	31752	33240	
3034	0	31488	33354	
3035	0	31332	33282	
3036	0	31825	33012	
3037	0	33032	33054	
3038	0	33876	32757	
3039	0	34766	32492	
3040	0	34956	32224	
3041	0	34234	32194	
3042	0	33864	32388	
3043	0	33300	32712	
3044	0	33546	32720	
3045	0	33884	32617	
3046	0	32996	33196	
3047	0	31640	33062	
3048	0	31322	32486	
3049	0	31492	32887	
3050	0	32038	33082	
3051	0	32834	32962	
3052	0	32868	32736	
3053	0	32228	32694	
3054	0	31496	32548	
3055	0	31924	32703	
3056	0	32016	32802	
3057	0	33304	32792	
3058	0	34166	32818	
3059	0	33772	32692	
3060	0	33508	32516	
3061	0	33764	32375	
3062	0	32476	32679	
3063	0	31968	33112	
3064	0	32544	32833	
3065	0	33089	32395	
3066	0	32984	32484	
3067	0	33708	32657	
3068	0	33984	32884	
3069	0	33436	33050	
3070	0	33802	32920	
3071	0	33528	32828	
3072	0	32692	33112	
3073	0	33052	32804	
3074	0	33004	32631	
3075	0	31272	32964	
3076	0	30582	33240	
3077	0	30316	33348	
3078	0	31038	33158	
3079	0	31920	32966	
3080	0	31888	33296	
3081	0	31066	32826	
3082	0	31033	32160	
3083	0	31684	31996	
3084	0	31728	31818	
3085	0	31800	32046	
3086	0	31996	31924	
3087	0	32204	32263	
3088	0	32636	32647	
3089	0	32909	32936	
3090	0	33552	33184	
3091	0	34796	33012	
3092	0	35917	33200	
3093	0	35878	33280	
3094	0	36128	33470	
3095	0	35742	33216	
3096	0	35300	33208	
3097	0	34104	32790	
3098	0	32424	32764	
3099	0	31224	33152	
3100	0	31232	32719	
3101	0	31694	32455	
3102	0	31964	32348	
3103	0	32828	32342	
3104	0	33820	32584	
3105	0	33320	32716	
3106	0	32460	32756	
3107	0	31368	33194	
3108	0	31052	32750	
3109	0	31372	32412	
3110	0	31852	32916	
3111	0	32288	32664	
3112	0	32744	32612	
3113	0	32908	32798	
3114	0	33296	33026	
3115	0	33154	32934	
3116	0	33348	32775	
3117	0	33052	32542	
3118	0	33018	32372	
3119	0	33350	32132	
3120	0	33956	32854	
3121	0	33632	33228	
3122	0	33589	33006	
3123	0	33569	32630	
3124	0	34920	32500	
3125	0	35182	32519	
3126	0	34122	32734	
3127	0	33466	33012	
3128	0	32536	33148	
3129	0	31684	32880	
3130	0	31264	32958	
3131	0	31606	32716	
3132	0	31740	32775	
3133	0	32014	32790	
3134	0	31608	32654	
3135	0	30556	32854	
3136	0	30276	32578	
3137	0	30890	32686	
3138	0	32348	32695	
3139	0	33518	32842	
3140	0	33994	33044	
3141	0	34782	33302	
3142	0	34178	32998	
3143	0	33768	32903	
3144	0	33964	32836	
3145	0	33800	32708	
3146	0	32372	32576	
3147	0	31430	32732	
3148	0	31376	32516	
3149	0	31712	32967	
3150	0	32082	32830	
3151	0	33790	32483	
3152	0	35264	32378	
3153	0	34344	32200	
3154	0	32482	31975	
3155	0	31104	32255	
3156	0	30024	32624	
3157	0	30048	32847	
3158	0	32244	32922	
3159	0	34774	32964	
3160	0	35804	33223	
3161	0	35252	33234	
3162	0	33768	33242	
3163	0	31904	32960	
3164	0	31352	32842	
3165	0	30824	32734	
3166	0	31374	32854	
3167	0	32496	32800	
3168	0	32816	32988	
3169	0	33804	32744	
3170	0	33780	32676	
3171	0	33436	32746	
3172	0	33256	32732	
3173	0	34506	32924	
3174	0	35620	32454	
3175	0	34968	32614	
3176	0	33412	32744	
3177	0	31202	32714	
3178	0	29504	32496	
3179	0	29240	32742	
3180	0	29868	33008	
3181	0	30752	32734	
3182	0	32470	32752	
3183	0	35084	32986	
3184	0	35888	33093	
3185	0	35832	32988	
3186	0	35236	32442	
3187	0	32996	32380	
3188	0	32174	32638	
3189	0	31716	32849	
3190	0	32170	32752	
3191	0	31784	32684	
3192	0	30703	32660	
3193	0	30700	32710	
3194	0	31422	32714	
3195	0	32372	32566	
3196	0	33210	32610	
3197	0	33988	32916	
3198	0	35730	33094	
3199	0	35232	33400	
3200	0	32934	33140	
3201	0	31648	32756	
3202	0	31268	32816	
3203	0	30576	32558	
3204	0	30668	32634	
3205	0	31673	33136	
3206	0	33152	33126	
3207	0	34108	33086	
3208	0	35036	32652	
3209	0	35120	32452	
3210	0	35284	32352	
3211	0	33860	32060	
3212	0	32628	32124	
3213	0	31706	32284	
3214	0	31578	32858	
3215	0	33768	32828	
3216	0	36960	32768	
3217	0	38144	33008	
3218	0	37412	32892	
3219	0	33580	32810	
3220	0	30116	32800	
3221	0	28116	32914	
3222	0	27680	32780	
3223	0	28312	32814	
3224	0	28940	32775	
3225	0	30218	32838	
3226	0	31168	32786	
3227	0	31665	32839	
3228	0	31940	32615	
3229	0	31936	32980	
3230	0	32336	32974	
3231	0	32446	32557	
3232	0	33202	32538	
3233	0	33986	32305	
3234	0	34322	32529	
3235	0	34556	32376	
3236	0	34344	32423	
3237	0	34056	32642	
3238	0	33788	32896	
3239	0	33858	32952	
3240	0	33880	32730	
3241	0	33862	32468	
3242	0	33956	32448	
3243	0	33760	33054	
3244	0	33792	33132	
3245	0	33218	33300	
3246	0	33954	33322	
3247	0	34321	33594	
3248	0	34242	33535	
3249	0	33918	33328	
3250	0	34112	32620	
3251	0	32774	32622	
3252	0	32670	32368	
3253	0	32408	32028	
3254	0	31240	32362	
3255	0	31780	33068	
3256	0	33444	32788	
3257	0	33454	32730	
3258	0	31653	32744	
3259	0	30024	33136	
3260	0	29344	33086	
3261	0	29502	33340	
3262	0	31176	33078	
3263	0	32736	32708	
3264	0	33420	32220	
3265	0	33656	31655	
3266	0	33450	31812	
3267	0	32764	32254	
3268	0	32388	32612	
3269	0	32170	32676	
3270	0	31960	32807	
3271	0	32128	32998	
3272	0	32984	33031	
3273	0	33976	33233	
3274	0	34020	32870	
3275	0	34618	32744	
3276	0	33436	32952	
3277	0	32548	32896	
3278	0	31904	32852	
3279	0	31764	32672	
3280	0	31968	32707	
3281	0	33140	32694	
3282	0	33944	32712	
3283	0	34436	32868	
3284	0	34892	32976	
3285	0	33804	32864	
3286	0	32775	32712	
3287	0	31572	32582	
3288	0	30564	32744	
3289	0	31008	32814	
3290	0	32544	32722	
3291	0	33358	32896	
3292	0	34364	32854	
3293	0	34528	32768	
3294	0	35016	32519	
3295	0	33540	32724	
3296	0	32192	32754	
3297	0	31504	32762	
3298	0	31694	32727	
3299	0	31780	32588	
3300	0	32032	32694	
3301	0	32332	32716	
3302	0	32304	32581	
3303	0	32636	32566	
3304	0	32832	32710	
3305	0	33068	32903	
3306	0	33640	32982	
3307	0	34234	32838	
3308	0	33632	32856	
3309	0	33276	32824	
3310	0	32452	32878	
3311	0	31928	32866	
3312	0	31854	32674	
3313	0	32548	32720	
3314	0	32213	32592	
3315	0	32856	32775	
3316	0	32960	32874	
3317	0	32638	32878	
3318	0	33288	32968	
3319	0	32716	32774	
3320	0	32260	32775	
3321	0	32820	32786	
3322	0	33008	32666	
3323	0	33762	32884	
3324	0	33920	32816	
3325	0	33756	32766	
3326	0	33066	32792	
3327	0	31984	32746	
3328	0	31848	32924	
3329	0	31708	32830	
3330	0	31868	32800	
3331	0	32548	33004	
3332	0	33792	32706	
3333	0	33552	32548	
3334	0	33057	32655	
3335	0	32870	32618	
3336	0	32868	32828	
3337	0	33328	32983	
3338	0	33692	32844	
3339	0	33618	32756	
3340	0	33364	32500	
3341	0	32640	32754	
3342	0	32340	32614	
3343	0	31700	32502	
3344	0	31578	32508	
3345	0	31702	32562	
3346	0	32480	32474	
3347	0	33258	32616	
3348	0	32920	32710	
3349	0	32484	32682	
3350	0	32312	32820	
3351	0	32332	32903	
3352	0	33012	32916	
3353	0	33042	32918	
3354	0	33104	32884	
3355	0	32911	32766	
3356	0	32860	32970	
3357	0	33144	32966	
3358	0	32984	32850	
3359	0	33058	32960	
3360	0	33160	33008	
3361	0	32385	32903	
3362	0	32776	32688	
3363	0	32964	32732	
3364	0	33076	32788	
3365	0	32622	32684	
3366	0	33031	32658	
3367	0	33476	32796	
3368	0	33320	32684	
3369	0	33060	32684	
3370	0	33764	32632	
3371	0	33912	32732	
3372	0	32780	32740	
3373	0	32124	32542	
3374	0	32020	32704	
3375	0	31688	32736	
3376	0	32076	32800	
3377	0	33394	32792	
3378	0	33316	32766	
3379	0	32692	32856	
3380	0	32404	32998	
3381	0	32616	32716	
3382	0	32263	32558	
3383	0	31994	32332	
3384	0	31972	32384	
3385	0	32052	32358	
3386	0	32430	32564	
3387	0	32614	32725	
3388	0	32858	33075	
3389	0	32976	33164	
3390	0	32974	33319	
3391	0	33052	33538	
3392	0	33042	33434	
3393	0	33329	33112	
3394	0	34380	32928	
3395	0	34832	32688	
3396	0	33780	32574	
3397	0	33146	32300	
3398	0	33124	32276	
3399	0	33160	32358	
3400	0	32720	32348	
3401	0	32502	32512	
3402	0	32218	32452	
3403	0	32200	32472	
3404	0	32252	32622	
3405	0	32288	32812	
3406	0	31684	32844	
3407	0	31946	33040	
3408	0	32160	33188	
3409	0	32184	33118	
3410	0	32688	33072	
3411	0	33396	32956	
3412	0	33672	32900	
3413	0	33420	33092	
3414	0	33214	32999	
3415	0	33080	32742	
3416	0	32816	32444	
3417	0	32748	32484	
3418	0	32640	32322	
3419	0	32692	32519	
3420	0	32696	32748	
3421	0	33132	32679	
3422	0	32820	32692	
3423	0	32910	32638	
3424	0	33148	32527	
3425	0	33578	32598	
3426	0	33746	32670	
3427	0	33144	32772	
3428	0	32268	32756	
3429	0	32510	32562	
3430	0	33233	32900	
3431	0	33680	33031	
3432	0	33392	32848	
3433	0	32782	32818	
3434	0	32456	32846	
3435	0	32132	32774	
3436	0	31644	32824	
3437	0	31744	32963	
3438	0	32244	33068	
3439	0	33040	32968	
3440	0	32956	32926	
3441	0	32536	32660	
3442	0	32420	32583	
3443	0	32264	32519	
3444	0	32408	32565	
3445	0	33272	32854	
3446	0	33790	32824	
3447	0	33776	32972	
3448	0	33820	33408	
3449	0	33832	32788	
3450	0	33292	32598	
3451	0	32752	32706	
3452	0	32280	32468	
3453	0	31946	32223	
3454	0	31536	32168	
3455	0	31256	32666	
3456	0	31050	32784	
3457	0	31330	32926	
3458	0	31740	32862	
3459	0	32376	32710	
3460	0	33024	32627	
3461	0	33552	32704	
3462	0	34530	32812	
3463	0	33920	32764	
3464	0	33088	32792	
3465	0	33106	32734	
3466	0	32988	32540	
3467	0	33520	32802	
3468	0	34412	32836	
3469	0	34612	32775	
3470	0	34456	32908	
3471	0	33798	32936	
3472	0	32744	32972	
3473	0	32116	33058	
3474	0	31860	32936	
3475	0	31834	32923	
3476	0	32054	33042	
3477	0	32604	33022	
3478	0	32524	32836	
3479	0	32552	32877	
3480	0	32224	32842	
3481	0	32304	32894	
3482	0	32576	32912	
3483	0	32648	32714	
3484	0	32864	32736	
3485	0	32872	32582	
3486	0	33072	32684	
3487	0	33036	32720	
3488	0	32826	32615	
3489	0	32676	32486	
3490	0	32208	32258	
3491	0	32234	32219	
3492	0	33280	32324	
3493	0	33724	32484	
3494	0	34464	32590	
3495	0	34460	32672	
3496	0	33662	32764	
3497	0	32860	32844	
3498	0	32248	32948	
3499	0	31854	32874	
3500	0	31816	32924	
3501	0	31700	32998	
3502	0	31892	33062	
3503	0	32312	32903	
3504	0	32272	32912	
3505	0	32144	32647	
3506	0	32988	32692	
3507	0	33376	32697	
3508	0	33636	32918	
3509	0	33148	32978	
3510	0	32560	32740	
3511	0	32106	32828	
3512	0	32280	32852	
3513	0	32924	32594	
3514	0	33026	32575	
3515	0	33296	32628	
3516	0	33876	32811	
3517	0	33708	32948	
3518	0	32956	32800	
3519	0	32784	32916	
3520	0	33470	32881	
3521	0	33696	32844	
3522	0	34086	33182	
3523	0	33400	33022	
3524	0	32976	32938	
3525	0	32692	32878	
3526	0	32876	32748	
3527	0	32500	32718	
3528	0	32348	32824	
3529	0	32680	32938	
3530	0	33264	32756	
3531	0	32641	32624	
3532	0	31088	32510	
3533	0	30392	32530	
3534	0	30196	32571	
3535	0	30338	32556	
3536	0	30800	32401	
3537	0	32120	32614	
3538	0	33116	32728	
3539	0	33636	32486	
3540	0	34344	32616	
3541	0	34364	32626	
3542	0	33706	32730	
3543	0	34090	32848	
3544	0	33528	32903	
3545	0	32992	32892	
3546	0	32532	32944	
3547	0	32400	32996	
3548	0	32562	33076	
3549	0	32866	32856	
3550	0	32880	32876	
3551	0	33176	32775	
3552	0	33572	32647	
3553	0	33940	32878	
3554	0	34116	32866	
3555	0	33520	32770	
3556	0	33264	32830	
3557	0	32824	32688	
3558	0	32380	32852	
3559	0	32852	32811	
3560	0	32746	32615	
3561	0	32444	32486	
3562	0	32263	32417	
3563	0	32196	32458	
3564	0	32148	32486	
3565	0	32528	32482	
3566	0	33404	32676	
3567	0	33532	32582	
3568	0	33436	32551	
3569	0	32936	32678	
3570	0	32128	32817	
3571	0	31460	32750	
3572	0	31336	33047	
3573	0	31608	33172	
3574	0	32175	32952	
3575	0	32762	32775	
3576	0	32942	32636	
3577	0	33084	32654	
3578	0	33338	32656	
3579	0	33224	32391	
3580	0	32660	31992	
3581	0	32422	31942	
3582	0	32376	32204	
3583	0	32580	32582	
3584	0	32800	32924	
3585	0	33492	33414	
3586	0	33832	33388	
3587	0	33330	33446	
3588	0	33090	33585	
3589	0	32868	33830	
3590	0	32554	33799	
3591	0	32522	33236	
3592	0	32908	32807	
3593	0	33144	32759	
3594	0	33248	32719	
3595	0	33124	32712	
3596	0	33556	32775	
3597	0	34048	32790	
3598	0	33620	33040	
3599	0	34182	33063	
3600	0	34444	32956	
3601	0	33816	32647	
3602	0	32600	32866	
3603	0	31824	32754	
3604	0	31072	32584	
3605	0	30910	32526	
3606	0	31562	32693	
3607	0	31976	32701	
3608	0	32068	32455	
3609	0	32092	32310	
3610	0	32396	32347	
3611	0	31972	32412	
3612	0	31748	32550	
3613	0	31816	32711	
3614	0	32112	32647	
3615	0	32716	32730	
3616	0	32800	32864	
3617	0	32888	32812	
3618	0	33148	32856	
3619	0	33320	32775	
3620	0	33412	32676	
3621	0	33744	32432	
3622	0	33708	32502	
3623	0	33712	32500	
3624	0	34002	32408	
3625	0	34108	32382	
3626	0	34364	32671	
3627	0	34536	32608	
3628	0	34388	32808	
3629	0	33928	32894	
3630	0	33040	33118	
3631	0	33112	33028	
3632	0	33396	33362	
3633	0	32976	33312	
3634	0	32608	33072	
3635	0	32100	33046	
3636	0	31456	32952	
3637	0	30900	32714	
3638	0	30500	32856	
3639	0	30652	32572	
3640	0	30738	32612	
3641	0	30444	32455	
3642	0	30652	32648	
3643	0	31262	32550	
3644	0	31824	32452	
3645	0	32596	32614	
3646	0	33600	32628	
3647	0	34064	32514	
3648	0	34506	32748	
3649	0	34688	32820	
3650	0	34954	32702	
3651	0	34918	32874	
3652	0	33920	32772	
3653	0	33180	32687	
3654	0	32916	32808	
3655	0	32056	32964	
3656	0	31680	33086	
3657	0	31818	33198	
3658	0	32156	33159	
3659	0	32570	33191	
3660	0	32994	33140	
3661	0	33396	33144	
3662	0	33804	33088	
3663	0	33514	32926	
3664	0	33432	32652	
3665	0	34010	32678	
3666	0	33876	32756	
3667	0	33604	32696	
3668	0	32624	32604	
3669	0	31936	32676	
3670	0	31860	32664	
3671	0	31938	32772	
3672	0	32150	32662	
3673	0	32428	32620	
3674	0	33056	32468	
3675	0	33188	32412	
3676	0	32952	32518	
3677	0	32440	32598	
3678	0	32222	32712	
3679	0	32120	32878	
3680	0	31956	32786	
3681	0	31744	32876	
3682	0	32352	32850	
3683	0	32686	32611	
3684	0	33172	32752	
3685	0	32930	32539	
3686	0	32812	32632	
3687	0	32544	32538	
3688	0	32488	32813	
3689	0	32246	32998	
3690	0	32580	33068	
3691	0	32850	33318	
3692	0	33268	33278	
3693	0	33540	32966	
3694	0	33380	32810	
3695	0	33364	32654	
3696	0	33632	32492	
3697	0	33796	32460	
3698	0	33984	32438	
3699	0	34036	32513	
3700	0	34090	32684	
3701	0	33340	32650	
3702	0	32848	32831	
3703	0	32472	32615	
3704	0	32860	32727	
3705	0	33368	32756	
3706	0	33360	32810	
3707	0	33104	32946	
3708	0	32288	32766	
3709	0	31916	32712	
3710	0	31452	32764	
3711	0	30992	32914	
3712	0	31064	32806	
3713	0	31416	32724	
3714	0	31906	32798	
3715	0	32392	32711	
3716	0	32478	32748	
3717	0	32362	32758	
3718	0	32192	32710	
3719	0	32100	32838	
3720	0	32314	32836	
3721	0	32494	32706	
3722	0	32758	32871	
3723	0	33244	32634	
3724	0	33728	32774	
3725	0	33850	32802	
3726	0	34076	32740	
3727	0	34048	32870	
3728	0	33566	32878	
3729	0	33384	32830	
3730	0	33434	32868	
3731	0	33636	32828	
3732	0	33832	32864	
3733	0	34032	32766	
3734	0	33736	32657	
3735	0	33076	32666	
3736	0	32516	32582	
3737	0	32264	32839	
3738	0	32198	32748	
3739	0	32046	32796	
3740	0	31768	32707	
3741	0	31860	32599	
3742	0	31888	32474	
3743	0	32068	32492	
3744	0	31994	32424	
3745	0	32264	32476	
3746	0	32600	32677	
3747	0	32896	32756	
3748	0	33140	33008	
3749	0	33716	33070	
3750	0	34014	32942	
3751	0	34216	32922	
3752	0	34242	32984	
3753	0	33946	32775	
3754	0	33146	32735	
3755	0	32638	32670	
3756	0	32064	32672	
3757	0	31720	32775	
3758	0	31876	32858	
3759	0	31929	32834	
3760	0	32074	32822	
3761	0	32360	32870	
3762	0	32740	32798	
3763	0	32980	32930	
3764	0	32912	32865	
3765	0	32527	32648	
3766	0	32528	32512	
3767	0	33116	32526	
3768	0	33444	32598	
3769	0	32898	32735	
3770	0	32540	32574	
3771	0	32458	32714	
3772	0	32193	32694	
3773	0	32696	32844	
3774	0	32836	32634	
3775	0	33112	32694	
3776	0	33364	32926	
3777	0	33250	32866	
3778	0	33180	32874	
3779	0	33176	32900	
3780	0	33202	32903	
3781	0	33176	32922	
3782	0	32832	32806	
3783	0	32544	32756	
3784	0	32432	32774	
3785	0	32420	32798	
3786	0	32480	32682	
3787	0	32846	32647	
3788	0	32916	32760	
3789	0	33548	32812	
3790	0	34152	32775	
3791	0	34456	32712	
3792	0	33570	32732	
3793	0	32136	32742	
3794	0	31329	32684	
3795	0	30898	32775	
3796	0	30828	32640	
3797	0	31392	32830	
3798	0	31992	32734	
3799	0	32440	32756	
3800	0	32832	32624	
3801	0	32754	32700	
3802	0	33008	32828	
3803	0	33108	32775	
3804	0	33148	32940	
3805	0	33376	32925	
3806	0	33356	32748	
3807	0	33252	32775	
3808	0	33146	32760	
3809	0	33160	32694	
3810	0	33136	32849	
3811	0	33314	32766	
3812	0	33304	32840	
3813	0	33244	32759	
3814	0	33210	32583	
3815	0	33068	32732	
3816	0	32930	32788	
3817	0	32824	32903	
3818	0	32808	32974	
3819	0	32932	33088	
3820	0	33004	33056	
3821	0	32932	33063	
3822	0	32614	33074	
3823	0	32802	32908	
3824	0	32796	32929	
3825	0	32832	32727	
3826	0	33172	32839	
3827	0	33796	32688	
3828	0	33252	32580	
3829	0	33018	32636	
3830	0	32804	32554	
3831	0	32724	32498	
3832	0	32334	32548	
3833	0	31916	32576	
3834	0	31908	32638	
3835	0	32094	32692	
3836	0	32192	32698	
3837	0	32328	32742	
3838	0	32592	32882	
3839	0	32928	32801	
3840	0	33358	32798	
3841	0	33156	32856	
3842	0	32884	32686	
3843	0	32720	32738	
3844	0	32744	32771	
3845	0	32722	32823	
3846	0	32704	32726	
3847	0	33184	32682	
3848	0	32896	32562	
3849	0	32680	32858	
3850	0	32498	32952	
3851	0	32912	32724	
3852	0	33568	32806	
3853	0	33350	32719	
3854	0	32772	32878	
3855	0	32498	32934	
3856	0	32384	32747	
3857	0	32304	32852	
3858	0	32728	32806	
3859	0	33092	32618	
3860	0	33192	32719	
3861	0	33026	32642	
3862	0	32834	32772	
3863	0	32582	32802	
3864	0	32606	32751	
3865	0	32732	32824	
3866	0	32778	32842	
3867	0	32482	32710	
3868	0	32494	32679	
3869	0	32454	32807	
3870	0	32624	32836	
3871	0	32348	32903	
3872	0	32448	32812	
3873	0	32670	32804	
3874	0	32775	32752	
3875	0	32708	32647	
3876	0	33044	32684	
3877	0	32860	32644	
3878	0	32810	32794	
3879	0	33212	32716	
3880	0	33408	32657	
3881	0	33088	32764	
3882	0	32546	32846	
3883	0	32128	32708	
3884	0	32132	32676	
3885	0	32614	32736	
3886	0	33365	32762	
3887	0	33648	32826	
3888	0	33512	32706	
3889	0	33246	32902	
3890	0	32836	32884	
3891	0	32556	32712	
3892	0	32612	32692	
3893	0	32836	32863	
3894	0	32934	32908	
3895	0	32992	32831	
3896	0	33096	32775	
3897	0	33106	32798	
3898	0	32928	32704	
3899	0	32860	32679	
3900	0	32704	32796	
3901	0	32606	32814	
3902	0	32552	32598	
3903	0	32920	32795	
3904	0	33104	32742	
3905	0	33306	32711	
3906	0	33380	32546	
3907	0	33226	32724	
3908	0	32944	32818	
3909	0	32894	32738	
3910	0	32928	32810	
3911	0	32680	32856	
3912	0	32706	32762	
3913	0	32486	32851	
3914	0	32400	32935	
3915	0	32148	32844	
3916	0	32232	32918	
3917	0	32556	32849	
3918	0	32772	32843	
3919	0	32984	32767	
3920	0	32997	32838	
3921	0	32968	32806	
3922	0	33196	32670	
3923	0	33148	32644	
3924	0	33260	32730	
3925	0	33130	32690	
3926	0	32854	32756	
3927	0	33182	32683	
3928	0	33292	32775	
3929	0	33540	32775	
3930	0	33272	32711	
3931	0	32544	32704	
3932	0	31940	32724	
3933	0	31648	32722	
3934	0	31588	32836	
3935	0	31796	32806	
3936	0	32266	32732	
3937	0	32118	32874	
3938	0	31960	32768	
3939	0	31936	32584	
3940	0	31828	32692	
3941	0	32268	32733	
3942	0	32624	32625	
3943	0	33216	32700	
3944	0	33552	32814	
3945	0	33802	32647	
3946	0	33992	32660	
3947	0	33794	32871	
3948	0	33730	32728	
3949	0	33528	32870	
3950	0	33478	32842	
3951	0	33642	32839	
3952	0	33828	32822	
3953	0	33908	32850	
3954	0	33532	32806	
3955	0	32802	32876	
3956	0	32170	32800	
3957	0	31860	32838	
3958	0	31906	32944	
3959	0	32120	32710	
3960	0	32450	32794	
3961	0	32683	32843	
3962	0	32808	32610	
3963	0	32636	32754	
3964	0	32632	32792	
3965	0	32856	32800	
3966	0	32996	32662	
3967	0	32756	32743	
3968	0	32632	32826	
3969	0	32680	32656	
3970	0	32886	32898	
3971	0	33432	32742	
3972	0	33632	32632	
3973	0	33184	32806	
3974	0	32744	32743	
3975	0	32468	32888	
3976	0	32280	32746	
3977	0	32328	32888	
3978	0	32518	32821	
3979	0	33128	32732	
3980	0	33012	32877	
3981	0	32752	32884	
3982	0	32436	32849	
3983	0	32128	32800	
3984	0	31860	32870	
3985	0	31753	32794	
3986	0	31760	32748	
3987	0	32092	32712	
3988	0	32532	32672	
3989	0	32852	32715	
3990	0	33014	32710	
3991	0	33136	32754	
3992	0	33264	32816	
3993	0	33240	32615	
3994	0	33318	32711	
3995	0	33400	32750	
3996	0	33328	32670	
3997	0	33340	32732	
3998	0	33372	32829	
3999	0	33100	32710	
4000	0	32982	32740	
4001	0	32870	32732	
4002	0	32710	32690	
4003	0	32736	32828	
4004	0	32800	32664	
4005	0	32944	32926	
4006	0	33526	32951	
4007	0	33748	32988	
4008	0	33556	32796	
4009	0	33340	32893	
4010	0	33006	32756	
4011	0	32846	32702	
4012	0	32602	32775	
4013	0	32288	32996	
4014	0	32286	33062	
4015	0	32428	33094	
4016	0	32484	32739	
4017	0	32482	32839	
4018	0	31948	32738	
4019	0	31848	32668	
4020	0	32008	32762	
4021	0	32160	32632	
4022	0	32470	32542	
4023	0	32756	32599	
4024	0	32756	32678	
4025	0	32736	32572	
4026	0	32832	32556	
4027	0	33093	32718	
4028	0	33706	32663	
4029	0	34712	32784	
4030	0	34532	32868	
4031	0	33716	32766	
4032	0	32960	32846	
4033	0	32136	32922	
4034	0	31620	33004	
4035	0	31584	32881	
4036	0	31992	32762	
4037	0	32240	32760	
4038	0	32304	32895	
4039	0	32380	32739	
4040	0	32420	32639	
4041	0	32692	32675	
4042	0	32660	32707	
4043	0	33056	32620	
4044	0	32948	32720	
4045	0	33152	32638	
4046	0	33344	32646	
4047	0	33728	32794	
4048	0	33838	32824	
4049	0	34770	32868	
4050	0	34404	32655	
4051	0	33486	32580	
4052	0	32656	32574	
4053	0	32040	32278	
4054	0	31568	32236	
4055	0	31372	32348	
4056	0	31600	32286	
4057	0	32020	32642	
4058	0	32336	32903	
4059	0	32706	33095	
4060	0	32826	33436	
4061	0	32952	33658	
4062	0	32744	33448	
4063	0	32552	33334	
4064	0	32568	33144	
4065	0	32740	32865	
4066	0	32796	32830	
4067	0	32852	32672	
4068	0	32876	32508	
4069	0	33002	32454	
4070	0	33024	32620	
4071	0	33096	32694	
4072	0	33000	32501	
4073	0	33024	32627	
4074	0	33100	32687	
4075	0	33140	32693	
4076	0	33210	32810	
4077	0	33201	32724	
4078	0	33056	32671	
4079	0	32992	32720	
4080	0	32892	32770	
4081	0	32724	32628	
4082	0	32570	32638	
4083	0	32436	32612	
4084	0	32396	32679	
4085	0	32266	32650	
4086	0	32330	32734	
4087	0	32508	32704	
4088	0	32488	32644	
4089	0	32686	32820	
4090	0	32682	32757	
4091	0	32808	32704	
4092	0	33066	32854	
4093	0	32850	32928	
4094	0	32810	32866	
4095	0	32886	32999	
4096	0	32764	32842	
4097	0	32912	32823	
4098	0	32864	32903	
4099	0	32888	32758	
4100	0	32896	32775	
4101	0	32882	32854	
4102	0	32888	32774	
4103	0	32816	32928	
4104	0	32886	32788	
4105	0	32880	32772	
4106	0	32920	32636	
4107	0	32876	32772	
4108	0	32896	32711	
4109	0	32738	32794	
4110	0	32964	32652	
4111	0	32790	32736	
4112	0	32764	32798	
4113	0	32736	32700	
4114	0	32812	32795	
4115	0	32832	32865	
4116	0	32936	32808	
4117	0	32943	32798	
4118	0	32852	32814	
4119	0	32808	32725	
4120	0	32678	32702	
4121	0	32674	32704	
4122	0	32672	32830	
4123	0	32764	32784	
4124	0	32836	32748	
4125	0	32924	32590	
4126	0	33124	32736	
4127	0	33108	32775	
4128	0	33292	32878	
4129	0	33184	32770	
4130	0	33012	32896	
4131	0	32856	32838	
4132	0	32628	32770	
4133	0	32424	32718	
4134	0	32316	32640	
4135	0	32346	32487	
4136	0	32402	32573	
4137	0	32364	32592	
4138	0	32520	32480	
4139	0	32638	32510	
4140	0	32644	32692	
4141	0	32766	32894	
4142	0	32744	32838	
4143	0	32716	33001	
4144	0	32836	32945	
4145	0	32852	32828	
4146	0	32900	32830	
4147	0	32928	32790	
4148	0	32932	32606	
4149	0	33056	32620	
4150	0	33100	32700	
4151	0	33144	32728	
4152	0	33032	32806	
4153	0	33032	32820	
4154	0	32996	32672	
4155	0	32919	32838	
4156	0	32964	32950	
4157	0	32864	32883	
4158	0	32816	32983	
4159	0	32860	32972	
4160	0	32840	32793	
4161	0	32890	32822	
4162	0	32964	32690	
4163	0	32892	32672	
4164	0	32872	32468	
4165	0	32820	32583	
4166	0	32736	32518	
4167	0	32774	32720	
4168	0	32788	32740	
4169	0	32804	32988	
4170	0	32736	33062	
4171	0	32810	33198	
4172	0	32760	32960	
4173	0	32884	32912	
4174	0	32758	32866	
4175	0	32728	32903	
4176	0	32728	32744	
4177	0	32676	32802	
4178	0	32776	32936	
4179	0	32760	32592	
4180	0	32820	32609	
4181	0	32852	32559	
4182	0	32866	32714	
4183	0	32906	32604	
4184	0	32832	32655	
4185	0	32756	32711	
4186	0	32892	32657	
4187	0	32748	32648	
4188	0	32852	32804	
4189	0	32774	32726	
4190	0	32860	32814	
4191	0	32852	32654	
4192	0	32936	32698	
4193	0	32876	32686	
4194	0	32844	32758	
4195	0	32906	32798	
4196	0	32916	32812	
4197	0	32920	33084	
4198	0	32880	32918	
4199	0	32832	32898	
4200	0	32782	32688	
4201	0	32756	32830	
4202	0	32732	32679	
4203	0	32856	32492	
4204	0	32856	32609	
4205	0	32896	32678	
4206	0	32858	32772	
4207	0	32820	32656	
4208	0	32860	32774	
4209	0	32818	32656	
4210	0	32788	32796	
4211	0	32794	32854	
4212	0	32736	32848	
4213	0	32688	32614	
4214	0	32692	32759	
4215	0	32704	32866	
4216	0	32696	32806	
4217	0	32816	32926	
4218	0	32874	32842	
4219	0	32888	32842	
4220	0	32860	32720	
4221	0	32808	32858	
4222	0	32788	32890	
4223	0	32900	32844	
4224	0	32934	32848	
4225	0	32968	32896	
4226	0	32928	32903	
4227	0	33020	32966	
4228	0	33024	32903	
4229	0	32842	32609	
4230	0	32736	32638	
4231	0	32798	32560	
4232	0	32804	32596	
4233	0	32756	32580	
4234	0	32848	32586	
4235	0	32872	32636	
4236	0	32872	32454	
4237	0	32860	32640	
4238	0	32636	32686	
4239	0	32536	32682	
4240	0	32564	32710	
4241	0	32532	32692	
4242	0	32672	32766	
4243	0	32766	32702	
4244	0	32612	33040	
4245	0	32678	33056	
4246	0	32820	32920	
4247	0	32886	32880	
4248	0	32938	32836	
4249	0	32928	32702	
4250	0	33020	32839	
4251	0	33064	32906	
4252	0	32984	32967	
4253	0	32938	32840	
4254	0	32908	33044	
4255	0	32810	33156	
4256	0	32816	32968	
4257	0	32750	32916	
4258	0	32694	32870	
4259	0	32674	32716	
4260	0	32668	32690	
4261	0	32678	32665	
4262	0	32612	32526	
4263	0	32656	32660	
4264	0	32768	32657	
4265	0	32804	32540	
4266	0	32776	32596	
4267	0	32926	32548	
4268	0	33140	32814	
4269	0	33118	32764	
4270	0	33169	32766	
4271	0	33080	32758	
4272	0	32912	32758	
4273	0	32908	32706	
4274	0	32934	32604	
4275	0	33041	32519	
4276	0	32902	32548	
4277	0	32868	32574	
4278	0	33072	32564	
4279	0	33244	32784	
4280	0	33036	32892	
4281	0	32702	33204	
4282	0	32342	33074	
4283	0	32488	32962	
4284	0	32586	32774	
4285	0	32928	32774	
4286	0	32936	32656	
4287	0	32784	32736	
4288	0	32404	32630	
4289	0	31908	32618	
4290	0	31760	32998	
4291	0	31660	33159	
4292	0	31716	32980	
4293	0	32126	33166	
4294	0	32532	33206	
4295	0	32720	32942	
4296	0	33052	32767	
4297	0	33158	32654	
4298	0	33306	32544	
4299	0	33232	32550	
4300	0	33240	32608	
4301	0	33272	32550	
4302	0	33268	32532	
4303	0	33316	32676	
4304	0	33172	32612	
4305	0	33232	32719	
4306	0	33052	32775	
4307	0	33048	32706	
4308	0	32962	32688	
4309	0	33008	32708	
4310	0	32884	32866	
4311	0	32780	32642	
4312	0	32772	32814	
4313	0	32452	32718	
4314	0	32692	32686	
4315	0	32774	32834	
4316	0	32836	32808	
4317	0	32810	32742	
4318	0	32802	32764	
4319	0	32794	32762	
4320	0	32832	32830	
4321	0	32746	32878	
4322	0	32832	32875	
4323	0	32742	32618	
4324	0	32832	32736	
4325	0	32834	32743	
4326	0	32836	32674	
4327	0	32900	32732	
4328	0	32876	32630	
4329	0	32808	32798	
4330	0	32760	32799	
4331	0	32710	32836	
4332	0	32644	32774	
4333	0	32656	32847	
4334	0	32648	32720	
4335	0	32676	32716	
4336	0	32698	32666	
4337	0	32900	32730	
4338	0	32774	32738	
4339	0	32784	32604	
4340	0	32800	32834	
4341	0	32834	32775	
4342	0	32884	32884	
4343	0	32856	32964	
4344	0	32808	32718	
4345	0	32708	32748	
4346	0	32832	32710	
4347	0	32768	32775	
4348	0	32764	32858	
4349	0	32868	32894	
4350	0	32840	32967	
4351	0	32872	32858	
4352	0	32888	32870	
4353	0	32968	32768	
4354	0	32920	32730	
4355	0	32888	32684	
4356	0	32832	32583	
4357	0	32750	32807	
4358	0	32852	32682	
4359	0	32796	32746	
4360	0	32736	32815	
4361	0	32888	32903	
4362	0	33008	32862	
4363	0	32868	32898	
4364	0	32816	32900	
4365	0	32610	32742	
4366	0	32641	32700	
4367	0	32624	32615	
4368	0	32721	32718	
4369	0	32682	32665	
4370	0	32738	32564	
4371	0	32720	32734	
4372	0	32742	32775	
4373	0	32888	32751	
4374	0	32924	32801	
4375	0	32868	32750	
4376	0	32775	32790	
4377	0	32744	32822	
4378	0	32602	32924	
4379	0	32716	32990	
4380	0	32832	32916	
4381	0	32872	32770	
4382	0	32804	32807	
4383	0	32810	32788	
4384	0	32876	32692	
4385	0	32904	32820	
4386	0	32896	32830	
4387	0	32801	32718	
4388	0	32736	32775	
4389	0	32684	32463	
4390	0	32754	32498	
4391	0	32760	32549	
4392	0	32800	32884	
4393	0	32885	32762	
4394	0	32888	32951	
4395	0	32910	32874	
4396	0	32926	32820	
4397	0	32962	32866	
4398	0	32932	32804	
4399	0	32816	32681	
4400	0	32920	32708	
4401	0	32880	32882	
4402	0	32830	32775	
4403	0	32784	32762	
4404	0	32704	32807	
4405	0	32712	32628	
4406	0	32706	32670	
4407	0	32816	32652	
4408	0	32816	32633	
4409	0	32954	32824	
4410	0	32872	32871	
4411	0	32920	32669	
4412	0	32948	32798	
4413	0	32933	32885	
4414	0	32848	32832	
4415	0	32848	32834	
4416	0	32842	32752	
4417	0	32844	32762	
4418	0	32992	32838	
4419	0	32928	32759	
4420	0	32884	32682	
4421	0	32772	32760	
4422	0	32842	32748	
4423	0	32808	32673	
4424	0	32652	32692	
4425	0	32730	32660	
4426	0	32776	32580	
4427	0	32648	32702	
4428	0	32593	32592	
4429	0	32606	32490	
4430	0	32581	32686	
4431	0	32616	32980	
4432	0	32560	32904	
4433	0	32676	33038	
4434	0	32906	32988	
4435	0	32912	33012	
4436	0	32892	33098	
4437	0	32896	32828	
4438	0	32908	32828	
4439	0	32808	32948	
4440	0	32872	32828	
4441	0	32784	32862	
4442	0	32934	32858	
4443	0	32984	32798	
4444	0	32916	32642	
4445	0	32776	32538	
4446	0	32764	32612	
4447	0	32758	32540	
4448	0	32816	32624	
4449	0	32732	32698	
4450	0	32648	32772	
4451	0	32668	32918	
4452	0	32648	32876	
4453	0	32754	32522	
4454	0	32688	32733	
4455	0	32852	32724	
4456	0	32924	32888	
4457	0	32876	32929	
4458	0	32876	32890	
4459	0	32848	32903	
4460	0	32828	32784	
4461	0	32816	32766	
4462	0	32832	32549	
4463	0	32872	32680	
4464	0	32843	32694	
4465	0	33020	32684	
4466	0	32992	32666	
4467	0	32868	32684	
4468	0	32878	32784	
4469	0	32882	32814	
4470	0	32860	32825	
4471	0	32860	32792	
4472	0	32816	32775	
4473	0	32780	32804	
4474	0	32758	32759	
4475	0	32838	32828	
4476	0	32836	32807	
4477	0	32780	32775	
4478	0	32690	32770	
4479	0	32774	32839	
4480	0	32812	32720	
4481	0	32794	32793	
4482	0	32778	32800	
4483	0	32808	32850	
4484	0	32798	32707	
4485	0	32910	32624	
4486	0	32874	32639	
4487	0	32840	32656	
4488	0	32870	32610	
4489	0	32832	32664	
4490	0	32834	32646	
4491	0	32856	32886	
4492	0	32830	32936	
4493	0	32756	32858	
4494	0	32832	32836	
4495	0	32912	32871	
4496	0	32828	33030	
4497	0	32736	32854	
4498	0	32714	32804	
4499	0	32728	33058	
4500	0	32686	32970	
4501	0	32730	32744	
4502	0	32810	32746	
4503	0	32760	32640	
4504	0	32824	32620	
4505	0	32874	32569	
4506	0	32824	32686	
4507	0	32836	32678	
4508	0	32916	32760	
4509	0	32928	32790	
4510	0	32880	32658	
4511	0	32732	32792	
4512	0	32676	32798	
4513	0	32724	32766	
4514	0	32674	32768	
4515	0	32696	32818	
4516	0	32753	32686	
4517	0	32816	32806	
4518	0	32812	32822	
4519	0	32860	32808	
4520	0	32880	32852	
4521	0	32772	32707	
4522	0	32824	32740	
4523	0	32852	32732	
4524	0	32874	32725	
4525	0	32852	32667	
4526	0	32870	32556	
4527	0	32900	32722	
4528	0	32826	32828	
4529	0	32876	32775	
4530	0	32892	32743	
4531	0	32775	32736	
4532	0	32846	32798	
4533	0	32866	32810	
4534	0	32852	32734	
4535	0	32810	32753	
4536	0	32808	32716	
4537	0	32812	32890	
4538	0	32838	32958	
4539	0	32784	32862	
4540	0	32828	32852	
4541	0	32884	32864	
4542	0	32812	32632	
4543	0	32900	32692	
4544	0	32976	32726	
4545	0	32916	32682	
4546	0	32820	32735	
4547	0	32712	32661	
4548	0	32664	32721	
4549	0	32664	32708	
4550	0	32660	32714	
4551	0	32650	32824	
4552	0	32772	32822	
4553	0	32832	32803	
4554	0	32858	32816	
4555	0	32890	32738	
4556	0	32848	32801	
4557	0	32884	32724	
4558	0	32816	32670	
4559	0	32736	32832	
4560	0	32804	32838	
4561	0	32848	32715	
4562	0	32784	32764	
4563	0	32678	32600	
4564	0	32754	32696	
4565	0	32806	32632	
4566	0	32806	32794	
4567	0	32784	32836	
4568	0	32840	32688	
4569	0	32896	32900	
4570	0	32870	32760	
4571	0	32816	32647	
4572	0	32772	32830	
4573	0	32828	32870	
4574	0	32880	32774	
4575	0	32889	32854	
4576	0	32836	32740	
4577	0	32820	32775	
4578	0	32768	32679	
4579	0	32674	32718	
4580	0	32688	32686	
4581	0	32678	32772	
4582	0	32798	32768	
4583	0	32774	32812	
4584	0	32842	32740	
4585	0	32876	32775	
4586	0	32882	32738	
4587	0	32880	32674	
4588	0	32830	32756	
4589	0	32738	32647	
4590	0	32700	32663	
4591	0	32740	32820	
4592	0	32704	32673	
4593	0	32740	32788	
4594	0	32823	32764	
4595	0	32880	32762	
4596	0	32848	32826	
4597	0	32744	32752	
4598	0	32748	32711	
4599	0	32712	32722	
4600	0	32812	32894	
4601	0	32800	32810	
4602	0	32792	32884	
4603	0	32816	32830	
4604	0	32880	32854	
4605	0	32912	32702	
4606	0	32890	32652	
4607	0	32952	32726	
4608	0	32912	32742	
4609	0	32926	32681	
4610	0	32874	32764	
4611	0	32782	32748	
4612	0	32798	32758	
4613	0	32912	32844	
4614	0	32848	32856	
4615	0	32744	32734	
4616	0	32728	32772	
4617	0	32572	32756	
4618	0	32560	32742	
4619	0	32648	32710	
4620	0	32800	32662	
4621	0	32786	32792	
4622	0	32848	32775	
4623	0	32780	32766	
4624	0	32860	32855	
4625	0	32946	32748	
4626	0	32976	32694	
4627	0	32980	32698	
4628	0	32960	32769	
4629	0	32904	32740	
4630	0	32884	32790	
4631	0	32884	32804	
4632	0	32846	32775	
4633	0	32776	32824	
4634	0	32784	32708	
4635	0	32866	32693	
4636	0	32788	32795	
4637	0	32764	32714	
4638	0	32780	32788	
4639	0	32796	32731	
4640	0	32712	32664	
4641	0	32768	32804	
4642	0	32724	32675	
4643	0	32772	32775	
4644	0	32832	32822	
4645	0	32756	32775	
4646	0	32728	32710	
4647	0	32762	32732	
4648	0	32736	32676	
4649	0	32756	32743	
4650	0	32744	32771	
4651	0	32764	32660	
4652	0	32794	32790	
4653	0	32820	32788	
4654	0	32796	32822	
4655	0	32832	32732	
4656	0	32744	32903	
4657	0	32708	32775	
4658	0	32820	32732	
4659	0	32808	32806	
4660	0	32798	32794	
4661	0	32884	32647	
4662	0	32872	32756	
4663	0	32860	32662	
4664	0	32864	32648	
4665	0	32860	32714	
4666	0	32852	32828	
4667	0	32872	32878	
4668	0	32810	32822	
4669	0	32802	32828	
4670	0	32888	32712	
4671	0	32846	32828	
4672	0	32815	32766	
4673	0	32720	32935	
4674	0	32776	32884	
4675	0	32836	32695	
4676	0	32828	32810	
4677	0	32832	32721	
4678	0	32812	32822	
4679	0	32892	32838	
4680	0	32856	32855	
4681	0	32800	32808	
4682	0	32820	32684	
4683	0	32798	32742	
4684	0	32805	32718	
4685	0	32716	32678	
4686	0	32804	32775	
4687	0	32844	32742	
4688	0	32768	32970	
4689	0	32776	32823	
4690	0	32828	32630	
4691	0	32804	32820	
4692	0	32764	32704	
4693	0	32874	32756	
4694	0	32782	32870	
4695	0	32840	32824	
4696	0	32832	32712	
4697	0	32824	32882	
4698	0	32810	32816	
4699	0	32774	32730	
4700	0	32848	32814	
4701	0	32816	32746	
4702	0	32872	32775	
4703	0	32802	32742	
4704	0	32774	32825	
4705	0	32764	32740	
4706	0	32770	32794	
4707	0	32804	32700	
4708	0	32800	32640	
4709	0	32796	32695	
4710	0	32868	32775	
4711	0	32822	32734	
4712	0	32764	32839	
4713	0	32862	32871	
4714	0	32845	32754	
4715	0	32816	32814	
4716	0	32836	32704	
4717	0	32816	32816	
4718	0	32794	32864	
4719	0	32780	32756	
4720	0	32790	32661	
4721	0	32753	32768	
4722	0	32784	32702	
4723	0	32788	32848	
4724	0	32792	32805	
4725	0	32804	32704	
4726	0	32840	32875	
4727	0	32828	32746	
4728	0	32808	32743	
4729	0	32774	32692	
4730	0	32816	32775	
4731	0	32768	32692	
4732	0	32776	32812	
4733	0	32814	32769	
4734	0	32828	32730	
4735	0	32846	32766	
4736	0	32796	32806	
4737	0	32760	32832	
4738	0	32866	32865	
4739	0	32856	32696	
4740	0	32868	32830	
4741	0	32808	32844	
4742	0	32828	32750	
4743	0	32814	32742	
4744	0	32860	32750	
4745	0	32808	32644	
4746	0	32796	32792	
4747	0	32762	32766	
4748	0	32860	32699	
4749	0	32870	32744	
4750	0	32848	32830	
4751	0	32814	32750	
4752	0	32808	32839	
4753	0	32876	32828	
4754	0	32804	32839	
4755	0	32828	32894	
4756	0	32830	32918	
4757	0	32906	32710	
4758	0	32846	32916	
4759	0	32932	32916	
4760	0	32866	32791	
4761	0	32896	32855	
4762	0	32830	32831	
4763	0	32808	32679	
4764	0	32788	32734	
4765	0	32716	32620	
4766	0	32628	32534	
4767	0	32708	32544	
4768	0	32636	32633	
4769	0	32696	32607	
4770	0	32728	32599	
4771	0	32792	32583	
4772	0	32784	32647	
4773	0	32808	32662	
4774	0	32812	32846	
4775	0	32800	32762	
4776	0	32900	32775	
4777	0	32778	32886	
4778	0	32780	32792	
4779	0	32792	32760	
4780	0	32736	32732	
4781	0	32804	32752	
4782	0	32784	32814	
4783	0	32796	32793	
4784	0	32860	32854	
4785	0	32832	32826	
4786	0	32816	32740	
4787	0	32874	32860	
4788	0	32860	32892	
4789	0	32792	32894	
4790	0	32802	32858	
4791	0	32784	32884	
4792	0	32888	32936	
4793	0	32908	32844	
4794	0	32964	32736	
4795	0	32980	32884	
4796	0	32848	32775	
4797	0	32844	32740	
4798	0	32846	32831	
4799	0	32904	32820	
4800	0	32832	32849	
4801	0	32816	32684	
4802	0	32804	32734	
4803	0	32820	32738	
4804	0	32782	32704	
4805	0	32690	32658	
4806	0	32764	32743	
4807	0	32780	32732	
4808	0	32744	32638	
4809	0	32788	32740	
4810	0	32788	32856	
4811	0	32808	32700	
4812	0	32860	32888	
4813	0	32772	32734	
4814	0	32830	32856	
4815	0	32750	32775	
4816	0	32860	32872	
4817	0	32840	32860	
4818	0	32852	32728	
4819	0	32764	32668	
4820	0	32782	32787	
4821	0	32840	32694	
4822	0	32876	32775	
4823	0	32828	32720	
4824	0	32810	32762	
4825	0	32782	32684	
4826	0	32832	32742	
4827	0	32766	32640	
4828	0	32780	32702	
4829	0	32842	32724	
4830	0	32824	32780	
4831	0	32868	32759	
4832	0	32784	32759	
4833	0	32796	32748	
4834	0	32814	32800	
4835	0	32814	32750	
4836	0	32884	32775	
4837	0	32864	32860	
4838	0	32788	32762	
4839	0	32886	32798	
4840	0	32818	32844	
4841	0	32810	32724	
4842	0	32816	32828	
4843	0	32822	32706	
4844	0	32836	32838	
4845	0	32872	32768	
4846	0	32796	32674	
4847	0	32775	32824	
4848	0	32882	32726	
4849	0	32800	32658	
4850	0	32808	32775	
4851	0	32864	32748	
4852	0	32820	32652	
4853	0	32792	32748	
4854	0	32780	32792	
4855	0	32840	32854	
4856	0	32808	32886	
4857	0	32836	32711	
4858	0	32914	32802	
4859	0	32860	32817	
4860	0	32812	32736	
4861	0	32762	32822	
4862	0	32792	32751	
4863	0	32810	32632	
4864	0	32720	32804	
4865	0	32756	32735	
4866	0	32740	32647	
4867	0	32764	32702	
4868	0	32752	32688	
4869	0	32784	32786	
4870	0	32792	32734	
4871	0	32780	32760	
4872	0	32804	32788	
4873	0	32828	32732	
4874	0	32816	32857	
4875	0	32756	32898	
4876	0	32756	32730	
4877	0	32840	32864	
4878	0	32914	32806	
4879	0	32856	32766	
4880	0	32836	32775	
4881	0	32864	32720	
4882	0	32878	32732	
4883	0	32832	32768	
4884	0	32876	32675	
4885	0	32864	32740	
4886	0	32752	32711	
4887	0	32844	32736	
4888	0	32812	32804	
4889	0	32868	32670	
4890	0	32804	32790	
4891	0	32782	32808	
4892	0	32808	32668	
4893	0	32760	32702	
4894	0	32788	32775	
4895	0	32814	32723	
4896	0	32784	32858	
4897	0	32860	32854	
4898	0	32774	32828	
4899	0	32884	32752	
4900	0	32836	32736	
4901	0	32852	32806	
4902	0	32824	32725	
4903	0	32798	32786	
4904	0	32846	32732	
4905	0	32798	32640	
4906	0	32876	32711	
4907	0	32856	32767	
4908	0	32812	32711	
4909	0	32796	32770	
4910	0	32824	32871	
4911	0	32824	32737	
4912	0	32728	32674	
4913	0	32756	32748	
4914	0	32780	32844	
4915	0	32756	32806	
4916	0	32745	32788	
4917	0	32784	32822	
4918	0	32760	32770	
4919	0	32825	32839	
4920	0	32820	32852	
4921	0	32738	32662	
4922	0	32798	32705	
4923	0	32872	32700	
4924	0	32768	32768	
4925	0	32716	32767	
4926	0	32736	32716	
4927	0	32844	32766	
4928	0	32866	32686	
4929	0	32828	32834	
4930	0	32808	32723	
4931	0	32768	32826	
4932	0	32868	32753	
4933	0	32908	32748	
4934	0	32814	32766	
4935	0	32828	32806	
4936	0	32816	32854	
4937	0	32802	32900	
4938	0	32784	32836	
4939	0	32913	32710	
4940	0	32814	32790	
4941	0	32788	32689	
4942	0	32786	32800	
4943	0	32748	32772	
4944	0	32741	32803	
4945	0	32716	32718	
4946	0	32764	32720	
4947	0	32764	32702	
4948	0	32820	32764	
4949	0	32730	32799	
4950	0	32820	32752	
4951	0	32832	32834	
4952	0	32844	32897	
4953	0	32856	32677	
4954	0	32812	32814	
4955	0	32792	32911	
4956	0	32804	32848	
4957	0	32788	32846	
4958	0	32828	32768	
4959	0	32848	32647	
4960	0	32844	32884	
4961	0	32881	32740	
4962	0	32818	32714	
4963	0	32776	32806	
4964	0	32800	32794	
4965	0	32740	32698	
4966	0	32828	32789	
4967	0	32778	32679	
4968	0	32752	32716	
4969	0	32768	32764	
4970	0	32776	32708	
4971	0	32764	32858	
4972	0	32824	32884	
4973	0	32892	32834	
4974	0	32916	32807	
4975	0	32864	32852	
4976	0	32857	32708	
4977	0	32792	32852	
4978	0	32808	32842	
4979	0	32832	32831	
4980	0	32818	32854	
4981	0	32752	32822	
4982	0	32800	32698	
4983	0	32796	32660	
4984	0	32808	32730	
4985	0	32844	32768	
4986	0	32864	32732	
4987	0	32836	32724	
4988	0	32780	32746	
4989	0	32832	32678	
4990	0	32868	32725	
4991	0	32804	32790	
4992	0	32796	32767	
4993	0	32774	32812	
4994	0	32800	32689	
4995	0	32768	32814	
4996	0	32860	32704	
4997	0	32854	32726	
4998	0	32840	32694	
4999	0	32882	32834	
5000	0	32842	32692	
5001	0	32748	32775	
5002	0	32852	32791	
5003	0	32820	32698	
5004	0	32804	32742	
5005	0	32748	32752	
5006	0	32836	32638	
5007	0	32804	32716	
5008	0	32764	32642	
5009	0	32762	32800	
5010	0	32776	32775	
5011	0	32884	32706	
5012	0	32872	32876	
5013	0	32878	32975	
5014	0	32784	32825	
5015	0	32844	32814	
5016	0	32808	32845	
5017	0	32870	32775	
5018	0	32816	32775	
5019	0	32860	32775	
5020	0	32740	32640	
5021	0	32768	32754	
5022	0	32782	32700	
5023	0	32836	32708	
5024	0	32788	32796	
5025	0	32780	32750	
5026	0	32900	32775	
5027	0	32876	32687	
5028	0	32740	32860	
5029	0	32852	32720	
5030	0	32756	32708	
5031	0	32838	32868	
5032	0	32770	32770	
5033	0	32828	32704	
5034	0	32830	32812	
5035	0	32764	32886	
5036	0	32788	32724	
5037	0	32812	32729	
5038	0	32752	32760	
5039	0	32809	32732	
5040	0	32796	32742	
5041	0	32836	32784	
5042	0	32876	32792	
5043	0	32808	32630	
5044	0	32836	32766	
5045	0	32820	32734	
5046	0	32836	32743	
5047	0	32864	32852	
5048	0	32842	32750	
5049	0	32872	32676	
5050	0	32852	32646	
5051	0	32786	32694	
5052	0	32822	32694	
5053	0	32796	32744	
5054	0	32744	32935	
5055	0	32712	32798	
5056	0	32736	32728	
5057	0	32724	32764	
5058	0	32708	32908	
5059	0	32688	32910	
5060	0	32720	32814	
5061	0	32752	32714	
5062	0	32748	32610	
5063	0	32772	32608	
5064	0	32768	32660	
5065	0	32752	32768	
5066	0	32744	32798	
5067	0	32852	32730	
5068	0	32888	32810	
5069	0	32852	32863	
5070	0	32856	32696	
5071	0	32848	32790	
5072	0	32876	32768	
5073	0	32936	32900	
5074	0	32904	32816	
5075	0	32878	32710	
5076	0	32912	32830	
5077	0	32874	32775	
5078	0	32836	32881	
5079	0	32786	32870	
5080	0	32820	32740	
5081	0	32874	32830	
5082	0	32808	32789	
5083	0	32862	32636	
5084	0	32890	32695	
5085	0	32880	32625	
5086	0	32702	32736	
5087	0	32770	32792	
5088	0	32810	32757	
5089	0	32856	32775	
5090	0	32816	32594	
5091	0	32824	32706	
5092	0	32800	32898	
5093	0	32800	32739	
5094	0	32808	32796	
5095	0	32804	32948	
5096	0	32712	32859	
5097	0	32724	32775	
5098	0	32736	32855	
5099	0	32738	32724	
5100	0	32718	32786	
5101	0	32852	32816	
5102	0	32792	32680	
5103	0	32790	32760	
5104	0	32878	32695	
5105	0	32970	32716	
5106	0	32876	32692	
5107	0	32852	32830	
5108	0	32764	32623	
5109	0	32820	32772	
5110	0	32794	32711	
5111	0	32844	32647	
5112	0	32792	32804	
5113	0	32768	32876	
5114	0	32816	32700	
5115	0	32808	32886	
5116	0	32800	32758	
5117	0	32856	32888	
5118	0	32808	32808	
5119	0	32802	32870	
5120	0	32784	32854	
5121	0	32764	32676	
5122	0	32786	32820	
5123	0	32808	32794	
5124	0	32810	32654	
5125	0	32774	32748	
5126	0	32780	32764	
5127	0	32712	32726	
5128	0	32768	32836	
5129	0	32736	32812	
5130	0	32804	32696	
5131	0	32828	32799	
5132	0	32792	32791	
5133	0	32834	32788	
5134	0	32778	32750	
5135	0	32832	32854	
5136	0	32788	32788	
5137	0	32813	32850	
5138	0	32802	32720	
5139	0	32840	32712	
5140	0	32852	32808	
5141	0	32800	32831	
5142	0	32826	32678	
5143	0	32796	32724	
5144	0	32840	32782	
5145	0	32868	32690	
5146	0	32856	32582	
5147	0	32802	32730	
5148	0	32828	32775	
5149	0	32844	32752	
5150	0	32830	32828	
5151	0	32748	32859	
5152	0	32847	32820	
5153	0	32784	32772	
5154	0	32821	32887	
5155	0	32752	32795	
5156	0	32764	32756	
5157	0	32744	32728	
5158	0	32758	32804	
5159	0	32802	32790	
5160	0	32780	32774	
5161	0	32848	32820	
5162	0	32836	32769	
5163	0	32884	32756	
5164	0	32818	32720	
5165	0	32805	32764	
5166	0	32766	32742	
5167	0	32772	32780	
5168	0	32808	32742	
5169	0	32780	32763	
5170	0	32836	32635	
5171	0	32812	32764	
5172	0	32888	32756	
5173	0	32858	32790	
5174	0	32876	32775	
5175	0	32788	32753	
5176	0	32788	32854	
5177	0	32858	32702	
5178	0	32740	32862	
5179	0	32808	32846	
5180	0	32764	32744	
5181	0	32840	32862	
5182	0	32776	32812	
5183	0	32838	32706	
5184	0	32770	32728	
5185	0	32784	32764	
5186	0	32832	32636	
5187	0	32780	32734	
5188	0	32798	32743	
5189	0	32728	32692	
5190	0	32748	32772	
5191	0	32712	32804	
5192	0	32800	32724	
5193	0	32868	32807	
5194	0	32800	32886	
5195	0	32788	32878	
5196	0	32812	32740	
5197	0	32860	32702	
5198	0	32788	32852	
5199	0	32864	32697	
5200	0	32908	32692	
5201	0	32862	32818	
5202	0	32840	32632	
5203	0	32785	32822	
5204	0	32826	32796	
5205	0	32716	32600	
5206	0	32784	32740	
5207	0	32816	32680	
5208	0	32760	32671	
5209	0	32788	32807	
5210	0	32794	32606	
5211	0	32858	32846	
5212	0	32818	32668	
5213	0	32780	32760	
5214	0	32872	32860	
5215	0	32808	32805	
5216	0	32790	32898	
5217	0	32885	32742	
5218	0	32848	32684	
5219	0	32852	32860	
5220	0	32760	32797	
5221	0	32800	32828	
5222	0	32772	32729	
5223	0	32796	32742	
5224	0	32836	32708	
5225	0	32804	32654	
5226	0	32768	32743	
5227	0	32753	32800	
5228	0	32808	32700	
5229	0	32804	32818	
5230	0	32794	32871	
5231	0	32860	32758	
5232	0	32852	32800	
5233	0	32864	32858	
5234	0	32855	32716	
5235	0	32820	32816	
5236	0	32816	32816	
5237	0	32882	32746	
5238	0	32860	32903	
5239	0	32768	32775	
5240	0	32782	32844	
5241	0	32804	32738	
5242	0	32694	32758	
5243	0	32812	32722	
5244	0	32808	32720	
5245	0	32698	32610	
5246	0	32732	32630	
5247	0	32768	32743	
5248	0	32760	32710	
5249	0	32832	32706	
5250	0	32794	32656	
5251	0	32850	32802	
5252	0	32814	32830	
5253	0	32860	32750	
5254	0	32828	32806	
5255	0	32892	32864	
5256	0	32812	32838	
5257	0	32832	32768	
5258	0	32848	32762	
5259	0	32868	32801	
5260	0	32856	32816	
5261	0	32878	32680	
5262	0	32820	32732	
5263	0	32850	32760	
5264	0	32716	32622	
5265	0	32764	32748	
5266	0	32810	32775	
5267	0	32832	32758	
5268	0	32866	32738	
5269	0	32856	32806	
5270	0	32834	32772	
5271	0	32812	32871	
5272	0	32792	32849	
5273	0	32818	32743	
5274	0	32828	32856	
5275	0	32768	32879	
5276	0	32828	32720	
5277	0	32724	32828	
5278	0	32792	32810	
5279	0	32792	32762	
5280	0	32796	32815	
5281	0	32820	32714	
5282	0	32804	32725	
5283	0	32768	32695	
5284	0	32756	32672	
5285	0	32812	32760	
5286	0	32810	32654	
5287	0	32812	32759	
5288	0	32900	32744	
5289	0	32804	32692	
5290	0	32784	32700	
5291	0	32812	32722	
5292	0	32830	32816	
5293	0	32774	32823	
5294	0	32864	32718	
5295	0	32852	32854	
5296	0	32864	32900	
5297	0	32882	32817	
5298	0	32854	32855	
5299	0	32920	32847	
5300	0	32921	32730	
5301	0	32812	32839	
5302	0	32828	32775	
5303	0	32852	32682	
5304	0	32804	32748	
5305	0	32900	32742	
5306	0	32744	32724	
5307	0	32740	32812	
5308	0	32724	32680	
5309	0	32668	32788	
5310	0	32760	32623	
5311	0	32740	32806	
5312	0	32764	32802	
5313	0	32806	32680	
5314	0	32800	32842	
5315	0	32784	32792	
5316	0	32768	32687	
5317	0	32836	32866	
5318	0	32796	32796	
5319	0	32752	32766	
5320	0	32752	32807	
5321	0	32788	32824	
5322	0	32856	32686	
5323	0	32860	32826	
5324	0	32847	32830	
5325	0	32894	32678	
5326	0	32828	32843	
5327	0	32832	32720	
5328	0	32790	32660	
5329	0	32788	32722	
5330	0	32816	32828	
5331	0	32794	32704	
5332	0	32794	32722	
5333	0	32834	32775	
5334	0	32828	32860	
5335	0	32904	32775	
5336	0	32874	32932	
5337	0	32890	32883	
5338	0	32772	32751	
5339	0	32828	32826	
5340	0	32774	32742	
5341	0	32800	32769	
5342	0	32802	32602	
5343	0	32756	32708	
5344	0	32718	32748	
5345	0	32796	32706	
5346	0	32792	32686	
5347	0	32830	32748	
5348	0	32784	32737	
5349	0	32785	32820	
5350	0	32784	32714	
5351	0	32780	32775	
5352	0	32788	32902	
5353	0	32808	32740	
5354	0	32848	32839	
5355	0	32848	32838	
5356	0	32798	32796	
5357	0	32854	32794	
5358	0	32784	32823	
5359	0	32818	32796	
5360	0	32772	32751	
5361	0	32860	32834	
5362	0	32796	32732	
5363	0	32894	32774	
5364	0	32826	32660	
5365	0	32886	32759	
5366	0	32822	32816	
5367	0	32804	32736	
5368	0	32772	32768	
5369	0	32784	32590	
5370	0	32856	32815	
5371	0	32852	32764	
5372	0	32772	32714	
5373	0	32750	32860	
5374	0	32820	32807	
5375	0	32846	32756	
5376	0	32772	32884	
5377	0	32840	32838	
5378	0	32790	32762	
5379	0	32834	32878	
5380	0	32836	32848	
5381	0	32876	32844	
5382	0	32884	32806	
5383	0	32920	32910	
5384	0	32896	32790	
5385	0	32874	32884	
5386	0	32865	32706	
5387	0	32908	32948	
5388	0	32880	32798	
5389	0	32816	32830	
5390	0	32776	32728	
5391	0	32680	32668	
5392	0	32668	32615	
5393	0	32666	32602	
5394	0	32760	32590	
5395	0	32644	32640	
5396	0	32762	32551	
5397	0	32776	32574	
5398	0	32740	32698	
5399	0	32708	32663	
5400	0	32746	32627	
5401	0	32768	32742	
5402	0	32740	32775	
5403	0	32706	32752	
5404	0	32716	32736	
5405	0	32738	32744	
5406	0	32704	32719	
5407	0	32868	32734	
5408	0	32784	32760	
5409	0	32840	32711	
5410	0	32942	32890	
5411	0	32880	32751	
5412	0	32890	32920	
5413	0	32856	32788	
5414	0	32866	32967	
5415	0	32922	32820	
5416	0	32872	32896	
5417	0	32860	32755	
5418	0	32912	32742	
5419	0	32940	32879	
5420	0	32860	32860	
5421	0	32932	32903	
5422	0	32922	32854	
5423	0	32836	32766	
5424	0	32888	32854	
5425	0	32862	32800	
5426	0	32830	32722	
5427	0	32748	32658	
5428	0	32796	32720	
5429	0	32740	32734	
5430	0	32728	32774	
5431	0	32778	32618	
5432	0	32846	32706	
5433	0	32766	32756	
5434	0	32756	32852	
5435	0	32764	32744	
5436	0	32778	32687	
5437	0	32832	32796	
5438	0	32842	32856	
5439	0	32880	32826	
5440	0	32814	32738	
5441	0	32838	32849	
5442	0	32756	32726	
5443	0	32800	32775	
5444	0	32794	32630	
5445	0	32804	32789	
5446	0	32740	32666	
5447	0	32756	32684	
5448	0	32776	32698	
5449	0	32708	32806	
5450	0	32838	32814	
5451	0	32856	32818	
5452	0	32784	32808	
5453	0	32848	32771	
5454	0	32846	32830	
5455	0	32698	32862	
5456	0	32830	32934	
5457	0	32836	32852	
5458	0	32918	32768	
5459	0	32844	32774	
5460	0	32820	32882	
5461	0	32852	32744	
5462	0	32872	32815	
5463	0	32888	32647	
5464	0	32806	32708	
5465	0	32818	32743	
5466	0	32810	32726	
5467	0	32842	32577	
5468	0	32792	32843	
5469	0	32788	32808	
5470	0	32786	32775	
5471	0	32880	32748	
5472	0	32844	32702	
5473	0	32878	32772	
5474	0	32804	32710	
5475	0	32782	32863	
5476	0	32874	32794	
5477	0	32856	32774	
5478	0	32788	32856	
5479	0	32880	32862	
5480	0	32784	32818	
5481	0	32720	32804	
5482	0	32768	32636	
5483	0	32774	32716	
5484	0	32796	32744	
5485	0	32808	32724	
5486	0	32866	32679	
5487	0	32786	32775	
5488	0	32840	32660	
5489	0	32856	32750	
5490	0	32792	32675	
5491	0	32786	32728	
5492	0	32798	32775	
5493	0	32824	32750	
5494	0	32812	32808	
5495	0	32802	32854	
5496	0	32788	32802	
5497	0	32724	32896	
5498	0	32802	32724	
5499	0	32816	32839	
5500	0	32744	32775	
5501	0	32788	32764	
5502	0	32796	32772	
5503	0	32718	32752	
5504	0	32790	32826	
5505	0	32780	32814	
5506	0	32808	32830	
5507	0	32840	32736	
5508	0	32824	32864	
5509	0	32776	32652	
5510	0	32832	32788	
5511	0	32820	32738	
5512	0	32904	32686	
5513	0	32880	32788	
5514	0	32904	32807	
5515	0	32842	32806	
5516	0	32844	32830	
5517	0	32828	32752	
5518	0	32834	32839	
5519	0	32904	32738	
5520	0	32872	32738	
5521	0	32844	32750	
5522	0	32798	32790	
5523	0	32756	32698	
5524	0	32892	32714	
5525	0	32746	32671	
5526	0	32848	32614	
5527	0	32792	32814	
5528	0	32796	32740	
5529	0	32742	32702	
5530	0	32798	32858	
5531	0	32792	32751	
5532	0	32836	32772	
5533	0	32778	32866	
5534	0	32784	32775	
5535	0	32812	32775	
5536	0	32830	32922	
5537	0	32844	32839	
5538	0	32849	32670	
5539	0	32860	32775	
5540	0	32848	32730	
5541	0	32800	32834	
5542	0	32854	32775	
5543	0	32802	32763	
5544	0	32788	32840	
5545	0	32848	32680	
5546	0	32828	32664	
5547	0	32768	32798	
5548	0	32856	32674	
5549	0	32824	32681	
5550	0	32768	32704	
5551	0	32856	32784	
5552	0	32798	32742	
5553	0	32756	32904	
5554	0	32748	32871	
5555	0	32808	32860	
5556	0	32826	32834	
5557	0	32816	32930	
5558	0	32841	32750	
5559	0	32800	32774	
5560	0	32828	32774	
5561	0	32818	32798	
5562	0	32800	32702	
5563	0	32840	32720	
5564	0	32844	32748	
5565	0	32824	32750	
5566	0	32800	32740	
5567	0	32856	32852	
5568	0	32768	32668	
5569	0	32772	32768	
5570	0	32794	32738	
5571	0	32748	32686	
5572	0	32874	32750	
5573	0	32780	32844	
5574	0	32832	32688	
5575	0	32826	32748	
5576	0	32794	32864	
5577	0	32864	32726	
5578	0	32868	32859	
5579	0	32894	32738	
5580	0	32900	32910	
5581	0	32860	32801	
5582	0	32826	32692	
5583	0	32806	32768	
5584	0	32774	32743	
5585	0	32768	32746	
5586	0	32822	32702	
5587	0	32812	32690	
5588	0	32788	32798	
5589	0	32820	32721	
5590	0	32854	32738	
5591	0	32752	32826	
5592	0	32732	32754	
5593	0	32844	32686	
5594	0	32784	32820	
5595	0	32782	32820	
5596	0	32806	32812	
5597	0	32784	32775	
5598	0	32792	32906	
5599	0	32818	32900	
5600	0	32846	32808	
5601	0	32772	32702	
5602	0	32840	32736	
5603	0	32824	32831	
5604	0	32804	32754	
5605	0	32748	32678	
5606	0	32812	32742	
5607	0	32738	32806	
5608	0	32854	32615	
5609	0	32864	32788	
5610	0	32806	32873	
5611	0	32816	32792	
5612	0	32764	32774	
5613	0	32696	32764	
5614	0	32760	32726	
5615	0	32810	32774	
5616	0	32772	32862	
5617	0	32844	32642	
5618	0	32804	32746	
5619	0	32822	32736	
5620	0	32840	32751	
5621	0	32844	32876	
5622	0	32860	32775	
5623	0	32894	32647	
5624	0	32785	32754	
5625	0	32804	32764	
5626	0	32804	32704	
5627	0	32840	32655	
5628	0	32848	32727	
5629	0	32796	32676	
5630	0	32797	32742	
5631	0	32828	32775	
5632	0	32774	32775	
5633	0	32784	32716	
5634	0	32712	32704	
5635	0	32792	32832	
5636	0	32796	32794	
5637	0	32770	32796	
5638	0	32800	32738	
5639	0	32800	32798	
5640	0	32836	32743	
5641	0	32802	32812	
5642	0	32900	32786	
5643	0	32830	32908	
5644	0	32888	32775	
5645	0	32876	32672	
5646	0	32844	32716	
5647	0	32808	32806	
5648	0	32830	32703	
5649	0	32784	32718	
5650	0	32812	32775	
5651	0	32812	32775	
5652	0	32838	32772	
5653	0	32836	32820	
5654	0	32816	32889	
5655	0	32792	32734	
5656	0	32796	32744	
5657	0	32790	32844	
5658	0	32788	32790	
5659	0	32794	32716	
5660	0	32776	32721	
5661	0	32864	32662	
5662	0	32864	32791	
5663	0	32884	32810	
5664	0	32800	32725	
5665	0	32806	32802	
5666	0	32768	32796	
5667	0	32776	32694	
5668	0	32736	32768	
5669	0	32742	32742	
5670	0	32712	32748	
5671	0	32732	32756	
5672	0	32746	32626	
5673	0	32834	32827	
5674	0	32826	32805	
5675	0	32880	32756	
5676	0	32824	32830	
5677	0	32920	32791	
5678	0	32896	32714	
5679	0	32868	32814	
5680	0	32874	32822	
5681	0	32856	32694	
5682	0	32812	32756	
5683	0	32846	32802	
5684	0	32792	32831	
5685	0	32794	32748	
5686	0	32784	32692	
5687	0	32884	32756	
5688	0	32796	32682	
5689	0	32776	32794	
5690	0	32888	32844	
5691	0	32824	32862	
5692	0	32764	32862	
5693	0	32784	32712	
5694	0	32800	32871	
5695	0	32842	32756	
5696	0	32806	32896	
5697	0	32860	32802	
5698	0	32796	32700	
5699	0	32868	32774	
5700	0	32768	32798	
5701	0	32782	32746	
5702	0	32754	32687	
5703	0	32836	32716	
5704	0	32808	32798	
5705	0	32828	32730	
5706	0	32844	32679	
5707	0	32834	32758	
5708	0	32764	32692	
5709	0	32820	32770	
5710	0	32762	32900	
5711	0	32784	32790	
5712	0	32800	32804	
5713	0	32880	32774	
5714	0	32830	32775	
5715	0	32784	32806	
5716	0	32808	32760	
5717	0	32764	32674	
5718	0	32834	32817	
5719	0	32728	32834	
5720	0	32736	32702	
5721	0	32796	32828	
5722	0	32818	32774	
5723	0	32828	32788	
5724	0	32864	32855	
5725	0	32756	32634	
5726	0	32822	32766	
5727	0	32848	32654	
5728	0	32784	32774	
5729	0	32788	32770	
5730	0	32826	32734	
5731	0	32778	32742	
5732	0	32876	32769	
5733	0	32840	32744	
5734	0	32822	32838	
5735	0	32712	32858	
5736	0	32750	32808	
5737	0	32786	32812	
5738	0	32768	32876	
5739	0	32764	32711	
5740	0	32784	32864	
5741	0	32804	32767	
5742	0	32816	32726	
5743	0	32892	32784	
5744	0	32816	32715	
5745	0	32840	32743	
5746	0	32844	32657	
5747	0	32816	32760	
5748	0	32920	32687	
5749	0	32904	32740	
5750	0	32824	32628	
5751	0	32824	32775	
5752	0	32840	32804	
5753	0	32778	32692	
5754	0	32804	32856	
5755	0	32816	32839	
5756	0	32774	32784	
5757	0	32792	32796	
5758	0	32804	32796	
5759	0	32832	32704	
5760	0	32804	32903	
5761	0	32814	32743	
5762	0	32864	32774	
5763	0	32816	32774	
5764	0	32816	32656	
5765	0	32790	32620	
5766	0	32820	32806	
5767	0	32758	32838	
5768	0	32812	32775	
5769	0	32778	32834	
5770	0	32788	32850	
5771	0	32756	32734	
5772	0	32752	32832	
5773	0	32832	32902	
5774	0	32774	32775	
5775	0	32804	32838	
5776	0	32848	32792	
5777	0	32820	32588	
5778	0	32860	32702	
5779	0	32816	32743	
5780	0	32850	32750	
5781	0	32836	32868	
5782	0	32868	32807	
5783	0	32846	32775	
5784	0	32824	32844	
5785	0	32938	32762	
5786	0	32842	32660	
5787	0	32800	32756	
5788	0	32774	32652	
5789	0	32800	32716	
5790	0	32720	32762	
5791	0	32736	32831	
5792	0	32786	32692	
5793	0	32748	32756	
5794	0	32768	32734	
5795	0	32828	32794	
5796	0	32795	32822	
5797	0	32814	32725	
5798	0	32736	32714	
5799	0	32776	32714	
5800	0	32828	32812	
5801	0	32772	32870	
5802	0	32708	32688	
5803	0	32764	32763	
5804	0	32768	32614	
5805	0	32836	32772	
5806	0	32774	32746	
5807	0	32866	32788	
5808	0	32860	32726	
5809	0	32824	32692	
5810	0	32884	32775	
5811	0	32906	32764	
5812	0	32870	32882	
5813	0	32774	32855	
5814	0	32860	32724	
5815	0	32820	32824	
5816	0	32826	32796	
5817	0	32792	32794	
5818	0	32764	32748	
5819	0	32724	32686	
5820	0	32796	32863	
5821	0	32734	32702	
5822	0	32780	32679	
5823	0	32804	32643	
5824	0	32788	32708	
5825	0	32828	32722	
5826	0	32832	32698	
5827	0	32832	32719	
5828	0	32838	32742	
5829	0	32872	32712	
5830	0	32902	32732	
5831	0	32822	32848	
5832	0	32858	32750	
5833	0	32792	32775	
5834	0	32800	32792	
5835	0	32804	32826	
5836	0	32730	32808	
5837	0	32800	32846	
5838	0	32800	32806	
5839	0	32824	32761	
5840	0	32808	32775	
5841	0	32766	32866	
5842	0	32756	32704	
5843	0	32788	32636	
5844	0	32758	32799	
5845	0	32770	32674	
5846	0	32738	32702	
5847	0	32852	32668	
5848	0	32816	32762	
5849	0	32808	32769	
5850	0	32820	32772	
5851	0	32906	32746	
5852	0	32890	32791	
5853	0	32854	32868	
5854	0	32852	32882	
5855	0	32821	32814	
5856	0	32872	32770	
5857	0	32781	32727	
5858	0	32788	32858	
5859	0	32822	32892	
5860	0	32760	32736	
5861	0	32780	32775	
5862	0	32884	32702	
5863	0	32872	32775	
5864	0	32808	32692	
5865	0	32752	32796	
5866	0	32780	32774	
5867	0	32760	32686	
5868	0	32736	32854	
5869	0	32836	32719	
5870	0	32800	32830	
5871	0	32788	32834	
5872	0	32804	32775	
5873	0	32800	32774	
5874	0	32750	32788	
5875	0	32746	32804	
5876	0	32808	32711	
5877	0	32822	32748	
5878	0	32792	32768	
5879	0	32784	32894	
5880	0	32836	32834	
5881	0	32830	32766	
5882	0	32784	32775	
5883	0	32776	32702	
5884	0	32832	32705	
5885	0	32818	32670	
5886	0	32784	32662	
5887	0	32728	32695	
5888	0	32748	32602	
5889	0	32822	32694	
5890	0	32790	32711	
5891	0	32816	32728	
5892	0	32808	32784	
5893	0	32818	32800	
5894	0	32834	32828	
5895	0	32862	32870	
5896	0	32832	32719	
5897	0	32828	32774	
5898	0	32804	32796	
5899	0	32852	32802	
5900	0	32816	32796	
5901	0	32832	32750	
5902	0	32792	32848	
5903	0	32785	32732	
5904	0	32804	32732	
5905	0	32842	32722	
5906	0	32804	32694	
5907	0	32856	32852	
5908	0	32790	32788	
5909	0	32824	32644	
5910	0	32832	32722	
5911	0	32836	32756	
5912	0	32792	32858	
5913	0	32740	32839	
5914	0	32836	32762	
5915	0	32882	32820	
5916	0	32784	32836	
5917	0	32856	32742	
5918	0	32836	32822	
5919	0	32808	32742	
5920	0	32862	32775	
5921	0	32840	32732	
5922	0	32856	32676	
5923	0	32834	32775	
5924	0	32802	32786	
5925	0	32768	32660	
5926	0	32792	32754	
5927	0	32810	32708	
5928	0	32785	32788	
5929	0	32786	32774	
5930	0	32764	32699	
5931	0	32788	32754	
5932	0	32772	32712	
5933	0	32764	32824	
5934	0	32776	32791	
5935	0	32772	32800	
5936	0	32828	32808	
5937	0	32792	32716	
5938	0	32872	32768	
5939	0	32828	32862	
5940	0	32844	32808	
5941	0	32816	32718	
5942	0	32794	32682	
5943	0	32828	32809	
5944	0	32720	32742	
5945	0	32830	32702	
5946	0	32796	32738	
5947	0	32834	32788	
5948	0	32900	32813	
5949	0	32884	32790	
5950	0	32876	32756	
5951	0	32890	32775	
5952	0	32780	32726	
5953	0	32822	32810	
5954	0	32780	32764	
5955	0	32872	32748	
5956	0	32890	32924	
5957	0	32804	32839	
5958	0	32832	32694	
5959	0	32848	32788	
5960	0	32820	32750	
5961	0	32848	32730	
5962	0	32828	32718	
5963	0	32844	32644	
5964	0	32840	32796	
5965	0	32792	32812	
5966	0	32796	32692	
5967	0	32868	32746	
5968	0	32840	32644	
5969	0	32788	32836	
5970	0	32772	32879	
5971	0	32740	32720	
5972	0	32858	32852	
5973	0	32772	32775	
5974	0	32838	32708	
5975	0	32716	32642	
5976	0	32768	32762	
5977	0	32816	32758	
5978	0	32776	32839	
5979	0	32782	32764	
5980	0	32728	32816	
5981	0	32782	32832	
5982	0	32752	32675	
5983	0	32826	32841	
5984	0	32880	32775	
5985	0	32868	32678	
5986	0	32876	32811	
5987	0	32868	32756	
5988	0	32880	32598	
5989	0	32878	32766	
5990	0	32820	32760	
5991	0	32769	32796	
5992	0	32808	32798	
5993	0	32757	32839	
5994	0	32846	32870	
5995	0	32812	32823	
5996	0	32784	32732	
5997	0	32812	32852	
5998	0	32832	32866	
5999	0	32856	32724	
6000	0	32816	32770	
6001	0	32848	32745	
6002	0	32850	32679	
6003	0	32850	32770	
6004	0	32868	32758	
6005	0	32922	32812	
6006	0	32932	32794	
6007	0	32884	32676	
6008	0	32844	32903	
6009	0	32824	32866	
6010	0	32792	32826	
6011	0	32852	32808	
6012	0	32742	32756	
