# OpenSignals Text File Format. Version 1
# {"00:07:80:8C:0A:39": {"position": 0, "device": "biosignalsplux", "device name": "00:07:80:8C:0A:39", "device connection": "BTH00:07:80:8C:0A:39", "sampling rate": 1000, "resolution": [16, 16], "firmware version": 776, "comments": "", "keywords": "", "mode": 0, "sync interval": 2, "date": "2023-3-20", "time": "19:44:44.445", "channels": [1, 2], "sensor": ["EMG", "EMG"], "label": ["CH1", "CH2"], "column": ["nSeq", "DI", "CH1", "CH2"], "special": [{"SpO2": [80, 40, 5, 4, 3, 3]}, {"SpO2": [80, 40, 5, 4, 3, 3]}, {"SpO2": [80, 40, 5, 4, 3, 3]}, {"SpO2": [80, 40, 5, 4, 3, 3]}, {"SpO2": [80, 40, 5, 4, 3, 3]}, {"SpO2": [80, 40, 5, 4, 3, 3]}, {"SpO2": [80, 40, 5, 4, 3, 3]}, {"SpO2": [80, 40, 5, 4, 3, 3]}], "digital IO": [0, 1], "sleeve color": ["gray", "yellow"], "convertedValues": 0}}
# EndOfHeader
0	0	32758	32775	
1	0	32774	32820	
2	0	32828	32734	
3	0	32804	32774	
4	0	32864	32798	
5	0	32832	32775	
6	0	32794	32770	
7	0	32864	32742	
8	0	32832	32768	
9	0	32782	32663	
10	0	32804	32832	
11	0	32882	32742	
12	0	32780	32672	
13	0	32782	32702	
14	0	32798	32668	
15	0	32782	32775	
16	0	32812	32816	
17	0	32788	32654	
18	0	32816	32820	
19	0	32792	32808	
20	0	32848	32702	
21	0	32810	32786	
22	0	32832	32700	
23	0	32796	32865	
24	0	32844	32760	
25	0	32814	32696	
26	0	32792	32790	
27	0	32816	32716	
28	0	32820	32775	
29	0	32812	32812	
30	0	32900	32796	
31	0	32804	32914	
32	0	32852	32849	
33	0	32846	32750	
34	0	32856	32703	
35	0	32826	32698	
36	0	32796	32805	
37	0	32792	32775	
38	0	32820	32860	
39	0	32816	32700	
40	0	32794	32828	
41	0	32816	32816	
42	0	32773	32689	
43	0	32792	32788	
44	0	32808	32718	
45	0	32734	32742	
46	0	32796	32810	
47	0	32768	32744	
48	0	32784	32908	
49	0	32782	32697	
50	0	32776	32786	
51	0	32888	32773	
52	0	32820	32742	
53	0	32794	32738	
54	0	32840	32743	
55	0	32830	32737	
56	0	32768	32768	
57	0	32826	32724	
58	0	32808	32734	
59	0	32814	32838	
60	0	32838	32836	
61	0	32820	32658	
62	0	32784	32762	
63	0	32792	32671	
64	0	32832	32888	
65	0	32808	32733	
66	0	32804	32704	
67	0	32872	32796	
68	0	32808	32852	
69	0	32720	32834	
70	0	32880	32738	
71	0	32844	32758	
72	0	32804	32775	
73	0	32800	32814	
74	0	32860	32822	
75	0	32780	32679	
76	0	32790	32814	
77	0	32900	32791	
78	0	32830	32646	
79	0	32872	32712	
80	0	32764	32702	
81	0	32804	32778	
82	0	32760	32820	
83	0	32736	32642	
84	0	32810	32798	
85	0	32824	32872	
86	0	32825	32796	
87	0	32773	32820	
88	0	32770	32820	
89	0	32824	32710	
90	0	32852	32836	
91	0	32866	32746	
92	0	32817	32748	
93	0	32800	32822	
94	0	32764	32833	
95	0	32826	32775	
96	0	32862	32694	
97	0	32890	32756	
98	0	32840	32708	
99	0	32812	32790	
100	0	32804	32775	
101	0	32801	32762	
102	0	32784	32694	
103	0	32868	32744	
104	0	32810	32699	
105	0	32804	32773	
106	0	32844	32750	
107	0	32744	32810	
108	0	32840	32775	
109	0	32816	32796	
110	0	32834	32751	
111	0	32764	32792	
112	0	32832	32740	
113	0	32736	32768	
114	0	32788	32790	
115	0	32800	32876	
116	0	32852	32708	
117	0	32826	32758	
118	0	32852	32684	
119	0	32876	32772	
120	0	32824	32796	
121	0	32834	32716	
122	0	32764	32727	
123	0	32764	32699	
124	0	32812	32804	
125	0	32804	32712	
126	0	32860	32788	
127	0	32864	32748	
128	0	32852	32660	
129	0	32818	32769	
130	0	32828	32795	
131	0	32774	32896	
132	0	32788	32898	
133	0	32862	32772	
134	0	32794	32788	
135	0	32778	32650	
136	0	32840	32796	
137	0	32832	32734	
138	0	32800	32711	
139	0	32838	32767	
140	0	32762	32775	
141	0	32800	32792	
142	0	32832	32900	
143	0	32824	32814	
144	0	32872	32687	
145	0	32784	32748	
146	0	32798	32744	
147	0	32816	32896	
148	0	32820	32743	
149	0	32788	32798	
150	0	32896	32878	
151	0	32828	32668	
152	0	32846	32794	
153	0	32846	32862	
154	0	32800	32775	
155	0	32822	32724	
156	0	32776	32680	
157	0	32836	32936	
158	0	32808	32860	
159	0	32840	32769	
160	0	32854	32775	
161	0	32854	32702	
162	0	32836	32775	
163	0	32782	32791	
164	0	32728	32676	
165	0	32756	32796	
166	0	32764	32775	
167	0	32831	32729	
168	0	32832	32844	
169	0	32848	32870	
170	0	32796	32716	
171	0	32788	32752	
172	0	32860	32734	
173	0	32792	32817	
174	0	32804	32788	
175	0	32782	32708	
176	0	32836	32839	
177	0	32824	32810	
178	0	32784	32743	
179	0	32804	32884	
180	0	32775	32806	
181	0	32752	32696	
182	0	32714	32652	
183	0	32770	32620	
184	0	32754	32653	
185	0	32780	32590	
186	0	32792	32724	
187	0	32704	32622	
188	0	32640	32518	
189	0	32750	32645	
190	0	32776	32711	
191	0	32800	32588	
192	0	32724	32678	
193	0	32724	32812	
194	0	32728	32644	
195	0	32714	32628	
196	0	32768	32754	
197	0	32742	32820	
198	0	32770	32655	
199	0	32816	32734	
200	0	32834	32820	
201	0	32848	32722	
202	0	32882	32664	
203	0	32880	32735	
204	0	33020	32647	
205	0	33016	32916	
206	0	33124	32970	
207	0	33106	32938	
208	0	33164	33148	
209	0	33124	33180	
210	0	33060	33307	
211	0	33026	33230	
212	0	32960	33148	
213	0	32914	33080	
214	0	32916	33012	
215	0	32816	32924	
216	0	32790	32930	
217	0	32724	32842	
218	0	32776	32676	
219	0	32788	32678	
220	0	32704	32647	
221	0	32680	32510	
222	0	32712	32588	
223	0	32700	32519	
224	0	32708	32626	
225	0	32674	32738	
226	0	32684	32552	
227	0	32752	32642	
228	0	32684	32662	
229	0	32724	32746	
230	0	32752	32736	
231	0	32664	32635	
232	0	32748	32740	
233	0	32788	32671	
234	0	32774	32732	
235	0	32788	32790	
236	0	32740	32728	
237	0	32852	32704	
238	0	32788	32623	
239	0	32888	32818	
240	0	32860	32774	
241	0	32828	32788	
242	0	32852	32694	
243	0	32825	32751	
244	0	32824	32775	
245	0	32840	32858	
246	0	32808	32769	
247	0	32840	32852	
248	0	32866	32680	
249	0	32862	32834	
250	0	32880	32775	
251	0	32754	32759	
252	0	32868	32680	
253	0	32806	32784	
254	0	32820	32647	
255	0	32824	32834	
256	0	32788	32870	
257	0	32832	32770	
258	0	32838	32794	
259	0	32792	32757	
260	0	32820	32810	
261	0	32828	32686	
262	0	32840	32839	
263	0	32726	32696	
264	0	32736	32748	
265	0	32766	32694	
266	0	32780	32774	
267	0	32854	32732	
268	0	32808	32748	
269	0	32828	32668	
270	0	32880	32816	
271	0	32828	32840	
272	0	32824	32801	
273	0	32804	32694	
274	0	32820	32827	
275	0	32848	32842	
276	0	32856	32811	
277	0	32818	32714	
278	0	32812	32814	
279	0	32740	32680	
280	0	32766	32814	
281	0	32764	32746	
282	0	32792	32739	
283	0	32802	32847	
284	0	32832	32775	
285	0	32768	32787	
286	0	32798	32698	
287	0	32784	32824	
288	0	32810	32672	
289	0	32808	32887	
290	0	32834	32644	
291	0	32802	32746	
292	0	32780	32768	
293	0	32804	32804	
294	0	32852	32706	
295	0	32806	32775	
296	0	32800	32702	
297	0	32860	32743	
298	0	32808	32720	
299	0	32780	32700	
300	0	32838	32716	
301	0	32828	32743	
302	0	32788	32750	
303	0	32824	32799	
304	0	32804	32786	
305	0	32748	32775	
306	0	32832	32647	
307	0	32808	32820	
308	0	32844	32660	
309	0	32740	32746	
310	0	32836	32732	
311	0	32872	32775	
312	0	32776	32702	
313	0	32836	32758	
314	0	32828	32684	
315	0	32816	32710	
316	0	32792	32695	
317	0	32810	32822	
318	0	32777	32802	
319	0	32808	32785	
320	0	32766	32812	
321	0	32854	32726	
322	0	32764	32832	
323	0	32816	32727	
324	0	32802	32752	
325	0	32840	32647	
326	0	32836	32787	
327	0	32836	32706	
328	0	32836	32832	
329	0	32824	32839	
330	0	32724	32784	
331	0	32870	32858	
332	0	32860	32836	
333	0	32764	32742	
334	0	32768	32702	
335	0	32832	32790	
336	0	32806	32700	
337	0	32838	32816	
338	0	32852	32662	
339	0	32768	32746	
340	0	32864	32743	
341	0	32822	32884	
342	0	32836	32694	
343	0	32798	32854	
344	0	32856	32898	
345	0	32804	32703	
346	0	32783	32775	
347	0	32856	32688	
348	0	32852	32903	
349	0	32780	32724	
350	0	32860	32902	
351	0	32824	32684	
352	0	32794	32805	
353	0	32830	32683	
354	0	32776	32862	
355	0	32804	32740	
356	0	32788	32772	
357	0	32722	32788	
358	0	32860	32758	
359	0	32836	32766	
360	0	32866	32832	
361	0	32720	32775	
362	0	32816	32684	
363	0	32834	32775	
364	0	32796	32672	
365	0	32794	32774	
366	0	32852	32740	
367	0	32792	32850	
368	0	32812	32807	
369	0	32812	32817	
370	0	32810	32717	
371	0	32866	32646	
372	0	32756	32802	
373	0	32800	32775	
374	0	32820	32701	
375	0	32838	32744	
376	0	32804	32742	
377	0	32820	32860	
378	0	32790	32802	
379	0	32828	32662	
380	0	32832	32788	
381	0	32782	32724	
382	0	32808	32768	
383	0	32796	32640	
384	0	32802	32884	
385	0	32840	32836	
386	0	32836	32716	
387	0	32812	32884	
388	0	32775	32808	
389	0	32836	32634	
390	0	32858	32750	
391	0	32820	32750	
392	0	32784	32682	
393	0	32764	32766	
394	0	32768	32692	
395	0	32772	32774	
396	0	32832	32766	
397	0	32920	32836	
398	0	32824	32830	
399	0	32832	32834	
400	0	32772	32719	
401	0	32840	32854	
402	0	32800	32836	
403	0	32824	32806	
404	0	32876	32798	
405	0	32824	32692	
406	0	32840	32864	
407	0	32848	32812	
408	0	32756	32696	
409	0	32862	32732	
410	0	32818	32802	
411	0	32844	32684	
412	0	32848	32767	
413	0	32820	32847	
414	0	32800	32852	
415	0	32792	32852	
416	0	32792	32700	
417	0	32808	32814	
418	0	32766	32839	
419	0	32848	32812	
420	0	32820	32720	
421	0	32782	32674	
422	0	32760	32762	
423	0	32782	32868	
424	0	32764	32743	
425	0	32832	32770	
426	0	32896	32718	
427	0	32814	32843	
428	0	32864	32840	
429	0	32866	32675	
430	0	32860	32762	
431	0	32780	32820	
432	0	32744	32761	
433	0	32864	32775	
434	0	32848	32692	
435	0	32836	32738	
436	0	32868	32804	
437	0	32804	32804	
438	0	32802	32872	
439	0	32798	32696	
440	0	32764	32814	
441	0	32800	32814	
442	0	32804	32836	
443	0	32824	32792	
444	0	32834	32711	
445	0	32848	32842	
446	0	32868	32846	
447	0	32796	32716	
448	0	32814	32814	
449	0	32792	32689	
450	0	32780	32828	
451	0	32832	32758	
452	0	32816	32738	
453	0	32880	32794	
454	0	32794	32801	
455	0	32866	32694	
456	0	32864	32887	
457	0	32852	32774	
458	0	32806	32682	
459	0	32776	32867	
460	0	32798	32840	
461	0	32800	32652	
462	0	32857	32812	
463	0	32820	32763	
464	0	32824	32727	
465	0	32870	32768	
466	0	32848	32824	
467	0	32802	32646	
468	0	32792	32823	
469	0	32862	32772	
470	0	32784	32752	
471	0	32804	32704	
472	0	32820	32695	
473	0	32808	32802	
474	0	32804	32836	
475	0	32768	32636	
476	0	32788	32787	
477	0	32794	32739	
478	0	32808	32697	
479	0	32780	32832	
480	0	32782	32768	
481	0	32876	32774	
482	0	32804	32822	
483	0	32832	32900	
484	0	32785	32708	
485	0	32836	32796	
486	0	32750	32708	
487	0	32824	32708	
488	0	32850	32716	
489	0	32832	32716	
490	0	32840	32805	
491	0	32848	32824	
492	0	32764	32711	
493	0	32760	32748	
494	0	32760	32642	
495	0	32816	32822	
496	0	32788	32814	
497	0	32858	32654	
498	0	32824	32853	
499	0	32816	32876	
500	0	32842	32688	
501	0	32828	32804	
502	0	32820	32782	
503	0	32818	32727	
504	0	32788	32727	
505	0	32802	32748	
506	0	32772	32748	
507	0	32798	32775	
508	0	32783	32812	
509	0	32848	32782	
510	0	32858	32810	
511	0	32748	32806	
512	0	32804	32736	
513	0	32848	32746	
514	0	32810	32693	
515	0	32808	32832	
516	0	32824	32870	
517	0	32780	32730	
518	0	32776	32798	
519	0	32830	32674	
520	0	32832	32868	
521	0	32820	32760	
522	0	32856	32678	
523	0	32832	32759	
524	0	32832	32686	
525	0	32828	32810	
526	0	32830	32784	
527	0	32775	32728	
528	0	32840	32746	
529	0	32800	32832	
530	0	32796	32689	
531	0	32792	32770	
532	0	32784	32804	
533	0	32868	32753	
534	0	32856	32817	
535	0	32844	32804	
536	0	32772	32754	
537	0	32808	32848	
538	0	32836	32788	
539	0	32802	32726	
540	0	32828	32686	
541	0	32825	32679	
542	0	32832	32716	
543	0	32852	32740	
544	0	32812	32710	
545	0	32876	32884	
546	0	32794	32798	
547	0	32808	32743	
548	0	32858	32726	
549	0	32824	32704	
550	0	32872	32871	
551	0	32796	32762	
552	0	32816	32775	
553	0	32802	32670	
554	0	32728	32718	
555	0	32822	32796	
556	0	32868	32775	
557	0	32792	32819	
558	0	32728	32736	
559	0	32872	32775	
560	0	32870	32760	
561	0	32808	32708	
562	0	32828	32774	
563	0	32788	32775	
564	0	32762	32744	
565	0	32832	32775	
566	0	32768	32774	
567	0	32792	32838	
568	0	32796	32775	
569	0	32840	32786	
570	0	32794	32742	
571	0	32794	32695	
572	0	32840	32836	
573	0	32760	32726	
574	0	32788	32822	
575	0	32768	32804	
576	0	32844	32805	
577	0	32877	32812	
578	0	32868	32750	
579	0	32900	32766	
580	0	32776	32692	
581	0	32756	32771	
582	0	32794	32872	
583	0	32838	32716	
584	0	32800	32775	
585	0	32820	32799	
586	0	32848	32842	
587	0	32881	32742	
588	0	32848	32700	
589	0	32782	32820	
590	0	32884	32843	
591	0	32780	32756	
592	0	32766	32772	
593	0	32782	32718	
594	0	32796	32764	
595	0	32744	32870	
596	0	32784	32737	
597	0	32844	32838	
598	0	32836	32702	
599	0	32806	32731	
600	0	32822	32855	
601	0	32784	32650	
602	0	32796	32764	
603	0	32916	32674	
604	0	32808	32828	
605	0	32792	32824	
606	0	32862	32812	
607	0	32836	32732	
608	0	32760	32677	
609	0	32808	32862	
610	0	32822	32775	
611	0	32812	32706	
612	0	32864	32736	
613	0	32796	32768	
614	0	32756	32710	
615	0	32740	32792	
616	0	32838	32772	
617	0	32882	32738	
618	0	32786	32764	
619	0	32748	32708	
620	0	32842	32822	
621	0	32828	32896	
622	0	32828	32688	
623	0	32862	32788	
624	0	32780	32824	
625	0	32816	32734	
626	0	32804	32663	
627	0	32817	32692	
628	0	32824	32771	
629	0	32788	32796	
630	0	32812	32676	
631	0	32844	32808	
632	0	32800	32800	
633	0	32852	32774	
634	0	32768	32740	
635	0	32838	32718	
636	0	32828	32844	
637	0	32868	32862	
638	0	32834	32736	
639	0	32828	32752	
640	0	32820	32740	
641	0	32848	32844	
642	0	32786	32760	
643	0	32840	32688	
644	0	32832	32703	
645	0	32808	32762	
646	0	32804	32690	
647	0	32838	32895	
648	0	32804	32775	
649	0	32796	32748	
650	0	32768	32807	
651	0	32846	32766	
652	0	32828	32810	
653	0	32788	32882	
654	0	32798	32748	
655	0	32790	32806	
656	0	32806	32816	
657	0	32820	32740	
658	0	32868	32680	
659	0	32820	32682	
660	0	32816	32818	
661	0	32844	32814	
662	0	32762	32716	
663	0	32748	32704	
664	0	32820	32678	
665	0	32840	32702	
666	0	32782	32674	
667	0	32772	32738	
668	0	32824	32716	
669	0	32790	32808	
670	0	32788	32786	
671	0	32868	32775	
672	0	32752	32775	
673	0	32836	32666	
674	0	32834	32798	
675	0	32800	32792	
676	0	32832	32738	
677	0	32798	32772	
678	0	32820	32878	
679	0	32850	32748	
680	0	32872	32674	
681	0	32840	32616	
682	0	32808	32775	
683	0	32803	32684	
684	0	32754	32774	
685	0	32836	32761	
686	0	32816	32680	
687	0	32888	32772	
688	0	32840	32922	
689	0	32852	32858	
690	0	32832	32756	
691	0	32848	32676	
692	0	32748	32668	
693	0	32838	32850	
694	0	32768	32828	
695	0	32842	32792	
696	0	32732	32719	
697	0	32736	32742	
698	0	32810	32850	
699	0	32825	32716	
700	0	32784	32750	
701	0	32792	32718	
702	0	32832	32826	
703	0	32806	32790	
704	0	32836	32846	
705	0	32806	32790	
706	0	32820	32682	
707	0	32820	32775	
708	0	32772	32750	
709	0	32884	32730	
710	0	32842	32706	
711	0	32792	32844	
712	0	32902	32775	
713	0	32768	32768	
714	0	32772	32670	
715	0	32852	32748	
716	0	32774	32826	
717	0	32766	32775	
718	0	32764	32752	
719	0	32816	32608	
720	0	32854	32798	
721	0	32766	32844	
722	0	32788	32767	
723	0	32800	32858	
724	0	32848	32775	
725	0	32852	32714	
726	0	32794	32724	
727	0	32800	32641	
728	0	32844	32864	
729	0	32832	32788	
730	0	32788	32684	
731	0	32828	32814	
732	0	32816	32854	
733	0	32788	32654	
734	0	32805	32824	
735	0	32784	32775	
736	0	32784	32737	
737	0	32808	32788	
738	0	32796	32839	
739	0	32800	32690	
740	0	32716	32782	
741	0	32772	32873	
742	0	32852	32711	
743	0	32836	32738	
744	0	32736	32711	
745	0	32812	32722	
746	0	32856	32764	
747	0	32814	32734	
748	0	32768	32768	
749	0	32844	32660	
750	0	32758	32794	
751	0	32816	32812	
752	0	32868	32697	
753	0	32834	32775	
754	0	32820	32804	
755	0	32816	32854	
756	0	32882	32798	
757	0	32824	32684	
758	0	32796	32775	
759	0	32852	32834	
760	0	32820	32744	
761	0	32780	32876	
762	0	32808	32756	
763	0	32812	32775	
764	0	32780	32833	
765	0	32854	32860	
766	0	32810	32721	
767	0	32816	32775	
768	0	32844	32768	
769	0	32826	32671	
770	0	32796	32740	
771	0	32836	32762	
772	0	32838	32888	
773	0	32825	32760	
774	0	32788	32818	
775	0	32792	32775	
776	0	32852	32771	
777	0	32824	32682	
778	0	32760	32666	
779	0	32832	32794	
780	0	32828	32816	
781	0	32756	32771	
782	0	32820	32765	
783	0	32732	32692	
784	0	32836	32794	
785	0	32830	32764	
786	0	32824	32836	
787	0	32876	32712	
788	0	32804	32832	
789	0	32816	32754	
790	0	32808	32834	
791	0	32840	32842	
792	0	32886	32814	
793	0	32856	32775	
794	0	32772	32716	
795	0	32776	32821	
796	0	32816	32830	
797	0	32760	32760	
798	0	32844	32772	
799	0	32770	32868	
800	0	32784	32736	
801	0	32848	32660	
802	0	32852	32768	
803	0	32842	32696	
804	0	32828	32743	
805	0	32817	32656	
806	0	32810	32700	
807	0	32800	32666	
808	0	32764	32792	
809	0	32852	32814	
810	0	32814	32670	
811	0	32729	32758	
812	0	32810	32799	
813	0	32792	32854	
814	0	32868	32691	
815	0	32832	32810	
816	0	32880	32832	
817	0	32782	32704	
818	0	32876	32828	
819	0	32876	32791	
820	0	32868	32728	
821	0	32828	32752	
822	0	32804	32720	
823	0	32844	32838	
824	0	32760	32772	
825	0	32824	32774	
826	0	32832	32775	
827	0	32792	32725	
828	0	32840	32775	
829	0	32820	32775	
830	0	32802	32756	
831	0	32792	32766	
832	0	32828	32792	
833	0	32832	32716	
834	0	32832	32847	
835	0	32892	32852	
836	0	32844	32775	
837	0	32820	32732	
838	0	32828	32722	
839	0	32821	32756	
840	0	32812	32737	
841	0	32820	32719	
842	0	32836	32810	
843	0	32808	32706	
844	0	32769	32644	
845	0	32740	32770	
846	0	32746	32807	
847	0	32760	32700	
848	0	32798	32806	
849	0	32804	32719	
850	0	32834	32676	
851	0	32805	32772	
852	0	32812	32832	
853	0	32826	32688	
854	0	32856	32826	
855	0	32844	32796	
856	0	32789	32714	
857	0	32824	32790	
858	0	32880	32864	
859	0	32808	32734	
860	0	32816	32736	
861	0	32816	32729	
862	0	32746	32794	
863	0	32768	32860	
864	0	32804	32746	
865	0	32774	32823	
866	0	32813	32847	
867	0	32832	32798	
868	0	32876	32766	
869	0	32886	32720	
870	0	32778	32790	
871	0	32830	32764	
872	0	32785	32702	
873	0	32868	32734	
874	0	32836	32878	
875	0	32792	32679	
876	0	32804	32807	
877	0	32822	32740	
878	0	32800	32902	
879	0	32872	32862	
880	0	32848	32695	
881	0	32740	32810	
882	0	32844	32682	
883	0	32822	32775	
884	0	32752	32724	
885	0	32794	32734	
886	0	32758	32772	
887	0	32792	32839	
888	0	32768	32774	
889	0	32840	32678	
890	0	32838	32804	
891	0	32864	32775	
892	0	32864	32714	
893	0	32820	32724	
894	0	32834	32775	
895	0	32762	32643	
896	0	32772	32766	
897	0	32812	32810	
898	0	32849	32810	
899	0	32810	32852	
900	0	32800	32712	
901	0	32856	32770	
902	0	32812	32742	
903	0	32848	32814	
904	0	32844	32816	
905	0	32853	32718	
906	0	32812	32772	
907	0	32840	32740	
908	0	32826	32804	
909	0	32820	32791	
910	0	32812	32816	
911	0	32770	32858	
912	0	32818	32734	
913	0	32816	32693	
914	0	32772	32738	
915	0	32830	32756	
916	0	32813	32771	
917	0	32866	32792	
918	0	32828	32836	
919	0	32804	32838	
920	0	32788	32813	
921	0	32800	32736	
922	0	32826	32775	
923	0	32776	32832	
924	0	32808	32786	
925	0	32775	32808	
926	0	32770	32814	
927	0	32836	32766	
928	0	32778	32751	
929	0	32776	32638	
930	0	32832	32744	
931	0	32734	32632	
932	0	32693	32639	
933	0	32714	32662	
934	0	32770	32680	
935	0	32760	32726	
936	0	32750	32679	
937	0	32756	32580	
938	0	32734	32540	
939	0	32704	32636	
940	0	32708	32599	
941	0	32712	32634	
942	0	32725	32612	
943	0	32789	32708	
944	0	32698	32714	
945	0	32720	32660	
946	0	32846	32734	
947	0	32852	32692	
948	0	32878	32754	
949	0	32834	32664	
950	0	32889	32734	
951	0	32912	32711	
952	0	32890	32775	
953	0	33086	32736	
954	0	33072	32980	
955	0	33072	32942	
956	0	33156	33148	
957	0	33152	33271	
958	0	33096	33232	
959	0	33104	33195	
960	0	33000	33196	
961	0	32878	33078	
962	0	32960	33006	
963	0	32757	33076	
964	0	32782	32846	
965	0	32712	32842	
966	0	32685	32604	
967	0	32684	32684	
968	0	32713	32606	
969	0	32748	32584	
970	0	32734	32614	
971	0	32692	32542	
972	0	32704	32448	
973	0	32628	32540	
974	0	32714	32554	
975	0	32684	32628	
976	0	32720	32670	
977	0	32760	32661	
978	0	32820	32703	
979	0	32768	32750	
980	0	32790	32747	
981	0	32762	32730	
982	0	32750	32775	
983	0	32764	32790	
984	0	32810	32756	
985	0	32800	32702	
986	0	32792	32774	
987	0	32832	32774	
988	0	32776	32708	
989	0	32788	32756	
990	0	32836	32860	
991	0	32824	32738	
992	0	32858	32790	
993	0	32816	32724	
994	0	32796	32775	
995	0	32836	32679	
996	0	32820	32772	
997	0	32800	32700	
998	0	32847	32692	
999	0	32896	32792	
1000	0	32916	32720	
1001	0	32794	32832	
1002	0	32788	32867	
1003	0	32792	32710	
1004	0	32880	32775	
1005	0	32892	32743	
1006	0	32844	32843	
1007	0	32852	32838	
1008	0	32774	32786	
1009	0	32796	32766	
1010	0	32826	32712	
1011	0	32812	32668	
1012	0	32802	32679	
1013	0	32870	32820	
1014	0	32864	32844	
1015	0	32734	32770	
1016	0	32774	32788	
1017	0	32820	32719	
1018	0	32791	32767	
1019	0	32810	32741	
1020	0	32814	32748	
1021	0	32842	32724	
1022	0	32782	32740	
1023	0	32844	32838	
1024	0	32804	32802	
1025	0	32816	32762	
1026	0	32800	32820	
1027	0	32806	32846	
1028	0	32800	32732	
1029	0	32798	32708	
1030	0	32880	32734	
1031	0	32804	32775	
1032	0	32852	32844	
1033	0	32848	32686	
1034	0	32840	32734	
1035	0	32760	32834	
1036	0	32792	32834	
1037	0	32790	32759	
1038	0	32868	32762	
1039	0	32808	32872	
1040	0	32812	32775	
1041	0	32776	32703	
1042	0	32812	32832	
1043	0	32822	32895	
1044	0	32816	32696	
1045	0	32832	32794	
1046	0	32800	32803	
1047	0	32837	32690	
1048	0	32778	32730	
1049	0	32822	32842	
1050	0	32834	32738	
1051	0	32778	32774	
1052	0	32784	32711	
1053	0	32782	32843	
1054	0	32890	32868	
1055	0	32834	32822	
1056	0	32840	32775	
1057	0	32792	32690	
1058	0	32804	32792	
1059	0	32756	32814	
1060	0	32816	32662	
1061	0	32838	32856	
1062	0	32902	32744	
1063	0	32792	32676	
1064	0	32784	32766	
1065	0	32768	32641	
1066	0	32820	32782	
1067	0	32776	32824	
1068	0	32804	32684	
1069	0	32776	32751	
1070	0	32798	32658	
1071	0	32828	32870	
1072	0	32865	32775	
1073	0	32820	32820	
1074	0	32780	32868	
1075	0	32768	32736	
1076	0	32778	32788	
1077	0	32854	32647	
1078	0	32841	32775	
1079	0	32844	32752	
1080	0	32806	32857	
1081	0	32824	32770	
1082	0	32824	32742	
1083	0	32852	32828	
1084	0	32768	32753	
1085	0	32758	32654	
1086	0	32788	32768	
1087	0	32856	32746	
1088	0	32798	32679	
1089	0	32824	32796	
1090	0	32816	32721	
1091	0	32884	32721	
1092	0	32888	32844	
1093	0	32796	32791	
1094	0	32742	32712	
1095	0	32794	32796	
1096	0	32840	32774	
1097	0	32828	32710	
1098	0	32772	32892	
1099	0	32840	32775	
1100	0	32730	32767	
1101	0	32826	32775	
1102	0	32806	32830	
1103	0	32852	32751	
1104	0	32788	32838	
1105	0	32806	32688	
1106	0	32808	32823	
1107	0	32810	32806	
1108	0	32825	32728	
1109	0	32848	32775	
1110	0	32770	32700	
1111	0	32800	32774	
1112	0	32812	32740	
1113	0	32792	32703	
1114	0	32812	32766	
1115	0	32846	32684	
1116	0	32822	32810	
1117	0	32764	32817	
1118	0	32784	32700	
1119	0	32808	32792	
1120	0	32852	32721	
1121	0	32868	32813	
1122	0	32832	32784	
1123	0	32774	32814	
1124	0	32728	32718	
1125	0	32720	32686	
1126	0	32868	32752	
1127	0	32820	32770	
1128	0	32836	32846	
1129	0	32836	32740	
1130	0	32794	32824	
1131	0	32847	32678	
1132	0	32816	32820	
1133	0	32798	32830	
1134	0	32908	32770	
1135	0	32804	32678	
1136	0	32768	32694	
1137	0	32832	32799	
1138	0	32810	32852	
1139	0	32780	32820	
1140	0	32856	32758	
1141	0	32754	32754	
1142	0	32812	32762	
1143	0	32778	32708	
1144	0	32756	32850	
1145	0	32830	32672	
1146	0	32868	32742	
1147	0	32796	32854	
1148	0	32848	32798	
1149	0	32808	32775	
1150	0	32839	32748	
1151	0	32804	32695	
1152	0	32804	32826	
1153	0	32792	32770	
1154	0	32806	32743	
1155	0	32782	32826	
1156	0	32796	32876	
1157	0	32789	32716	
1158	0	32832	32796	
1159	0	32826	32818	
1160	0	32836	32715	
1161	0	32798	32722	
1162	0	32830	32790	
1163	0	32764	32818	
1164	0	32800	32854	
1165	0	32786	32748	
1166	0	32816	32693	
1167	0	32756	32702	
1168	0	32828	32756	
1169	0	32772	32828	
1170	0	32836	32740	
1171	0	32768	32878	
1172	0	32832	32796	
1173	0	32800	32724	
1174	0	32740	32872	
1175	0	32824	32764	
1176	0	32810	32775	
1177	0	32715	32654	
1178	0	32856	32726	
1179	0	32812	32917	
1180	0	32712	32800	
1181	0	32872	32775	
1182	0	32824	32846	
1183	0	32858	32832	
1184	0	32818	32724	
1185	0	32816	32814	
1186	0	32810	32718	
1187	0	32802	32640	
1188	0	32830	32706	
1189	0	32820	32775	
1190	0	32824	32720	
1191	0	32826	32758	
1192	0	32816	32732	
1193	0	32836	32757	
1194	0	32864	32805	
1195	0	32840	32688	
1196	0	32852	32872	
1197	0	32776	32844	
1198	0	32728	32710	
1199	0	32784	32772	
1200	0	32824	32818	
1201	0	32818	32784	
1202	0	32836	32835	
1203	0	32804	32902	
1204	0	32816	32742	
1205	0	32788	32786	
1206	0	32794	32718	
1207	0	32864	32741	
1208	0	32780	32814	
1209	0	32776	32756	
1210	0	32820	32801	
1211	0	32806	32660	
1212	0	32796	32822	
1213	0	32768	32836	
1214	0	32788	32678	
1215	0	32780	32711	
1216	0	32824	32828	
1217	0	32834	32664	
1218	0	32828	32715	
1219	0	32832	32794	
1220	0	32744	32654	
1221	0	32786	32814	
1222	0	32828	32724	
1223	0	32860	32775	
1224	0	32832	32775	
1225	0	32832	32706	
1226	0	32732	32846	
1227	0	32746	32818	
1228	0	32802	32727	
1229	0	32868	32852	
1230	0	32832	32746	
1231	0	32888	32711	
1232	0	32816	32830	
1233	0	32810	32743	
1234	0	32750	32686	
1235	0	32860	32790	
1236	0	32750	32795	
1237	0	32784	32724	
1238	0	32840	32728	
1239	0	32836	32692	
1240	0	32788	32849	
1241	0	32837	32793	
1242	0	32808	32707	
1243	0	32832	32828	
1244	0	32838	32830	
1245	0	32836	32644	
1246	0	32774	32772	
1247	0	32812	32837	
1248	0	32832	32708	
1249	0	32824	32775	
1250	0	32828	32815	
1251	0	32766	32660	
1252	0	32812	32775	
1253	0	32824	32818	
1254	0	32824	32726	
1255	0	32840	32816	
1256	0	32808	32823	
1257	0	32828	32790	
1258	0	32800	32800	
1259	0	32796	32674	
1260	0	32820	32794	
1261	0	32758	32774	
1262	0	32840	32738	
1263	0	32804	32772	
1264	0	32828	32734	
1265	0	32752	32788	
1266	0	32744	32766	
1267	0	32812	32690	
1268	0	32794	32861	
1269	0	32848	32834	
1270	0	32822	32684	
1271	0	32860	32832	
1272	0	32856	32742	
1273	0	32788	32688	
1274	0	32836	32748	
1275	0	32804	32822	
1276	0	32802	32774	
1277	0	32792	32860	
1278	0	32816	32810	
1279	0	32824	32764	
1280	0	32800	32728	
1281	0	32776	32692	
1282	0	32821	32720	
1283	0	32812	32720	
1284	0	32732	32789	
1285	0	32816	32812	
1286	0	32824	32751	
1287	0	32800	32684	
1288	0	32841	32691	
1289	0	32840	32816	
1290	0	32824	32890	
1291	0	32802	32775	
1292	0	32820	32756	
1293	0	32784	32758	
1294	0	32772	32740	
1295	0	32784	32686	
1296	0	32834	32838	
1297	0	32768	32724	
1298	0	32852	32805	
1299	0	32774	32820	
1300	0	32836	32718	
1301	0	32776	32695	
1302	0	32884	32724	
1303	0	32800	32800	
1304	0	32832	32798	
1305	0	32808	32692	
1306	0	32774	32802	
1307	0	32838	32738	
1308	0	32800	32764	
1309	0	32798	32748	
1310	0	32812	32712	
1311	0	32852	32802	
1312	0	32820	32724	
1313	0	32784	32808	
1314	0	32764	32673	
1315	0	32812	32710	
1316	0	32806	32676	
1317	0	32817	32866	
1318	0	32844	32842	
1319	0	32836	32727	
1320	0	32794	32810	
1321	0	32784	32726	
1322	0	32842	32810	
1323	0	32754	32768	
1324	0	32800	32699	
1325	0	32775	32834	
1326	0	32768	32775	
1327	0	32802	32679	
1328	0	32868	32806	
1329	0	32721	32718	
1330	0	32772	32816	
1331	0	32824	32846	
1332	0	32796	32775	
1333	0	32832	32788	
1334	0	32808	32758	
1335	0	32830	32838	
1336	0	32796	32724	
1337	0	32836	32754	
1338	0	32860	32814	
1339	0	32768	32656	
1340	0	32774	32788	
1341	0	32808	32802	
1342	0	32862	32806	
1343	0	32808	32770	
1344	0	32812	32704	
1345	0	32878	32786	
1346	0	32782	32626	
1347	0	32788	32764	
1348	0	32838	32760	
1349	0	32846	32711	
1350	0	32804	32853	
1351	0	32784	32711	
1352	0	32776	32798	
1353	0	32760	32793	
1354	0	32796	32842	
1355	0	32790	32756	
1356	0	32796	32804	
1357	0	32816	32681	
1358	0	32844	32812	
1359	0	32892	32698	
1360	0	32828	32875	
1361	0	32908	32814	
1362	0	32830	32775	
1363	0	32777	32832	
1364	0	32796	32852	
1365	0	32812	32737	
1366	0	32848	32794	
1367	0	32800	32807	
1368	0	32792	32638	
1369	0	32776	32693	
1370	0	32805	32655	
1371	0	32832	32810	
1372	0	32774	32716	
1373	0	32860	32730	
1374	0	32846	32811	
1375	0	32798	32771	
1376	0	32836	32743	
1377	0	32788	32756	
1378	0	32700	32775	
1379	0	32814	32814	
1380	0	32760	32911	
1381	0	32800	32748	
1382	0	32804	32757	
1383	0	32784	32678	
1384	0	32856	32852	
1385	0	32872	32734	
1386	0	32888	32808	
1387	0	32820	32770	
1388	0	32814	32738	
1389	0	32824	32812	
1390	0	32810	32783	
1391	0	32870	32672	
1392	0	32736	32759	
1393	0	32744	32676	
1394	0	32784	32794	
1395	0	32792	32732	
1396	0	32796	32866	
1397	0	32832	32852	
1398	0	32864	32759	
1399	0	32774	32814	
1400	0	32770	32848	
1401	0	32770	32710	
1402	0	32904	32716	
1403	0	32832	32842	
1404	0	32836	32775	
1405	0	32856	32874	
1406	0	32776	32775	
1407	0	32752	32818	
1408	0	32824	32673	
1409	0	32800	32828	
1410	0	32804	32840	
1411	0	32864	32734	
1412	0	32738	32764	
1413	0	32784	32715	
1414	0	32848	32732	
1415	0	32782	32824	
1416	0	32836	32764	
1417	0	32752	32806	
1418	0	32804	32768	
1419	0	32873	32775	
1420	0	32834	32844	
1421	0	32836	32775	
1422	0	32856	32698	
1423	0	32836	32706	
1424	0	32788	32839	
1425	0	32708	32700	
1426	0	32812	32718	
1427	0	32812	32772	
1428	0	32816	32844	
1429	0	32804	32740	
1430	0	32808	32784	
1431	0	32878	32772	
1432	0	32800	32786	
1433	0	32876	32770	
1434	0	32820	32791	
1435	0	32762	32682	
1436	0	32774	32705	
1437	0	32820	32744	
1438	0	32806	32632	
1439	0	32808	32848	
1440	0	32832	32810	
1441	0	32769	32684	
1442	0	32808	32802	
1443	0	32834	32744	
1444	0	32858	32775	
1445	0	32772	32786	
1446	0	32810	32655	
1447	0	32832	32712	
1448	0	32808	32707	
1449	0	32836	32894	
1450	0	32834	32874	
1451	0	32806	32634	
1452	0	32760	32768	
1453	0	32866	32720	
1454	0	32776	32806	
1455	0	32790	32742	
1456	0	32810	32714	
1457	0	32804	32775	
1458	0	32836	32663	
1459	0	32758	32710	
1460	0	32900	32830	
1461	0	32842	32804	
1462	0	32728	32746	
1463	0	32760	32802	
1464	0	32786	32807	
1465	0	32816	32737	
1466	0	32792	32850	
1467	0	32789	32742	
1468	0	32812	32808	
1469	0	32832	32679	
1470	0	32792	32852	
1471	0	32854	32820	
1472	0	32832	32682	
1473	0	32810	32775	
1474	0	32802	32854	
1475	0	32868	32688	
1476	0	32788	32775	
1477	0	32780	32692	
1478	0	32808	32794	
1479	0	32850	32808	
1480	0	32817	32689	
1481	0	32868	32786	
1482	0	32824	32854	
1483	0	32750	32647	
1484	0	32748	32802	
1485	0	32820	32822	
1486	0	32804	32827	
1487	0	32804	32808	
1488	0	32820	32724	
1489	0	32796	32800	
1490	0	32836	32788	
1491	0	32824	32775	
1492	0	32814	32718	
1493	0	32774	32668	
1494	0	32786	32814	
1495	0	32828	32807	
1496	0	32852	32743	
1497	0	32880	32804	
1498	0	32832	32786	
1499	0	32848	32753	
1500	0	32828	32802	
1501	0	32828	32732	
1502	0	32836	32728	
1503	0	32884	32748	
1504	0	32802	32709	
1505	0	32772	32940	
1506	0	32844	32808	
1507	0	32776	32746	
1508	0	32818	32745	
1509	0	32834	32764	
1510	0	32764	32763	
1511	0	32816	32766	
1512	0	32784	32700	
1513	0	32788	32743	
1514	0	32788	32718	
1515	0	32816	32794	
1516	0	32808	32810	
1517	0	32856	32714	
1518	0	32860	32756	
1519	0	32812	32734	
1520	0	32846	32804	
1521	0	32817	32832	
1522	0	32746	32726	
1523	0	32772	32732	
1524	0	32780	32823	
1525	0	32804	32765	
1526	0	32780	32766	
1527	0	32770	32816	
1528	0	32799	32775	
1529	0	32752	32774	
1530	0	32756	32712	
1531	0	32876	32766	
1532	0	32808	32775	
1533	0	32872	32820	
1534	0	32902	32822	
1535	0	32796	32772	
1536	0	32804	32769	
1537	0	32858	32775	
1538	0	32836	32674	
1539	0	32796	32755	
1540	0	32824	32730	
1541	0	32798	32862	
1542	0	32804	32856	
1543	0	32760	32739	
1544	0	32792	32762	
1545	0	32782	32804	
1546	0	32781	32716	
1547	0	32876	32762	
1548	0	32878	32871	
1549	0	32800	32696	
1550	0	32852	32816	
1551	0	32862	32858	
1552	0	32838	32738	
1553	0	32848	32814	
1554	0	32847	32727	
1555	0	32756	32775	
1556	0	32828	32775	
1557	0	32760	32654	
1558	0	32782	32800	
1559	0	32804	32713	
1560	0	32788	32820	
1561	0	32872	32809	
1562	0	32856	32676	
1563	0	32820	32760	
1564	0	32792	32732	
1565	0	32800	32832	
1566	0	32832	32825	
1567	0	32802	32647	
1568	0	32688	32750	
1569	0	32856	32658	
1570	0	32748	32775	
1571	0	32832	32769	
1572	0	32832	32676	
1573	0	32840	32788	
1574	0	32852	32770	
1575	0	32846	32734	
1576	0	32748	32878	
1577	0	32768	32732	
1578	0	32796	32764	
1579	0	32884	32724	
1580	0	32822	32766	
1581	0	32788	32863	
1582	0	32852	32812	
1583	0	32788	32734	
1584	0	32728	32716	
1585	0	32792	32708	
1586	0	32808	32743	
1587	0	32768	32878	
1588	0	32784	32742	
1589	0	32800	32792	
1590	0	32884	32692	
1591	0	32816	32800	
1592	0	32846	32836	
1593	0	32792	32682	
1594	0	32774	32836	
1595	0	32812	32828	
1596	0	32761	32700	
1597	0	32804	32775	
1598	0	32804	32652	
1599	0	32858	32775	
1600	0	32832	32850	
1601	0	32822	32740	
1602	0	32824	32748	
1603	0	32756	32696	
1604	0	32874	32817	
1605	0	32868	32756	
1606	0	32830	32654	
1607	0	32824	32900	
1608	0	32800	32750	
1609	0	32852	32647	
1610	0	32880	32832	
1611	0	32848	32666	
1612	0	32820	32807	
1613	0	32769	32747	
1614	0	32778	32724	
1615	0	32804	32868	
1616	0	32828	32868	
1617	0	32768	32736	
1618	0	32848	32806	
1619	0	32832	32756	
1620	0	32750	32682	
1621	0	32816	32820	
1622	0	32772	32756	
1623	0	32824	32727	
1624	0	32792	32855	
1625	0	32836	32752	
1626	0	32792	32800	
1627	0	32788	32775	
1628	0	32836	32758	
1629	0	32876	32632	
1630	0	32832	32740	
1631	0	32804	32812	
1632	0	32810	32684	
1633	0	32756	32848	
1634	0	32814	32871	
1635	0	32808	32730	
1636	0	32812	32762	
1637	0	32800	32938	
1638	0	32804	32822	
1639	0	32841	32836	
1640	0	32784	32756	
1641	0	32822	32799	
1642	0	32840	32704	
1643	0	32796	32862	
1644	0	32792	32807	
1645	0	32800	32688	
1646	0	32834	32826	
1647	0	32802	32774	
1648	0	32724	32768	
1649	0	32808	32742	
1650	0	32860	32796	
1651	0	32836	32727	
1652	0	32820	32764	
1653	0	32792	32684	
1654	0	32804	32759	
1655	0	32794	32689	
1656	0	32849	32730	
1657	0	32838	32646	
1658	0	32740	32812	
1659	0	32776	32832	
1660	0	32812	32711	
1661	0	32832	32775	
1662	0	32828	32726	
1663	0	32784	32752	
1664	0	32756	32750	
1665	0	32776	32736	
1666	0	32856	32718	
1667	0	32838	32836	
1668	0	32814	32806	
1669	0	32808	32754	
1670	0	32800	32766	
1671	0	32788	32620	
1672	0	32820	32788	
1673	0	32828	32686	
1674	0	32792	32846	
1675	0	32840	32804	
1676	0	32796	32774	
1677	0	32834	32807	
1678	0	32768	32802	
1679	0	32780	32754	
1680	0	32874	32744	
1681	0	32801	32760	
1682	0	32816	32738	
1683	0	32820	32804	
1684	0	32796	32716	
1685	0	32832	32852	
1686	0	32848	32820	
1687	0	32848	32792	
1688	0	32772	32826	
1689	0	32800	32775	
1690	0	32854	32764	
1691	0	32776	32740	
1692	0	32836	32798	
1693	0	32794	32790	
1694	0	32816	32737	
1695	0	32828	32804	
1696	0	32808	32742	
1697	0	32876	32828	
1698	0	32832	32722	
1699	0	32788	32774	
1700	0	32846	32960	
1701	0	32820	32719	
1702	0	32800	32726	
1703	0	32816	32756	
1704	0	32756	32734	
1705	0	32790	32742	
1706	0	32776	32808	
1707	0	32824	32848	
1708	0	32840	32758	
1709	0	32806	32864	
1710	0	32810	32774	
1711	0	32796	32772	
1712	0	32784	32807	
1713	0	32756	32686	
1714	0	32805	32710	
1715	0	32732	32705	
1716	0	32784	32598	
1717	0	32728	32696	
1718	0	32714	32582	
1719	0	32732	32748	
1720	0	32740	32698	
1721	0	32752	32594	
1722	0	32720	32600	
1723	0	32752	32700	
1724	0	32680	32660	
1725	0	32713	32686	
1726	0	32760	32652	
1727	0	32720	32690	
1728	0	32816	32692	
1729	0	32694	32734	
1730	0	32762	32750	
1731	0	32830	32684	
1732	0	32862	32774	
1733	0	32806	32724	
1734	0	32845	32698	
1735	0	32844	32678	
1736	0	32860	32704	
1737	0	32980	32862	
1738	0	33052	32920	
1739	0	33184	32792	
1740	0	33140	33082	
1741	0	33148	33159	
1742	0	33170	33270	
1743	0	33128	33316	
1744	0	33097	33230	
1745	0	32984	33178	
1746	0	32932	33132	
1747	0	32828	33087	
1748	0	32822	32948	
1749	0	32778	32884	
1750	0	32700	32730	
1751	0	32668	32666	
1752	0	32724	32558	
1753	0	32716	32646	
1754	0	32736	32631	
1755	0	32664	32587	
1756	0	32664	32618	
1757	0	32684	32546	
1758	0	32696	32670	
1759	0	32716	32612	
1760	0	32652	32711	
1761	0	32704	32714	
1762	0	32724	32766	
1763	0	32724	32744	
1764	0	32716	32679	
1765	0	32728	32752	
1766	0	32790	32820	
1767	0	32788	32752	
1768	0	32760	32690	
1769	0	32740	32626	
1770	0	32824	32822	
1771	0	32804	32794	
1772	0	32837	32822	
1773	0	32796	32692	
1774	0	32802	32794	
1775	0	32804	32758	
1776	0	32796	32802	
1777	0	32880	32740	
1778	0	32852	32856	
1779	0	32824	32756	
1780	0	32816	32814	
1781	0	32816	32707	
1782	0	32918	32722	
1783	0	32808	32850	
1784	0	32830	32678	
1785	0	32795	32835	
1786	0	32808	32856	
1787	0	32808	32662	
1788	0	32772	32735	
1789	0	32801	32666	
1790	0	32832	32862	
1791	0	32766	32839	
1792	0	32868	32752	
1793	0	32798	32828	
1794	0	32832	32730	
1795	0	32856	32655	
1796	0	32782	32775	
1797	0	32868	32788	
1798	0	32772	32662	
1799	0	32880	32804	
1800	0	32720	32720	
1801	0	32820	32800	
1802	0	32804	32820	
1803	0	32730	32710	
1804	0	32774	32752	
1805	0	32856	32836	
1806	0	32866	32742	
1807	0	32716	32682	
1808	0	32774	32851	
1809	0	32822	32820	
1810	0	32824	32774	
1811	0	32877	32892	
1812	0	32792	32766	
1813	0	32804	32732	
1814	0	32894	32672	
1815	0	32849	32743	
1816	0	32792	32671	
1817	0	32784	32794	
1818	0	32808	32764	
1819	0	32880	32768	
1820	0	32752	32775	
1821	0	32774	32814	
1822	0	32832	32806	
1823	0	32884	32790	
1824	0	32748	32796	
1825	0	32804	32756	
1826	0	32840	32698	
1827	0	32774	32775	
1828	0	32832	32808	
1829	0	32858	32775	
1830	0	32900	32775	
1831	0	32832	32628	
1832	0	32768	32774	
1833	0	32774	32670	
1834	0	32862	32844	
1835	0	32824	32898	
1836	0	32736	32724	
1837	0	32800	32790	
1838	0	32744	32692	
1839	0	32798	32864	
1840	0	32848	32792	
1841	0	32756	32792	
1842	0	32808	32850	
1843	0	32798	32744	
1844	0	32788	32746	
1845	0	32804	32678	
1846	0	32824	32816	
1847	0	32800	32728	
1848	0	32768	32812	
1849	0	32840	32766	
1850	0	32792	32612	
1851	0	32826	32678	
1852	0	32780	32812	
1853	0	32824	32694	
1854	0	32808	32804	
1855	0	32876	32800	
1856	0	32866	32775	
1857	0	32836	32775	
1858	0	32844	32746	
1859	0	32812	32775	
1860	0	32788	32786	
1861	0	32740	32736	
1862	0	32836	32810	
1863	0	32780	32804	
1864	0	32812	32743	
1865	0	32812	32774	
1866	0	32816	32871	
1867	0	32864	32775	
1868	0	32860	32764	
1869	0	32760	32711	
1870	0	32844	32781	
1871	0	32768	32764	
1872	0	32808	32628	
1873	0	32828	32720	
1874	0	32792	32630	
1875	0	32860	32775	
1876	0	32820	32808	
1877	0	32764	32694	
1878	0	32834	32805	
1879	0	32840	32866	
1880	0	32856	32836	
1881	0	32774	32847	
1882	0	32840	32759	
1883	0	32770	32826	
1884	0	32759	32695	
1885	0	32816	32822	
1886	0	32746	32850	
1887	0	32818	32820	
1888	0	32872	32814	
1889	0	32880	32775	
1890	0	32844	32762	
1891	0	32788	32647	
1892	0	32860	32742	
1893	0	32784	32822	
1894	0	32866	32724	
1895	0	32804	32743	
1896	0	32824	32694	
1897	0	32780	32730	
1898	0	32832	32814	
1899	0	32792	32763	
1900	0	32762	32841	
1901	0	32772	32820	
1902	0	32816	32708	
1903	0	32802	32790	
1904	0	32774	32700	
1905	0	32838	32824	
1906	0	32816	32814	
1907	0	32764	32816	
1908	0	32760	32820	
1909	0	32812	32756	
1910	0	32798	32700	
1911	0	32816	32886	
1912	0	32856	32790	
1913	0	32820	32711	
1914	0	32752	32688	
1915	0	32822	32764	
1916	0	32752	32767	
1917	0	32836	32673	
1918	0	32840	32764	
1919	0	32832	32774	
1920	0	32804	32774	
1921	0	32810	32826	
1922	0	32840	32756	
1923	0	32896	32721	
1924	0	32766	32870	
1925	0	32780	32732	
1926	0	32768	32734	
1927	0	32768	32679	
1928	0	32774	32775	
1929	0	32740	32818	
1930	0	32784	32656	
1931	0	32880	32796	
1932	0	32864	32800	
1933	0	32792	32913	
1934	0	32768	32827	
1935	0	32835	32768	
1936	0	32858	32775	
1937	0	32824	32774	
1938	0	32892	32746	
1939	0	32838	32704	
1940	0	32784	32674	
1941	0	32804	32769	
1942	0	32825	32682	
1943	0	32862	32807	
1944	0	32808	32684	
1945	0	32807	32862	
1946	0	32746	32742	
1947	0	32816	32784	
1948	0	32822	32677	
1949	0	32864	32814	
1950	0	32820	32672	
1951	0	32888	32748	
1952	0	32824	32676	
1953	0	32840	32816	
1954	0	32768	32688	
1955	0	32776	32702	
1956	0	32880	32658	
1957	0	32720	32773	
1958	0	32864	32698	
1959	0	32804	32804	
1960	0	32804	32754	
1961	0	32808	32873	
1962	0	32852	32724	
1963	0	32788	32848	
1964	0	32712	32804	
1965	0	32908	32712	
1966	0	32802	32775	
1967	0	32816	32751	
1968	0	32808	32743	
1969	0	32816	32720	
1970	0	32788	32818	
1971	0	32820	32695	
1972	0	32792	32818	
1973	0	32832	32855	
1974	0	32866	32792	
1975	0	32780	32823	
1976	0	32824	32742	
1977	0	32808	32812	
1978	0	32792	32852	
1979	0	32834	32878	
1980	0	32812	32810	
1981	0	32824	32723	
1982	0	32886	32860	
1983	0	32794	32732	
1984	0	32788	32712	
1985	0	32860	32819	
1986	0	32824	32798	
1987	0	32812	32708	
1988	0	32754	32775	
1989	0	32756	32740	
1990	0	32844	32759	
1991	0	32828	32772	
1992	0	32884	32711	
1993	0	32792	32720	
1994	0	32868	32754	
1995	0	32834	32742	
1996	0	32840	32842	
1997	0	32828	32818	
1998	0	32756	32702	
1999	0	32816	32748	
2000	0	32792	32775	
2001	0	32878	32842	
2002	0	32864	32798	
2003	0	32776	32753	
2004	0	32806	32848	
2005	0	32812	32724	
2006	0	32752	32806	
2007	0	32756	32830	
2008	0	32724	32742	
2009	0	32800	32775	
2010	0	32812	32775	
2011	0	32846	32786	
2012	0	32828	32790	
2013	0	32806	32720	
2014	0	32832	32710	
2015	0	32810	32683	
2016	0	32820	32774	
2017	0	32878	32760	
2018	0	32784	32615	
2019	0	32844	32796	
2020	0	32812	32900	
2021	0	32776	32710	
2022	0	32792	32788	
2023	0	32828	32711	
2024	0	32847	32807	
2025	0	32834	32804	
2026	0	32816	32768	
2027	0	32752	32759	
2028	0	32816	32738	
2029	0	32808	32818	
2030	0	32806	32678	
2031	0	32808	32770	
2032	0	32812	32775	
2033	0	32800	32792	
2034	0	32808	32850	
2035	0	32832	32727	
2036	0	32830	32736	
2037	0	32774	32679	
2038	0	32844	32807	
2039	0	32798	32818	
2040	0	32796	32820	
2041	0	32790	32820	
2042	0	32804	32748	
2043	0	32836	32774	
2044	0	32790	32720	
2045	0	32788	32807	
2046	0	32804	32812	
2047	0	32824	32794	
2048	0	32780	32775	
2049	0	32852	32679	
2050	0	32882	32752	
2051	0	32768	32840	
2052	0	32818	32734	
2053	0	32772	32876	
2054	0	32842	32734	
2055	0	32814	32738	
2056	0	32816	32839	
2057	0	32818	32759	
2058	0	32846	32775	
2059	0	32820	32767	
2060	0	32781	32744	
2061	0	32884	32821	
2062	0	32898	32872	
2063	0	32788	32814	
2064	0	32744	32723	
2065	0	32852	32752	
2066	0	32716	32768	
2067	0	32814	32774	
2068	0	32840	32810	
2069	0	32800	32708	
2070	0	32806	32870	
2071	0	32824	32643	
2072	0	32808	32775	
2073	0	32818	32804	
2074	0	32748	32772	
2075	0	32821	32766	
2076	0	32778	32647	
2077	0	32868	32766	
2078	0	32820	32676	
2079	0	32820	32839	
2080	0	32768	32682	
2081	0	32804	32794	
2082	0	32804	32796	
2083	0	32804	32758	
2084	0	32856	32790	
2085	0	32802	32794	
2086	0	32822	32759	
2087	0	32826	32756	
2088	0	32818	32908	
2089	0	32808	32732	
2090	0	32812	32762	
2091	0	32772	32804	
2092	0	32828	32636	
2093	0	32796	32818	
2094	0	32832	32796	
2095	0	32828	32686	
2096	0	32840	32748	
2097	0	32824	32670	
2098	0	32804	32806	
2099	0	32817	32872	
2100	0	32840	32708	
2101	0	32774	32762	
2102	0	32840	32752	
2103	0	32812	32704	
2104	0	32750	32774	
2105	0	32800	32846	
2106	0	32796	32720	
2107	0	32796	32734	
2108	0	32792	32732	
2109	0	32822	32700	
2110	0	32806	32802	
2111	0	32832	32843	
2112	0	32884	32775	
2113	0	32826	32804	
2114	0	32810	32712	
2115	0	32832	32865	
2116	0	32786	32842	
2117	0	32812	32770	
2118	0	32814	32775	
2119	0	32852	32718	
2120	0	32814	32798	
2121	0	32774	32821	
2122	0	32860	32751	
2123	0	32808	32800	
2124	0	32818	32764	
2125	0	32766	32754	
2126	0	32800	32719	
2127	0	32812	32759	
2128	0	32816	32816	
2129	0	32796	32775	
2130	0	32804	32668	
2131	0	32858	32807	
2132	0	32784	32856	
2133	0	32880	32743	
2134	0	32820	32774	
2135	0	32812	32871	
2136	0	32812	32772	
2137	0	32736	32774	
2138	0	32754	32706	
2139	0	32810	32790	
2140	0	32780	32804	
2141	0	32800	32726	
2142	0	32820	32775	
2143	0	32740	32834	
2144	0	32820	32750	
2145	0	32816	32766	
2146	0	32792	32810	
2147	0	32816	32746	
2148	0	32840	32758	
2149	0	32834	32647	
2150	0	32826	32798	
2151	0	32840	32812	
2152	0	32828	32719	
2153	0	32832	32739	
2154	0	32764	32832	
2155	0	32808	32775	
2156	0	32836	32870	
2157	0	32812	32792	
2158	0	32806	32746	
2159	0	32848	32825	
2160	0	32800	32796	
2161	0	32826	32647	
2162	0	32844	32818	
2163	0	32792	32828	
2164	0	32824	32670	
2165	0	32796	32830	
2166	0	32804	32790	
2167	0	32768	32710	
2168	0	32801	32794	
2169	0	32794	32796	
2170	0	32844	32806	
2171	0	32826	32766	
2172	0	32788	32720	
2173	0	32868	32784	
2174	0	32794	32812	
2175	0	32792	32704	
2176	0	32840	32828	
2177	0	32812	32684	
2178	0	32840	32732	
2179	0	32900	32894	
2180	0	32840	32750	
2181	0	32800	32894	
2182	0	32764	32882	
2183	0	32764	32608	
2184	0	32784	32796	
2185	0	32778	32800	
2186	0	32792	32711	
2187	0	32820	32710	
2188	0	32794	32760	
2189	0	32832	32750	
2190	0	32860	32748	
2191	0	32808	32807	
2192	0	32784	32743	
2193	0	32814	32834	
2194	0	32828	32775	
2195	0	32764	32740	
2196	0	32856	32808	
2197	0	32774	32674	
2198	0	32792	32810	
2199	0	32776	32716	
2200	0	32736	32892	
2201	0	32856	32692	
2202	0	32850	32775	
2203	0	32736	32746	
2204	0	32812	32784	
2205	0	32808	32757	
2206	0	32776	32770	
2207	0	32888	32786	
2208	0	32766	32832	
2209	0	32808	32708	
2210	0	32832	32812	
2211	0	32826	32838	
2212	0	32840	32767	
2213	0	32836	32734	
2214	0	32864	32775	
2215	0	32768	32678	
2216	0	32896	32810	
2217	0	32788	32734	
2218	0	32836	32870	
2219	0	32878	32692	
2220	0	32836	32831	
2221	0	32830	32860	
2222	0	32766	32766	
2223	0	32816	32760	
2224	0	32852	32746	
2225	0	32796	32774	
2226	0	32808	32686	
2227	0	32788	32823	
2228	0	32848	32775	
2229	0	32792	32670	
2230	0	32836	32784	
2231	0	32826	32714	
2232	0	32792	32871	
2233	0	32856	32855	
2234	0	32824	32784	
2235	0	32868	32792	
2236	0	32816	32735	
2237	0	32772	32756	
2238	0	32820	32812	
2239	0	32829	32748	
2240	0	32820	32854	
2241	0	32780	32636	
2242	0	32804	32775	
2243	0	32800	32760	
2244	0	32796	32768	
2245	0	32820	32707	
2246	0	32782	32806	
2247	0	32826	32775	
2248	0	32806	32716	
2249	0	32820	32860	
2250	0	32818	32896	
2251	0	32780	32822	
2252	0	32774	32796	
2253	0	32836	32712	
2254	0	32808	32732	
2255	0	32820	32775	
2256	0	32832	32792	
2257	0	32864	32775	
2258	0	32844	32750	
2259	0	32776	32663	
2260	0	32806	32662	
2261	0	32864	32706	
2262	0	32852	32785	
2263	0	32856	32794	
2264	0	32800	32804	
2265	0	32802	32712	
2266	0	32782	32872	
2267	0	32794	32884	
2268	0	32820	32684	
2269	0	32820	32858	
2270	0	32820	32660	
2271	0	32826	32814	
2272	0	32786	32696	
2273	0	32760	32802	
2274	0	32802	32775	
2275	0	32800	32724	
2276	0	32784	32799	
2277	0	32868	32726	
2278	0	32796	32860	
2279	0	32848	32717	
2280	0	32834	32757	
2281	0	32820	32767	
2282	0	32846	32846	
2283	0	32840	32804	
2284	0	32872	32728	
2285	0	32776	32806	
2286	0	32800	32856	
2287	0	32824	32756	
2288	0	32800	32807	
2289	0	32786	32772	
2290	0	32816	32796	
2291	0	32778	32678	
2292	0	32800	32775	
2293	0	32816	32870	
2294	0	32832	32767	
2295	0	32800	32812	
2296	0	32792	32839	
2297	0	32828	32844	
2298	0	32808	32710	
2299	0	32876	32724	
2300	0	32812	32856	
2301	0	32816	32792	
2302	0	32754	32727	
2303	0	32804	32728	
2304	0	32724	32682	
2305	0	32812	32775	
2306	0	32824	32839	
2307	0	32768	32710	
2308	0	32804	32784	
2309	0	32828	32700	
2310	0	32820	32801	
2311	0	32826	32775	
2312	0	32842	32810	
2313	0	32796	32828	
2314	0	32790	32764	
2315	0	32784	32696	
2316	0	32868	32639	
2317	0	32880	32696	
2318	0	32864	32740	
2319	0	32816	32735	
2320	0	32802	32746	
2321	0	32848	32743	
2322	0	32756	32884	
2323	0	32880	32844	
2324	0	32868	32775	
2325	0	32932	32748	
2326	0	32770	32678	
2327	0	32866	32719	
2328	0	32846	32688	
2329	0	32792	32856	
2330	0	32772	32848	
2331	0	32842	32736	
2332	0	32868	32835	
2333	0	32796	32706	
2334	0	32772	32790	
2335	0	32804	32804	
2336	0	32801	32750	
2337	0	32824	32834	
2338	0	32774	32662	
2339	0	32850	32846	
2340	0	32833	32862	
2341	0	32828	32794	
2342	0	32726	32818	
2343	0	32790	32702	
2344	0	32820	32791	
2345	0	32768	32855	
2346	0	32776	32732	
2347	0	32804	32734	
2348	0	32786	32764	
2349	0	32832	32839	
2350	0	32836	32716	
2351	0	32832	32794	
2352	0	32832	32762	
2353	0	32780	32674	
2354	0	32808	32820	
2355	0	32725	32718	
2356	0	32836	32775	
2357	0	32764	32804	
2358	0	32796	32607	
2359	0	32828	32756	
2360	0	32790	32874	
2361	0	32784	32804	
2362	0	32820	32775	
2363	0	32840	32680	
2364	0	32848	32774	
2365	0	32800	32820	
2366	0	32788	32714	
2367	0	32818	32730	
2368	0	32828	32854	
2369	0	32818	32743	
2370	0	32816	32820	
2371	0	32868	32816	
2372	0	32900	32820	
2373	0	32828	32802	
2374	0	32800	32725	
2375	0	32860	32770	
2376	0	32832	32769	
2377	0	32832	32751	
2378	0	32832	32798	
2379	0	32832	32724	
2380	0	32800	32716	
2381	0	32836	32814	
2382	0	32840	32636	
2383	0	32834	32839	
2384	0	32836	32818	
2385	0	32792	32708	
2386	0	32808	32784	
2387	0	32792	32801	
2388	0	32838	32710	
2389	0	32804	32775	
2390	0	32816	32832	
2391	0	32814	32764	
2392	0	32856	32767	
2393	0	32804	32692	
2394	0	32776	32860	
2395	0	32817	32831	
2396	0	32792	32692	
2397	0	32792	32759	
2398	0	32816	32822	
2399	0	32760	32712	
2400	0	32828	32746	
2401	0	32872	32696	
2402	0	32872	32702	
2403	0	32816	32840	
2404	0	32884	32727	
2405	0	32794	32838	
2406	0	32832	32772	
2407	0	32808	32846	
2408	0	32830	32758	
2409	0	32788	32644	
2410	0	32792	32822	
2411	0	32810	32774	
2412	0	32780	32810	
2413	0	32796	32775	
2414	0	32821	32784	
2415	0	32780	32862	
2416	0	32796	32772	
2417	0	32785	32676	
2418	0	32840	32810	
2419	0	32780	32852	
2420	0	32810	32724	
2421	0	32798	32726	
2422	0	32866	32734	
2423	0	32784	32748	
2424	0	32872	32818	
2425	0	32748	32746	
2426	0	32818	32758	
2427	0	32757	32675	
2428	0	32820	32860	
2429	0	32810	32766	
2430	0	32840	32710	
2431	0	32834	32720	
2432	0	32836	32752	
2433	0	32842	32775	
2434	0	32792	32838	
2435	0	32828	32766	
2436	0	32868	32854	
2437	0	32792	32828	
2438	0	32868	32798	
2439	0	32816	32709	
2440	0	32800	32826	
2441	0	32784	32702	
2442	0	32812	32843	
2443	0	32846	32796	
2444	0	32784	32768	
2445	0	32821	32838	
2446	0	32732	32770	
2447	0	32820	32784	
2448	0	32832	32867	
2449	0	32796	32700	
2450	0	32804	32878	
2451	0	32778	32932	
2452	0	32780	32724	
2453	0	32868	32762	
2454	0	32785	32686	
2455	0	32704	32736	
2456	0	32670	32716	
2457	0	32784	32618	
2458	0	32748	32562	
2459	0	32732	32519	
2460	0	32754	32684	
2461	0	32646	32567	
2462	0	32740	32656	
2463	0	32700	32572	
2464	0	32750	32621	
2465	0	32760	32664	
2466	0	32784	32624	
2467	0	32762	32636	
2468	0	32752	32586	
2469	0	32760	32756	
2470	0	32808	32704	
2471	0	32768	32654	
2472	0	32734	32791	
2473	0	32840	32800	
2474	0	32796	32712	
2475	0	32792	32836	
2476	0	32900	32775	
2477	0	32960	32655	
2478	0	33024	32785	
2479	0	33048	32775	
2480	0	33148	33071	
2481	0	33156	33180	
2482	0	33168	33136	
2483	0	33108	33260	
2484	0	33096	33308	
2485	0	33008	33129	
2486	0	32844	33218	
2487	0	32900	33104	
2488	0	32848	32946	
2489	0	32852	32916	
2490	0	32790	32916	
2491	0	32760	32639	
2492	0	32700	32606	
2493	0	32694	32492	
2494	0	32682	32634	
2495	0	32688	32600	
2496	0	32644	32550	
2497	0	32692	32618	
2498	0	32696	32647	
2499	0	32610	32606	
2500	0	32732	32618	
2501	0	32696	32630	
2502	0	32732	32565	
2503	0	32720	32710	
2504	0	32740	32622	
2505	0	32656	32772	
2506	0	32732	32676	
2507	0	32758	32823	
2508	0	32836	32729	
2509	0	32800	32814	
2510	0	32772	32676	
2511	0	32812	32752	
2512	0	32854	32719	
2513	0	32856	32693	
2514	0	32864	32873	
2515	0	32792	32804	
2516	0	32864	32736	
2517	0	32808	32762	
2518	0	32788	32710	
2519	0	32822	32796	
2520	0	32800	32826	
2521	0	32784	32774	
2522	0	32840	32775	
2523	0	32848	32788	
2524	0	32888	32634	
2525	0	32750	32848	
2526	0	32760	32844	
2527	0	32789	32644	
2528	0	32772	32834	
2529	0	32937	32796	
2530	0	32832	32732	
2531	0	32810	32684	
2532	0	32820	32836	
2533	0	32812	32746	
2534	0	32794	32880	
2535	0	32736	32870	
2536	0	32828	32808	
2537	0	32836	32738	
2538	0	32904	32718	
2539	0	32821	32860	
2540	0	32852	32625	
2541	0	32862	32775	
2542	0	32760	32642	
2543	0	32796	32772	
2544	0	32774	32854	
2545	0	32830	32826	
2546	0	32868	32816	
2547	0	32776	32718	
2548	0	32796	32742	
2549	0	32828	32661	
2550	0	32808	32742	
2551	0	32864	32730	
2552	0	32804	32788	
2553	0	32756	32638	
2554	0	32834	32756	
2555	0	32868	32678	
2556	0	32820	32791	
2557	0	32822	32756	
2558	0	32768	32847	
2559	0	32804	32766	
2560	0	32884	32836	
2561	0	32904	32927	
2562	0	32858	32895	
2563	0	32868	32818	
2564	0	32864	32674	
2565	0	32772	32760	
2566	0	32720	32798	
2567	0	32766	32644	
2568	0	32830	32775	
2569	0	32788	32744	
2570	0	32814	32862	
2571	0	32784	32828	
2572	0	32768	32804	
2573	0	32782	32902	
2574	0	32760	32782	
2575	0	32860	32814	
2576	0	32804	32712	
2577	0	32816	32708	
2578	0	32860	32710	
2579	0	32824	32775	
2580	0	32840	32692	
2581	0	32822	32718	
2582	0	32864	32664	
2583	0	32776	32810	
2584	0	32776	32668	
2585	0	32804	32836	
2586	0	32824	32802	
2587	0	32816	32708	
2588	0	32849	32716	
2589	0	32846	32754	
2590	0	32726	32886	
2591	0	32806	32804	
2592	0	32762	32772	
2593	0	32784	32775	
2594	0	32800	32882	
2595	0	32752	32685	
2596	0	32862	32775	
2597	0	32788	32640	
2598	0	32840	32780	
2599	0	32812	32759	
2600	0	32800	32644	
2601	0	32804	32830	
2602	0	32812	32812	
2603	0	32866	32632	
2604	0	32860	32804	
2605	0	32780	32849	
2606	0	32804	32688	
2607	0	32756	32794	
2608	0	32836	32928	
2609	0	32726	32806	
2610	0	32820	32774	
2611	0	32804	32720	
2612	0	32850	32785	
2613	0	32808	32688	
2614	0	32816	32772	
2615	0	32824	32738	
2616	0	32768	32807	
2617	0	32864	32836	
2618	0	32792	32751	
2619	0	32760	32804	
2620	0	32782	32760	
2621	0	32832	32719	
2622	0	32868	32673	
2623	0	32866	32761	
2624	0	32844	32864	
2625	0	32844	32706	
2626	0	32762	32719	
2627	0	32792	32684	
2628	0	32732	32834	
2629	0	32816	32844	
2630	0	32856	32719	
2631	0	32852	32790	
2632	0	32848	32718	
2633	0	32800	32792	
2634	0	32802	32708	
2635	0	32842	32810	
2636	0	32750	32872	
2637	0	32808	32766	
2638	0	32836	32796	
2639	0	32834	32692	
2640	0	32668	32818	
2641	0	32722	32672	
2642	0	32832	32791	
2643	0	32776	32772	
2644	0	32772	32774	
2645	0	32817	32820	
2646	0	32832	32689	
2647	0	32798	32771	
2648	0	32840	32694	
2649	0	32840	32744	
2650	0	32800	32676	
2651	0	32786	32775	
2652	0	32832	32692	
2653	0	32788	32794	
2654	0	32798	32718	
2655	0	32822	32775	
2656	0	32846	32740	
2657	0	32818	32726	
2658	0	32768	32791	
2659	0	32836	32774	
2660	0	32750	32818	
2661	0	32738	32752	
2662	0	32876	32766	
2663	0	32784	32796	
2664	0	32868	32805	
2665	0	32832	32741	
2666	0	32824	32808	
2667	0	32840	32696	
2668	0	32848	32814	
2669	0	32860	32799	
2670	0	32834	32844	
2671	0	32812	32871	
2672	0	32804	32800	
2673	0	32780	32766	
2674	0	32856	32725	
2675	0	32800	32728	
2676	0	32754	32770	
2677	0	32778	32762	
2678	0	32764	32802	
2679	0	32753	32658	
2680	0	32836	32752	
2681	0	32794	32836	
2682	0	32834	32686	
2683	0	32802	32788	
2684	0	32802	32732	
2685	0	32836	32798	
2686	0	32814	32788	
2687	0	32804	32740	
2688	0	32816	32764	
2689	0	32848	32754	
2690	0	32836	32785	
2691	0	32866	32812	
2692	0	32816	32742	
2693	0	32900	32775	
2694	0	32872	32706	
2695	0	32836	32798	
2696	0	32832	32700	
2697	0	32810	32846	
2698	0	32776	32897	
2699	0	32748	32678	
2700	0	32752	32762	
2701	0	32832	32710	
2702	0	32729	32885	
2703	0	32848	32820	
2704	0	32798	32724	
2705	0	32772	32740	
2706	0	32796	32720	
2707	0	32796	32863	
2708	0	32813	32752	
2709	0	32802	32686	
2710	0	32836	32728	
2711	0	32836	32743	
2712	0	32808	32734	
2713	0	32822	32738	
2714	0	32760	32684	
2715	0	32816	32711	
2716	0	32794	32801	
2717	0	32774	32756	
2718	0	32804	32706	
2719	0	32808	32744	
2720	0	32824	32727	
2721	0	32836	32882	
2722	0	32780	32800	
2723	0	32820	32854	
2724	0	32794	32814	
2725	0	32820	32672	
2726	0	32776	32743	
2727	0	32840	32836	
2728	0	32856	32801	
2729	0	32852	32812	
2730	0	32888	32797	
2731	0	32856	32892	
2732	0	32808	32938	
2733	0	32860	32823	
2734	0	32822	32814	
2735	0	32904	32737	
2736	0	32856	32758	
2737	0	32748	32756	
2738	0	32746	32712	
2739	0	32812	32774	
2740	0	32800	32740	
2741	0	32848	32716	
2742	0	32780	32720	
2743	0	32752	32752	
2744	0	32716	32734	
2745	0	32768	32760	
2746	0	32804	32610	
2747	0	32769	32732	
2748	0	32720	32652	
2749	0	32816	32786	
2750	0	32820	32716	
2751	0	32848	32794	
2752	0	32870	32840	
2753	0	32866	32855	
2754	0	32868	32740	
2755	0	32820	32839	
2756	0	32798	32926	
2757	0	32784	32794	
2758	0	32796	32744	
2759	0	32776	32711	
2760	0	32808	32710	
2761	0	32856	32820	
2762	0	32790	32722	
2763	0	32746	32806	
2764	0	32804	32874	
2765	0	32825	32759	
2766	0	32804	32760	
2767	0	32830	32614	
2768	0	32736	32724	
2769	0	32732	32846	
2770	0	32760	32680	
2771	0	32842	32684	
2772	0	32888	32644	
2773	0	32848	32761	
2774	0	32796	32807	
2775	0	32824	32719	
2776	0	32772	32775	
2777	0	32784	32894	
2778	0	32808	32774	
2779	0	32784	32860	
2780	0	32852	32847	
2781	0	32800	32712	
2782	0	32800	32688	
2783	0	32852	32830	
2784	0	32804	32775	
2785	0	32796	32804	
2786	0	32824	32862	
2787	0	32820	32736	
2788	0	32860	32852	
2789	0	32812	32866	
2790	0	32796	32724	
2791	0	32766	32775	
2792	0	32804	32692	
2793	0	32786	32720	
2794	0	32820	32728	
2795	0	32868	32728	
2796	0	32780	32816	
2797	0	32740	32836	
2798	0	32846	32798	
2799	0	32906	32724	
2800	0	32892	32719	
2801	0	32824	32751	
2802	0	32880	32843	
2803	0	32700	32647	
2804	0	32840	32823	
2805	0	32750	32800	
2806	0	32775	32794	
2807	0	32758	32836	
2808	0	32752	32814	
2809	0	32716	32670	
2810	0	32748	32670	
2811	0	32834	32762	
2812	0	32804	32722	
2813	0	32868	32727	
2814	0	32925	32704	
2815	0	32864	32830	
2816	0	32856	32724	
2817	0	32822	32870	
2818	0	32886	32728	
2819	0	32863	32804	
2820	0	32812	32818	
2821	0	32784	32748	
2822	0	32784	32796	
2823	0	32784	32839	
2824	0	32769	32758	
2825	0	32793	32879	
2826	0	32860	32759	
2827	0	32860	32678	
2828	0	32864	32660	
2829	0	32752	32577	
2830	0	32792	32755	
2831	0	32772	32624	
2832	0	32810	32808	
2833	0	32772	32748	
2834	0	32774	32726	
2835	0	32832	32796	
2836	0	32850	32800	
2837	0	32784	32703	
2838	0	32822	32764	
2839	0	32796	32820	
2840	0	32776	32726	
2841	0	32770	32695	
2842	0	32878	32740	
2843	0	32788	32850	
2844	0	32752	32692	
2845	0	32810	32716	
2846	0	32812	32708	
2847	0	32870	32818	
2848	0	32800	32876	
2849	0	32846	32748	
2850	0	32848	32794	
2851	0	32830	32846	
2852	0	32802	32738	
2853	0	32820	32774	
2854	0	32832	32772	
2855	0	32884	32804	
2856	0	32744	32736	
2857	0	32784	32714	
2858	0	32838	32772	
2859	0	32790	32785	
2860	0	32732	32634	
2861	0	32730	32828	
2862	0	32775	32800	
2863	0	32758	32678	
2864	0	32788	32772	
2865	0	32796	32719	
2866	0	32780	32760	
2867	0	32832	32837	
2868	0	32864	32769	
2869	0	32872	32736	
2870	0	32884	32839	
2871	0	32836	32775	
2872	0	32790	32758	
2873	0	32864	32708	
2874	0	32772	32775	
2875	0	32840	32743	
2876	0	32778	32828	
2877	0	32780	32878	
2878	0	32786	32854	
2879	0	32824	32834	
2880	0	32816	32762	
2881	0	32910	32744	
2882	0	32853	32658	
2883	0	32840	32704	
2884	0	32868	32655	
2885	0	32756	32692	
2886	0	32866	32724	
2887	0	32844	32768	
2888	0	32810	32823	
2889	0	32714	32631	
2890	0	32772	32806	
2891	0	32792	32775	
2892	0	32832	32852	
2893	0	32796	32792	
2894	0	32792	32679	
2895	0	32776	32718	
2896	0	32752	32732	
2897	0	32798	32711	
2898	0	32758	32647	
2899	0	32764	32814	
2900	0	32828	32824	
2901	0	32768	32714	
2902	0	32824	32757	
2903	0	32788	32646	
2904	0	32732	32816	
2905	0	32824	32806	
2906	0	32804	32816	
2907	0	32836	32878	
2908	0	32814	32654	
2909	0	32816	32748	
2910	0	32769	32666	
2911	0	32774	32775	
2912	0	32820	32724	
2913	0	32882	32724	
2914	0	32900	32775	
2915	0	32804	32668	
2916	0	32880	32694	
2917	0	32836	32700	
2918	0	32868	32823	
2919	0	32830	32836	
2920	0	32866	32826	
2921	0	32766	32775	
2922	0	32836	32858	
2923	0	32796	32858	
2924	0	32782	32934	
2925	0	32774	32684	
2926	0	32846	32798	
2927	0	32821	32756	
2928	0	32816	32612	
2929	0	32764	32756	
2930	0	32810	32716	
2931	0	32788	32762	
2932	0	32810	32775	
2933	0	32794	32610	
2934	0	32856	32704	
2935	0	32890	32892	
2936	0	32858	32746	
2937	0	32796	32804	
2938	0	32768	32764	
2939	0	32812	32935	
2940	0	32782	32972	
2941	0	32838	32744	
2942	0	32828	32879	
2943	0	32826	32870	
2944	0	32744	32628	
2945	0	32796	32760	
2946	0	32828	32700	
2947	0	32896	32644	
2948	0	32812	32805	
2949	0	32832	32634	
2950	0	32844	32711	
2951	0	32824	32628	
2952	0	32798	32816	
2953	0	32756	32788	
2954	0	32816	32702	
2955	0	32760	32774	
2956	0	32820	32814	
2957	0	32928	32694	
2958	0	32872	32812	
2959	0	32776	32764	
2960	0	32856	32838	
2961	0	32746	32938	
2962	0	32736	32818	
2963	0	32748	32903	
2964	0	32716	32804	
2965	0	32678	32668	
2966	0	32704	32775	
2967	0	32778	32760	
2968	0	32888	32774	
2969	0	32938	32722	
2970	0	32882	32666	
2971	0	32848	32750	
2972	0	32816	32743	
2973	0	32824	32768	
2974	0	32838	32772	
2975	0	32852	32682	
2976	0	32814	32698	
2977	0	32864	32702	
2978	0	32870	32802	
2979	0	32828	32810	
2980	0	32804	32788	
2981	0	32752	32775	
2982	0	32772	32936	
2983	0	32780	32828	
2984	0	32808	32770	
2985	0	32860	32756	
2986	0	32838	32796	
2987	0	32817	32736	
2988	0	33000	32648	
2989	0	32928	32754	
2990	0	32896	32679	
2991	0	32986	32806	
2992	0	32852	32788	
2993	0	32926	32775	
2994	0	32814	32798	
2995	0	32742	32620	
2996	0	32680	32784	
2997	0	32686	32775	
2998	0	32680	32775	
2999	0	32784	32860	
3000	0	32735	32742	
3001	0	32752	32842	
3002	0	32708	32964	
3003	0	32696	32775	
3004	0	32760	32747	
3005	0	32692	32775	
3006	0	32732	32792	
3007	0	32834	32748	
3008	0	32844	32706	
3009	0	32868	32796	
3010	0	32836	32812	
3011	0	32892	32740	
3012	0	32896	32738	
3013	0	32880	32802	
3014	0	32836	32827	
3015	0	32868	32716	
3016	0	32910	32793	
3017	0	32892	32788	
3018	0	32772	32844	
3019	0	32724	32775	
3020	0	32800	32871	
3021	0	32804	32937	
3022	0	32814	32990	
3023	0	32840	32852	
3024	0	32916	32748	
3025	0	32820	32606	
3026	0	32746	32484	
3027	0	32672	32731	
3028	0	32636	32673	
3029	0	32592	32612	
3030	0	32644	32567	
3031	0	32724	32375	
3032	0	32714	32710	
3033	0	32792	32810	
3034	0	32964	32775	
3035	0	32976	32768	
3036	0	33072	32724	
3037	0	33020	32752	
3038	0	33028	32889	
3039	0	33064	32798	
3040	0	33082	32816	
3041	0	32956	32844	
3042	0	32832	32951	
3043	0	32760	32844	
3044	0	32760	32838	
3045	0	32696	32864	
3046	0	32800	32696	
3047	0	32784	32772	
3048	0	32828	32807	
3049	0	32766	32800	
3050	0	32720	32754	
3051	0	32656	32756	
3052	0	32714	32866	
3053	0	32744	32758	
3054	0	32680	32686	
3055	0	32648	32854	
3056	0	32728	32876	
3057	0	32706	32754	
3058	0	32730	32754	
3059	0	32802	32794	
3060	0	32836	32688	
3061	0	32860	32740	
3062	0	32840	32806	
3063	0	32924	32794	
3064	0	32888	32664	
3065	0	32945	32582	
3066	0	32852	32804	
3067	0	32924	32769	
3068	0	32944	32716	
3069	0	32876	32828	
3070	0	32794	32706	
3071	0	32772	32769	
3072	0	32728	32818	
3073	0	32728	32724	
3074	0	32678	32820	
3075	0	32622	32966	
3076	0	32616	32847	
3077	0	32752	32884	
3078	0	32792	32790	
3079	0	32808	32774	
3080	0	32810	32800	
3081	0	32930	32694	
3082	0	32894	32711	
3083	0	32894	32718	
3084	0	32884	32684	
3085	0	32910	32620	
3086	0	32956	32487	
3087	0	32936	32744	
3088	0	32920	32826	
3089	0	32876	32716	
3090	0	32884	32796	
3091	0	32864	32846	
3092	0	32904	32775	
3093	0	32906	32790	
3094	0	32916	32812	
3095	0	32856	32816	
3096	0	32828	32686	
3097	0	32784	32762	
3098	0	32618	32815	
3099	0	32612	32818	
3100	0	32740	32812	
3101	0	32664	32892	
3102	0	32712	32693	
3103	0	32769	32826	
3104	0	32728	32868	
3105	0	32766	32789	
3106	0	32784	32842	
3107	0	32796	32722	
3108	0	32714	32822	
3109	0	32814	32654	
3110	0	32880	32532	
3111	0	32844	32693	
3112	0	32892	32660	
3113	0	32900	32756	
3114	0	32824	32804	
3115	0	32836	32752	
3116	0	32793	32814	
3117	0	32806	32758	
3118	0	32760	32790	
3119	0	32728	32784	
3120	0	32672	32862	
3121	0	32756	32834	
3122	0	32666	32926	
3123	0	32814	32754	
3124	0	32762	32752	
3125	0	32752	32806	
3126	0	32796	32704	
3127	0	32816	32820	
3128	0	32836	32752	
3129	0	32880	32814	
3130	0	32886	32786	
3131	0	32868	32640	
3132	0	32744	32628	
3133	0	32774	32752	
3134	0	32764	32711	
3135	0	32840	32711	
3136	0	32740	32654	
3137	0	32848	32844	
3138	0	32804	32914	
3139	0	32832	32618	
3140	0	32895	32688	
3141	0	32868	32849	
3142	0	33028	32788	
3143	0	32920	32698	
3144	0	32900	32644	
3145	0	32920	32838	
3146	0	32932	32958	
3147	0	32898	32836	
3148	0	32876	32866	
3149	0	32858	32846	
3150	0	32712	32690	
3151	0	32816	32726	
3152	0	32736	32750	
3153	0	32690	32716	
3154	0	32550	32806	
3155	0	32644	32775	
3156	0	32690	32775	
3157	0	32856	32728	
3158	0	32820	32676	
3159	0	32818	32839	
3160	0	32868	32764	
3161	0	32874	32718	
3162	0	32878	32812	
3163	0	33006	32674	
3164	0	32958	32690	
3165	0	32912	32708	
3166	0	32836	32732	
3167	0	32832	32775	
3168	0	32744	32896	
3169	0	32678	32788	
3170	0	32688	32816	
3171	0	32640	32671	
3172	0	32612	32863	
3173	0	32696	32719	
3174	0	32800	32760	
3175	0	32786	32821	
3176	0	32828	32826	
3177	0	32808	32744	
3178	0	32868	32828	
3179	0	32986	32838	
3180	0	32910	32670	
3181	0	32888	32716	
3182	0	32952	32738	
3183	0	32930	32599	
3184	0	32902	32740	
3185	0	32892	32900	
3186	0	32868	32775	
3187	0	32812	32862	
3188	0	32800	32711	
3189	0	32802	32756	
3190	0	32754	32804	
3191	0	32706	32852	
3192	0	32648	32734	
3193	0	32716	32871	
3194	0	32696	32818	
3195	0	32692	32708	
3196	0	32756	32716	
3197	0	32896	32738	
3198	0	32804	32598	
3199	0	32634	32752	
3200	0	32612	32632	
3201	0	32612	32592	
3202	0	32672	32600	
3203	0	32670	32688	
3204	0	32706	32668	
3205	0	32792	32606	
3206	0	32752	32702	
3207	0	32848	32578	
3208	0	32916	32592	
3209	0	32864	32674	
3210	0	32968	32612	
3211	0	32876	32722	
3212	0	32876	32743	
3213	0	32842	32586	
3214	0	32872	32718	
3215	0	32808	32644	
3216	0	32808	32676	
3217	0	32798	32888	
3218	0	32878	32828	
3219	0	32976	32886	
3220	0	33160	32970	
3221	0	33164	32860	
3222	0	33110	32975	
3223	0	33200	32936	
3224	0	33176	33239	
3225	0	33130	33287	
3226	0	33100	33007	
3227	0	32876	33194	
3228	0	32816	32974	
3229	0	32716	33042	
3230	0	32768	33015	
3231	0	32750	32932	
3232	0	32674	32834	
3233	0	32696	32680	
3234	0	32740	32759	
3235	0	32800	32686	
3236	0	32752	32640	
3237	0	32724	32580	
3238	0	32724	32554	
3239	0	32640	32722	
3240	0	32588	32724	
3241	0	32604	32538	
3242	0	32676	32775	
3243	0	32724	32815	
3244	0	32660	32550	
3245	0	32652	32695	
3246	0	32676	32490	
3247	0	32677	32550	
3248	0	32682	32752	
3249	0	32818	32708	
3250	0	32848	32974	
3251	0	32872	32704	
3252	0	32688	32642	
3253	0	32840	32888	
3254	0	32794	32854	
3255	0	32850	32709	
3256	0	32812	32951	
3257	0	32776	32858	
3258	0	32844	32768	
3259	0	32792	32766	
3260	0	32846	32739	
3261	0	32976	32742	
3262	0	32908	32692	
3263	0	32970	32680	
3264	0	32980	32668	
3265	0	33052	32775	
3266	0	32996	32846	
3267	0	32929	32881	
3268	0	32748	32869	
3269	0	32670	32846	
3270	0	32752	32762	
3271	0	32690	32790	
3272	0	32741	32999	
3273	0	32682	32686	
3274	0	32678	32644	
3275	0	32682	32711	
3276	0	32638	32439	
3277	0	32804	32600	
3278	0	32836	32647	
3279	0	32788	32661	
3280	0	32866	32822	
3281	0	32830	32814	
3282	0	32824	32794	
3283	0	32912	32800	
3284	0	32804	32647	
3285	0	32760	32702	
3286	0	32776	32942	
3287	0	32920	32828	
3288	0	33032	32886	
3289	0	32932	32772	
3290	0	32844	32812	
3291	0	32930	32903	
3292	0	32892	32865	
3293	0	32890	32646	
3294	0	32886	32800	
3295	0	32840	32686	
3296	0	32856	32638	
3297	0	32772	32690	
3298	0	32768	32719	
3299	0	32918	32690	
3300	0	32900	32844	
3301	0	32780	32796	
3302	0	32808	32806	
3303	0	32696	32832	
3304	0	32688	32718	
3305	0	32656	32712	
3306	0	32660	32943	
3307	0	32722	32806	
3308	0	32708	32676	
3309	0	32702	32678	
3310	0	32798	32644	
3311	0	32846	32687	
3312	0	32840	32878	
3313	0	32876	33100	
3314	0	32834	32823	
3315	0	32862	32714	
3316	0	32846	32692	
3317	0	32836	32742	
3318	0	32732	32742	
3319	0	32836	32742	
3320	0	32696	32634	
3321	0	32672	32724	
3322	0	32706	32726	
3323	0	32716	32692	
3324	0	32700	32744	
3325	0	32722	32956	
3326	0	32848	32792	
3327	0	32782	32716	
3328	0	32800	32972	
3329	0	32840	32849	
3330	0	32904	32690	
3331	0	32856	32743	
3332	0	32804	32608	
3333	0	32746	32854	
3334	0	32832	32744	
3335	0	32908	32706	
3336	0	32864	32775	
3337	0	32776	32820	
3338	0	32808	32487	
3339	0	32782	32574	
3340	0	32896	32762	
3341	0	33066	32640	
3342	0	33181	32949	
3343	0	33076	33142	
3344	0	33044	32926	
3345	0	32996	32710	
3346	0	32908	32686	
3347	0	32792	32880	
3348	0	32768	32710	
3349	0	32752	32742	
3350	0	32852	32726	
3351	0	32930	32642	
3352	0	32932	32962	
3353	0	32772	32624	
3354	0	32858	32820	
3355	0	32970	32820	
3356	0	32764	32690	
3357	0	32528	32602	
3358	0	32324	32772	
3359	0	32272	32673	
3360	0	32380	32664	
3361	0	32476	32676	
3362	0	32706	32761	
3363	0	32734	32621	
3364	0	32870	33031	
3365	0	32936	32962	
3366	0	32862	32700	
3367	0	33022	32788	
3368	0	33048	33047	
3369	0	33036	32852	
3370	0	33028	32630	
3371	0	32892	32866	
3372	0	32708	32912	
3373	0	32775	32744	
3374	0	32852	32532	
3375	0	32868	32980	
3376	0	32736	32976	
3377	0	32792	32965	
3378	0	32710	32556	
3379	0	32814	32710	
3380	0	32736	32693	
3381	0	32810	32788	
3382	0	32829	32584	
3383	0	32878	32594	
3384	0	32718	32683	
3385	0	32588	32888	
3386	0	32548	32536	
3387	0	32568	32488	
3388	0	32736	32772	
3389	0	32804	33004	
3390	0	32834	32486	
3391	0	32756	32700	
3392	0	32968	32656	
3393	0	33092	32596	
3394	0	33072	32503	
3395	0	32840	32664	
3396	0	32958	32704	
3397	0	33008	32940	
3398	0	32824	32924	
3399	0	32972	32703	
3400	0	33168	32775	
3401	0	33098	32880	
3402	0	33100	33173	
3403	0	33048	33065	
3404	0	32920	33070	
3405	0	32780	33423	
3406	0	32724	33048	
3407	0	32672	32564	
3408	0	32612	32214	
3409	0	32568	32827	
3410	0	32600	32746	
3411	0	32716	32676	
3412	0	32682	32616	
3413	0	32692	32610	
3414	0	32652	32298	
3415	0	32668	32580	
3416	0	32712	32863	
3417	0	32804	32839	
3418	0	32577	32519	
3419	0	32830	32552	
3420	0	32930	32716	
3421	0	32896	32660	
3422	0	32894	32750	
3423	0	32974	32816	
3424	0	33038	32903	
3425	0	33012	32846	
3426	0	32912	32914	
3427	0	32798	32934	
3428	0	32748	32822	
3429	0	32780	32934	
3430	0	32882	32798	
3431	0	32948	32806	
3432	0	32880	32792	
3433	0	32864	32916	
3434	0	32868	32911	
3435	0	32812	32895	
3436	0	32796	32881	
3437	0	32798	32768	
3438	0	32796	32822	
3439	0	32854	32568	
3440	0	32708	32764	
3441	0	32556	32879	
3442	0	32340	32863	
3443	0	32616	32727	
3444	0	32788	32652	
3445	0	32760	32467	
3446	0	32800	32570	
3447	0	32940	32775	
3448	0	32820	32655	
3449	0	32888	32533	
3450	0	32896	32839	
3451	0	32892	32716	
3452	0	32890	32698	
3453	0	32912	32673	
3454	0	32892	32824	
3455	0	32912	32740	
3456	0	32790	32815	
3457	0	32836	32748	
3458	0	32860	32870	
3459	0	32852	32695	
3460	0	32836	32844	
3461	0	32900	32878	
3462	0	32936	33030	
3463	0	32884	32948	
3464	0	32852	32916	
3465	0	32706	32740	
3466	0	32684	32736	
3467	0	32548	32834	
3468	0	32492	32596	
3469	0	32550	32586	
3470	0	32644	32558	
3471	0	32720	32640	
3472	0	32786	32682	
3473	0	32884	32894	
3474	0	32962	32924	
3475	0	32924	32903	
3476	0	33016	32866	
3477	0	33164	32726	
3478	0	33012	32596	
3479	0	32984	32714	
3480	0	33064	32748	
3481	0	32900	32759	
3482	0	32644	32852	
3483	0	32616	32958	
3484	0	32850	32555	
3485	0	32646	32720	
3486	0	32666	32670	
3487	0	32638	32754	
3488	0	32624	32724	
3489	0	32752	32716	
3490	0	32732	32550	
3491	0	32684	32540	
3492	0	32673	32718	
3493	0	32876	32890	
3494	0	33018	32799	
3495	0	33096	32888	
3496	0	33152	32902	
3497	0	33044	33370	
3498	0	32916	32722	
3499	0	32826	32512	
3500	0	32804	32838	
3501	0	32800	32974	
3502	0	32704	32950	
3503	0	32688	33155	
3504	0	32790	32676	
3505	0	32674	32672	
3506	0	32696	32956	
3507	0	32520	32391	
3508	0	32548	32748	
3509	0	32640	32468	
3510	0	32600	32426	
3511	0	32668	32262	
3512	0	32594	32359	
3513	0	32552	32544	
3514	0	32650	32502	
3515	0	32916	32600	
3516	0	32960	32864	
3517	0	32992	32818	
3518	0	33006	32863	
3519	0	32968	32940	
3520	0	33104	32676	
3521	0	33060	33000	
3522	0	32970	32980	
3523	0	32998	33159	
3524	0	33032	32900	
3525	0	32916	33208	
3526	0	32848	32887	
3527	0	32744	32585	
3528	0	32804	32895	
3529	0	32778	32938	
3530	0	32814	32676	
3531	0	32920	32788	
3532	0	32879	32730	
3533	0	32928	32660	
3534	0	32980	32600	
3535	0	32962	32471	
3536	0	32808	32542	
3537	0	32764	32816	
3538	0	32586	32695	
3539	0	32304	32957	
3540	0	32368	32946	
3541	0	32909	33031	
3542	0	32962	32720	
3543	0	32898	32792	
3544	0	32916	32770	
3545	0	32780	32694	
3546	0	32702	32614	
3547	0	32776	32739	
3548	0	32782	32502	
3549	0	32812	32578	
3550	0	32852	32700	
3551	0	33018	32770	
3552	0	33022	32742	
3553	0	32884	32984	
3554	0	32894	33082	
3555	0	32748	32940	
3556	0	32764	33123	
3557	0	32680	32692	
3558	0	32548	32412	
3559	0	32480	32732	
3560	0	32510	33114	
3561	0	32660	32691	
3562	0	32872	32500	
3563	0	32948	32774	
3564	0	32810	33182	
3565	0	32618	32900	
3566	0	32576	33094	
3567	0	32642	33146	
3568	0	32538	32368	
3569	0	32578	32164	
3570	0	32798	32572	
3571	0	32928	32492	
3572	0	33154	32846	
3573	0	33188	33058	
3574	0	33172	32412	
3575	0	33280	32428	
3576	0	33368	32756	
3577	0	33186	32664	
3578	0	33070	32671	
3579	0	32996	33104	
3580	0	33148	32862	
3581	0	33184	32628	
3582	0	32997	33030	
3583	0	32686	33127	
3584	0	32576	33084	
3585	0	32400	32890	
3586	0	32308	32720	
3587	0	32302	32856	
3588	0	32304	32756	
3589	0	32500	32519	
3590	0	32492	32516	
3591	0	32608	32368	
3592	0	32645	32754	
3593	0	32692	32828	
3594	0	32866	32998	
3595	0	32948	32858	
3596	0	33124	32870	
3597	0	33020	32820	
3598	0	32930	33108	
3599	0	32900	33232	
3600	0	32940	32711	
3601	0	32764	32846	
3602	0	32772	33026	
3603	0	32754	33028	
3604	0	32782	32748	
3605	0	32856	32415	
3606	0	32818	32135	
3607	0	32734	32429	
3608	0	32568	32546	
3609	0	32668	32724	
3610	0	32732	32183	
3611	0	32940	32442	
3612	0	33034	32994	
3613	0	33098	32994	
3614	0	32924	33140	
3615	0	32886	32839	
3616	0	32924	32624	
3617	0	32784	33022	
3618	0	32704	33287	
3619	0	32716	32450	
3620	0	32786	32342	
3621	0	32808	32668	
3622	0	32836	32764	
3623	0	32916	32935	
3624	0	32880	32913	
3625	0	32732	32692	
3626	0	32780	32775	
3627	0	32862	32962	
3628	0	33068	32722	
3629	0	32826	32622	
3630	0	32752	32961	
3631	0	32808	32871	
3632	0	32928	32918	
3633	0	32832	32807	
3634	0	32850	32740	
3635	0	32671	32966	
3636	0	32516	32798	
3637	0	32780	32366	
3638	0	32860	32592	
3639	0	32696	32574	
3640	0	32638	32934	
3641	0	32628	32758	
3642	0	32676	32860	
3643	0	32854	33328	
3644	0	33000	32962	
3645	0	32822	32815	
3646	0	33028	32826	
3647	0	33252	32463	
3648	0	33208	32130	
3649	0	33044	32458	
3650	0	32932	32926	
3651	0	32854	32948	
3652	0	32684	32844	
3653	0	32566	32766	
3654	0	32410	32828	
3655	0	32336	32988	
3656	0	32366	32935	
3657	0	32300	32935	
3658	0	32536	32576	
3659	0	32684	32670	
3660	0	33102	33002	
3661	0	33352	32846	
3662	0	33336	32704	
3663	0	33100	32454	
3664	0	32756	32826	
3665	0	32728	33146	
3666	0	32792	32732	
3667	0	32808	32898	
3668	0	33092	33028	
3669	0	32804	32407	
3670	0	32608	32367	
3671	0	32814	33143	
3672	0	32852	32775	
3673	0	32962	32756	
3674	0	33030	33176	
3675	0	32753	32654	
3676	0	32656	32664	
3677	0	32672	32472	
3678	0	32676	32396	
3679	0	32852	32256	
3680	0	32606	32190	
3681	0	33104	32436	
3682	0	33348	32704	
3683	0	33182	32964	
3684	0	33272	33030	
3685	0	33236	32868	
3686	0	33126	33112	
3687	0	32544	32994	
3688	0	32092	32692	
3689	0	31914	33072	
3690	0	31842	32823	
3691	0	32110	32823	
3692	0	32276	32742	
3693	0	32536	32896	
3694	0	32750	32903	
3695	0	32918	33057	
3696	0	32858	32148	
3697	0	32884	32618	
3698	0	32872	33030	
3699	0	32848	33452	
3700	0	33044	33080	
3701	0	32948	32817	
3702	0	32918	32474	
3703	0	32994	32564	
3704	0	33058	32711	
3705	0	32862	32616	
3706	0	32784	32326	
3707	0	32836	32540	
3708	0	33166	32822	
3709	0	33384	32368	
3710	0	33248	32580	
3711	0	33200	32794	
3712	0	33260	32618	
3713	0	33064	32454	
3714	0	32772	32702	
3715	0	32980	32878	
3716	0	33006	32967	
3717	0	32684	32788	
3718	0	32604	33007	
3719	0	32516	33099	
3720	0	32436	32964	
3721	0	32396	32782	
3722	0	32216	33090	
3723	0	32224	33255	
3724	0	32400	32876	
3725	0	32536	32688	
3726	0	32700	32579	
3727	0	32780	32545	
3728	0	32976	32660	
3729	0	33184	32760	
3730	0	33340	32850	
3731	0	33518	32862	
3732	0	33394	32742	
3733	0	33287	32926	
3734	0	33028	32812	
3735	0	33172	33009	
3736	0	33032	32876	
3737	0	32566	32768	
3738	0	32312	32791	
3739	0	32044	32577	
3740	0	32024	32088	
3741	0	32096	32568	
3742	0	32106	32638	
3743	0	32308	32812	
3744	0	32576	32838	
3745	0	32884	33028	
3746	0	33226	32902	
3747	0	33560	32758	
3748	0	33456	32508	
3749	0	33352	32752	
3750	0	33320	32698	
3751	0	33450	32916	
3752	0	33556	32886	
3753	0	33550	32935	
3754	0	33238	32792	
3755	0	32888	32622	
3756	0	32520	32768	
3757	0	32396	32903	
3758	0	32380	32687	
3759	0	31992	33068	
3760	0	31887	32928	
3761	0	32196	32750	
3762	0	32454	32932	
3763	0	32643	32892	
3764	0	32752	32852	
3765	0	32796	32396	
3766	0	33080	32412	
3767	0	33088	32282	
3768	0	32832	32702	
3769	0	32712	32800	
3770	0	32730	32934	
3771	0	32718	32874	
3772	0	32796	33273	
3773	0	32879	32884	
3774	0	33288	33014	
3775	0	33412	33111	
3776	0	33322	32727	
3777	0	33160	32928	
3778	0	32860	32623	
3779	0	32752	32146	
3780	0	32570	32168	
3781	0	32233	32372	
3782	0	32026	32548	
3783	0	32324	32472	
3784	0	32138	32997	
3785	0	32448	32791	
3786	0	32834	32918	
3787	0	33248	32757	
3788	0	33288	32730	
3789	0	33372	32855	
3790	0	33644	32911	
3791	0	33430	32960	
3792	0	33296	32882	
3793	0	32892	32884	
3794	0	32692	32918	
3795	0	32844	32982	
3796	0	32618	32903	
3797	0	32322	32932	
3798	0	32340	32753	
3799	0	32352	32806	
3800	0	32436	32940	
3801	0	32600	32880	
3802	0	32838	32878	
3803	0	32919	32986	
3804	0	33050	32828	
3805	0	33198	32695	
3806	0	33216	32519	
3807	0	33254	32519	
3808	0	32878	32836	
3809	0	32728	32734	
3810	0	32852	32769	
3811	0	32898	32988	
3812	0	32806	32940	
3813	0	33144	32366	
3814	0	33068	32391	
3815	0	32672	32604	
3816	0	32208	32526	
3817	0	31868	32684	
3818	0	31785	32504	
3819	0	32172	32958	
3820	0	32616	32940	
3821	0	32792	33234	
3822	0	33008	32534	
3823	0	33210	32564	
3824	0	33412	32414	
3825	0	33492	32400	
3826	0	33144	32888	
3827	0	33024	32982	
3828	0	33256	33174	
3829	0	33192	32884	
3830	0	33132	33031	
3831	0	33068	33103	
3832	0	32780	33172	
3833	0	32448	32838	
3834	0	32554	32716	
3835	0	32724	32518	
3836	0	32596	32708	
3837	0	32584	32724	
3838	0	32460	32807	
3839	0	32344	32902	
3840	0	32484	32647	
3841	0	32636	32487	
3842	0	32716	33062	
3843	0	32716	32695	
3844	0	32775	32544	
3845	0	32796	33028	
3846	0	32930	32930	
3847	0	33120	33158	
3848	0	33038	33076	
3849	0	32932	32527	
3850	0	32696	32472	
3851	0	32722	32854	
3852	0	32962	32970	
3853	0	32762	33133	
3854	0	32918	32560	
3855	0	32922	32422	
3856	0	32810	32614	
3857	0	32970	32740	
3858	0	32792	32750	
3859	0	32940	32624	
3860	0	32724	33086	
3861	0	32284	33100	
3862	0	32232	32994	
3863	0	32588	33062	
3864	0	32756	33476	
3865	0	32992	32556	
3866	0	33136	32865	
3867	0	33060	32903	
3868	0	32968	32842	
3869	0	32984	32658	
3870	0	32854	32628	
3871	0	32784	32572	
3872	0	32794	32198	
3873	0	32760	32220	
3874	0	32816	32563	
3875	0	32860	32640	
3876	0	32692	32346	
3877	0	32754	32666	
3878	0	33316	32990	
3879	0	33344	32998	
3880	0	33322	32936	
3881	0	33140	33140	
3882	0	33040	32996	
3883	0	33008	33137	
3884	0	32664	33378	
3885	0	32124	32898	
3886	0	31920	32822	
3887	0	31898	32596	
3888	0	32224	32788	
3889	0	32428	32511	
3890	0	32446	32862	
3891	0	32586	33398	
3892	0	32804	32500	
3893	0	33004	32158	
3894	0	33226	31929	
3895	0	33184	32532	
3896	0	32836	32678	
3897	0	33192	32555	
3898	0	33480	32616	
3899	0	33320	33270	
3900	0	32720	33225	
3901	0	32372	32286	
3902	0	32864	32498	
3903	0	33008	32836	
3904	0	32764	33316	
3905	0	32655	33572	
3906	0	32656	33302	
3907	0	32952	32444	
3908	0	33304	32292	
3909	0	33216	32748	
3910	0	32956	33250	
3911	0	32810	33090	
3912	0	32758	32630	
3913	0	32692	31924	
3914	0	32312	32290	
3915	0	32618	32344	
3916	0	33008	32402	
3917	0	33036	32650	
3918	0	32920	32791	
3919	0	32716	32564	
3920	0	32794	32826	
3921	0	32708	33070	
3922	0	32984	33280	
3923	0	32680	33064	
3924	0	32106	32732	
3925	0	31880	32734	
3926	0	32392	33100	
3927	0	32544	32884	
3928	0	32664	32560	
3929	0	32642	32452	
3930	0	32638	32324	
3931	0	32484	32574	
3932	0	32500	32886	
3933	0	32512	32420	
3934	0	33056	32346	
3935	0	33428	32940	
3936	0	33658	33216	
3937	0	33988	33542	
3938	0	33794	32999	
3939	0	33471	32828	
3940	0	32976	33799	
3941	0	32478	33182	
3942	0	32341	32640	
3943	0	32492	32602	
3944	0	32644	31796	
3945	0	32534	32310	
3946	0	32664	32160	
3947	0	32744	32606	
3948	0	32400	32384	
3949	0	32644	33182	
3950	0	32520	32736	
3951	0	32384	32154	
3952	0	32424	32519	
3953	0	32580	32612	
3954	0	32756	33180	
3955	0	32660	32534	
3956	0	32932	32396	
3957	0	33114	32574	
3958	0	33280	32852	
3959	0	33260	32900	
3960	0	32800	32952	
3961	0	32364	33128	
3962	0	32056	33200	
3963	0	32290	31908	
3964	0	33336	31422	
3965	0	33424	31864	
3966	0	32794	32868	
3967	0	32734	32595	
3968	0	32444	32708	
3969	0	32612	32908	
3970	0	33416	32964	
3971	0	33600	33194	
3972	0	33688	33170	
3973	0	33566	32872	
3974	0	33858	32200	
3975	0	34052	32752	
3976	0	33844	33880	
3977	0	33144	34983	
3978	0	32572	33348	
3979	0	32552	33406	
3980	0	32624	33415	
3981	0	32725	33228	
3982	0	32320	32360	
3983	0	32168	32263	
3984	0	32432	33028	
3985	0	32336	33244	
3986	0	32356	33180	
3987	0	32098	32384	
3988	0	32356	32089	
3989	0	32520	32566	
3990	0	32636	32404	
3991	0	32546	31974	
3992	0	32844	32598	
3993	0	32516	33470	
3994	0	32568	32358	
3995	0	32506	31751	
3996	0	32942	32746	
3997	0	33348	32228	
3998	0	33468	32218	
3999	0	33372	32771	
4000	0	33076	32666	
4001	0	33220	32912	
4002	0	32466	33328	
4003	0	32240	32754	
4004	0	32509	33032	
4005	0	32700	33196	
4006	0	32664	32354	
4007	0	32444	32088	
4008	0	32414	33055	
4009	0	32654	32594	
4010	0	32984	33172	
4011	0	32396	33184	
4012	0	32734	32772	
4013	0	33096	32222	
4014	0	32984	31902	
4015	0	33368	32935	
4016	0	32828	32722	
4017	0	32428	33564	
4018	0	32176	33287	
4019	0	32696	32968	
4020	0	32840	33388	
4021	0	32770	33206	
4022	0	32724	32262	
4023	0	32666	30460	
4024	0	32920	31576	
4025	0	32696	33664	
4026	0	32704	33366	
4027	0	33164	33764	
4028	0	33136	32596	
4029	0	33480	33986	
4030	0	33796	32986	
4031	0	33937	33182	
4032	0	34322	32580	
4033	0	34620	32690	
4034	0	33802	30914	
4035	0	33120	31550	
4036	0	32460	31822	
4037	0	32425	32602	
4038	0	32080	33384	
4039	0	31664	33248	
4040	0	31384	33026	
4041	0	31188	33354	
4042	0	31132	32948	
4043	0	31680	32695	
4044	0	32440	32614	
4045	0	33092	32869	
4046	0	33582	32610	
4047	0	33908	32890	
4048	0	33344	32596	
4049	0	33240	32926	
4050	0	33086	33064	
4051	0	32674	33476	
4052	0	32404	33200	
4053	0	31080	32900	
4054	0	30580	33498	
4055	0	30932	32902	
4056	0	31864	31760	
4057	0	32442	30840	
4058	0	32696	30895	
4059	0	33920	31228	
4060	0	34152	32834	
4061	0	34386	34240	
4062	0	34321	34108	
4063	0	34028	33959	
4064	0	33372	33120	
4065	0	32720	32550	
4066	0	32104	32548	
4067	0	31408	31506	
4068	0	31822	32532	
4069	0	33050	32900	
4070	0	33494	33490	
4071	0	32854	32868	
4072	0	33180	33118	
4073	0	33116	33799	
4074	0	32920	33532	
4075	0	32480	33094	
4076	0	31968	32608	
4077	0	32832	31516	
4078	0	33286	31916	
4079	0	33248	32792	
4080	0	33240	33030	
4081	0	33564	34258	
4082	0	33946	33102	
4083	0	34204	31158	
4084	0	33800	30929	
4085	0	34050	31408	
4086	0	34424	32519	
4087	0	33802	32604	
4088	0	32534	32988	
4089	0	31628	33528	
4090	0	31032	33258	
4091	0	30878	33712	
4092	0	30988	33714	
4093	0	31156	33174	
4094	0	31158	33240	
4095	0	31764	32863	
4096	0	32244	33464	
4097	0	32396	32742	
4098	0	32480	32619	
4099	0	32872	32554	
4100	0	33542	32566	
4101	0	33574	31862	
4102	0	34024	32852	
4103	0	34360	33350	
4104	0	33736	32544	
4105	0	33568	31695	
4106	0	32956	32474	
4107	0	32556	32156	
4108	0	31976	32596	
4109	0	32328	32948	
4110	0	32586	32800	
4111	0	32918	32223	
4112	0	33000	32935	
4113	0	33144	33391	
4114	0	33250	33448	
4115	0	33164	33948	
4116	0	33200	33004	
4117	0	32880	31772	
4118	0	32568	32216	
4119	0	32308	33148	
4120	0	32744	33012	
4121	0	33160	33812	
4122	0	33162	33506	
4123	0	32994	33374	
4124	0	32980	32084	
4125	0	32476	31404	
4126	0	31744	31906	
4127	0	31900	32031	
4128	0	32122	32342	
4129	0	32676	32083	
4130	0	32816	33002	
4131	0	32778	33456	
4132	0	32620	33620	
4133	0	32932	33116	
4134	0	32750	33058	
4135	0	32356	32633	
4136	0	33248	33287	
4137	0	33768	32504	
4138	0	33908	32847	
4139	0	33172	33986	
4140	0	32284	33766	
4141	0	31932	32188	
4142	0	31584	31326	
4143	0	31792	32116	
4144	0	32866	32809	
4145	0	33330	32750	
4146	0	33216	32156	
4147	0	33596	31808	
4148	0	33860	32734	
4149	0	33292	32974	
4150	0	33032	33340	
4151	0	33474	33372	
4152	0	32912	33152	
4153	0	33156	32292	
4154	0	33548	32839	
4155	0	32868	32518	
4156	0	32252	32320	
4157	0	32112	32798	
4158	0	32088	33282	
4159	0	31996	33274	
4160	0	31552	32524	
4161	0	31584	33799	
4162	0	32572	33407	
4163	0	32528	32211	
4164	0	33082	31610	
4165	0	34388	31642	
4166	0	34828	32748	
4167	0	34218	32934	
4168	0	33364	32368	
4169	0	32380	32074	
4170	0	31548	32494	
4171	0	31672	33594	
4172	0	31614	32984	
4173	0	31668	33526	
4174	0	31558	33216	
4175	0	32516	33228	
4176	0	33028	32796	
4177	0	33712	32466	
4178	0	33930	32830	
4179	0	34140	33391	
4180	0	33746	33454	
4181	0	33380	32430	
4182	0	32904	32220	
4183	0	33004	31730	
4184	0	32584	31484	
4185	0	32068	31870	
4186	0	32652	32680	
4187	0	32715	33998	
4188	0	32792	34846	
4189	0	32714	32938	
4190	0	32304	32814	
4191	0	32144	32976	
4192	0	32030	32896	
4193	0	32912	32519	
4194	0	33356	32536	
4195	0	32650	32082	
4196	0	32464	32462	
4197	0	32796	33252	
4198	0	33060	33223	
4199	0	32892	33040	
4200	0	33124	32316	
4201	0	32994	31848	
4202	0	32778	32450	
4203	0	32902	32822	
4204	0	32804	32906	
4205	0	33528	33204	
4206	0	33252	32944	
4207	0	33636	32588	
4208	0	33106	32687	
4209	0	32442	32930	
4210	0	32404	33050	
4211	0	33084	32248	
4212	0	33678	32615	
4213	0	33546	33533	
4214	0	32670	34682	
4215	0	32868	33602	
4216	0	32310	31504	
4217	0	32230	31824	
4218	0	32176	32246	
4219	0	32244	32675	
4220	0	31906	32638	
4221	0	32380	32356	
4222	0	33636	32182	
4223	0	33546	32612	
4224	0	33032	33450	
4225	0	32848	33192	
4226	0	32620	32848	
4227	0	32088	33360	
4228	0	31166	33396	
4229	0	30334	32630	
4230	0	30961	33604	
4231	0	32268	32250	
4232	0	33508	31420	
4233	0	34278	32046	
4234	0	34778	31808	
4235	0	35042	31768	
4236	0	35008	32512	
4237	0	34544	33220	
4238	0	33422	32800	
4239	0	32348	33698	
4240	0	31864	33608	
4241	0	31692	33254	
4242	0	32220	32340	
4243	0	32384	32640	
4244	0	32536	33159	
4245	0	32760	33505	
4246	0	33056	32358	
4247	0	33672	31610	
4248	0	33736	32216	
4249	0	33656	33242	
4250	0	33384	34058	
4251	0	32974	33756	
4252	0	32534	32968	
4253	0	32430	33628	
4254	0	32554	32367	
4255	0	32604	31596	
4256	0	32240	31980	
4257	0	32112	31230	
4258	0	32436	32300	
4259	0	32346	32847	
4260	0	32000	33140	
4261	0	31810	33240	
4262	0	31544	32316	
4263	0	31636	33172	
4264	0	31224	33326	
4265	0	31040	33284	
4266	0	32210	32308	
4267	0	32798	32106	
4268	0	33004	32504	
4269	0	33532	32638	
4270	0	34224	32972	
4271	0	34504	33220	
4272	0	34680	33166	
4273	0	34028	33367	
4274	0	33364	32655	
4275	0	33148	32852	
4276	0	32660	32158	
4277	0	32320	32476	
4278	0	31620	32812	
4279	0	31180	33792	
4280	0	31348	33998	
4281	0	32400	32456	
4282	0	33776	31972	
4283	0	33748	31159	
4284	0	33944	32576	
4285	0	34264	33262	
4286	0	34216	32714	
4287	0	34160	32375	
4288	0	34042	32402	
4289	0	34512	32608	
4290	0	34308	33162	
4291	0	33708	32679	
4292	0	33236	32744	
4293	0	32768	33031	
4294	0	32348	33762	
4295	0	32452	33400	
4296	0	32384	32482	
4297	0	31744	32660	
4298	0	31212	32129	
4299	0	31188	31576	
4300	0	30908	33213	
4301	0	31028	33462	
4302	0	30998	32622	
4303	0	31600	32328	
4304	0	32172	32775	
4305	0	32926	32998	
4306	0	33898	32330	
4307	0	34112	32646	
4308	0	33362	33040	
4309	0	32770	33582	
4310	0	32312	32638	
4311	0	31872	31974	
4312	0	31932	32903	
4313	0	31896	33239	
4314	0	32460	32468	
4315	0	33088	31800	
4316	0	33020	32412	
4317	0	33668	33030	
4318	0	33948	32706	
4319	0	33504	32634	
4320	0	32856	32968	
4321	0	33264	33940	
4322	0	33486	32704	
4323	0	33192	32902	
4324	0	33220	32865	
4325	0	33162	32624	
4326	0	33502	32304	
4327	0	33440	32578	
4328	0	33238	32716	
4329	0	33180	33336	
4330	0	33462	32836	
4331	0	33514	34004	
4332	0	33310	31870	
4333	0	32938	33334	
4334	0	32620	32500	
4335	0	32236	32334	
4336	0	32376	33138	
4337	0	32744	32980	
4338	0	32736	32128	
4339	0	32084	32444	
4340	0	31748	32918	
4341	0	31416	32046	
4342	0	30914	32110	
4343	0	30232	33496	
4344	0	31338	32920	
4345	0	32208	32800	
4346	0	33108	31646	
4347	0	33728	32408	
4348	0	34396	32352	
4349	0	34464	32775	
4350	0	34484	33188	
4351	0	34664	33348	
4352	0	33968	33182	
4353	0	33018	32930	
4354	0	32672	33479	
4355	0	32460	32860	
4356	0	32348	32948	
4357	0	32104	33592	
4358	0	31692	33056	
4359	0	31468	33578	
4360	0	31364	32478	
4361	0	31832	31948	
4362	0	32208	31874	
4363	0	32576	32371	
4364	0	33088	32252	
4365	0	33372	31412	
4366	0	33726	32758	
4367	0	34048	33263	
4368	0	34016	33060	
4369	0	34348	33063	
4370	0	34056	32570	
4371	0	33154	32896	
4372	0	32972	32755	
4373	0	32980	32647	
4374	0	32590	33038	
4375	0	31976	32794	
4376	0	32010	32980	
4377	0	32314	33489	
4378	0	32802	32504	
4379	0	33034	32391	
4380	0	32884	32478	
4381	0	32956	32824	
4382	0	33016	32518	
4383	0	32966	31692	
4384	0	32968	33642	
4385	0	32970	33518	
4386	0	33040	33500	
4387	0	32784	33048	
4388	0	31980	32455	
4389	0	31876	32711	
4390	0	31168	32716	
4391	0	31214	32320	
4392	0	31906	32280	
4393	0	32412	32428	
4394	0	32652	32316	
4395	0	33250	32746	
4396	0	33932	32736	
4397	0	34204	32118	
4398	0	33996	32828	
4399	0	33560	33191	
4400	0	33508	34116	
4401	0	33076	33526	
4402	0	32802	33425	
4403	0	31988	32891	
4404	0	31736	32513	
4405	0	32168	32599	
4406	0	32794	33110	
4407	0	32768	33158	
4408	0	32256	32478	
4409	0	32068	30680	
4410	0	32350	32130	
4411	0	32192	33182	
4412	0	32584	32990	
4413	0	33226	32903	
4414	0	33924	32206	
4415	0	34180	32330	
4416	0	33964	32350	
4417	0	33512	32472	
4418	0	32924	32970	
4419	0	32990	33028	
4420	0	32476	33460	
4421	0	32560	32576	
4422	0	32570	32428	
4423	0	32644	32500	
4424	0	33060	32847	
4425	0	32926	33808	
4426	0	32872	33927	
4427	0	33208	34036	
4428	0	33120	32972	
4429	0	33182	32124	
4430	0	32644	31377	
4431	0	32320	32220	
4432	0	31796	32420	
4433	0	32000	32722	
4434	0	32136	33526	
4435	0	32624	33476	
4436	0	33232	33356	
4437	0	32832	32424	
4438	0	31996	31919	
4439	0	31678	32642	
4440	0	31970	32722	
4441	0	32468	32798	
4442	0	32864	32198	
4443	0	32992	32158	
4444	0	32704	33030	
4445	0	33199	33256	
4446	0	33472	32742	
4447	0	33700	32834	
4448	0	33588	32638	
4449	0	33714	33504	
4450	0	33572	32196	
4451	0	33500	31924	
4452	0	33522	32444	
4453	0	33372	33508	
4454	0	33258	33724	
4455	0	32872	32988	
4456	0	32964	32701	
4457	0	32948	32426	
4458	0	32559	33262	
4459	0	32256	32680	
4460	0	32206	31846	
4461	0	32396	32358	
4462	0	32602	32839	
4463	0	32464	32312	
4464	0	32332	32361	
4465	0	32504	32500	
4466	0	32068	32688	
4467	0	31608	32712	
4468	0	31994	32742	
4469	0	32344	32956	
4470	0	32668	33137	
4471	0	33090	33076	
4472	0	33316	32788	
4473	0	33476	32902	
4474	0	33736	33140	
4475	0	33978	33090	
4476	0	33996	32642	
4477	0	33933	32617	
4478	0	33636	32452	
4479	0	32910	33148	
4480	0	32244	34310	
4481	0	32452	32988	
4482	0	32032	31983	
4483	0	30900	32100	
4484	0	30722	32154	
4485	0	31228	32394	
4486	0	31796	33031	
4487	0	32408	32496	
4488	0	33028	32664	
4489	0	33502	32518	
4490	0	33677	32550	
4491	0	33662	32704	
4492	0	33544	33112	
4493	0	33808	33092	
4494	0	33692	33239	
4495	0	33508	32715	
4496	0	33380	33110	
4497	0	33256	33030	
4498	0	33140	32854	
4499	0	33136	32631	
4500	0	32944	32702	
4501	0	32436	32972	
4502	0	32546	32762	
4503	0	32708	32216	
4504	0	32570	32682	
4505	0	32308	32753	
4506	0	32094	32753	
4507	0	32792	32670	
4508	0	32712	32346	
4509	0	32416	32707	
4510	0	32370	33444	
4511	0	32225	33004	
4512	0	32316	32816	
4513	0	32248	32424	
4514	0	32664	32096	
4515	0	32956	32550	
4516	0	32772	33429	
4517	0	32660	33992	
4518	0	32660	32775	
4519	0	33040	32962	
4520	0	33602	32712	
4521	0	33600	32753	
4522	0	33436	32810	
4523	0	33298	32510	
4524	0	33178	31930	
4525	0	33040	32094	
4526	0	33132	31838	
4527	0	33336	32486	
4528	0	33172	32740	
4529	0	33200	32825	
4530	0	33058	32860	
4531	0	32916	32999	
4532	0	32624	32964	
4533	0	32368	33306	
4534	0	32368	33375	
4535	0	32018	32604	
4536	0	31758	32208	
4537	0	31934	32721	
4538	0	32162	32967	
4539	0	32436	33246	
4540	0	32710	33398	
4541	0	32824	33204	
4542	0	33080	32924	
4543	0	32984	32759	
4544	0	32648	32872	
4545	0	33040	32598	
4546	0	32988	32380	
4547	0	32664	31704	
4548	0	32572	32524	
4549	0	32424	32886	
4550	0	32164	32658	
4551	0	32462	32550	
4552	0	32736	33059	
4553	0	32944	32668	
4554	0	33228	33136	
4555	0	33260	33068	
4556	0	33524	32949	
4557	0	32800	33692	
4558	0	33060	33172	
4559	0	33392	31750	
4560	0	33660	31463	
4561	0	33556	32284	
4562	0	33302	32848	
4563	0	33000	33095	
4564	0	32968	32646	
4565	0	33092	32950	
4566	0	33172	32494	
4567	0	32664	32468	
4568	0	32168	32519	
4569	0	32264	32799	
4570	0	32638	33025	
4571	0	32724	33676	
4572	0	32484	33172	
4573	0	32634	33006	
4574	0	32680	32910	
4575	0	33020	32745	
4576	0	32924	33170	
4577	0	33164	32804	
4578	0	33240	32641	
4579	0	32964	32732	
4580	0	32852	32656	
4581	0	32584	32060	
4582	0	32792	31879	
4583	0	32932	32384	
4584	0	32624	32354	
4585	0	32134	32968	
4586	0	32082	33328	
4587	0	32248	33496	
4588	0	31956	33438	
4589	0	32108	32654	
4590	0	32352	32286	
4591	0	32610	32647	
4592	0	33176	32870	
4593	0	33408	32810	
4594	0	33398	33014	
4595	0	33352	32634	
4596	0	33252	33087	
4597	0	33158	33128	
4598	0	32876	33010	
4599	0	32720	32694	
4600	0	32640	33002	
4601	0	32648	32572	
4602	0	32596	32148	
4603	0	32672	32468	
4604	0	32628	32369	
4605	0	32622	32647	
4606	0	32852	33188	
4607	0	32724	32714	
4608	0	32828	32471	
4609	0	32934	32597	
4610	0	32866	33264	
4611	0	32666	32775	
4612	0	32644	33031	
4613	0	32500	33442	
4614	0	32332	33030	
4615	0	32620	32446	
4616	0	32804	32162	
4617	0	33148	32074	
4618	0	33252	32487	
4619	0	32936	33388	
4620	0	33130	33400	
4621	0	33516	32226	
4622	0	33220	32070	
4623	0	33076	32358	
4624	0	33164	33058	
4625	0	32970	33700	
4626	0	32932	33690	
4627	0	32874	32802	
4628	0	32668	32534	
4629	0	32368	32136	
4630	0	32146	32550	
4631	0	32228	32647	
4632	0	32420	32618	
4633	0	32932	32876	
4634	0	33098	32903	
4635	0	33050	32699	
4636	0	33404	32772	
4637	0	33144	33496	
4638	0	32693	33043	
4639	0	33124	32528	
4640	0	33260	32796	
4641	0	33066	32302	
4642	0	32942	32710	
4643	0	32868	32853	
4644	0	32654	33777	
4645	0	32336	33620	
4646	0	32316	32108	
4647	0	32356	32670	
4648	0	32368	31918	
4649	0	32868	32362	
4650	0	32808	32664	
4651	0	32492	32582	
4652	0	32712	32463	
4653	0	33042	32753	
4654	0	32724	32674	
4655	0	32140	32903	
4656	0	32536	33180	
4657	0	33096	32912	
4658	0	33016	32596	
4659	0	32792	32892	
4660	0	32592	33012	
4661	0	32688	32874	
4662	0	32656	32798	
4663	0	32956	32610	
4664	0	33016	32562	
4665	0	33040	32967	
4666	0	32960	32748	
4667	0	32776	32622	
4668	0	32804	32900	
4669	0	33008	32720	
4670	0	33060	32746	
4671	0	32960	32716	
4672	0	32900	32302	
4673	0	32656	32702	
4674	0	32680	32636	
4675	0	32776	32662	
4676	0	32652	32858	
4677	0	32736	32732	
4678	0	32668	32696	
4679	0	32440	32906	
4680	0	32592	32974	
4681	0	32652	33246	
4682	0	32728	32706	
4683	0	32548	32186	
4684	0	32554	32354	
4685	0	32810	31964	
4686	0	32920	32543	
4687	0	32866	32441	
4688	0	33122	32970	
4689	0	33256	33070	
4690	0	33296	32988	
4691	0	33196	32614	
4692	0	32874	32540	
4693	0	32760	32598	
4694	0	32778	32583	
4695	0	32840	32500	
4696	0	32808	32974	
4697	0	32834	32818	
4698	0	32576	32902	
4699	0	32414	33116	
4700	0	32676	31964	
4701	0	32828	32438	
4702	0	32784	33159	
4703	0	32986	33207	
4704	0	33140	32808	
4705	0	33100	32788	
4706	0	32908	34148	
4707	0	32780	33174	
4708	0	32508	33160	
4709	0	32420	32775	
4710	0	32612	33474	
4711	0	32736	33728	
4712	0	32722	33671	
4713	0	32958	33576	
4714	0	32882	33162	
4715	0	32896	32842	
4716	0	32976	32124	
4717	0	33232	32402	
4718	0	33340	31992	
4719	0	33346	32028	
4720	0	33484	32246	
4721	0	33280	32358	
4722	0	33122	32374	
4723	0	33316	32712	
4724	0	33308	32370	
4725	0	32996	32575	
4726	0	33020	32630	
4727	0	32616	32602	
4728	0	32104	33174	
4729	0	32272	33190	
4730	0	32260	32384	
4731	0	32224	32542	
4732	0	32368	32840	
4733	0	32524	32718	
4734	0	32504	32695	
4735	0	32488	32557	
4736	0	32618	32263	
4737	0	32640	32814	
4738	0	32672	33128	
4739	0	32768	33044	
4740	0	32768	33347	
4741	0	32752	33194	
4742	0	32950	32824	
4743	0	33168	32640	
4744	0	32928	32487	
4745	0	32796	32168	
4746	0	32904	32096	
4747	0	32740	32686	
4748	0	32682	32959	
4749	0	32772	33006	
4750	0	32821	32567	
4751	0	32852	32482	
4752	0	32888	32458	
4753	0	32728	32751	
4754	0	32702	33031	
4755	0	32956	32889	
4756	0	32972	33096	
4757	0	32724	32792	
4758	0	32960	32831	
4759	0	33016	33224	
4760	0	32948	33374	
4761	0	32872	33006	
4762	0	32740	32929	
4763	0	32662	32708	
4764	0	32652	32259	
4765	0	32928	32614	
4766	0	33038	32164	
4767	0	32772	32347	
4768	0	32824	32412	
4769	0	32764	33014	
4770	0	32648	32976	
4771	0	32582	32704	
4772	0	32458	32718	
4773	0	32514	32616	
4774	0	32857	32552	
4775	0	32868	32800	
4776	0	32836	32796	
4777	0	33016	33044	
4778	0	32994	32850	
4779	0	32964	32972	
4780	0	32920	32735	
4781	0	32844	32898	
4782	0	32892	32775	
4783	0	32894	32836	
4784	0	32860	32900	
4785	0	32846	32900	
4786	0	32920	32816	
4787	0	32948	32474	
4788	0	32752	32860	
4789	0	32944	32876	
4790	0	32740	32480	
4791	0	32676	32450	
4792	0	32352	32558	
4793	0	32312	32892	
4794	0	32396	33164	
4795	0	32552	32798	
4796	0	32956	32960	
4797	0	32568	33116	
4798	0	32761	32718	
4799	0	33008	32529	
4800	0	33024	32676	
4801	0	33266	32322	
4802	0	33404	32342	
4803	0	33400	32572	
4804	0	33164	32693	
4805	0	33288	33052	
4806	0	33098	33302	
4807	0	32964	32852	
4808	0	33012	32728	
4809	0	32644	32731	
4810	0	32565	33050	
4811	0	32572	32912	
4812	0	32500	32742	
4813	0	32448	32548	
4814	0	32384	32804	
4815	0	32584	32972	
4816	0	32872	33114	
4817	0	32536	32916	
4818	0	32684	32436	
4819	0	32692	32276	
4820	0	32988	32702	
4821	0	32904	32725	
4822	0	32896	33070	
4823	0	32844	32548	
4824	0	32792	32476	
4825	0	32780	32636	
4826	0	32920	33008	
4827	0	32896	32663	
4828	0	32812	32650	
4829	0	33008	32700	
4830	0	32980	32886	
4831	0	32964	32647	
4832	0	32876	32588	
4833	0	32762	32860	
4834	0	32766	32774	
4835	0	32700	32634	
4836	0	32654	32756	
4837	0	32776	32644	
4838	0	32652	32815	
4839	0	32640	32788	
4840	0	32768	32854	
4841	0	32604	32874	
4842	0	32822	32836	
4843	0	33022	32836	
4844	0	33006	32855	
4845	0	32900	32860	
4846	0	32864	32719	
4847	0	32781	32854	
4848	0	32864	32712	
4849	0	32724	32940	
4850	0	32786	32900	
4851	0	32834	32552	
4852	0	32748	32782	
4853	0	32588	32774	
4854	0	32708	32743	
4855	0	32692	32838	
4856	0	32652	32851	
4857	0	32766	32682	
4858	0	32916	32574	
4859	0	32972	32518	
4860	0	33000	32618	
4861	0	32796	32745	
4862	0	32650	32709	
4863	0	32606	32760	
4864	0	32734	32862	
4865	0	33189	32815	
4866	0	33056	32870	
4867	0	32862	32840	
4868	0	32824	32838	
4869	0	32754	32794	
4870	0	32736	32716	
4871	0	32816	32866	
4872	0	32848	32743	
4873	0	32724	32943	
4874	0	32820	32852	
4875	0	32840	33006	
4876	0	32788	32894	
4877	0	32930	32801	
4878	0	33022	32906	
4879	0	32900	32404	
4880	0	32880	32566	
4881	0	32816	32596	
4882	0	32888	32764	
4883	0	32816	32847	
4884	0	32792	32826	
4885	0	32864	32800	
4886	0	32732	32582	
4887	0	32490	32501	
4888	0	32476	32692	
4889	0	32744	32874	
4890	0	32976	32590	
4891	0	32880	32652	
4892	0	32804	32642	
4893	0	32948	32600	
4894	0	33050	32849	
4895	0	32892	32584	
4896	0	32906	32316	
4897	0	32800	32708	
4898	0	32772	33004	
4899	0	32682	32888	
4900	0	32744	32926	
4901	0	32646	33148	
4902	0	32700	32516	
4903	0	32784	32580	
4904	0	32840	32775	
4905	0	32630	32948	
4906	0	32876	32814	
4907	0	32810	32748	
4908	0	32780	33280	
4909	0	33052	32838	
4910	0	32960	32876	
4911	0	32768	33026	
4912	0	32964	32714	
4913	0	32960	32411	
4914	0	32744	32654	
4915	0	32820	32519	
4916	0	32930	32486	
4917	0	32714	32608	
4918	0	32602	32786	
4919	0	32788	32990	
4920	0	32682	32967	
4921	0	32632	32912	
4922	0	32340	32838	
4923	0	32588	32834	
4924	0	32892	32718	
4925	0	32916	32976	
4926	0	32926	33132	
4927	0	32744	32853	
4928	0	32888	32725	
4929	0	32880	32703	
4930	0	32649	32948	
4931	0	32790	33148	
4932	0	33012	32710	
4933	0	32952	32276	
4934	0	32872	32458	
4935	0	32814	32564	
4936	0	32842	32774	
4937	0	32916	32820	
4938	0	32820	32896	
4939	0	32798	32704	
4940	0	32720	32668	
4941	0	32740	32588	
4942	0	32816	32684	
4943	0	32784	32802	
4944	0	32922	32814	
4945	0	32930	32908	
4946	0	32844	32908	
4947	0	32822	32938	
4948	0	32900	32821	
4949	0	32966	32850	
4950	0	32904	32810	
4951	0	32664	32548	
4952	0	32828	32698	
4953	0	32880	32834	
4954	0	32776	32860	
4955	0	32872	32769	
4956	0	32938	32756	
4957	0	33028	32788	
4958	0	32972	32775	
4959	0	32820	32612	
4960	0	32908	32896	
4961	0	32737	32964	
4962	0	32838	32724	
4963	0	32846	32542	
4964	0	32536	32630	
4965	0	32492	32860	
4966	0	32868	32735	
4967	0	32632	32702	
4968	0	32664	32774	
4969	0	32756	32743	
4970	0	32772	32830	
4971	0	32684	32832	
4972	0	32768	32708	
4973	0	32912	32743	
4974	0	32768	32826	
4975	0	32754	32644	
4976	0	32766	32794	
4977	0	32952	32519	
4978	0	33002	32766	
4979	0	32872	32692	
4980	0	32928	32687	
4981	0	33028	32870	
4982	0	32924	32770	
4983	0	32744	32814	
4984	0	32976	32775	
4985	0	32964	32840	
4986	0	32840	32590	
4987	0	32676	32825	
4988	0	32700	32687	
4989	0	32608	32756	
4990	0	32596	32592	
4991	0	32568	32683	
4992	0	32624	33104	
4993	0	32625	33258	
4994	0	32646	33158	
4995	0	32724	32852	
4996	0	33108	32630	
4997	0	32932	32442	
4998	0	32700	32628	
4999	0	32758	32519	
5000	0	32928	32676	
5001	0	33088	32692	
5002	0	32982	32664	
5003	0	32860	32820	
5004	0	32938	32770	
5005	0	32932	32775	
5006	0	32810	32679	
5007	0	32664	32810	
5008	0	32862	32785	
5009	0	32842	32730	
5010	0	32852	32798	
5011	0	32778	32775	
5012	0	32564	32903	
5013	0	32412	32940	
5014	0	32598	32844	
5015	0	32650	32775	
5016	0	32828	32560	
5017	0	32742	32858	
5018	0	32888	32692	
5019	0	32792	32750	
5020	0	32968	32816	
5021	0	32916	32560	
5022	0	32884	32630	
5023	0	32968	32775	
5024	0	32976	32868	
5025	0	32992	32630	
5026	0	32868	32897	
5027	0	32768	32838	
5028	0	32828	32924	
5029	0	32868	32775	
5030	0	32606	32838	
5031	0	32580	32964	
5032	0	32666	33048	
5033	0	32628	32908	
5034	0	32610	32984	
5035	0	32490	33119	
5036	0	32618	32868	
5037	0	32616	32903	
5038	0	32736	32876	
5039	0	32668	32676	
5040	0	32642	32701	
5041	0	32552	32647	
5042	0	33010	32388	
5043	0	33048	32446	
5044	0	32840	32468	
5045	0	32918	32442	
5046	0	32952	32504	
5047	0	33124	32548	
5048	0	33130	32775	
5049	0	33096	33018	
5050	0	33100	32764	
5051	0	33204	32686	
5052	0	33332	32630	
5053	0	33290	32614	
5054	0	33198	32774	
5055	0	33000	32844	
5056	0	32836	32595	
5057	0	32788	32704	
5058	0	32808	32692	
5059	0	32788	32806	
5060	0	32656	32687	
5061	0	32618	32641	
5062	0	32330	32675	
5063	0	32412	32870	
5064	0	32410	32730	
5065	0	32518	32866	
5066	0	32272	32862	
5067	0	32192	32766	
5068	0	32456	32854	
5069	0	32856	32774	
5070	0	32904	32660	
5071	0	32862	32812	
5072	0	32896	32903	
5073	0	33088	32884	
5074	0	33168	32884	
5075	0	33080	32808	
5076	0	32992	32854	
5077	0	33178	32583	
5078	0	33140	32654	
5079	0	33176	32922	
5080	0	33150	32788	
5081	0	33060	32626	
5082	0	32960	32640	
5083	0	32878	32774	
5084	0	32676	32931	
5085	0	32602	32772	
5086	0	32682	32770	
5087	0	32380	33040	
5088	0	32248	32914	
5089	0	32238	32711	
5090	0	32700	32775	
5091	0	33010	32820	
5092	0	32636	32839	
5093	0	32798	32838	
5094	0	32768	32762	
5095	0	32640	33071	
5096	0	32784	32890	
5097	0	32880	32692	
5098	0	32900	32822	
5099	0	32868	32666	
5100	0	32664	32750	
5101	0	32880	32758	
5102	0	33060	32606	
5103	0	33192	32768	
5104	0	33054	32612	
5105	0	32944	32519	
5106	0	32888	32566	
5107	0	32716	32774	
5108	0	32792	32630	
5109	0	32718	32688	
5110	0	32576	32570	
5111	0	32628	32702	
5112	0	32744	32890	
5113	0	32540	33088	
5114	0	32801	33064	
5115	0	32744	32892	
5116	0	32608	32980	
5117	0	32940	32860	
5118	0	32876	32814	
5119	0	33120	32910	
5120	0	32840	32734	
5121	0	33118	32641	
5122	0	32906	32604	
5123	0	32828	32636	
5124	0	32786	32394	
5125	0	32888	32508	
5126	0	32888	32636	
5127	0	33094	32528	
5128	0	33000	32611	
5129	0	32910	32628	
5130	0	32908	32722	
5131	0	32868	32554	
5132	0	32898	32550	
5133	0	32700	32928	
5134	0	32740	32838	
5135	0	32752	32868	
5136	0	32880	32814	
5137	0	32726	32564	
5138	0	32684	32794	
5139	0	32764	33002	
5140	0	32672	32828	
5141	0	32626	32775	
5142	0	32720	32632	
5143	0	32620	32725	
5144	0	32740	32650	
5145	0	32750	32870	
5146	0	32674	32822	
5147	0	32664	32903	
5148	0	32868	32836	
5149	0	32840	32935	
5150	0	32784	32894	
5151	0	32740	32942	
5152	0	32830	32872	
5153	0	32872	32784	
5154	0	32940	32871	
5155	0	32798	32865	
5156	0	32644	32838	
5157	0	32616	32748	
5158	0	32894	32768	
5159	0	32700	32682	
5160	0	32812	32868	
5161	0	32996	32806	
5162	0	32848	33104	
5163	0	32788	32647	
5164	0	32782	32756	
5165	0	32888	32542	
5166	0	33026	32714	
5167	0	32953	32439	
5168	0	32984	32544	
5169	0	33016	32712	
5170	0	32936	32648	
5171	0	32740	32985	
5172	0	32752	32954	
5173	0	32868	32959	
5174	0	33024	32775	
5175	0	32766	32988	
5176	0	32608	32948	
5177	0	32582	32855	
5178	0	32744	32724	
5179	0	32732	32736	
5180	0	32768	32686	
5181	0	32784	32564	
5182	0	32788	32602	
5183	0	32936	32519	
5184	0	32956	32476	
5185	0	33052	32596	
5186	0	33072	32628	
5187	0	32916	32693	
5188	0	32884	32911	
5189	0	32816	32932	
5190	0	32580	32814	
5191	0	32656	32444	
5192	0	32846	32808	
5193	0	32914	32743	
5194	0	32920	32750	
5195	0	32780	32806	
5196	0	32940	32664	
5197	0	33018	32646	
5198	0	32836	32656	
5199	0	32560	32759	
5200	0	32304	32860	
5201	0	32504	32836	
5202	0	32692	32986	
5203	0	32734	32948	
5204	0	32810	32838	
5205	0	32872	32743	
5206	0	32864	32636	
5207	0	32902	32823	
5208	0	32814	32926	
5209	0	32824	32724	
5210	0	32868	32928	
5211	0	32852	32960	
5212	0	32788	32818	
5213	0	32849	32838	
5214	0	32808	32762	
5215	0	32812	32798	
5216	0	32708	32920	
5217	0	32792	32865	
5218	0	32896	32898	
5219	0	32898	32702	
5220	0	32844	32758	
5221	0	32956	32817	
5222	0	32782	32788	
5223	0	32704	32702	
5224	0	32609	32946	
5225	0	32692	32940	
5226	0	32756	32718	
5227	0	32834	32844	
5228	0	32856	32596	
5229	0	32722	32868	
5230	0	32606	32764	
5231	0	32676	32558	
5232	0	32738	32775	
5233	0	33026	32662	
5234	0	33092	32486	
5235	0	33056	32494	
5236	0	33054	32614	
5237	0	33104	32794	
5238	0	32882	32918	
5239	0	32444	32825	
5240	0	32692	32775	
5241	0	32750	32827	
5242	0	32736	32900	
5243	0	32828	32804	
5244	0	32820	32812	
5245	0	32766	32847	
5246	0	32824	32716	
5247	0	32829	32583	
5248	0	32748	32684	
5249	0	32776	32775	
5250	0	32708	32700	
5251	0	32814	32711	
5252	0	32754	32834	
5253	0	32644	32844	
5254	0	32620	32756	
5255	0	32724	32859	
5256	0	32870	32846	
5257	0	32944	32775	
5258	0	32948	32774	
5259	0	32948	32822	
5260	0	32968	32752	
5261	0	32924	32751	
5262	0	32949	32706	
5263	0	33044	32708	
5264	0	33046	32759	
5265	0	32974	32674	
5266	0	32834	32742	
5267	0	32785	32760	
5268	0	32676	32935	
5269	0	32656	32874	
5270	0	32670	32714	
5271	0	32772	32926	
5272	0	32752	32886	
5273	0	32740	32711	
5274	0	32828	32764	
5275	0	32733	32774	
5276	0	32736	32516	
5277	0	32800	32686	
5278	0	32852	32580	
5279	0	32774	32647	
5280	0	32778	32646	
5281	0	32648	32807	
5282	0	32662	32832	
5283	0	32996	32796	
5284	0	32980	32892	
5285	0	32640	32842	
5286	0	32668	32732	
5287	0	32708	32926	
5288	0	32726	32788	
5289	0	32702	32860	
5290	0	32822	32759	
5291	0	32796	32711	
5292	0	32628	32750	
5293	0	32540	32702	
5294	0	32728	32806	
5295	0	32670	32898	
5296	0	32690	32791	
5297	0	32760	32775	
5298	0	33000	32742	
5299	0	32962	32918	
5300	0	32810	32996	
5301	0	32768	32876	
5302	0	33040	32920	
5303	0	33252	32734	
5304	0	33160	32647	
5305	0	32952	32695	
5306	0	32908	32775	
5307	0	32952	32570	
5308	0	32864	32679	
5309	0	32633	32590	
5310	0	32740	32730	
5311	0	32722	32534	
5312	0	32736	32598	
5313	0	32778	32798	
5314	0	32816	32816	
5315	0	32808	32903	
5316	0	32736	32934	
5317	0	32816	32736	
5318	0	32976	32766	
5319	0	32871	32820	
5320	0	32780	32852	
5321	0	32784	32871	
5322	0	32646	32792	
5323	0	32628	32709	
5324	0	32624	32816	
5325	0	32654	32656	
5326	0	32758	32728	
5327	0	32864	32624	
5328	0	32776	32682	
5329	0	32844	32700	
5330	0	32756	32582	
5331	0	32682	32711	
5332	0	32804	32792	
5333	0	32952	32756	
5334	0	32736	32743	
5335	0	32664	32852	
5336	0	32752	32702	
5337	0	32862	32884	
5338	0	32948	32864	
5339	0	32854	32774	
5340	0	32868	32810	
5341	0	32840	32746	
5342	0	32952	32596	
5343	0	33000	32775	
5344	0	32936	32644	
5345	0	32822	32862	
5346	0	32740	33054	
5347	0	32820	32830	
5348	0	32862	33006	
5349	0	32660	32953	
5350	0	32676	32582	
5351	0	32836	32784	
5352	0	32844	32712	
5353	0	32700	32632	
5354	0	32632	32639	
5355	0	32768	32606	
5356	0	32816	32695	
5357	0	32832	32616	
5358	0	32752	32711	
5359	0	32848	32834	
5360	0	32942	32796	
5361	0	32716	32842	
5362	0	32760	32878	
5363	0	32830	32742	
5364	0	32874	32935	
5365	0	32708	32808	
5366	0	32720	32868	
5367	0	32806	32660	
5368	0	32764	32832	
5369	0	32776	32844	
5370	0	32816	32771	
5371	0	32866	32602	
5372	0	32770	32625	
5373	0	32536	32666	
5374	0	32506	32828	
5375	0	32888	32692	
5376	0	32810	32822	
5377	0	32792	32840	
5378	0	33048	32810	
5379	0	33004	32734	
5380	0	33000	32836	
5381	0	33144	32864	
5382	0	32948	32622	
5383	0	32586	32843	
5384	0	32740	32775	
5385	0	32732	32846	
5386	0	32880	32848	
5387	0	32748	32762	
5388	0	32732	32774	
5389	0	32816	32680	
5390	0	32908	32774	
5391	0	32872	32655	
5392	0	32868	32728	
5393	0	32784	32774	
5394	0	32804	32664	
5395	0	32712	32694	
5396	0	32756	32764	
5397	0	32756	32743	
5398	0	32690	32772	
5399	0	32616	32938	
5400	0	32824	32738	
5401	0	32866	32792	
5402	0	32848	32796	
5403	0	32716	32852	
5404	0	32736	32824	
5405	0	32962	32673	
5406	0	32912	32862	
5407	0	32784	32868	
5408	0	32874	32866	
5409	0	32808	32866	
5410	0	32860	32767	
5411	0	32758	32675	
5412	0	32844	32775	
5413	0	32660	32830	
5414	0	32780	32646	
5415	0	32704	32704	
5416	0	32900	32727	
5417	0	32748	32698	
5418	0	32712	32542	
5419	0	32674	32544	
5420	0	32704	32480	
5421	0	32722	32428	
5422	0	32692	32432	
5423	0	32628	32274	
5424	0	32624	32604	
5425	0	32606	32478	
5426	0	32710	32454	
5427	0	32464	32716	
5428	0	32328	32760	
5429	0	32644	32712	
5430	0	32880	32600	
5431	0	33152	32628	
5432	0	33026	32486	
5433	0	32960	32770	
5434	0	32968	32746	
5435	0	32998	32794	
5436	0	33230	32996	
5437	0	33428	33056	
5438	0	33240	33284	
5439	0	33280	33331	
5440	0	33176	33543	
5441	0	33120	33460	
5442	0	33074	33506	
5443	0	33078	33396	
5444	0	33056	33248	
5445	0	33028	33232	
5446	0	32788	32988	
5447	0	32428	32784	
5448	0	32504	32688	
5449	0	32612	32816	
5450	0	32736	32899	
5451	0	32800	32540	
5452	0	32908	32556	
5453	0	32672	32273	
5454	0	32572	32354	
5455	0	32660	32322	
5456	0	32516	32450	
5457	0	32704	32562	
5458	0	32848	32428	
5459	0	32764	32366	
5460	0	32760	32338	
5461	0	32708	32516	
5462	0	32696	32590	
5463	0	32732	32676	
5464	0	32730	32762	
5465	0	32780	32884	
5466	0	32736	32796	
5467	0	32802	32934	
5468	0	32720	32903	
5469	0	32624	32792	
5470	0	32762	32775	
5471	0	32782	32804	
5472	0	32812	32862	
5473	0	32742	32954	
5474	0	32890	32758	
5475	0	32945	32804	
5476	0	32890	32946	
5477	0	32838	32691	
5478	0	32924	32726	
5479	0	32828	32720	
5480	0	32846	32708	
5481	0	32760	32888	
5482	0	32804	32869	
5483	0	32826	32806	
5484	0	32786	32736	
5485	0	32750	32808	
5486	0	32824	32735	
5487	0	32760	32830	
5488	0	32786	32711	
5489	0	32844	32632	
5490	0	32920	32711	
5491	0	32949	32616	
5492	0	32916	32658	
5493	0	32864	32738	
5494	0	32892	32858	
5495	0	32684	32775	
5496	0	32746	32810	
5497	0	32812	32868	
5498	0	32946	32806	
5499	0	32790	32752	
5500	0	32684	32716	
5501	0	32752	32894	
5502	0	32764	32756	
5503	0	32821	32846	
5504	0	32836	32982	
5505	0	32792	32874	
5506	0	32780	32952	
5507	0	32752	32828	
5508	0	32748	32732	
5509	0	32916	32892	
5510	0	33034	32884	
5511	0	32976	32890	
5512	0	33026	32816	
5513	0	33196	32734	
5514	0	33044	32504	
5515	0	32964	32738	
5516	0	32850	32594	
5517	0	32604	32578	
5518	0	32474	32537	
5519	0	32528	32484	
5520	0	32828	32198	
5521	0	32618	32602	
5522	0	32648	32604	
5523	0	32816	32660	
5524	0	32844	32614	
5525	0	32772	32788	
5526	0	32854	32650	
5527	0	32892	32630	
5528	0	32864	32561	
5529	0	32864	32766	
5530	0	32802	32744	
5531	0	32862	32848	
5532	0	32778	32826	
5533	0	32700	33012	
5534	0	32784	32890	
5535	0	32756	32949	
5536	0	32784	32910	
5537	0	32702	32856	
5538	0	32714	32976	
5539	0	32754	32910	
5540	0	32728	32895	
5541	0	32908	32880	
5542	0	32852	32710	
5543	0	32898	32764	
5544	0	32876	32902	
5545	0	32911	32784	
5546	0	32906	32826	
5547	0	32772	32812	
5548	0	32724	32844	
5549	0	32836	32788	
5550	0	32826	32796	
5551	0	32848	32772	
5552	0	32868	32798	
5553	0	32598	32734	
5554	0	32642	32868	
5555	0	32816	32666	
5556	0	32894	32702	
5557	0	32816	32875	
5558	0	32868	32742	
5559	0	32836	32824	
5560	0	32832	32696	
5561	0	32756	32775	
5562	0	32700	32728	
5563	0	32820	32864	
5564	0	32890	32894	
5565	0	32824	32864	
5566	0	32798	32839	
5567	0	32808	32663	
5568	0	32888	32758	
5569	0	32856	32705	
5570	0	32856	32792	
5571	0	32888	32708	
5572	0	32816	32674	
5573	0	32716	32928	
5574	0	32742	32842	
5575	0	32816	32852	
5576	0	32832	32746	
5577	0	32800	32894	
5578	0	32802	32764	
5579	0	32806	32936	
5580	0	32806	32696	
5581	0	32778	32963	
5582	0	32848	32888	
5583	0	32896	32705	
5584	0	32888	32684	
5585	0	32798	32740	
5586	0	32844	32774	
5587	0	32788	32684	
5588	0	32802	32711	
5589	0	32776	32863	
5590	0	32724	32794	
5591	0	32748	32672	
5592	0	32786	32774	
5593	0	32800	32699	
5594	0	32852	32710	
5595	0	32892	32692	
5596	0	32948	32618	
5597	0	32888	32711	
5598	0	32860	32712	
5599	0	32828	32596	
5600	0	32766	32713	
5601	0	32788	32647	
5602	0	32808	32678	
5603	0	32820	32750	
5604	0	32768	32852	
5605	0	32806	32738	
5606	0	32800	32864	
5607	0	32818	32916	
5608	0	32744	32711	
5609	0	32761	32956	
5610	0	32798	32863	
5611	0	32852	32788	
5612	0	32792	32736	
5613	0	32856	32942	
5614	0	32810	32830	
5615	0	32932	32842	
5616	0	32796	32732	
5617	0	32748	32679	
5618	0	32816	32808	
5619	0	32800	32775	
5620	0	32832	32724	
5621	0	32798	32831	
5622	0	32848	32814	
5623	0	32908	32782	
5624	0	32854	32760	
5625	0	32704	32647	
5626	0	32844	32799	
5627	0	32832	32807	
5628	0	32784	32718	
5629	0	32828	32775	
5630	0	32848	32902	
5631	0	32936	32816	
5632	0	32824	32820	
5633	0	32664	32730	
5634	0	32704	32793	
5635	0	32706	32760	
5636	0	32786	32700	
5637	0	32846	32615	
5638	0	32864	32640	
5639	0	32868	32650	
5640	0	32822	32728	
5641	0	32834	32662	
5642	0	32838	32910	
5643	0	32822	32882	
5644	0	32864	32780	
5645	0	32778	32794	
5646	0	32800	32641	
5647	0	32728	32775	
5648	0	32760	32932	
5649	0	32836	32694	
5650	0	32804	32807	
5651	0	32820	32868	
5652	0	32800	32794	
5653	0	32814	32743	
5654	0	32852	32708	
5655	0	32872	32834	
5656	0	32804	32732	
5657	0	32720	32821	
5658	0	32820	32856	
5659	0	32752	32711	
5660	0	32788	32695	
5661	0	32860	32724	
5662	0	32826	32836	
5663	0	32880	32740	
5664	0	32828	32750	
5665	0	32836	32771	
5666	0	32844	32688	
5667	0	32806	32798	
5668	0	32802	32830	
5669	0	32832	32852	
5670	0	32772	32887	
5671	0	32764	32756	
5672	0	32864	32775	
5673	0	32772	32726	
5674	0	32816	32793	
5675	0	32788	32832	
5676	0	32804	32792	
5677	0	32852	32742	
5678	0	32784	32722	
5679	0	32776	32714	
5680	0	32772	32654	
5681	0	32878	32798	
5682	0	32832	32684	
5683	0	32782	32766	
5684	0	32812	32775	
5685	0	32780	32878	
5686	0	32896	32814	
5687	0	32872	32734	
5688	0	32874	32814	
5689	0	32880	32738	
5690	0	32820	32806	
5691	0	32796	32772	
5692	0	32782	32754	
5693	0	32780	32832	
5694	0	32748	32828	
5695	0	32782	32894	
5696	0	32844	32724	
5697	0	32800	32654	
5698	0	32812	32775	
5699	0	32816	32796	
5700	0	32776	32734	
5701	0	32824	32740	
5702	0	32828	32714	
5703	0	32804	32832	
5704	0	32768	32894	
5705	0	32864	32699	
5706	0	32818	32796	
5707	0	32820	32807	
5708	0	32812	32770	
5709	0	32780	32810	
5710	0	32788	32708	
5711	0	32780	32742	
5712	0	32810	32744	
5713	0	32840	32820	
5714	0	32840	32775	
5715	0	32768	32767	
5716	0	32844	32732	
5717	0	32804	32711	
5718	0	32792	32748	
5719	0	32800	32664	
5720	0	32816	32686	
5721	0	32770	32668	
5722	0	32840	32816	
5723	0	32860	32767	
5724	0	32784	32766	
5725	0	32840	32748	
5726	0	32818	32652	
5727	0	32782	32810	
5728	0	32838	32772	
5729	0	32838	32857	
5730	0	32864	32836	
5731	0	32860	32686	
5732	0	32804	32802	
5733	0	32776	32740	
5734	0	32776	32761	
5735	0	32800	32775	
5736	0	32756	32698	
5737	0	32714	32686	
5738	0	32752	32768	
5739	0	32732	32760	
5740	0	32816	32892	
5741	0	32808	32772	
5742	0	32844	32856	
5743	0	32864	32692	
5744	0	32810	32775	
5745	0	32836	32824	
5746	0	32785	32754	
5747	0	32900	32854	
5748	0	32914	32784	
5749	0	32816	32738	
5750	0	32838	32824	
5751	0	32792	32734	
5752	0	32728	32666	
5753	0	32792	32744	
5754	0	32800	32719	
5755	0	32818	32791	
5756	0	32836	32684	
5757	0	32840	32670	
5758	0	32746	32608	
5759	0	32793	32814	
5760	0	32804	32800	
5761	0	32818	32805	
5762	0	32890	32746	
5763	0	32852	32728	
5764	0	32862	32805	
5765	0	32820	32828	
5766	0	32764	32754	
5767	0	32770	32846	
5768	0	32912	32711	
5769	0	32820	32770	
5770	0	32872	32710	
5771	0	32836	32728	
5772	0	32792	32856	
5773	0	32820	32761	
5774	0	32756	32716	
5775	0	32840	32903	
5776	0	32884	32812	
5777	0	32832	32692	
5778	0	32868	32839	
5779	0	32848	32988	
5780	0	32796	32775	
5781	0	32720	32823	
5782	0	32796	32852	
5783	0	32788	32700	
5784	0	32844	32760	
5785	0	32768	32748	
5786	0	32740	32593	
5787	0	32720	32810	
5788	0	32860	32801	
5789	0	32836	32660	
5790	0	32860	32852	
5791	0	32778	32874	
5792	0	32840	32674	
5793	0	32834	32746	
5794	0	32796	32854	
5795	0	32792	32675	
5796	0	32871	32754	
5797	0	32748	32727	
5798	0	32830	32792	
5799	0	32775	32775	
5800	0	32854	32647	
5801	0	32726	32708	
5802	0	32800	32686	
5803	0	32788	32752	
5804	0	32764	32850	
5805	0	32816	32704	
5806	0	32824	32764	
5807	0	32886	32700	
5808	0	32912	32835	
5809	0	32880	32854	
5810	0	32766	32663	
5811	0	32752	32822	
5812	0	32784	32863	
5813	0	32768	32843	
5814	0	32802	32784	
5815	0	32852	32704	
5816	0	32868	32788	
5817	0	32856	32743	
5818	0	32800	32756	
5819	0	32816	32935	
5820	0	32772	32736	
5821	0	32792	32770	
5822	0	32778	32716	
5823	0	32798	32821	
5824	0	32756	32795	
5825	0	32784	32711	
5826	0	32732	32784	
5827	0	32804	32718	
5828	0	32848	32881	
5829	0	32852	32880	
5830	0	32846	32743	
5831	0	32856	32794	
5832	0	32892	32740	
5833	0	32884	32775	
5834	0	32772	32846	
5835	0	32840	32706	
5836	0	32820	32817	
5837	0	32740	32841	
5838	0	32792	32812	
5839	0	32794	32758	
5840	0	32776	32682	
5841	0	32756	32743	
5842	0	32784	32716	
5843	0	32816	32630	
5844	0	32834	32728	
5845	0	32848	32785	
5846	0	32761	32708	
5847	0	32840	32836	
5848	0	32716	32748	
5849	0	32902	32646	
5850	0	32788	32791	
5851	0	32796	32804	
5852	0	32838	32708	
5853	0	32804	32870	
5854	0	32756	32811	
5855	0	32834	32770	
5856	0	32808	32832	
5857	0	32836	32775	
5858	0	32804	32725	
5859	0	32864	32804	
5860	0	32756	32721	
5861	0	32808	32686	
5862	0	32792	32768	
5863	0	32821	32711	
5864	0	32776	32822	
5865	0	32861	32800	
5866	0	32756	32850	
5867	0	32788	32838	
5868	0	32826	32764	
5869	0	32782	32836	
5870	0	32820	32747	
5871	0	32796	32775	
5872	0	32828	32750	
5873	0	32758	32790	
5874	0	32696	32815	
5875	0	32834	32834	
5876	0	32856	32807	
5877	0	32802	32808	
5878	0	32808	32793	
5879	0	32836	32876	
5880	0	32772	32826	
5881	0	32884	32846	
5882	0	32870	32726	
5883	0	32868	32775	
5884	0	32774	32739	
5885	0	32837	32774	
5886	0	32848	32628	
5887	0	32848	32665	
5888	0	32834	32680	
5889	0	32872	32728	
5890	0	32808	32716	
5891	0	32944	32770	
5892	0	32800	32734	
5893	0	32812	32864	
5894	0	32780	32676	
5895	0	32786	32816	
5896	0	32740	32902	
5897	0	32816	32814	
5898	0	32792	32814	
5899	0	32648	32721	
5900	0	32766	32734	
5901	0	32810	32764	
5902	0	32934	32882	
5903	0	32804	32806	
5904	0	32788	32870	
5905	0	32812	32814	
5906	0	32836	32768	
5907	0	32784	32825	
5908	0	32828	32677	
5909	0	32776	32850	
5910	0	32760	32703	
5911	0	32790	32790	
5912	0	32818	32676	
5913	0	32906	32796	
5914	0	32868	32839	
5915	0	32804	32728	
5916	0	32912	32710	
5917	0	32808	32767	
5918	0	32822	32679	
5919	0	32866	32828	
5920	0	32744	32844	
5921	0	32720	32714	
5922	0	32752	32700	
5923	0	32826	32796	
5924	0	32792	32754	
5925	0	32802	32812	
5926	0	32812	32711	
5927	0	32784	32742	
5928	0	32884	32844	
5929	0	32900	32824	
5930	0	32868	32724	
5931	0	32772	32807	
5932	0	32766	32802	
5933	0	32804	32775	
5934	0	32864	32775	
5935	0	32818	32698	
5936	0	32764	32826	
5937	0	32788	32762	
5938	0	32776	32616	
5939	0	32778	32820	
5940	0	32834	32756	
5941	0	32812	32710	
5942	0	32746	32752	
5943	0	32816	32626	
5944	0	32816	32849	
5945	0	32848	32849	
5946	0	32932	32700	
5947	0	32776	32821	
5948	0	32824	32726	
5949	0	32868	32708	
5950	0	32860	32802	
5951	0	32832	32704	
5952	0	32832	32836	
5953	0	32832	32806	
5954	0	32856	32817	
5955	0	32824	32708	
5956	0	32816	32834	
5957	0	32828	32836	
5958	0	32772	32832	
5959	0	32798	32735	
5960	0	32746	32742	
5961	0	32814	32696	
5962	0	32768	32752	
5963	0	32718	32824	
5964	0	32804	32740	
5965	0	32798	32794	
5966	0	32820	32822	
5967	0	32808	32704	
5968	0	32753	32774	
5969	0	32808	32814	
5970	0	32862	32700	
5971	0	32868	32820	
5972	0	32796	32696	
5973	0	32788	32828	
5974	0	32806	32842	
5975	0	32832	32759	
5976	0	32785	32752	
5977	0	32800	32775	
5978	0	32854	32730	
5979	0	32884	32806	
5980	0	32772	32678	
5981	0	32756	32805	
5982	0	32826	32846	
5983	0	32816	32676	
5984	0	32816	32775	
5985	0	32788	32744	
5986	0	32816	32762	
5987	0	32844	32754	
5988	0	32864	32656	
5989	0	32878	32796	
5990	0	32792	32775	
5991	0	32824	32703	
5992	0	32800	32740	
5993	0	32808	32775	
5994	0	32882	32790	
5995	0	32801	32794	
5996	0	32792	32760	
5997	0	32754	32818	
5998	0	32836	32692	
5999	0	32792	32772	
6000	0	32800	32822	
6001	0	32752	32668	
6002	0	32840	32856	
6003	0	32868	32831	
6004	0	32810	32750	
6005	0	32838	32734	
6006	0	32814	32674	
6007	0	32860	32770	
6008	0	32832	32791	
6009	0	32820	32767	
6010	0	32736	32732	
6011	0	32814	32774	
6012	0	32768	32798	
