# OpenSignals Text File Format. Version 1
# {"00:07:80:8C:0A:39": {"position": 0, "device": "biosignalsplux", "device name": "00:07:80:8C:0A:39", "device connection": "BTH00:07:80:8C:0A:39", "sampling rate": 1000, "resolution": [16, 16], "firmware version": 776, "comments": "", "keywords": "", "mode": 0, "sync interval": 2, "date": "2023-3-17", "time": "14:51:36.716", "channels": [1, 2], "sensor": ["EMG", "EMG"], "label": ["CH1", "CH2"], "column": ["nSeq", "DI", "CH1", "CH2"], "special": [{"SpO2": [80, 40, 5, 4, 3, 3]}, {"SpO2": [80, 40, 5, 4, 3, 3]}, {"SpO2": [80, 40, 5, 4, 3, 3]}, {"SpO2": [80, 40, 5, 4, 3, 3]}, {"SpO2": [80, 40, 5, 4, 3, 3]}, {"SpO2": [80, 40, 5, 4, 3, 3]}, {"SpO2": [80, 40, 5, 4, 3, 3]}, {"SpO2": [80, 40, 5, 4, 3, 3]}], "digital IO": [0, 1], "sleeve color": ["gray", "yellow"], "convertedValues": 0}}
# EndOfHeader
0	0	32834	32875	
1	0	32870	32807	
2	0	32864	32727	
3	0	32756	32750	
4	0	32798	32664	
5	0	32760	32786	
6	0	32808	32772	
7	0	32804	32774	
8	0	32836	32762	
9	0	32848	32774	
10	0	32800	32824	
11	0	32842	32825	
12	0	32810	32886	
13	0	32768	32846	
14	0	32740	32695	
15	0	32804	32775	
16	0	32880	32820	
17	0	32784	32708	
18	0	32816	32740	
19	0	32876	32768	
20	0	32804	32791	
21	0	32844	32775	
22	0	32798	32680	
23	0	32740	32772	
24	0	32816	32711	
25	0	32804	32772	
26	0	32844	32799	
27	0	32798	32858	
28	0	32768	32764	
29	0	32804	32948	
30	0	32800	32826	
31	0	32804	32647	
32	0	32864	32821	
33	0	32788	32684	
34	0	32760	32835	
35	0	32806	32702	
36	0	32826	32796	
37	0	32858	32748	
38	0	32792	32822	
39	0	32832	32722	
40	0	32784	32756	
41	0	32824	32740	
42	0	32858	32775	
43	0	32832	32806	
44	0	32896	32836	
45	0	32824	32704	
46	0	32800	32663	
47	0	32808	32775	
48	0	32774	32826	
49	0	32768	32850	
50	0	32756	32814	
51	0	32806	32804	
52	0	32812	32839	
53	0	32805	32806	
54	0	32892	32802	
55	0	32838	32864	
56	0	32812	32855	
57	0	32810	32882	
58	0	32828	32828	
59	0	32792	32772	
60	0	32864	32695	
61	0	32776	32692	
62	0	32868	32826	
63	0	32822	32810	
64	0	32834	32710	
65	0	32820	32790	
66	0	32808	32756	
67	0	32754	32775	
68	0	32784	32720	
69	0	32832	32840	
70	0	32792	32775	
71	0	32796	32679	
72	0	32774	32796	
73	0	32792	32803	
74	0	32810	32834	
75	0	32792	32760	
76	0	32820	32838	
77	0	32780	32758	
78	0	32798	32775	
79	0	32812	32846	
80	0	32824	32670	
81	0	32848	32775	
82	0	32842	32734	
83	0	32884	32850	
84	0	32860	32804	
85	0	32769	32716	
86	0	32780	32853	
87	0	32812	32871	
88	0	32806	32680	
89	0	32856	32743	
90	0	32816	32751	
91	0	32812	32784	
92	0	32798	32737	
93	0	32778	32694	
94	0	32788	32775	
95	0	32788	32730	
96	0	32812	32775	
97	0	32806	32822	
98	0	32804	32680	
99	0	32842	32848	
100	0	32848	32775	
101	0	32800	32774	
102	0	32816	32807	
103	0	32816	32698	
104	0	32848	32734	
105	0	32858	32730	
106	0	32786	32723	
107	0	32884	32742	
108	0	32832	32814	
109	0	32860	32796	
110	0	32828	32854	
111	0	32784	32804	
112	0	32794	32708	
113	0	32800	32848	
114	0	32784	32742	
115	0	32840	32724	
116	0	32764	32768	
117	0	32880	32812	
118	0	32804	32716	
119	0	32768	32738	
120	0	32830	32716	
121	0	32770	32736	
122	0	32768	32686	
123	0	32800	32760	
124	0	32862	32799	
125	0	32846	32742	
126	0	32796	32812	
127	0	32820	32804	
128	0	32772	32702	
129	0	32796	32794	
130	0	32744	32744	
131	0	32710	32832	
132	0	32776	32844	
133	0	32848	32711	
134	0	32896	32775	
135	0	32758	32628	
136	0	32764	32838	
137	0	32824	32862	
138	0	32836	32734	
139	0	32824	32812	
140	0	32880	32838	
141	0	32799	32856	
142	0	32826	32800	
143	0	32836	32702	
144	0	32828	32711	
145	0	32724	32698	
146	0	32832	32830	
147	0	32860	32775	
148	0	32860	32690	
149	0	32860	32844	
150	0	32756	32735	
151	0	32836	32884	
152	0	32780	32822	
153	0	32802	32620	
154	0	32856	32790	
155	0	32816	32802	
156	0	32737	32638	
157	0	32834	32758	
158	0	32824	32838	
159	0	32776	32789	
160	0	32852	32720	
161	0	32836	32710	
162	0	32832	32775	
163	0	32830	32758	
164	0	32796	32821	
165	0	32826	32766	
166	0	32828	32694	
167	0	32835	32828	
168	0	32804	32775	
169	0	32852	32764	
170	0	32808	32770	
171	0	32830	32790	
172	0	32824	32730	
173	0	32816	32839	
174	0	32800	32814	
175	0	32892	32724	
176	0	32772	32726	
177	0	32770	32838	
178	0	32750	32676	
179	0	32786	32760	
180	0	32844	32664	
181	0	32796	32734	
182	0	32792	32714	
183	0	32840	32856	
184	0	32824	32750	
185	0	32776	32664	
186	0	32836	32804	
187	0	32808	32718	
188	0	32808	32768	
189	0	32792	32748	
190	0	32764	32775	
191	0	32800	32796	
192	0	32804	32854	
193	0	32824	32850	
194	0	32828	32770	
195	0	32821	32810	
196	0	32856	32732	
197	0	32828	32808	
198	0	32788	32842	
199	0	32776	32647	
200	0	32768	32775	
201	0	32768	32788	
202	0	32816	32836	
203	0	32816	32743	
204	0	32788	32710	
205	0	32789	32820	
206	0	32796	32756	
207	0	32800	32786	
208	0	32740	32746	
209	0	32812	32711	
210	0	32832	32806	
211	0	32704	32731	
212	0	32824	32784	
213	0	32822	32800	
214	0	32844	32758	
215	0	32801	32800	
216	0	32816	32754	
217	0	32812	32788	
218	0	32784	32814	
219	0	32832	32788	
220	0	32804	32846	
221	0	32816	32732	
222	0	32852	32822	
223	0	32832	32774	
224	0	32836	32792	
225	0	32830	32775	
226	0	32796	32663	
227	0	32832	32812	
228	0	32808	32656	
229	0	32796	32740	
230	0	32828	32796	
231	0	32798	32764	
232	0	32808	32828	
233	0	32896	32807	
234	0	32796	32832	
235	0	32812	32764	
236	0	32770	32692	
237	0	32864	32806	
238	0	32786	32854	
239	0	32856	32729	
240	0	32904	32764	
241	0	32788	32708	
242	0	32796	32826	
243	0	32824	32743	
244	0	32828	32762	
245	0	32772	32752	
246	0	32888	32736	
247	0	32756	32838	
248	0	32820	32810	
249	0	32838	32742	
250	0	32844	32760	
251	0	32800	32812	
252	0	32800	32734	
253	0	32828	32828	
254	0	32806	32762	
255	0	32752	32700	
256	0	32824	32814	
257	0	32780	32687	
258	0	32816	32902	
259	0	32876	32756	
260	0	32816	32710	
261	0	32788	32630	
262	0	32744	32712	
263	0	32778	32770	
264	0	32800	32711	
265	0	32804	32806	
266	0	32866	32696	
267	0	32824	32711	
268	0	32800	32710	
269	0	32824	32718	
270	0	32768	32791	
271	0	32830	32775	
272	0	32772	32852	
273	0	32810	32796	
274	0	32780	32668	
275	0	32776	32768	
276	0	32824	32839	
277	0	32804	32684	
278	0	32828	32862	
279	0	32821	32894	
280	0	32799	32760	
281	0	32824	32775	
282	0	32852	32838	
283	0	32862	32775	
284	0	32748	32674	
285	0	32864	32810	
286	0	32775	32823	
287	0	32806	32666	
288	0	32852	32775	
289	0	32794	32755	
290	0	32792	32746	
291	0	32876	32768	
292	0	32816	32750	
293	0	32798	32782	
294	0	32804	32794	
295	0	32798	32756	
296	0	32820	32807	
297	0	32808	32732	
298	0	32808	32800	
299	0	32888	32836	
300	0	32824	32666	
301	0	32728	32839	
302	0	32826	32830	
303	0	32782	32644	
304	0	32788	32842	
305	0	32874	32806	
306	0	32802	32693	
307	0	32836	32746	
308	0	32772	32794	
309	0	32868	32719	
310	0	32776	32798	
311	0	32820	32759	
312	0	32802	32860	
313	0	32828	32662	
314	0	32832	32884	
315	0	32800	32738	
316	0	32764	32790	
317	0	32824	32722	
318	0	32758	32804	
319	0	32720	32815	
320	0	32832	32742	
321	0	32816	32786	
322	0	32818	32796	
323	0	32846	32732	
324	0	32820	32725	
325	0	32850	32870	
326	0	32824	32679	
327	0	32820	32826	
328	0	32810	32746	
329	0	32806	32722	
330	0	32764	32788	
331	0	32774	32751	
332	0	32800	32756	
333	0	32814	32724	
334	0	32776	32724	
335	0	32844	32743	
336	0	32856	32716	
337	0	32852	32724	
338	0	32856	32796	
339	0	32788	32735	
340	0	32812	32758	
341	0	32832	32775	
342	0	32862	32794	
343	0	32756	32830	
344	0	32812	32750	
345	0	32840	32812	
346	0	32724	32734	
347	0	32804	32680	
348	0	32882	32756	
349	0	32788	32839	
350	0	32776	32756	
351	0	32808	32720	
352	0	32760	32740	
353	0	32784	32783	
354	0	32758	32736	
355	0	32840	32786	
356	0	32836	32824	
357	0	32780	32748	
358	0	32778	32823	
359	0	32836	32775	
360	0	32860	32750	
361	0	32892	32792	
362	0	32812	32801	
363	0	32826	32700	
364	0	32868	32816	
365	0	32836	32862	
366	0	32832	32768	
367	0	32840	32892	
368	0	32760	32766	
369	0	32784	32775	
370	0	32784	32734	
371	0	32834	32824	
372	0	32872	32860	
373	0	32794	32839	
374	0	32878	32900	
375	0	32864	32775	
376	0	32884	32846	
377	0	32876	32843	
378	0	32828	32809	
379	0	32800	32826	
380	0	32738	32759	
381	0	32666	32544	
382	0	32684	32519	
383	0	32712	32500	
384	0	32689	32456	
385	0	32624	32417	
386	0	32608	32391	
387	0	32680	32420	
388	0	32704	32512	
389	0	32746	32692	
390	0	32698	32775	
391	0	32776	32742	
392	0	32840	32814	
393	0	32828	32804	
394	0	32888	32958	
395	0	32856	32800	
396	0	32868	32788	
397	0	32888	32944	
398	0	32868	32868	
399	0	32916	32900	
400	0	32884	32839	
401	0	32926	32842	
402	0	32912	32812	
403	0	32876	32918	
404	0	32906	32775	
405	0	32894	32815	
406	0	32826	32919	
407	0	32828	32831	
408	0	32874	32846	
409	0	32832	32772	
410	0	32850	32775	
411	0	32776	32818	
412	0	32890	32726	
413	0	32876	32780	
414	0	32794	32900	
415	0	32828	32762	
416	0	32756	32794	
417	0	32770	32740	
418	0	32782	32826	
419	0	32788	32762	
420	0	32778	32614	
421	0	32776	32846	
422	0	32804	32800	
423	0	32816	32676	
424	0	32740	32698	
425	0	32784	32828	
426	0	32782	32698	
427	0	32780	32756	
428	0	32836	32836	
429	0	32792	32644	
430	0	32818	32822	
431	0	32854	32860	
432	0	32836	32716	
433	0	32836	32766	
434	0	32728	32785	
435	0	32792	32666	
436	0	32836	32756	
437	0	32806	32744	
438	0	32860	32606	
439	0	32782	32832	
440	0	32820	32764	
441	0	32810	32815	
442	0	32768	32711	
443	0	32782	32754	
444	0	32791	32821	
445	0	32808	32670	
446	0	32856	32792	
447	0	32908	32863	
448	0	32816	32730	
449	0	32776	32878	
450	0	32808	32727	
451	0	32788	32775	
452	0	32802	32845	
453	0	32792	32700	
454	0	32856	32753	
455	0	32774	32647	
456	0	32792	32724	
457	0	32848	32844	
458	0	32762	32831	
459	0	32808	32811	
460	0	32760	32671	
461	0	32856	32743	
462	0	32816	32838	
463	0	32816	32759	
464	0	32806	32724	
465	0	32780	32868	
466	0	32784	32678	
467	0	32792	32782	
468	0	32824	32719	
469	0	32844	32828	
470	0	32804	32887	
471	0	32852	32646	
472	0	32865	32740	
473	0	32868	32774	
474	0	32890	32775	
475	0	32832	32775	
476	0	32816	32853	
477	0	32794	32644	
478	0	32786	32864	
479	0	32796	32856	
480	0	32792	32666	
481	0	32770	32808	
482	0	32844	32823	
483	0	32808	32688	
484	0	32858	32818	
485	0	32820	32824	
486	0	32788	32638	
487	0	32784	32795	
488	0	32766	32820	
489	0	32768	32660	
490	0	32852	32862	
491	0	32792	32766	
492	0	32745	32686	
493	0	32792	32743	
494	0	32780	32718	
495	0	32768	32904	
496	0	32757	32772	
497	0	32784	32722	
498	0	32748	32810	
499	0	32826	32870	
500	0	32808	32676	
501	0	32812	32732	
502	0	32822	32794	
503	0	32814	32686	
504	0	32816	32766	
505	0	32752	32746	
506	0	32816	32706	
507	0	32796	32764	
508	0	32816	32784	
509	0	32864	32802	
510	0	32848	32714	
511	0	32866	32826	
512	0	32888	32816	
513	0	32800	32761	
514	0	32796	32737	
515	0	32800	32775	
516	0	32838	32828	
517	0	32766	32706	
518	0	32850	32744	
519	0	32824	32850	
520	0	32808	32695	
521	0	32756	32690	
522	0	32798	32796	
523	0	32778	32696	
524	0	32782	32728	
525	0	32791	32722	
526	0	32864	32772	
527	0	32868	32695	
528	0	32808	32775	
529	0	32848	32839	
530	0	32864	32756	
531	0	32814	32804	
532	0	32804	32711	
533	0	32806	32766	
534	0	32748	32794	
535	0	32732	32742	
536	0	32800	32707	
537	0	32800	32878	
538	0	32826	32788	
539	0	32820	32814	
540	0	32842	32740	
541	0	32846	32756	
542	0	32792	32724	
543	0	32816	32884	
544	0	32842	32791	
545	0	32792	32824	
546	0	32822	32830	
547	0	32790	32676	
548	0	32840	32820	
549	0	32876	32750	
550	0	32800	32708	
551	0	32840	32802	
552	0	32760	32711	
553	0	32844	32822	
554	0	32800	32718	
555	0	32796	32800	
556	0	32774	32816	
557	0	32788	32768	
558	0	32808	32692	
559	0	32800	32846	
560	0	32830	32720	
561	0	32800	32734	
562	0	32824	32884	
563	0	32768	32700	
564	0	32836	32766	
565	0	32796	32752	
566	0	32764	32724	
567	0	32816	32760	
568	0	32792	32766	
569	0	32826	32730	
570	0	32840	32775	
571	0	32832	32851	
572	0	32832	32668	
573	0	32852	32799	
574	0	32760	32866	
575	0	32784	32694	
576	0	32868	32800	
577	0	32812	32775	
578	0	32808	32718	
579	0	32791	32772	
580	0	32832	32761	
581	0	32840	32738	
582	0	32808	32724	
583	0	32856	32824	
584	0	32816	32832	
585	0	32846	32712	
586	0	32776	32842	
587	0	32784	32735	
588	0	32820	32688	
589	0	32834	32862	
590	0	32776	32759	
591	0	32772	32768	
592	0	32806	32876	
593	0	32704	32775	
594	0	32828	32802	
595	0	32856	32640	
596	0	32846	32746	
597	0	32870	32743	
598	0	32754	32748	
599	0	32810	32834	
600	0	32766	32799	
601	0	32800	32732	
602	0	32746	32832	
603	0	32836	32775	
604	0	32770	32822	
605	0	32846	32860	
606	0	32820	32688	
607	0	32896	32774	
608	0	32820	32775	
609	0	32764	32640	
610	0	32746	32775	
611	0	32794	32752	
612	0	32836	32695	
613	0	32796	32846	
614	0	32788	32788	
615	0	32814	32720	
616	0	32818	32775	
617	0	32724	32764	
618	0	32876	32762	
619	0	32756	32760	
620	0	32724	32848	
621	0	32852	32726	
622	0	32790	32819	
623	0	32832	32766	
624	0	32812	32628	
625	0	32794	32775	
626	0	32870	32742	
627	0	32836	32740	
628	0	32808	32764	
629	0	32756	32754	
630	0	32792	32775	
631	0	32798	32762	
632	0	32818	32752	
633	0	32840	32846	
634	0	32760	32795	
635	0	32868	32804	
636	0	32834	32852	
637	0	32836	32844	
638	0	32870	32676	
639	0	32796	32812	
640	0	32846	32758	
641	0	32740	32692	
642	0	32774	32791	
643	0	32824	32742	
644	0	32788	32767	
645	0	32800	32772	
646	0	32760	32775	
647	0	32846	32663	
648	0	32838	32800	
649	0	32862	32775	
650	0	32836	32692	
651	0	32880	32710	
652	0	32796	32807	
653	0	32804	32876	
654	0	32904	32886	
655	0	32820	32678	
656	0	32746	32805	
657	0	32832	32728	
658	0	32776	32798	
659	0	32832	32842	
660	0	32868	32746	
661	0	32852	32724	
662	0	32826	32726	
663	0	32784	32823	
664	0	32820	32775	
665	0	32792	32670	
666	0	32844	32742	
667	0	32788	32702	
668	0	32782	32836	
669	0	32772	32848	
670	0	32800	32642	
671	0	32810	32736	
672	0	32756	32798	
673	0	32788	32710	
674	0	32784	32768	
675	0	32764	32744	
676	0	32776	32748	
677	0	32816	32752	
678	0	32844	32802	
679	0	32832	32740	
680	0	32828	32759	
681	0	32788	32828	
682	0	32796	32716	
683	0	32862	32871	
684	0	32820	32798	
685	0	32836	32698	
686	0	32778	32752	
687	0	32748	32838	
688	0	32812	32646	
689	0	32854	32846	
690	0	32810	32812	
691	0	32824	32758	
692	0	32798	32754	
693	0	32848	32774	
694	0	32892	32741	
695	0	32858	32740	
696	0	32816	32672	
697	0	32824	32798	
698	0	32806	32759	
699	0	32816	32710	
700	0	32832	32834	
701	0	32826	32804	
702	0	32884	32746	
703	0	32792	32792	
704	0	32894	32843	
705	0	32766	32710	
706	0	32744	32719	
707	0	32792	32818	
708	0	32832	32788	
709	0	32836	32775	
710	0	32796	32770	
711	0	32840	32828	
712	0	32834	32750	
713	0	32804	32744	
714	0	32832	32826	
715	0	32790	32712	
716	0	32828	32743	
717	0	32848	32620	
718	0	32778	32812	
719	0	32770	32836	
720	0	32830	32732	
721	0	32748	32789	
722	0	32864	32676	
723	0	32848	32903	
724	0	32788	32750	
725	0	32842	32775	
726	0	32768	32775	
727	0	32832	32814	
728	0	32856	32704	
729	0	32788	32766	
730	0	32816	32796	
731	0	32730	32662	
732	0	32852	32775	
733	0	32868	32839	
734	0	32910	32705	
735	0	32824	32862	
736	0	32772	32791	
737	0	32788	32638	
738	0	32760	32835	
739	0	32744	32762	
740	0	32752	32742	
741	0	32760	32719	
742	0	32804	32788	
743	0	32782	32756	
744	0	32808	32732	
745	0	32824	32775	
746	0	32848	32726	
747	0	32780	32832	
748	0	32780	32804	
749	0	32828	32756	
750	0	32858	32858	
751	0	32830	32796	
752	0	32772	32732	
753	0	32808	32748	
754	0	32830	32806	
755	0	32816	32664	
756	0	32775	32756	
757	0	32794	32788	
758	0	32834	32708	
759	0	32814	32846	
760	0	32860	32846	
761	0	32820	32696	
762	0	32768	32730	
763	0	32816	32775	
764	0	32832	32673	
765	0	32900	32814	
766	0	32820	32836	
767	0	32800	32641	
768	0	32788	32836	
769	0	32770	32686	
770	0	32776	32834	
771	0	32796	32756	
772	0	32900	32768	
773	0	32788	32796	
774	0	32824	32726	
775	0	32820	32720	
776	0	32788	32795	
777	0	32816	32732	
778	0	32780	32775	
779	0	32796	32832	
780	0	32834	32760	
781	0	32776	32823	
782	0	32826	32798	
783	0	32746	32710	
784	0	32832	32797	
785	0	32816	32756	
786	0	32850	32802	
787	0	32852	32763	
788	0	32804	32684	
789	0	32854	32726	
790	0	32840	32764	
791	0	32834	32810	
792	0	32793	32799	
793	0	32786	32740	
794	0	32716	32744	
795	0	32768	32726	
796	0	32800	32711	
797	0	32828	32746	
798	0	32768	32723	
799	0	32760	32804	
800	0	32806	32800	
801	0	32788	32702	
802	0	32866	32811	
803	0	32836	32716	
804	0	32888	32892	
805	0	32848	32772	
806	0	32856	32658	
807	0	32864	32790	
808	0	32824	32724	
809	0	32814	32729	
810	0	32800	32844	
811	0	32824	32740	
812	0	32820	32690	
813	0	32774	32868	
814	0	32752	32804	
815	0	32836	32700	
816	0	32808	32733	
817	0	32812	32742	
818	0	32794	32903	
819	0	32878	32758	
820	0	32820	32738	
821	0	32848	32702	
822	0	32818	32796	
823	0	32822	32720	
824	0	32884	32862	
825	0	32828	32812	
826	0	32824	32784	
827	0	32837	32714	
828	0	32856	32836	
829	0	32754	32704	
830	0	32796	32826	
831	0	32788	32796	
832	0	32689	32830	
833	0	32892	32732	
834	0	32822	32731	
835	0	32844	32860	
836	0	32828	32728	
837	0	32810	32762	
838	0	32840	32852	
839	0	32796	32664	
840	0	32736	32752	
841	0	32801	32775	
842	0	32754	32662	
843	0	32892	32753	
844	0	32792	32732	
845	0	32778	32660	
846	0	32804	32775	
847	0	32922	32704	
848	0	32852	32870	
849	0	32768	32736	
850	0	32792	32692	
851	0	32836	32800	
852	0	32840	32804	
853	0	32792	32698	
854	0	32798	32823	
855	0	32824	32820	
856	0	32798	32789	
857	0	32788	32695	
858	0	32758	32712	
859	0	32748	32697	
860	0	32794	32814	
861	0	32888	32770	
862	0	32792	32903	
863	0	32816	32775	
864	0	32850	32679	
865	0	32836	32746	
866	0	32856	32748	
867	0	32816	32725	
868	0	32772	32704	
869	0	32824	32792	
870	0	32872	32844	
871	0	32830	32696	
872	0	32794	32854	
873	0	32794	32816	
874	0	32782	32730	
875	0	32780	32818	
876	0	32824	32846	
877	0	32752	32796	
878	0	32718	32638	
879	0	32772	32794	
880	0	32796	32750	
881	0	32748	32598	
882	0	32796	32894	
883	0	32812	32772	
884	0	32856	32698	
885	0	32900	32823	
886	0	32808	32756	
887	0	32780	32756	
888	0	32766	32698	
889	0	32844	32805	
890	0	32830	32768	
891	0	32774	32647	
892	0	32804	32732	
893	0	32840	32871	
894	0	32810	32736	
895	0	32830	32782	
896	0	32888	32840	
897	0	32796	32775	
898	0	32776	32790	
899	0	32774	32834	
900	0	32804	32738	
901	0	32801	32822	
902	0	32766	32852	
903	0	32792	32630	
904	0	32840	32760	
905	0	32866	32748	
906	0	32804	32812	
907	0	32844	32738	
908	0	32752	32696	
909	0	32832	32878	
910	0	32736	32804	
911	0	32828	32758	
912	0	32848	32739	
913	0	32778	32820	
914	0	32876	32707	
915	0	32848	32775	
916	0	32758	32686	
917	0	32788	32830	
918	0	32824	32800	
919	0	32792	32716	
920	0	32802	32802	
921	0	32826	32788	
922	0	32764	32790	
923	0	32836	32720	
924	0	32834	32838	
925	0	32824	32804	
926	0	32760	32658	
927	0	32842	32787	
928	0	32852	32614	
929	0	32840	32756	
930	0	32784	32724	
931	0	32836	32769	
932	0	32804	32890	
933	0	32808	32803	
934	0	32848	32766	
935	0	32770	32775	
936	0	32808	32812	
937	0	32785	32836	
938	0	32848	32766	
939	0	32796	32686	
940	0	32802	32772	
941	0	32784	32788	
942	0	32784	32710	
943	0	32784	32726	
944	0	32820	32764	
945	0	32808	32769	
946	0	32812	32775	
947	0	32798	32775	
948	0	32774	32700	
949	0	32810	32791	
950	0	32850	32660	
951	0	32820	32708	
952	0	32782	32806	
953	0	32784	32932	
954	0	32808	32756	
955	0	32864	32720	
956	0	32856	32807	
957	0	32748	32858	
958	0	32752	32628	
959	0	32772	32820	
960	0	32796	32775	
961	0	32826	32719	
962	0	32864	32796	
963	0	32796	32886	
964	0	32760	32722	
965	0	32772	32666	
966	0	32772	32700	
967	0	32872	32824	
968	0	32830	32775	
969	0	32844	32692	
970	0	32820	32770	
971	0	32860	32676	
972	0	32786	32786	
973	0	32794	32832	
974	0	32832	32744	
975	0	32838	32804	
976	0	32832	32668	
977	0	32808	32796	
978	0	32822	32839	
979	0	32778	32692	
980	0	32794	32806	
981	0	32804	32808	
982	0	32864	32678	
983	0	32804	32758	
984	0	32812	32816	
985	0	32838	32788	
986	0	32844	32847	
987	0	32800	32666	
988	0	32836	32775	
989	0	32836	32828	
990	0	32844	32762	
991	0	32792	32828	
992	0	32796	32822	
993	0	32786	32694	
994	0	32820	32758	
995	0	32802	32794	
996	0	32816	32740	
997	0	32782	32724	
998	0	32828	32811	
999	0	32902	32710	
1000	0	32816	32743	
1001	0	32800	32858	
1002	0	32860	32742	
1003	0	32794	32807	
1004	0	32782	32886	
1005	0	32784	32768	
1006	0	32800	32704	
1007	0	32832	32788	
1008	0	32840	32767	
1009	0	32828	32804	
1010	0	32784	32720	
1011	0	32788	32856	
1012	0	32792	32771	
1013	0	32809	32656	
1014	0	32836	32842	
1015	0	32800	32822	
1016	0	32720	32700	
1017	0	32808	32750	
1018	0	32836	32788	
1019	0	32822	32686	
1020	0	32828	32775	
1021	0	32806	32730	
1022	0	32798	32839	
1023	0	32822	32760	
1024	0	32826	32831	
1025	0	32772	32692	
1026	0	32782	32788	
1027	0	32820	32780	
1028	0	32792	32839	
1029	0	32856	32844	
1030	0	32824	32640	
1031	0	32804	32888	
1032	0	32856	32764	
1033	0	32812	32682	
1034	0	32792	32796	
1035	0	32796	32711	
1036	0	32786	32786	
1037	0	32800	32775	
1038	0	32892	32826	
1039	0	32840	32756	
1040	0	32855	32664	
1041	0	32756	32771	
1042	0	32824	32791	
1043	0	32800	32756	
1044	0	32788	32708	
1045	0	32840	32742	
1046	0	32823	32894	
1047	0	32816	32804	
1048	0	32848	32724	
1049	0	32756	32874	
1050	0	32816	32775	
1051	0	32838	32839	
1052	0	32788	32829	
1053	0	32812	32774	
1054	0	32784	32838	
1055	0	32756	32830	
1056	0	32860	32772	
1057	0	32840	32761	
1058	0	32908	32884	
1059	0	32804	32762	
1060	0	32828	32740	
1061	0	32828	32764	
1062	0	32832	32831	
1063	0	32838	32882	
1064	0	32852	32792	
1065	0	32864	32854	
1066	0	32910	32846	
1067	0	32906	32768	
1068	0	32828	32842	
1069	0	32820	32752	
1070	0	32788	32732	
1071	0	32698	32592	
1072	0	32706	32474	
1073	0	32638	32590	
1074	0	32622	32470	
1075	0	32682	32352	
1076	0	32704	32444	
1077	0	32586	32458	
1078	0	32652	32386	
1079	0	32760	32647	
1080	0	32728	32658	
1081	0	32772	32766	
1082	0	32800	32894	
1083	0	32872	32792	
1084	0	32868	32879	
1085	0	32836	32802	
1086	0	32868	32855	
1087	0	32872	32850	
1088	0	32846	32930	
1089	0	32816	32906	
1090	0	32852	32984	
1091	0	32924	32976	
1092	0	32900	32831	
1093	0	32838	32852	
1094	0	32930	32922	
1095	0	32836	32922	
1096	0	32878	32832	
1097	0	32836	32895	
1098	0	32816	32940	
1099	0	32880	32768	
1100	0	32894	32896	
1101	0	32884	32806	
1102	0	32842	32704	
1103	0	32820	32814	
1104	0	32892	32702	
1105	0	32858	32824	
1106	0	32790	32774	
1107	0	32822	32728	
1108	0	32744	32768	
1109	0	32796	32775	
1110	0	32748	32686	
1111	0	32798	32774	
1112	0	32812	32670	
1113	0	32794	32719	
1114	0	32832	32727	
1115	0	32818	32668	
1116	0	32788	32824	
1117	0	32830	32704	
1118	0	32836	32822	
1119	0	32762	32763	
1120	0	32804	32646	
1121	0	32796	32746	
1122	0	32762	32708	
1123	0	32864	32831	
1124	0	32820	32792	
1125	0	32812	32767	
1126	0	32776	32806	
1127	0	32826	32788	
1128	0	32825	32676	
1129	0	32854	32810	
1130	0	32824	32810	
1131	0	32780	32714	
1132	0	32764	32786	
1133	0	32760	32760	
1134	0	32896	32715	
1135	0	32840	32802	
1136	0	32792	32774	
1137	0	32798	32766	
1138	0	32810	32760	
1139	0	32772	32800	
1140	0	32790	32775	
1141	0	32802	32798	
1142	0	32836	32818	
1143	0	32820	32722	
1144	0	32828	32806	
1145	0	32752	32775	
1146	0	32804	32807	
1147	0	32804	32644	
1148	0	32784	32724	
1149	0	32788	32808	
1150	0	32808	32775	
1151	0	32812	32775	
1152	0	32804	32796	
1153	0	32832	32764	
1154	0	32796	32766	
1155	0	32764	32850	
1156	0	32804	32708	
1157	0	32849	32816	
1158	0	32832	32840	
1159	0	32770	32654	
1160	0	32744	32775	
1161	0	32804	32798	
1162	0	32772	32674	
1163	0	32862	32864	
1164	0	32826	32760	
1165	0	32820	32708	
1166	0	32808	32865	
1167	0	32784	32766	
1168	0	32792	32704	
1169	0	32754	32830	
1170	0	32784	32836	
1171	0	32792	32748	
1172	0	32816	32724	
1173	0	32846	32706	
1174	0	32796	32892	
1175	0	32798	32884	
1176	0	32780	32818	
1177	0	32846	32788	
1178	0	32784	32768	
1179	0	32828	32700	
1180	0	32824	32758	
1181	0	32868	32839	
1182	0	32736	32668	
1183	0	32852	32831	
1184	0	32844	32716	
1185	0	32789	32700	
1186	0	32894	32786	
1187	0	32792	32852	
1188	0	32852	32756	
1189	0	32772	32726	
1190	0	32744	32870	
1191	0	32846	32766	
1192	0	32812	32760	
1193	0	32792	32704	
1194	0	32862	32679	
1195	0	32802	32820	
1196	0	32864	32724	
1197	0	32776	32822	
1198	0	32880	32814	
1199	0	32825	32704	
1200	0	32834	32815	
1201	0	32740	32871	
1202	0	32776	32674	
1203	0	32814	32818	
1204	0	32836	32851	
1205	0	32870	32670	
1206	0	32844	32774	
1207	0	32804	32844	
1208	0	32772	32647	
1209	0	32832	32855	
1210	0	32856	32832	
1211	0	32744	32700	
1212	0	32824	32775	
1213	0	32790	32884	
1214	0	32804	32686	
1215	0	32862	32752	
1216	0	32816	32798	
1217	0	32808	32686	
1218	0	32848	32743	
1219	0	32796	32788	
1220	0	32754	32675	
1221	0	32810	32882	
1222	0	32856	32872	
1223	0	32869	32748	
1224	0	32768	32838	
1225	0	32876	32775	
1226	0	32804	32666	
1227	0	32804	32808	
1228	0	32766	32742	
1229	0	32818	32668	
1230	0	32836	32838	
1231	0	32775	32760	
1232	0	32810	32736	
1233	0	32828	32818	
1234	0	32790	32832	
1235	0	32822	32725	
1236	0	32844	32775	
1237	0	32872	32869	
1238	0	32736	32694	
1239	0	32804	32767	
1240	0	32864	32775	
1241	0	32840	32788	
1242	0	32780	32766	
1243	0	32872	32818	
1244	0	32824	32762	
1245	0	32804	32774	
1246	0	32808	32732	
1247	0	32788	32820	
1248	0	32864	32843	
1249	0	32828	32775	
1250	0	32800	32812	
1251	0	32832	32698	
1252	0	32766	32674	
1253	0	32810	32834	
1254	0	32856	32783	
1255	0	32768	32775	
1256	0	32888	32652	
1257	0	32828	32828	
1258	0	32800	32832	
1259	0	32810	32732	
1260	0	32836	32836	
1261	0	32868	32812	
1262	0	32808	32708	
1263	0	32806	32836	
1264	0	32856	32672	
1265	0	32836	32831	
1266	0	32736	32686	
1267	0	32872	32716	
1268	0	32888	32775	
1269	0	32812	32912	
1270	0	32744	32737	
1271	0	32770	32693	
1272	0	32812	32684	
1273	0	32794	32846	
1274	0	32760	32654	
1275	0	32844	32772	
1276	0	32848	32743	
1277	0	32806	32706	
1278	0	32800	32775	
1279	0	32824	32698	
1280	0	32838	32788	
1281	0	32712	32807	
1282	0	32818	32704	
1283	0	32836	32812	
1284	0	32808	32828	
1285	0	32816	32695	
1286	0	32804	32814	
1287	0	32806	32696	
1288	0	32764	32716	
1289	0	32768	32728	
1290	0	32810	32743	
1291	0	32776	32687	
1292	0	32864	32794	
1293	0	32808	32756	
1294	0	32780	32712	
1295	0	32840	32822	
1296	0	32812	32752	
1297	0	32824	32708	
1298	0	32868	32732	
1299	0	32812	32650	
1300	0	32760	32823	
1301	0	32784	32818	
1302	0	32752	32700	
1303	0	32896	32906	
1304	0	32854	32814	
1305	0	32832	32698	
1306	0	32772	32850	
1307	0	32860	32775	
1308	0	32828	32794	
1309	0	32812	32780	
1310	0	32802	32847	
1311	0	32814	32674	
1312	0	32788	32764	
1313	0	32780	32750	
1314	0	32792	32748	
1315	0	32800	32727	
1316	0	32732	32720	
1317	0	32768	32646	
1318	0	32798	32764	
1319	0	32744	32800	
1320	0	32880	32700	
1321	0	32848	32754	
1322	0	32820	32775	
1323	0	32830	32814	
1324	0	32814	32764	
1325	0	32816	32772	
1326	0	32816	32900	
1327	0	32867	32748	
1328	0	32804	32789	
1329	0	32865	32823	
1330	0	32832	32825	
1331	0	32816	32698	
1332	0	32784	32794	
1333	0	32800	32770	
1334	0	32754	32761	
1335	0	32792	32775	
1336	0	32806	32710	
1337	0	32830	32775	
1338	0	32760	32794	
1339	0	32796	32791	
1340	0	32736	32733	
1341	0	32790	32826	
1342	0	32848	32750	
1343	0	32816	32796	
1344	0	32862	32790	
1345	0	32860	32742	
1346	0	32768	32798	
1347	0	32802	32766	
1348	0	32844	32708	
1349	0	32880	32804	
1350	0	32872	32732	
1351	0	32756	32766	
1352	0	32772	32799	
1353	0	32852	32743	
1354	0	32776	32804	
1355	0	32785	32870	
1356	0	32872	32684	
1357	0	32840	32716	
1358	0	32804	32732	
1359	0	32834	32802	
1360	0	32736	32772	
1361	0	32836	32700	
1362	0	32814	32724	
1363	0	32832	32676	
1364	0	32772	32767	
1365	0	32804	32812	
1366	0	32794	32692	
1367	0	32816	32817	
1368	0	32768	32818	
1369	0	32848	32702	
1370	0	32888	32870	
1371	0	32832	32756	
1372	0	32804	32682	
1373	0	32856	32788	
1374	0	32810	32884	
1375	0	32818	32756	
1376	0	32820	32768	
1377	0	32752	32689	
1378	0	32776	32856	
1379	0	32792	32756	
1380	0	32858	32718	
1381	0	32844	32804	
1382	0	32844	32796	
1383	0	32776	32716	
1384	0	32814	32795	
1385	0	32808	32766	
1386	0	32824	32754	
1387	0	32792	32748	
1388	0	32792	32751	
1389	0	32764	32772	
1390	0	32796	32678	
1391	0	32804	32838	
1392	0	32828	32768	
1393	0	32812	32820	
1394	0	32832	32662	
1395	0	32810	32730	
1396	0	32766	32842	
1397	0	32824	32750	
1398	0	32832	32792	
1399	0	32768	32772	
1400	0	32736	32756	
1401	0	32768	32772	
1402	0	32792	32641	
1403	0	32804	32764	
1404	0	32828	32775	
1405	0	32816	32775	
1406	0	32824	32673	
1407	0	32834	32790	
1408	0	32804	32810	
1409	0	32844	32660	
1410	0	32854	32806	
1411	0	32834	32862	
1412	0	32796	32736	
1413	0	32820	32816	
1414	0	32796	32718	
1415	0	32776	32743	
1416	0	32815	32700	
1417	0	32828	32806	
1418	0	32808	32804	
1419	0	32788	32639	
1420	0	32824	32866	
1421	0	32796	32775	
1422	0	32816	32752	
1423	0	32744	32706	
1424	0	32852	32828	
1425	0	32796	32808	
1426	0	32796	32724	
1427	0	32852	32796	
1428	0	32814	32770	
1429	0	32740	32802	
1430	0	32782	32766	
1431	0	32792	32814	
1432	0	32746	32748	
1433	0	32862	32736	
1434	0	32836	32750	
1435	0	32882	32798	
1436	0	32872	32807	
1437	0	32802	32654	
1438	0	32784	32804	
1439	0	32880	32746	
1440	0	32856	32847	
1441	0	32778	32704	
1442	0	32818	32754	
1443	0	32852	32804	
1444	0	32792	32752	
1445	0	32774	32769	
1446	0	32772	32888	
1447	0	32826	32704	
1448	0	32772	32820	
1449	0	32862	32814	
1450	0	32840	32807	
1451	0	32816	32900	
1452	0	32806	32754	
1453	0	32756	32758	
1454	0	32772	32632	
1455	0	32832	32739	
1456	0	32858	32826	
1457	0	32772	32692	
1458	0	32740	32822	
1459	0	32850	32831	
1460	0	32872	32676	
1461	0	32836	32676	
1462	0	32816	32815	
1463	0	32794	32770	
1464	0	32804	32784	
1465	0	32826	32684	
1466	0	32768	32775	
1467	0	32782	32718	
1468	0	32804	32720	
1469	0	32796	32715	
1470	0	32898	32734	
1471	0	32796	32842	
1472	0	32848	32724	
1473	0	32780	32764	
1474	0	32848	32886	
1475	0	32772	32728	
1476	0	32846	32836	
1477	0	32864	32748	
1478	0	32808	32738	
1479	0	32848	32647	
1480	0	32826	32775	
1481	0	32800	32815	
1482	0	32792	32718	
1483	0	32804	32754	
1484	0	32800	32746	
1485	0	32840	32634	
1486	0	32756	32906	
1487	0	32776	32790	
1488	0	32770	32775	
1489	0	32800	32768	
1490	0	32808	32796	
1491	0	32746	32800	
1492	0	32852	32706	
1493	0	32816	32822	
1494	0	32840	32852	
1495	0	32772	32679	
1496	0	32800	32756	
1497	0	32856	32759	
1498	0	32808	32748	
1499	0	32848	32732	
1500	0	32812	32738	
1501	0	32806	32775	
1502	0	32812	32722	
1503	0	32856	32806	
1504	0	32820	32826	
1505	0	32804	32804	
1506	0	32824	32791	
1507	0	32828	32838	
1508	0	32880	32804	
1509	0	32816	32768	
1510	0	32812	32828	
1511	0	32820	32711	
1512	0	32788	32872	
1513	0	32768	32712	
1514	0	32746	32871	
1515	0	32740	32850	
1516	0	32780	32724	
1517	0	32850	32806	
1518	0	32812	32766	
1519	0	32804	32647	
1520	0	32836	32804	
1521	0	32818	32796	
1522	0	32816	32784	
1523	0	32744	32698	
1524	0	32696	32740	
1525	0	32778	32792	
1526	0	32852	32840	
1527	0	32764	32670	
1528	0	32823	32756	
1529	0	32868	32804	
1530	0	32848	32775	
1531	0	32836	32754	
1532	0	32764	32658	
1533	0	32840	32774	
1534	0	32840	32736	
1535	0	32874	32878	
1536	0	32836	32792	
1537	0	32830	32816	
1538	0	32772	32775	
1539	0	32854	32738	
1540	0	32812	32740	
1541	0	32724	32775	
1542	0	32792	32844	
1543	0	32806	32766	
1544	0	32756	32770	
1545	0	32838	32800	
1546	0	32812	32754	
1547	0	32816	32746	
1548	0	32800	32668	
1549	0	32796	32796	
1550	0	32820	32680	
1551	0	32832	32806	
1552	0	32826	32706	
1553	0	32798	32636	
1554	0	32794	32750	
1555	0	32812	32903	
1556	0	32823	32679	
1557	0	32812	32872	
1558	0	32796	32740	
1559	0	32784	32790	
1560	0	32764	32775	
1561	0	32808	32738	
1562	0	32784	32874	
1563	0	32884	32743	
1564	0	32864	32820	
1565	0	32800	32690	
1566	0	32832	32810	
1567	0	32836	32743	
1568	0	32830	32752	
1569	0	32814	32734	
1570	0	32770	32820	
1571	0	32864	32700	
1572	0	32798	32840	
1573	0	32824	32775	
1574	0	32760	32726	
1575	0	32844	32864	
1576	0	32786	32839	
1577	0	32788	32674	
1578	0	32828	32772	
1579	0	32768	32840	
1580	0	32836	32634	
1581	0	32806	32846	
1582	0	32848	32855	
1583	0	32818	32692	
1584	0	32802	32830	
1585	0	32884	32712	
1586	0	32784	32772	
1587	0	32812	32734	
1588	0	32842	32735	
1589	0	32824	32849	
1590	0	32804	32711	
1591	0	32868	32716	
1592	0	32828	32682	
1593	0	32916	32784	
1594	0	32802	32800	
1595	0	32820	32735	
1596	0	32736	32810	
1597	0	32866	32886	
1598	0	32874	32712	
1599	0	32860	32808	
1600	0	32830	32844	
1601	0	32816	32718	
1602	0	32864	32816	
1603	0	32680	32750	
1604	0	32804	32844	
1605	0	32796	32736	
1606	0	32765	32846	
1607	0	32848	32768	
1608	0	32758	32730	
1609	0	32800	32806	
1610	0	32784	32722	
1611	0	32790	32791	
1612	0	32782	32668	
1613	0	32810	32862	
1614	0	32810	32756	
1615	0	32800	32708	
1616	0	32854	32775	
1617	0	32768	32814	
1618	0	32802	32764	
1619	0	32852	32796	
1620	0	32848	32756	
1621	0	32906	32846	
1622	0	32872	32811	
1623	0	32828	32775	
1624	0	32770	32756	
1625	0	32828	32760	
1626	0	32784	32748	
1627	0	32848	32775	
1628	0	32772	32820	
1629	0	32828	32856	
1630	0	32778	32639	
1631	0	32826	32791	
1632	0	32772	32718	
1633	0	32854	32836	
1634	0	32812	32698	
1635	0	32744	32839	
1636	0	32832	32822	
1637	0	32764	32698	
1638	0	32756	32775	
1639	0	32800	32736	
1640	0	32876	32727	
1641	0	32788	32746	
1642	0	32776	32855	
1643	0	32808	32792	
1644	0	32810	32798	
1645	0	32834	32796	
1646	0	32756	32768	
1647	0	32800	32772	
1648	0	32872	32848	
1649	0	32782	32764	
1650	0	32816	32819	
1651	0	32808	32724	
1652	0	32812	32806	
1653	0	32844	32751	
1654	0	32810	32620	
1655	0	32792	32760	
1656	0	32782	32814	
1657	0	32784	32836	
1658	0	32820	32726	
1659	0	32770	32758	
1660	0	32780	32807	
1661	0	32824	32819	
1662	0	32816	32652	
1663	0	32808	32784	
1664	0	32852	32814	
1665	0	32800	32832	
1666	0	32820	32788	
1667	0	32758	32824	
1668	0	32860	32855	
1669	0	32748	32560	
1670	0	32768	32794	
1671	0	32758	32775	
1672	0	32738	32718	
1673	0	32904	32788	
1674	0	32830	32686	
1675	0	32808	32760	
1676	0	32868	32796	
1677	0	32840	32847	
1678	0	32878	32706	
1679	0	32782	32836	
1680	0	32816	32791	
1681	0	32828	32746	
1682	0	32834	32694	
1683	0	32788	32812	
1684	0	32804	32750	
1685	0	32848	32792	
1686	0	32800	32679	
1687	0	32832	32854	
1688	0	32748	32824	
1689	0	32798	32790	
1690	0	32818	32638	
1691	0	32788	32775	
1692	0	32806	32788	
1693	0	32822	32696	
1694	0	32764	32812	
1695	0	32870	32768	
1696	0	32786	32896	
1697	0	32840	32672	
1698	0	32796	32788	
1699	0	32792	32768	
1700	0	32768	32807	
1701	0	32830	32790	
1702	0	32832	32794	
1703	0	32756	32830	
1704	0	32808	32625	
1705	0	32788	32740	
1706	0	32836	32775	
1707	0	32866	32810	
1708	0	32856	32712	
1709	0	32796	32754	
1710	0	32800	32846	
1711	0	32834	32788	
1712	0	32804	32734	
1713	0	32825	32820	
1714	0	32808	32798	
1715	0	32824	32775	
1716	0	32798	32775	
1717	0	32792	32820	
1718	0	32794	32696	
1719	0	32836	32863	
1720	0	32828	32852	
1721	0	32783	32772	
1722	0	32776	32675	
1723	0	32852	32766	
1724	0	32804	32807	
1725	0	32760	32774	
1726	0	32836	32756	
1727	0	32780	32720	
1728	0	32776	32834	
1729	0	32784	32646	
1730	0	32796	32796	
1731	0	32768	32754	
1732	0	32840	32680	
1733	0	32832	32753	
1734	0	32776	32740	
1735	0	32848	32807	
1736	0	32802	32686	
1737	0	32852	32766	
1738	0	32804	32864	
1739	0	32800	32796	
1740	0	32810	32820	
1741	0	32828	32775	
1742	0	32834	32814	
1743	0	32820	32728	
1744	0	32844	32770	
1745	0	32846	32710	
1746	0	32828	32891	
1747	0	32852	32732	
1748	0	32778	32726	
1749	0	32828	32852	
1750	0	32864	32828	
1751	0	32788	32788	
1752	0	32840	32850	
1753	0	32868	32791	
1754	0	32848	32742	
1755	0	32860	32794	
1756	0	32792	32788	
1757	0	32928	32830	
1758	0	32924	32824	
1759	0	32856	32807	
1760	0	32824	32914	
1761	0	32844	32775	
1762	0	32848	32842	
1763	0	32804	32775	
1764	0	32740	32678	
1765	0	32788	32626	
1766	0	32712	32584	
1767	0	32616	32500	
1768	0	32620	32478	
1769	0	32592	32526	
1770	0	32694	32422	
1771	0	32660	32391	
1772	0	32660	32442	
1773	0	32688	32612	
1774	0	32794	32687	
1775	0	32740	32764	
1776	0	32794	32847	
1777	0	32804	32790	
1778	0	32816	32820	
1779	0	32812	32895	
1780	0	32878	32823	
1781	0	32856	32928	
1782	0	32940	32918	
1783	0	32949	32884	
1784	0	32924	32820	
1785	0	32936	32844	
1786	0	32946	32962	
1787	0	32880	32946	
1788	0	32852	32910	
1789	0	32792	32806	
1790	0	32820	32810	
1791	0	32916	32870	
1792	0	32844	32802	
1793	0	32860	32840	
1794	0	32848	32773	
1795	0	32860	32756	
1796	0	32748	32884	
1797	0	32756	32735	
1798	0	32806	32678	
1799	0	32818	32806	
1800	0	32832	32753	
1801	0	32770	32843	
1802	0	32814	32711	
1803	0	32756	32644	
1804	0	32748	32700	
1805	0	32760	32798	
1806	0	32796	32775	
1807	0	32792	32704	
1808	0	32748	32700	
1809	0	32842	32718	
1810	0	32846	32753	
1811	0	32824	32636	
1812	0	32776	32746	
1813	0	32772	32831	
1814	0	32772	32738	
1815	0	32780	32775	
1816	0	32834	32775	
1817	0	32782	32742	
1818	0	32816	32748	
1819	0	32836	32750	
1820	0	32852	32792	
1821	0	32806	32716	
1822	0	32748	32748	
1823	0	32740	32818	
1824	0	32786	32730	
1825	0	32774	32700	
1826	0	32866	32828	
1827	0	32824	32830	
1828	0	32747	32724	
1829	0	32794	32754	
1830	0	32860	32770	
1831	0	32848	32838	
1832	0	32772	32688	
1833	0	32832	32878	
1834	0	32698	32736	
1835	0	32919	32774	
1836	0	32812	32712	
1837	0	32780	32788	
1838	0	32804	32800	
1839	0	32808	32775	
1840	0	32775	32700	
1841	0	32832	32714	
1842	0	32816	32794	
1843	0	32808	32774	
1844	0	32832	32755	
1845	0	32766	32764	
1846	0	32834	32722	
1847	0	32838	32775	
1848	0	32816	32708	
1849	0	32872	32708	
1850	0	32836	32823	
1851	0	32872	32764	
1852	0	32826	32705	
1853	0	32878	32759	
1854	0	32786	32796	
1855	0	32744	32730	
1856	0	32784	32764	
1857	0	32804	32750	
1858	0	32816	32756	
1859	0	32766	32698	
1860	0	32858	32836	
1861	0	32798	32708	
1862	0	32810	32770	
1863	0	32800	32744	
1864	0	32840	32840	
1865	0	32888	32788	
1866	0	32810	32724	
1867	0	32788	32775	
1868	0	32838	32775	
1869	0	32836	32760	
1870	0	32780	32740	
1871	0	32844	32694	
1872	0	32812	32708	
1873	0	32782	32892	
1874	0	32768	32775	
1875	0	32820	32672	
1876	0	32823	32850	
1877	0	32808	32766	
1878	0	32744	32780	
1879	0	32872	32775	
1880	0	32846	32726	
1881	0	32842	32836	
1882	0	32812	32743	
1883	0	32818	32786	
1884	0	32816	32694	
1885	0	32780	32694	
1886	0	32776	32894	
1887	0	32834	32812	
1888	0	32820	32839	
1889	0	32798	32668	
1890	0	32830	32824	
1891	0	32812	32826	
1892	0	32808	32672	
1893	0	32846	32818	
1894	0	32760	32748	
1895	0	32840	32756	
1896	0	32812	32711	
1897	0	32740	32775	
1898	0	32788	32760	
1899	0	32842	32695	
1900	0	32768	32744	
1901	0	32826	32734	
1902	0	32820	32780	
1903	0	32844	32668	
1904	0	32820	32810	
1905	0	32848	32762	
1906	0	32760	32726	
1907	0	32846	32732	
1908	0	32758	32772	
1909	0	32781	32839	
1910	0	32836	32700	
1911	0	32820	32806	
1912	0	32788	32847	
1913	0	32864	32772	
1914	0	32802	32802	
1915	0	32852	32790	
1916	0	32824	32700	
1917	0	32828	32832	
1918	0	32856	32775	
1919	0	32782	32668	
1920	0	32816	32823	
1921	0	32860	32743	
1922	0	32816	32842	
1923	0	32792	32689	
1924	0	32814	32818	
1925	0	32792	32743	
1926	0	32764	32800	
1927	0	32776	32680	
1928	0	32748	32820	
1929	0	32788	32766	
1930	0	32804	32732	
1931	0	32796	32862	
1932	0	32836	32734	
1933	0	32760	32820	
1934	0	32822	32764	
1935	0	32896	32834	
1936	0	32798	32770	
1937	0	32784	32692	
1938	0	32868	32834	
1939	0	32880	32802	
1940	0	32812	32800	
1941	0	32826	32728	
1942	0	32764	32775	
1943	0	32836	32804	
1944	0	32802	32832	
1945	0	32796	32603	
1946	0	32840	32802	
1947	0	32836	32804	
1948	0	32748	32773	
1949	0	32840	32692	
1950	0	32836	32761	
1951	0	32876	32775	
1952	0	32800	32802	
1953	0	32848	32762	
1954	0	32792	32808	
1955	0	32700	32775	
1956	0	32812	32767	
1957	0	32800	32802	
1958	0	32748	32660	
1959	0	32816	32892	
1960	0	32712	32806	
1961	0	32800	32790	
1962	0	32814	32680	
1963	0	32872	32775	
1964	0	32900	32764	
1965	0	32780	32830	
1966	0	32832	32706	
1967	0	32844	32756	
1968	0	32808	32898	
1969	0	32788	32775	
1970	0	32804	32812	
1971	0	32802	32698	
1972	0	32838	32775	
1973	0	32778	32753	
1974	0	32804	32736	
1975	0	32756	32612	
1976	0	32804	32716	
1977	0	32800	32775	
1978	0	32840	32726	
1979	0	32814	32774	
1980	0	32804	32724	
1981	0	32804	32704	
1982	0	32860	32726	
1983	0	32814	32790	
1984	0	32860	32834	
1985	0	32872	32716	
1986	0	32832	32831	
1987	0	32812	32816	
1988	0	32744	32895	
1989	0	32856	32772	
1990	0	32854	32775	
1991	0	32816	32742	
1992	0	32840	32804	
1993	0	32762	32799	
1994	0	32768	32759	
1995	0	32800	32695	
1996	0	32774	32762	
1997	0	32816	32722	
1998	0	32753	32820	
1999	0	32816	32754	
2000	0	32806	32894	
2001	0	32818	32762	
2002	0	32816	32796	
2003	0	32804	32804	
2004	0	32792	32746	
2005	0	32766	32644	
2006	0	32780	32820	
2007	0	32816	32668	
2008	0	32836	32692	
2009	0	32804	32754	
2010	0	32812	32788	
2011	0	32896	32876	
2012	0	32808	32718	
2013	0	32848	32799	
2014	0	32778	32732	
2015	0	32816	32758	
2016	0	32820	32804	
2017	0	32840	32743	
2018	0	32792	32807	
2019	0	32840	32753	
2020	0	32802	32774	
2021	0	32884	32817	
2022	0	32862	32676	
2023	0	32828	32766	
2024	0	32848	32774	
2025	0	32741	32728	
2026	0	32776	32740	
2027	0	32864	32746	
2028	0	32828	32758	
2029	0	32808	32716	
2030	0	32880	32814	
2031	0	32808	32775	
2032	0	32752	32701	
2033	0	32804	32796	
2034	0	32832	32830	
2035	0	32768	32744	
2036	0	32848	32814	
2037	0	32768	32803	
2038	0	32860	32704	
2039	0	32780	32850	
2040	0	32800	32734	
2041	0	32780	32640	
2042	0	32768	32823	
2043	0	32808	32744	
2044	0	32840	32682	
2045	0	32800	32862	
2046	0	32800	32796	
2047	0	32824	32834	
2048	0	32782	32736	
2049	0	32740	32801	
2050	0	32808	32747	
2051	0	32864	32855	
2052	0	32860	32794	
2053	0	32816	32736	
2054	0	32868	32816	
2055	0	32820	32790	
2056	0	32838	32858	
2057	0	32798	32724	
2058	0	32828	32763	
2059	0	32774	32756	
2060	0	32836	32731	
2061	0	32792	32805	
2062	0	32748	32800	
2063	0	32844	32804	
2064	0	32810	32792	
2065	0	32840	32760	
2066	0	32800	32712	
2067	0	32810	32806	
2068	0	32808	32730	
2069	0	32828	32750	
2070	0	32846	32784	
2071	0	32752	32775	
2072	0	32760	32828	
2073	0	32810	32830	
2074	0	32776	32794	
2075	0	32880	32761	
2076	0	32795	32756	
2077	0	32832	32897	
2078	0	32884	32662	
2079	0	32868	32775	
2080	0	32804	32696	
2081	0	32824	32802	
2082	0	32834	32839	
2083	0	32824	32774	
2084	0	32852	32704	
2085	0	32826	32802	
2086	0	32770	32842	
2087	0	32856	32772	
2088	0	32812	32764	
2089	0	32766	32710	
2090	0	32800	32748	
2091	0	32788	32737	
2092	0	32772	32740	
2093	0	32814	32766	
2094	0	32868	32719	
2095	0	32780	32838	
2096	0	32847	32764	
2097	0	32822	32748	
2098	0	32832	32863	
2099	0	32820	32775	
2100	0	32778	32760	
2101	0	32792	32790	
2102	0	32806	32810	
2103	0	32874	32682	
2104	0	32841	32700	
2105	0	32788	32839	
2106	0	32868	32788	
2107	0	32816	32694	
2108	0	32872	32794	
2109	0	32808	32692	
2110	0	32798	32750	
2111	0	32814	32791	
2112	0	32812	32742	
2113	0	32862	32768	
2114	0	32764	32724	
2115	0	32808	32708	
2116	0	32886	32812	
2117	0	32766	32748	
2118	0	32782	32804	
2119	0	32860	32820	
2120	0	32842	32740	
2121	0	32788	32844	
2122	0	32782	32726	
2123	0	32818	32812	
2124	0	32864	32742	
2125	0	32848	32774	
2126	0	32770	32775	
2127	0	32800	32676	
2128	0	32812	32775	
2129	0	32804	32804	
2130	0	32852	32722	
2131	0	32780	32819	
2132	0	32849	32807	
2133	0	32830	32720	
2134	0	32832	32720	
2135	0	32840	32740	
2136	0	32852	32758	
2137	0	32820	32750	
2138	0	32800	32702	
2139	0	32760	32854	
2140	0	32786	32766	
2141	0	32872	32722	
2142	0	32820	32747	
2143	0	32752	32819	
2144	0	32854	32775	
2145	0	32836	32775	
2146	0	32844	32734	
2147	0	32768	32775	
2148	0	32754	32807	
2149	0	32816	32740	
2150	0	32804	32831	
2151	0	32834	32720	
2152	0	32884	32804	
2153	0	32830	32775	
2154	0	32748	32860	
2155	0	32840	32796	
2156	0	32796	32756	
2157	0	32776	32724	
2158	0	32872	32816	
2159	0	32816	32775	
2160	0	32852	32775	
2161	0	32810	32758	
2162	0	32788	32774	
2163	0	32844	32804	
2164	0	32778	32770	
2165	0	32834	32793	
2166	0	32780	32646	
2167	0	32818	32775	
2168	0	32760	32686	
2169	0	32794	32706	
2170	0	32892	32672	
2171	0	32834	32768	
2172	0	32812	32666	
2173	0	32808	32794	
2174	0	32762	32768	
2175	0	32904	32766	
2176	0	32792	32808	
2177	0	32768	32810	
2178	0	32800	32654	
2179	0	32848	32722	
2180	0	32788	32764	
2181	0	32758	32806	
2182	0	32826	32720	
2183	0	32792	32768	
2184	0	32820	32770	
2185	0	32840	32679	
2186	0	32788	32800	
2187	0	32808	32852	
2188	0	32830	32791	
2189	0	32744	32828	
2190	0	32832	32788	
2191	0	32800	32700	
2192	0	32824	32810	
2193	0	32776	32775	
2194	0	32776	32670	
2195	0	32880	32839	
2196	0	32792	32884	
2197	0	32810	32751	
2198	0	32772	32903	
2199	0	32804	32720	
2200	0	32756	32710	
2201	0	32856	32690	
2202	0	32804	32775	
2203	0	32908	32814	
2204	0	32788	32734	
2205	0	32810	32843	
2206	0	32853	32768	
2207	0	32816	32688	
2208	0	32764	32775	
2209	0	32788	32732	
2210	0	32816	32775	
2211	0	32856	32722	
2212	0	32838	32774	
2213	0	32810	32851	
2214	0	32766	32704	
2215	0	32826	32785	
2216	0	32830	32774	
2217	0	32812	32705	
2218	0	32830	32790	
2219	0	32776	32724	
2220	0	32720	32692	
2221	0	32788	32714	
2222	0	32834	32783	
2223	0	32828	32740	
2224	0	32826	32712	
2225	0	32774	32724	
2226	0	32804	32720	
2227	0	32836	32860	
2228	0	32768	32834	
2229	0	32812	32792	
2230	0	32802	32775	
2231	0	32836	32808	
2232	0	32796	32756	
2233	0	32811	32834	
2234	0	32816	32660	
2235	0	32856	32790	
2236	0	32860	32864	
2237	0	32788	32746	
2238	0	32860	32842	
2239	0	32784	32770	
2240	0	32872	32798	
2241	0	32836	32678	
2242	0	32785	32774	
2243	0	32782	32841	
2244	0	32838	32686	
2245	0	32818	32876	
2246	0	32792	32759	
2247	0	32804	32775	
2248	0	32822	32676	
2249	0	32756	32754	
2250	0	32846	32814	
2251	0	32836	32760	
2252	0	32801	32740	
2253	0	32736	32822	
2254	0	32864	32816	
2255	0	32810	32810	
2256	0	32816	32639	
2257	0	32816	32718	
2258	0	32816	32734	
2259	0	32848	32839	
2260	0	32778	32711	
2261	0	32788	32762	
2262	0	32886	32854	
2263	0	32800	32796	
2264	0	32826	32796	
2265	0	32748	32734	
2266	0	32788	32816	
2267	0	32830	32702	
2268	0	32801	32762	
2269	0	32788	32843	
2270	0	32842	32692	
2271	0	32884	32828	
2272	0	32776	32818	
2273	0	32898	32704	
2274	0	32798	32774	
2275	0	32840	32764	
2276	0	32882	32668	
2277	0	32822	32852	
2278	0	32820	32748	
2279	0	32832	32716	
2280	0	32800	32702	
2281	0	32766	32726	
2282	0	32756	32714	
2283	0	32822	32788	
2284	0	32782	32670	
2285	0	32824	32860	
2286	0	32800	32856	
2287	0	32848	32683	
2288	0	32792	32752	
2289	0	32848	32775	
2290	0	32826	32804	
2291	0	32800	32865	
2292	0	32784	32726	
2293	0	32812	32775	
2294	0	32738	32864	
2295	0	32882	32710	
2296	0	32758	32768	
2297	0	32796	32668	
2298	0	32802	32748	
2299	0	32782	32732	
2300	0	32814	32702	
2301	0	32814	32815	
2302	0	32860	32894	
2303	0	32792	32708	
2304	0	32818	32884	
2305	0	32800	32756	
2306	0	32820	32666	
2307	0	32828	32762	
2308	0	32750	32684	
2309	0	32812	32680	
2310	0	32792	32724	
2311	0	32738	32720	
2312	0	32782	32766	
2313	0	32774	32822	
2314	0	32837	32746	
2315	0	32872	32764	
2316	0	32836	32813	
2317	0	32788	32782	
2318	0	32856	32822	
2319	0	32868	32790	
2320	0	32808	32812	
2321	0	32832	32788	
2322	0	32808	32694	
2323	0	32772	32738	
2324	0	32808	32746	
2325	0	32792	32814	
2326	0	32796	32836	
2327	0	32800	32630	
2328	0	32836	32831	
2329	0	32810	32788	
2330	0	32834	32676	
2331	0	32744	32774	
2332	0	32828	32850	
2333	0	32738	32676	
2334	0	32860	32826	
2335	0	32820	32812	
2336	0	32820	32729	
2337	0	32810	32702	
2338	0	32852	32722	
2339	0	32762	32736	
2340	0	32888	32774	
2341	0	32826	32840	
2342	0	32810	32689	
2343	0	32828	32788	
2344	0	32792	32815	
2345	0	32892	32742	
2346	0	32806	32806	
2347	0	32784	32822	
2348	0	32832	32758	
2349	0	32768	32724	
2350	0	32820	32730	
2351	0	32864	32750	
2352	0	32804	32722	
2353	0	32724	32828	
2354	0	32884	32807	
2355	0	32870	32806	
2356	0	32752	32647	
2357	0	32848	32763	
2358	0	32832	32804	
2359	0	32782	32887	
2360	0	32846	32810	
2361	0	32796	32697	
2362	0	32906	32791	
2363	0	32844	32820	
2364	0	32830	32686	
2365	0	32840	32743	
2366	0	32768	32712	
2367	0	32756	32700	
2368	0	32838	32775	
2369	0	32810	32666	
2370	0	32830	32830	
2371	0	32822	32815	
2372	0	32732	32703	
2373	0	32836	32774	
2374	0	32864	32830	
2375	0	32800	32854	
2376	0	32810	32746	
2377	0	32844	32708	
2378	0	32856	32808	
2379	0	32794	32824	
2380	0	32832	32730	
2381	0	32826	32775	
2382	0	32866	32772	
2383	0	32796	32824	
2384	0	32856	32838	
2385	0	32824	32775	
2386	0	32832	32730	
2387	0	32812	32762	
2388	0	32836	32764	
2389	0	32792	32846	
2390	0	32812	32732	
2391	0	32822	32806	
2392	0	32856	32736	
2393	0	32824	32684	
2394	0	32728	32826	
2395	0	32790	32836	
2396	0	32796	32693	
2397	0	32844	32740	
2398	0	32792	32712	
2399	0	32842	32844	
2400	0	32784	32903	
2401	0	32760	32728	
2402	0	32744	32792	
2403	0	32856	32775	
2404	0	32796	32652	
2405	0	32820	32775	
2406	0	32792	32775	
2407	0	32786	32673	
2408	0	32744	32796	
2409	0	32824	32864	
2410	0	32796	32706	
2411	0	32872	32775	
2412	0	32832	32836	
2413	0	32808	32724	
2414	0	32776	32726	
2415	0	32844	32730	
2416	0	32860	32922	
2417	0	32748	32790	
2418	0	32820	32720	
2419	0	32820	32798	
2420	0	32818	32852	
2421	0	32856	32673	
2422	0	32884	32770	
2423	0	32836	32814	
2424	0	32832	32664	
2425	0	32776	32818	
2426	0	32838	32868	
2427	0	32770	32789	
2428	0	32832	32794	
2429	0	32880	32838	
2430	0	32756	32708	
2431	0	32860	32748	
2432	0	32794	32700	
2433	0	32816	32774	
2434	0	32852	32806	
2435	0	32824	32668	
2436	0	32838	32775	
2437	0	32772	32838	
2438	0	32760	32719	
2439	0	32764	32817	
2440	0	32738	32844	
2441	0	32812	32792	
2442	0	32858	32886	
2443	0	32848	32926	
2444	0	32831	32868	
2445	0	32832	32802	
2446	0	32852	32672	
2447	0	32840	32760	
2448	0	32900	32807	
2449	0	32836	32762	
2450	0	32880	32916	
2451	0	32864	32860	
2452	0	32968	32976	
2453	0	32910	32982	
2454	0	32824	32826	
2455	0	32844	32720	
2456	0	32716	32564	
2457	0	32698	32564	
2458	0	32652	32572	
2459	0	32628	32478	
2460	0	32624	32356	
2461	0	32636	32563	
2462	0	32608	32449	
2463	0	32640	32420	
2464	0	32716	32510	
2465	0	32724	32772	
2466	0	32775	32590	
2467	0	32812	32668	
2468	0	32793	32744	
2469	0	32826	32720	
2470	0	32812	32871	
2471	0	32962	32876	
2472	0	32832	32944	
2473	0	32912	32898	
2474	0	32828	32934	
2475	0	32872	32871	
2476	0	32860	32852	
2477	0	32944	32892	
2478	0	32944	32816	
2479	0	32864	32919	
2480	0	32876	32814	
2481	0	32920	32719	
2482	0	32896	32951	
2483	0	32888	32858	
2484	0	32828	32814	
2485	0	32942	32822	
2486	0	32892	32815	
2487	0	32908	32865	
2488	0	32848	32817	
2489	0	32789	32807	
2490	0	32844	32802	
2491	0	32786	32552	
2492	0	32812	32848	
2493	0	32828	32832	
2494	0	32724	32732	
2495	0	32754	32806	
2496	0	32772	32807	
2497	0	32836	32640	
2498	0	32784	32902	
2499	0	32796	32866	
2500	0	32806	32584	
2501	0	32816	32670	
2502	0	32762	32679	
2503	0	32828	32628	
2504	0	32800	32720	
2505	0	32790	32784	
2506	0	32788	32688	
2507	0	32810	32706	
2508	0	32860	32830	
2509	0	32778	32675	
2510	0	32788	32764	
2511	0	32788	32775	
2512	0	32764	32872	
2513	0	32788	32824	
2514	0	32778	32683	
2515	0	32808	32758	
2516	0	32744	32844	
2517	0	32826	32750	
2518	0	32856	32838	
2519	0	32884	32810	
2520	0	32852	32810	
2521	0	32766	32810	
2522	0	32772	32870	
2523	0	32832	32736	
2524	0	32794	32798	
2525	0	32850	32811	
2526	0	32772	32704	
2527	0	32854	32732	
2528	0	32822	32712	
2529	0	32780	32708	
2530	0	32808	32746	
2531	0	32826	32738	
2532	0	32844	32690	
2533	0	32808	32692	
2534	0	32716	32644	
2535	0	32780	32838	
2536	0	32764	32750	
2537	0	32800	32854	
2538	0	32772	32794	
2539	0	32836	32764	
2540	0	32772	32734	
2541	0	32812	32815	
2542	0	32864	32740	
2543	0	32756	32742	
2544	0	32826	32956	
2545	0	32874	32846	
2546	0	32856	32732	
2547	0	32810	32868	
2548	0	32800	32822	
2549	0	32760	32742	
2550	0	32840	32714	
2551	0	32832	32642	
2552	0	32800	32820	
2553	0	32823	32714	
2554	0	32812	32740	
2555	0	32854	32800	
2556	0	32784	32862	
2557	0	32796	32758	
2558	0	32788	32732	
2559	0	32788	32612	
2560	0	32802	32808	
2561	0	32812	32738	
2562	0	32850	32892	
2563	0	32880	32798	
2564	0	32860	32643	
2565	0	32844	32772	
2566	0	32874	32748	
2567	0	32824	32598	
2568	0	32836	32660	
2569	0	32760	32702	
2570	0	32810	32658	
2571	0	32826	32766	
2572	0	32824	32756	
2573	0	32836	32856	
2574	0	32812	32775	
2575	0	32748	32790	
2576	0	32804	32880	
2577	0	32746	32784	
2578	0	32786	32844	
2579	0	32792	32886	
2580	0	32848	32862	
2581	0	32808	32864	
2582	0	32764	32866	
2583	0	32798	32738	
2584	0	32834	32712	
2585	0	32832	32678	
2586	0	32860	32742	
2587	0	32856	32844	
2588	0	32956	32660	
2589	0	32808	32688	
2590	0	32868	32674	
2591	0	32828	32770	
2592	0	32789	32840	
2593	0	32740	32918	
2594	0	32770	32775	
2595	0	32808	32775	
2596	0	32764	32818	
2597	0	32756	32688	
2598	0	32800	32644	
2599	0	32824	32743	
2600	0	32858	32706	
2601	0	32876	32794	
2602	0	32852	32616	
2603	0	32780	32742	
2604	0	32828	32775	
2605	0	32824	32958	
2606	0	32730	32798	
2607	0	32864	32700	
2608	0	32832	32808	
2609	0	32740	32775	
2610	0	32808	32704	
2611	0	32748	32716	
2612	0	32808	32703	
2613	0	32756	32874	
2614	0	32874	32684	
2615	0	32820	32560	
2616	0	32784	32870	
2617	0	32860	32908	
2618	0	32804	32775	
2619	0	32828	32853	
2620	0	32844	32875	
2621	0	32808	32804	
2622	0	32856	32820	
2623	0	32874	32838	
2624	0	32804	32852	
2625	0	32812	32808	
2626	0	32832	32698	
2627	0	32848	32884	
2628	0	32808	32798	
2629	0	32824	32730	
2630	0	32800	32774	
2631	0	32798	32680	
2632	0	32788	32892	
2633	0	32816	32702	
2634	0	32800	32628	
2635	0	32796	32799	
2636	0	32737	32788	
2637	0	32810	32822	
2638	0	32800	32870	
2639	0	32778	32788	
2640	0	32836	32647	
2641	0	32802	32666	
2642	0	32760	32700	
2643	0	32832	32855	
2644	0	32854	32842	
2645	0	32864	32814	
2646	0	32786	32774	
2647	0	32768	32716	
2648	0	32794	32640	
2649	0	32806	32596	
2650	0	32768	32598	
2651	0	32792	32736	
2652	0	32830	32794	
2653	0	32790	32764	
2654	0	32834	32772	
2655	0	32826	32846	
2656	0	32756	32948	
2657	0	32780	32892	
2658	0	32808	32852	
2659	0	32812	32796	
2660	0	32844	32764	
2661	0	32788	32696	
2662	0	32746	32798	
2663	0	32872	32708	
2664	0	32832	32630	
2665	0	32850	32784	
2666	0	32821	32742	
2667	0	32820	32782	
2668	0	32844	32842	
2669	0	32802	32807	
2670	0	32812	32908	
2671	0	32796	32864	
2672	0	32812	32716	
2673	0	32878	32772	
2674	0	32846	32682	
2675	0	32872	32828	
2676	0	32775	32862	
2677	0	32756	32812	
2678	0	32714	32716	
2679	0	32830	32721	
2680	0	32818	32572	
2681	0	32838	32615	
2682	0	32784	32775	
2683	0	32804	32698	
2684	0	32750	32791	
2685	0	32812	32874	
2686	0	32913	32810	
2687	0	32858	32855	
2688	0	32876	32806	
2689	0	32828	32944	
2690	0	32826	32802	
2691	0	32800	32492	
2692	0	32752	32536	
2693	0	32776	32676	
2694	0	32852	32775	
2695	0	32772	32614	
2696	0	32792	32826	
2697	0	32828	32858	
2698	0	32784	32868	
2699	0	32786	32884	
2700	0	32780	32903	
2701	0	32790	33018	
2702	0	32808	32926	
2703	0	32872	32950	
2704	0	32824	32672	
2705	0	32800	32726	
2706	0	32882	32692	
2707	0	32852	32688	
2708	0	32826	32583	
2709	0	32832	32764	
2710	0	32788	32680	
2711	0	32758	32748	
2712	0	32732	32750	
2713	0	32756	32918	
2714	0	32768	32916	
2715	0	32756	32870	
2716	0	32746	32950	
2717	0	32838	33030	
2718	0	32836	32630	
2719	0	32832	32772	
2720	0	32776	32644	
2721	0	32748	32630	
2722	0	32758	32658	
2723	0	32768	32628	
2724	0	32798	32839	
2725	0	32772	32682	
2726	0	32804	32828	
2727	0	32852	32742	
2728	0	32840	32734	
2729	0	32824	32756	
2730	0	32836	32931	
2731	0	32914	32882	
2732	0	32908	32775	
2733	0	32818	32519	
2734	0	32794	32710	
2735	0	32840	32775	
2736	0	32744	32481	
2737	0	32840	32536	
2738	0	32836	32844	
2739	0	32826	33128	
2740	0	32900	32958	
2741	0	32930	32836	
2742	0	32894	32828	
2743	0	32800	32726	
2744	0	32874	32756	
2745	0	32880	32967	
2746	0	32752	32980	
2747	0	32752	32704	
2748	0	32764	32600	
2749	0	32648	32618	
2750	0	32730	32820	
2751	0	32752	32750	
2752	0	32706	32690	
2753	0	32724	32904	
2754	0	32816	32952	
2755	0	32792	32820	
2756	0	32812	32788	
2757	0	32904	32664	
2758	0	32796	32626	
2759	0	32752	32689	
2760	0	32828	32688	
2761	0	32848	32744	
2762	0	32836	32830	
2763	0	32850	32871	
2764	0	32856	32856	
2765	0	32832	32559	
2766	0	32918	32596	
2767	0	32880	32666	
2768	0	32860	32494	
2769	0	32850	32715	
2770	0	32853	33002	
2771	0	32846	32910	
2772	0	32772	33107	
2773	0	32742	33044	
2774	0	32738	32748	
2775	0	32768	32842	
2776	0	32792	32708	
2777	0	32800	32584	
2778	0	32828	32814	
2779	0	32794	32832	
2780	0	32720	32515	
2781	0	32744	32519	
2782	0	32670	32644	
2783	0	32780	32792	
2784	0	32836	32688	
2785	0	32912	32740	
2786	0	32844	32752	
2787	0	32868	32727	
2788	0	32836	32816	
2789	0	32902	32836	
2790	0	32896	32996	
2791	0	32828	32886	
2792	0	32856	32736	
2793	0	32852	32792	
2794	0	32868	32798	
2795	0	32820	32674	
2796	0	32760	32708	
2797	0	32800	32519	
2798	0	32792	32550	
2799	0	32817	32664	
2800	0	32806	32814	
2801	0	32826	32932	
2802	0	32786	32838	
2803	0	32824	32836	
2804	0	32802	32884	
2805	0	32856	32754	
2806	0	32848	33046	
2807	0	32800	32940	
2808	0	32858	32810	
2809	0	32758	32760	
2810	0	32832	32550	
2811	0	32774	32660	
2812	0	32780	32744	
2813	0	32880	32798	
2814	0	32784	32818	
2815	0	32840	32796	
2816	0	32864	32614	
2817	0	32792	32828	
2818	0	32712	32678	
2819	0	32804	32816	
2820	0	32860	32858	
2821	0	32894	32759	
2822	0	32953	32922	
2823	0	33084	33065	
2824	0	33006	32740	
2825	0	32860	32466	
2826	0	32956	32508	
2827	0	32964	32396	
2828	0	32842	32384	
2829	0	32860	32718	
2830	0	32744	32896	
2831	0	32754	33230	
2832	0	32908	32960	
2833	0	33042	33026	
2834	0	32888	32996	
2835	0	32688	32694	
2836	0	32524	32664	
2837	0	32354	32388	
2838	0	32466	32519	
2839	0	32488	32636	
2840	0	32574	32586	
2841	0	32652	32847	
2842	0	32757	32924	
2843	0	32692	32924	
2844	0	32700	32754	
2845	0	32636	32878	
2846	0	32602	32863	
2847	0	32712	32688	
2848	0	32936	32910	
2849	0	33084	32758	
2850	0	33022	32656	
2851	0	32964	32988	
2852	0	33004	32922	
2853	0	32944	32686	
2854	0	32812	32706	
2855	0	32724	32711	
2856	0	32756	32614	
2857	0	32740	32772	
2858	0	32840	32324	
2859	0	33000	32508	
2860	0	33092	33024	
2861	0	33040	32814	
2862	0	33022	32944	
2863	0	33108	32842	
2864	0	32980	32816	
2865	0	32858	33100	
2866	0	32792	33191	
2867	0	32718	32748	
2868	0	32632	32640	
2869	0	32648	32755	
2870	0	32658	32822	
2871	0	32684	32678	
2872	0	32606	32542	
2873	0	32688	32630	
2874	0	32512	32662	
2875	0	32568	32742	
2876	0	32680	32762	
2877	0	32764	32646	
2878	0	32800	32748	
2879	0	33012	32792	
2880	0	33074	32942	
2881	0	33124	32800	
2882	0	33072	32952	
2883	0	32961	32799	
2884	0	32910	32679	
2885	0	32900	32893	
2886	0	32856	33084	
2887	0	32832	32807	
2888	0	32754	32577	
2889	0	32704	32578	
2890	0	32556	32519	
2891	0	32656	32706	
2892	0	32748	32766	
2893	0	33038	32810	
2894	0	33060	32712	
2895	0	33028	32615	
2896	0	32792	32700	
2897	0	32708	32759	
2898	0	32752	32815	
2899	0	32780	32857	
2900	0	32788	32978	
2901	0	32776	32938	
2902	0	32902	32839	
2903	0	32740	32806	
2904	0	32628	32738	
2905	0	32686	32700	
2906	0	32757	32463	
2907	0	32796	32552	
2908	0	32926	32888	
2909	0	32996	33084	
2910	0	32928	32984	
2911	0	32860	33159	
2912	0	32838	32886	
2913	0	32836	32588	
2914	0	32940	32354	
2915	0	32864	32680	
2916	0	32668	32759	
2917	0	32680	32932	
2918	0	32772	32730	
2919	0	32748	32667	
2920	0	32752	32684	
2921	0	32792	32596	
2922	0	32800	32660	
2923	0	32788	32632	
2924	0	32836	32686	
2925	0	32852	32722	
2926	0	32896	32575	
2927	0	32968	32494	
2928	0	32974	32734	
2929	0	33064	32728	
2930	0	32860	32440	
2931	0	32624	32652	
2932	0	32584	33009	
2933	0	32500	33354	
2934	0	32434	33224	
2935	0	32740	33266	
2936	0	32920	33422	
2937	0	33058	33440	
2938	0	33268	32670	
2939	0	32998	32470	
2940	0	32832	32823	
2941	0	32868	33026	
2942	0	32972	32438	
2943	0	33236	32287	
2944	0	33168	32452	
2945	0	32978	32572	
2946	0	32872	32823	
2947	0	32716	32774	
2948	0	32732	32835	
2949	0	32740	32636	
2950	0	32684	32646	
2951	0	32468	32447	
2952	0	32268	32730	
2953	0	32132	32348	
2954	0	32136	32348	
2955	0	32380	32495	
2956	0	32426	32686	
2957	0	32588	33046	
2958	0	33068	33072	
2959	0	33236	33066	
2960	0	32928	33052	
2961	0	32668	32876	
2962	0	32684	32437	
2963	0	32868	32290	
2964	0	32910	32230	
2965	0	32948	32608	
2966	0	33132	33158	
2967	0	33474	33612	
2968	0	33562	33318	
2969	0	33422	33106	
2970	0	33130	32798	
2971	0	33046	32622	
2972	0	32746	32734	
2973	0	32646	32930	
2974	0	32452	32916	
2975	0	32308	32724	
2976	0	32528	32668	
2977	0	32702	32766	
2978	0	32708	32706	
2979	0	32724	32836	
2980	0	32440	32984	
2981	0	32450	32996	
2982	0	32276	32671	
2983	0	32282	32804	
2984	0	32272	32378	
2985	0	32544	32381	
2986	0	32860	32412	
2987	0	33174	32594	
2988	0	33228	32775	
2989	0	33208	32849	
2990	0	33196	33127	
2991	0	33184	32804	
2992	0	33188	32710	
2993	0	33048	32654	
2994	0	33028	32762	
2995	0	32900	32536	
2996	0	33028	32374	
2997	0	33008	32664	
2998	0	32906	32667	
2999	0	33000	32847	
3000	0	33200	32586	
3001	0	32952	32486	
3002	0	32760	32774	
3003	0	32452	32994	
3004	0	32392	33124	
3005	0	32440	33076	
3006	0	32560	32956	
3007	0	32692	32903	
3008	0	32800	32968	
3009	0	32980	32916	
3010	0	33088	32878	
3011	0	33204	32590	
3012	0	33076	32480	
3013	0	33064	32470	
3014	0	32992	32497	
3015	0	32914	32452	
3016	0	32918	32742	
3017	0	32996	32948	
3018	0	32974	32884	
3019	0	32808	32544	
3020	0	32677	32668	
3021	0	32524	32682	
3022	0	32590	32602	
3023	0	32872	32812	
3024	0	32846	32604	
3025	0	32666	32807	
3026	0	32621	32896	
3027	0	32744	33070	
3028	0	32702	33031	
3029	0	32692	32664	
3030	0	32724	32762	
3031	0	32737	32882	
3032	0	32636	33036	
3033	0	32472	32798	
3034	0	32128	32854	
3035	0	31980	32972	
3036	0	32400	32738	
3037	0	32838	32542	
3038	0	32732	32775	
3039	0	32644	32676	
3040	0	32692	32464	
3041	0	33204	32276	
3042	0	33400	32352	
3043	0	33546	32390	
3044	0	33496	32642	
3045	0	33506	32754	
3046	0	33248	32948	
3047	0	33096	32932	
3048	0	32780	33092	
3049	0	32672	33434	
3050	0	32628	32970	
3051	0	32484	32368	
3052	0	32700	32314	
3053	0	32784	32686	
3054	0	32930	32930	
3055	0	32850	32762	
3056	0	32690	32775	
3057	0	32358	33184	
3058	0	32090	33312	
3059	0	32080	33242	
3060	0	32244	32926	
3061	0	32628	32418	
3062	0	33216	32027	
3063	0	33546	32350	
3064	0	33792	32516	
3065	0	33864	32494	
3066	0	33892	32400	
3067	0	33460	32516	
3068	0	33012	32366	
3069	0	32576	32439	
3070	0	32361	32868	
3071	0	32076	32582	
3072	0	32056	32818	
3073	0	31936	33228	
3074	0	31960	33480	
3075	0	32054	33268	
3076	0	32360	32848	
3077	0	32214	32766	
3078	0	32252	32846	
3079	0	32410	33358	
3080	0	32512	33634	
3081	0	32980	33063	
3082	0	33732	32912	
3083	0	33410	32742	
3084	0	33460	32602	
3085	0	33516	32545	
3086	0	33396	32592	
3087	0	33258	32482	
3088	0	33172	31892	
3089	0	33002	31852	
3090	0	32696	31904	
3091	0	32844	32311	
3092	0	32764	32744	
3093	0	32664	33351	
3094	0	32708	33150	
3095	0	32412	33199	
3096	0	32530	33156	
3097	0	32954	32692	
3098	0	32838	32759	
3099	0	32852	33391	
3100	0	32886	33415	
3101	0	32775	33196	
3102	0	32772	33116	
3103	0	32886	32705	
3104	0	33144	32662	
3105	0	33256	32212	
3106	0	33048	31934	
3107	0	32738	31990	
3108	0	32528	32072	
3109	0	32221	32594	
3110	0	32336	33208	
3111	0	32384	33234	
3112	0	32422	33114	
3113	0	32484	33220	
3114	0	32428	33166	
3115	0	32614	33128	
3116	0	32768	32892	
3117	0	32944	32544	
3118	0	33152	32812	
3119	0	33128	33031	
3120	0	33268	33158	
3121	0	33336	33094	
3122	0	33536	32798	
3123	0	33412	32431	
3124	0	33316	32420	
3125	0	33216	32554	
3126	0	33044	32378	
3127	0	32968	32640	
3128	0	32928	32798	
3129	0	32908	32932	
3130	0	33114	33056	
3131	0	32968	32554	
3132	0	32716	32646	
3133	0	32352	32252	
3134	0	32180	31970	
3135	0	32072	31628	
3136	0	32152	31986	
3137	0	32138	32244	
3138	0	32540	32620	
3139	0	32584	32814	
3140	0	32508	33106	
3141	0	32178	33262	
3142	0	31960	33385	
3143	0	32212	33022	
3144	0	32670	32799	
3145	0	32796	32834	
3146	0	32865	32818	
3147	0	32816	33159	
3148	0	33004	33218	
3149	0	33268	33366	
3150	0	33376	33087	
3151	0	33364	32918	
3152	0	33564	32519	
3153	0	33412	32614	
3154	0	33184	32986	
3155	0	33080	32646	
3156	0	33140	32758	
3157	0	32988	32990	
3158	0	33192	32604	
3159	0	33288	32834	
3160	0	33322	33338	
3161	0	33430	33438	
3162	0	33253	31996	
3163	0	33216	31130	
3164	0	33248	31810	
3165	0	32640	32455	
3166	0	32508	32625	
3167	0	32188	32690	
3168	0	32156	32903	
3169	0	31920	32690	
3170	0	31844	33103	
3171	0	31878	33270	
3172	0	31904	33086	
3173	0	31948	32988	
3174	0	31824	32986	
3175	0	31908	32838	
3176	0	32194	33228	
3177	0	32694	33287	
3178	0	33026	32936	
3179	0	33386	32391	
3180	0	33593	32860	
3181	0	33468	32830	
3182	0	33454	33359	
3183	0	33658	33233	
3184	0	33724	32656	
3185	0	33344	31966	
3186	0	33396	32228	
3187	0	33008	32710	
3188	0	32726	32488	
3189	0	32672	32478	
3190	0	32998	32476	
3191	0	33532	32775	
3192	0	33386	33242	
3193	0	33314	32884	
3194	0	32872	32924	
3195	0	32328	32598	
3196	0	32004	32758	
3197	0	32282	33036	
3198	0	32476	32500	
3199	0	32420	32250	
3200	0	32524	31987	
3201	0	32428	32324	
3202	0	31960	32434	
3203	0	31912	33180	
3204	0	32120	33592	
3205	0	32278	33818	
3206	0	32580	33776	
3207	0	32644	33281	
3208	0	32546	32794	
3209	0	32546	32472	
3210	0	32820	32558	
3211	0	33084	32580	
3212	0	33418	32370	
3213	0	33601	32360	
3214	0	33564	32428	
3215	0	33626	32548	
3216	0	34100	32740	
3217	0	34260	32544	
3218	0	33672	32348	
3219	0	33328	32359	
3220	0	33002	32622	
3221	0	32632	33002	
3222	0	32312	33380	
3223	0	32304	33428	
3224	0	32420	33814	
3225	0	32426	33156	
3226	0	32516	32604	
3227	0	32568	32703	
3228	0	32640	32324	
3229	0	32784	32096	
3230	0	32772	31732	
3231	0	32240	32086	
3232	0	32234	32359	
3233	0	32476	32628	
3234	0	32284	32808	
3235	0	31942	33159	
3236	0	32326	33308	
3237	0	32284	33416	
3238	0	32592	32964	
3239	0	33052	32804	
3240	0	33446	32550	
3241	0	33956	32816	
3242	0	33932	32724	
3243	0	34208	32699	
3244	0	34336	32700	
3245	0	33678	32568	
3246	0	32996	32530	
3247	0	32752	32558	
3248	0	32740	32775	
3249	0	33408	33140	
3250	0	33040	33654	
3251	0	32634	33775	
3252	0	32036	33300	
3253	0	31598	32892	
3254	0	31980	32508	
3255	0	32178	32292	
3256	0	32560	31751	
3257	0	32728	31688	
3258	0	32804	31998	
3259	0	31430	32412	
3260	0	31052	32962	
3261	0	31380	32928	
3262	0	31914	33084	
3263	0	32684	33504	
3264	0	33514	33404	
3265	0	33988	33310	
3266	0	34242	33204	
3267	0	33664	32660	
3268	0	33070	32424	
3269	0	33086	32278	
3270	0	33500	32304	
3271	0	33474	32428	
3272	0	33484	32820	
3273	0	33860	33220	
3274	0	33924	34330	
3275	0	33256	33574	
3276	0	32846	32719	
3277	0	32612	32812	
3278	0	32192	32494	
3279	0	31790	31982	
3280	0	31668	32650	
3281	0	32100	32788	
3282	0	32140	33136	
3283	0	32344	32882	
3284	0	32640	32818	
3285	0	32640	33188	
3286	0	32190	32238	
3287	0	32032	31618	
3288	0	31748	31872	
3289	0	31756	32078	
3290	0	31996	32348	
3291	0	32198	32614	
3292	0	32472	33222	
3293	0	33194	33674	
3294	0	33982	33703	
3295	0	34328	33248	
3296	0	34108	32548	
3297	0	33788	32482	
3298	0	33656	32308	
3299	0	33404	32420	
3300	0	33392	32476	
3301	0	33392	32544	
3302	0	33114	32628	
3303	0	33038	32680	
3304	0	32974	32664	
3305	0	32934	32935	
3306	0	32480	33282	
3307	0	31952	33286	
3308	0	32084	32860	
3309	0	32354	32782	
3310	0	32018	32622	
3311	0	32100	32739	
3312	0	32900	32820	
3313	0	33240	33144	
3314	0	33288	32924	
3315	0	33058	33031	
3316	0	32890	33078	
3317	0	33180	32990	
3318	0	33120	32868	
3319	0	33222	32982	
3320	0	32958	32896	
3321	0	32410	32519	
3322	0	33080	32740	
3323	0	33562	32644	
3324	0	32708	32576	
3325	0	32008	32794	
3326	0	32096	32953	
3327	0	32574	32480	
3328	0	33092	31940	
3329	0	33056	32007	
3330	0	33118	32228	
3331	0	33236	32662	
3332	0	33260	32159	
3333	0	33456	31670	
3334	0	33156	31250	
3335	0	32817	32400	
3336	0	32460	33436	
3337	0	32028	33231	
3338	0	31940	33738	
3339	0	31728	34862	
3340	0	31520	34616	
3341	0	31850	33584	
3342	0	32676	32742	
3343	0	33266	32484	
3344	0	32830	32862	
3345	0	33152	33270	
3346	0	33880	33190	
3347	0	34354	32910	
3348	0	33828	32758	
3349	0	32856	32644	
3350	0	32638	32327	
3351	0	32424	32356	
3352	0	32518	32302	
3353	0	32170	32536	
3354	0	32196	33046	
3355	0	32602	32159	
3356	0	32244	31895	
3357	0	32178	32465	
3358	0	32308	32116	
3359	0	32446	31877	
3360	0	33020	31980	
3361	0	32900	32032	
3362	0	32608	32702	
3363	0	32144	32711	
3364	0	32176	32576	
3365	0	32738	33566	
3366	0	33612	33350	
3367	0	33390	33682	
3368	0	32868	33594	
3369	0	32732	33426	
3370	0	32960	33319	
3371	0	33474	33270	
3372	0	33280	33572	
3373	0	33066	33948	
3374	0	33060	33780	
3375	0	32852	33228	
3376	0	32252	32542	
3377	0	31972	32450	
3378	0	31848	32364	
3379	0	32036	31364	
3380	0	32294	31346	
3381	0	32996	31904	
3382	0	34010	32286	
3383	0	34180	31258	
3384	0	34378	31644	
3385	0	34186	32822	
3386	0	33518	32622	
3387	0	33216	32420	
3388	0	33536	32063	
3389	0	33336	32712	
3390	0	32520	33830	
3391	0	32132	33767	
3392	0	31908	33860	
3393	0	31934	33214	
3394	0	32092	33250	
3395	0	32158	33018	
3396	0	32088	32712	
3397	0	32172	32984	
3398	0	32098	32934	
3399	0	32418	33230	
3400	0	32444	33015	
3401	0	32468	32775	
3402	0	32658	32468	
3403	0	32896	32698	
3404	0	33458	32462	
3405	0	33792	32698	
3406	0	33792	32825	
3407	0	33606	32858	
3408	0	34012	32834	
3409	0	33812	32590	
3410	0	33260	32542	
3411	0	33328	32312	
3412	0	33552	32103	
3413	0	33384	32538	
3414	0	33201	32769	
3415	0	33076	32708	
3416	0	32502	32545	
3417	0	32408	32647	
3418	0	32660	32740	
3419	0	32857	32660	
3420	0	32400	32772	
3421	0	31716	33068	
3422	0	31856	33324	
3423	0	31946	33034	
3424	0	31874	32886	
3425	0	31990	33156	
3426	0	31636	32742	
3427	0	31846	32984	
3428	0	32236	32990	
3429	0	33216	32636	
3430	0	33402	32592	
3431	0	33134	32302	
3432	0	33082	32582	
3433	0	33512	32724	
3434	0	34128	32628	
3435	0	33718	32630	
3436	0	32648	32840	
3437	0	32568	32815	
3438	0	32470	32804	
3439	0	31608	32836	
3440	0	31448	32247	
3441	0	31658	32996	
3442	0	31868	33514	
3443	0	32280	32976	
3444	0	32860	33153	
3445	0	33204	32792	
3446	0	33420	32344	
3447	0	34030	32068	
3448	0	34064	32391	
3449	0	34114	32514	
3450	0	33110	32656	
3451	0	32764	32924	
3452	0	33450	32631	
3453	0	33494	32496	
3454	0	33618	32910	
3455	0	33288	32372	
3456	0	33412	32140	
3457	0	33526	32007	
3458	0	33100	32432	
3459	0	32904	32836	
3460	0	32744	33192	
3461	0	32600	33564	
3462	0	32289	33732	
3463	0	32516	34452	
3464	0	32854	34982	
3465	0	32868	33552	
3466	0	32440	32754	
3467	0	32004	32590	
3468	0	31196	32616	
3469	0	30538	32472	
3470	0	30988	32231	
3471	0	31720	32416	
3472	0	32616	32090	
3473	0	33002	32034	
3474	0	32868	32154	
3475	0	32532	32190	
3476	0	32330	32326	
3477	0	31984	32284	
3478	0	32064	32529	
3479	0	31948	32388	
3480	0	32546	32480	
3481	0	33640	32718	
3482	0	34560	32844	
3483	0	35126	32935	
3484	0	35112	33436	
3485	0	34952	34039	
3486	0	34576	33520	
3487	0	34140	33002	
3488	0	33804	33214	
3489	0	33610	32980	
3490	0	33336	32736	
3491	0	33142	32182	
3492	0	32546	32344	
3493	0	32332	32704	
3494	0	32024	32263	
3495	0	31676	32024	
3496	0	31398	32326	
3497	0	31236	32332	
3498	0	31328	32796	
3499	0	31776	32874	
3500	0	32452	32702	
3501	0	33016	33214	
3502	0	33052	33287	
3503	0	32780	33306	
3504	0	33002	33120	
3505	0	32436	32332	
3506	0	31876	32519	
3507	0	31934	33127	
3508	0	32170	33316	
3509	0	33118	33248	
3510	0	34292	32872	
3511	0	34402	32700	
3512	0	33192	32519	
3513	0	32417	32538	
3514	0	32392	32263	
3515	0	32808	32510	
3516	0	33980	32710	
3517	0	34368	33078	
3518	0	34404	33264	
3519	0	33852	32492	
3520	0	33068	32200	
3521	0	31834	32168	
3522	0	31130	32568	
3523	0	30634	32750	
3524	0	30512	32812	
3525	0	30808	32504	
3526	0	31120	32638	
3527	0	31900	32656	
3528	0	32912	32908	
3529	0	33316	32762	
3530	0	33088	32775	
3531	0	33116	32774	
3532	0	33588	32736	
3533	0	33060	32668	
3534	0	33122	32816	
3535	0	33562	33020	
3536	0	34120	33150	
3537	0	34868	33334	
3538	0	35120	33092	
3539	0	34688	32688	
3540	0	33662	32707	
3541	0	33730	32700	
3542	0	33526	32656	
3543	0	32896	32696	
3544	0	32216	32154	
3545	0	31920	32166	
3546	0	31684	32611	
3547	0	31540	32898	
3548	0	32074	32918	
3549	0	32264	32775	
3550	0	32106	32838	
3551	0	31616	32806	
3552	0	31262	32753	
3553	0	31284	32592	
3554	0	31380	32735	
3555	0	32180	32828	
3556	0	32596	32866	
3557	0	32740	33103	
3558	0	32644	32860	
3559	0	32996	32446	
3560	0	33528	32262	
3561	0	33636	32766	
3562	0	33600	32964	
3563	0	33776	33374	
3564	0	33848	32935	
3565	0	34332	32238	
3566	0	34316	32372	
3567	0	33744	32702	
3568	0	33256	32610	
3569	0	32432	32516	
3570	0	31488	32856	
3571	0	31928	33158	
3572	0	32546	33050	
3573	0	32780	32756	
3574	0	33408	32284	
3575	0	34246	32298	
3576	0	35312	32450	
3577	0	35132	32564	
3578	0	34470	32722	
3579	0	33520	32980	
3580	0	31912	33382	
3581	0	29680	33710	
3582	0	28920	33852	
3583	0	29154	33612	
3584	0	29730	33158	
3585	0	30884	32878	
3586	0	31780	32808	
3587	0	32680	32526	
3588	0	33164	32412	
3589	0	33596	32500	
3590	0	33240	32626	
3591	0	33896	32528	
3592	0	34492	32112	
3593	0	34260	31736	
3594	0	33668	32385	
3595	0	33488	32686	
3596	0	33056	32942	
3597	0	32868	33148	
3598	0	32728	32743	
3599	0	32654	32548	
3600	0	33216	32748	
3601	0	33386	33056	
3602	0	33652	33092	
3603	0	33674	32958	
3604	0	33626	33040	
3605	0	33416	32774	
3606	0	33397	32775	
3607	0	33240	32820	
3608	0	32616	32634	
3609	0	32186	32678	
3610	0	31848	32753	
3611	0	31824	32736	
3612	0	32078	32666	
3613	0	32482	32428	
3614	0	32506	32616	
3615	0	32186	32640	
3616	0	31960	32598	
3617	0	32024	32718	
3618	0	32072	32688	
3619	0	32084	32332	
3620	0	31856	32112	
3621	0	32192	31960	
3622	0	32936	32204	
3623	0	33500	32184	
3624	0	34052	32868	
3625	0	34480	32998	
3626	0	34625	33368	
3627	0	34318	33522	
3628	0	34224	33543	
3629	0	33548	33778	
3630	0	33044	33472	
3631	0	32544	33348	
3632	0	32084	33495	
3633	0	31958	33294	
3634	0	31784	32964	
3635	0	31198	32622	
3636	0	31276	32404	
3637	0	32270	32318	
3638	0	32908	32276	
3639	0	33038	32406	
3640	0	33336	32232	
3641	0	33896	32672	
3642	0	34284	32612	
3643	0	34234	32358	
3644	0	34014	32430	
3645	0	33380	32374	
3646	0	32376	32060	
3647	0	31500	32178	
3648	0	31242	32143	
3649	0	30864	32428	
3650	0	30804	32872	
3651	0	30932	33086	
3652	0	31770	33302	
3653	0	32682	33374	
3654	0	33172	33446	
3655	0	33530	33266	
3656	0	33668	33332	
3657	0	33776	33264	
3658	0	33780	33083	
3659	0	33872	33158	
3660	0	33540	32954	
3661	0	33290	32820	
3662	0	32932	32730	
3663	0	32974	32411	
3664	0	33350	32222	
3665	0	32876	32374	
3666	0	32496	32564	
3667	0	33076	32272	
3668	0	32288	32388	
3669	0	31684	32550	
3670	0	31764	32448	
3671	0	32056	32534	
3672	0	32412	32571	
3673	0	33404	32364	
3674	0	33852	32564	
3675	0	34156	32832	
3676	0	34268	32622	
3677	0	33824	32606	
3678	0	33132	32834	
3679	0	33024	33081	
3680	0	32916	33372	
3681	0	32664	33044	
3682	0	32548	32860	
3683	0	32564	33042	
3684	0	31916	32958	
3685	0	31692	32784	
3686	0	32186	32788	
3687	0	32782	33167	
3688	0	32388	32796	
3689	0	32164	32647	
3690	0	32198	32558	
3691	0	31908	32530	
3692	0	31936	32615	
3693	0	32524	32647	
3694	0	33409	33167	
3695	0	33064	33159	
3696	0	32848	33280	
3697	0	31952	33238	
3698	0	31884	33102	
3699	0	32778	33208	
3700	0	33438	33014	
3701	0	33890	32821	
3702	0	34176	32766	
3703	0	34040	32604	
3704	0	33668	32423	
3705	0	32848	32500	
3706	0	32272	32310	
3707	0	32268	32356	
3708	0	32444	32479	
3709	0	32716	32263	
3710	0	33354	32492	
3711	0	33572	32664	
3712	0	33572	32680	
3713	0	32650	32806	
3714	0	32354	32537	
3715	0	32552	32832	
3716	0	32668	33094	
3717	0	33252	33262	
3718	0	33428	33138	
3719	0	32960	32736	
3720	0	32462	32376	
3721	0	32204	32274	
3722	0	32110	32512	
3723	0	32284	32888	
3724	0	32750	32956	
3725	0	32908	32636	
3726	0	33228	32462	
3727	0	33922	32654	
3728	0	33936	32698	
3729	0	33356	32719	
3730	0	32668	32756	
3731	0	32360	33010	
3732	0	32462	33012	
3733	0	32800	33095	
3734	0	33048	33220	
3735	0	33154	33107	
3736	0	33068	33076	
3737	0	32378	32872	
3738	0	31434	32592	
3739	0	31520	32772	
3740	0	31892	32836	
3741	0	32476	32406	
3742	0	33492	32428	
3743	0	33856	32446	
3744	0	33492	32256	
3745	0	33026	32415	
3746	0	32680	32544	
3747	0	32612	32580	
3748	0	32170	32976	
3749	0	31962	33034	
3750	0	31952	33366	
3751	0	32196	33358	
3752	0	33292	33128	
3753	0	33590	33076	
3754	0	33906	33031	
3755	0	33980	32910	
3756	0	33116	32806	
3757	0	32606	32751	
3758	0	32576	32748	
3759	0	32812	32686	
3760	0	33280	32432	
3761	0	33370	32284	
3762	0	33954	32326	
3763	0	33552	32503	
3764	0	32760	32624	
3765	0	32180	32554	
3766	0	32064	32759	
3767	0	32060	32738	
3768	0	31878	32887	
3769	0	31920	32922	
3770	0	31916	32858	
3771	0	31792	32932	
3772	0	31532	33126	
3773	0	31662	33156	
3774	0	31524	32892	
3775	0	31968	32916	
3776	0	32688	32945	
3777	0	33532	32852	
3778	0	33834	32854	
3779	0	34104	32796	
3780	0	34208	33006	
3781	0	34172	32794	
3782	0	34086	32702	
3783	0	33790	32486	
3784	0	33452	32092	
3785	0	32888	32222	
3786	0	32572	32600	
3787	0	32602	32542	
3788	0	32762	32750	
3789	0	32942	32342	
3790	0	32908	32320	
3791	0	33344	32412	
3792	0	33098	32740	
3793	0	32820	32748	
3794	0	32952	32772	
3795	0	33378	32682	
3796	0	32870	32666	
3797	0	32370	32934	
3798	0	31632	32946	
3799	0	30924	32836	
3800	0	30812	32916	
3801	0	31153	32834	
3802	0	31794	32940	
3803	0	32609	32916	
3804	0	33484	32894	
3805	0	34024	32912	
3806	0	34080	32648	
3807	0	34066	32790	
3808	0	33562	32834	
3809	0	33288	32866	
3810	0	32740	32988	
3811	0	32254	33028	
3812	0	32248	32830	
3813	0	32392	32638	
3814	0	32920	32528	
3815	0	33176	32556	
3816	0	33148	32746	
3817	0	33140	32868	
3818	0	33094	32864	
3819	0	33004	32879	
3820	0	32896	33031	
3821	0	32910	33111	
3822	0	32832	32974	
3823	0	32826	32758	
3824	0	32876	32919	
3825	0	33136	32754	
3826	0	33121	32316	
3827	0	33098	32286	
3828	0	32920	32644	
3829	0	32886	32732	
3830	0	32472	32752	
3831	0	32484	32572	
3832	0	32508	32458	
3833	0	32524	32398	
3834	0	32722	32433	
3835	0	32820	32116	
3836	0	32810	32014	
3837	0	32872	32154	
3838	0	32926	32448	
3839	0	33132	33042	
3840	0	33064	33255	
3841	0	33184	33662	
3842	0	32952	33664	
3843	0	33180	33946	
3844	0	32860	33943	
3845	0	32580	33280	
3846	0	32404	33111	
3847	0	32576	33031	
3848	0	32840	33102	
3849	0	32908	32948	
3850	0	33404	32938	
3851	0	33800	32775	
3852	0	33254	32604	
3853	0	32660	32556	
3854	0	31956	32510	
3855	0	31976	32304	
3856	0	32012	32246	
3857	0	32506	32150	
3858	0	32736	32247	
3859	0	32234	32396	
3860	0	32320	32742	
3861	0	32708	32506	
3862	0	32628	32626	
3863	0	32392	32816	
3864	0	32872	32456	
3865	0	33086	32658	
3866	0	33540	32676	
3867	0	33822	32889	
3868	0	33446	32932	
3869	0	33636	32892	
3870	0	33880	33052	
3871	0	33694	32996	
3872	0	32338	32748	
3873	0	31404	32680	
3874	0	31032	32680	
3875	0	31072	32956	
3876	0	31482	32580	
3877	0	31980	32523	
3878	0	32824	32486	
3879	0	32968	32503	
3880	0	32788	32769	
3881	0	32528	32838	
3882	0	32830	32870	
3883	0	33100	32796	
3884	0	33640	32854	
3885	0	34016	32926	
3886	0	33664	32728	
3887	0	33444	32551	
3888	0	33386	32690	
3889	0	33260	32884	
3890	0	33340	32728	
3891	0	33216	32910	
3892	0	32686	32796	
3893	0	32132	32960	
3894	0	32064	32732	
3895	0	32586	32668	
3896	0	33232	32641	
3897	0	33542	32711	
3898	0	33480	32900	
3899	0	33414	32698	
3900	0	32596	32854	
3901	0	31728	32791	
3902	0	31660	32711	
3903	0	31786	32603	
3904	0	32392	32540	
3905	0	32658	32550	
3906	0	32852	32590	
3907	0	32780	32839	
3908	0	32682	32826	
3909	0	32648	33080	
3910	0	32612	32978	
3911	0	32748	33007	
3912	0	32292	32834	
3913	0	32348	32988	
3914	0	32344	33012	
3915	0	32530	32913	
3916	0	33092	33004	
3917	0	33690	32870	
3918	0	33972	32826	
3919	0	34088	32678	
3920	0	33760	32824	
3921	0	33500	32830	
3922	0	33220	32862	
3923	0	33632	32672	
3924	0	33536	32709	
3925	0	33224	32550	
3926	0	33460	32596	
3927	0	32696	32564	
3928	0	32362	32578	
3929	0	32224	32672	
3930	0	31900	32334	
3931	0	32004	32492	
3932	0	32086	32612	
3933	0	32132	32460	
3934	0	32652	32724	
3935	0	33152	33036	
3936	0	32948	33060	
3937	0	32492	33062	
3938	0	31920	33114	
3939	0	31700	33166	
3940	0	32052	33060	
3941	0	32356	32958	
3942	0	32488	32820	
3943	0	32612	32634	
3944	0	32884	32628	
3945	0	33164	32420	
3946	0	33028	32238	
3947	0	33048	32152	
3948	0	33150	32356	
3949	0	33062	32519	
3950	0	33124	32402	
3951	0	33128	32458	
3952	0	33256	32775	
3953	0	33452	32902	
3954	0	33620	33085	
3955	0	33368	33086	
3956	0	33074	32962	
3957	0	32888	33072	
3958	0	32880	32769	
3959	0	32732	32886	
3960	0	32888	32848	
3961	0	33046	32966	
3962	0	33168	33048	
3963	0	33312	33068	
3964	0	32840	33134	
3965	0	32308	33272	
3966	0	32024	33212	
3967	0	31904	32920	
3968	0	32232	32548	
3969	0	32430	32538	
3970	0	33420	32446	
3971	0	33228	32550	
3972	0	32988	32518	
3973	0	32360	32570	
3974	0	31710	32775	
3975	0	31646	32780	
3976	0	31854	32858	
3977	0	32630	32740	
3978	0	33362	32762	
3979	0	33492	32657	
3980	0	33578	32526	
3981	0	33384	32432	
3982	0	33288	32652	
3983	0	33080	32639	
3984	0	33056	32582	
3985	0	32756	32422	
3986	0	32448	32320	
3987	0	32512	32500	
3988	0	32592	32626	
3989	0	32464	32792	
3990	0	32256	32977	
3991	0	32440	33076	
3992	0	32364	32854	
3993	0	32322	32828	
3994	0	32844	32948	
3995	0	33440	32988	
3996	0	33668	32840	
3997	0	33796	33127	
3998	0	33632	33038	
3999	0	33480	33046	
4000	0	33108	32935	
4001	0	32484	32894	
4002	0	32340	32740	
4003	0	32356	32698	
4004	0	32288	32668	
4005	0	32478	32618	
4006	0	32656	32564	
4007	0	32968	32628	
4008	0	32878	32646	
4009	0	32752	32590	
4010	0	32350	32854	
4011	0	32252	32812	
4012	0	32209	32800	
4013	0	32560	32908	
4014	0	32460	32698	
4015	0	32440	32758	
4016	0	32856	32862	
4017	0	33148	32660	
4018	0	33496	32652	
4019	0	33444	32834	
4020	0	33464	32734	
4021	0	33390	32598	
4022	0	32986	32628	
4023	0	32828	32686	
4024	0	32860	32672	
4025	0	32820	32728	
4026	0	32692	32822	
4027	0	32816	32888	
4028	0	32790	32878	
4029	0	33078	32756	
4030	0	33196	32742	
4031	0	33032	32800	
4032	0	32814	32632	
4033	0	32708	32718	
4034	0	32304	32804	
4035	0	32130	32804	
4036	0	32116	32640	
4037	0	32094	32446	
4038	0	32268	32588	
4039	0	32716	32532	
4040	0	33026	32478	
4041	0	33726	32661	
4042	0	33252	32836	
4043	0	32572	32696	
4044	0	32060	32816	
4045	0	32432	32984	
4046	0	32704	33112	
4047	0	32794	33108	
4048	0	33224	32999	
4049	0	33468	32985	
4050	0	33772	33036	
4051	0	33948	32890	
4052	0	33352	32837	
4053	0	32840	32903	
4054	0	32466	32980	
4055	0	32252	33008	
4056	0	32209	32864	
4057	0	32212	32727	
4058	0	32368	32628	
4059	0	32556	32628	
4060	0	32696	32628	
4061	0	32708	32678	
4062	0	32500	32592	
4063	0	32700	32485	
4064	0	33112	32554	
4065	0	33215	32460	
4066	0	33300	32474	
4067	0	33156	32500	
4068	0	33046	32636	
4069	0	32964	32658	
4070	0	32618	32554	
4071	0	32288	32519	
4072	0	32276	32678	
4073	0	32204	32870	
4074	0	32240	32884	
4075	0	32359	33191	
4076	0	32712	33148	
4077	0	33450	33258	
4078	0	33386	33141	
4079	0	33284	33068	
4080	0	33196	32956	
4081	0	33120	32754	
4082	0	32940	32639	
4083	0	32872	32694	
4084	0	33078	32662	
4085	0	33148	32679	
4086	0	33346	32674	
4087	0	33358	32710	
4088	0	33312	32725	
4089	0	32978	32734	
4090	0	32516	32510	
4091	0	32166	32768	
4092	0	32096	32814	
4093	0	32262	32662	
4094	0	32416	32799	
4095	0	32566	32743	
4096	0	33468	32810	
4097	0	33480	32742	
4098	0	33080	32660	
4099	0	32468	32738	
4100	0	32312	32656	
4101	0	32268	32706	
4102	0	32092	32732	
4103	0	32464	32710	
4104	0	32788	32764	
4105	0	33140	32844	
4106	0	33604	32770	
4107	0	33444	32788	
4108	0	33016	32796	
4109	0	32625	32704	
4110	0	32532	32876	
4111	0	32612	32810	
4112	0	32672	32624	
4113	0	32672	32831	
4114	0	32540	32816	
4115	0	32680	32775	
4116	0	32716	32775	
4117	0	32670	32785	
4118	0	32752	32862	
4119	0	32486	32694	
4120	0	32544	32836	
4121	0	32686	32728	
4122	0	32782	32550	
4123	0	32968	32743	
4124	0	33026	32775	
4125	0	33192	32769	
4126	0	33628	32754	
4127	0	33732	32650	
4128	0	33274	32662	
4129	0	33110	32679	
4130	0	32640	32618	
4131	0	32242	32606	
4132	0	32274	32615	
4133	0	32426	32822	
4134	0	32648	32748	
4135	0	32588	32903	
4136	0	32712	32852	
4137	0	32612	32970	
4138	0	32476	32880	
4139	0	32844	32887	
4140	0	32980	32846	
4141	0	33056	32900	
4142	0	32976	32924	
4143	0	33012	32758	
4144	0	33374	32720	
4145	0	33448	32818	
4146	0	33216	32800	
4147	0	32956	32758	
4148	0	32796	32702	
4149	0	32490	32822	
4150	0	32160	32708	
4151	0	32066	32775	
4152	0	32176	32634	
4153	0	32504	32612	
4154	0	32640	32536	
4155	0	32728	32464	
4156	0	32820	32492	
4157	0	32740	32784	
4158	0	32810	32919	
4159	0	32940	32855	
4160	0	32988	33006	
4161	0	33084	33024	
4162	0	33120	32852	
4163	0	33032	32824	
4164	0	32970	32870	
4165	0	32814	32614	
4166	0	32836	32785	
4167	0	32904	32689	
4168	0	32810	32831	
4169	0	32832	32800	
4170	0	32828	32774	
4171	0	32836	32775	
4172	0	33088	32666	
4173	0	33096	32786	
4174	0	33092	32600	
4175	0	33276	32608	
4176	0	33146	32564	
4177	0	32984	32660	
4178	0	32778	32596	
4179	0	32660	32506	
4180	0	32716	32672	
4181	0	32592	32799	
4182	0	32464	32668	
4183	0	32368	32796	
4184	0	32352	32934	
4185	0	32704	32840	
4186	0	32886	32910	
4187	0	32628	32898	
4188	0	32556	32842	
4189	0	32964	32862	
4190	0	32716	32882	
4191	0	32828	32758	
4192	0	32884	32812	
4193	0	32672	32806	
4194	0	32996	32854	
4195	0	33352	32975	
4196	0	33290	32956	
4197	0	32788	32934	
4198	0	32436	32998	
4199	0	32208	32958	
4200	0	32180	32792	
4201	0	32340	32743	
4202	0	32568	32536	
4203	0	32796	32576	
4204	0	33144	32586	
4205	0	33104	32519	
4206	0	33002	32740	
4207	0	32996	32698	
4208	0	32944	32636	
4209	0	33060	32698	
4210	0	33176	32688	
4211	0	33044	32684	
4212	0	33060	32626	
4213	0	32982	32740	
4214	0	32964	32668	
4215	0	32736	32626	
4216	0	32552	32790	
4217	0	32542	32672	
4218	0	32576	32802	
4219	0	32742	32752	
4220	0	32800	32814	
4221	0	32926	32684	
4222	0	32988	32726	
4223	0	32864	32662	
4224	0	32978	32828	
4225	0	32768	32860	
4226	0	32688	32926	
4227	0	32714	32732	
4228	0	32750	32884	
4229	0	32850	32830	
4230	0	32920	32644	
4231	0	33020	32423	
4232	0	32918	32498	
4233	0	32888	32551	
4234	0	32896	32680	
4235	0	32744	32775	
4236	0	32608	32890	
4237	0	32588	32834	
4238	0	32808	32816	
4239	0	32800	32900	
4240	0	32736	33031	
4241	0	32836	33053	
4242	0	32808	33054	
4243	0	32900	32892	
4244	0	32912	32946	
4245	0	33060	32928	
4246	0	33116	32786	
4247	0	33100	32775	
4248	0	33146	32836	
4249	0	33120	32902	
4250	0	32740	32912	
4251	0	32486	32812	
4252	0	32328	32652	
4253	0	32416	32715	
4254	0	33104	32490	
4255	0	33124	32397	
4256	0	32616	32530	
4257	0	32168	32676	
4258	0	31950	32642	
4259	0	32252	32850	
4260	0	32748	32916	
4261	0	32938	32871	
4262	0	33112	33012	
4263	0	33006	32922	
4264	0	32970	33028	
4265	0	32982	33159	
4266	0	33100	33048	
4267	0	33272	32886	
4268	0	33112	32668	
4269	0	32764	32356	
4270	0	32654	32364	
4271	0	32658	32257	
4272	0	32760	32231	
4273	0	32740	32372	
4274	0	32840	32304	
4275	0	32928	32598	
4276	0	32876	32638	
4277	0	32644	32705	
4278	0	32584	32714	
4279	0	32591	32878	
4280	0	32724	32708	
4281	0	32898	32775	
4282	0	33016	32800	
4283	0	32954	32718	
4284	0	32664	32846	
4285	0	32666	32852	
4286	0	32772	32960	
4287	0	32970	32900	
4288	0	33084	32872	
4289	0	33088	32943	
4290	0	32980	32831	
4291	0	32844	32812	
4292	0	32896	32899	
4293	0	32902	32680	
4294	0	32928	32678	
4295	0	32808	32822	
4296	0	32810	32790	
4297	0	32572	32802	
4298	0	32480	32775	
4299	0	32554	32796	
4300	0	32826	32846	
4301	0	32884	32769	
4302	0	32996	32848	
4303	0	32880	32840	
4304	0	32678	32647	
4305	0	32612	32740	
4306	0	32486	32682	
4307	0	32678	32618	
4308	0	32674	32664	
4309	0	32774	32815	
4310	0	32808	32635	
4311	0	32936	32884	
4312	0	33024	32950	
4313	0	33028	33006	
4314	0	32832	32972	
4315	0	32798	33010	
4316	0	32732	32804	
4317	0	32644	32871	
4318	0	32580	32726	
4319	0	32652	32551	
4320	0	32728	32672	
4321	0	32846	32558	
4322	0	33032	32598	
4323	0	33156	32872	
4324	0	33276	32775	
4325	0	33484	32772	
4326	0	33348	33020	
4327	0	32992	32970	
4328	0	32564	32890	
4329	0	32230	32934	
4330	0	32356	32926	
4331	0	32638	32758	
4332	0	32708	32922	
4333	0	32804	32892	
4334	0	32884	32730	
4335	0	32816	32700	
4336	0	32770	32644	
4337	0	32534	32582	
4338	0	32416	32710	
4339	0	32510	32606	
4340	0	32584	32524	
4341	0	32740	32666	
4342	0	32836	32732	
4343	0	32928	32800	
4344	0	33054	32636	
4345	0	33000	32816	
4346	0	33126	32820	
4347	0	33050	32615	
4348	0	33070	32742	
4349	0	32884	32752	
4350	0	32924	32726	
4351	0	33110	32908	
4352	0	33104	32820	
4353	0	32976	32806	
4354	0	33008	32919	
4355	0	32796	32930	
4356	0	32538	32768	
4357	0	32674	32758	
4358	0	32768	32807	
4359	0	32828	32696	
4360	0	32828	32817	
4361	0	32756	32838	
4362	0	32688	32686	
4363	0	32576	32836	
4364	0	32496	32844	
4365	0	32468	32680	
4366	0	32626	32772	
4367	0	32572	32785	
4368	0	32600	32711	
4369	0	32742	32726	
4370	0	32884	32680	
4371	0	32932	32577	
4372	0	32906	32758	
4373	0	33004	32720	
4374	0	33128	32846	
4375	0	33268	32714	
4376	0	33244	32888	
4377	0	33074	32936	
4378	0	33028	32830	
4379	0	32766	32938	
4380	0	32585	32932	
4381	0	32514	32924	
4382	0	32608	32945	
4383	0	32832	32903	
4384	0	32736	32722	
4385	0	32567	32796	
4386	0	32512	32764	
4387	0	32408	32847	
4388	0	32434	32872	
4389	0	32548	32775	
4390	0	32744	32670	
4391	0	32932	32744	
4392	0	32992	32679	
4393	0	33130	32540	
4394	0	33076	32626	
4395	0	33052	32756	
4396	0	33036	32730	
4397	0	32936	32700	
4398	0	32892	32807	
4399	0	32880	32832	
4400	0	32910	32775	
4401	0	32924	32818	
4402	0	32888	32824	
4403	0	32908	32852	
4404	0	32946	32895	
4405	0	32906	32908	
4406	0	32926	32874	
4407	0	32806	32844	
4408	0	32732	32820	
4409	0	32572	32686	
4410	0	32540	32824	
4411	0	32412	32740	
4412	0	32472	32914	
4413	0	32530	33052	
4414	0	32728	32896	
4415	0	32868	33006	
4416	0	33084	32948	
4417	0	33082	32752	
4418	0	33036	32818	
4419	0	33108	32766	
4420	0	32952	32708	
4421	0	32856	32766	
4422	0	32756	32628	
4423	0	32684	32708	
4424	0	32612	32768	
4425	0	32888	32698	
4426	0	32986	32759	
4427	0	32932	32839	
4428	0	33018	32871	
4429	0	33012	32800	
4430	0	32848	32934	
4431	0	32728	32840	
4432	0	32596	32640	
4433	0	32596	32690	
4434	0	32668	32540	
4435	0	32704	32519	
4436	0	32784	32572	
4437	0	32830	32465	
4438	0	32888	32436	
4439	0	32831	32535	
4440	0	32768	32440	
4441	0	32796	32519	
4442	0	32702	32424	
4443	0	32740	32737	
4444	0	32716	32694	
4445	0	32608	32420	
4446	0	32656	32502	
4447	0	32588	32560	
4448	0	32716	32723	
4449	0	32752	32866	
4450	0	32870	32960	
4451	0	32878	33085	
4452	0	32958	33119	
4453	0	32898	33190	
4454	0	32828	33059	
4455	0	32853	32830	
4456	0	32864	32967	
4457	0	32801	32916	
4458	0	32817	32775	
4459	0	32838	32880	
4460	0	32864	32900	
4461	0	32916	32895	
4462	0	32932	32924	
4463	0	32920	33030	
4464	0	33060	32803	
4465	0	33056	32724	
4466	0	33124	32772	
4467	0	33028	32602	
4468	0	32960	32644	
4469	0	32800	32661	
4470	0	32690	32708	
4471	0	32802	32551	
4472	0	32814	32619	
4473	0	32806	32726	
4474	0	32740	32626	
4475	0	32574	32760	
4476	0	32536	32792	
4477	0	32510	32768	
4478	0	32644	32892	
4479	0	32898	32832	
4480	0	32796	32703	
4481	0	32728	32832	
4482	0	32738	32700	
4483	0	32792	32628	
4484	0	32682	32768	
4485	0	32724	32735	
4486	0	32796	32564	
4487	0	32840	32821	
4488	0	32872	32858	
4489	0	33004	32886	
4490	0	32992	32814	
4491	0	32944	32934	
4492	0	32736	32807	
4493	0	32660	32938	
4494	0	32660	32795	
4495	0	32712	32818	
4496	0	32914	32910	
4497	0	32900	32793	
4498	0	32980	32828	
4499	0	32892	32828	
4500	0	32824	32740	
4501	0	32776	32652	
4502	0	32772	32754	
4503	0	32868	32684	
4504	0	32778	32744	
4505	0	32746	32660	
4506	0	32708	32844	
4507	0	32774	32832	
4508	0	32750	32852	
4509	0	32652	32770	
4510	0	32844	32608	
4511	0	32766	32767	
4512	0	32762	32692	
4513	0	32920	32750	
4514	0	32974	32775	
4515	0	32904	32692	
4516	0	32884	32775	
4517	0	32752	32795	
4518	0	32824	32832	
4519	0	32828	32654	
4520	0	32820	32745	
4521	0	32844	32736	
4522	0	32752	32871	
4523	0	32772	32759	
4524	0	32726	32750	
4525	0	32792	32880	
4526	0	32858	32828	
4527	0	32888	32860	
4528	0	32944	32763	
4529	0	32998	32710	
4530	0	32992	32750	
4531	0	32908	32708	
4532	0	32816	32694	
4533	0	32716	32838	
4534	0	32692	32871	
4535	0	32598	32694	
4536	0	32562	32706	
4537	0	32554	32802	
4538	0	32636	32810	
4539	0	32932	32860	
4540	0	33064	32927	
4541	0	33116	32740	
4542	0	32908	32826	
4543	0	32904	32956	
4544	0	32868	32839	
4545	0	32724	32831	
4546	0	32716	32900	
4547	0	32700	32772	
4548	0	32664	32769	
4549	0	32674	32934	
4550	0	32772	32852	
4551	0	32788	32750	
4552	0	32848	32656	
4553	0	32888	32736	
4554	0	32952	32756	
4555	0	32958	32760	
4556	0	32944	32862	
4557	0	33010	32728	
4558	0	32936	32841	
4559	0	32824	32830	
4560	0	32810	32766	
4561	0	32696	32722	
4562	0	32814	32572	
4563	0	32632	32652	
4564	0	32736	32786	
4565	0	32852	32724	
4566	0	33206	32592	
4567	0	33204	32592	
4568	0	32976	32714	
4569	0	32524	32726	
4570	0	32260	32711	
4571	0	32356	32711	
4572	0	32676	32624	
4573	0	33008	32519	
4574	0	32900	32616	
4575	0	32668	32682	
4576	0	32774	32706	
4577	0	32900	32932	
4578	0	32623	32916	
4579	0	32436	32868	
4580	0	32336	33138	
4581	0	32164	33031	
4582	0	32482	32708	
4583	0	32550	32727	
4584	0	32620	32756	
4585	0	32802	32764	
4586	0	32836	32743	
4587	0	32956	32618	
4588	0	32924	32496	
4589	0	32906	32660	
4590	0	33020	32682	
4591	0	32894	32692	
4592	0	32864	32806	
4593	0	32888	33084	
4594	0	32876	33072	
4595	0	32810	32758	
4596	0	32784	32940	
4597	0	32850	32916	
4598	0	32900	32682	
4599	0	32994	32775	
4600	0	32858	32768	
4601	0	32888	32638	
4602	0	32836	32674	
4603	0	32798	32736	
4604	0	32790	32846	
4605	0	32928	32699	
4606	0	32852	32726	
4607	0	32928	32628	
4608	0	32886	32694	
4609	0	32922	32768	
4610	0	32866	32694	
4611	0	32828	32652	
4612	0	32808	32668	
4613	0	32804	32812	
4614	0	32742	32820	
4615	0	32842	32667	
4616	0	32816	32854	
4617	0	32860	32710	
4618	0	32892	32672	
4619	0	32760	32714	
4620	0	32842	32740	
4621	0	32890	32788	
4622	0	32980	32696	
4623	0	32944	32824	
4624	0	32784	32836	
4625	0	32744	32768	
4626	0	32616	32826	
4627	0	32568	32821	
4628	0	32628	32700	
4629	0	32672	32830	
4630	0	32692	32710	
4631	0	32778	32746	
4632	0	32940	32823	
4633	0	32864	32812	
4634	0	32840	32775	
4635	0	32652	32830	
4636	0	32688	32750	
4637	0	32732	32708	
4638	0	32840	32686	
4639	0	32948	32740	
4640	0	32920	32742	
4641	0	32874	32838	
4642	0	32960	32950	
4643	0	32912	32856	
4644	0	32834	32764	
4645	0	32746	32766	
4646	0	32778	32734	
4647	0	32660	32700	
4648	0	32710	32750	
4649	0	32714	32700	
4650	0	32768	32687	
4651	0	32788	32796	
4652	0	32804	32672	
4653	0	32888	32692	
4654	0	32848	32827	
4655	0	32944	32756	
4656	0	32784	32782	
4657	0	32736	32735	
4658	0	32729	32743	
4659	0	32728	32708	
4660	0	32788	32744	
4661	0	32716	32748	
4662	0	32760	32838	
4663	0	32820	32696	
4664	0	32808	32806	
4665	0	32856	32816	
4666	0	32740	32718	
4667	0	32814	32870	
4668	0	32886	32775	
4669	0	32876	32766	
4670	0	32872	32732	
4671	0	32866	32790	
4672	0	32814	32865	
4673	0	32788	32736	
4674	0	32736	32751	
4675	0	32718	32740	
4676	0	32732	32676	
4677	0	32814	32704	
4678	0	32802	32676	
4679	0	32864	32644	
4680	0	32867	32766	
4681	0	32862	32647	
4682	0	32836	32695	
4683	0	32628	32647	
4684	0	32810	32774	
4685	0	32692	32812	
4686	0	32798	32766	
4687	0	32772	32744	
4688	0	32836	32796	
4689	0	32844	32746	
4690	0	32842	32852	
4691	0	32800	32967	
4692	0	32746	32864	
4693	0	32828	32852	
4694	0	32842	32894	
4695	0	32884	32935	
4696	0	32904	32750	
4697	0	32936	32792	
4698	0	32708	32775	
4699	0	32748	32564	
4700	0	32836	32810	
4701	0	32672	32728	
4702	0	32616	32646	
4703	0	32536	32668	
4704	0	32600	32666	
4705	0	32686	32676	
4706	0	32764	32678	
4707	0	32832	32772	
4708	0	32738	32774	
4709	0	32840	32903	
4710	0	32864	32775	
4711	0	32881	32654	
4712	0	32860	32711	
4713	0	32876	32720	
4714	0	32928	32668	
4715	0	32954	32712	
4716	0	32940	32892	
4717	0	32908	32768	
4718	0	32868	32905	
4719	0	32940	32775	
4720	0	32880	32834	
4721	0	32912	32716	
4722	0	32864	32802	
4723	0	32892	32839	
4724	0	33024	32740	
4725	0	33004	32670	
4726	0	32868	32775	
4727	0	32774	32697	
4728	0	32684	32728	
4729	0	32746	32744	
4730	0	32674	32692	
4731	0	32696	32756	
4732	0	32688	32688	
4733	0	32790	32814	
4734	0	32706	32702	
4735	0	32768	32930	
4736	0	32776	32830	
4737	0	32874	32752	
4738	0	32820	32775	
4739	0	32812	32790	
4740	0	32772	32702	
4741	0	32808	32862	
4742	0	32764	32903	
4743	0	32784	32690	
4744	0	32846	32775	
4745	0	32780	32647	
4746	0	32846	32624	
4747	0	32912	32692	
4748	0	32816	32678	
4749	0	32768	32716	
4750	0	32892	32742	
4751	0	32938	32931	
4752	0	32902	32980	
4753	0	32898	32928	
4754	0	32908	32887	
4755	0	32812	32876	
4756	0	32792	32672	
4757	0	32764	32714	
4758	0	32802	32733	
4759	0	32796	32678	
4760	0	32774	32692	
4761	0	32796	32635	
4762	0	32790	32650	
4763	0	32728	32694	
4764	0	32786	32725	
4765	0	32852	32807	
4766	0	32782	32852	
4767	0	32896	32852	
4768	0	32876	32871	
4769	0	32862	32926	
4770	0	32884	32834	
4771	0	32860	32724	
4772	0	32756	32660	
4773	0	32720	32604	
4774	0	32762	32818	
4775	0	32658	32728	
4776	0	32716	32652	
4777	0	32653	32775	
4778	0	32708	32708	
4779	0	32812	32775	
4780	0	32830	32775	
4781	0	32784	32695	
4782	0	32856	32726	
4783	0	32800	32862	
4784	0	32856	32790	
4785	0	32776	32852	
4786	0	32758	32774	
4787	0	32836	32816	
4788	0	32896	32710	
4789	0	32868	32658	
4790	0	32900	32615	
4791	0	32876	32766	
4792	0	32878	32598	
4793	0	32834	32846	
4794	0	32822	32836	
4795	0	32852	32799	
4796	0	32856	32944	
4797	0	32744	32999	
4798	0	32786	32775	
4799	0	32832	32832	
4800	0	32768	32721	
4801	0	32754	32634	
4802	0	32902	32770	
4803	0	32936	32814	
4804	0	32778	32740	
4805	0	32792	32806	
4806	0	32714	32754	
4807	0	32760	32694	
4808	0	32788	32742	
4809	0	32858	32646	
4810	0	32838	32754	
4811	0	32926	32772	
4812	0	32864	32691	
4813	0	32876	32799	
4814	0	32878	32743	
4815	0	32740	32622	
4816	0	32704	32760	
4817	0	32738	32676	
4818	0	32744	32852	
4819	0	32722	32936	
4820	0	32868	32819	
4821	0	32864	32714	
4822	0	32836	32910	
4823	0	32770	32834	
4824	0	32892	32878	
4825	0	33000	32934	
4826	0	32921	32752	
4827	0	32788	32698	
4828	0	32744	32666	
4829	0	32694	32654	
4830	0	32746	32868	
4831	0	33028	32742	
4832	0	32924	32798	
4833	0	32834	32826	
4834	0	32697	32842	
4835	0	32756	32878	
4836	0	32712	32732	
4837	0	32702	32830	
4838	0	32736	32775	
4839	0	32832	32655	
4840	0	32832	32772	
4841	0	32812	32820	
4842	0	32846	32794	
4843	0	32920	32876	
4844	0	32888	32730	
4845	0	32876	32806	
4846	0	32832	32798	
4847	0	32848	32714	
4848	0	32806	32844	
4849	0	32804	32800	
4850	0	32832	32676	
4851	0	32804	32822	
4852	0	32830	32756	
4853	0	32900	32672	
4854	0	32896	32716	
4855	0	32792	32722	
4856	0	32804	32836	
4857	0	32858	32742	
4858	0	32800	32756	
4859	0	32728	32706	
4860	0	32768	32766	
4861	0	32804	32744	
4862	0	32816	32828	
4863	0	32856	32807	
4864	0	32888	32812	
4865	0	32864	32799	
4866	0	32832	32732	
4867	0	32836	32678	
4868	0	32832	32728	
4869	0	32852	32756	
4870	0	32852	32992	
4871	0	32820	33004	
4872	0	32832	33002	
4873	0	32838	32810	
4874	0	32858	32890	
4875	0	32842	32684	
4876	0	32812	32607	
4877	0	32844	32816	
4878	0	32950	32805	
4879	0	32910	32775	
4880	0	32914	32810	
4881	0	32842	32748	
4882	0	32812	32698	
4883	0	32808	32902	
4884	0	32713	32718	
4885	0	32792	32714	
4886	0	32832	32704	
4887	0	32886	32812	
4888	0	32746	32724	
4889	0	32848	32810	
4890	0	32808	32628	
4891	0	32740	32775	
4892	0	32796	32766	
4893	0	32780	32745	
4894	0	32708	32660	
4895	0	32808	32702	
4896	0	32772	32855	
4897	0	32732	32756	
4898	0	32694	32878	
4899	0	32764	32846	
4900	0	32822	32660	
4901	0	32808	32706	
4902	0	32834	32768	
4903	0	32796	32686	
4904	0	32844	32662	
4905	0	32830	32866	
4906	0	32820	32857	
4907	0	32844	32758	
4908	0	32802	32871	
4909	0	32764	32868	
4910	0	32864	32976	
4911	0	32836	32723	
4912	0	32800	32775	
4913	0	32776	32678	
4914	0	32710	32647	
4915	0	32849	32674	
4916	0	32774	32700	
4917	0	32754	32868	
4918	0	32744	32698	
4919	0	32804	32908	
4920	0	32870	32932	
4921	0	32924	32868	
4922	0	32884	32751	
4923	0	32852	32814	
4924	0	32880	32790	
4925	0	32836	32560	
4926	0	32830	32674	
4927	0	32792	32670	
4928	0	32926	32740	
4929	0	32864	32902	
4930	0	32864	32754	
4931	0	32812	32767	
4932	0	32870	32754	
4933	0	32784	32719	
4934	0	32776	32676	
4935	0	32762	32666	
4936	0	32796	32766	
4937	0	32812	32724	
4938	0	32774	32738	
4939	0	32810	32828	
4940	0	32840	32775	
4941	0	32842	32864	
4942	0	32828	32796	
4943	0	32760	32888	
4944	0	32712	32722	
4945	0	32860	32766	
4946	0	32812	32654	
4947	0	32852	32716	
4948	0	32889	32670	
4949	0	32872	32586	
4950	0	32928	32750	
4951	0	32880	32734	
4952	0	32812	32759	
4953	0	32830	32775	
4954	0	32892	32856	
4955	0	32904	32876	
4956	0	32768	32806	
4957	0	32806	32830	
4958	0	32740	32812	
4959	0	32818	32841	
4960	0	32830	32744	
4961	0	32750	32772	
4962	0	32814	32836	
4963	0	32796	32734	
4964	0	32784	32810	
4965	0	32850	32780	
4966	0	32774	32820	
4967	0	32780	32628	
4968	0	32810	32775	
4969	0	32812	32814	
4970	0	32868	32708	
4971	0	32852	32724	
4972	0	32860	32695	
4973	0	32888	32818	
4974	0	32824	32735	
4975	0	32884	32876	
4976	0	32820	32700	
4977	0	32793	32854	
4978	0	32708	32823	
4979	0	32752	32871	
4980	0	32774	32775	
4981	0	32826	32834	
4982	0	32896	32760	
4983	0	32810	32802	
4984	0	32768	32820	
4985	0	32826	32775	
4986	0	32800	32724	
4987	0	32804	32680	
4988	0	32810	32828	
4989	0	32850	32746	
4990	0	32866	32710	
4991	0	32874	32720	
4992	0	32868	32743	
4993	0	32864	32682	
4994	0	32874	32796	
4995	0	32844	32758	
4996	0	32820	32768	
4997	0	32800	32756	
4998	0	32822	32999	
4999	0	32872	32926	
5000	0	32856	32720	
5001	0	32728	32842	
5002	0	32764	32954	
5003	0	32790	32726	
5004	0	32732	32796	
5005	0	32800	32704	
5006	0	32894	32620	
5007	0	32802	32662	
5008	0	32824	32694	
5009	0	32820	32762	
5010	0	32808	32672	
5011	0	32804	32692	
5012	0	32828	32732	
5013	0	32840	32790	
5014	0	32826	32679	
5015	0	32932	32806	
5016	0	32804	32775	
5017	0	32806	32807	
5018	0	32806	32688	
5019	0	32818	32854	
5020	0	32817	32848	
5021	0	32888	32834	
5022	0	32812	32710	
5023	0	32812	32838	
5024	0	32836	32816	
5025	0	32740	32766	
5026	0	32800	32768	
5027	0	32804	32761	
5028	0	32784	32871	
5029	0	32792	32732	
5030	0	32794	32704	
5031	0	32920	32775	
5032	0	32828	32700	
5033	0	32888	32728	
5034	0	32796	32623	
5035	0	32756	32688	
5036	0	32808	32680	
5037	0	32784	32702	
5038	0	32780	32742	
5039	0	32744	32752	
5040	0	32794	32840	
5041	0	32804	32750	
5042	0	32796	32736	
5043	0	32848	32846	
5044	0	32860	32808	
5045	0	32896	32740	
5046	0	32858	32792	
5047	0	32792	32794	
5048	0	32800	32820	
5049	0	32834	32784	
5050	0	32814	32784	
5051	0	32780	32724	
5052	0	32742	32792	
5053	0	32808	32642	
5054	0	32778	32684	
5055	0	32788	32839	
5056	0	32792	32665	
5057	0	32826	32852	
5058	0	32808	32818	
5059	0	32864	32692	
5060	0	32816	32738	
5061	0	32880	32800	
5062	0	32962	32820	
5063	0	32840	32711	
5064	0	32862	32706	
5065	0	32870	32767	
5066	0	32808	32694	
5067	0	32792	32690	
5068	0	32738	32826	
5069	0	32744	32803	
5070	0	32704	32772	
5071	0	32760	32798	
5072	0	32838	32820	
5073	0	32772	32792	
5074	0	32788	32704	
5075	0	32816	32926	
5076	0	32832	32775	
5077	0	32812	32806	
5078	0	32798	32708	
5079	0	32872	32818	
5080	0	32832	32903	
5081	0	32828	32830	
5082	0	32770	32759	
5083	0	32852	32806	
5084	0	32840	32793	
5085	0	32802	32897	
5086	0	32860	32838	
5087	0	32756	32903	
5088	0	32892	32903	
5089	0	32888	32796	
5090	0	32888	32775	
5091	0	32880	32730	
5092	0	32844	32766	
5093	0	32788	32590	
5094	0	32800	32614	
5095	0	32692	32564	
5096	0	32674	32484	
5097	0	32752	32670	
5098	0	32764	32542	
5099	0	32746	32519	
5100	0	32676	32516	
5101	0	32772	32657	
5102	0	32696	32711	
5103	0	32720	32726	
5104	0	32720	32671	
5105	0	32736	32764	
5106	0	32738	32692	
5107	0	32799	32693	
5108	0	32812	32792	
5109	0	32772	32768	
5110	0	32766	32820	
5111	0	32804	32738	
5112	0	32800	32854	
5113	0	32808	32844	
5114	0	32820	32870	
5115	0	32880	32824	
5116	0	32876	32928	
5117	0	32904	32880	
5118	0	32840	32852	
5119	0	32866	32801	
5120	0	32868	32796	
5121	0	32844	32908	
5122	0	32880	32855	
5123	0	32844	32774	
5124	0	32850	32772	
5125	0	32892	32871	
5126	0	32852	32854	
5127	0	32872	32762	
5128	0	32844	32775	
5129	0	32824	32806	
5130	0	32762	32660	
5131	0	32770	32704	
5132	0	32786	32818	
5133	0	32784	32774	
5134	0	32738	32830	
5135	0	32760	32668	
5136	0	32804	32708	
5137	0	32780	32856	
5138	0	32780	32847	
5139	0	32784	32798	
5140	0	32864	32792	
5141	0	32820	32746	
5142	0	32814	32708	
5143	0	32820	32774	
5144	0	32804	32718	
5145	0	32712	32813	
5146	0	32866	32709	
5147	0	32800	32847	
5148	0	32750	32775	
5149	0	32804	32831	
5150	0	32686	32692	
5151	0	32732	32679	
5152	0	32788	32758	
5153	0	32876	32790	
5154	0	32800	32688	
5155	0	32764	32734	
5156	0	32856	32756	
5157	0	32836	32758	
5158	0	32756	32676	
5159	0	32740	32704	
5160	0	32810	32772	
5161	0	32826	32798	
5162	0	32788	32860	
5163	0	32836	32794	
5164	0	32794	32693	
5165	0	32868	32814	
5166	0	32818	32794	
5167	0	32722	32610	
5168	0	32784	32775	
5169	0	32752	32796	
5170	0	32858	32653	
5171	0	32886	32738	
5172	0	32884	32824	
5173	0	32856	32647	
5174	0	32896	32654	
5175	0	32832	32791	
5176	0	32840	32656	
5177	0	32888	32756	
5178	0	32738	32790	
5179	0	32766	32838	
5180	0	32776	32862	
5181	0	32772	32768	
5182	0	32766	32798	
5183	0	32752	32871	
5184	0	32866	32735	
5185	0	32788	32791	
5186	0	32818	32742	
5187	0	32810	32666	
5188	0	32798	32734	
5189	0	32832	32775	
5190	0	32800	32714	
5191	0	32820	32788	
5192	0	32818	32775	
5193	0	32836	32699	
5194	0	32834	32768	
5195	0	32816	32788	
5196	0	32824	32756	
5197	0	32808	32774	
5198	0	32830	32818	
5199	0	32780	32878	
5200	0	32810	32884	
5201	0	32774	32728	
5202	0	32748	32816	
5203	0	32858	32838	
5204	0	32826	32560	
5205	0	32834	32722	
5206	0	32858	32696	
5207	0	32864	32740	
5208	0	32840	32760	
5209	0	32800	32828	
5210	0	32830	32697	
5211	0	32796	32773	
5212	0	32752	32636	
5213	0	32796	32856	
5214	0	32776	32815	
5215	0	32756	32768	
5216	0	32800	32916	
5217	0	32764	32716	
5218	0	32814	32830	
5219	0	32840	32868	
5220	0	32824	32868	
5221	0	32776	32796	
5222	0	32684	32766	
5223	0	32804	32738	
5224	0	32846	32722	
5225	0	32886	32786	
5226	0	32882	32640	
5227	0	32788	32670	
5228	0	32780	32654	
5229	0	32810	32726	
5230	0	32816	32704	
5231	0	32910	32620	
5232	0	32856	32647	
5233	0	32820	32702	
5234	0	32848	32679	
5235	0	32761	32688	
5236	0	32876	32628	
5237	0	32820	32790	
5238	0	32736	32800	
5239	0	32684	32727	
5240	0	32748	32774	
5241	0	32760	32775	
5242	0	32760	32874	
5243	0	32780	32800	
5244	0	32800	32750	
5245	0	32792	32752	
5246	0	32784	32720	
5247	0	32828	32772	
5248	0	32748	32751	
5249	0	32788	32746	
5250	0	32808	32824	
5251	0	32780	32817	
5252	0	32756	32788	
5253	0	32840	32788	
5254	0	32774	32768	
5255	0	32816	32868	
5256	0	32846	32839	
5257	0	32834	32821	
5258	0	32741	32740	
5259	0	32784	32834	
5260	0	32792	32886	
5261	0	32792	32734	
5262	0	32800	32752	
5263	0	32760	32750	
5264	0	32821	32766	
5265	0	32800	32696	
5266	0	32802	32752	
5267	0	32820	32775	
5268	0	32824	32812	
5269	0	32900	32695	
5270	0	32848	32700	
5271	0	32830	32822	
5272	0	32852	32642	
5273	0	32824	32857	
5274	0	32798	32794	
5275	0	32780	32742	
5276	0	32720	32868	
5277	0	32720	32833	
5278	0	32782	32750	
5279	0	32904	32806	
5280	0	32872	32818	
5281	0	32912	32840	
5282	0	32778	32852	
5283	0	32800	32752	
5284	0	32800	32832	
5285	0	32802	32756	
5286	0	32780	32732	
5287	0	32766	32775	
5288	0	32828	32804	
5289	0	32784	32598	
5290	0	32812	32700	
5291	0	32838	32770	
5292	0	32786	32588	
5293	0	32858	32772	
5294	0	32840	32630	
5295	0	32918	32758	
5296	0	32864	32774	
5297	0	32900	32700	
5298	0	32840	32870	
5299	0	32816	32742	
5300	0	32822	32854	
5301	0	32816	32798	
5302	0	32776	32684	
5303	0	32760	32836	
5304	0	32732	32759	
5305	0	32814	32847	
5306	0	32788	32758	
5307	0	32768	32751	
5308	0	32818	32919	
5309	0	32832	32828	
5310	0	32804	32898	
5311	0	32798	32888	
5312	0	32776	32774	
5313	0	32774	32732	
5314	0	32804	32680	
5315	0	32868	32704	
5316	0	32824	32722	
5317	0	32794	32710	
5318	0	32892	32804	
5319	0	32864	32817	
5320	0	32808	32912	
5321	0	32864	32839	
5322	0	32756	32844	
5323	0	32834	32775	
5324	0	32800	32838	
5325	0	32836	32697	
5326	0	32818	32754	
5327	0	32788	32714	
5328	0	32700	32633	
5329	0	32828	32668	
5330	0	32886	32670	
5331	0	32866	32830	
5332	0	32832	32576	
5333	0	32792	32775	
5334	0	32780	32730	
5335	0	32776	32756	
5336	0	32808	32748	
5337	0	32850	32712	
5338	0	32894	32716	
5339	0	32820	32806	
5340	0	32836	32668	
5341	0	32784	32734	
5342	0	32908	32818	
5343	0	32788	32766	
5344	0	32804	32788	
5345	0	32744	32786	
5346	0	32796	32720	
5347	0	32776	32668	
5348	0	32798	32775	
5349	0	32712	32710	
5350	0	32788	32746	
5351	0	32824	32810	
5352	0	32788	32696	
5353	0	32780	32876	
5354	0	32756	32734	
5355	0	32796	32761	
5356	0	32820	32775	
5357	0	32844	32792	
5358	0	32820	32902	
5359	0	32740	32775	
5360	0	32759	32814	
5361	0	32814	32594	
5362	0	32784	32768	
5363	0	32818	32711	
5364	0	32780	32629	
5365	0	32812	32730	
5366	0	32800	32753	
5367	0	32836	32772	
5368	0	32828	32919	
5369	0	32804	32834	
5370	0	32726	32770	
5371	0	32848	32766	
5372	0	32772	32764	
5373	0	32756	32860	
5374	0	32692	32732	
5375	0	32744	32754	
5376	0	32752	32798	
5377	0	32836	32740	
5378	0	32768	32716	
5379	0	32804	32790	
5380	0	32904	32795	
5381	0	32860	32868	
5382	0	32846	32892	
5383	0	32926	32808	
5384	0	32922	32692	
5385	0	32910	32814	
5386	0	32896	32732	
5387	0	32906	32798	
5388	0	32932	32742	
5389	0	32904	32820	
5390	0	32794	32800	
5391	0	32769	32754	
5392	0	32714	32820	
5393	0	32710	32775	
5394	0	32760	32767	
5395	0	32760	32694	
5396	0	32752	32748	
5397	0	32782	32764	
5398	0	32744	32708	
5399	0	32760	32703	
5400	0	32740	32656	
5401	0	32828	32801	
5402	0	32800	32760	
5403	0	32816	32724	
5404	0	32857	32851	
5405	0	32724	32775	
5406	0	32728	32766	
5407	0	32784	32882	
5408	0	32776	32830	
5409	0	32742	32828	
5410	0	32808	32850	
5411	0	32876	32734	
5412	0	32868	32680	
5413	0	32784	32638	
5414	0	32888	32610	
5415	0	32844	32767	
5416	0	32754	32694	
5417	0	32884	32792	
5418	0	32800	32812	
5419	0	32786	32732	
5420	0	32918	32836	
5421	0	32856	32814	
5422	0	32804	32818	
5423	0	32748	32762	
5424	0	32874	32872	
5425	0	32786	32790	
5426	0	32804	32894	
5427	0	32810	32810	
5428	0	32828	32694	
5429	0	32798	32796	
5430	0	32772	32734	
5431	0	32716	32582	
5432	0	32784	32670	
5433	0	32848	32692	
5434	0	32780	32660	
5435	0	32766	32682	
5436	0	32756	32624	
5437	0	32768	32756	
5438	0	32884	32802	
5439	0	32852	32762	
5440	0	32940	32838	
5441	0	32820	32900	
5442	0	32852	32892	
5443	0	32788	32750	
5444	0	32764	32775	
5445	0	32742	32916	
5446	0	32784	32868	
5447	0	32718	32746	
5448	0	32812	32838	
5449	0	32866	32774	
5450	0	32780	32804	
5451	0	32888	32764	
5452	0	32896	32766	
5453	0	32922	32736	
5454	0	32852	32654	
5455	0	32848	32662	
5456	0	32800	32794	
5457	0	32814	32810	
5458	0	32842	32738	
5459	0	32726	32746	
5460	0	32788	32644	
5461	0	32764	32790	
5462	0	32670	32758	
5463	0	32772	32910	
5464	0	32736	32759	
5465	0	32824	32719	
5466	0	32814	32661	
5467	0	32880	32702	
5468	0	32888	32780	
5469	0	32888	32708	
5470	0	32892	32828	
5471	0	32804	32758	
5472	0	32774	32602	
5473	0	32798	32801	
5474	0	32806	32742	
5475	0	32796	32675	
5476	0	32744	32772	
5477	0	32752	32863	
5478	0	32794	32752	
5479	0	32780	32930	
5480	0	32732	32884	
5481	0	32728	32716	
5482	0	32836	32796	
5483	0	32894	32764	
5484	0	32854	32750	
5485	0	32808	32847	
5486	0	32864	32897	
5487	0	32860	32712	
5488	0	32780	32728	
5489	0	32840	32682	
5490	0	32784	32578	
5491	0	32884	32796	
5492	0	32836	32772	
5493	0	32846	32842	
5494	0	32842	32911	
5495	0	32884	32754	
5496	0	32892	32839	
5497	0	32768	32906	
5498	0	32832	32820	
5499	0	32846	32826	
5500	0	32792	32724	
5501	0	32794	32657	
5502	0	32780	32656	
5503	0	32766	32548	
5504	0	32748	32725	
5505	0	32780	32860	
5506	0	32776	32720	
5507	0	32784	32804	
5508	0	32750	32932	
5509	0	32816	32870	
5510	0	32854	32775	
5511	0	32908	32662	
5512	0	32804	32706	
5513	0	32796	32772	
5514	0	32838	32719	
5515	0	32836	32816	
5516	0	32882	32911	
5517	0	32848	32762	
5518	0	32868	32854	
5519	0	32872	32903	
5520	0	32896	32823	
5521	0	32836	32868	
5522	0	32714	32825	
5523	0	32654	32868	
5524	0	32758	32906	
5525	0	32736	32706	
5526	0	32774	32758	
5527	0	32850	32620	
5528	0	32842	32732	
5529	0	32804	32646	
5530	0	32796	32762	
5531	0	32884	32724	
5532	0	32846	32678	
5533	0	32832	32797	
5534	0	32824	32734	
5535	0	32868	32775	
5536	0	32800	32838	
5537	0	32800	32679	
5538	0	32792	32772	
5539	0	32778	32788	
5540	0	32792	32732	
5541	0	32794	32768	
5542	0	32784	32652	
5543	0	32812	32812	
5544	0	32762	32764	
5545	0	32759	32724	
5546	0	32764	32772	
5547	0	32872	32784	
5548	0	32852	32698	
5549	0	32884	32792	
5550	0	32878	32766	
5551	0	32792	32690	
5552	0	32896	32828	
5553	0	32940	32876	
5554	0	32848	32788	
5555	0	32808	32846	
5556	0	32776	32746	
5557	0	32786	32702	
5558	0	32784	32726	
5559	0	32768	32634	
5560	0	32686	32792	
5561	0	32826	32768	
5562	0	32782	32678	
5563	0	32812	32934	
5564	0	32750	32846	
5565	0	32816	32710	
5566	0	32824	32908	
5567	0	32748	32696	
5568	0	32762	32742	
5569	0	32786	32844	
5570	0	32712	32708	
5571	0	32724	32742	
5572	0	32816	32826	
5573	0	32764	32568	
5574	0	32724	32824	
5575	0	32778	32830	
5576	0	32892	32646	
5577	0	32782	32724	
5578	0	32920	32818	
5579	0	32878	32716	
5580	0	32836	32743	
5581	0	32764	32852	
5582	0	32696	32840	
5583	0	32796	32858	
5584	0	32786	32804	
5585	0	32768	32842	
5586	0	32780	32794	
5587	0	32841	32668	
5588	0	32876	32710	
5589	0	32870	32674	
5590	0	32800	32596	
5591	0	32776	32808	
5592	0	32820	32810	
5593	0	32880	32866	
5594	0	32780	32904	
5595	0	32714	32766	
5596	0	32820	32848	
5597	0	32878	32728	
5598	0	32758	32816	
5599	0	32824	32775	
5600	0	32808	32743	
5601	0	32930	32848	
5602	0	32884	32740	
5603	0	32858	32676	
5604	0	32780	32743	
5605	0	32824	32734	
5606	0	32820	32762	
5607	0	32828	32808	
5608	0	32816	32676	
5609	0	32806	32796	
5610	0	32716	32716	
5611	0	32836	32656	
5612	0	32834	32696	
5613	0	32916	32686	
5614	0	32830	32810	
5615	0	32796	32734	
5616	0	32806	32804	
5617	0	32800	32872	
5618	0	32792	32766	
5619	0	32700	32752	
5620	0	32700	32775	
5621	0	32824	32716	
5622	0	32844	32754	
5623	0	32824	32742	
5624	0	32852	32886	
5625	0	32816	32859	
5626	0	32852	32720	
5627	0	32828	32711	
5628	0	32790	32606	
5629	0	32796	32716	
5630	0	32752	32711	
5631	0	32910	32660	
5632	0	32848	32662	
5633	0	32824	32775	
5634	0	32884	32820	
5635	0	32865	32836	
5636	0	32764	32738	
5637	0	32825	32818	
5638	0	32732	32834	
5639	0	32852	32750	
5640	0	32902	32839	
5641	0	32824	32843	
5642	0	32800	32744	
5643	0	32798	32724	
5644	0	32752	32711	
5645	0	32760	32688	
5646	0	32836	32878	
5647	0	32804	32814	
5648	0	32768	32726	
5649	0	32774	32768	
5650	0	32918	32649	
5651	0	32792	32724	
5652	0	32812	32718	
5653	0	32812	32784	
5654	0	32840	32775	
5655	0	32812	32774	
5656	0	32780	32889	
5657	0	32786	32980	
5658	0	32816	32820	
5659	0	32876	32866	
5660	0	32844	32854	
5661	0	32844	32758	
5662	0	32708	32836	
5663	0	32724	32710	
5664	0	32800	32812	
5665	0	32834	32694	
5666	0	32772	32820	
5667	0	32812	32650	
5668	0	32800	32593	
5669	0	32856	32610	
5670	0	32828	32706	
5671	0	32804	32750	
5672	0	32852	32775	
5673	0	32850	32730	
5674	0	32928	32676	
5675	0	32834	32683	
5676	0	32818	32878	
5677	0	32782	32799	
5678	0	32822	32710	
5679	0	32760	32854	
5680	0	32762	32848	
5681	0	32925	32902	
5682	0	32892	32814	
5683	0	32884	32750	
5684	0	32912	32866	
5685	0	32884	32903	
5686	0	32812	32716	
5687	0	32864	32860	
5688	0	32790	32690	
5689	0	32756	32764	
5690	0	32740	32682	
5691	0	32808	32736	
5692	0	32764	32718	
5693	0	32728	32693	
5694	0	32732	32708	
5695	0	32810	32670	
5696	0	32798	32772	
5697	0	32858	32718	
5698	0	32796	32858	
5699	0	32824	32900	
5700	0	32864	32788	
5701	0	32744	32791	
5702	0	32766	32799	
5703	0	32844	32948	
5704	0	32840	32808	
5705	0	32808	32662	
5706	0	32766	32732	
5707	0	32814	32774	
5708	0	32816	32690	
5709	0	32798	32726	
5710	0	32812	32625	
5711	0	32764	32775	
5712	0	32836	32868	
5713	0	32856	32830	
5714	0	32862	32878	
5715	0	32830	32818	
5716	0	32812	32775	
5717	0	32782	32768	
5718	0	32792	32682	
5719	0	32782	32855	
5720	0	32796	32814	
5721	0	32856	32775	
5722	0	32880	32767	
5723	0	32816	32636	
5724	0	32804	32732	
5725	0	32784	32844	
5726	0	32890	32652	
5727	0	32834	32882	
5728	0	32836	32844	
5729	0	32764	32848	
5730	0	32808	32900	
5731	0	32798	32688	
5732	0	32800	32866	
5733	0	32872	32892	
5734	0	32840	32774	
5735	0	32968	32862	
5736	0	32864	32859	
5737	0	32848	32740	
5738	0	32830	32852	
5739	0	32814	32703	
5740	0	32732	32740	
5741	0	32748	32660	
5742	0	32690	32618	
5743	0	32750	32566	
5744	0	32762	32538	
5745	0	32872	32616	
5746	0	32750	32506	
5747	0	32724	32590	
5748	0	32644	32470	
5749	0	32718	32534	
5750	0	32772	32849	
5751	0	32760	32810	
5752	0	32736	32807	
5753	0	32793	32856	
5754	0	32776	32750	
5755	0	32783	32774	
5756	0	32880	32820	
5757	0	32780	32812	
5758	0	32742	32740	
5759	0	32768	32748	
5760	0	32881	32960	
5761	0	32938	32914	
5762	0	32896	32846	
5763	0	32940	32932	
5764	0	33006	32903	
5765	0	32948	32916	
5766	0	32886	32832	
5767	0	32904	32708	
5768	0	32882	32822	
5769	0	32864	32878	
5770	0	32916	32788	
5771	0	32900	32794	
5772	0	32948	32762	
5773	0	32892	32810	
5774	0	32828	32876	
5775	0	32824	32759	
5776	0	32718	32830	
5777	0	32752	32836	
5778	0	32706	32692	
5779	0	32784	32767	
5780	0	32790	32821	
5781	0	32716	32632	
5782	0	32736	32750	
5783	0	32748	32684	
5784	0	32798	32718	
5785	0	32796	32775	
5786	0	32826	32576	
5787	0	32786	32698	
5788	0	32884	32606	
5789	0	32858	32744	
5790	0	32772	32794	
5791	0	32804	32764	
5792	0	32820	32796	
5793	0	32824	32862	
5794	0	32808	32769	
5795	0	32856	32872	
5796	0	32828	32834	
5797	0	32820	32704	
5798	0	32794	32748	
5799	0	32760	32703	
5800	0	32757	32822	
5801	0	32775	32868	
5802	0	32776	32665	
5803	0	32808	32786	
5804	0	32804	32744	
5805	0	32740	32771	
5806	0	32720	32804	
5807	0	32784	32612	
5808	0	32776	32770	
5809	0	32784	32820	
5810	0	32848	32796	
5811	0	32872	32775	
5812	0	32956	32714	
5813	0	32888	32817	
5814	0	32814	32716	
5815	0	32804	32684	
5816	0	32848	32810	
5817	0	32828	32798	
5818	0	32828	32894	
5819	0	32766	32775	
5820	0	32784	32710	
5821	0	32732	32711	
5822	0	32858	32807	
5823	0	32876	32775	
5824	0	32806	32704	
5825	0	32864	32864	
5826	0	32772	32759	
5827	0	32782	32748	
5828	0	32694	32766	
5829	0	32760	32762	
5830	0	32740	32740	
5831	0	32788	32812	
5832	0	32810	32710	
5833	0	32912	32876	
5834	0	32804	32753	
5835	0	32788	32804	
5836	0	32808	32748	
5837	0	32814	32646	
5838	0	32820	32839	
5839	0	32776	32800	
5840	0	32806	32864	
5841	0	32712	32836	
5842	0	32704	32694	
5843	0	32684	32744	
5844	0	32738	32726	
5845	0	32717	32847	
5846	0	32741	32850	
5847	0	32684	32839	
5848	0	32844	32858	
5849	0	32832	32816	
5850	0	32896	32746	
5851	0	32884	32775	
5852	0	32876	32807	
5853	0	32896	32686	
5854	0	32842	32766	
5855	0	32842	32703	
5856	0	32850	32720	
5857	0	32912	32748	
5858	0	32852	32711	
5859	0	32872	32881	
5860	0	32852	32824	
5861	0	32888	32688	
5862	0	32864	32796	
5863	0	32888	32846	
5864	0	32828	32878	
5865	0	32908	32806	
5866	0	32864	32762	
5867	0	32890	32814	
5868	0	32824	32679	
5869	0	32769	32618	
5870	0	32816	32742	
5871	0	32784	32834	
5872	0	32780	32770	
5873	0	32841	32804	
5874	0	32850	32719	
5875	0	32844	32708	
5876	0	32880	32718	
5877	0	32858	32642	
5878	0	32927	32743	
5879	0	32848	32772	
5880	0	32820	32704	
5881	0	32852	32775	
5882	0	32772	32764	
5883	0	32730	32828	
5884	0	32722	32806	
5885	0	32724	32716	
5886	0	32712	32736	
5887	0	32704	32764	
5888	0	32778	32806	
5889	0	32732	32793	
5890	0	32752	32856	
5891	0	32848	32830	
5892	0	32922	32682	
5893	0	32842	32796	
5894	0	32878	32712	
5895	0	32796	32820	
5896	0	32826	32822	
5897	0	32842	32640	
5898	0	32846	32756	
5899	0	32824	32860	
5900	0	32838	32702	
5901	0	32852	32838	
5902	0	32836	32800	
5903	0	32884	32724	
5904	0	32840	32760	
5905	0	32838	32734	
5906	0	32804	32726	
5907	0	32778	32743	
5908	0	32872	32712	
5909	0	32806	32750	
5910	0	32796	32678	
5911	0	32804	32718	
5912	0	32808	32678	
5913	0	32868	32798	
5914	0	32838	32807	
5915	0	32808	32900	
5916	0	32812	32728	
5917	0	32772	32862	
5918	0	32776	32810	
5919	0	32800	32738	
5920	0	32812	32855	
5921	0	32764	32840	
5922	0	32756	32860	
5923	0	32796	32710	
5924	0	32736	32964	
5925	0	32792	32827	
5926	0	32824	32862	
5927	0	32884	32718	
5928	0	32804	32774	
5929	0	32832	32824	
5930	0	32772	32775	
5931	0	32828	32743	
5932	0	32836	32764	
5933	0	32832	32764	
5934	0	32868	32670	
5935	0	32764	32768	
5936	0	32828	32846	
5937	0	32780	32730	
5938	0	32832	32724	
5939	0	32770	32741	
5940	0	32808	32632	
5941	0	32756	32721	
5942	0	32834	32725	
5943	0	32750	32642	
5944	0	32878	32696	
5945	0	32806	32807	
5946	0	32818	32730	
5947	0	32884	32722	
5948	0	32808	32744	
5949	0	32800	32716	
5950	0	32760	32810	
5951	0	32802	32774	
5952	0	32734	32788	
5953	0	32792	32736	
5954	0	32768	32770	
5955	0	32792	32798	
5956	0	32794	32746	
5957	0	32784	32786	
5958	0	32836	32828	
5959	0	32804	32704	
5960	0	32868	32768	
5961	0	32880	32775	
5962	0	32864	32647	
5963	0	32852	32807	
5964	0	32825	32934	
5965	0	32792	32756	
5966	0	32770	32834	
5967	0	32780	32761	
5968	0	32820	32746	
5969	0	32832	32856	
5970	0	32814	32698	
5971	0	32816	32723	
5972	0	32792	32775	
5973	0	32804	32832	
5974	0	32822	32794	
5975	0	32876	32736	
5976	0	32824	32844	
5977	0	32841	32836	
5978	0	32772	32742	
5979	0	32804	32840	
5980	0	32800	32849	
5981	0	32852	32750	
5982	0	32782	32662	
5983	0	32854	32796	
5984	0	32828	32737	
5985	0	32844	32742	
5986	0	32842	32791	
5987	0	32780	32702	
5988	0	32868	32704	
5989	0	32828	32724	
5990	0	32816	32840	
5991	0	32808	32746	
5992	0	32844	32874	
5993	0	32773	32775	
5994	0	32844	32746	
5995	0	32772	32871	
5996	0	32806	32720	
5997	0	32776	32658	
5998	0	32782	32716	
5999	0	32804	32830	
6000	0	32812	32711	
6001	0	32770	32828	
6002	0	32800	32888	
6003	0	32856	32736	
6004	0	32826	32804	
6005	0	32716	32712	
6006	0	32728	32628	
6007	0	32808	32846	
6008	0	32834	32775	
6009	0	32824	32697	
6010	0	32830	32771	
6011	0	32796	32820	
6012	0	32840	32774	
