# OpenSignals Text File Format. Version 1
# {"00:07:80:8C:0A:39": {"position": 0, "device": "biosignalsplux", "device name": "00:07:80:8C:0A:39", "device connection": "BTH00:07:80:8C:0A:39", "sampling rate": 1000, "resolution": [16, 16], "firmware version": 776, "comments": "", "keywords": "", "mode": 0, "sync interval": 2, "date": "2023-3-19", "time": "11:8:11.123", "channels": [1, 2], "sensor": ["EMG", "EMG"], "label": ["CH1", "CH2"], "column": ["nSeq", "DI", "CH1", "CH2"], "special": [{"SpO2": [80, 40, 5, 4, 3, 3]}, {"SpO2": [80, 40, 5, 4, 3, 3]}, {"SpO2": [80, 40, 5, 4, 3, 3]}, {"SpO2": [80, 40, 5, 4, 3, 3]}, {"SpO2": [80, 40, 5, 4, 3, 3]}, {"SpO2": [80, 40, 5, 4, 3, 3]}, {"SpO2": [80, 40, 5, 4, 3, 3]}, {"SpO2": [80, 40, 5, 4, 3, 3]}], "digital IO": [0, 1], "sleeve color": ["gray", "yellow"], "convertedValues": 0}}
# EndOfHeader
0	0	32849	32806	
1	0	32860	32721	
2	0	32816	32828	
3	0	32784	32762	
4	0	32828	32703	
5	0	32804	32678	
6	0	32780	32856	
7	0	32792	32802	
8	0	32756	32736	
9	0	32812	32824	
10	0	32792	32790	
11	0	32768	32741	
12	0	32786	32662	
13	0	32816	32768	
14	0	32876	32858	
15	0	32788	32824	
16	0	32860	32758	
17	0	32868	32788	
18	0	32928	32736	
19	0	32772	32700	
20	0	32846	32842	
21	0	32832	32796	
22	0	32780	32740	
23	0	32818	32740	
24	0	32780	32810	
25	0	32824	32870	
26	0	32916	32690	
27	0	32756	32736	
28	0	32680	32686	
29	0	32834	32775	
30	0	32850	32828	
31	0	32820	32836	
32	0	32824	32814	
33	0	32826	32824	
34	0	32860	32839	
35	0	32778	32748	
36	0	32802	32736	
37	0	32745	32737	
38	0	32782	32767	
39	0	32808	32860	
40	0	32801	32788	
41	0	32806	32822	
42	0	32778	32789	
43	0	32828	32854	
44	0	32814	32626	
45	0	32850	32688	
46	0	32810	32775	
47	0	32770	32774	
48	0	32850	32774	
49	0	32884	32902	
50	0	32732	32748	
51	0	32796	32766	
52	0	32802	32614	
53	0	32812	32730	
54	0	32856	32726	
55	0	32760	32882	
56	0	32776	32847	
57	0	32852	32769	
58	0	32830	32758	
59	0	32790	32850	
60	0	32788	32890	
61	0	32840	32734	
62	0	32776	32706	
63	0	32792	32727	
64	0	32752	32858	
65	0	32836	32796	
66	0	32836	32775	
67	0	32832	32738	
68	0	32860	32799	
69	0	32804	32728	
70	0	32804	32849	
71	0	32794	32823	
72	0	32792	32832	
73	0	32732	32734	
74	0	32757	32732	
75	0	32836	32788	
76	0	32780	32744	
77	0	32736	32710	
78	0	32776	32820	
79	0	32804	32812	
80	0	32728	32799	
81	0	32804	32674	
82	0	32846	32846	
83	0	32792	32775	
84	0	32800	32870	
85	0	32792	32764	
86	0	32828	32742	
87	0	32780	32641	
88	0	32812	32684	
89	0	32840	32732	
90	0	32788	32796	
91	0	32780	32854	
92	0	32828	32812	
93	0	32812	32748	
94	0	32840	32920	
95	0	32838	32736	
96	0	32844	32766	
97	0	32780	32742	
98	0	32856	32775	
99	0	32840	32817	
100	0	32832	32768	
101	0	32818	32805	
102	0	32852	32798	
103	0	32784	32764	
104	0	32792	32676	
105	0	32786	32708	
106	0	32796	32630	
107	0	32814	32686	
108	0	32816	32764	
109	0	32820	32788	
110	0	32820	32789	
111	0	32812	32740	
112	0	32806	32682	
113	0	32830	32820	
114	0	32876	32792	
115	0	32880	32788	
116	0	32858	32806	
117	0	32820	32820	
118	0	32836	32864	
119	0	32860	32824	
120	0	32840	32732	
121	0	32772	32730	
122	0	32804	32826	
123	0	32772	32747	
124	0	32810	32756	
125	0	32814	32798	
126	0	32848	32752	
127	0	32796	32756	
128	0	32868	32727	
129	0	32820	32743	
130	0	32852	32708	
131	0	32840	32668	
132	0	32799	32712	
133	0	32764	32927	
134	0	32820	32844	
135	0	32860	32903	
136	0	32864	32792	
137	0	32827	32762	
138	0	32828	32748	
139	0	32776	32772	
140	0	32842	32740	
141	0	32804	32690	
142	0	32828	32726	
143	0	32796	32678	
144	0	32814	32727	
145	0	32760	32738	
146	0	32800	32799	
147	0	32750	32806	
148	0	32804	32700	
149	0	32892	32798	
150	0	32866	32842	
151	0	32878	32775	
152	0	32768	32752	
153	0	32808	32863	
154	0	32824	32775	
155	0	32879	32748	
156	0	32832	32727	
157	0	32796	32871	
158	0	32800	32775	
159	0	32760	32775	
160	0	32792	32743	
161	0	32814	32728	
162	0	32720	32762	
163	0	32720	32804	
164	0	32853	32760	
165	0	32788	32678	
166	0	32832	32642	
167	0	32768	32680	
168	0	32868	32829	
169	0	32808	32840	
170	0	32772	32790	
171	0	32766	32762	
172	0	32828	32742	
173	0	32798	32784	
174	0	32836	32706	
175	0	32830	32744	
176	0	32810	32806	
177	0	32844	32812	
178	0	32872	32770	
179	0	32796	32839	
180	0	32782	32770	
181	0	32868	32794	
182	0	32888	32775	
183	0	32766	32886	
184	0	32800	32743	
185	0	32830	32688	
186	0	32744	32844	
187	0	32806	32740	
188	0	32789	32792	
189	0	32786	32859	
190	0	32818	32740	
191	0	32816	32870	
192	0	32868	32751	
193	0	32844	32756	
194	0	32840	32836	
195	0	32790	32810	
196	0	32848	32724	
197	0	32768	32854	
198	0	32840	32791	
199	0	32752	32757	
200	0	32836	32664	
201	0	32764	32676	
202	0	32788	32876	
203	0	32740	32810	
204	0	32776	32820	
205	0	32840	32764	
206	0	32792	32814	
207	0	32820	32903	
208	0	32718	32860	
209	0	32832	32834	
210	0	32844	32692	
211	0	32863	32732	
212	0	32844	32655	
213	0	32844	32679	
214	0	32872	32820	
215	0	32844	32792	
216	0	32848	32742	
217	0	32860	32860	
218	0	32836	32752	
219	0	32744	32679	
220	0	32776	32734	
221	0	32816	32816	
222	0	32794	32748	
223	0	32800	32750	
224	0	32764	32787	
225	0	32790	32756	
226	0	32804	32792	
227	0	32786	32672	
228	0	32824	32852	
229	0	32800	32804	
230	0	32774	32712	
231	0	32852	32736	
232	0	32784	32798	
233	0	32822	32792	
234	0	32800	32858	
235	0	32794	32836	
236	0	32864	32748	
237	0	32766	32722	
238	0	32778	32738	
239	0	32822	32839	
240	0	32816	32775	
241	0	32782	32746	
242	0	32834	32746	
243	0	32856	32775	
244	0	32826	32724	
245	0	32820	32658	
246	0	32774	32740	
247	0	32788	32866	
248	0	32822	32750	
249	0	32760	32816	
250	0	32812	32676	
251	0	32788	32710	
252	0	32828	32775	
253	0	32808	32854	
254	0	32860	32788	
255	0	32804	32743	
256	0	32848	32801	
257	0	32794	32838	
258	0	32772	32800	
259	0	32853	32682	
260	0	32780	32775	
261	0	32822	32738	
262	0	32800	32772	
263	0	32768	32886	
264	0	32816	32781	
265	0	32792	32710	
266	0	32838	32712	
267	0	32750	32704	
268	0	32786	32812	
269	0	32820	32742	
270	0	32820	32768	
271	0	32780	32736	
272	0	32832	32732	
273	0	32858	32734	
274	0	32800	32785	
275	0	32788	32862	
276	0	32760	32820	
277	0	32820	32775	
278	0	32798	32702	
279	0	32818	32775	
280	0	32804	32758	
281	0	32752	32784	
282	0	32864	32652	
283	0	32784	32800	
284	0	32780	32820	
285	0	32844	32774	
286	0	32820	32832	
287	0	32754	32673	
288	0	32790	32748	
289	0	32784	32732	
290	0	32780	32815	
291	0	32804	32664	
292	0	32820	32785	
293	0	32782	32804	
294	0	32784	32844	
295	0	32820	32628	
296	0	32776	32708	
297	0	32816	32839	
298	0	32824	32775	
299	0	32816	32711	
300	0	32812	32870	
301	0	32798	32768	
302	0	32848	32625	
303	0	32812	32696	
304	0	32750	32876	
305	0	32816	32796	
306	0	32732	32668	
307	0	32828	32762	
308	0	32810	32806	
309	0	32800	32772	
310	0	32808	32688	
311	0	32822	32756	
312	0	32788	32864	
313	0	32812	32804	
314	0	32860	32866	
315	0	32854	32735	
316	0	32876	32718	
317	0	32804	32822	
318	0	32804	32819	
319	0	32836	32710	
320	0	32832	32852	
321	0	32838	32708	
322	0	32812	32706	
323	0	32836	32736	
324	0	32810	32804	
325	0	32775	32726	
326	0	32808	32716	
327	0	32804	32742	
328	0	32813	32724	
329	0	32812	32678	
330	0	32780	32676	
331	0	32808	32743	
332	0	32774	32818	
333	0	32792	32732	
334	0	32812	32832	
335	0	32800	32775	
336	0	32824	32812	
337	0	32810	32830	
338	0	32800	32674	
339	0	32800	32663	
340	0	32804	32928	
341	0	32872	32821	
342	0	32800	32828	
343	0	32772	32727	
344	0	32772	32764	
345	0	32850	32876	
346	0	32736	32740	
347	0	32800	32693	
348	0	32872	32770	
349	0	32816	32793	
350	0	32864	32692	
351	0	32888	32756	
352	0	32772	32812	
353	0	32808	32736	
354	0	32780	32686	
355	0	32774	32790	
356	0	32864	32768	
357	0	32832	32756	
358	0	32772	32692	
359	0	32808	32828	
360	0	32766	32627	
361	0	32770	32746	
362	0	32792	32878	
363	0	32820	32760	
364	0	32822	32820	
365	0	32772	32775	
366	0	32848	32794	
367	0	32806	32788	
368	0	32846	32775	
369	0	32862	32784	
370	0	32886	32775	
371	0	32800	32836	
372	0	32826	32790	
373	0	32796	32796	
374	0	32838	32748	
375	0	32788	32682	
376	0	32784	32839	
377	0	32832	32764	
378	0	32808	32744	
379	0	32794	32772	
380	0	32804	32736	
381	0	32808	32662	
382	0	32852	32860	
383	0	32838	32854	
384	0	32834	32810	
385	0	32784	32808	
386	0	32741	32792	
387	0	32814	32708	
388	0	32856	32807	
389	0	32854	32798	
390	0	32836	32814	
391	0	32840	32710	
392	0	32776	32660	
393	0	32766	32775	
394	0	32802	32830	
395	0	32788	32816	
396	0	32812	32708	
397	0	32834	32700	
398	0	32744	32768	
399	0	32806	32758	
400	0	32804	32754	
401	0	32806	32758	
402	0	32768	32668	
403	0	32804	32825	
404	0	32874	32743	
405	0	32836	32742	
406	0	32820	32832	
407	0	32800	32775	
408	0	32784	32838	
409	0	32752	32713	
410	0	32820	32831	
411	0	32802	32687	
412	0	32816	32704	
413	0	32800	32860	
414	0	32830	32762	
415	0	32800	32762	
416	0	32798	32739	
417	0	32816	32738	
418	0	32852	32912	
419	0	32856	32736	
420	0	32864	32862	
421	0	32792	32771	
422	0	32888	32714	
423	0	32796	32822	
424	0	32804	32751	
425	0	32856	32710	
426	0	32816	32752	
427	0	32826	32730	
428	0	32828	32806	
429	0	32776	32775	
430	0	32764	32775	
431	0	32824	32764	
432	0	32792	32711	
433	0	32814	32714	
434	0	32888	32788	
435	0	32824	32775	
436	0	32780	32791	
437	0	32828	32790	
438	0	32774	32738	
439	0	32816	32688	
440	0	32842	32850	
441	0	32792	32794	
442	0	32752	32856	
443	0	32804	32738	
444	0	32802	32688	
445	0	32738	32767	
446	0	32852	32775	
447	0	32818	32792	
448	0	32792	32694	
449	0	32868	32728	
450	0	32774	32775	
451	0	32802	32752	
452	0	32816	32842	
453	0	32832	32730	
454	0	32868	32714	
455	0	32824	32850	
456	0	32828	32804	
457	0	32796	32718	
458	0	32812	32742	
459	0	32846	32775	
460	0	32788	32800	
461	0	32804	32774	
462	0	32884	32807	
463	0	32836	32832	
464	0	32788	32762	
465	0	32750	32788	
466	0	32830	32702	
467	0	32744	32796	
468	0	32820	32610	
469	0	32790	32664	
470	0	32724	32804	
471	0	32820	32775	
472	0	32796	32761	
473	0	32824	32775	
474	0	32830	32726	
475	0	32820	32798	
476	0	32886	32729	
477	0	32800	32764	
478	0	32816	32656	
479	0	32788	32828	
480	0	32778	32826	
481	0	32824	32775	
482	0	32812	32804	
483	0	32822	32716	
484	0	32816	32807	
485	0	32848	32902	
486	0	32836	32796	
487	0	32836	32812	
488	0	32844	32666	
489	0	32824	32736	
490	0	32798	32759	
491	0	32818	32727	
492	0	32780	32775	
493	0	32808	32814	
494	0	32896	32762	
495	0	32826	32770	
496	0	32804	32710	
497	0	32836	32758	
498	0	32760	32746	
499	0	32856	32910	
500	0	32820	32706	
501	0	32808	32711	
502	0	32884	32794	
503	0	32810	32728	
504	0	32836	32860	
505	0	32808	32728	
506	0	32796	32696	
507	0	32780	32748	
508	0	32820	32743	
509	0	32810	32850	
510	0	32838	32796	
511	0	32708	32660	
512	0	32780	32814	
513	0	32740	32736	
514	0	32864	32866	
515	0	32796	32732	
516	0	32832	32636	
517	0	32798	32766	
518	0	32862	32775	
519	0	32820	32806	
520	0	32810	32775	
521	0	32836	32705	
522	0	32864	32758	
523	0	32808	32878	
524	0	32792	32828	
525	0	32840	32830	
526	0	32808	32794	
527	0	32804	32828	
528	0	32784	32730	
529	0	32764	32860	
530	0	32788	32806	
531	0	32794	32720	
532	0	32768	32775	
533	0	32870	32719	
534	0	32832	32815	
535	0	32848	32694	
536	0	32824	32775	
537	0	32762	32800	
538	0	32946	32722	
539	0	32826	32812	
540	0	32864	32640	
541	0	32768	32874	
542	0	32824	32727	
543	0	32820	32775	
544	0	32808	32694	
545	0	32820	32634	
546	0	32840	32785	
547	0	32840	32884	
548	0	32852	32709	
549	0	32752	32674	
550	0	32792	32727	
551	0	32788	32807	
552	0	32808	32768	
553	0	32814	32775	
554	0	32842	32832	
555	0	32856	32730	
556	0	32780	32703	
557	0	32812	32772	
558	0	32864	32775	
559	0	32784	32774	
560	0	32764	32734	
561	0	32820	32800	
562	0	32806	32788	
563	0	32772	32711	
564	0	32836	32775	
565	0	32766	32775	
566	0	32804	32738	
567	0	32884	32847	
568	0	32860	32734	
569	0	32770	32770	
570	0	32816	32828	
571	0	32756	32775	
572	0	32828	32820	
573	0	32823	32834	
574	0	32775	32743	
575	0	32766	32710	
576	0	32816	32800	
577	0	32790	32812	
578	0	32800	32834	
579	0	32800	32764	
580	0	32816	32794	
581	0	32734	32856	
582	0	32781	32768	
583	0	32804	32766	
584	0	32784	32702	
585	0	32824	32762	
586	0	32808	32816	
587	0	32837	32816	
588	0	32818	32806	
589	0	32808	32775	
590	0	32816	32688	
591	0	32852	32711	
592	0	32816	32802	
593	0	32816	32784	
594	0	32822	32775	
595	0	32784	32642	
596	0	32816	32726	
597	0	32844	32772	
598	0	32808	32866	
599	0	32796	32692	
600	0	32808	32726	
601	0	32792	32720	
602	0	32746	32760	
603	0	32842	32768	
604	0	32790	32742	
605	0	32808	32856	
606	0	32772	32766	
607	0	32836	32799	
608	0	32788	32775	
609	0	32804	32748	
610	0	32828	32801	
611	0	32796	32804	
612	0	32844	32760	
613	0	32838	32810	
614	0	32878	32696	
615	0	32792	32810	
616	0	32792	32768	
617	0	32852	32814	
618	0	32760	32656	
619	0	32728	32728	
620	0	32740	32762	
621	0	32824	32696	
622	0	32860	32794	
623	0	32824	32758	
624	0	32790	32768	
625	0	32862	32878	
626	0	32846	32764	
627	0	32832	32742	
628	0	32796	32826	
629	0	32812	32775	
630	0	32852	32760	
631	0	32842	32740	
632	0	32846	32764	
633	0	32876	32775	
634	0	32832	32825	
635	0	32782	32754	
636	0	32850	32698	
637	0	32884	32707	
638	0	32824	32810	
639	0	32780	32770	
640	0	32794	32770	
641	0	32793	32696	
642	0	32844	32709	
643	0	32754	32770	
644	0	32756	32839	
645	0	32822	32758	
646	0	32732	32775	
647	0	32820	32780	
648	0	32844	32810	
649	0	32782	32801	
650	0	32792	32670	
651	0	32820	32807	
652	0	32786	32796	
653	0	32798	32726	
654	0	32846	32746	
655	0	32808	32702	
656	0	32828	32874	
657	0	32852	32812	
658	0	32798	32860	
659	0	32764	32710	
660	0	32780	32681	
661	0	32836	32852	
662	0	32704	32750	
663	0	32844	32839	
664	0	32852	32686	
665	0	32796	32727	
666	0	32800	32818	
667	0	32792	32737	
668	0	32768	32800	
669	0	32828	32752	
670	0	32808	32714	
671	0	32834	32712	
672	0	32838	32770	
673	0	32842	32674	
674	0	32894	32711	
675	0	32930	32626	
676	0	32908	32581	
677	0	32968	32734	
678	0	32932	32682	
679	0	32952	32668	
680	0	32956	32535	
681	0	32924	32550	
682	0	32968	32586	
683	0	32980	32622	
684	0	32964	32518	
685	0	32924	32583	
686	0	32974	32647	
687	0	32934	32693	
688	0	32928	32648	
689	0	32880	32764	
690	0	32924	32702	
691	0	32937	32609	
692	0	32870	32844	
693	0	32752	32817	
694	0	32630	33020	
695	0	32512	32984	
696	0	32502	33046	
697	0	32456	33126	
698	0	32368	33198	
699	0	32212	33350	
700	0	32216	33396	
701	0	32232	33383	
702	0	32469	33246	
703	0	32560	33012	
704	0	32634	33050	
705	0	32782	32830	
706	0	32702	32742	
707	0	32760	32906	
708	0	32740	32920	
709	0	32744	32766	
710	0	32822	32760	
711	0	32896	32672	
712	0	32872	32561	
713	0	32916	32474	
714	0	32948	32632	
715	0	33020	32501	
716	0	33032	32535	
717	0	32990	32367	
718	0	32996	32570	
719	0	32972	32648	
720	0	32940	32676	
721	0	32970	32584	
722	0	33004	32696	
723	0	32980	32576	
724	0	32904	32618	
725	0	32914	32682	
726	0	32880	32634	
727	0	32816	32728	
728	0	32920	32614	
729	0	32860	32662	
730	0	32912	32852	
731	0	32806	32654	
732	0	32892	32804	
733	0	32784	32697	
734	0	32884	32886	
735	0	32868	32794	
736	0	32804	32748	
737	0	32784	32884	
738	0	32825	32662	
739	0	32778	32660	
740	0	32794	32775	
741	0	32728	32805	
742	0	32832	32890	
743	0	32820	32702	
744	0	32792	32860	
745	0	32728	32790	
746	0	32844	32830	
747	0	32784	32844	
748	0	32812	32695	
749	0	32780	32716	
750	0	32782	32788	
751	0	32782	32863	
752	0	32792	32794	
753	0	32872	32768	
754	0	32842	32762	
755	0	32848	32716	
756	0	32836	32828	
757	0	32836	32760	
758	0	32866	32772	
759	0	32804	32738	
760	0	32788	32872	
761	0	32740	32858	
762	0	32864	32807	
763	0	32804	32716	
764	0	32872	32670	
765	0	32838	32737	
766	0	32808	32810	
767	0	32824	32840	
768	0	32828	32856	
769	0	32784	32839	
770	0	32792	32826	
771	0	32796	32834	
772	0	32814	32794	
773	0	32852	32682	
774	0	32732	32647	
775	0	32764	32668	
776	0	32804	32714	
777	0	32748	32775	
778	0	32776	32812	
779	0	32804	32798	
780	0	32772	32744	
781	0	32836	32838	
782	0	32788	32762	
783	0	32801	32695	
784	0	32744	32745	
785	0	32824	32806	
786	0	32842	32774	
787	0	32838	32762	
788	0	32784	32770	
789	0	32828	32824	
790	0	32828	32740	
791	0	32756	32718	
792	0	32853	32722	
793	0	32816	32734	
794	0	32796	32826	
795	0	32788	32772	
796	0	32832	32775	
797	0	32832	32804	
798	0	32756	32820	
799	0	32836	32834	
800	0	32788	32756	
801	0	32820	32722	
802	0	32800	32766	
803	0	32890	32678	
804	0	32760	32696	
805	0	32750	32742	
806	0	32840	32748	
807	0	32838	32831	
808	0	32812	32736	
809	0	32768	32775	
810	0	32784	32740	
811	0	32802	32898	
812	0	32798	32734	
813	0	32888	32764	
814	0	32812	32676	
815	0	32788	32670	
816	0	32810	32704	
817	0	32833	32764	
818	0	32808	32732	
819	0	32828	32716	
820	0	32784	32844	
821	0	32800	32863	
822	0	32806	32716	
823	0	32778	32775	
824	0	32746	32628	
825	0	32772	32647	
826	0	32868	32708	
827	0	32872	32775	
828	0	32834	32774	
829	0	32836	32762	
830	0	32820	32791	
831	0	32808	32762	
832	0	32824	32696	
833	0	32768	32722	
834	0	32794	32824	
835	0	32879	32732	
836	0	32772	32804	
837	0	32844	32821	
838	0	32828	32811	
839	0	32832	32754	
840	0	32788	32730	
841	0	32864	32864	
842	0	32808	32756	
843	0	32862	32775	
844	0	32816	32702	
845	0	32820	32711	
846	0	32834	32668	
847	0	32817	32828	
848	0	32832	32853	
849	0	32808	32753	
850	0	32772	32766	
851	0	32772	32746	
852	0	32772	32812	
853	0	32816	32697	
854	0	32830	32644	
855	0	32782	32756	
856	0	32840	32768	
857	0	32764	32761	
858	0	32798	32772	
859	0	32802	32738	
860	0	32792	32852	
861	0	32810	32766	
862	0	32808	32820	
863	0	32780	32878	
864	0	32828	32890	
865	0	32788	32832	
866	0	32760	32856	
867	0	32824	32768	
868	0	32784	32775	
869	0	32840	32682	
870	0	32788	32644	
871	0	32782	32687	
872	0	32780	32748	
873	0	32846	32698	
874	0	32872	32812	
875	0	32812	32798	
876	0	32834	32810	
877	0	32800	32751	
878	0	32884	32804	
879	0	32828	32865	
880	0	32800	32708	
881	0	32836	32691	
882	0	32728	32722	
883	0	32880	32652	
884	0	32800	32695	
885	0	32810	32794	
886	0	32814	32792	
887	0	32822	32696	
888	0	32864	32861	
889	0	32846	32794	
890	0	32784	32772	
891	0	32725	32874	
892	0	32816	32772	
893	0	32940	32775	
894	0	32820	32834	
895	0	32808	32764	
896	0	32840	32723	
897	0	32820	32798	
898	0	32818	32724	
899	0	32800	32736	
900	0	32840	32830	
901	0	32848	32730	
902	0	32764	32679	
903	0	32920	32758	
904	0	32856	32775	
905	0	32846	32672	
906	0	32808	32743	
907	0	32828	32730	
908	0	32792	32870	
909	0	32816	32744	
910	0	32804	32706	
911	0	32868	32716	
912	0	32830	32886	
913	0	32764	32682	
914	0	32796	32828	
915	0	32820	32748	
916	0	32904	32735	
917	0	32808	32834	
918	0	32774	32756	
919	0	32824	32822	
920	0	32751	32790	
921	0	32804	32660	
922	0	32792	32672	
923	0	32812	32775	
924	0	32832	32752	
925	0	32740	32772	
926	0	32808	32723	
927	0	32775	32702	
928	0	32808	32752	
929	0	32892	32828	
930	0	32804	32764	
931	0	32788	32743	
932	0	32752	32809	
933	0	32844	32792	
934	0	32874	32828	
935	0	32780	32708	
936	0	32852	32684	
937	0	32841	32794	
938	0	32764	32742	
939	0	32748	32828	
940	0	32860	32807	
941	0	32826	32636	
942	0	32888	32830	
943	0	32792	32773	
944	0	32816	32722	
945	0	32793	32768	
946	0	32788	32860	
947	0	32824	32737	
948	0	32780	32696	
949	0	32768	32743	
950	0	32828	32794	
951	0	32826	32775	
952	0	32846	32718	
953	0	32832	32802	
954	0	32840	32838	
955	0	32826	32726	
956	0	32863	32836	
957	0	32796	32734	
958	0	32844	32752	
959	0	32806	32839	
960	0	32820	32730	
961	0	32808	32759	
962	0	32852	32855	
963	0	32832	32740	
964	0	32788	32711	
965	0	32760	32864	
966	0	32824	32758	
967	0	32804	32758	
968	0	32832	32820	
969	0	32820	32674	
970	0	32772	32714	
971	0	32774	32800	
972	0	32770	32736	
973	0	32780	32812	
974	0	32780	32750	
975	0	32820	32660	
976	0	32764	32748	
977	0	32824	32814	
978	0	32770	32842	
979	0	32750	32828	
980	0	32804	32775	
981	0	32736	32814	
982	0	32804	32711	
983	0	32794	32852	
984	0	32788	32732	
985	0	32788	32844	
986	0	32908	32795	
987	0	32840	32640	
988	0	32856	32726	
989	0	32776	32702	
990	0	32764	32852	
991	0	32806	32798	
992	0	32824	32710	
993	0	32824	32831	
994	0	32748	32820	
995	0	32838	32628	
996	0	32856	32738	
997	0	32800	32823	
998	0	32800	32774	
999	0	32852	32712	
1000	0	32816	32728	
1001	0	32816	32802	
1002	0	32784	32752	
1003	0	32812	32842	
1004	0	32784	32775	
1005	0	32840	32663	
1006	0	32780	32764	
1007	0	32740	32804	
1008	0	32752	32810	
1009	0	32748	32854	
1010	0	32800	32775	
1011	0	32770	32706	
1012	0	32818	32760	
1013	0	32874	32821	
1014	0	32812	32840	
1015	0	32832	32788	
1016	0	32756	32775	
1017	0	32792	32666	
1018	0	32868	32752	
1019	0	32828	32734	
1020	0	32854	32814	
1021	0	32796	32840	
1022	0	32812	32704	
1023	0	32788	32695	
1024	0	32774	32660	
1025	0	32750	32640	
1026	0	32812	32830	
1027	0	32838	32764	
1028	0	32876	32775	
1029	0	32856	32823	
1030	0	32880	32736	
1031	0	32820	32711	
1032	0	32844	32822	
1033	0	32800	32841	
1034	0	32840	32740	
1035	0	32844	32764	
1036	0	32836	32602	
1037	0	32788	32657	
1038	0	32860	32862	
1039	0	32852	32784	
1040	0	32848	32743	
1041	0	32902	32894	
1042	0	32864	32746	
1043	0	32782	32678	
1044	0	32778	32874	
1045	0	32804	32784	
1046	0	32810	32775	
1047	0	32724	32700	
1048	0	32788	32736	
1049	0	32856	32732	
1050	0	32790	32743	
1051	0	32800	32800	
1052	0	32772	32807	
1053	0	32868	32743	
1054	0	32812	32854	
1055	0	32852	32840	
1056	0	32738	32742	
1057	0	32800	32677	
1058	0	32768	32850	
1059	0	32788	32764	
1060	0	32758	32705	
1061	0	32812	32816	
1062	0	32824	32800	
1063	0	32880	32695	
1064	0	32830	32720	
1065	0	32828	32838	
1066	0	32788	32702	
1067	0	32736	32798	
1068	0	32790	32705	
1069	0	32800	32696	
1070	0	32808	32796	
1071	0	32796	32767	
1072	0	32804	32838	
1073	0	32828	32838	
1074	0	32880	32775	
1075	0	32790	32720	
1076	0	32775	32746	
1077	0	32820	32884	
1078	0	32816	32844	
1079	0	32776	32719	
1080	0	32832	32806	
1081	0	32792	32807	
1082	0	32794	32724	
1083	0	32788	32686	
1084	0	32788	32832	
1085	0	32832	32826	
1086	0	32832	32757	
1087	0	32748	32847	
1088	0	32792	32772	
1089	0	32766	32796	
1090	0	32808	32732	
1091	0	32840	32740	
1092	0	32862	32826	
1093	0	32836	32788	
1094	0	32768	32680	
1095	0	32800	32867	
1096	0	32832	32855	
1097	0	32804	32736	
1098	0	32736	32692	
1099	0	32842	32774	
1100	0	32924	32816	
1101	0	32812	32881	
1102	0	32828	32694	
1103	0	32866	32704	
1104	0	32784	32804	
1105	0	32784	32727	
1106	0	32806	32764	
1107	0	32748	32775	
1108	0	32774	32716	
1109	0	32740	32738	
1110	0	32784	32758	
1111	0	32796	32784	
1112	0	32836	32828	
1113	0	32816	32817	
1114	0	32810	32750	
1115	0	32780	32730	
1116	0	32848	32695	
1117	0	32788	32766	
1118	0	32812	32788	
1119	0	32892	32784	
1120	0	32880	32676	
1121	0	32876	32764	
1122	0	32754	32826	
1123	0	32788	32796	
1124	0	32780	32790	
1125	0	32768	32700	
1126	0	32814	32708	
1127	0	32798	32746	
1128	0	32804	32766	
1129	0	32852	32730	
1130	0	32832	32860	
1131	0	32772	32792	
1132	0	32802	32766	
1133	0	32830	32774	
1134	0	32828	32822	
1135	0	32810	32814	
1136	0	32796	32758	
1137	0	32772	32811	
1138	0	32792	32802	
1139	0	32808	32712	
1140	0	32824	32646	
1141	0	32848	32769	
1142	0	32824	32748	
1143	0	32774	32807	
1144	0	32778	32830	
1145	0	32828	32712	
1146	0	32828	32703	
1147	0	32814	32714	
1148	0	32826	32874	
1149	0	32772	32766	
1150	0	32796	32794	
1151	0	32816	32819	
1152	0	32808	32732	
1153	0	32766	32646	
1154	0	32852	32828	
1155	0	32796	32793	
1156	0	32832	32734	
1157	0	32884	32790	
1158	0	32780	32732	
1159	0	32816	32866	
1160	0	32844	32796	
1161	0	32774	32760	
1162	0	32802	32788	
1163	0	32868	32754	
1164	0	32892	32799	
1165	0	32832	32826	
1166	0	32750	32784	
1167	0	32824	32718	
1168	0	32804	32835	
1169	0	32846	32772	
1170	0	32806	32752	
1171	0	32814	32664	
1172	0	32740	32822	
1173	0	32782	32790	
1174	0	32836	32757	
1175	0	32744	32820	
1176	0	32800	32740	
1177	0	32768	32734	
1178	0	32858	32809	
1179	0	32782	32846	
1180	0	32836	32785	
1181	0	32820	32711	
1182	0	32828	32762	
1183	0	32804	32812	
1184	0	32872	32775	
1185	0	32840	32864	
1186	0	32832	32772	
1187	0	32792	32610	
1188	0	32836	32726	
1189	0	32734	32775	
1190	0	32802	32788	
1191	0	32784	32704	
1192	0	32804	32817	
1193	0	32752	32772	
1194	0	32820	32726	
1195	0	32730	32764	
1196	0	32806	32900	
1197	0	32880	32726	
1198	0	32832	32775	
1199	0	32864	32875	
1200	0	32796	32716	
1201	0	32844	32848	
1202	0	32896	32728	
1203	0	32806	32782	
1204	0	32848	32644	
1205	0	32780	32730	
1206	0	32816	32828	
1207	0	32744	32718	
1208	0	32772	32839	
1209	0	32792	32799	
1210	0	32780	32738	
1211	0	32823	32642	
1212	0	32820	32690	
1213	0	32884	32831	
1214	0	32844	32818	
1215	0	32784	32736	
1216	0	32772	32801	
1217	0	32864	32766	
1218	0	32824	32775	
1219	0	32812	32775	
1220	0	32834	32831	
1221	0	32824	32834	
1222	0	32765	32752	
1223	0	32886	32711	
1224	0	32822	32862	
1225	0	32804	32788	
1226	0	32822	32711	
1227	0	32786	32750	
1228	0	32776	32787	
1229	0	32788	32692	
1230	0	32782	32702	
1231	0	32800	32708	
1232	0	32740	32900	
1233	0	32792	32724	
1234	0	32820	32839	
1235	0	32816	32858	
1236	0	32864	32798	
1237	0	32840	32647	
1238	0	32828	32812	
1239	0	32864	32797	
1240	0	32876	32720	
1241	0	32780	32722	
1242	0	32756	32806	
1243	0	32784	32735	
1244	0	32808	32758	
1245	0	32828	32858	
1246	0	32866	32788	
1247	0	32814	32768	
1248	0	32824	32743	
1249	0	32784	32800	
1250	0	32760	32812	
1251	0	32784	32684	
1252	0	32808	32894	
1253	0	32760	32837	
1254	0	32820	32708	
1255	0	32894	32821	
1256	0	32796	32775	
1257	0	32810	32793	
1258	0	32812	32657	
1259	0	32785	32772	
1260	0	32784	32737	
1261	0	32772	32772	
1262	0	32848	32805	
1263	0	32844	32768	
1264	0	32840	32798	
1265	0	32824	32754	
1266	0	32744	32708	
1267	0	32832	32775	
1268	0	32804	32871	
1269	0	32816	32817	
1270	0	32816	32740	
1271	0	32759	32834	
1272	0	32864	32692	
1273	0	32788	32708	
1274	0	32804	32769	
1275	0	32800	32820	
1276	0	32812	32732	
1277	0	32856	32804	
1278	0	32800	32864	
1279	0	32826	32753	
1280	0	32812	32728	
1281	0	32800	32818	
1282	0	32820	32834	
1283	0	32752	32688	
1284	0	32776	32802	
1285	0	32790	32836	
1286	0	32816	32798	
1287	0	32724	32742	
1288	0	32832	32664	
1289	0	32816	32674	
1290	0	32798	32678	
1291	0	32760	32795	
1292	0	32816	32775	
1293	0	32812	32767	
1294	0	32750	32854	
1295	0	32792	32692	
1296	0	32752	32820	
1297	0	32838	32860	
1298	0	32876	32728	
1299	0	32848	32806	
1300	0	32838	32726	
1301	0	32820	32690	
1302	0	32840	32700	
1303	0	32798	32846	
1304	0	32800	32831	
1305	0	32764	32767	
1306	0	32804	32798	
1307	0	32798	32704	
1308	0	32808	32738	
1309	0	32780	32738	
1310	0	32790	32722	
1311	0	32796	32798	
1312	0	32776	32668	
1313	0	32782	32810	
1314	0	32848	32775	
1315	0	32828	32852	
1316	0	32836	32732	
1317	0	32798	32791	
1318	0	32812	32722	
1319	0	32832	32796	
1320	0	32792	32660	
1321	0	32776	32804	
1322	0	32764	32774	
1323	0	32816	32854	
1324	0	32828	32642	
1325	0	32882	32754	
1326	0	32790	32823	
1327	0	32832	32814	
1328	0	32814	32721	
1329	0	32857	32724	
1330	0	32800	32839	
1331	0	32848	32694	
1332	0	32783	32695	
1333	0	32804	32884	
1334	0	32820	32756	
1335	0	32868	32839	
1336	0	32788	32734	
1337	0	32836	32764	
1338	0	32796	32808	
1339	0	32764	32678	
1340	0	32808	32794	
1341	0	32780	32844	
1342	0	32842	32790	
1343	0	32820	32764	
1344	0	32770	32721	
1345	0	32781	32871	
1346	0	32826	32775	
1347	0	32876	32695	
1348	0	32810	32716	
1349	0	32788	32662	
1350	0	32817	32787	
1351	0	32768	32786	
1352	0	32808	32794	
1353	0	32812	32839	
1354	0	32786	32682	
1355	0	32848	32756	
1356	0	32810	32806	
1357	0	32832	32820	
1358	0	32810	32772	
1359	0	32816	32726	
1360	0	32780	32700	
1361	0	32818	32708	
1362	0	32800	32662	
1363	0	32824	32810	
1364	0	32764	32708	
1365	0	32688	32822	
1366	0	32812	32660	
1367	0	32846	32720	
1368	0	32764	32772	
1369	0	32772	32740	
1370	0	32860	32840	
1371	0	32818	32828	
1372	0	32874	32766	
1373	0	32846	32700	
1374	0	32822	32775	
1375	0	32756	32807	
1376	0	32834	32762	
1377	0	32788	32828	
1378	0	32856	32770	
1379	0	32844	32692	
1380	0	32792	32808	
1381	0	32788	32804	
1382	0	32790	32767	
1383	0	32788	32804	
1384	0	32888	32712	
1385	0	32816	32682	
1386	0	32756	32814	
1387	0	32800	32775	
1388	0	32814	32750	
1389	0	32848	32820	
1390	0	32772	32797	
1391	0	32844	32646	
1392	0	32858	32718	
1393	0	32870	32766	
1394	0	32828	32775	
1395	0	32822	32771	
1396	0	32837	32695	
1397	0	32824	32800	
1398	0	32788	32790	
1399	0	32798	32772	
1400	0	32845	32742	
1401	0	32846	32774	
1402	0	32784	32655	
1403	0	32826	32736	
1404	0	32822	32784	
1405	0	32756	32903	
1406	0	32788	32766	
1407	0	32742	32742	
1408	0	32772	32760	
1409	0	32808	32846	
1410	0	32742	32742	
1411	0	32788	32692	
1412	0	32812	32756	
1413	0	32858	32832	
1414	0	32864	32804	
1415	0	32818	32810	
1416	0	32796	32772	
1417	0	32788	32796	
1418	0	32806	32670	
1419	0	32830	32847	
1420	0	32920	32772	
1421	0	32816	32775	
1422	0	32772	32782	
1423	0	32826	32622	
1424	0	32840	32812	
1425	0	32792	32792	
1426	0	32754	32830	
1427	0	32758	32638	
1428	0	32816	32718	
1429	0	32776	32812	
1430	0	32744	32703	
1431	0	32802	32860	
1432	0	32796	32792	
1433	0	32788	32750	
1434	0	32792	32696	
1435	0	32874	32868	
1436	0	32796	32758	
1437	0	32753	32806	
1438	0	32810	32775	
1439	0	32796	32775	
1440	0	32832	32801	
1441	0	32768	32769	
1442	0	32800	32852	
1443	0	32866	32832	
1444	0	32840	32775	
1445	0	32784	32774	
1446	0	32752	32686	
1447	0	32772	32690	
1448	0	32824	32772	
1449	0	32808	32804	
1450	0	32804	32870	
1451	0	32847	32708	
1452	0	32832	32756	
1453	0	32832	32762	
1454	0	32800	32775	
1455	0	32808	32836	
1456	0	32800	32686	
1457	0	32812	32640	
1458	0	32868	32832	
1459	0	32848	32782	
1460	0	32800	32716	
1461	0	32894	32792	
1462	0	32780	32788	
1463	0	32774	32743	
1464	0	32856	32759	
1465	0	32840	32732	
1466	0	32792	32826	
1467	0	32776	32790	
1468	0	32828	32790	
1469	0	32794	32710	
1470	0	32844	32687	
1471	0	32838	32790	
1472	0	32764	32846	
1473	0	32821	32716	
1474	0	32780	32724	
1475	0	32824	32834	
1476	0	32812	32796	
1477	0	32868	32775	
1478	0	32912	32852	
1479	0	32800	32630	
1480	0	32794	32746	
1481	0	32790	32838	
1482	0	32788	32736	
1483	0	32792	32743	
1484	0	32740	32664	
1485	0	32848	32742	
1486	0	32810	32812	
1487	0	32744	32750	
1488	0	32840	32806	
1489	0	32894	32740	
1490	0	32756	32762	
1491	0	32780	32826	
1492	0	32836	32824	
1493	0	32798	32839	
1494	0	32832	32862	
1495	0	32808	32676	
1496	0	32782	32764	
1497	0	32798	32810	
1498	0	32808	32836	
1499	0	32798	32783	
1500	0	32764	32758	
1501	0	32780	32740	
1502	0	32760	32726	
1503	0	32780	32775	
1504	0	32856	32748	
1505	0	32839	32775	
1506	0	32792	32734	
1507	0	32813	32679	
1508	0	32720	32676	
1509	0	32860	32751	
1510	0	32866	32823	
1511	0	32853	32708	
1512	0	32852	32728	
1513	0	32808	32807	
1514	0	32796	32884	
1515	0	32727	32808	
1516	0	32741	32688	
1517	0	32752	32762	
1518	0	32808	32775	
1519	0	32784	32796	
1520	0	32808	32816	
1521	0	32908	32852	
1522	0	32844	32660	
1523	0	32832	32796	
1524	0	32788	32743	
1525	0	32780	32775	
1526	0	32886	32864	
1527	0	32864	32734	
1528	0	32828	32676	
1529	0	32840	32768	
1530	0	32814	32751	
1531	0	32828	32822	
1532	0	32828	32751	
1533	0	32812	32736	
1534	0	32824	32900	
1535	0	32774	32748	
1536	0	32814	32844	
1537	0	32782	32820	
1538	0	32740	32703	
1539	0	32828	32828	
1540	0	32844	32788	
1541	0	32852	32788	
1542	0	32794	32732	
1543	0	32828	32775	
1544	0	32792	32772	
1545	0	32860	32880	
1546	0	32796	32687	
1547	0	32782	32853	
1548	0	32804	32767	
1549	0	32748	32767	
1550	0	32804	32692	
1551	0	32870	32704	
1552	0	32852	32825	
1553	0	32768	32807	
1554	0	32816	32692	
1555	0	32744	32720	
1556	0	32828	32840	
1557	0	32784	32792	
1558	0	32840	32754	
1559	0	32796	32830	
1560	0	32792	32772	
1561	0	32838	32741	
1562	0	32828	32844	
1563	0	32760	32766	
1564	0	32812	32806	
1565	0	32752	32750	
1566	0	32768	32834	
1567	0	32806	32770	
1568	0	32800	32746	
1569	0	32764	32710	
1570	0	32788	32848	
1571	0	32793	32738	
1572	0	32868	32791	
1573	0	32744	32732	
1574	0	32784	32738	
1575	0	32800	32761	
1576	0	32776	32774	
1577	0	32810	32804	
1578	0	32834	32788	
1579	0	32806	32715	
1580	0	32812	32758	
1581	0	32816	32676	
1582	0	32858	32832	
1583	0	32818	32782	
1584	0	32728	32805	
1585	0	32764	32750	
1586	0	32872	32772	
1587	0	32808	32774	
1588	0	32812	32724	
1589	0	32848	32775	
1590	0	32852	32742	
1591	0	32864	32724	
1592	0	32800	32818	
1593	0	32832	32796	
1594	0	32812	32761	
1595	0	32772	32841	
1596	0	32789	32840	
1597	0	32808	32774	
1598	0	32808	32672	
1599	0	32836	32708	
1600	0	32876	32816	
1601	0	32804	32752	
1602	0	32836	32692	
1603	0	32780	32840	
1604	0	32776	32696	
1605	0	32828	32764	
1606	0	32784	32794	
1607	0	32768	32722	
1608	0	32760	32775	
1609	0	32777	32792	
1610	0	32790	32710	
1611	0	32884	32647	
1612	0	32776	32702	
1613	0	32796	32775	
1614	0	32872	32804	
1615	0	32824	32804	
1616	0	32830	32828	
1617	0	32804	32720	
1618	0	32757	32736	
1619	0	32832	32862	
1620	0	32832	32758	
1621	0	32820	32832	
1622	0	32792	32744	
1623	0	32864	32696	
1624	0	32848	32719	
1625	0	32768	32818	
1626	0	32802	32739	
1627	0	32784	32814	
1628	0	32776	32726	
1629	0	32838	32725	
1630	0	32872	32814	
1631	0	32800	32821	
1632	0	32858	32764	
1633	0	32816	32838	
1634	0	32824	32770	
1635	0	32812	32650	
1636	0	32804	32769	
1637	0	32836	32752	
1638	0	32844	32764	
1639	0	32892	32762	
1640	0	32816	32793	
1641	0	32852	32743	
1642	0	32774	32647	
1643	0	32804	32790	
1644	0	32812	32745	
1645	0	32788	32712	
1646	0	32794	32860	
1647	0	32784	32748	
1648	0	32812	32790	
1649	0	32820	32828	
1650	0	32846	32742	
1651	0	32844	32690	
1652	0	32830	32818	
1653	0	32748	32804	
1654	0	32836	32791	
1655	0	32784	32810	
1656	0	32834	32890	
1657	0	32856	32832	
1658	0	32788	32764	
1659	0	32804	32884	
1660	0	32780	32740	
1661	0	32802	32822	
1662	0	32752	32800	
1663	0	32788	32863	
1664	0	32788	32762	
1665	0	32786	32716	
1666	0	32804	32672	
1667	0	32838	32703	
1668	0	32748	32738	
1669	0	32868	32764	
1670	0	32840	32791	
1671	0	32896	32824	
1672	0	32900	32623	
1673	0	32912	32711	
1674	0	32912	32692	
1675	0	32904	32760	
1676	0	32964	32658	
1677	0	32918	32642	
1678	0	32940	32586	
1679	0	32900	32586	
1680	0	32962	32468	
1681	0	32996	32622	
1682	0	32964	32606	
1683	0	32940	32666	
1684	0	32984	32704	
1685	0	32896	32610	
1686	0	32932	32660	
1687	0	32916	32848	
1688	0	32916	32694	
1689	0	32892	32704	
1690	0	32840	32812	
1691	0	32858	32743	
1692	0	32704	32811	
1693	0	32694	32839	
1694	0	32666	32951	
1695	0	32520	33056	
1696	0	32464	33102	
1697	0	32340	33274	
1698	0	32352	33368	
1699	0	32180	33422	
1700	0	32252	33376	
1701	0	32404	33268	
1702	0	32600	33188	
1703	0	32652	32967	
1704	0	32746	32862	
1705	0	32769	32774	
1706	0	32760	32758	
1707	0	32758	32865	
1708	0	32724	32806	
1709	0	32732	32744	
1710	0	32876	32696	
1711	0	32896	32622	
1712	0	32932	32608	
1713	0	32944	32510	
1714	0	33080	32446	
1715	0	33006	32576	
1716	0	33108	32588	
1717	0	32944	32577	
1718	0	32948	32597	
1719	0	32992	32660	
1720	0	32888	32695	
1721	0	32930	32668	
1722	0	32916	32690	
1723	0	32828	32647	
1724	0	32888	32686	
1725	0	32866	32636	
1726	0	32908	32612	
1727	0	32808	32606	
1728	0	32924	32708	
1729	0	32928	32734	
1730	0	32850	32724	
1731	0	32834	32816	
1732	0	32884	32680	
1733	0	32844	32763	
1734	0	32776	32732	
1735	0	32804	32748	
1736	0	32784	32839	
1737	0	32750	32770	
1738	0	32794	32764	
1739	0	32778	32748	
1740	0	32724	32820	
1741	0	32794	32798	
1742	0	32813	32788	
1743	0	32788	32796	
1744	0	32796	32852	
1745	0	32804	32759	
1746	0	32834	32714	
1747	0	32856	32764	
1748	0	32832	32838	
1749	0	32804	32760	
1750	0	32804	32811	
1751	0	32810	32892	
1752	0	32744	32828	
1753	0	32810	32700	
1754	0	32780	32834	
1755	0	32780	32698	
1756	0	32832	32796	
1757	0	32816	32858	
1758	0	32838	32784	
1759	0	32836	32670	
1760	0	32816	32792	
1761	0	32796	32854	
1762	0	32766	32738	
1763	0	32860	32764	
1764	0	32840	32718	
1765	0	32876	32725	
1766	0	32840	32775	
1767	0	32792	32727	
1768	0	32776	32863	
1769	0	32804	32712	
1770	0	32794	32712	
1771	0	32832	32791	
1772	0	32820	32816	
1773	0	32778	32790	
1774	0	32788	32878	
1775	0	32812	32836	
1776	0	32828	32708	
1777	0	32812	32676	
1778	0	32820	32810	
1779	0	32840	32846	
1780	0	32784	32820	
1781	0	32878	32738	
1782	0	32838	32820	
1783	0	32836	32742	
1784	0	32736	32757	
1785	0	32810	32700	
1786	0	32740	32714	
1787	0	32824	32722	
1788	0	32790	32695	
1789	0	32834	32807	
1790	0	32876	32720	
1791	0	32820	32774	
1792	0	32760	32823	
1793	0	32808	32724	
1794	0	32756	32855	
1795	0	32736	32864	
1796	0	32760	32766	
1797	0	32778	32864	
1798	0	32828	32686	
1799	0	32824	32784	
1800	0	32792	32790	
1801	0	32772	32688	
1802	0	32840	32803	
1803	0	32848	32647	
1804	0	32736	32682	
1805	0	32856	32788	
1806	0	32856	32736	
1807	0	32820	32790	
1808	0	32772	32775	
1809	0	32816	32662	
1810	0	32780	32698	
1811	0	32736	32804	
1812	0	32812	32785	
1813	0	32824	32862	
1814	0	32780	32799	
1815	0	32840	32768	
1816	0	32780	32737	
1817	0	32808	32724	
1818	0	32838	32861	
1819	0	32812	32704	
1820	0	32798	32700	
1821	0	32824	32844	
1822	0	32770	32750	
1823	0	32838	32758	
1824	0	32856	32722	
1825	0	32864	32836	
1826	0	32852	32775	
1827	0	32804	32700	
1828	0	32792	32708	
1829	0	32790	32724	
1830	0	32808	32724	
1831	0	32760	32734	
1832	0	32826	32816	
1833	0	32732	32762	
1834	0	32806	32789	
1835	0	32780	32708	
1836	0	32890	32698	
1837	0	32788	32794	
1838	0	32878	32761	
1839	0	32826	32828	
1840	0	32834	32806	
1841	0	32804	32734	
1842	0	32856	32710	
1843	0	32782	32729	
1844	0	32792	32840	
1845	0	32836	32702	
1846	0	32744	32695	
1847	0	32800	32728	
1848	0	32792	32838	
1849	0	32782	32678	
1850	0	32817	32684	
1851	0	32768	32808	
1852	0	32828	32775	
1853	0	32774	32756	
1854	0	32874	32758	
1855	0	32830	32728	
1856	0	32847	32728	
1857	0	32810	32892	
1858	0	32820	32767	
1859	0	32744	32751	
1860	0	32792	32888	
1861	0	32826	32870	
1862	0	32784	32660	
1863	0	32830	32636	
1864	0	32830	32656	
1865	0	32824	32794	
1866	0	32828	32775	
1867	0	32816	32902	
1868	0	32820	32812	
1869	0	32750	32775	
1870	0	32764	32684	
1871	0	32892	32711	
1872	0	32772	32692	
1873	0	32792	32838	
1874	0	32838	32750	
1875	0	32854	32694	
1876	0	32896	32812	
1877	0	32856	32728	
1878	0	32744	32674	
1879	0	32816	32727	
1880	0	32818	32820	
1881	0	32800	32838	
1882	0	32824	32796	
1883	0	32856	32818	
1884	0	32776	32815	
1885	0	32832	32703	
1886	0	32780	32680	
1887	0	32860	32662	
1888	0	32844	32852	
1889	0	32752	32788	
1890	0	32722	32804	
1891	0	32784	32738	
1892	0	32832	32860	
1893	0	32876	32775	
1894	0	32852	32715	
1895	0	32816	32700	
1896	0	32836	32772	
1897	0	32780	32810	
1898	0	32886	32870	
1899	0	32846	32826	
1900	0	32820	32739	
1901	0	32836	32726	
1902	0	32808	32775	
1903	0	32836	32732	
1904	0	32734	32756	
1905	0	32708	32710	
1906	0	32799	32724	
1907	0	32804	32749	
1908	0	32838	32868	
1909	0	32804	32820	
1910	0	32802	32732	
1911	0	32864	32804	
1912	0	32828	32768	
1913	0	32830	32790	
1914	0	32820	32746	
1915	0	32784	32792	
1916	0	32844	32764	
1917	0	32774	32738	
1918	0	32864	32812	
1919	0	32860	32826	
1920	0	32826	32800	
1921	0	32824	32839	
1922	0	32820	32775	
1923	0	32732	32638	
1924	0	32794	32692	
1925	0	32788	32690	
1926	0	32764	32815	
1927	0	32858	32746	
1928	0	32844	32734	
1929	0	32848	32806	
1930	0	32764	32788	
1931	0	32828	32722	
1932	0	32764	32700	
1933	0	32824	32772	
1934	0	32800	32670	
1935	0	32878	32854	
1936	0	32808	32775	
1937	0	32854	32802	
1938	0	32776	32831	
1939	0	32770	32775	
1940	0	32768	32828	
1941	0	32842	32830	
1942	0	32800	32822	
1943	0	32800	32775	
1944	0	32820	32708	
1945	0	32872	32752	
1946	0	32800	32679	
1947	0	32780	32814	
1948	0	32774	32804	
1949	0	32752	32700	
1950	0	32832	32618	
1951	0	32752	32732	
1952	0	32764	32838	
1953	0	32897	32772	
1954	0	32816	32834	
1955	0	32834	32824	
1956	0	32754	32675	
1957	0	32836	32753	
1958	0	32818	32756	
1959	0	32838	32721	
1960	0	32834	32824	
1961	0	32848	32816	
1962	0	32802	32796	
1963	0	32752	32888	
1964	0	32840	32727	
1965	0	32806	32894	
1966	0	32798	32832	
1967	0	32876	32674	
1968	0	32788	32650	
1969	0	32776	32744	
1970	0	32824	32814	
1971	0	32769	32775	
1972	0	32790	32838	
1973	0	32792	32837	
1974	0	32724	32772	
1975	0	32832	32630	
1976	0	32798	32724	
1977	0	32854	32744	
1978	0	32908	32775	
1979	0	32800	32703	
1980	0	32824	32708	
1981	0	32808	32772	
1982	0	32758	32774	
1983	0	32821	32803	
1984	0	32766	32814	
1985	0	32800	32766	
1986	0	32808	32812	
1987	0	32810	32790	
1988	0	32794	32718	
1989	0	32776	32728	
1990	0	32812	32686	
1991	0	32780	32824	
1992	0	32844	32836	
1993	0	32772	32730	
1994	0	32824	32676	
1995	0	32892	32818	
1996	0	32884	32842	
1997	0	32816	32840	
1998	0	32784	32790	
1999	0	32828	32631	
2000	0	32842	32692	
2001	0	32823	32835	
2002	0	32776	32757	
2003	0	32786	32760	
2004	0	32732	32711	
2005	0	32804	32764	
2006	0	32804	32798	
2007	0	32768	32896	
2008	0	32840	32824	
2009	0	32840	32775	
2010	0	32836	32756	
2011	0	32794	32736	
2012	0	32828	32647	
2013	0	32774	32718	
2014	0	32740	32678	
2015	0	32796	32698	
2016	0	32896	32836	
2017	0	32924	32775	
2018	0	32892	32848	
2019	0	32808	32792	
2020	0	32774	32698	
2021	0	32740	32656	
2022	0	32756	32678	
2023	0	32804	32710	
2024	0	32754	32871	
2025	0	32792	32817	
2026	0	32824	32740	
2027	0	32830	32730	
2028	0	32872	32743	
2029	0	32782	32628	
2030	0	32752	32695	
2031	0	32808	32744	
2032	0	32764	32920	
2033	0	32776	32894	
2034	0	32804	32940	
2035	0	32774	32668	
2036	0	32906	32764	
2037	0	32848	32714	
2038	0	32832	32690	
2039	0	32868	32794	
2040	0	32852	32769	
2041	0	32992	32812	
2042	0	32906	32676	
2043	0	32769	32732	
2044	0	32724	32768	
2045	0	32778	32654	
2046	0	32902	32728	
2047	0	32936	32903	
2048	0	32900	32912	
2049	0	32824	32919	
2050	0	32692	32819	
2051	0	32634	32817	
2052	0	32804	32812	
2053	0	32856	32807	
2054	0	32856	32724	
2055	0	32762	32692	
2056	0	32766	32810	
2057	0	32780	32702	
2058	0	32762	32722	
2059	0	32788	32718	
2060	0	32752	32666	
2061	0	32822	32896	
2062	0	32848	32875	
2063	0	32852	32770	
2064	0	32788	32647	
2065	0	32800	32764	
2066	0	32832	32743	
2067	0	32760	32890	
2068	0	32812	32900	
2069	0	32780	32796	
2070	0	32878	32786	
2071	0	32872	32800	
2072	0	32728	32766	
2073	0	32856	32668	
2074	0	32728	32570	
2075	0	32672	32580	
2076	0	32832	32727	
2077	0	32870	32730	
2078	0	32788	32789	
2079	0	32774	32744	
2080	0	32760	32728	
2081	0	32740	32671	
2082	0	32742	32816	
2083	0	32834	32798	
2084	0	33052	32888	
2085	0	33038	32942	
2086	0	32884	32838	
2087	0	32790	32775	
2088	0	32780	32658	
2089	0	32720	32686	
2090	0	32746	32662	
2091	0	32872	32825	
2092	0	32820	32766	
2093	0	32798	32690	
2094	0	32796	32858	
2095	0	32814	32898	
2096	0	32796	32788	
2097	0	32820	32887	
2098	0	32824	32807	
2099	0	32846	32818	
2100	0	32832	32708	
2101	0	32775	32718	
2102	0	32816	32711	
2103	0	32792	32698	
2104	0	32796	32766	
2105	0	32812	32724	
2106	0	32744	32722	
2107	0	32784	32876	
2108	0	32824	32876	
2109	0	32776	32876	
2110	0	32774	32871	
2111	0	32796	32848	
2112	0	32876	32906	
2113	0	32872	32775	
2114	0	32810	32711	
2115	0	32794	32788	
2116	0	32896	32790	
2117	0	32868	32738	
2118	0	32864	32828	
2119	0	32754	32612	
2120	0	32917	32846	
2121	0	32860	32783	
2122	0	32897	32752	
2123	0	32802	32852	
2124	0	32836	32724	
2125	0	32800	32702	
2126	0	32750	32676	
2127	0	32778	32752	
2128	0	32724	32714	
2129	0	32693	32696	
2130	0	32768	32679	
2131	0	32868	32804	
2132	0	32936	32724	
2133	0	33072	32654	
2134	0	32904	32810	
2135	0	32858	32795	
2136	0	32874	32775	
2137	0	32804	32868	
2138	0	32740	32852	
2139	0	32736	32704	
2140	0	32700	32614	
2141	0	32832	32866	
2142	0	32888	32812	
2143	0	32762	32844	
2144	0	32784	32897	
2145	0	32772	32690	
2146	0	32780	32769	
2147	0	32792	32703	
2148	0	32808	32855	
2149	0	32804	32774	
2150	0	32798	32752	
2151	0	32868	32944	
2152	0	32844	32782	
2153	0	32932	32600	
2154	0	32834	32745	
2155	0	32844	32796	
2156	0	32774	32712	
2157	0	32504	32484	
2158	0	32528	32612	
2159	0	32800	32812	
2160	0	32892	32801	
2161	0	32990	32898	
2162	0	33118	32918	
2163	0	33136	32897	
2164	0	32928	32632	
2165	0	32740	32678	
2166	0	32644	32678	
2167	0	32612	32736	
2168	0	32644	32743	
2169	0	32860	32980	
2170	0	32976	33018	
2171	0	33008	32864	
2172	0	32820	32820	
2173	0	32700	32700	
2174	0	32526	32782	
2175	0	32594	32672	
2176	0	32760	32647	
2177	0	32888	32854	
2178	0	32908	32794	
2179	0	32842	32774	
2180	0	32942	32850	
2181	0	32962	32828	
2182	0	32878	32754	
2183	0	32962	32636	
2184	0	32720	32565	
2185	0	32568	32622	
2186	0	32660	32660	
2187	0	32708	32839	
2188	0	32750	32793	
2189	0	32770	32790	
2190	0	32856	32774	
2191	0	32776	32816	
2192	0	32868	32858	
2193	0	32752	32680	
2194	0	32892	32638	
2195	0	32964	32540	
2196	0	32820	32753	
2197	0	32684	32628	
2198	0	32804	32439	
2199	0	32876	32496	
2200	0	32848	32856	
2201	0	32854	32838	
2202	0	32788	32903	
2203	0	32852	32871	
2204	0	32842	33156	
2205	0	32812	33022	
2206	0	32666	32820	
2207	0	32764	32736	
2208	0	32784	32792	
2209	0	32732	32826	
2210	0	32760	32775	
2211	0	32778	32890	
2212	0	32758	32896	
2213	0	32688	32759	
2214	0	32852	32804	
2215	0	32752	32726	
2216	0	32780	32664	
2217	0	32780	32516	
2218	0	32898	32496	
2219	0	32812	32842	
2220	0	32782	32710	
2221	0	33144	32874	
2222	0	33364	32884	
2223	0	33168	32750	
2224	0	32677	32482	
2225	0	32644	32598	
2226	0	32602	32666	
2227	0	32524	32674	
2228	0	32661	32703	
2229	0	32716	32784	
2230	0	32612	32775	
2231	0	32668	32775	
2232	0	32816	32870	
2233	0	32814	32820	
2234	0	32896	32906	
2235	0	32752	32950	
2236	0	32848	32924	
2237	0	32791	32774	
2238	0	32906	32743	
2239	0	32884	32798	
2240	0	32784	32596	
2241	0	32860	32578	
2242	0	32956	32675	
2243	0	32900	32686	
2244	0	32970	32722	
2245	0	33000	32864	
2246	0	32900	32806	
2247	0	32972	32785	
2248	0	32922	32674	
2249	0	32734	32624	
2250	0	32714	32464	
2251	0	32588	32484	
2252	0	32836	32750	
2253	0	32660	32684	
2254	0	32480	32775	
2255	0	32236	32978	
2256	0	32360	33066	
2257	0	32708	33140	
2258	0	33220	33176	
2259	0	33436	33100	
2260	0	32848	32830	
2261	0	32712	32762	
2262	0	32812	32645	
2263	0	32794	32630	
2264	0	32700	32532	
2265	0	32670	32630	
2266	0	32732	32596	
2267	0	32778	32682	
2268	0	32798	32854	
2269	0	32732	32744	
2270	0	32727	32830	
2271	0	32746	32864	
2272	0	32720	32802	
2273	0	32672	32847	
2274	0	32720	32855	
2275	0	32828	32674	
2276	0	32820	32656	
2277	0	32856	32752	
2278	0	32740	32574	
2279	0	32750	32614	
2280	0	32772	32606	
2281	0	32832	32788	
2282	0	33010	32982	
2283	0	32890	33014	
2284	0	32852	33100	
2285	0	32900	33146	
2286	0	32888	32794	
2287	0	32757	32544	
2288	0	32644	32992	
2289	0	32662	32653	
2290	0	32882	32926	
2291	0	32962	32324	
2292	0	32948	32064	
2293	0	32906	32044	
2294	0	32906	32291	
2295	0	32824	32431	
2296	0	32728	32676	
2297	0	32852	32684	
2298	0	32672	32596	
2299	0	32448	32309	
2300	0	32592	32836	
2301	0	32870	33708	
2302	0	32932	33984	
2303	0	32996	34158	
2304	0	32916	33788	
2305	0	32974	33236	
2306	0	32972	32935	
2307	0	32890	32639	
2308	0	32718	32556	
2309	0	32688	32478	
2310	0	32732	32390	
2311	0	32718	32380	
2312	0	32706	32605	
2313	0	32748	32432	
2314	0	32692	32527	
2315	0	32728	32620	
2316	0	32736	32807	
2317	0	32718	32732	
2318	0	32756	32683	
2319	0	32748	32772	
2320	0	32804	32775	
2321	0	32790	32743	
2322	0	32756	32634	
2323	0	32832	32722	
2324	0	32876	32732	
2325	0	32822	32714	
2326	0	32792	32692	
2327	0	32924	32775	
2328	0	32894	32700	
2329	0	32792	32647	
2330	0	32800	32814	
2331	0	32700	32798	
2332	0	32640	32812	
2333	0	32736	32936	
2334	0	32666	32871	
2335	0	32852	33048	
2336	0	32850	32857	
2337	0	32876	32797	
2338	0	32804	32788	
2339	0	32784	32810	
2340	0	32648	32576	
2341	0	33092	32650	
2342	0	33288	32706	
2343	0	33082	32442	
2344	0	32996	32452	
2345	0	32676	32476	
2346	0	32560	32703	
2347	0	32584	32762	
2348	0	32660	32752	
2349	0	32821	32878	
2350	0	32790	32766	
2351	0	32668	32898	
2352	0	32678	32888	
2353	0	32676	32817	
2354	0	33008	32888	
2355	0	33160	32863	
2356	0	32958	32682	
2357	0	32864	32752	
2358	0	32702	32902	
2359	0	32726	32881	
2360	0	32744	32775	
2361	0	32744	32828	
2362	0	32724	32775	
2363	0	32760	32749	
2364	0	32796	32928	
2365	0	32600	32842	
2366	0	32674	32796	
2367	0	32700	32768	
2368	0	32864	32798	
2369	0	32888	32728	
2370	0	32868	32728	
2371	0	32966	32880	
2372	0	32898	32775	
2373	0	32870	32801	
2374	0	32894	32802	
2375	0	32912	32733	
2376	0	33028	32688	
2377	0	32968	32786	
2378	0	32894	32788	
2379	0	32864	32754	
2380	0	32860	32860	
2381	0	32814	32705	
2382	0	32868	32684	
2383	0	32858	32708	
2384	0	32860	32654	
2385	0	32800	32670	
2386	0	32788	32742	
2387	0	32828	32772	
2388	0	32854	32764	
2389	0	32904	32766	
2390	0	32841	32762	
2391	0	32820	32647	
2392	0	32776	32658	
2393	0	32780	32756	
2394	0	32800	32720	
2395	0	32686	32808	
2396	0	32812	32735	
2397	0	32760	32656	
2398	0	32775	32770	
2399	0	32892	32729	
2400	0	32820	32775	
2401	0	32752	32710	
2402	0	32804	32752	
2403	0	32744	32812	
2404	0	32892	32895	
2405	0	32924	32722	
2406	0	32920	32858	
2407	0	33010	32814	
2408	0	32868	32682	
2409	0	32958	32734	
2410	0	32960	32816	
2411	0	32948	32720	
2412	0	32936	32796	
2413	0	32908	32687	
2414	0	32896	32763	
2415	0	32900	32746	
2416	0	32868	32726	
2417	0	32904	32637	
2418	0	32964	32606	
2419	0	32896	32679	
2420	0	32846	32736	
2421	0	32868	32711	
2422	0	32834	32860	
2423	0	32810	32820	
2424	0	32804	32806	
2425	0	32838	32748	
2426	0	32828	32732	
2427	0	32870	32652	
2428	0	32815	32750	
2429	0	32876	32824	
2430	0	32836	32758	
2431	0	32834	32824	
2432	0	32836	32769	
2433	0	32864	32678	
2434	0	32852	32748	
2435	0	32832	32710	
2436	0	32824	32704	
2437	0	32816	32830	
2438	0	32784	32788	
2439	0	32856	32752	
2440	0	32856	32886	
2441	0	32840	32734	
2442	0	32888	32487	
2443	0	32842	32663	
2444	0	32820	32719	
2445	0	32784	32810	
2446	0	32778	32878	
2447	0	32820	32794	
2448	0	32816	32734	
2449	0	32804	32804	
2450	0	32808	32938	
2451	0	32778	32767	
2452	0	32812	32836	
2453	0	32774	32759	
2454	0	32828	32770	
2455	0	32860	32934	
2456	0	32732	32775	
2457	0	32800	32900	
2458	0	32720	32717	
2459	0	32727	32666	
2460	0	32736	32756	
2461	0	32796	32764	
2462	0	32816	32792	
2463	0	32704	32728	
2464	0	32752	32805	
2465	0	32764	32826	
2466	0	32804	32836	
2467	0	32736	32839	
2468	0	32720	32766	
2469	0	32760	32720	
2470	0	32832	32724	
2471	0	32832	32692	
2472	0	32850	32727	
2473	0	32836	32790	
2474	0	32784	32718	
2475	0	32846	32698	
2476	0	32728	32743	
2477	0	32742	32734	
2478	0	32759	32802	
2479	0	32788	32839	
2480	0	32766	32736	
2481	0	32696	32688	
2482	0	32712	32852	
2483	0	32824	32798	
2484	0	32796	32744	
2485	0	32784	32698	
2486	0	32780	32895	
2487	0	32748	32748	
2488	0	32696	32722	
2489	0	32768	32671	
2490	0	32732	32789	
2491	0	32826	32718	
2492	0	32776	32834	
2493	0	32736	32810	
2494	0	32746	32813	
2495	0	32836	32775	
2496	0	32728	32644	
2497	0	32792	32688	
2498	0	32794	32742	
2499	0	32744	32750	
2500	0	32716	32647	
2501	0	32688	32738	
2502	0	32744	32628	
2503	0	32756	32625	
2504	0	32740	32752	
2505	0	32804	32676	
2506	0	32830	32740	
2507	0	32800	32726	
2508	0	32828	32631	
2509	0	32810	32656	
2510	0	32772	32834	
2511	0	32852	32663	
2512	0	32860	32736	
2513	0	32864	32846	
2514	0	32884	32844	
2515	0	32920	32788	
2516	0	32808	32752	
2517	0	32898	32892	
2518	0	32908	32544	
2519	0	32860	32743	
2520	0	32856	32826	
2521	0	32880	32875	
2522	0	32860	32775	
2523	0	32858	32692	
2524	0	32908	32692	
2525	0	32860	32874	
2526	0	32896	32844	
2527	0	32828	32871	
2528	0	32852	32884	
2529	0	32832	32886	
2530	0	32834	32788	
2531	0	32820	32982	
2532	0	32786	32856	
2533	0	32800	32862	
2534	0	32804	32682	
2535	0	32866	32706	
2536	0	32824	32760	
2537	0	32820	32720	
2538	0	32764	32812	
2539	0	32716	32870	
2540	0	32712	32898	
2541	0	32864	32839	
2542	0	32834	33048	
2543	0	32860	32954	
2544	0	32908	32871	
2545	0	32852	32895	
2546	0	32836	32814	
2547	0	32836	32820	
2548	0	32892	32807	
2549	0	32821	32752	
2550	0	32852	32946	
2551	0	32896	32872	
2552	0	32906	32804	
2553	0	32828	32804	
2554	0	32886	32902	
2555	0	32836	32902	
2556	0	32880	32790	
2557	0	32876	32872	
2558	0	32826	32759	
2559	0	32856	32790	
2560	0	32880	32903	
2561	0	32838	32800	
2562	0	32880	32814	
2563	0	32788	32882	
2564	0	32856	32900	
2565	0	32886	32826	
2566	0	32870	32756	
2567	0	32784	32739	
2568	0	32832	32698	
2569	0	32914	32694	
2570	0	32852	32794	
2571	0	32800	32743	
2572	0	32816	32600	
2573	0	32784	32660	
2574	0	32740	32679	
2575	0	32808	32647	
2576	0	32792	32693	
2577	0	32834	32839	
2578	0	32884	32623	
2579	0	32884	32846	
2580	0	32804	32839	
2581	0	32864	32838	
2582	0	32832	32807	
2583	0	32824	32812	
2584	0	32826	32999	
2585	0	32764	32990	
2586	0	32852	32888	
2587	0	32828	32868	
2588	0	32868	32938	
2589	0	32818	32794	
2590	0	32824	32823	
2591	0	32820	33038	
2592	0	32782	32943	
2593	0	32860	32739	
2594	0	32852	32833	
2595	0	32860	32854	
2596	0	32783	32922	
2597	0	32808	32968	
2598	0	32820	32878	
2599	0	32862	32828	
2600	0	32888	32761	
2601	0	32892	32895	
2602	0	32820	32942	
2603	0	32828	32966	
2604	0	32752	32932	
2605	0	32796	32994	
2606	0	32796	32903	
2607	0	32798	32934	
2608	0	32750	32884	
2609	0	32796	32846	
2610	0	32752	32940	
2611	0	32788	32805	
2612	0	32832	32874	
2613	0	32845	32796	
2614	0	32780	32792	
2615	0	32804	32834	
2616	0	32830	32812	
2617	0	32760	32834	
2618	0	32762	32839	
2619	0	32800	32848	
2620	0	32844	32818	
2621	0	32774	32703	
2622	0	32744	32544	
2623	0	32876	32492	
2624	0	32900	32602	
2625	0	32908	32574	
2626	0	32856	32387	
2627	0	32882	32545	
2628	0	32932	32432	
2629	0	32889	32327	
2630	0	32864	32386	
2631	0	32980	32391	
2632	0	32968	32300	
2633	0	32900	32384	
2634	0	32872	32500	
2635	0	32848	32512	
2636	0	32826	32516	
2637	0	32832	32510	
2638	0	32848	32592	
2639	0	32880	32578	
2640	0	32780	32604	
2641	0	32724	32799	
2642	0	32612	32920	
2643	0	32588	32996	
2644	0	32474	32920	
2645	0	32440	32990	
2646	0	32376	33018	
2647	0	32276	33226	
2648	0	32176	33504	
2649	0	32276	33516	
2650	0	32388	33243	
2651	0	32528	32986	
2652	0	32656	32821	
2653	0	32720	32754	
2654	0	32736	32832	
2655	0	32832	32693	
2656	0	32732	32706	
2657	0	32850	32848	
2658	0	32806	32628	
2659	0	32896	32686	
2660	0	32908	32564	
2661	0	32884	32524	
2662	0	32952	32436	
2663	0	32938	32462	
2664	0	32960	32454	
2665	0	32884	32535	
2666	0	32945	32498	
2667	0	33012	32550	
2668	0	32868	32488	
2669	0	32944	32584	
2670	0	32924	32530	
2671	0	32888	32678	
2672	0	32892	32703	
2673	0	32882	32612	
2674	0	32864	32807	
2675	0	32900	32692	
2676	0	32812	32704	
2677	0	32852	32670	
2678	0	32892	32788	
2679	0	32872	32655	
2680	0	32824	32634	
2681	0	32852	32586	
2682	0	32768	32775	
2683	0	32808	32654	
2684	0	32828	32775	
2685	0	32778	32766	
2686	0	32768	32706	
2687	0	32922	32828	
2688	0	32796	32774	
2689	0	32792	32800	
2690	0	32776	32817	
2691	0	32792	32838	
2692	0	32798	32798	
2693	0	32860	32935	
2694	0	32824	32768	
2695	0	32852	32697	
2696	0	32900	32646	
2697	0	32892	32708	
2698	0	32832	32798	
2699	0	32824	32775	
2700	0	32810	32824	
2701	0	32792	32762	
2702	0	32880	32756	
2703	0	32752	32775	
2704	0	32808	32848	
2705	0	32776	32838	
2706	0	32840	32901	
2707	0	32836	32736	
2708	0	32820	32598	
2709	0	32864	32630	
2710	0	32876	32716	
2711	0	32840	32804	
2712	0	32876	32792	
2713	0	32756	32794	
2714	0	32740	32800	
2715	0	32776	32712	
2716	0	32770	32694	
2717	0	32812	32792	
2718	0	32796	32720	
2719	0	32796	32775	
2720	0	32760	32714	
2721	0	32774	32607	
2722	0	32708	32748	
2723	0	32800	32682	
2724	0	32718	32758	
2725	0	32730	32836	
2726	0	32792	32775	
2727	0	32784	32788	
2728	0	32848	32903	
2729	0	32820	32842	
2730	0	32784	32766	
2731	0	32808	32746	
2732	0	32800	32870	
2733	0	32796	32822	
2734	0	32798	32760	
2735	0	32800	32816	
2736	0	32744	32828	
2737	0	32754	32820	
2738	0	32818	32788	
2739	0	32796	32810	
2740	0	32774	32904	
2741	0	32776	32842	
2742	0	32742	32767	
2743	0	32785	32724	
2744	0	32728	32843	
2745	0	32780	32807	
2746	0	32672	32770	
2747	0	32720	32796	
2748	0	32724	32806	
2749	0	32700	32770	
2750	0	32785	32680	
2751	0	32786	32734	
2752	0	32758	32806	
2753	0	32802	32746	
2754	0	32860	32760	
2755	0	32852	32768	
2756	0	32858	32788	
2757	0	32876	32714	
2758	0	32828	32775	
2759	0	32814	32732	
2760	0	32808	32646	
2761	0	32688	32859	
2762	0	32792	32716	
2763	0	32838	32764	
2764	0	32814	32902	
2765	0	32804	32842	
2766	0	32744	32855	
2767	0	32746	32790	
2768	0	32764	32820	
2769	0	32780	32828	
2770	0	32828	32800	
2771	0	32824	32874	
2772	0	32838	32774	
2773	0	32812	32748	
2774	0	32768	32726	
2775	0	32774	32862	
2776	0	32830	32803	
2777	0	32836	32846	
2778	0	32788	32902	
2779	0	32808	32916	
2780	0	32871	32735	
2781	0	32846	32856	
2782	0	32852	32775	
2783	0	32828	32832	
2784	0	32842	32708	
2785	0	32856	32792	
2786	0	32880	32775	
2787	0	32848	32768	
2788	0	32832	32873	
2789	0	32844	32744	
2790	0	32817	32700	
2791	0	32704	32672	
2792	0	32796	32852	
2793	0	32792	32786	
2794	0	32860	32660	
2795	0	32888	32702	
2796	0	32848	32784	
2797	0	32860	32687	
2798	0	32914	32652	
2799	0	32914	32747	
2800	0	32948	32832	
2801	0	32888	32752	
2802	0	32916	32743	
2803	0	32872	32732	
2804	0	32890	32702	
2805	0	32930	32775	
2806	0	32916	32823	
2807	0	32902	32775	
2808	0	32890	32736	
2809	0	32892	32730	
2810	0	32930	32892	
2811	0	32892	32748	
2812	0	32874	32847	
2813	0	32978	32734	
2814	0	32922	32678	
2815	0	32920	32716	
2816	0	32936	32766	
2817	0	32882	32770	
2818	0	32868	32854	
2819	0	32882	32802	
2820	0	32892	32740	
2821	0	32856	32849	
2822	0	32816	32775	
2823	0	32881	32714	
2824	0	32816	32918	
2825	0	32882	32756	
2826	0	32912	32794	
2827	0	32888	32830	
2828	0	32872	32840	
2829	0	32780	33002	
2830	0	32768	32864	
2831	0	32834	32734	
2832	0	32782	32748	
2833	0	32728	32866	
2834	0	32696	32863	
2835	0	32744	32818	
2836	0	32748	32839	
2837	0	32830	32832	
2838	0	32800	32800	
2839	0	32794	32812	
2840	0	32832	32790	
2841	0	32826	32775	
2842	0	32812	32926	
2843	0	32813	32970	
2844	0	32788	32860	
2845	0	32830	32844	
2846	0	32813	32815	
2847	0	32762	32842	
2848	0	32804	32762	
2849	0	32814	32727	
2850	0	32778	32719	
2851	0	32808	32794	
2852	0	32826	32844	
2853	0	32796	32820	
2854	0	32832	32800	
2855	0	32780	32721	
2856	0	32676	32806	
2857	0	32736	32758	
2858	0	32768	32852	
2859	0	32708	32916	
2860	0	32688	32828	
2861	0	32724	32752	
2862	0	32698	32744	
2863	0	32676	32798	
2864	0	32782	32722	
2865	0	32828	32775	
2866	0	32768	32798	
2867	0	32760	32678	
2868	0	32720	32716	
2869	0	32756	32831	
2870	0	32826	32800	
2871	0	32721	32727	
2872	0	32794	32820	
2873	0	32780	32762	
2874	0	32770	32753	
2875	0	32780	32615	
2876	0	32780	32590	
2877	0	32868	32678	
2878	0	32912	32642	
2879	0	32828	32704	
2880	0	32808	32750	
2881	0	32790	32672	
2882	0	32810	32750	
2883	0	32740	32676	
2884	0	32796	32601	
2885	0	32821	32654	
2886	0	32780	32711	
2887	0	32712	32652	
2888	0	32744	32775	
2889	0	32756	32736	
2890	0	32802	32728	
2891	0	32828	32823	
2892	0	32720	32716	
2893	0	32788	32679	
2894	0	32864	32756	
2895	0	32816	32860	
2896	0	32725	32832	
2897	0	32828	32852	
2898	0	32828	32698	
2899	0	32764	32638	
2900	0	32780	32775	
2901	0	32792	32805	
2902	0	32808	32750	
2903	0	32864	32774	
2904	0	32840	32768	
2905	0	32804	32727	
2906	0	32896	32740	
2907	0	32758	32732	
2908	0	32752	32814	
2909	0	32898	32759	
2910	0	32804	32807	
2911	0	32812	32775	
2912	0	32828	32692	
2913	0	32772	32740	
2914	0	32832	32790	
2915	0	32776	32768	
2916	0	32832	32772	
2917	0	32798	32844	
2918	0	32782	32884	
2919	0	32794	32775	
2920	0	32828	32839	
2921	0	32786	32734	
2922	0	32692	32775	
2923	0	32770	32789	
2924	0	32768	32728	
2925	0	32828	32687	
2926	0	32854	32692	
2927	0	32844	32852	
2928	0	32848	32750	
2929	0	32782	32798	
2930	0	32848	32839	
2931	0	32824	32912	
2932	0	32860	32760	
2933	0	32892	32688	
2934	0	32888	32808	
2935	0	32838	32924	
2936	0	32880	32862	
2937	0	32872	32862	
2938	0	32836	32716	
2939	0	32757	32790	
2940	0	32784	32807	
2941	0	32798	32775	
2942	0	32752	32900	
2943	0	32808	32949	
2944	0	32840	32660	
2945	0	32744	32679	
2946	0	32844	32752	
2947	0	32814	32767	
2948	0	32832	32764	
2949	0	32784	32646	
2950	0	32848	32696	
2951	0	32820	32834	
2952	0	32804	32760	
2953	0	32788	32838	
2954	0	32796	32726	
2955	0	32786	32682	
2956	0	32817	32716	
2957	0	32836	32682	
2958	0	32796	32752	
2959	0	32784	32772	
2960	0	32816	32631	
2961	0	32832	32672	
2962	0	32782	32690	
2963	0	32822	32745	
2964	0	32764	32728	
2965	0	32844	32628	
2966	0	32756	32766	
2967	0	32736	32752	
2968	0	32798	32692	
2969	0	32766	32716	
2970	0	32820	32690	
2971	0	32784	32748	
2972	0	32760	32798	
2973	0	32822	32820	
2974	0	32812	32830	
2975	0	32760	32792	
2976	0	32868	32784	
2977	0	32796	32800	
2978	0	32792	32713	
2979	0	32832	32750	
2980	0	32814	32714	
2981	0	32836	32822	
2982	0	32804	32707	
2983	0	32756	32732	
2984	0	32798	32729	
2985	0	32808	32742	
2986	0	32804	32724	
2987	0	32728	32790	
2988	0	32804	32710	
2989	0	32744	32724	
2990	0	32828	32670	
2991	0	32780	32712	
2992	0	32844	32775	
2993	0	32793	32750	
2994	0	32796	32744	
2995	0	32847	32744	
2996	0	32882	32886	
2997	0	32828	32810	
2998	0	32788	32763	
2999	0	32784	32806	
3000	0	32848	32860	
3001	0	32832	32796	
3002	0	32828	32828	
3003	0	32812	32704	
3004	0	32824	32766	
3005	0	32791	32798	
3006	0	32830	32790	
3007	0	32898	32660	
3008	0	32806	32700	
3009	0	32838	32712	
3010	0	32751	32658	
3011	0	32704	32687	
3012	0	32716	32625	
3013	0	32800	32638	
3014	0	32720	32604	
3015	0	32782	32647	
3016	0	32820	32660	
3017	0	32808	32664	
3018	0	32780	32692	
3019	0	32680	32794	
3020	0	32824	32730	
3021	0	32788	32686	
3022	0	32904	32756	
3023	0	32784	32728	
3024	0	32780	32631	
3025	0	32792	32644	
3026	0	32880	32727	
3027	0	32732	32696	
3028	0	32784	32761	
3029	0	32752	32688	
3030	0	32744	32741	
3031	0	32710	32768	
3032	0	32804	32830	
3033	0	32852	32663	
3034	0	32862	32760	
3035	0	32866	32796	
3036	0	32868	32711	
3037	0	32792	32775	
3038	0	32814	32796	
3039	0	32784	32822	
3040	0	32802	32814	
3041	0	32740	32844	
3042	0	32894	32892	
3043	0	32794	32823	
3044	0	32840	32860	
3045	0	32932	32832	
3046	0	32744	32844	
3047	0	32896	32850	
3048	0	32868	32798	
3049	0	32862	32796	
3050	0	32864	32830	
3051	0	32834	32838	
3052	0	32900	32814	
3053	0	32804	32769	
3054	0	32804	32833	
3055	0	32824	32856	
3056	0	32832	32917	
3057	0	32816	32742	
3058	0	32830	32768	
3059	0	32828	32758	
3060	0	32874	32748	
3061	0	32776	32818	
3062	0	32692	32858	
3063	0	32838	32855	
3064	0	32789	32977	
3065	0	32740	32883	
3066	0	32752	32863	
3067	0	32784	32896	
3068	0	32760	32962	
3069	0	32830	32940	
3070	0	32720	32766	
3071	0	32732	32716	
3072	0	32740	32784	
3073	0	32778	32767	
3074	0	32756	32874	
3075	0	32700	32903	
3076	0	32676	32842	
3077	0	32728	32702	
3078	0	32668	32838	
3079	0	32748	32823	
3080	0	32696	32930	
3081	0	32832	32894	
3082	0	32760	32842	
3083	0	32860	32734	
3084	0	32800	32770	
3085	0	32748	32820	
3086	0	32810	32847	
3087	0	32736	32870	
3088	0	32782	32758	
3089	0	32910	32842	
3090	0	32876	32826	
3091	0	32940	32796	
3092	0	32889	32692	
3093	0	32898	32744	
3094	0	32770	32716	
3095	0	32860	32775	
3096	0	32924	32942	
3097	0	32872	32820	
3098	0	32852	32866	
3099	0	32844	32903	
3100	0	32821	32946	
3101	0	32806	32796	
3102	0	32860	32752	
3103	0	32837	32834	
3104	0	32864	32775	
3105	0	32842	32726	
3106	0	32868	32886	
3107	0	32912	32836	
3108	0	32848	32752	
3109	0	32848	32707	
3110	0	32950	32801	
3111	0	32940	32822	
3112	0	32876	32822	
3113	0	32916	32802	
3114	0	32876	32721	
3115	0	32904	32688	
3116	0	32900	32714	
3117	0	32834	32832	
3118	0	32934	32744	
3119	0	32892	32750	
3120	0	32868	32772	
3121	0	32712	32618	
3122	0	32696	32646	
3123	0	32768	32612	
3124	0	32712	32671	
3125	0	32744	32647	
3126	0	32938	32764	
3127	0	32896	32790	
3128	0	32814	32756	
3129	0	32832	32582	
3130	0	32705	32560	
3131	0	32756	32708	
3132	0	32716	32674	
3133	0	32734	32706	
3134	0	32857	32620	
3135	0	32848	32634	
3136	0	32840	32711	
3137	0	32864	32631	
3138	0	32798	32718	
3139	0	32784	32596	
3140	0	32780	32544	
3141	0	32670	32633	
3142	0	32788	32724	
3143	0	32724	32692	
3144	0	32744	32612	
3145	0	32776	32647	
3146	0	32870	32656	
3147	0	32814	32586	
3148	0	32784	32666	
3149	0	32712	32737	
3150	0	32736	32744	
3151	0	32748	32647	
3152	0	32804	32700	
3153	0	32728	32774	
3154	0	32821	32576	
3155	0	32816	32686	
3156	0	32828	32763	
3157	0	32876	32714	
3158	0	32808	32744	
3159	0	32832	32768	
3160	0	32872	32646	
3161	0	32796	32632	
3162	0	32808	32676	
3163	0	32792	32599	
3164	0	32774	32652	
3165	0	32770	32800	
3166	0	32736	32812	
3167	0	32632	32626	
3168	0	32548	32712	
3169	0	32556	32856	
3170	0	32576	32775	
3171	0	32704	32786	
3172	0	32702	32758	
3173	0	32684	32647	
3174	0	32690	32720	
3175	0	32684	32806	
3176	0	32688	32890	
3177	0	32676	32769	
3178	0	32668	32840	
3179	0	32528	32946	
3180	0	32546	32990	
3181	0	32674	32786	
3182	0	32796	32847	
3183	0	32720	32808	
3184	0	32728	32897	
3185	0	32732	32834	
3186	0	32750	32886	
3187	0	32736	32871	
3188	0	32752	32924	
3189	0	32824	32828	
3190	0	32820	32695	
3191	0	32778	32702	
3192	0	32656	32854	
3193	0	32670	32828	
3194	0	32730	32734	
3195	0	32932	32826	
3196	0	33014	32894	
3197	0	33072	32775	
3198	0	32936	32714	
3199	0	32912	32774	
3200	0	32713	32892	
3201	0	32572	32844	
3202	0	32528	32812	
3203	0	32480	32816	
3204	0	32438	32834	
3205	0	32412	32576	
3206	0	32450	32688	
3207	0	32444	32880	
3208	0	32404	32822	
3209	0	32500	32864	
3210	0	32542	32828	
3211	0	32598	32724	
3212	0	32648	32775	
3213	0	32748	32887	
3214	0	32964	32980	
3215	0	32948	32892	
3216	0	33024	32948	
3217	0	33040	32846	
3218	0	33034	32794	
3219	0	33060	32775	
3220	0	33196	32770	
3221	0	33156	32698	
3222	0	33182	32726	
3223	0	33230	32680	
3224	0	33058	32645	
3225	0	33110	32519	
3226	0	33086	32558	
3227	0	33030	32679	
3228	0	33036	32708	
3229	0	33050	32775	
3230	0	32962	32796	
3231	0	33104	32774	
3232	0	33128	32828	
3233	0	33204	32804	
3234	0	33108	32884	
3235	0	33140	32654	
3236	0	33204	32607	
3237	0	33204	32666	
3238	0	33198	32908	
3239	0	33230	32798	
3240	0	33162	32742	
3241	0	33112	32732	
3242	0	33144	32714	
3243	0	33088	32710	
3244	0	33105	32674	
3245	0	33042	32687	
3246	0	33046	32692	
3247	0	33028	32702	
3248	0	32960	32756	
3249	0	32972	32794	
3250	0	33012	32880	
3251	0	32958	32814	
3252	0	32904	32812	
3253	0	32872	32775	
3254	0	32948	32688	
3255	0	32954	32724	
3256	0	32940	32655	
3257	0	32950	32662	
3258	0	32938	32620	
3259	0	32998	32739	
3260	0	32932	32680	
3261	0	32974	32696	
3262	0	32984	32769	
3263	0	32940	32738	
3264	0	32960	32726	
3265	0	32986	32715	
3266	0	33024	32775	
3267	0	33032	32791	
3268	0	32998	32772	
3269	0	33002	32775	
3270	0	32994	32878	
3271	0	32952	32772	
3272	0	32996	32871	
3273	0	32984	32738	
3274	0	33016	32764	
3275	0	32822	32756	
3276	0	32856	32839	
3277	0	32916	32664	
3278	0	32912	32692	
3279	0	32880	32804	
3280	0	32848	32763	
3281	0	32786	32744	
3282	0	32808	32878	
3283	0	32780	32842	
3284	0	32722	32720	
3285	0	32628	32679	
3286	0	32764	32838	
3287	0	32790	32860	
3288	0	32652	32926	
3289	0	32740	32775	
3290	0	32798	32970	
3291	0	32776	32878	
3292	0	32816	32897	
3293	0	32816	32764	
3294	0	32836	32935	
3295	0	32774	32844	
3296	0	32756	32894	
3297	0	32774	32740	
3298	0	32724	32716	
3299	0	32718	32742	
3300	0	32740	32684	
3301	0	32756	32702	
3302	0	32748	32622	
3303	0	32692	32740	
3304	0	32728	32722	
3305	0	32756	32810	
3306	0	32708	32814	
3307	0	32752	32690	
3308	0	32737	32742	
3309	0	32740	32838	
3310	0	32724	32791	
3311	0	32688	32910	
3312	0	32728	32868	
3313	0	32672	32732	
3314	0	32684	32844	
3315	0	32716	32772	
3316	0	32682	32974	
3317	0	32682	32750	
3318	0	32692	32846	
3319	0	32746	32676	
3320	0	32720	32880	
3321	0	32706	32721	
3322	0	32748	32676	
3323	0	32704	32788	
3324	0	32662	32689	
3325	0	32740	32794	
3326	0	32708	32598	
3327	0	32836	32647	
3328	0	32740	32695	
3329	0	32730	32826	
3330	0	32720	32810	
3331	0	32824	32696	
3332	0	32764	32943	
3333	0	32796	32848	
3334	0	32740	32988	
3335	0	32714	32802	
3336	0	32754	32806	
3337	0	32756	32718	
3338	0	32799	32832	
3339	0	32826	32742	
3340	0	32812	32732	
3341	0	32784	32642	
3342	0	32792	32686	
3343	0	32764	32678	
3344	0	32775	32628	
3345	0	32796	32724	
3346	0	32862	32614	
3347	0	32870	32718	
3348	0	32860	32700	
3349	0	32820	32712	
3350	0	32856	32752	
3351	0	32850	32890	
3352	0	32880	32870	
3353	0	32924	32848	
3354	0	32900	32817	
3355	0	32780	32938	
3356	0	32816	32764	
3357	0	32800	32758	
3358	0	32744	32740	
3359	0	32716	32759	
3360	0	32740	32615	
3361	0	32800	32596	
3362	0	32872	32734	
3363	0	32844	32818	
3364	0	32862	32840	
3365	0	32932	32887	
3366	0	32948	32940	
3367	0	32940	32924	
3368	0	32994	32839	
3369	0	32948	32788	
3370	0	32906	32966	
3371	0	32898	32878	
3372	0	32912	32892	
3373	0	32920	32898	
3374	0	32920	32852	
3375	0	32856	32722	
3376	0	32918	32730	
3377	0	32956	32862	
3378	0	32970	32770	
3379	0	32976	32839	
3380	0	32906	32782	
3381	0	32852	32707	
3382	0	32846	32732	
3383	0	32878	32832	
3384	0	32862	32853	
3385	0	32864	32903	
3386	0	32812	32832	
3387	0	32750	32794	
3388	0	32794	32760	
3389	0	32764	32906	
3390	0	32728	32818	
3391	0	32756	32834	
3392	0	32814	32823	
3393	0	32776	32738	
3394	0	32696	32714	
3395	0	32796	32775	
3396	0	32740	32775	
3397	0	32676	32692	
3398	0	32684	32647	
3399	0	32620	32654	
3400	0	32676	32831	
3401	0	32730	32822	
3402	0	32696	32874	
3403	0	32644	32768	
3404	0	32592	32800	
3405	0	32612	32799	
3406	0	32600	32775	
3407	0	32544	32719	
3408	0	32628	32732	
3409	0	32620	32732	
3410	0	32626	32756	
3411	0	32609	32847	
3412	0	32592	32756	
3413	0	32632	32820	
3414	0	32690	32720	
3415	0	32624	32775	
3416	0	32710	32718	
3417	0	32680	32852	
3418	0	32672	32714	
3419	0	32740	32596	
3420	0	32692	32660	
3421	0	32704	32694	
3422	0	32762	32676	
3423	0	32820	32679	
3424	0	32812	32568	
3425	0	32840	32575	
3426	0	32808	32636	
3427	0	32808	32628	
3428	0	32926	32668	
3429	0	32860	32608	
3430	0	32810	32660	
3431	0	32784	32624	
3432	0	32864	32686	
3433	0	32900	32682	
3434	0	32948	32743	
3435	0	32782	32610	
3436	0	32804	32658	
3437	0	32784	32808	
3438	0	32780	32753	
3439	0	32640	32858	
3440	0	32598	32934	
3441	0	32504	33110	
3442	0	32462	32994	
3443	0	32324	32994	
3444	0	32308	33098	
3445	0	32256	33412	
3446	0	32148	33600	
3447	0	32198	33650	
3448	0	32468	33452	
3449	0	32668	33076	
3450	0	32772	32891	
3451	0	32832	32862	
3452	0	32804	32880	
3453	0	32812	32874	
3454	0	32794	32886	
3455	0	32844	32670	
3456	0	32904	32761	
3457	0	32870	32639	
3458	0	32828	32662	
3459	0	32890	32566	
3460	0	32866	32598	
3461	0	33014	32646	
3462	0	32886	32532	
3463	0	32906	32519	
3464	0	32910	32462	
3465	0	33004	32591	
3466	0	32976	32668	
3467	0	33056	32582	
3468	0	33012	32518	
3469	0	32962	32615	
3470	0	32956	32688	
3471	0	32938	32720	
3472	0	32922	32727	
3473	0	32888	32658	
3474	0	32868	32654	
3475	0	32972	32703	
3476	0	32896	32734	
3477	0	32836	32775	
3478	0	32936	32676	
3479	0	32810	32762	
3480	0	32802	32748	
3481	0	32770	32818	
3482	0	32816	32768	
3483	0	32800	32775	
3484	0	32802	32946	
3485	0	32804	32806	
3486	0	32816	32792	
3487	0	32792	32807	
3488	0	32848	32775	
3489	0	32814	32851	
3490	0	32848	32823	
3491	0	32808	32927	
3492	0	32812	32806	
3493	0	32828	32756	
3494	0	32816	32917	
3495	0	32784	32834	
3496	0	32868	32807	
3497	0	32752	32740	
3498	0	32740	32838	
3499	0	32694	32854	
3500	0	32740	32762	
3501	0	32690	32890	
3502	0	32788	32675	
3503	0	32888	32766	
3504	0	32888	32914	
3505	0	32896	32858	
3506	0	32832	32775	
3507	0	32800	32703	
3508	0	32842	32727	
3509	0	32884	32756	
3510	0	32876	32814	
3511	0	32888	32662	
3512	0	32868	32790	
3513	0	32812	32727	
3514	0	32832	32802	
3515	0	32824	32671	
3516	0	32788	32711	
3517	0	32760	32732	
3518	0	32824	32714	
3519	0	32920	32769	
3520	0	32860	32775	
3521	0	32788	32711	
3522	0	32708	32764	
3523	0	32788	32803	
3524	0	32752	32826	
3525	0	32897	32734	
3526	0	32907	32769	
3527	0	32892	32682	
3528	0	32876	32702	
3529	0	32848	32692	
3530	0	32784	32687	
3531	0	32756	32724	
3532	0	32686	32654	
3533	0	32612	32678	
3534	0	32682	32694	
3535	0	32772	32528	
3536	0	32937	32598	
3537	0	32972	32750	
3538	0	32964	32712	
3539	0	32836	32814	
3540	0	32844	32802	
3541	0	32838	32658	
3542	0	32762	32748	
3543	0	32832	32744	
3544	0	32743	32711	
3545	0	32842	32729	
3546	0	32812	32645	
3547	0	32768	32756	
3548	0	32762	32712	
3549	0	32796	32676	
3550	0	32816	32615	
3551	0	32812	32804	
3552	0	32836	32620	
3553	0	32800	32636	
3554	0	32775	32698	
3555	0	32718	32825	
3556	0	32810	32800	
3557	0	32860	32752	
3558	0	32856	32835	
3559	0	32872	32804	
3560	0	32762	32700	
3561	0	32864	32756	
3562	0	32864	32664	
3563	0	32888	32748	
3564	0	32876	32796	
3565	0	32908	32796	
3566	0	32938	32702	
3567	0	32916	32862	
3568	0	32798	32758	
3569	0	32804	32838	
3570	0	32684	32764	
3571	0	32712	32680	
3572	0	32732	32811	
3573	0	32808	32818	
3574	0	32832	32784	
3575	0	32818	32668	
3576	0	32868	32660	
3577	0	32812	32738	
3578	0	32800	32766	
3579	0	32824	32686	
3580	0	32824	32774	
3581	0	32748	32775	
3582	0	32820	32716	
3583	0	32848	32711	
3584	0	32750	32878	
3585	0	32740	32704	
3586	0	32796	32866	
3587	0	32868	32870	
3588	0	32960	32748	
3589	0	32876	32694	
3590	0	32960	32868	
3591	0	32926	32796	
3592	0	32872	32868	
3593	0	32798	32884	
3594	0	32764	32854	
3595	0	32788	32875	
3596	0	32852	32916	
3597	0	32864	32884	
3598	0	32837	32978	
3599	0	32824	32756	
3600	0	32756	32644	
3601	0	32760	32672	
3602	0	32782	32718	
3603	0	32814	32773	
3604	0	32804	32748	
3605	0	32848	32844	
3606	0	32840	32830	
3607	0	32926	32736	
3608	0	32860	32804	
3609	0	32812	32817	
3610	0	32844	32846	
3611	0	32776	32903	
3612	0	32824	32842	
3613	0	32732	32766	
3614	0	32618	32724	
3615	0	32730	32690	
3616	0	32664	32834	
3617	0	32721	32760	
3618	0	32906	32720	
3619	0	32992	32710	
3620	0	32992	32718	
3621	0	32932	32626	
3622	0	32868	32586	
3623	0	32924	32706	
3624	0	32984	32744	
3625	0	32914	32702	
3626	0	32848	32746	
3627	0	32764	32836	
3628	0	32496	32818	
3629	0	32468	32800	
3630	0	32776	32948	
3631	0	32794	32812	
3632	0	32852	32752	
3633	0	32820	32756	
3634	0	32740	32775	
3635	0	32958	32722	
3636	0	32902	32708	
3637	0	32770	32672	
3638	0	32752	32604	
3639	0	32890	32706	
3640	0	32940	32764	
3641	0	32816	32638	
3642	0	32800	32596	
3643	0	32760	32596	
3644	0	32796	32687	
3645	0	32910	32668	
3646	0	32862	32712	
3647	0	32852	32732	
3648	0	32900	32711	
3649	0	32888	32647	
3650	0	32852	32712	
3651	0	32836	32806	
3652	0	32836	32870	
3653	0	32684	32789	
3654	0	32682	32728	
3655	0	32688	32906	
3656	0	32768	32772	
3657	0	32788	32841	
3658	0	32832	32694	
3659	0	32872	32724	
3660	0	32956	32758	
3661	0	32888	32824	
3662	0	32874	32854	
3663	0	32836	32728	
3664	0	32796	32839	
3665	0	32924	32794	
3666	0	32830	32852	
3667	0	32704	32860	
3668	0	32756	32852	
3669	0	32884	32920	
3670	0	32884	32706	
3671	0	32752	32719	
3672	0	32698	32654	
3673	0	32620	32774	
3674	0	32596	32894	
3675	0	32720	32834	
3676	0	32820	32736	
3677	0	33104	32772	
3678	0	33222	32724	
3679	0	33068	32680	
3680	0	32926	32630	
3681	0	32796	32760	
3682	0	32844	32794	
3683	0	32896	32791	
3684	0	32964	32838	
3685	0	32692	32844	
3686	0	32632	32714	
3687	0	32714	32688	
3688	0	32704	32660	
3689	0	32756	32579	
3690	0	32782	32674	
3691	0	32798	32704	
3692	0	32868	32592	
3693	0	32888	32724	
3694	0	32782	32812	
3695	0	32724	32846	
3696	0	32560	32938	
3697	0	32436	33031	
3698	0	32646	32900	
3699	0	32766	32711	
3700	0	32860	32670	
3701	0	32694	32748	
3702	0	32802	32810	
3703	0	33052	32744	
3704	0	33090	32714	
3705	0	32849	32692	
3706	0	32708	32782	
3707	0	32504	32750	
3708	0	32644	32934	
3709	0	32778	32884	
3710	0	32924	32796	
3711	0	32841	32900	
3712	0	32792	32838	
3713	0	32774	32790	
3714	0	32864	32792	
3715	0	32804	32764	
3716	0	32862	32702	
3717	0	32924	32711	
3718	0	32986	32663	
3719	0	32932	32774	
3720	0	32828	32812	
3721	0	32804	32760	
3722	0	32760	32681	
3723	0	32724	32822	
3724	0	32673	32680	
3725	0	32647	32658	
3726	0	32680	32622	
3727	0	32770	32620	
3728	0	32840	32604	
3729	0	32892	32633	
3730	0	32806	32762	
3731	0	32866	32837	
3732	0	32896	32810	
3733	0	32852	32820	
3734	0	32888	32895	
3735	0	32844	32802	
3736	0	32826	32842	
3737	0	32806	32847	
3738	0	32832	32948	
3739	0	32854	32900	
3740	0	32864	32750	
3741	0	32820	32788	
3742	0	32852	32900	
3743	0	32802	32788	
3744	0	32896	32896	
3745	0	32864	32700	
3746	0	32784	32582	
3747	0	32816	32764	
3748	0	32928	32750	
3749	0	32904	32833	
3750	0	32988	32775	
3751	0	32992	32910	
3752	0	32968	32886	
3753	0	32924	32926	
3754	0	32784	32807	
3755	0	32436	32774	
3756	0	32580	32763	
3757	0	32648	32700	
3758	0	32588	32644	
3759	0	32808	32774	
3760	0	32892	32762	
3761	0	32926	32824	
3762	0	33084	32817	
3763	0	33008	32710	
3764	0	32916	32798	
3765	0	32842	32727	
3766	0	32764	32700	
3767	0	32700	32614	
3768	0	32784	32824	
3769	0	32732	32815	
3770	0	32714	32686	
3771	0	32922	32759	
3772	0	32986	32815	
3773	0	32882	32766	
3774	0	32732	32683	
3775	0	32756	32942	
3776	0	32724	32958	
3777	0	32736	32796	
3778	0	32840	32696	
3779	0	32842	32870	
3780	0	32920	32887	
3781	0	32662	32826	
3782	0	32592	33118	
3783	0	32752	33090	
3784	0	32888	32855	
3785	0	32856	33040	
3786	0	32862	33118	
3787	0	32880	32942	
3788	0	32784	32764	
3789	0	32740	32696	
3790	0	32796	32414	
3791	0	32840	32434	
3792	0	32794	32519	
3793	0	32768	32757	
3794	0	32758	32519	
3795	0	32823	32484	
3796	0	32792	32462	
3797	0	32684	32647	
3798	0	32758	32748	
3799	0	32764	32920	
3800	0	32769	33022	
3801	0	32766	32892	
3802	0	32756	32902	
3803	0	32816	32775	
3804	0	32954	32700	
3805	0	32932	32596	
3806	0	32868	32576	
3807	0	32778	32686	
3808	0	32640	32679	
3809	0	32848	32753	
3810	0	32824	32808	
3811	0	32824	32631	
3812	0	32804	32695	
3813	0	32790	32628	
3814	0	32749	32554	
3815	0	32724	32452	
3816	0	32798	32608	
3817	0	32734	32758	
3818	0	32712	32838	
3819	0	32584	32888	
3820	0	32612	32836	
3821	0	32880	32874	
3822	0	32982	32746	
3823	0	33156	32891	
3824	0	33128	32929	
3825	0	32900	32976	
3826	0	32644	32862	
3827	0	32524	32885	
3828	0	33056	32775	
3829	0	33076	32853	
3830	0	32860	32794	
3831	0	32664	32719	
3832	0	32468	32838	
3833	0	32760	32958	
3834	0	33052	32844	
3835	0	32956	32766	
3836	0	32712	32775	
3837	0	32558	32857	
3838	0	32564	32801	
3839	0	32712	32839	
3840	0	32678	32868	
3841	0	32806	32819	
3842	0	32682	32822	
3843	0	32750	32775	
3844	0	32872	32864	
3845	0	32976	32794	
3846	0	33060	32870	
3847	0	33212	32871	
3848	0	32868	32879	
3849	0	32912	33016	
3850	0	32784	33096	
3851	0	32760	33167	
3852	0	32604	33056	
3853	0	32532	33004	
3854	0	32495	32736	
3855	0	32664	32770	
3856	0	33070	32838	
3857	0	33188	32735	
3858	0	33024	32631	
3859	0	32800	32480	
3860	0	32692	32375	
3861	0	32836	32640	
3862	0	32872	32822	
3863	0	32748	32775	
3864	0	32756	32679	
3865	0	32726	32618	
3866	0	32812	32588	
3867	0	32812	32660	
3868	0	32726	32812	
3869	0	32775	32750	
3870	0	32770	32972	
3871	0	32628	32980	
3872	0	32672	32932	
3873	0	32696	33045	
3874	0	32792	32975	
3875	0	32714	32992	
3876	0	32694	32868	
3877	0	32880	32798	
3878	0	33024	32786	
3879	0	32812	32808	
3880	0	32604	32927	
3881	0	32854	32985	
3882	0	32672	32930	
3883	0	32975	32796	
3884	0	33104	32762	
3885	0	33164	32820	
3886	0	33058	32766	
3887	0	33152	32812	
3888	0	33302	32722	
3889	0	33076	32634	
3890	0	32896	32538	
3891	0	32584	32435	
3892	0	32410	32350	
3893	0	32244	32164	
3894	0	32352	32404	
3895	0	32644	32604	
3896	0	32812	32634	
3897	0	32860	32868	
3898	0	32716	33044	
3899	0	32864	32884	
3900	0	33220	32422	
3901	0	33260	32612	
3902	0	32888	32775	
3903	0	32450	33126	
3904	0	32288	32878	
3905	0	32484	33002	
3906	0	32808	32924	
3907	0	32992	32967	
3908	0	33044	32846	
3909	0	32804	32444	
3910	0	32784	32124	
3911	0	32714	32350	
3912	0	32700	32335	
3913	0	32696	32484	
3914	0	32968	32598	
3915	0	33160	32910	
3916	0	32897	32828	
3917	0	32638	32583	
3918	0	32926	32670	
3919	0	33136	32722	
3920	0	32868	32732	
3921	0	32860	32647	
3922	0	33300	32772	
3923	0	32970	32920	
3924	0	32844	32977	
3925	0	32324	32920	
3926	0	32222	32904	
3927	0	32156	32804	
3928	0	32860	32863	
3929	0	32876	32846	
3930	0	32782	32982	
3931	0	32746	32870	
3932	0	32608	33063	
3933	0	32616	33038	
3934	0	32472	32831	
3935	0	32764	32606	
3936	0	33026	32606	
3937	0	33076	32794	
3938	0	33176	32815	
3939	0	33400	32548	
3940	0	33324	32596	
3941	0	33480	32710	
3942	0	33336	32854	
3943	0	32772	33088	
3944	0	32356	32978	
3945	0	32636	32689	
3946	0	32464	32742	
3947	0	32280	32808	
3948	0	32761	32736	
3949	0	32770	32580	
3950	0	32720	32356	
3951	0	32732	32524	
3952	0	32588	32638	
3953	0	32712	32790	
3954	0	33020	33031	
3955	0	33145	32840	
3956	0	33136	32754	
3957	0	32816	32902	
3958	0	32390	32888	
3959	0	32088	33115	
3960	0	32033	32920	
3961	0	32476	32512	
3962	0	32756	32510	
3963	0	32901	32410	
3964	0	32810	32607	
3965	0	33000	32596	
3966	0	33074	32644	
3967	0	33126	32630	
3968	0	33206	32622	
3969	0	33220	32792	
3970	0	32998	32740	
3971	0	32864	32958	
3972	0	33064	32692	
3973	0	33028	32422	
3974	0	32996	32436	
3975	0	32972	32743	
3976	0	32986	32775	
3977	0	33244	32828	
3978	0	32588	32560	
3979	0	32496	32574	
3980	0	33156	32748	
3981	0	33130	32754	
3982	0	33008	32350	
3983	0	32853	32368	
3984	0	32684	32485	
3985	0	32496	32708	
3986	0	32092	32998	
3987	0	31940	32982	
3988	0	32238	33050	
3989	0	32692	32864	
3990	0	32932	32784	
3991	0	32872	33121	
3992	0	32956	32960	
3993	0	33060	32982	
3994	0	32996	32894	
3995	0	32668	32760	
3996	0	32840	32812	
3997	0	33016	32352	
3998	0	33012	32192	
3999	0	33272	32238	
4000	0	33200	32309	
4001	0	32956	32542	
4002	0	32870	32752	
4003	0	32692	32806	
4004	0	32456	32862	
4005	0	32684	32666	
4006	0	32640	32870	
4007	0	32740	32952	
4008	0	32938	32862	
4009	0	33302	32903	
4010	0	33160	32897	
4011	0	33084	33100	
4012	0	33178	32992	
4013	0	32988	32931	
4014	0	32778	33266	
4015	0	32748	33142	
4016	0	32752	33132	
4017	0	32862	33184	
4018	0	32856	32762	
4019	0	32770	32759	
4020	0	32688	32830	
4021	0	32688	32743	
4022	0	32800	32647	
4023	0	32676	32576	
4024	0	32744	32367	
4025	0	32697	32518	
4026	0	32808	32566	
4027	0	32758	32870	
4028	0	32760	32860	
4029	0	32816	32870	
4030	0	32792	32982	
4031	0	32604	33026	
4032	0	32656	33062	
4033	0	32740	33092	
4034	0	33300	32884	
4035	0	33252	32840	
4036	0	33572	32790	
4037	0	32954	32919	
4038	0	32460	32796	
4039	0	31872	32716	
4040	0	32530	32732	
4041	0	32736	32583	
4042	0	32592	32647	
4043	0	32978	32820	
4044	0	33460	32839	
4045	0	33462	32647	
4046	0	33044	32558	
4047	0	32836	32688	
4048	0	32622	32711	
4049	0	32668	32564	
4050	0	32820	32533	
4051	0	32706	32544	
4052	0	32640	32774	
4053	0	32684	33066	
4054	0	32864	33086	
4055	0	32984	33089	
4056	0	33076	32624	
4057	0	32992	32604	
4058	0	32966	32612	
4059	0	32986	32831	
4060	0	32724	32775	
4061	0	32816	32860	
4062	0	32948	32796	
4063	0	32860	32876	
4064	0	32836	33056	
4065	0	32796	33184	
4066	0	32646	33410	
4067	0	32520	33456	
4068	0	32786	33508	
4069	0	33036	33135	
4070	0	32932	32722	
4071	0	33012	32628	
4072	0	33092	32554	
4073	0	32950	32468	
4074	0	32449	32007	
4075	0	31888	31880	
4076	0	32226	31604	
4077	0	32502	31522	
4078	0	32306	31928	
4079	0	32468	32502	
4080	0	32810	32788	
4081	0	32728	32920	
4082	0	32812	32730	
4083	0	32872	32835	
4084	0	32872	33030	
4085	0	32922	32788	
4086	0	33004	32670	
4087	0	32996	32512	
4088	0	32964	32616	
4089	0	33052	32812	
4090	0	32932	33132	
4091	0	32796	33184	
4092	0	32732	33084	
4093	0	32840	32690	
4094	0	33040	32474	
4095	0	32922	32470	
4096	0	32540	32686	
4097	0	32526	32692	
4098	0	32664	33058	
4099	0	32770	32902	
4100	0	32620	33204	
4101	0	32266	33279	
4102	0	32676	33510	
4103	0	33628	33536	
4104	0	33052	33456	
4105	0	32876	32992	
4106	0	32768	32794	
4107	0	32730	32746	
4108	0	32912	32692	
4109	0	32706	32670	
4110	0	32356	32791	
4111	0	32426	32526	
4112	0	32468	32772	
4113	0	32756	32960	
4114	0	32896	33044	
4115	0	32932	32802	
4116	0	33200	32406	
4117	0	33121	32142	
4118	0	33122	31889	
4119	0	32756	32084	
4120	0	32728	32516	
4121	0	33068	32892	
4122	0	32944	32814	
4123	0	32982	32670	
4124	0	32984	32418	
4125	0	32596	32327	
4126	0	32356	32367	
4127	0	32112	32519	
4128	0	32796	32792	
4129	0	32936	33156	
4130	0	33444	33388	
4131	0	33688	33282	
4132	0	32802	33166	
4133	0	32004	33278	
4134	0	31616	33224	
4135	0	32004	33106	
4136	0	32782	32938	
4137	0	33450	33024	
4138	0	33320	33000	
4139	0	32788	32876	
4140	0	32470	32564	
4141	0	32944	32564	
4142	0	33376	33218	
4143	0	33520	33542	
4144	0	33492	33472	
4145	0	33276	33713	
4146	0	32916	33228	
4147	0	32752	33159	
4148	0	32604	33348	
4149	0	32600	33620	
4150	0	32688	33331	
4151	0	32772	32830	
4152	0	32534	32453	
4153	0	32572	31710	
4154	0	32480	31233	
4155	0	32492	31138	
4156	0	32600	31324	
4157	0	32768	31176	
4158	0	32790	31334	
4159	0	32862	31870	
4160	0	32832	32412	
4161	0	32698	32668	
4162	0	32664	32806	
4163	0	32762	32964	
4164	0	32818	32980	
4165	0	32724	32930	
4166	0	32864	32976	
4167	0	33018	32960	
4168	0	32996	33011	
4169	0	33108	33271	
4170	0	33000	33276	
4171	0	32904	33425	
4172	0	32936	33504	
4173	0	32904	33356	
4174	0	33042	33258	
4175	0	32860	33020	
4176	0	32692	32980	
4177	0	32636	32903	
4178	0	32626	33006	
4179	0	32560	32944	
4180	0	32476	32900	
4181	0	32704	32910	
4182	0	32988	32903	
4183	0	32866	32894	
4184	0	32640	32954	
4185	0	32618	32948	
4186	0	32234	32750	
4187	0	32098	32572	
4188	0	32490	32636	
4189	0	32824	32742	
4190	0	32410	32704	
4191	0	32468	32567	
4192	0	33294	32330	
4193	0	33830	32782	
4194	0	33532	32594	
4195	0	32908	32672	
4196	0	32490	33022	
4197	0	32456	32889	
4198	0	33120	33058	
4199	0	33784	33080	
4200	0	33596	33098	
4201	0	33438	32916	
4202	0	32800	32607	
4203	0	32704	32240	
4204	0	31948	32238	
4205	0	31626	32170	
4206	0	32134	32428	
4207	0	32576	32263	
4208	0	33256	32360	
4209	0	33552	32567	
4210	0	33324	32881	
4211	0	33674	32960	
4212	0	33248	33140	
4213	0	32896	33134	
4214	0	33026	33302	
4215	0	32640	33831	
4216	0	32216	34040	
4217	0	32100	34082	
4218	0	32612	33818	
4219	0	32502	33391	
4220	0	32228	32639	
4221	0	31964	31800	
4222	0	32348	31660	
4223	0	32464	32054	
4224	0	32634	32278	
4225	0	32644	32230	
4226	0	32958	32531	
4227	0	33425	32318	
4228	0	34094	32238	
4229	0	33231	32084	
4230	0	32888	32263	
4231	0	32872	32086	
4232	0	32648	32178	
4233	0	32806	32135	
4234	0	32698	32000	
4235	0	32636	32226	
4236	0	32858	32738	
4237	0	32854	33478	
4238	0	32772	33756	
4239	0	32572	33543	
4240	0	32784	33656	
4241	0	33064	33282	
4242	0	33080	32728	
4243	0	32860	32736	
4244	0	32716	32340	
4245	0	32448	32966	
4246	0	32216	33031	
4247	0	32170	33648	
4248	0	32616	33890	
4249	0	33186	33735	
4250	0	32812	32983	
4251	0	32922	32563	
4252	0	33102	32512	
4253	0	33212	32746	
4254	0	33144	32741	
4255	0	33152	32955	
4256	0	33048	32894	
4257	0	32914	32614	
4258	0	32821	32040	
4259	0	32828	31486	
4260	0	32736	31962	
4261	0	32788	32556	
4262	0	32778	32442	
4263	0	32720	32344	
4264	0	32828	32519	
4265	0	32800	32660	
4266	0	32652	32674	
4267	0	32376	32474	
4268	0	32452	32422	
4269	0	32744	32452	
4270	0	33012	32708	
4271	0	32824	32920	
4272	0	32884	32844	
4273	0	32618	33304	
4274	0	32332	33534	
4275	0	32700	33568	
4276	0	33026	33343	
4277	0	33124	32956	
4278	0	33026	32808	
4279	0	33098	32182	
4280	0	33190	31958	
4281	0	33264	32467	
4282	0	33040	32740	
4283	0	32798	32934	
4284	0	32754	32788	
4285	0	32608	32754	
4286	0	32628	32680	
4287	0	32732	32674	
4288	0	32702	32806	
4289	0	32788	33052	
4290	0	32762	33316	
4291	0	32868	33322	
4292	0	33216	33146	
4293	0	32950	33224	
4294	0	32760	32970	
4295	0	32052	32990	
4296	0	31988	32843	
4297	0	32412	33148	
4298	0	32444	33286	
4299	0	32990	33085	
4300	0	33128	32807	
4301	0	32888	32412	
4302	0	32656	31806	
4303	0	32488	31556	
4304	0	32604	31668	
4305	0	32740	32000	
4306	0	32796	32098	
4307	0	33064	32166	
4308	0	33096	32183	
4309	0	32884	32374	
4310	0	32904	32979	
4311	0	33432	33436	
4312	0	33552	33372	
4313	0	33344	33170	
4314	0	33096	32874	
4315	0	32992	32894	
4316	0	33212	32614	
4317	0	32904	32436	
4318	0	32650	32294	
4319	0	32658	32606	
4320	0	32776	32716	
4321	0	32890	32935	
4322	0	33016	33128	
4323	0	32992	33206	
4324	0	32920	33050	
4325	0	32450	32768	
4326	0	32668	32455	
4327	0	32564	33084	
4328	0	32718	34204	
4329	0	32832	34670	
4330	0	32788	34618	
4331	0	32720	34147	
4332	0	32408	33478	
4333	0	32598	32184	
4334	0	32598	31290	
4335	0	32346	31022	
4336	0	32064	31383	
4337	0	31993	32142	
4338	0	32324	32554	
4339	0	32724	32593	
4340	0	32894	32576	
4341	0	32920	32484	
4342	0	32696	32560	
4343	0	32504	32135	
4344	0	32468	31948	
4345	0	33208	31992	
4346	0	33336	32294	
4347	0	32768	32460	
4348	0	32742	32738	
4349	0	32868	33158	
4350	0	32612	33230	
4351	0	32748	33004	
4352	0	32638	33082	
4353	0	33256	33154	
4354	0	33286	33376	
4355	0	33124	33760	
4356	0	32868	33892	
4357	0	32862	33729	
4358	0	32928	33422	
4359	0	32976	33150	
4360	0	32948	32967	
4361	0	32944	32516	
4362	0	32994	32569	
4363	0	32884	32646	
4364	0	32896	32501	
4365	0	32910	32356	
4366	0	32894	32220	
4367	0	32884	32166	
4368	0	32868	32370	
4369	0	32902	32616	
4370	0	32980	32532	
4371	0	32932	32568	
4372	0	32820	32614	
4373	0	32958	32500	
4374	0	32942	32196	
4375	0	33000	32076	
4376	0	32895	32458	
4377	0	32788	32662	
4378	0	32540	32788	
4379	0	32416	33046	
4380	0	32488	33035	
4381	0	32728	32996	
4382	0	32852	32932	
4383	0	32952	32864	
4384	0	32872	32812	
4385	0	32876	33166	
4386	0	32804	33263	
4387	0	32760	33191	
4388	0	32654	32876	
4389	0	32750	33252	
4390	0	32732	33670	
4391	0	32798	33750	
4392	0	32740	33642	
4393	0	32752	33268	
4394	0	32864	32686	
4395	0	32847	32494	
4396	0	32832	32130	
4397	0	32778	32327	
4398	0	32740	32690	
4399	0	32792	32743	
4400	0	32848	31964	
4401	0	32706	31744	
4402	0	33058	31974	
4403	0	33048	32250	
4404	0	32720	32476	
4405	0	32648	32540	
4406	0	32756	32468	
4407	0	32676	32359	
4408	0	32800	32552	
4409	0	33090	32822	
4410	0	33116	32924	
4411	0	32836	33004	
4412	0	32344	33050	
4413	0	32354	33080	
4414	0	32816	33380	
4415	0	32790	33520	
4416	0	32740	33306	
4417	0	32842	33120	
4418	0	32808	33048	
4419	0	32938	32879	
4420	0	32828	32740	
4421	0	32808	32726	
4422	0	32660	32868	
4423	0	32796	33084	
4424	0	33032	33458	
4425	0	32948	33543	
4426	0	32792	33735	
4427	0	32808	33578	
4428	0	32756	33010	
4429	0	32812	32209	
4430	0	33042	31618	
4431	0	32876	31424	
4432	0	32858	31612	
4433	0	32868	31782	
4434	0	32616	32016	
4435	0	32564	32007	
4436	0	32932	31920	
4437	0	32804	32487	
4438	0	32816	32532	
4439	0	32848	32772	
4440	0	33308	33135	
4441	0	33108	33060	
4442	0	32798	33002	
4443	0	32392	33359	
4444	0	32430	33415	
4445	0	32846	33262	
4446	0	32840	33078	
4447	0	32924	33066	
4448	0	33060	33070	
4449	0	33006	33156	
4450	0	33186	33132	
4451	0	32924	32903	
4452	0	32668	33018	
4453	0	32724	32912	
4454	0	32508	32682	
4455	0	32740	32464	
4456	0	32700	32524	
4457	0	32720	32448	
4458	0	32812	32760	
4459	0	32970	32856	
4460	0	33116	32903	
4461	0	32392	32794	
4462	0	31754	32542	
4463	0	32040	32432	
4464	0	32484	32678	
4465	0	32956	32887	
4466	0	33534	32712	
4467	0	33988	32696	
4468	0	33443	31940	
4469	0	33324	31940	
4470	0	33044	32524	
4471	0	32696	32596	
4472	0	32614	32926	
4473	0	32608	33100	
4474	0	32948	33430	
4475	0	32696	33276	
4476	0	32456	32981	
4477	0	32256	32654	
4478	0	32154	32532	
4479	0	32364	32808	
4480	0	32528	33076	
4481	0	32700	32724	
4482	0	32778	32878	
4483	0	32838	32820	
4484	0	32668	32788	
4485	0	32920	32757	
4486	0	32952	32670	
4487	0	32952	32676	
4488	0	33036	32652	
4489	0	32686	32748	
4490	0	32718	32775	
4491	0	32814	33024	
4492	0	33024	33200	
4493	0	32912	32922	
4494	0	32808	32842	
4495	0	32974	32724	
4496	0	32840	32652	
4497	0	32292	32676	
4498	0	32368	32604	
4499	0	32994	32508	
4500	0	33254	32514	
4501	0	32948	32743	
4502	0	32838	32892	
4503	0	32724	32858	
4504	0	32760	33116	
4505	0	32664	33234	
4506	0	32676	33007	
4507	0	32962	32932	
4508	0	32986	32737	
4509	0	32660	32720	
4510	0	32418	32706	
4511	0	32808	32682	
4512	0	33030	32834	
4513	0	33496	32874	
4514	0	32944	32586	
4515	0	33128	32156	
4516	0	32884	32380	
4517	0	32922	32804	
4518	0	33108	32805	
4519	0	33012	32692	
4520	0	32800	32458	
4521	0	32558	32471	
4522	0	32562	32548	
4523	0	32684	32376	
4524	0	32880	32620	
4525	0	32752	33124	
4526	0	33050	33158	
4527	0	32752	33234	
4528	0	33404	33194	
4529	0	32770	33030	
4530	0	32106	32638	
4531	0	32100	32462	
4532	0	32285	32592	
4533	0	32736	31980	
4534	0	33168	31692	
4535	0	33036	32502	
4536	0	32912	32592	
4537	0	32804	32774	
4538	0	32592	33154	
4539	0	32880	33493	
4540	0	32808	33532	
4541	0	32872	33204	
4542	0	32644	32823	
4543	0	33632	32748	
4544	0	33504	32836	
4545	0	33488	32606	
4546	0	33256	32454	
4547	0	33008	32636	
4548	0	32670	32768	
4549	0	32544	32671	
4550	0	32702	32665	
4551	0	33148	32684	
4552	0	32856	32775	
4553	0	32756	32704	
4554	0	32876	32714	
4555	0	32758	32566	
4556	0	32724	32615	
4557	0	32704	32546	
4558	0	32728	32622	
4559	0	32673	32852	
4560	0	32740	32806	
4561	0	32830	32807	
4562	0	32928	32868	
4563	0	32826	32871	
4564	0	32768	32999	
4565	0	32734	32772	
4566	0	32792	32756	
4567	0	32789	32678	
4568	0	32768	32592	
4569	0	32748	32590	
4570	0	32740	32775	
4571	0	32832	32756	
4572	0	32800	32834	
4573	0	32668	32504	
4574	0	32644	32560	
4575	0	32444	32834	
4576	0	33060	32743	
4577	0	33160	32708	
4578	0	32502	32572	
4579	0	31928	32594	
4580	0	32846	32410	
4581	0	33346	32278	
4582	0	32536	32372	
4583	0	32520	32756	
4584	0	33287	32692	
4585	0	33152	32716	
4586	0	33308	32926	
4587	0	33458	33134	
4588	0	33192	33016	
4589	0	33036	32743	
4590	0	32489	32710	
4591	0	32344	32796	
4592	0	32480	32812	
4593	0	32598	32868	
4594	0	32668	33007	
4595	0	32684	33182	
4596	0	32648	32786	
4597	0	32656	32669	
4598	0	32776	32764	
4599	0	32808	32888	
4600	0	32738	32812	
4601	0	32690	32704	
4602	0	32608	32452	
4603	0	32620	32434	
4604	0	32500	32488	
4605	0	32564	32596	
4606	0	32804	32647	
4607	0	32844	32612	
4608	0	32896	32962	
4609	0	32776	32970	
4610	0	32688	32960	
4611	0	32732	32832	
4612	0	32778	32820	
4613	0	32772	32775	
4614	0	32932	32807	
4615	0	32532	32676	
4616	0	32682	32794	
4617	0	32832	32743	
4618	0	32604	32540	
4619	0	33100	32688	
4620	0	33300	32816	
4621	0	33422	32809	
4622	0	33004	32816	
4623	0	32696	32798	
4624	0	32708	33004	
4625	0	32980	32982	
4626	0	32620	33249	
4627	0	32712	33084	
4628	0	32634	32732	
4629	0	32552	32654	
4630	0	32656	32903	
4631	0	32776	32631	
4632	0	33160	32772	
4633	0	33388	32546	
4634	0	32892	32548	
4635	0	32916	32498	
4636	0	32820	32800	
4637	0	32724	32804	
4638	0	32784	32846	
4639	0	32720	32887	
4640	0	32732	32762	
4641	0	32660	32772	
4642	0	32708	32996	
4643	0	32812	32796	
4644	0	32996	32590	
4645	0	33124	32567	
4646	0	32832	32456	
4647	0	32692	32708	
4648	0	32760	32768	
4649	0	32855	32964	
4650	0	32888	32951	
4651	0	32904	33022	
4652	0	32948	32863	
4653	0	32792	32750	
4654	0	32720	32486	
4655	0	32728	32479	
4656	0	32748	32609	
4657	0	32673	32789	
4658	0	32836	32934	
4659	0	32828	33022	
4660	0	32847	32999	
4661	0	32844	33000	
4662	0	32836	33000	
4663	0	32848	32990	
4664	0	32962	32737	
4665	0	32836	32406	
4666	0	32792	32246	
4667	0	32888	32212	
4668	0	32840	31986	
4669	0	32796	32104	
4670	0	32782	32332	
4671	0	32744	32647	
4672	0	32852	33169	
4673	0	32936	33200	
4674	0	32556	33140	
4675	0	32644	33314	
4676	0	33252	32980	
4677	0	33080	32692	
4678	0	32916	32760	
4679	0	32519	32924	
4680	0	32780	32804	
4681	0	32712	32862	
4682	0	32856	32775	
4683	0	32924	32622	
4684	0	32668	32750	
4685	0	32293	32942	
4686	0	32428	32818	
4687	0	32816	33112	
4688	0	33156	32998	
4689	0	32540	33098	
4690	0	32994	32824	
4691	0	33124	32537	
4692	0	32944	32462	
4693	0	32912	32372	
4694	0	32944	32280	
4695	0	32816	32559	
4696	0	32666	33004	
4697	0	32660	32823	
4698	0	32732	32796	
4699	0	32760	32704	
4700	0	32760	32578	
4701	0	32732	32694	
4702	0	32808	32635	
4703	0	32706	32734	
4704	0	32734	32730	
4705	0	32828	32785	
4706	0	32810	32920	
4707	0	32794	32903	
4708	0	32888	32744	
4709	0	32772	32647	
4710	0	32776	32676	
4711	0	32836	32766	
4712	0	32740	32780	
4713	0	32846	32761	
4714	0	32814	32775	
4715	0	32798	32708	
4716	0	32816	32704	
4717	0	32844	32775	
4718	0	32896	32790	
4719	0	32874	32851	
4720	0	32772	32832	
4721	0	32826	32920	
4722	0	32784	32838	
4723	0	32852	32782	
4724	0	32900	32860	
4725	0	32804	32792	
4726	0	32688	32734	
4727	0	32778	32892	
4728	0	32868	32839	
4729	0	32896	32792	
4730	0	32852	32856	
4731	0	32834	32791	
4732	0	32818	32734	
4733	0	32860	32854	
4734	0	32844	32852	
4735	0	32818	32913	
4736	0	32964	32799	
4737	0	32796	32775	
4738	0	32764	32911	
4739	0	32821	32908	
4740	0	32948	32860	
4741	0	32782	32727	
4742	0	32772	32628	
4743	0	32696	32719	
4744	0	32740	32834	
4745	0	32816	32845	
4746	0	32804	32766	
4747	0	32777	32860	
4748	0	32976	32814	
4749	0	33122	32804	
4750	0	32652	32814	
4751	0	32756	32764	
4752	0	32930	33010	
4753	0	32836	32903	
4754	0	32872	32705	
4755	0	32744	32518	
4756	0	32772	32996	
4757	0	32596	32806	
4758	0	32692	32176	
4759	0	32732	32198	
4760	0	32789	32350	
4761	0	32828	32531	
4762	0	32900	32739	
4763	0	32972	33031	
4764	0	32878	33000	
4765	0	32808	32839	
4766	0	32692	32775	
4767	0	32821	32856	
4768	0	32852	32920	
4769	0	32660	32916	
4770	0	32488	32850	
4771	0	32700	32912	
4772	0	32952	32871	
4773	0	33038	32734	
4774	0	32978	33159	
4775	0	32904	33511	
4776	0	32758	33218	
4777	0	32774	32758	
4778	0	32824	32378	
4779	0	32688	32110	
4780	0	32604	31816	
4781	0	32670	31854	
4782	0	32721	32170	
4783	0	32770	32484	
4784	0	32910	33102	
4785	0	32900	33396	
4786	0	32826	33255	
4787	0	32840	32984	
4788	0	32884	32947	
4789	0	32932	32968	
4790	0	32848	32840	
4791	0	32820	32652	
4792	0	32852	32708	
4793	0	32781	32688	
4794	0	32790	32532	
4795	0	32788	32465	
4796	0	32820	32728	
4797	0	32768	32636	
4798	0	32920	32794	
4799	0	32896	33062	
4800	0	32852	33084	
4801	0	32700	32935	
4802	0	32732	32945	
4803	0	32824	32920	
4804	0	32740	32948	
4805	0	32770	32452	
4806	0	32808	32495	
4807	0	32836	32676	
4808	0	32748	32725	
4809	0	32746	32698	
4810	0	32808	32747	
4811	0	32816	32614	
4812	0	32818	32638	
4813	0	32784	32588	
4814	0	32952	32428	
4815	0	32896	32574	
4816	0	32928	32628	
4817	0	32700	32615	
4818	0	32592	32978	
4819	0	32814	33228	
4820	0	32864	33174	
4821	0	32930	33137	
4822	0	32676	33575	
4823	0	32688	33086	
4824	0	32808	32930	
4825	0	32852	33112	
4826	0	32744	33082	
4827	0	32812	32964	
4828	0	32920	32775	
4829	0	33002	32756	
4830	0	32936	32831	
4831	0	32826	32992	
4832	0	32604	32850	
4833	0	32432	32590	
4834	0	32288	32440	
4835	0	32348	32030	
4836	0	32548	31998	
4837	0	32696	32034	
4838	0	32897	32198	
4839	0	33100	32374	
4840	0	33114	32706	
4841	0	33240	33018	
4842	0	33076	33095	
4843	0	32948	32903	
4844	0	32788	32726	
4845	0	32716	32794	
4846	0	32734	33188	
4847	0	32780	33286	
4848	0	32750	32916	
4849	0	32836	32544	
4850	0	32776	32351	
4851	0	32860	32374	
4852	0	32960	32215	
4853	0	32932	32210	
4854	0	32908	32376	
4855	0	32892	33000	
4856	0	32836	33384	
4857	0	32756	33267	
4858	0	32816	32996	
4859	0	32742	32839	
4860	0	32780	32954	
4861	0	32812	33007	
4862	0	32836	33200	
4863	0	32764	32834	
4864	0	32810	32756	
4865	0	32824	32706	
4866	0	32794	32855	
4867	0	32740	32940	
4868	0	32774	32868	
4869	0	32796	32836	
4870	0	32772	32460	
4871	0	32792	32324	
4872	0	32888	32304	
4873	0	32916	32427	
4874	0	32900	32680	
4875	0	32926	33092	
4876	0	32848	33543	
4877	0	32828	33448	
4878	0	32812	33272	
4879	0	32864	32946	
4880	0	32774	32805	
4881	0	32724	32642	
4882	0	32686	32529	
4883	0	32668	32482	
4884	0	32836	32638	
4885	0	32828	32771	
4886	0	32756	32854	
4887	0	32884	32903	
4888	0	32828	32732	
4889	0	32864	32629	
4890	0	32852	32540	
4891	0	32884	32335	
4892	0	32784	32312	
4893	0	32802	32294	
4894	0	32876	32654	
4895	0	32830	32968	
4896	0	32852	32999	
4897	0	32928	32791	
4898	0	32848	32636	
4899	0	32787	32922	
4900	0	32630	33114	
4901	0	32640	33240	
4902	0	32770	32998	
4903	0	32820	32884	
4904	0	32838	32868	
4905	0	32784	32724	
4906	0	32766	32710	
4907	0	32844	32754	
4908	0	32821	32856	
4909	0	32804	32420	
4910	0	32804	32060	
4911	0	32782	32130	
4912	0	33040	32232	
4913	0	33190	32246	
4914	0	32700	32800	
4915	0	32574	33124	
4916	0	32592	33276	
4917	0	32604	33216	
4918	0	32630	33254	
4919	0	32792	33200	
4920	0	32692	33044	
4921	0	32710	32944	
4922	0	32764	32879	
4923	0	32732	32900	
4924	0	32772	32802	
4925	0	32846	33050	
4926	0	32828	32892	
4927	0	32814	32991	
4928	0	32914	32812	
4929	0	32912	32614	
4930	0	32962	32534	
4931	0	32804	32581	
4932	0	32786	32632	
4933	0	32688	32938	
4934	0	32644	32844	
4935	0	32768	32668	
4936	0	32872	32625	
4937	0	32928	32562	
4938	0	32954	32953	
4939	0	32800	32934	
4940	0	32798	32850	
4941	0	32862	32869	
4942	0	32770	32583	
4943	0	32706	32871	
4944	0	32696	33151	
4945	0	32754	33226	
4946	0	32896	33046	
4947	0	32964	33068	
4948	0	32896	32690	
4949	0	32840	32624	
4950	0	32740	32680	
4951	0	32736	32486	
4952	0	32768	32340	
4953	0	32782	32082	
4954	0	32812	32226	
4955	0	32856	32226	
4956	0	32934	32088	
4957	0	32876	32192	
4958	0	32828	33038	
4959	0	32850	33543	
4960	0	32770	33603	
4961	0	32840	33312	
4962	0	32845	33302	
4963	0	32736	32455	
4964	0	32662	31400	
4965	0	32596	31028	
4966	0	32828	31589	
4967	0	33038	32302	
4968	0	32944	32286	
4969	0	32832	33508	
4970	0	32904	33992	
4971	0	32972	33876	
4972	0	32992	33076	
4973	0	33012	32372	
4974	0	32930	31902	
4975	0	32700	32020	
4976	0	32706	32250	
4977	0	32780	32692	
4978	0	32584	32642	
4979	0	32640	33150	
4980	0	32736	33744	
4981	0	32706	34375	
4982	0	32560	34532	
4983	0	32628	33422	
4984	0	32850	32200	
4985	0	32948	31220	
4986	0	33121	30788	
4987	0	33136	30820	
4988	0	33296	31212	
4989	0	33432	32408	
4990	0	33292	33326	
4991	0	32964	33214	
4992	0	32508	33058	
4993	0	32170	33264	
4994	0	32108	33528	
4995	0	32124	33588	
4996	0	32248	33338	
4997	0	32316	33222	
4998	0	32534	33070	
4999	0	32608	33006	
5000	0	32772	32900	
5001	0	32804	32775	
5002	0	32882	32830	
5003	0	32888	32810	
5004	0	32980	32864	
5005	0	33116	32958	
5006	0	33116	32982	
5007	0	33052	32930	
5008	0	33006	32751	
5009	0	32980	32766	
5010	0	33024	32708	
5011	0	32988	32638	
5012	0	33044	32872	
5013	0	33054	32848	
5014	0	32920	32703	
5015	0	32816	32847	
5016	0	32764	32720	
5017	0	32796	32834	
5018	0	32808	32906	
5019	0	32828	32958	
5020	0	32836	32961	
5021	0	32874	33166	
5022	0	32826	33072	
5023	0	32760	32612	
5024	0	32746	32603	
5025	0	32736	32295	
5026	0	32732	32272	
5027	0	32666	32324	
5028	0	32754	32447	
5029	0	32730	32656	
5030	0	32768	32980	
5031	0	32704	33254	
5032	0	32732	33472	
5033	0	32810	32806	
5034	0	32860	32647	
5035	0	33140	32476	
5036	0	33060	32364	
5037	0	32932	32671	
5038	0	32824	32615	
5039	0	32968	32826	
5040	0	32882	32894	
5041	0	32556	32406	
5042	0	32412	32254	
5043	0	32532	32583	
5044	0	32670	32550	
5045	0	32732	32724	
5046	0	32680	33022	
5047	0	32895	33398	
5048	0	33324	33600	
5049	0	33192	33830	
5050	0	32929	33214	
5051	0	32741	32504	
5052	0	32656	32216	
5053	0	32554	31999	
5054	0	32508	31831	
5055	0	32492	32007	
5056	0	32764	32508	
5057	0	32804	33238	
5058	0	32904	33559	
5059	0	32936	33158	
5060	0	32860	32940	
5061	0	32772	32852	
5062	0	32788	32916	
5063	0	32824	32974	
5064	0	32784	32900	
5065	0	32836	33137	
5066	0	32888	32832	
5067	0	32996	32916	
5068	0	33024	32918	
5069	0	32940	32900	
5070	0	32852	33476	
5071	0	32708	33040	
5072	0	32596	32086	
5073	0	32640	31858	
5074	0	32724	32182	
5075	0	32784	31900	
5076	0	32972	32074	
5077	0	33048	32903	
5078	0	32932	33302	
5079	0	32748	33082	
5080	0	32808	32967	
5081	0	32672	32775	
5082	0	32592	32354	
5083	0	32620	32156	
5084	0	32680	32566	
5085	0	32876	32960	
5086	0	32898	33233	
5087	0	33100	33196	
5088	0	33068	33114	
5089	0	32928	33254	
5090	0	32832	33222	
5091	0	32680	33094	
5092	0	32632	32774	
5093	0	32580	32736	
5094	0	32660	32574	
5095	0	32780	32644	
5096	0	32764	32953	
5097	0	32868	32916	
5098	0	32828	32984	
5099	0	32806	32556	
5100	0	32752	32672	
5101	0	32821	32478	
5102	0	32820	32380	
5103	0	32896	32446	
5104	0	32856	32546	
5105	0	32826	32790	
5106	0	32956	32868	
5107	0	33084	32728	
5108	0	32914	32775	
5109	0	32788	32934	
5110	0	32736	32762	
5111	0	32762	32775	
5112	0	32884	32656	
5113	0	32830	32628	
5114	0	32820	32687	
5115	0	32864	32750	
5116	0	32828	32858	
5117	0	32764	32868	
5118	0	32704	32629	
5119	0	32744	32714	
5120	0	32815	32692	
5121	0	32806	32826	
5122	0	32812	32630	
5123	0	32848	32569	
5124	0	32872	32564	
5125	0	32928	32519	
5126	0	32850	33031	
5127	0	32820	33308	
5128	0	32800	33226	
5129	0	32877	33164	
5130	0	32830	32666	
5131	0	32780	32159	
5132	0	32880	32402	
5133	0	32634	32426	
5134	0	32708	32452	
5135	0	32876	32740	
5136	0	32956	32912	
5137	0	32724	33060	
5138	0	32784	33110	
5139	0	32704	32922	
5140	0	32654	32720	
5141	0	32762	32331	
5142	0	32756	32230	
5143	0	32769	32551	
5144	0	32724	32775	
5145	0	32964	32856	
5146	0	32964	33148	
5147	0	32900	33048	
5148	0	32892	33096	
5149	0	32768	33174	
5150	0	32832	32879	
5151	0	32956	32518	
5152	0	32926	32600	
5153	0	32778	32550	
5154	0	32766	32532	
5155	0	32716	32534	
5156	0	32692	32439	
5157	0	32796	32345	
5158	0	32800	32450	
5159	0	32884	32326	
5160	0	32976	32334	
5161	0	33024	32583	
5162	0	32976	32616	
5163	0	33064	32696	
5164	0	33084	32740	
5165	0	33000	32740	
5166	0	33022	32701	
5167	0	33092	32918	
5168	0	32900	32900	
5169	0	32784	32982	
5170	0	32744	32888	
5171	0	32808	32762	
5172	0	32748	32868	
5173	0	32592	32816	
5174	0	32466	33060	
5175	0	32536	33127	
5176	0	32686	33063	
5177	0	32472	33128	
5178	0	32304	33138	
5179	0	32116	33438	
5180	0	32090	33639	
5181	0	32352	33300	
5182	0	32610	33120	
5183	0	33002	33192	
5184	0	32816	33208	
5185	0	32696	33078	
5186	0	32668	32774	
5187	0	32724	32702	
5188	0	32910	32671	
5189	0	33146	32414	
5190	0	33016	32327	
5191	0	32876	32228	
5192	0	32736	32645	
5193	0	32964	33222	
5194	0	33088	33478	
5195	0	32902	32770	
5196	0	32852	31771	
5197	0	32866	31144	
5198	0	32812	32052	
5199	0	32774	33060	
5200	0	32804	33278	
5201	0	32852	32954	
5202	0	32976	33156	
5203	0	33130	32764	
5204	0	32854	32478	
5205	0	32870	32430	
5206	0	32916	32506	
5207	0	32778	32126	
5208	0	32732	32199	
5209	0	32836	32644	
5210	0	32930	32638	
5211	0	32998	32908	
5212	0	33100	32971	
5213	0	33197	33037	
5214	0	33112	33380	
5215	0	33060	33251	
5216	0	32792	33122	
5217	0	32592	32892	
5218	0	32636	32642	
5219	0	32628	32726	
5220	0	32630	32726	
5221	0	32682	32452	
5222	0	32644	32455	
5223	0	32842	32655	
5224	0	32844	32454	
5225	0	32848	32715	
5226	0	32794	32786	
5227	0	32734	32876	
5228	0	32668	32732	
5229	0	32814	32558	
5230	0	32950	32748	
5231	0	32948	32895	
5232	0	32820	32730	
5233	0	32748	32788	
5234	0	32826	32664	
5235	0	32840	32720	
5236	0	32836	32807	
5237	0	32846	32820	
5238	0	32818	32712	
5239	0	32704	32775	
5240	0	32772	32814	
5241	0	32897	32818	
5242	0	32896	32802	
5243	0	32830	32718	
5244	0	32770	32596	
5245	0	32768	32590	
5246	0	32738	32836	
5247	0	32776	32982	
5248	0	32808	33031	
5249	0	32876	32966	
5250	0	32810	32942	
5251	0	32884	32890	
5252	0	32788	33098	
5253	0	32740	33159	
5254	0	32834	33024	
5255	0	32816	32932	
5256	0	32812	32727	
5257	0	32948	32661	
5258	0	33002	32564	
5259	0	32992	32326	
5260	0	32752	32647	
5261	0	32750	32740	
5262	0	32800	32578	
5263	0	32712	32612	
5264	0	32728	32532	
5265	0	32704	32652	
5266	0	32908	32860	
5267	0	32964	33252	
5268	0	32796	33031	
5269	0	32740	32934	
5270	0	32756	32808	
5271	0	32913	32692	
5272	0	32964	32660	
5273	0	32896	32808	
5274	0	32834	32990	
5275	0	32748	32698	
5276	0	32698	32844	
5277	0	32748	32660	
5278	0	32708	32759	
5279	0	32780	32852	
5280	0	32780	32886	
5281	0	32786	32706	
5282	0	32778	32516	
5283	0	32728	32632	
5284	0	32806	32263	
5285	0	32756	32348	
5286	0	32692	32319	
5287	0	32716	32792	
5288	0	32734	32990	
5289	0	32792	32932	
5290	0	32848	33071	
5291	0	32968	33486	
5292	0	32974	33192	
5293	0	32868	32246	
5294	0	32956	32436	
5295	0	32912	32714	
5296	0	32900	32932	
5297	0	32812	32916	
5298	0	32748	32775	
5299	0	32824	32820	
5300	0	32754	32956	
5301	0	32760	32863	
5302	0	32782	32806	
5303	0	32772	32790	
5304	0	32654	32842	
5305	0	32734	32726	
5306	0	32706	32634	
5307	0	32652	32578	
5308	0	32572	32722	
5309	0	32602	32712	
5310	0	32588	32768	
5311	0	32676	32802	
5312	0	32736	32647	
5313	0	33160	32469	
5314	0	33512	32391	
5315	0	33408	32738	
5316	0	32926	32872	
5317	0	32804	32642	
5318	0	32710	32622	
5319	0	32648	32618	
5320	0	32598	32840	
5321	0	32618	33098	
5322	0	32812	33346	
5323	0	32784	32940	
5324	0	32722	32840	
5325	0	32780	32346	
5326	0	32892	32496	
5327	0	32846	32600	
5328	0	32730	32999	
5329	0	32712	32830	
5330	0	32746	32856	
5331	0	32752	33006	
5332	0	32828	33061	
5333	0	32844	32881	
5334	0	32836	32710	
5335	0	32808	32622	
5336	0	32880	32606	
5337	0	32848	32519	
5338	0	32874	32734	
5339	0	32804	32700	
5340	0	32772	32756	
5341	0	32884	32584	
5342	0	32776	32628	
5343	0	32722	32888	
5344	0	32714	32927	
5345	0	32724	32868	
5346	0	32800	32864	
5347	0	32806	32720	
5348	0	32900	32894	
5349	0	32976	32932	
5350	0	32913	32734	
5351	0	32828	32821	
5352	0	32896	32636	
5353	0	32900	32806	
5354	0	32812	32900	
5355	0	32792	32944	
5356	0	32848	32692	
5357	0	32796	32519	
5358	0	32805	32546	
5359	0	32732	32510	
5360	0	32720	32646	
5361	0	32846	32666	
5362	0	32760	32730	
5363	0	32632	32634	
5364	0	32668	32832	
5365	0	32792	33056	
5366	0	32964	33050	
5367	0	32856	33164	
5368	0	32784	33020	
5369	0	32902	32750	
5370	0	32680	32833	
5371	0	32684	32690	
5372	0	32882	32668	
5373	0	33186	32668	
5374	0	32944	32615	
5375	0	32772	32454	
5376	0	32856	32246	
5377	0	32756	32328	
5378	0	32804	32316	
5379	0	33026	32694	
5380	0	33008	33010	
5381	0	32780	32936	
5382	0	32750	32866	
5383	0	32760	33178	
5384	0	32724	33020	
5385	0	32680	32814	
5386	0	32746	33009	
5387	0	32810	33106	
5388	0	32810	33191	
5389	0	32806	33111	
5390	0	32744	32722	
5391	0	32782	32825	
5392	0	32714	32654	
5393	0	32832	32510	
5394	0	32772	32436	
5395	0	32820	32346	
5396	0	32800	32516	
5397	0	32720	32811	
5398	0	32824	32728	
5399	0	32828	32667	
5400	0	32872	32775	
5401	0	32796	32843	
5402	0	32816	32908	
5403	0	32840	32932	
5404	0	32820	32808	
5405	0	32744	32700	
5406	0	32692	32734	
5407	0	32832	32756	
5408	0	32870	32960	
5409	0	32870	32910	
5410	0	32840	32759	
5411	0	32840	32774	
5412	0	32864	32899	
5413	0	32884	32810	
5414	0	32904	32860	
5415	0	32832	32774	
5416	0	32860	32679	
5417	0	32760	32592	
5418	0	32800	32726	
5419	0	32840	32595	
5420	0	32862	32673	
5421	0	32880	32720	
5422	0	32800	32660	
5423	0	32732	32822	
5424	0	32820	32808	
5425	0	32784	32856	
5426	0	32752	32807	
5427	0	32704	32602	
5428	0	32784	32916	
5429	0	32830	32916	
5430	0	32788	32852	
5431	0	32884	32767	
5432	0	32924	32807	
5433	0	32900	32836	
5434	0	32800	32660	
5435	0	32752	32632	
5436	0	32741	33096	
5437	0	32812	32878	
5438	0	32814	32922	
5439	0	32804	32688	
5440	0	32844	32657	
5441	0	32860	32688	
5442	0	32914	32640	
5443	0	32832	32730	
5444	0	32784	32852	
5445	0	32804	32940	
5446	0	32752	32670	
5447	0	32840	32692	
5448	0	32724	32750	
5449	0	32742	32946	
5450	0	32692	32974	
5451	0	32804	33142	
5452	0	32816	33094	
5453	0	32764	32656	
5454	0	32720	32604	
5455	0	32734	32462	
5456	0	32820	32442	
5457	0	32832	32676	
5458	0	32814	32750	
5459	0	32928	32807	
5460	0	32916	32690	
5461	0	32852	32612	
5462	0	32678	32970	
5463	0	32784	33230	
5464	0	32714	32865	
5465	0	32752	32727	
5466	0	32732	32566	
5467	0	32776	32638	
5468	0	32756	32775	
5469	0	32792	32752	
5470	0	32880	32742	
5471	0	32854	32608	
5472	0	32900	32718	
5473	0	32856	32818	
5474	0	32812	32836	
5475	0	32812	32558	
5476	0	32860	32446	
5477	0	32768	32730	
5478	0	32756	32814	
5479	0	32794	32914	
5480	0	32716	32952	
5481	0	32820	32964	
5482	0	32840	32935	
5483	0	32870	33088	
5484	0	32909	33080	
5485	0	32892	33010	
5486	0	33022	32796	
5487	0	32856	32886	
5488	0	32816	32900	
5489	0	32732	32847	
5490	0	32764	32903	
5491	0	32780	32828	
5492	0	32902	32672	
5493	0	32872	32775	
5494	0	32732	32441	
5495	0	32711	32418	
5496	0	32696	32428	
5497	0	32734	32391	
5498	0	32720	32359	
5499	0	32774	32551	
5500	0	32764	32678	
5501	0	32738	32758	
5502	0	32650	33034	
5503	0	32838	32684	
5504	0	32810	33054	
5505	0	32860	32855	
5506	0	32836	32551	
5507	0	32792	32646	
5508	0	32836	33095	
5509	0	32836	32759	
5510	0	32796	32928	
5511	0	32800	33127	
5512	0	33028	33254	
5513	0	32968	33080	
5514	0	32702	32842	
5515	0	32680	32596	
5516	0	32836	32591	
5517	0	32822	32625	
5518	0	32664	32583	
5519	0	32660	32510	
5520	0	32832	32652	
5521	0	32968	32670	
5522	0	32868	32890	
5523	0	32732	32927	
5524	0	32824	32840	
5525	0	32844	32678	
5526	0	32820	32804	
5527	0	32836	32652	
5528	0	32818	32568	
5529	0	32710	32774	
5530	0	32671	32782	
5531	0	32722	32902	
5532	0	32740	32584	
5533	0	32792	32844	
5534	0	32818	32998	
5535	0	33092	32940	
5536	0	33048	32998	
5537	0	32916	32988	
5538	0	32852	32736	
5539	0	32848	32532	
5540	0	32820	32228	
5541	0	32796	32420	
5542	0	32804	32871	
5543	0	32692	32887	
5544	0	32752	32911	
5545	0	32906	32977	
5546	0	32896	32832	
5547	0	32984	32632	
5548	0	33096	32735	
5549	0	33086	32630	
5550	0	32820	32816	
5551	0	32836	32820	
5552	0	32928	32708	
5553	0	32848	32611	
5554	0	32856	32592	
5555	0	32784	32788	
5556	0	32804	33031	
5557	0	32868	33003	
5558	0	32946	33088	
5559	0	32784	32960	
5560	0	32648	32818	
5561	0	32610	32790	
5562	0	32684	32806	
5563	0	32742	32634	
5564	0	32858	32692	
5565	0	32798	32683	
5566	0	32834	32823	
5567	0	32840	32807	
5568	0	32826	32738	
5569	0	32864	32734	
5570	0	32896	32755	
5571	0	32864	32772	
5572	0	32876	32857	
5573	0	32844	32622	
5574	0	32820	32625	
5575	0	32842	32676	
5576	0	32804	32750	
5577	0	32844	32556	
5578	0	32896	32484	
5579	0	32896	32702	
5580	0	32864	32791	
5581	0	32728	32580	
5582	0	32722	32620	
5583	0	32674	32636	
5584	0	32732	32416	
5585	0	32692	32847	
5586	0	32780	32926	
5587	0	32792	32998	
5588	0	32852	33390	
5589	0	32757	33503	
5590	0	32708	33176	
5591	0	32720	33022	
5592	0	32736	32794	
5593	0	32682	32796	
5594	0	32900	32727	
5595	0	32792	32670	
5596	0	32818	32786	
5597	0	32802	32684	
5598	0	32798	32694	
5599	0	32772	32550	
5600	0	32752	32440	
5601	0	32760	32436	
5602	0	32748	32415	
5603	0	32858	32550	
5604	0	32860	32532	
5605	0	32806	32660	
5606	0	32804	32762	
5607	0	32812	32895	
5608	0	32834	32898	
5609	0	32804	32852	
5610	0	32800	32852	
5611	0	32810	32830	
5612	0	32872	32810	
5613	0	32832	32894	
5614	0	32852	32860	
5615	0	32772	32744	
5616	0	32806	32802	
5617	0	32820	32852	
5618	0	32742	32706	
5619	0	32696	32791	
5620	0	32824	32705	
5621	0	32666	32686	
5622	0	32736	32738	
5623	0	32712	32769	
5624	0	32872	32806	
5625	0	32816	32772	
5626	0	32852	32724	
5627	0	32836	32543	
5628	0	32828	32700	
5629	0	32864	32792	
5630	0	32920	32748	
5631	0	32884	32722	
5632	0	32916	32814	
5633	0	32856	32796	
5634	0	32860	33050	
5635	0	32796	32844	
5636	0	32780	32898	
5637	0	32744	32884	
5638	0	32678	32820	
5639	0	32672	32719	
5640	0	32754	32434	
5641	0	32796	32532	
5642	0	32834	32684	
5643	0	32962	32728	
5644	0	32900	32775	
5645	0	32896	32718	
5646	0	33036	32686	
5647	0	32944	32662	
5648	0	32768	32806	
5649	0	32842	32700	
5650	0	32800	32760	
5651	0	32784	32758	
5652	0	32818	32692	
5653	0	32740	32903	
5654	0	32820	33018	
5655	0	32796	32888	
5656	0	32812	32895	
5657	0	32784	32964	
5658	0	32764	33026	
5659	0	32876	32774	
5660	0	32780	32712	
5661	0	32808	32684	
5662	0	32724	32598	
5663	0	32708	32616	
5664	0	32810	32372	
5665	0	32712	32399	
5666	0	32684	32848	
5667	0	32812	33192	
5668	0	33024	32998	
5669	0	32988	33100	
5670	0	33048	33122	
5671	0	32900	32879	
5672	0	32942	32386	
5673	0	33044	32580	
5674	0	32968	32488	
5675	0	32680	32670	
5676	0	32752	32705	
5677	0	32742	32737	
5678	0	32810	32494	
5679	0	32716	32598	
5680	0	32672	32702	
5681	0	32628	32940	
5682	0	32622	32676	
5683	0	32724	32576	
5684	0	32800	32692	
5685	0	32800	32751	
5686	0	32788	32828	
5687	0	32784	32862	
5688	0	32788	33020	
5689	0	32744	32860	
5690	0	32852	32808	
5691	0	32908	32903	
5692	0	32860	32752	
5693	0	32870	32799	
5694	0	32868	32844	
5695	0	32776	33016	
5696	0	32742	32860	
5697	0	32808	32724	
5698	0	32784	32679	
5699	0	32814	32474	
5700	0	32788	32868	
5701	0	32764	32886	
5702	0	32820	32732	
5703	0	32768	32770	
5704	0	32784	32724	
5705	0	32802	32574	
5706	0	32854	32798	
5707	0	32802	32874	
5708	0	32732	32676	
5709	0	32780	32716	
5710	0	32804	32820	
5711	0	32894	32628	
5712	0	32852	32618	
5713	0	32756	32665	
5714	0	32728	32840	
5715	0	32672	32855	
5716	0	32836	32922	
5717	0	32920	33228	
5718	0	32820	32788	
5719	0	32782	32491	
5720	0	32857	32700	
5721	0	32912	32661	
5722	0	32836	32804	
5723	0	32820	32644	
5724	0	32768	32550	
5725	0	32824	32682	
5726	0	32724	32552	
5727	0	32708	32666	
5728	0	32760	32859	
5729	0	32741	32930	
5730	0	32752	32950	
5731	0	32900	32852	
5732	0	32910	32910	
5733	0	32812	32934	
5734	0	32824	32730	
5735	0	32728	32646	
5736	0	32708	32759	
5737	0	32724	32759	
5738	0	32704	32645	
5739	0	32792	32610	
5740	0	32790	32647	
5741	0	32834	32898	
5742	0	32952	33058	
5743	0	33056	32932	
5744	0	32940	32935	
5745	0	32844	32836	
5746	0	32826	32836	
5747	0	32748	32666	
5748	0	32832	32692	
5749	0	32858	32686	
5750	0	32684	32864	
5751	0	32702	32642	
5752	0	32752	32602	
5753	0	32644	32764	
5754	0	32648	32796	
5755	0	32740	32662	
5756	0	32780	32660	
5757	0	32848	32871	
5758	0	32882	32895	
5759	0	32858	32960	
5760	0	32828	32702	
5761	0	32728	32682	
5762	0	32830	32726	
5763	0	32788	32678	
5764	0	32864	32710	
5765	0	32820	32766	
5766	0	32900	32728	
5767	0	32864	32688	
5768	0	32816	32744	
5769	0	32788	32897	
5770	0	32764	32854	
5771	0	32788	32836	
5772	0	32772	32933	
5773	0	32820	32804	
5774	0	32860	32919	
5775	0	32846	32716	
5776	0	32800	32566	
5777	0	32772	32600	
5778	0	32752	32819	
5779	0	32844	32996	
5780	0	32934	32930	
5781	0	32972	32532	
5782	0	32888	32759	
5783	0	32852	32775	
5784	0	32884	32743	
5785	0	32898	32722	
5786	0	32888	32836	
5787	0	32856	32871	
5788	0	32936	32983	
5789	0	32894	32826	
5790	0	32796	32820	
5791	0	32724	32742	
5792	0	32752	32768	
5793	0	32848	32724	
5794	0	32798	32615	
5795	0	32804	32764	
5796	0	32734	32760	
5797	0	32839	32746	
5798	0	32720	32680	
5799	0	32748	32642	
5800	0	32800	32743	
5801	0	32884	32804	
5802	0	32814	32743	
5803	0	32904	32813	
5804	0	32806	32760	
5805	0	32760	32764	
5806	0	32764	32852	
5807	0	32808	32804	
5808	0	32832	32878	
5809	0	32816	32644	
5810	0	32860	32750	
5811	0	32866	32615	
5812	0	32780	32692	
5813	0	32692	32615	
5814	0	32810	32794	
5815	0	32836	32966	
5816	0	32776	32982	
5817	0	32864	32999	
5818	0	32864	32889	
5819	0	32772	32838	
5820	0	32740	32644	
5821	0	32652	32662	
5822	0	32644	32588	
5823	0	32784	32596	
5824	0	32944	32566	
5825	0	33068	32495	
5826	0	33098	32431	
5827	0	32992	32652	
5828	0	32932	32607	
5829	0	32746	32892	
5830	0	32704	32996	
5831	0	32740	32943	
5832	0	32745	32954	
5833	0	32640	32860	
5834	0	32714	32862	
5835	0	32776	32943	
5836	0	32784	32999	
5837	0	32806	32774	
5838	0	32724	32966	
5839	0	32764	32852	
5840	0	32780	32775	
5841	0	32876	32846	
5842	0	32808	32807	
5843	0	32800	32736	
5844	0	32898	32844	
5845	0	32816	32662	
5846	0	32764	32693	
5847	0	32704	32768	
5848	0	32868	32750	
5849	0	32868	32886	
5850	0	32786	32763	
5851	0	32768	32652	
5852	0	32645	32696	
5853	0	32694	32490	
5854	0	32698	32540	
5855	0	32736	32620	
5856	0	32782	32646	
5857	0	32888	32866	
5858	0	32840	32816	
5859	0	32812	32998	
5860	0	32832	32848	
5861	0	32852	32828	
5862	0	32908	32824	
5863	0	32816	32920	
5864	0	32688	32878	
5865	0	32712	32752	
5866	0	32654	32835	
5867	0	32788	33018	
5868	0	32786	32870	
5869	0	32988	32703	
5870	0	32982	32686	
5871	0	32832	32599	
5872	0	32821	32516	
5873	0	32816	32586	
5874	0	32728	32615	
5875	0	32756	32736	
5876	0	32852	32660	
5877	0	32868	32672	
5878	0	32832	32594	
5879	0	32952	32816	
5880	0	32936	32884	
5881	0	32816	32892	
5882	0	32748	32768	
5883	0	32812	32828	
5884	0	32788	32846	
5885	0	32820	32775	
5886	0	32804	32783	
5887	0	32888	32871	
5888	0	32904	32898	
5889	0	32860	32759	
5890	0	32858	32668	
5891	0	32942	32655	
5892	0	32918	32775	
5893	0	32818	32667	
5894	0	32812	32760	
5895	0	32864	32811	
5896	0	32888	32756	
5897	0	32824	32966	
5898	0	32836	32929	
5899	0	32728	32895	
5900	0	32832	32580	
5901	0	32884	32544	
5902	0	32844	32606	
5903	0	32844	32599	
5904	0	32824	32658	
5905	0	32884	32743	
5906	0	32794	32980	
5907	0	32796	32826	
5908	0	32780	32676	
5909	0	32788	32846	
5910	0	32712	32855	
5911	0	32812	32716	
5912	0	32736	32694	
5913	0	32682	32679	
5914	0	32678	32682	
5915	0	32766	32858	
5916	0	32696	32807	
5917	0	32830	32701	
5918	0	32790	32751	
5919	0	32836	32756	
5920	0	32792	32722	
5921	0	32794	32849	
5922	0	32796	32864	
5923	0	32878	32862	
5924	0	32866	32852	
5925	0	32878	32835	
5926	0	32936	32852	
5927	0	32916	32948	
5928	0	32772	32839	
5929	0	32728	32820	
5930	0	32780	32902	
5931	0	32832	32775	
5932	0	32872	32572	
5933	0	32820	32560	
5934	0	32824	32500	
5935	0	32798	32630	
5936	0	32784	32688	
5937	0	32700	32794	
5938	0	32686	32696	
5939	0	32868	32902	
5940	0	32992	32976	
5941	0	32958	32794	
5942	0	32788	32706	
5943	0	32820	32736	
5944	0	32808	32810	
5945	0	32794	32876	
5946	0	32772	32964	
5947	0	32772	32756	
5948	0	32820	32804	
5949	0	32818	32710	
5950	0	32814	32666	
5951	0	32825	32625	
5952	0	32736	32804	
5953	0	32722	32871	
5954	0	32768	32872	
5955	0	32854	32616	
5956	0	32756	32563	
5957	0	32772	32868	
5958	0	32812	32799	
5959	0	32776	32903	
5960	0	32852	32745	
5961	0	32833	32736	
5962	0	32876	32775	
5963	0	32848	32756	
5964	0	32820	32775	
5965	0	32848	32795	
5966	0	32792	32654	
5967	0	32756	32712	
5968	0	32720	32878	
5969	0	32696	32764	
5970	0	32860	32678	
5971	0	32826	32598	
5972	0	32900	32767	
5973	0	32858	32750	
5974	0	32948	32876	
5975	0	32872	32774	
5976	0	32908	32818	
5977	0	32924	32837	
5978	0	32902	32766	
5979	0	32784	32870	
5980	0	32608	32964	
5981	0	32578	32760	
5982	0	32696	32868	
5983	0	32642	32756	
5984	0	32756	32680	
5985	0	32824	32746	
5986	0	32868	32766	
5987	0	32876	32688	
5988	0	32838	32735	
5989	0	32808	32756	
5990	0	32762	32864	
5991	0	32764	32794	
5992	0	32844	32687	
5993	0	32812	32807	
5994	0	32852	32849	
5995	0	32808	32718	
5996	0	32840	32750	
5997	0	32858	32758	
5998	0	32850	32868	
5999	0	32876	32736	
6000	0	32914	32740	
6001	0	32960	32751	
6002	0	32826	32480	
6003	0	33024	32428	
6004	0	33044	32455	
6005	0	32876	32743	
6006	0	32910	32788	
6007	0	32968	32658	
6008	0	32918	32534	
6009	0	33016	32438	
6010	0	32944	32704	
6011	0	32960	32758	
6012	0	32966	32631	
