# OpenSignals Text File Format. Version 1
# {"00:07:80:8C:0A:39": {"position": 0, "device": "biosignalsplux", "device name": "00:07:80:8C:0A:39", "device connection": "BTH00:07:80:8C:0A:39", "sampling rate": 1000, "resolution": [16, 16], "firmware version": 776, "comments": "", "keywords": "", "mode": 0, "sync interval": 2, "date": "2023-3-17", "time": "14:48:0.442", "channels": [1, 2], "sensor": ["EMG", "EMG"], "label": ["CH1", "CH2"], "column": ["nSeq", "DI", "CH1", "CH2"], "special": [{"SpO2": [80, 40, 5, 4, 3, 3]}, {"SpO2": [80, 40, 5, 4, 3, 3]}, {"SpO2": [80, 40, 5, 4, 3, 3]}, {"SpO2": [80, 40, 5, 4, 3, 3]}, {"SpO2": [80, 40, 5, 4, 3, 3]}, {"SpO2": [80, 40, 5, 4, 3, 3]}, {"SpO2": [80, 40, 5, 4, 3, 3]}, {"SpO2": [80, 40, 5, 4, 3, 3]}], "digital IO": [0, 1], "sleeve color": ["gray", "yellow"], "convertedValues": 0}}
# EndOfHeader
0	0	32766	32832	
1	0	32906	32775	
2	0	32824	32678	
3	0	32784	32700	
4	0	32940	32727	
5	0	32866	32784	
6	0	32802	32810	
7	0	32860	32710	
8	0	32846	32670	
9	0	32856	32682	
10	0	32830	32775	
11	0	32802	32686	
12	0	32848	32772	
13	0	32748	32800	
14	0	32816	32789	
15	0	32796	32848	
16	0	32772	32806	
17	0	32818	32886	
18	0	32806	32822	
19	0	32804	32734	
20	0	32750	32711	
21	0	32822	32870	
22	0	32802	32807	
23	0	32868	32754	
24	0	32762	32738	
25	0	32810	32702	
26	0	32796	32684	
27	0	32810	32676	
28	0	32838	32653	
29	0	32848	32693	
30	0	32804	32676	
31	0	32852	32775	
32	0	32808	32708	
33	0	32788	32726	
34	0	32776	32638	
35	0	32820	32727	
36	0	32924	32712	
37	0	32856	32734	
38	0	32796	32728	
39	0	32808	32700	
40	0	32784	32678	
41	0	32776	32834	
42	0	32854	32839	
43	0	32792	32762	
44	0	32792	32844	
45	0	32820	32812	
46	0	32808	32806	
47	0	32821	32741	
48	0	32792	32786	
49	0	32846	32828	
50	0	32800	32858	
51	0	32812	32750	
52	0	32772	32858	
53	0	32852	32794	
54	0	32790	32775	
55	0	32810	32852	
56	0	32852	32766	
57	0	32812	32734	
58	0	32801	32658	
59	0	32832	32660	
60	0	32828	32722	
61	0	32826	32732	
62	0	32778	32676	
63	0	32784	32683	
64	0	32776	32686	
65	0	32750	32771	
66	0	32848	32724	
67	0	32864	32743	
68	0	32882	32688	
69	0	32820	32676	
70	0	32772	32764	
71	0	32796	32824	
72	0	32802	32760	
73	0	32800	32855	
74	0	32780	32903	
75	0	32847	32775	
76	0	32782	32824	
77	0	32840	32686	
78	0	32798	32704	
79	0	32900	32720	
80	0	32788	32638	
81	0	32872	32667	
82	0	32782	32740	
83	0	32848	32774	
84	0	32916	32652	
85	0	32832	32714	
86	0	32876	32839	
87	0	32778	32759	
88	0	32816	32828	
89	0	32820	32798	
90	0	32796	32848	
91	0	32874	32830	
92	0	32736	32775	
93	0	32746	32890	
94	0	32876	32807	
95	0	32804	32756	
96	0	32792	32834	
97	0	32756	32822	
98	0	32790	32764	
99	0	32864	32775	
100	0	32848	32796	
101	0	32800	32740	
102	0	32810	32758	
103	0	32825	32771	
104	0	32816	32716	
105	0	32794	32724	
106	0	32756	32732	
107	0	32804	32748	
108	0	32814	32754	
109	0	32804	32722	
110	0	32810	32798	
111	0	32764	32740	
112	0	32782	32818	
113	0	32834	32775	
114	0	32876	32764	
115	0	32786	32834	
116	0	32752	32818	
117	0	32796	32824	
118	0	32860	32844	
119	0	32792	32868	
120	0	32780	32732	
121	0	32784	32775	
122	0	32828	32684	
123	0	32872	32672	
124	0	32820	32670	
125	0	32854	32724	
126	0	32768	32728	
127	0	32772	32748	
128	0	32760	32810	
129	0	32848	32702	
130	0	32788	32884	
131	0	32864	32810	
132	0	32796	32798	
133	0	32856	32768	
134	0	32824	32796	
135	0	32852	32733	
136	0	32832	32770	
137	0	32796	32746	
138	0	32834	32840	
139	0	32768	32863	
140	0	32770	32711	
141	0	32812	32775	
142	0	32772	32852	
143	0	32814	32666	
144	0	32812	32652	
145	0	32820	32720	
146	0	32768	32730	
147	0	32840	32695	
148	0	32822	32711	
149	0	32804	32652	
150	0	32824	32668	
151	0	32840	32642	
152	0	32780	32708	
153	0	32872	32724	
154	0	32764	32752	
155	0	32808	32718	
156	0	32712	32678	
157	0	32792	32798	
158	0	32784	32730	
159	0	32796	32711	
160	0	32830	32662	
161	0	32780	32796	
162	0	32756	32764	
163	0	32856	32803	
164	0	32852	32812	
165	0	32796	32810	
166	0	32852	32772	
167	0	32854	32814	
168	0	32824	32729	
169	0	32768	32884	
170	0	32832	32815	
171	0	32696	32800	
172	0	32804	32759	
173	0	32860	32679	
174	0	32800	32704	
175	0	32800	32748	
176	0	32786	32862	
177	0	32816	32839	
178	0	32792	32846	
179	0	32826	32788	
180	0	32820	32728	
181	0	32824	32791	
182	0	32816	32874	
183	0	32772	32828	
184	0	32816	32852	
185	0	32780	32752	
186	0	32810	32732	
187	0	32810	32700	
188	0	32860	32775	
189	0	32832	32756	
190	0	32840	32679	
191	0	32796	32775	
192	0	32822	32718	
193	0	32792	32752	
194	0	32862	32828	
195	0	32800	32754	
196	0	32816	32798	
197	0	32858	32830	
198	0	32820	32801	
199	0	32828	32820	
200	0	32840	32820	
201	0	32810	32838	
202	0	32764	32706	
203	0	32816	32862	
204	0	32716	32764	
205	0	32816	32740	
206	0	32880	32772	
207	0	32754	32743	
208	0	32836	32839	
209	0	32838	32674	
210	0	32868	32836	
211	0	32864	32806	
212	0	32792	32775	
213	0	32760	32836	
214	0	32760	32810	
215	0	32856	32738	
216	0	32816	32790	
217	0	32820	32852	
218	0	32764	32806	
219	0	32846	32894	
220	0	32858	32738	
221	0	32858	32678	
222	0	32776	32678	
223	0	32828	32830	
224	0	32840	32724	
225	0	32804	32848	
226	0	32812	32878	
227	0	32900	32743	
228	0	32800	32788	
229	0	32760	32644	
230	0	32828	32740	
231	0	32796	32662	
232	0	32760	32733	
233	0	32812	32743	
234	0	32860	32796	
235	0	32816	32806	
236	0	32848	32869	
237	0	32864	32772	
238	0	32834	32676	
239	0	32830	32868	
240	0	32820	32859	
241	0	32798	32775	
242	0	32812	32744	
243	0	32836	32832	
244	0	32824	32814	
245	0	32836	32751	
246	0	32812	32831	
247	0	32832	32742	
248	0	32836	32692	
249	0	32768	32820	
250	0	32812	32730	
251	0	32800	32775	
252	0	32814	32834	
253	0	32778	32804	
254	0	32868	32761	
255	0	32762	32808	
256	0	32868	32756	
257	0	32948	32860	
258	0	32900	32747	
259	0	32948	32964	
260	0	32872	32874	
261	0	32928	32839	
262	0	32884	32854	
263	0	32888	32834	
264	0	32812	32764	
265	0	32770	32805	
266	0	32728	32695	
267	0	32688	32604	
268	0	32642	32476	
269	0	32666	32503	
270	0	32680	32391	
271	0	32664	32484	
272	0	32608	32460	
273	0	32604	32318	
274	0	32668	32550	
275	0	32776	32611	
276	0	32774	32722	
277	0	32732	32750	
278	0	32866	32871	
279	0	32810	32834	
280	0	32784	32874	
281	0	32816	32904	
282	0	32896	32924	
283	0	32864	32920	
284	0	32884	32840	
285	0	32908	32892	
286	0	32974	32842	
287	0	32852	32884	
288	0	32910	32814	
289	0	32856	32832	
290	0	32848	32798	
291	0	32850	32860	
292	0	32828	32870	
293	0	32864	32834	
294	0	32782	32768	
295	0	32864	32770	
296	0	32842	32792	
297	0	32846	32748	
298	0	32860	32774	
299	0	32848	32754	
300	0	32802	32767	
301	0	32816	32783	
302	0	32820	32711	
303	0	32870	32711	
304	0	32762	32672	
305	0	32784	32668	
306	0	32752	32808	
307	0	32800	32775	
308	0	32772	32752	
309	0	32784	32631	
310	0	32808	32704	
311	0	32796	32712	
312	0	32816	32766	
313	0	32844	32751	
314	0	32746	32676	
315	0	32792	32804	
316	0	32760	32846	
317	0	32856	32836	
318	0	32744	32804	
319	0	32800	32790	
320	0	32768	32696	
321	0	32788	32711	
322	0	32820	32734	
323	0	32810	32724	
324	0	32798	32822	
325	0	32852	32758	
326	0	32830	32774	
327	0	32856	32766	
328	0	32816	32828	
329	0	32800	32838	
330	0	32896	32775	
331	0	32876	32796	
332	0	32814	32791	
333	0	32832	32810	
334	0	32822	32742	
335	0	32804	32652	
336	0	32808	32702	
337	0	32769	32708	
338	0	32854	32800	
339	0	32808	32767	
340	0	32804	32854	
341	0	32804	32836	
342	0	32814	32775	
343	0	32804	32752	
344	0	32888	32808	
345	0	32832	32724	
346	0	32802	32788	
347	0	32824	32748	
348	0	32720	32814	
349	0	32760	32762	
350	0	32800	32792	
351	0	32784	32818	
352	0	32756	32724	
353	0	32874	32792	
354	0	32780	32822	
355	0	32804	32871	
356	0	32756	32834	
357	0	32760	32814	
358	0	32728	32747	
359	0	32804	32876	
360	0	32788	32850	
361	0	32836	32836	
362	0	32872	32838	
363	0	32834	32770	
364	0	32792	32758	
365	0	32780	32762	
366	0	32796	32746	
367	0	32776	32720	
368	0	32888	32742	
369	0	32742	32768	
370	0	32856	32764	
371	0	32872	32760	
372	0	32780	32676	
373	0	32836	32666	
374	0	32804	32772	
375	0	32754	32684	
376	0	32828	32774	
377	0	32820	32804	
378	0	32780	32791	
379	0	32788	32740	
380	0	32832	32770	
381	0	32820	32750	
382	0	32860	32752	
383	0	32808	32760	
384	0	32766	32802	
385	0	32820	32842	
386	0	32828	32807	
387	0	32868	32736	
388	0	32800	32876	
389	0	32820	32816	
390	0	32800	32789	
391	0	32836	32860	
392	0	32826	32843	
393	0	32752	32772	
394	0	32756	32710	
395	0	32848	32710	
396	0	32816	32622	
397	0	32794	32756	
398	0	32840	32693	
399	0	32804	32850	
400	0	32772	32772	
401	0	32782	32770	
402	0	32740	32700	
403	0	32864	32770	
404	0	32808	32775	
405	0	32814	32830	
406	0	32840	32764	
407	0	32810	32754	
408	0	32852	32774	
409	0	32856	32644	
410	0	32796	32708	
411	0	32838	32720	
412	0	32802	32732	
413	0	32800	32774	
414	0	32780	32742	
415	0	32804	32758	
416	0	32810	32732	
417	0	32844	32728	
418	0	32764	32754	
419	0	32792	32786	
420	0	32846	32792	
421	0	32940	32775	
422	0	32786	32798	
423	0	32880	32836	
424	0	32780	32788	
425	0	32878	32896	
426	0	32856	32775	
427	0	32808	32775	
428	0	32804	32852	
429	0	32794	32844	
430	0	32752	32759	
431	0	32764	32695	
432	0	32788	32796	
433	0	32832	32738	
434	0	32820	32794	
435	0	32868	32806	
436	0	32858	32700	
437	0	32840	32820	
438	0	32818	32806	
439	0	32904	32748	
440	0	32792	32762	
441	0	32820	32798	
442	0	32760	32702	
443	0	32782	32770	
444	0	32792	32775	
445	0	32862	32775	
446	0	32808	32768	
447	0	32760	32742	
448	0	32830	32744	
449	0	32864	32764	
450	0	32842	32792	
451	0	32818	32772	
452	0	32776	32738	
453	0	32836	32784	
454	0	32864	32758	
455	0	32804	32799	
456	0	32832	32848	
457	0	32864	32775	
458	0	32740	32775	
459	0	32778	32812	
460	0	32806	32775	
461	0	32802	32804	
462	0	32748	32836	
463	0	32808	32812	
464	0	32826	32866	
465	0	32860	32816	
466	0	32814	32815	
467	0	32844	32750	
468	0	32824	32800	
469	0	32800	32775	
470	0	32832	32814	
471	0	32804	32808	
472	0	32902	32774	
473	0	32764	32807	
474	0	32775	32750	
475	0	32876	32772	
476	0	32828	32805	
477	0	32784	32840	
478	0	32840	32815	
479	0	32770	32820	
480	0	32828	32800	
481	0	32792	32770	
482	0	32752	32754	
483	0	32772	32775	
484	0	32776	32830	
485	0	32794	32828	
486	0	32816	32800	
487	0	32882	32718	
488	0	32852	32614	
489	0	32804	32692	
490	0	32860	32700	
491	0	32882	32696	
492	0	32834	32736	
493	0	32792	32652	
494	0	32758	32684	
495	0	32780	32624	
496	0	32846	32718	
497	0	32800	32759	
498	0	32820	32775	
499	0	32828	32714	
500	0	32824	32830	
501	0	32872	32818	
502	0	32832	32736	
503	0	32852	32796	
504	0	32748	32768	
505	0	32860	32794	
506	0	32826	32796	
507	0	32780	32772	
508	0	32874	32796	
509	0	32834	32732	
510	0	32818	32688	
511	0	32772	32676	
512	0	32826	32688	
513	0	32824	32708	
514	0	32792	32678	
515	0	32870	32818	
516	0	32812	32828	
517	0	32748	32702	
518	0	32860	32775	
519	0	32806	32790	
520	0	32800	32768	
521	0	32840	32834	
522	0	32804	32802	
523	0	32860	32762	
524	0	32780	32702	
525	0	32824	32756	
526	0	32804	32654	
527	0	32764	32692	
528	0	32788	32714	
529	0	32806	32606	
530	0	32816	32894	
531	0	32820	32790	
532	0	32868	32808	
533	0	32842	32692	
534	0	32746	32718	
535	0	32836	32732	
536	0	32816	32730	
537	0	32804	32757	
538	0	32746	32823	
539	0	32788	32714	
540	0	32868	32672	
541	0	32852	32791	
542	0	32820	32838	
543	0	32772	32846	
544	0	32806	32842	
545	0	32822	32836	
546	0	32792	32792	
547	0	32844	32728	
548	0	32824	32770	
549	0	32840	32810	
550	0	32784	32712	
551	0	32800	32660	
552	0	32824	32820	
553	0	32804	32738	
554	0	32798	32734	
555	0	32826	32697	
556	0	32796	32695	
557	0	32828	32704	
558	0	32832	32956	
559	0	32772	32850	
560	0	32756	32794	
561	0	32752	32788	
562	0	32820	32812	
563	0	32748	32834	
564	0	32852	32800	
565	0	32828	32716	
566	0	32892	32807	
567	0	32820	32743	
568	0	32800	32732	
569	0	32736	32758	
570	0	32800	32804	
571	0	32778	32746	
572	0	32766	32700	
573	0	32788	32678	
574	0	32816	32676	
575	0	32836	32748	
576	0	32908	32839	
577	0	32884	32903	
578	0	32872	32870	
579	0	32842	32698	
580	0	32828	32796	
581	0	32790	32804	
582	0	32804	32822	
583	0	32820	32839	
584	0	32816	32804	
585	0	32802	32794	
586	0	32828	32730	
587	0	32800	32743	
588	0	32836	32760	
589	0	32744	32842	
590	0	32800	32868	
591	0	32892	32774	
592	0	32796	32892	
593	0	32852	32816	
594	0	32870	32775	
595	0	32780	32812	
596	0	32782	32823	
597	0	32790	32775	
598	0	32800	32764	
599	0	32814	32795	
600	0	32800	32830	
601	0	32756	32734	
602	0	32842	32766	
603	0	32804	32766	
604	0	32884	32706	
605	0	32826	32789	
606	0	32848	32810	
607	0	32752	32748	
608	0	32824	32810	
609	0	32848	32774	
610	0	32852	32711	
611	0	32804	32688	
612	0	32832	32676	
613	0	32822	32694	
614	0	32794	32866	
615	0	32801	32839	
616	0	32838	32695	
617	0	32776	32714	
618	0	32764	32790	
619	0	32828	32722	
620	0	32836	32736	
621	0	32848	32690	
622	0	32906	32712	
623	0	32812	32791	
624	0	32750	32736	
625	0	32840	32816	
626	0	32800	32770	
627	0	32828	32774	
628	0	32842	32806	
629	0	32808	32846	
630	0	32800	32815	
631	0	32804	32756	
632	0	32874	32741	
633	0	32816	32715	
634	0	32808	32742	
635	0	32784	32749	
636	0	32772	32762	
637	0	32780	32712	
638	0	32808	32762	
639	0	32800	32711	
640	0	32788	32844	
641	0	32828	32800	
642	0	32792	32790	
643	0	32828	32793	
644	0	32760	32766	
645	0	32790	32775	
646	0	32784	32712	
647	0	32804	32772	
648	0	32836	32753	
649	0	32862	32775	
650	0	32792	32802	
651	0	32844	32742	
652	0	32796	32738	
653	0	32892	32820	
654	0	32798	32804	
655	0	32834	32820	
656	0	32772	32684	
657	0	32832	32753	
658	0	32792	32704	
659	0	32810	32700	
660	0	32812	32834	
661	0	32785	32806	
662	0	32816	32813	
663	0	32776	32806	
664	0	32816	32716	
665	0	32772	32775	
666	0	32796	32816	
667	0	32812	32810	
668	0	32848	32826	
669	0	32792	32748	
670	0	32816	32756	
671	0	32840	32790	
672	0	32832	32846	
673	0	32796	32834	
674	0	32860	32768	
675	0	32870	32784	
676	0	32860	32786	
677	0	32824	32770	
678	0	32756	32770	
679	0	32802	32866	
680	0	32816	32862	
681	0	32794	32775	
682	0	32802	32712	
683	0	32836	32670	
684	0	32792	32690	
685	0	32814	32812	
686	0	32848	32797	
687	0	32720	32838	
688	0	32720	32800	
689	0	32816	32770	
690	0	32824	32775	
691	0	32836	32788	
692	0	32788	32770	
693	0	32752	32752	
694	0	32812	32814	
695	0	32852	32615	
696	0	32820	32673	
697	0	32816	32775	
698	0	32832	32679	
699	0	32820	32719	
700	0	32882	32826	
701	0	32848	32810	
702	0	32816	32752	
703	0	32816	32775	
704	0	32812	32826	
705	0	32792	32775	
706	0	32768	32832	
707	0	32794	32804	
708	0	32852	32772	
709	0	32848	32712	
710	0	32854	32807	
711	0	32768	32764	
712	0	32844	32792	
713	0	32840	32830	
714	0	32832	32738	
715	0	32828	32712	
716	0	32778	32722	
717	0	32792	32696	
718	0	32834	32710	
719	0	32756	32696	
720	0	32823	32656	
721	0	32772	32656	
722	0	32804	32762	
723	0	32804	32902	
724	0	32814	32775	
725	0	32808	32734	
726	0	32906	32756	
727	0	32866	32848	
728	0	32842	32820	
729	0	32868	32746	
730	0	32830	32753	
731	0	32886	32714	
732	0	32830	32871	
733	0	32784	32847	
734	0	32772	32774	
735	0	32800	32718	
736	0	32814	32700	
737	0	32778	32638	
738	0	32834	32706	
739	0	32828	32704	
740	0	32854	32694	
741	0	32756	32743	
742	0	32834	32828	
743	0	32752	32828	
744	0	32740	32839	
745	0	32790	32760	
746	0	32812	32764	
747	0	32804	32732	
748	0	32872	32768	
749	0	32860	32822	
750	0	32822	32846	
751	0	32864	32845	
752	0	32812	32840	
753	0	32801	32775	
754	0	32848	32775	
755	0	32778	32715	
756	0	32834	32796	
757	0	32892	32750	
758	0	32772	32653	
759	0	32836	32760	
760	0	32792	32740	
761	0	32890	32832	
762	0	32748	32761	
763	0	32844	32822	
764	0	32820	32726	
765	0	32820	32724	
766	0	32832	32710	
767	0	32790	32698	
768	0	32812	32657	
769	0	32800	32706	
770	0	32836	32702	
771	0	32850	32744	
772	0	32788	32720	
773	0	32804	32652	
774	0	32764	32702	
775	0	32800	32828	
776	0	32834	32836	
777	0	32808	32858	
778	0	32762	32735	
779	0	32788	32818	
780	0	32792	32782	
781	0	32812	32868	
782	0	32840	32831	
783	0	32772	32775	
784	0	32804	32774	
785	0	32804	32767	
786	0	32852	32760	
787	0	32796	32756	
788	0	32792	32700	
789	0	32836	32828	
790	0	32736	32732	
791	0	32800	32794	
792	0	32844	32672	
793	0	32800	32844	
794	0	32808	32840	
795	0	32840	32865	
796	0	32816	32846	
797	0	32828	32810	
798	0	32764	32788	
799	0	32780	32886	
800	0	32880	32832	
801	0	32852	32798	
802	0	32858	32764	
803	0	32792	32860	
804	0	32812	32882	
805	0	32872	32775	
806	0	32880	32775	
807	0	32782	32799	
808	0	32850	32710	
809	0	32832	32740	
810	0	32812	32774	
811	0	32792	32839	
812	0	32750	32830	
813	0	32780	32746	
814	0	32788	32794	
815	0	32828	32727	
816	0	32748	32812	
817	0	32768	32774	
818	0	32816	32810	
819	0	32732	32756	
820	0	32800	32804	
821	0	32804	32788	
822	0	32758	32787	
823	0	32876	32775	
824	0	32826	32754	
825	0	32784	32738	
826	0	32836	32740	
827	0	32876	32740	
828	0	32808	32718	
829	0	32820	32736	
830	0	32754	32704	
831	0	32784	32834	
832	0	32806	32832	
833	0	32788	32774	
834	0	32836	32871	
835	0	32802	32736	
836	0	32820	32792	
837	0	32762	32722	
838	0	32820	32762	
839	0	32776	32740	
840	0	32896	32814	
841	0	32862	32750	
842	0	32818	32775	
843	0	32800	32872	
844	0	32804	32816	
845	0	32790	32724	
846	0	32786	32730	
847	0	32746	32660	
848	0	32748	32730	
849	0	32800	32736	
850	0	32788	32857	
851	0	32828	32812	
852	0	32860	32864	
853	0	32810	32794	
854	0	32792	32830	
855	0	32816	32814	
856	0	32848	32775	
857	0	32842	32894	
858	0	32800	32810	
859	0	32792	32736	
860	0	32760	32749	
861	0	32794	32674	
862	0	32798	32702	
863	0	32848	32831	
864	0	32832	32812	
865	0	32860	32810	
866	0	32821	32729	
867	0	32788	32702	
868	0	32764	32746	
869	0	32836	32718	
870	0	32820	32772	
871	0	32848	32724	
872	0	32820	32654	
873	0	32764	32670	
874	0	32816	32871	
875	0	32832	32784	
876	0	32876	32814	
877	0	32814	32838	
878	0	32812	32824	
879	0	32760	32862	
880	0	32768	32775	
881	0	32796	32769	
882	0	32726	32750	
883	0	32778	32775	
884	0	32812	32794	
885	0	32760	32812	
886	0	32750	32822	
887	0	32808	32710	
888	0	32826	32712	
889	0	32812	32688	
890	0	32844	32804	
891	0	32784	32720	
892	0	32872	32692	
893	0	32852	32734	
894	0	32799	32764	
895	0	32852	32639	
896	0	32752	32788	
897	0	32804	32868	
898	0	32832	32864	
899	0	32800	32766	
900	0	32836	32740	
901	0	32832	32788	
902	0	32780	32828	
903	0	32808	32740	
904	0	32804	32715	
905	0	32776	32817	
906	0	32786	32823	
907	0	32794	32736	
908	0	32824	32790	
909	0	32808	32858	
910	0	32788	32770	
911	0	32836	32742	
912	0	32832	32751	
913	0	32764	32820	
914	0	32832	32810	
915	0	32872	32854	
916	0	32792	32858	
917	0	32876	32834	
918	0	32784	32756	
919	0	32828	32702	
920	0	32808	32858	
921	0	32784	32839	
922	0	32808	32815	
923	0	32852	32788	
924	0	32830	32708	
925	0	32836	32804	
926	0	32804	32828	
927	0	32778	32791	
928	0	32844	32750	
929	0	32800	32754	
930	0	32852	32698	
931	0	32800	32662	
932	0	32775	32740	
933	0	32814	32772	
934	0	32784	32874	
935	0	32848	32740	
936	0	32928	32943	
937	0	32884	32895	
938	0	32856	32892	
939	0	32860	32879	
940	0	32928	32830	
941	0	32814	32888	
942	0	32832	32846	
943	0	32776	32736	
944	0	32780	32616	
945	0	32648	32462	
946	0	32616	32428	
947	0	32676	32391	
948	0	32640	32404	
949	0	32616	32412	
950	0	32656	32468	
951	0	32728	32596	
952	0	32696	32682	
953	0	32834	32814	
954	0	32816	32750	
955	0	32806	32728	
956	0	32834	32823	
957	0	32874	32878	
958	0	32800	32926	
959	0	32766	32863	
960	0	32858	32902	
961	0	32909	32868	
962	0	32938	32836	
963	0	32896	32926	
964	0	32874	32869	
965	0	32853	32935	
966	0	32866	32942	
967	0	32800	32838	
968	0	32802	32943	
969	0	32884	32839	
970	0	32898	32785	
971	0	32848	32804	
972	0	32880	32820	
973	0	32888	32820	
974	0	32914	32840	
975	0	32842	32807	
976	0	32814	32775	
977	0	32782	32775	
978	0	32780	32670	
979	0	32768	32670	
980	0	32816	32654	
981	0	32800	32803	
982	0	32804	32724	
983	0	32770	32760	
984	0	32836	32798	
985	0	32762	32801	
986	0	32854	32762	
987	0	32798	32784	
988	0	32834	32766	
989	0	32780	32704	
990	0	32824	32742	
991	0	32800	32752	
992	0	32830	32679	
993	0	32756	32676	
994	0	32778	32666	
995	0	32772	32652	
996	0	32820	32698	
997	0	32800	32711	
998	0	32736	32713	
999	0	32792	32764	
1000	0	32836	32802	
1001	0	32860	32868	
1002	0	32788	32900	
1003	0	32788	32791	
1004	0	32804	32748	
1005	0	32778	32836	
1006	0	32844	32775	
1007	0	32900	32800	
1008	0	32884	32791	
1009	0	32822	32753	
1010	0	32868	32814	
1011	0	32832	32796	
1012	0	32806	32910	
1013	0	32856	32798	
1014	0	32802	32743	
1015	0	32773	32744	
1016	0	32762	32674	
1017	0	32798	32630	
1018	0	32816	32662	
1019	0	32788	32690	
1020	0	32792	32702	
1021	0	32772	32702	
1022	0	32820	32664	
1023	0	32860	32736	
1024	0	32844	32853	
1025	0	32804	32822	
1026	0	32808	32858	
1027	0	32784	32760	
1028	0	32784	32790	
1029	0	32864	32800	
1030	0	32796	32794	
1031	0	32832	32854	
1032	0	32824	32790	
1033	0	32808	32822	
1034	0	32832	32712	
1035	0	32837	32719	
1036	0	32821	32741	
1037	0	32746	32783	
1038	0	32801	32711	
1039	0	32782	32724	
1040	0	32836	32703	
1041	0	32816	32712	
1042	0	32764	32724	
1043	0	32814	32756	
1044	0	32840	32796	
1045	0	32784	32716	
1046	0	32830	32686	
1047	0	32828	32748	
1048	0	32834	32647	
1049	0	32800	32660	
1050	0	32848	32740	
1051	0	32920	32670	
1052	0	32792	32724	
1053	0	32860	32730	
1054	0	32848	32708	
1055	0	32786	32751	
1056	0	32828	32666	
1057	0	32740	32850	
1058	0	32800	32855	
1059	0	32774	32762	
1060	0	32808	32800	
1061	0	32770	32756	
1062	0	32804	32814	
1063	0	32844	32732	
1064	0	32798	32775	
1065	0	32886	32758	
1066	0	32796	32757	
1067	0	32792	32760	
1068	0	32772	32742	
1069	0	32778	32746	
1070	0	32800	32775	
1071	0	32844	32802	
1072	0	32781	32746	
1073	0	32794	32800	
1074	0	32810	32856	
1075	0	32816	32854	
1076	0	32780	32871	
1077	0	32790	32818	
1078	0	32876	32762	
1079	0	32808	32786	
1080	0	32788	32732	
1081	0	32786	32850	
1082	0	32878	32730	
1083	0	32860	32775	
1084	0	32836	32808	
1085	0	32772	32808	
1086	0	32832	32825	
1087	0	32852	32847	
1088	0	32832	32822	
1089	0	32846	32808	
1090	0	32908	32790	
1091	0	32760	32817	
1092	0	32800	32775	
1093	0	32792	32775	
1094	0	32820	32704	
1095	0	32808	32682	
1096	0	32812	32692	
1097	0	32760	32775	
1098	0	32804	32652	
1099	0	32808	32708	
1100	0	32798	32734	
1101	0	32830	32676	
1102	0	32846	32679	
1103	0	32836	32848	
1104	0	32839	32817	
1105	0	32790	32834	
1106	0	32820	32766	
1107	0	32788	32718	
1108	0	32824	32838	
1109	0	32828	32868	
1110	0	32856	32768	
1111	0	32810	32774	
1112	0	32848	32756	
1113	0	32834	32718	
1114	0	32808	32796	
1115	0	32858	32708	
1116	0	32814	32792	
1117	0	32856	32804	
1118	0	32772	32770	
1119	0	32760	32803	
1120	0	32846	32756	
1121	0	32808	32786	
1122	0	32799	32800	
1123	0	32772	32906	
1124	0	32802	32719	
1125	0	32810	32718	
1126	0	32828	32727	
1127	0	32820	32634	
1128	0	32806	32765	
1129	0	32808	32758	
1130	0	32872	32807	
1131	0	32800	32807	
1132	0	32728	32794	
1133	0	32812	32744	
1134	0	32760	32716	
1135	0	32770	32730	
1136	0	32816	32846	
1137	0	32752	32864	
1138	0	32874	32775	
1139	0	32830	32876	
1140	0	32834	32775	
1141	0	32872	32874	
1142	0	32824	32792	
1143	0	32820	32732	
1144	0	32840	32846	
1145	0	32812	32775	
1146	0	32761	32698	
1147	0	32816	32666	
1148	0	32760	32680	
1149	0	32834	32712	
1150	0	32810	32753	
1151	0	32772	32750	
1152	0	32874	32746	
1153	0	32752	32660	
1154	0	32792	32775	
1155	0	32792	32775	
1156	0	32720	32800	
1157	0	32860	32836	
1158	0	32802	32822	
1159	0	32788	32774	
1160	0	32836	32825	
1161	0	32796	32696	
1162	0	32834	32788	
1163	0	32806	32766	
1164	0	32752	32808	
1165	0	32772	32711	
1166	0	32860	32736	
1167	0	32790	32795	
1168	0	32820	32612	
1169	0	32780	32691	
1170	0	32838	32720	
1171	0	32831	32734	
1172	0	32788	32722	
1173	0	32776	32628	
1174	0	32860	32626	
1175	0	32756	32724	
1176	0	32840	32705	
1177	0	32810	32671	
1178	0	32812	32694	
1179	0	32788	32866	
1180	0	32784	32814	
1181	0	32792	32880	
1182	0	32848	32828	
1183	0	32820	32760	
1184	0	32874	32740	
1185	0	32828	32753	
1186	0	32842	32775	
1187	0	32788	32794	
1188	0	32828	32775	
1189	0	32808	32740	
1190	0	32802	32728	
1191	0	32786	32654	
1192	0	32792	32740	
1193	0	32794	32822	
1194	0	32826	32860	
1195	0	32834	32897	
1196	0	32826	32703	
1197	0	32758	32652	
1198	0	32852	32767	
1199	0	32784	32834	
1200	0	32800	32792	
1201	0	32804	32839	
1202	0	32832	32773	
1203	0	32804	32790	
1204	0	32770	32839	
1205	0	32838	32648	
1206	0	32884	32671	
1207	0	32884	32647	
1208	0	32840	32696	
1209	0	32808	32740	
1210	0	32804	32704	
1211	0	32804	32720	
1212	0	32834	32788	
1213	0	32832	32788	
1214	0	32802	32886	
1215	0	32810	32794	
1216	0	32824	32772	
1217	0	32786	32870	
1218	0	32784	32796	
1219	0	32780	32838	
1220	0	32788	32852	
1221	0	32854	32846	
1222	0	32814	32750	
1223	0	32804	32802	
1224	0	32824	32718	
1225	0	32832	32764	
1226	0	32870	32754	
1227	0	32816	32807	
1228	0	32802	32798	
1229	0	32784	32758	
1230	0	32816	32734	
1231	0	32828	32770	
1232	0	32776	32808	
1233	0	32814	32732	
1234	0	32842	32782	
1235	0	32856	32775	
1236	0	32768	32826	
1237	0	32748	32702	
1238	0	32760	32660	
1239	0	32770	32692	
1240	0	32796	32648	
1241	0	32800	32748	
1242	0	32824	32703	
1243	0	32800	32738	
1244	0	32801	32839	
1245	0	32820	32806	
1246	0	32796	32748	
1247	0	32868	32756	
1248	0	32864	32806	
1249	0	32812	32756	
1250	0	32776	32692	
1251	0	32862	32775	
1252	0	32846	32802	
1253	0	32840	32732	
1254	0	32838	32684	
1255	0	32804	32771	
1256	0	32850	32839	
1257	0	32872	32758	
1258	0	32822	32775	
1259	0	32824	32775	
1260	0	32768	32794	
1261	0	32768	32802	
1262	0	32786	32794	
1263	0	32884	32774	
1264	0	32818	32878	
1265	0	32844	32838	
1266	0	32844	32775	
1267	0	32804	32836	
1268	0	32820	32810	
1269	0	32788	32847	
1270	0	32772	32788	
1271	0	32832	32766	
1272	0	32824	32831	
1273	0	32820	32828	
1274	0	32876	32739	
1275	0	32778	32854	
1276	0	32874	32804	
1277	0	32780	32820	
1278	0	32772	32760	
1279	0	32848	32784	
1280	0	32849	32738	
1281	0	32796	32807	
1282	0	32796	32774	
1283	0	32800	32775	
1284	0	32822	32774	
1285	0	32784	32708	
1286	0	32816	32711	
1287	0	32834	32775	
1288	0	32800	32772	
1289	0	32818	32788	
1290	0	32788	32791	
1291	0	32768	32748	
1292	0	32802	32743	
1293	0	32824	32792	
1294	0	32814	32775	
1295	0	32860	32784	
1296	0	32854	32688	
1297	0	32812	32764	
1298	0	32904	32822	
1299	0	32866	32750	
1300	0	32772	32775	
1301	0	32800	32752	
1302	0	32840	32794	
1303	0	32796	32756	
1304	0	32744	32714	
1305	0	32796	32799	
1306	0	32734	32774	
1307	0	32812	32762	
1308	0	32872	32728	
1309	0	32824	32790	
1310	0	32864	32775	
1311	0	32810	32820	
1312	0	32788	32830	
1313	0	32812	32716	
1314	0	32792	32679	
1315	0	32832	32762	
1316	0	32808	32704	
1317	0	32752	32639	
1318	0	32856	32647	
1319	0	32816	32648	
1320	0	32836	32823	
1321	0	32820	32726	
1322	0	32808	32748	
1323	0	32836	32820	
1324	0	32788	32734	
1325	0	32816	32756	
1326	0	32792	32743	
1327	0	32820	32775	
1328	0	32714	32775	
1329	0	32820	32791	
1330	0	32802	32764	
1331	0	32808	32767	
1332	0	32802	32790	
1333	0	32858	32726	
1334	0	32824	32775	
1335	0	32748	32834	
1336	0	32864	32814	
1337	0	32808	32839	
1338	0	32800	32719	
1339	0	32828	32696	
1340	0	32844	32743	
1341	0	32782	32711	
1342	0	32732	32696	
1343	0	32828	32700	
1344	0	32788	32772	
1345	0	32792	32708	
1346	0	32828	32788	
1347	0	32808	32700	
1348	0	32810	32796	
1349	0	32820	32864	
1350	0	32804	32864	
1351	0	32812	32889	
1352	0	32838	32774	
1353	0	32840	32897	
1354	0	32792	32775	
1355	0	32784	32764	
1356	0	32786	32775	
1357	0	32800	32768	
1358	0	32720	32848	
1359	0	32854	32844	
1360	0	32880	32751	
1361	0	32862	32802	
1362	0	32794	32828	
1363	0	32802	32844	
1364	0	32784	32825	
1365	0	32834	32775	
1366	0	32728	32806	
1367	0	32792	32774	
1368	0	32800	32673	
1369	0	32852	32682	
1370	0	32804	32647	
1371	0	32808	32784	
1372	0	32806	32788	
1373	0	32838	32762	
1374	0	32828	32727	
1375	0	32828	32841	
1376	0	32836	32828	
1377	0	32844	32702	
1378	0	32834	32724	
1379	0	32816	32772	
1380	0	32844	32838	
1381	0	32828	32832	
1382	0	32818	32784	
1383	0	32854	32775	
1384	0	32874	32769	
1385	0	32860	32694	
1386	0	32854	32678	
1387	0	32772	32670	
1388	0	32772	32720	
1389	0	32848	32641	
1390	0	32810	32716	
1391	0	32794	32652	
1392	0	32800	32730	
1393	0	32804	32696	
1394	0	32844	32726	
1395	0	32832	32828	
1396	0	32868	32692	
1397	0	32796	32775	
1398	0	32800	32775	
1399	0	32820	32799	
1400	0	32736	32842	
1401	0	32788	32834	
1402	0	32788	32762	
1403	0	32770	32849	
1404	0	32892	32783	
1405	0	32812	32852	
1406	0	32780	32846	
1407	0	32809	32670	
1408	0	32848	32844	
1409	0	32796	32754	
1410	0	32820	32680	
1411	0	32812	32670	
1412	0	32824	32698	
1413	0	32848	32738	
1414	0	32844	32700	
1415	0	32802	32808	
1416	0	32812	32816	
1417	0	32812	32790	
1418	0	32820	32764	
1419	0	32768	32788	
1420	0	32848	32788	
1421	0	32784	32942	
1422	0	32809	32806	
1423	0	32800	32714	
1424	0	32866	32798	
1425	0	32826	32724	
1426	0	32814	32725	
1427	0	32792	32750	
1428	0	32805	32798	
1429	0	32756	32775	
1430	0	32782	32798	
1431	0	32856	32760	
1432	0	32764	32647	
1433	0	32820	32772	
1434	0	32758	32700	
1435	0	32904	32719	
1436	0	32888	32802	
1437	0	32842	32775	
1438	0	32832	32832	
1439	0	32852	32706	
1440	0	32816	32830	
1441	0	32816	32812	
1442	0	32780	32814	
1443	0	32844	32760	
1444	0	32825	32802	
1445	0	32816	32808	
1446	0	32834	32798	
1447	0	32820	32820	
1448	0	32795	32815	
1449	0	32804	32898	
1450	0	32744	32726	
1451	0	32798	32816	
1452	0	32828	32806	
1453	0	32848	32775	
1454	0	32834	32710	
1455	0	32852	32745	
1456	0	32824	32690	
1457	0	32784	32860	
1458	0	32840	32775	
1459	0	32848	32775	
1460	0	32816	32772	
1461	0	32836	32849	
1462	0	32816	32720	
1463	0	32828	32872	
1464	0	32724	32662	
1465	0	32804	32812	
1466	0	32814	32708	
1467	0	32744	32682	
1468	0	32788	32682	
1469	0	32844	32734	
1470	0	32808	32775	
1471	0	32770	32858	
1472	0	32792	32743	
1473	0	32826	32768	
1474	0	32876	32636	
1475	0	32820	32718	
1476	0	32756	32695	
1477	0	32738	32790	
1478	0	32880	32700	
1479	0	32844	32734	
1480	0	32892	32756	
1481	0	32810	32824	
1482	0	32804	32775	
1483	0	32868	32892	
1484	0	32788	32823	
1485	0	32792	32844	
1486	0	32832	32834	
1487	0	32898	32832	
1488	0	32830	32772	
1489	0	32784	32722	
1490	0	32880	32820	
1491	0	32848	32800	
1492	0	32744	32624	
1493	0	32804	32761	
1494	0	32836	32775	
1495	0	32780	32704	
1496	0	32792	32724	
1497	0	32792	32724	
1498	0	32782	32672	
1499	0	32814	32800	
1500	0	32776	32734	
1501	0	32826	32788	
1502	0	32812	32775	
1503	0	32832	32863	
1504	0	32818	32836	
1505	0	32792	32743	
1506	0	32712	32746	
1507	0	32796	32775	
1508	0	32820	32724	
1509	0	32718	32815	
1510	0	32760	32703	
1511	0	32816	32722	
1512	0	32794	32888	
1513	0	32776	32686	
1514	0	32852	32816	
1515	0	32868	32790	
1516	0	32832	32847	
1517	0	32864	32738	
1518	0	32726	32743	
1519	0	32782	32739	
1520	0	32788	32788	
1521	0	32844	32748	
1522	0	32858	32798	
1523	0	32844	32676	
1524	0	32776	32752	
1525	0	32736	32830	
1526	0	32740	32679	
1527	0	32788	32760	
1528	0	32856	32689	
1529	0	32788	32807	
1530	0	32856	32816	
1531	0	32792	32686	
1532	0	32808	32748	
1533	0	32868	32742	
1534	0	32764	32738	
1535	0	32808	32700	
1536	0	32806	32820	
1537	0	32768	32714	
1538	0	32792	32760	
1539	0	32820	32726	
1540	0	32864	32796	
1541	0	32802	32711	
1542	0	32768	32806	
1543	0	32764	32632	
1544	0	32774	32820	
1545	0	32876	32848	
1546	0	32904	32743	
1547	0	32752	32710	
1548	0	32876	32746	
1549	0	32822	32756	
1550	0	32796	32690	
1551	0	32808	32710	
1552	0	32816	32744	
1553	0	32828	32771	
1554	0	32824	32728	
1555	0	32752	32740	
1556	0	32802	32727	
1557	0	32816	32758	
1558	0	32802	32760	
1559	0	32776	32814	
1560	0	32888	32762	
1561	0	32762	32748	
1562	0	32800	32686	
1563	0	32744	32758	
1564	0	32786	32676	
1565	0	32860	32798	
1566	0	32776	32719	
1567	0	32800	32796	
1568	0	32788	32697	
1569	0	32778	32736	
1570	0	32796	32732	
1571	0	32824	32775	
1572	0	32808	32740	
1573	0	32788	32714	
1574	0	32796	32758	
1575	0	32784	32756	
1576	0	32822	32784	
1577	0	32812	32700	
1578	0	32788	32769	
1579	0	32788	32775	
1580	0	32884	32720	
1581	0	32868	32754	
1582	0	32828	32684	
1583	0	32820	32680	
1584	0	32814	32684	
1585	0	32798	32687	
1586	0	32824	32743	
1587	0	32864	32772	
1588	0	32740	32844	
1589	0	32824	32754	
1590	0	32808	32816	
1591	0	32840	32730	
1592	0	32742	32812	
1593	0	32824	32823	
1594	0	32866	32700	
1595	0	32864	32740	
1596	0	32832	32812	
1597	0	32846	32868	
1598	0	32804	32832	
1599	0	32916	32799	
1600	0	32804	32746	
1601	0	32800	32724	
1602	0	32864	32692	
1603	0	32782	32824	
1604	0	32796	32836	
1605	0	32718	32719	
1606	0	32862	32748	
1607	0	32833	32848	
1608	0	32816	32808	
1609	0	32824	32756	
1610	0	32782	32768	
1611	0	32804	32817	
1612	0	32908	32726	
1613	0	32880	32775	
1614	0	32872	32810	
1615	0	32852	32950	
1616	0	32876	32902	
1617	0	32856	32914	
1618	0	32964	32910	
1619	0	32887	32846	
1620	0	32780	32804	
1621	0	32780	32816	
1622	0	32772	32716	
1623	0	32640	32606	
1624	0	32596	32436	
1625	0	32700	32476	
1626	0	32688	32570	
1627	0	32658	32532	
1628	0	32568	32430	
1629	0	32564	32487	
1630	0	32654	32519	
1631	0	32756	32674	
1632	0	32768	32732	
1633	0	32800	32799	
1634	0	32798	32820	
1635	0	32800	32904	
1636	0	32830	32926	
1637	0	32842	32767	
1638	0	32808	32804	
1639	0	32896	32823	
1640	0	32884	32903	
1641	0	32948	32836	
1642	0	32888	32990	
1643	0	32852	32964	
1644	0	32848	32895	
1645	0	32876	32854	
1646	0	32836	32935	
1647	0	32856	32866	
1648	0	32860	32804	
1649	0	32844	32714	
1650	0	32868	32814	
1651	0	32880	32658	
1652	0	32808	32824	
1653	0	32916	32870	
1654	0	32860	32774	
1655	0	32780	32838	
1656	0	32793	32856	
1657	0	32828	32796	
1658	0	32856	32775	
1659	0	32824	32784	
1660	0	32746	32688	
1661	0	32772	32606	
1662	0	32800	32742	
1663	0	32760	32672	
1664	0	32776	32816	
1665	0	32780	32718	
1666	0	32830	32775	
1667	0	32832	32822	
1668	0	32828	32806	
1669	0	32736	32738	
1670	0	32794	32814	
1671	0	32828	32830	
1672	0	32820	32734	
1673	0	32860	32686	
1674	0	32840	32636	
1675	0	32820	32694	
1676	0	32836	32702	
1677	0	32880	32726	
1678	0	32766	32774	
1679	0	32788	32876	
1680	0	32836	32887	
1681	0	32825	32775	
1682	0	32788	32768	
1683	0	32768	32736	
1684	0	32808	32756	
1685	0	32808	32714	
1686	0	32804	32775	
1687	0	32756	32801	
1688	0	32784	32647	
1689	0	32816	32673	
1690	0	32802	32748	
1691	0	32846	32727	
1692	0	32806	32820	
1693	0	32856	32852	
1694	0	32796	32814	
1695	0	32768	32758	
1696	0	32800	32834	
1697	0	32836	32819	
1698	0	32780	32758	
1699	0	32860	32722	
1700	0	32844	32730	
1701	0	32734	32662	
1702	0	32816	32720	
1703	0	32804	32772	
1704	0	32788	32704	
1705	0	32822	32868	
1706	0	32798	32826	
1707	0	32824	32764	
1708	0	32832	32763	
1709	0	32772	32772	
1710	0	32816	32710	
1711	0	32822	32696	
1712	0	32808	32775	
1713	0	32822	32759	
1714	0	32814	32804	
1715	0	32786	32768	
1716	0	32806	32688	
1717	0	32776	32775	
1718	0	32774	32730	
1719	0	32772	32767	
1720	0	32800	32815	
1721	0	32764	32800	
1722	0	32828	32830	
1723	0	32828	32760	
1724	0	32754	32732	
1725	0	32828	32680	
1726	0	32736	32737	
1727	0	32884	32774	
1728	0	32856	32808	
1729	0	32812	32840	
1730	0	32856	32680	
1731	0	32780	32851	
1732	0	32922	32748	
1733	0	32776	32796	
1734	0	32792	32850	
1735	0	32872	32722	
1736	0	32786	32734	
1737	0	32808	32756	
1738	0	32856	32822	
1739	0	32816	32814	
1740	0	32736	32712	
1741	0	32816	32750	
1742	0	32848	32844	
1743	0	32764	32854	
1744	0	32818	32742	
1745	0	32816	32754	
1746	0	32852	32794	
1747	0	32800	32820	
1748	0	32816	32798	
1749	0	32788	32797	
1750	0	32800	32723	
1751	0	32792	32774	
1752	0	32792	32676	
1753	0	32824	32728	
1754	0	32852	32662	
1755	0	32784	32838	
1756	0	32798	32758	
1757	0	32768	32844	
1758	0	32828	32816	
1759	0	32840	32794	
1760	0	32872	32788	
1761	0	32844	32820	
1762	0	32844	32871	
1763	0	32792	32860	
1764	0	32768	32756	
1765	0	32788	32760	
1766	0	32776	32872	
1767	0	32796	32846	
1768	0	32868	32775	
1769	0	32816	32694	
1770	0	32852	32718	
1771	0	32804	32642	
1772	0	32812	32732	
1773	0	32812	32728	
1774	0	32828	32770	
1775	0	32820	32782	
1776	0	32788	32816	
1777	0	32726	32775	
1778	0	32852	32822	
1779	0	32792	32847	
1780	0	32834	32738	
1781	0	32824	32790	
1782	0	32748	32775	
1783	0	32824	32775	
1784	0	32832	32775	
1785	0	32804	32666	
1786	0	32792	32759	
1787	0	32748	32692	
1788	0	32856	32811	
1789	0	32864	32746	
1790	0	32810	32822	
1791	0	32810	32708	
1792	0	32820	32720	
1793	0	32808	32770	
1794	0	32806	32800	
1795	0	32780	32672	
1796	0	32800	32806	
1797	0	32820	32727	
1798	0	32774	32788	
1799	0	32774	32692	
1800	0	32812	32754	
1801	0	32848	32734	
1802	0	32844	32742	
1803	0	32820	32728	
1804	0	32828	32770	
1805	0	32820	32750	
1806	0	32780	32775	
1807	0	32800	32708	
1808	0	32808	32724	
1809	0	32836	32750	
1810	0	32844	32856	
1811	0	32860	32774	
1812	0	32848	32812	
1813	0	32780	32838	
1814	0	32748	32722	
1815	0	32808	32775	
1816	0	32800	32775	
1817	0	32810	32820	
1818	0	32832	32726	
1819	0	32792	32754	
1820	0	32816	32812	
1821	0	32760	32816	
1822	0	32814	32710	
1823	0	32812	32814	
1824	0	32840	32679	
1825	0	32846	32767	
1826	0	32754	32692	
1827	0	32804	32800	
1828	0	32820	32632	
1829	0	32776	32748	
1830	0	32822	32730	
1831	0	32804	32862	
1832	0	32788	32728	
1833	0	32800	32775	
1834	0	32846	32890	
1835	0	32792	32770	
1836	0	32768	32818	
1837	0	32808	32822	
1838	0	32820	32760	
1839	0	32876	32768	
1840	0	32788	32690	
1841	0	32788	32782	
1842	0	32868	32724	
1843	0	32846	32862	
1844	0	32856	32853	
1845	0	32764	32808	
1846	0	32806	32768	
1847	0	32788	32804	
1848	0	32808	32775	
1849	0	32780	32820	
1850	0	32816	32768	
1851	0	32764	32791	
1852	0	32816	32841	
1853	0	32780	32880	
1854	0	32820	32736	
1855	0	32820	32758	
1856	0	32772	32680	
1857	0	32776	32774	
1858	0	32828	32729	
1859	0	32868	32772	
1860	0	32806	32738	
1861	0	32812	32850	
1862	0	32820	32775	
1863	0	32828	32854	
1864	0	32903	32818	
1865	0	32816	32770	
1866	0	32852	32852	
1867	0	32840	32692	
1868	0	32796	32767	
1869	0	32804	32768	
1870	0	32822	32784	
1871	0	32836	32810	
1872	0	32816	32856	
1873	0	32826	32824	
1874	0	32880	32882	
1875	0	32836	32796	
1876	0	32730	32742	
1877	0	32794	32820	
1878	0	32768	32762	
1879	0	32768	32764	
1880	0	32784	32848	
1881	0	32778	32746	
1882	0	32854	32759	
1883	0	32886	32567	
1884	0	32856	32756	
1885	0	32829	32772	
1886	0	32780	32836	
1887	0	32778	32793	
1888	0	32818	32830	
1889	0	32832	32835	
1890	0	32816	32820	
1891	0	32812	32817	
1892	0	32768	32694	
1893	0	32796	32798	
1894	0	32817	32775	
1895	0	32794	32754	
1896	0	32828	32710	
1897	0	32864	32775	
1898	0	32764	32683	
1899	0	32762	32735	
1900	0	32848	32817	
1901	0	32796	32796	
1902	0	32790	32712	
1903	0	32824	32743	
1904	0	32808	32715	
1905	0	32850	32764	
1906	0	32812	32816	
1907	0	32806	32860	
1908	0	32776	32836	
1909	0	32884	32725	
1910	0	32840	32888	
1911	0	32840	32708	
1912	0	32836	32854	
1913	0	32834	32775	
1914	0	32856	32652	
1915	0	32818	32742	
1916	0	32740	32696	
1917	0	32768	32774	
1918	0	32820	32868	
1919	0	32838	32788	
1920	0	32768	32820	
1921	0	32818	32800	
1922	0	32820	32775	
1923	0	32846	32824	
1924	0	32760	32728	
1925	0	32876	32839	
1926	0	32834	32748	
1927	0	32800	32870	
1928	0	32782	32775	
1929	0	32774	32808	
1930	0	32792	32850	
1931	0	32768	32732	
1932	0	32804	32750	
1933	0	32852	32753	
1934	0	32844	32758	
1935	0	32770	32792	
1936	0	32740	32695	
1937	0	32840	32775	
1938	0	32832	32706	
1939	0	32826	32746	
1940	0	32834	32743	
1941	0	32740	32795	
1942	0	32858	32838	
1943	0	32830	32846	
1944	0	32832	32775	
1945	0	32814	32828	
1946	0	32832	32752	
1947	0	32769	32828	
1948	0	32838	32802	
1949	0	32852	32758	
1950	0	32812	32800	
1951	0	32876	32775	
1952	0	32840	32766	
1953	0	32822	32748	
1954	0	32768	32676	
1955	0	32810	32887	
1956	0	32764	32786	
1957	0	32808	32852	
1958	0	32796	32832	
1959	0	32744	32682	
1960	0	32776	32656	
1961	0	32856	32704	
1962	0	32856	32668	
1963	0	32792	32756	
1964	0	32824	32902	
1965	0	32766	32839	
1966	0	32828	32730	
1967	0	32828	32766	
1968	0	32862	32772	
1969	0	32904	32798	
1970	0	32808	32802	
1971	0	32806	32788	
1972	0	32842	32734	
1973	0	32832	32706	
1974	0	32924	32732	
1975	0	32808	32706	
1976	0	32788	32812	
1977	0	32774	32796	
1978	0	32800	32766	
1979	0	32796	32894	
1980	0	32834	32884	
1981	0	32812	32748	
1982	0	32852	32740	
1983	0	32820	32758	
1984	0	32802	32874	
1985	0	32786	32775	
1986	0	32798	32798	
1987	0	32820	32828	
1988	0	32804	32820	
1989	0	32744	32836	
1990	0	32774	32839	
1991	0	32796	32794	
1992	0	32794	32652	
1993	0	32772	32698	
1994	0	32790	32658	
1995	0	32812	32694	
1996	0	32836	32761	
1997	0	32836	32800	
1998	0	32820	32847	
1999	0	32784	32790	
2000	0	32756	32836	
2001	0	32860	32828	
2002	0	32866	32802	
2003	0	32816	32820	
2004	0	32818	32744	
2005	0	32841	32718	
2006	0	32840	32756	
2007	0	32764	32795	
2008	0	32806	32687	
2009	0	32774	32819	
2010	0	32764	32718	
2011	0	32848	32677	
2012	0	32844	32818	
2013	0	32860	32838	
2014	0	32740	32756	
2015	0	32820	32752	
2016	0	32832	32748	
2017	0	32760	32852	
2018	0	32844	32836	
2019	0	32816	32852	
2020	0	32862	32788	
2021	0	32874	32728	
2022	0	32846	32800	
2023	0	32784	32793	
2024	0	32776	32708	
2025	0	32828	32664	
2026	0	32774	32744	
2027	0	32712	32756	
2028	0	32804	32674	
2029	0	32808	32711	
2030	0	32790	32878	
2031	0	32798	32831	
2032	0	32812	32775	
2033	0	32802	32806	
2034	0	32856	32775	
2035	0	32776	32836	
2036	0	32812	32774	
2037	0	32766	32818	
2038	0	32836	32759	
2039	0	32836	32774	
2040	0	32868	32762	
2041	0	32804	32732	
2042	0	32745	32775	
2043	0	32860	32674	
2044	0	32768	32740	
2045	0	32810	32748	
2046	0	32820	32818	
2047	0	32876	32818	
2048	0	32808	32742	
2049	0	32772	32775	
2050	0	32794	32798	
2051	0	32862	32872	
2052	0	32768	32806	
2053	0	32812	32856	
2054	0	32832	32740	
2055	0	32834	32775	
2056	0	32836	32732	
2057	0	32868	32718	
2058	0	32778	32764	
2059	0	32868	32844	
2060	0	32856	32864	
2061	0	32814	32781	
2062	0	32832	32847	
2063	0	32768	32868	
2064	0	32816	32743	
2065	0	32876	32666	
2066	0	32842	32708	
2067	0	32764	32644	
2068	0	32772	32762	
2069	0	32836	32868	
2070	0	32800	32764	
2071	0	32742	32834	
2072	0	32780	32870	
2073	0	32782	32742	
2074	0	32772	32775	
2075	0	32868	32764	
2076	0	32771	32796	
2077	0	32822	32826	
2078	0	32842	32742	
2079	0	32784	32812	
2080	0	32764	32800	
2081	0	32792	32767	
2082	0	32800	32807	
2083	0	32776	32770	
2084	0	32852	32712	
2085	0	32802	32700	
2086	0	32804	32744	
2087	0	32812	32760	
2088	0	32808	32800	
2089	0	32862	32764	
2090	0	32844	32758	
2091	0	32828	32760	
2092	0	32752	32816	
2093	0	32762	32775	
2094	0	32848	32774	
2095	0	32852	32775	
2096	0	32798	32672	
2097	0	32780	32646	
2098	0	32810	32678	
2099	0	32798	32690	
2100	0	32784	32608	
2101	0	32854	32764	
2102	0	32816	32750	
2103	0	32788	32728	
2104	0	32775	32652	
2105	0	32828	32881	
2106	0	32802	32872	
2107	0	32856	32903	
2108	0	32800	32775	
2109	0	32796	32764	
2110	0	32836	32802	
2111	0	32854	32798	
2112	0	32792	32743	
2113	0	32826	32750	
2114	0	32862	32702	
2115	0	32830	32706	
2116	0	32824	32743	
2117	0	32848	32735	
2118	0	32798	32708	
2119	0	32810	32838	
2120	0	32780	32866	
2121	0	32826	32792	
2122	0	32814	32774	
2123	0	32816	32743	
2124	0	32825	32692	
2125	0	32772	32775	
2126	0	32782	32775	
2127	0	32832	32742	
2128	0	32788	32798	
2129	0	32784	32820	
2130	0	32782	32764	
2131	0	32812	32660	
2132	0	32772	32762	
2133	0	32820	32756	
2134	0	32816	32848	
2135	0	32830	32797	
2136	0	32832	32790	
2137	0	32764	32814	
2138	0	32774	32692	
2139	0	32800	32874	
2140	0	32832	32716	
2141	0	32800	32774	
2142	0	32804	32660	
2143	0	32816	32764	
2144	0	32796	32775	
2145	0	32796	32744	
2146	0	32814	32682	
2147	0	32820	32734	
2148	0	32840	32724	
2149	0	32800	32775	
2150	0	32822	32668	
2151	0	32776	32804	
2152	0	32784	32730	
2153	0	32808	32796	
2154	0	32802	32732	
2155	0	32842	32800	
2156	0	32794	32828	
2157	0	32788	32656	
2158	0	32878	32734	
2159	0	32860	32724	
2160	0	32804	32774	
2161	0	32852	32712	
2162	0	32764	32839	
2163	0	32868	32842	
2164	0	32812	32741	
2165	0	32808	32858	
2166	0	32892	32766	
2167	0	32776	32846	
2168	0	32812	32728	
2169	0	32816	32888	
2170	0	32832	32750	
2171	0	32794	32794	
2172	0	32808	32670	
2173	0	32776	32762	
2174	0	32740	32716	
2175	0	32774	32762	
2176	0	32812	32726	
2177	0	32775	32772	
2178	0	32792	32634	
2179	0	32808	32703	
2180	0	32805	32794	
2181	0	32816	32847	
2182	0	32816	32818	
2183	0	32844	32784	
2184	0	32792	32817	
2185	0	32804	32862	
2186	0	32782	32812	
2187	0	32814	32714	
2188	0	32844	32770	
2189	0	32806	32679	
2190	0	32852	32758	
2191	0	32776	32724	
2192	0	32818	32746	
2193	0	32856	32748	
2194	0	32818	32795	
2195	0	32778	32698	
2196	0	32816	32742	
2197	0	32852	32724	
2198	0	32822	32743	
2199	0	32888	32830	
2200	0	32826	32804	
2201	0	32784	32764	
2202	0	32784	32868	
2203	0	32834	32764	
2204	0	32798	32794	
2205	0	32744	32756	
2206	0	32812	32759	
2207	0	32818	32704	
2208	0	32788	32732	
2209	0	32844	32742	
2210	0	32864	32646	
2211	0	32876	32660	
2212	0	32804	32644	
2213	0	32814	32720	
2214	0	32788	32831	
2215	0	32816	32825	
2216	0	32740	32798	
2217	0	32802	32814	
2218	0	32844	32832	
2219	0	32808	32775	
2220	0	32824	32801	
2221	0	32802	32858	
2222	0	32752	32754	
2223	0	32848	32822	
2224	0	32776	32678	
2225	0	32746	32704	
2226	0	32784	32736	
2227	0	32790	32738	
2228	0	32856	32839	
2229	0	32828	32807	
2230	0	32834	32835	
2231	0	32866	32775	
2232	0	32768	32764	
2233	0	32794	32760	
2234	0	32786	32638	
2235	0	32822	32614	
2236	0	32764	32687	
2237	0	32758	32695	
2238	0	32806	32716	
2239	0	32740	32879	
2240	0	32772	32804	
2241	0	32792	32775	
2242	0	32836	32754	
2243	0	32832	32830	
2244	0	32768	32766	
2245	0	32848	32720	
2246	0	32840	32763	
2247	0	32788	32826	
2248	0	32800	32808	
2249	0	32864	32790	
2250	0	32820	32754	
2251	0	32792	32699	
2252	0	32830	32775	
2253	0	32812	32708	
2254	0	32832	32664	
2255	0	32804	32884	
2256	0	32768	32816	
2257	0	32822	32724	
2258	0	32786	32754	
2259	0	32810	32801	
2260	0	32810	32806	
2261	0	32740	32724	
2262	0	32874	32730	
2263	0	32830	32639	
2264	0	32784	32676	
2265	0	32800	32724	
2266	0	32836	32856	
2267	0	32828	32866	
2268	0	32836	32708	
2269	0	32868	32834	
2270	0	32856	32806	
2271	0	32769	32756	
2272	0	32788	32734	
2273	0	32824	32733	
2274	0	32816	32708	
2275	0	32810	32746	
2276	0	32820	32722	
2277	0	32896	32774	
2278	0	32902	32830	
2279	0	32776	32854	
2280	0	32848	32775	
2281	0	32792	32858	
2282	0	32800	32798	
2283	0	32842	32766	
2284	0	32788	32822	
2285	0	32792	32888	
2286	0	32844	32806	
2287	0	32844	32718	
2288	0	32834	32714	
2289	0	32926	32938	
2290	0	32936	32974	
2291	0	32872	32942	
2292	0	32812	32839	
2293	0	32876	32830	
2294	0	32840	32818	
2295	0	32826	32769	
2296	0	32734	32756	
2297	0	32720	32718	
2298	0	32672	32470	
2299	0	32644	32420	
2300	0	32620	32503	
2301	0	32604	32500	
2302	0	32620	32421	
2303	0	32646	32391	
2304	0	32612	32582	
2305	0	32702	32746	
2306	0	32730	32814	
2307	0	32804	32874	
2308	0	32874	32914	
2309	0	32788	32860	
2310	0	32964	32866	
2311	0	32878	32852	
2312	0	32862	32772	
2313	0	32838	32807	
2314	0	32852	32823	
2315	0	32942	32849	
2316	0	32836	32936	
2317	0	32870	32986	
2318	0	32892	32893	
2319	0	32872	32890	
2320	0	32908	32888	
2321	0	32848	32866	
2322	0	32870	32820	
2323	0	32860	32758	
2324	0	32872	32846	
2325	0	32844	32838	
2326	0	32844	32884	
2327	0	32838	32839	
2328	0	32846	32804	
2329	0	32868	32696	
2330	0	32764	32807	
2331	0	32788	32658	
2332	0	32836	32774	
2333	0	32740	32772	
2334	0	32792	32748	
2335	0	32784	32788	
2336	0	32756	32758	
2337	0	32754	32818	
2338	0	32734	32700	
2339	0	32808	32647	
2340	0	32844	32764	
2341	0	32836	32758	
2342	0	32812	32682	
2343	0	32788	32736	
2344	0	32780	32796	
2345	0	32794	32734	
2346	0	32824	32727	
2347	0	32856	32679	
2348	0	32724	32764	
2349	0	32732	32775	
2350	0	32844	32868	
2351	0	32812	32804	
2352	0	32802	32807	
2353	0	32778	32736	
2354	0	32784	32838	
2355	0	32780	32791	
2356	0	32794	32810	
2357	0	32832	32764	
2358	0	32860	32792	
2359	0	32826	32708	
2360	0	32848	32728	
2361	0	32812	32646	
2362	0	32824	32832	
2363	0	32792	32796	
2364	0	32820	32775	
2365	0	32804	32826	
2366	0	32786	32822	
2367	0	32856	32748	
2368	0	32856	32736	
2369	0	32900	32750	
2370	0	32828	32742	
2371	0	32788	32647	
2372	0	32824	32756	
2373	0	32788	32743	
2374	0	32820	32836	
2375	0	32784	32810	
2376	0	32732	32808	
2377	0	32716	32808	
2378	0	32784	32808	
2379	0	32732	32808	
2380	0	32744	32668	
2381	0	32798	32698	
2382	0	32834	32671	
2383	0	32860	32742	
2384	0	32824	32738	
2385	0	32820	32727	
2386	0	32758	32820	
2387	0	32850	32870	
2388	0	32764	32840	
2389	0	32812	32790	
2390	0	32844	32768	
2391	0	32840	32860	
2392	0	32858	32868	
2393	0	32856	32770	
2394	0	32888	32820	
2395	0	32920	32802	
2396	0	32890	32901	
2397	0	32924	32742	
2398	0	32872	32784	
2399	0	32902	32720	
2400	0	32846	32656	
2401	0	32830	32708	
2402	0	32778	32684	
2403	0	32821	32732	
2404	0	32762	32732	
2405	0	32776	32866	
2406	0	32706	32856	
2407	0	32796	32848	
2408	0	32744	32800	
2409	0	32757	32774	
2410	0	32804	32894	
2411	0	32884	32811	
2412	0	32832	32824	
2413	0	32804	32710	
2414	0	32818	32700	
2415	0	32836	32700	
2416	0	32874	32727	
2417	0	32848	32850	
2418	0	32860	32824	
2419	0	32890	32788	
2420	0	32860	32764	
2421	0	32836	32794	
2422	0	32778	32742	
2423	0	32784	32775	
2424	0	32728	32712	
2425	0	32840	32704	
2426	0	32828	32692	
2427	0	32820	32780	
2428	0	32778	32836	
2429	0	32816	32924	
2430	0	32768	32644	
2431	0	32812	32798	
2432	0	32768	32798	
2433	0	32748	32824	
2434	0	32768	32790	
2435	0	32802	32725	
2436	0	32767	32740	
2437	0	32838	32726	
2438	0	32864	32846	
2439	0	32836	32824	
2440	0	32792	32705	
2441	0	32752	32754	
2442	0	32856	32742	
2443	0	32836	32735	
2444	0	32858	32756	
2445	0	32854	32788	
2446	0	32812	32712	
2447	0	32810	32652	
2448	0	32856	32676	
2449	0	32834	32708	
2450	0	32764	32767	
2451	0	32812	32746	
2452	0	32848	32810	
2453	0	32834	32834	
2454	0	32824	32792	
2455	0	32744	32818	
2456	0	32784	32808	
2457	0	32884	32820	
2458	0	32778	32822	
2459	0	32808	32868	
2460	0	32830	32825	
2461	0	32840	32758	
2462	0	32732	32770	
2463	0	32720	32734	
2464	0	32788	32668	
2465	0	32708	32708	
2466	0	32866	32828	
2467	0	32852	32698	
2468	0	32880	32800	
2469	0	32876	32784	
2470	0	32824	32775	
2471	0	32836	32775	
2472	0	32894	32846	
2473	0	32836	32810	
2474	0	32824	32804	
2475	0	32825	32792	
2476	0	32842	32842	
2477	0	32824	32756	
2478	0	32820	32802	
2479	0	32816	32775	
2480	0	32792	32788	
2481	0	32710	32751	
2482	0	32758	32726	
2483	0	32756	32716	
2484	0	32853	32740	
2485	0	32894	32720	
2486	0	32794	32774	
2487	0	32858	32726	
2488	0	32908	32711	
2489	0	32874	32692	
2490	0	32814	32839	
2491	0	32860	32799	
2492	0	32802	32854	
2493	0	32800	32817	
2494	0	32820	32788	
2495	0	32812	32842	
2496	0	32768	32804	
2497	0	32792	32630	
2498	0	32752	32770	
2499	0	32772	32711	
2500	0	32712	32792	
2501	0	32750	32714	
2502	0	32878	32716	
2503	0	32938	32763	
2504	0	32894	32712	
2505	0	32866	32728	
2506	0	32884	32647	
2507	0	32730	32670	
2508	0	32768	32756	
2509	0	32688	32775	
2510	0	32732	32734	
2511	0	32750	32763	
2512	0	32836	32798	
2513	0	32796	32839	
2514	0	32844	32795	
2515	0	32808	32720	
2516	0	32812	32705	
2517	0	32836	32814	
2518	0	32840	32871	
2519	0	32808	32799	
2520	0	32808	32850	
2521	0	32892	32849	
2522	0	32768	32718	
2523	0	32752	32742	
2524	0	32868	32918	
2525	0	32858	32708	
2526	0	32932	32674	
2527	0	32794	32700	
2528	0	32738	32622	
2529	0	32742	32709	
2530	0	32707	32806	
2531	0	32690	32590	
2532	0	32804	32720	
2533	0	32852	32880	
2534	0	32904	32864	
2535	0	32952	32736	
2536	0	32922	32628	
2537	0	32886	32694	
2538	0	32776	32806	
2539	0	32746	32788	
2540	0	32768	32711	
2541	0	32816	32716	
2542	0	32820	32871	
2543	0	32704	32710	
2544	0	32706	32845	
2545	0	32704	32766	
2546	0	32756	32892	
2547	0	32688	32826	
2548	0	32728	32679	
2549	0	32738	32664	
2550	0	32704	32666	
2551	0	32752	32738	
2552	0	32828	32751	
2553	0	32788	32762	
2554	0	32796	32794	
2555	0	32852	32726	
2556	0	32800	32720	
2557	0	32824	32837	
2558	0	32868	32830	
2559	0	32884	32769	
2560	0	32916	32838	
2561	0	32888	32884	
2562	0	32924	32874	
2563	0	32888	32743	
2564	0	32894	32836	
2565	0	32892	32810	
2566	0	32924	32800	
2567	0	32856	32743	
2568	0	32824	32746	
2569	0	32708	32676	
2570	0	32678	32708	
2571	0	32638	32816	
2572	0	32696	32824	
2573	0	32756	32775	
2574	0	32656	32762	
2575	0	32742	32642	
2576	0	32744	32678	
2577	0	32846	32764	
2578	0	32930	32838	
2579	0	32894	32682	
2580	0	32908	32798	
2581	0	32832	32700	
2582	0	32952	32834	
2583	0	32872	32904	
2584	0	32766	32746	
2585	0	32776	32718	
2586	0	32694	32638	
2587	0	32751	32652	
2588	0	32662	32615	
2589	0	32684	32696	
2590	0	32804	32718	
2591	0	32880	32775	
2592	0	32896	32703	
2593	0	32913	32804	
2594	0	32888	32872	
2595	0	32784	32728	
2596	0	32776	32636	
2597	0	32692	32742	
2598	0	32834	32784	
2599	0	32764	32838	
2600	0	32876	32784	
2601	0	32800	32886	
2602	0	32716	32753	
2603	0	32716	32774	
2604	0	32724	32828	
2605	0	32850	32740	
2606	0	32908	32802	
2607	0	32816	32892	
2608	0	32848	32711	
2609	0	32948	32858	
2610	0	32872	32716	
2611	0	33052	32684	
2612	0	33032	32484	
2613	0	33002	32556	
2614	0	32870	32586	
2615	0	32864	32598	
2616	0	32788	32943	
2617	0	32716	32952	
2618	0	32740	32716	
2619	0	32748	32674	
2620	0	32788	32724	
2621	0	32746	32632	
2622	0	32828	32861	
2623	0	32784	32986	
2624	0	32794	32734	
2625	0	32776	32948	
2626	0	32790	32844	
2627	0	32964	32712	
2628	0	32900	32692	
2629	0	32878	32753	
2630	0	33002	32840	
2631	0	33148	33058	
2632	0	32960	32983	
2633	0	32886	32926	
2634	0	32734	33106	
2635	0	32490	32698	
2636	0	32522	32836	
2637	0	32484	32872	
2638	0	32482	32674	
2639	0	32692	32514	
2640	0	32650	32646	
2641	0	32748	32559	
2642	0	32734	32718	
2643	0	32730	32775	
2644	0	32814	32790	
2645	0	32756	32798	
2646	0	32718	32722	
2647	0	32824	32416	
2648	0	32778	32472	
2649	0	32761	32756	
2650	0	32776	32667	
2651	0	32848	32759	
2652	0	32736	32692	
2653	0	32904	32718	
2654	0	32800	32775	
2655	0	32800	32806	
2656	0	32924	32674	
2657	0	33002	32923	
2658	0	33033	32940	
2659	0	32982	32650	
2660	0	32936	32578	
2661	0	32918	32775	
2662	0	32876	32775	
2663	0	32834	32903	
2664	0	32778	32967	
2665	0	32744	32929	
2666	0	32746	32940	
2667	0	32716	32812	
2668	0	32714	32871	
2669	0	32816	32830	
2670	0	32760	32794	
2671	0	32868	32722	
2672	0	32840	32614	
2673	0	32808	32672	
2674	0	32800	32668	
2675	0	32866	32734	
2676	0	32820	32756	
2677	0	32790	32708	
2678	0	32856	32540	
2679	0	32852	32578	
2680	0	32844	32644	
2681	0	32904	32699	
2682	0	32844	32764	
2683	0	32820	32814	
2684	0	32866	32724	
2685	0	32804	32772	
2686	0	32780	32572	
2687	0	32820	32352	
2688	0	32804	32628	
2689	0	32848	32806	
2690	0	32838	32976	
2691	0	32858	33124	
2692	0	32758	32894	
2693	0	32794	32658	
2694	0	32938	32559	
2695	0	32980	32567	
2696	0	32884	32982	
2697	0	32718	33359	
2698	0	32604	33086	
2699	0	32628	32914	
2700	0	32700	33156	
2701	0	32764	33132	
2702	0	32876	32094	
2703	0	32914	31864	
2704	0	32828	31922	
2705	0	32768	32263	
2706	0	32785	32772	
2707	0	32784	32560	
2708	0	32820	32584	
2709	0	32870	33564	
2710	0	32868	33490	
2711	0	32896	33710	
2712	0	32976	33848	
2713	0	32944	33566	
2714	0	32736	33159	
2715	0	32784	32263	
2716	0	32752	31636	
2717	0	32712	31286	
2718	0	32692	31176	
2719	0	32656	32150	
2720	0	32676	32678	
2721	0	32862	33000	
2722	0	32788	34054	
2723	0	32718	34335	
2724	0	32692	33534	
2725	0	32772	33628	
2726	0	32866	33332	
2727	0	32996	32518	
2728	0	32902	32736	
2729	0	32752	32775	
2730	0	32784	33204	
2731	0	32788	32754	
2732	0	32919	32016	
2733	0	32874	31842	
2734	0	32952	31902	
2735	0	32954	32168	
2736	0	32924	32228	
2737	0	32820	32586	
2738	0	32892	32790	
2739	0	32812	32851	
2740	0	32818	32710	
2741	0	32856	32764	
2742	0	32788	32823	
2743	0	32696	32678	
2744	0	32760	32775	
2745	0	32748	32918	
2746	0	32823	33098	
2747	0	32780	32751	
2748	0	32836	32936	
2749	0	32780	32986	
2750	0	32718	32815	
2751	0	32748	32674	
2752	0	32658	32560	
2753	0	32720	32732	
2754	0	32664	32806	
2755	0	32726	32808	
2756	0	32768	32598	
2757	0	32832	32644	
2758	0	32792	32612	
2759	0	32792	32586	
2760	0	32928	32618	
2761	0	32900	32632	
2762	0	32976	32724	
2763	0	32872	32804	
2764	0	32950	32886	
2765	0	33056	32958	
2766	0	32968	33031	
2767	0	32952	33078	
2768	0	32884	33010	
2769	0	32834	33008	
2770	0	32820	32864	
2771	0	32720	32618	
2772	0	32794	32462	
2773	0	32824	32608	
2774	0	32648	32880	
2775	0	32532	33014	
2776	0	32596	33031	
2777	0	32600	33188	
2778	0	32824	33284	
2779	0	32894	32942	
2780	0	32938	32452	
2781	0	32992	32298	
2782	0	32968	32500	
2783	0	32858	32636	
2784	0	32792	32628	
2785	0	32688	32670	
2786	0	32694	32646	
2787	0	32712	32882	
2788	0	32584	32856	
2789	0	32764	32920	
2790	0	32704	32722	
2791	0	32774	32500	
2792	0	32942	32796	
2793	0	32868	32946	
2794	0	32834	32602	
2795	0	32810	32184	
2796	0	32756	32376	
2797	0	32768	32647	
2798	0	32760	32854	
2799	0	32792	32820	
2800	0	33000	32276	
2801	0	32982	32384	
2802	0	33090	32638	
2803	0	33186	32834	
2804	0	33196	33111	
2805	0	33148	33310	
2806	0	33052	33367	
2807	0	32940	32628	
2808	0	32802	32886	
2809	0	32736	33246	
2810	0	32644	32432	
2811	0	32578	33014	
2812	0	32688	33126	
2813	0	32714	33079	
2814	0	32672	32926	
2815	0	32646	32994	
2816	0	32478	32464	
2817	0	32348	32122	
2818	0	32452	32752	
2819	0	32572	32848	
2820	0	32702	32622	
2821	0	32896	32598	
2822	0	33030	32743	
2823	0	33030	33028	
2824	0	33012	33088	
2825	0	33144	32580	
2826	0	33032	32263	
2827	0	33008	32088	
2828	0	32868	32454	
2829	0	32708	33007	
2830	0	32618	32932	
2831	0	32656	32344	
2832	0	32554	32886	
2833	0	32534	33718	
2834	0	32728	33287	
2835	0	32854	32861	
2836	0	33068	32822	
2837	0	33236	32981	
2838	0	33196	32863	
2839	0	33168	32416	
2840	0	33174	32359	
2841	0	33058	32300	
2842	0	32782	32517	
2843	0	32580	32670	
2844	0	32362	33174	
2845	0	32294	33008	
2846	0	32476	32868	
2847	0	32744	32602	
2848	0	32880	32670	
2849	0	32922	32422	
2850	0	32968	32162	
2851	0	32976	32696	
2852	0	32938	32922	
2853	0	32904	32790	
2854	0	32676	32588	
2855	0	32634	32590	
2856	0	32666	32884	
2857	0	32650	33118	
2858	0	32516	33052	
2859	0	32512	32454	
2860	0	32616	32716	
2861	0	32744	33338	
2862	0	32832	33434	
2863	0	32844	32672	
2864	0	33028	32774	
2865	0	33040	32756	
2866	0	33184	33048	
2867	0	33204	32724	
2868	0	33154	32642	
2869	0	33080	32486	
2870	0	32984	32567	
2871	0	32792	32882	
2872	0	32594	33031	
2873	0	32576	33084	
2874	0	32588	32670	
2875	0	32706	32519	
2876	0	32588	32450	
2877	0	32566	32322	
2878	0	32712	32199	
2879	0	32896	32578	
2880	0	32906	32910	
2881	0	32848	32946	
2882	0	33070	32980	
2883	0	32958	32866	
2884	0	32928	32732	
2885	0	32934	32892	
2886	0	32798	32824	
2887	0	32728	32836	
2888	0	32584	32814	
2889	0	32582	33284	
2890	0	32528	33132	
2891	0	32564	32884	
2892	0	32696	32362	
2893	0	32704	32050	
2894	0	32756	31934	
2895	0	32854	31938	
2896	0	32976	32578	
2897	0	32984	33090	
2898	0	33006	32474	
2899	0	32832	32678	
2900	0	32704	32670	
2901	0	32660	33196	
2902	0	32796	33462	
2903	0	32884	33448	
2904	0	32968	33287	
2905	0	33016	33386	
2906	0	33002	32640	
2907	0	32996	32330	
2908	0	32924	32466	
2909	0	32876	32302	
2910	0	32912	32171	
2911	0	33008	32590	
2912	0	32917	33466	
2913	0	33256	33190	
2914	0	33132	32880	
2915	0	32816	32464	
2916	0	32456	31800	
2917	0	32364	32674	
2918	0	32564	33524	
2919	0	32644	32462	
2920	0	32620	33246	
2921	0	32436	33368	
2922	0	32584	32974	
2923	0	32548	32364	
2924	0	32558	32196	
2925	0	32502	33012	
2926	0	32716	33218	
2927	0	32788	31912	
2928	0	32828	32168	
2929	0	32892	34118	
2930	0	32874	33447	
2931	0	32790	32198	
2932	0	32890	32064	
2933	0	32810	31765	
2934	0	32784	31544	
2935	0	32854	33048	
2936	0	32936	33720	
2937	0	33064	33310	
2938	0	33162	33644	
2939	0	33046	32710	
2940	0	32988	32354	
2941	0	32922	32772	
2942	0	32908	33284	
2943	0	32918	32894	
2944	0	32840	32894	
2945	0	32849	33118	
2946	0	32914	33359	
2947	0	32710	32720	
2948	0	32600	32414	
2949	0	32452	31937	
2950	0	32548	32303	
2951	0	32576	32344	
2952	0	32636	32679	
2953	0	32664	32438	
2954	0	32820	32383	
2955	0	33056	33262	
2956	0	33076	33463	
2957	0	33012	33255	
2958	0	33036	33622	
2959	0	33504	32478	
2960	0	33432	32504	
2961	0	33166	31988	
2962	0	33016	31838	
2963	0	32668	33516	
2964	0	32548	33730	
2965	0	32448	33826	
2966	0	32608	33348	
2967	0	32628	33456	
2968	0	32664	33318	
2969	0	32544	32614	
2970	0	32504	32002	
2971	0	32300	31792	
2972	0	32348	31851	
2973	0	32404	31712	
2974	0	32548	31812	
2975	0	32608	32452	
2976	0	32736	32365	
2977	0	32872	32324	
2978	0	32916	32368	
2979	0	32962	32875	
2980	0	33042	32474	
2981	0	33098	32162	
2982	0	33156	33338	
2983	0	32962	33210	
2984	0	32910	33108	
2985	0	32844	32585	
2986	0	32838	33360	
2987	0	33044	33438	
2988	0	33148	33476	
2989	0	33124	33310	
2990	0	32940	33138	
2991	0	32932	33060	
2992	0	32928	32532	
2993	0	33040	32190	
2994	0	33112	32730	
2995	0	33140	32642	
2996	0	33026	32604	
2997	0	32984	32162	
2998	0	32864	33086	
2999	0	32696	33095	
3000	0	33006	33052	
3001	0	32796	32740	
3002	0	32912	31911	
3003	0	32696	33272	
3004	0	32496	34470	
3005	0	32282	33228	
3006	0	32176	31646	
3007	0	32288	33287	
3008	0	32476	33877	
3009	0	32608	33031	
3010	0	32760	32896	
3011	0	32774	32612	
3012	0	32928	31842	
3013	0	32764	31984	
3014	0	32648	32052	
3015	0	32596	31794	
3016	0	32404	32527	
3017	0	32490	32276	
3018	0	32448	32660	
3019	0	32668	33638	
3020	0	33042	33154	
3021	0	33588	32424	
3022	0	33304	32322	
3023	0	33004	32486	
3024	0	32746	32820	
3025	0	32892	32834	
3026	0	33132	32888	
3027	0	33463	32600	
3028	0	33754	33724	
3029	0	33320	34676	
3030	0	33080	33212	
3031	0	32828	33314	
3032	0	32604	32960	
3033	0	32364	32736	
3034	0	32350	32860	
3035	0	32336	32277	
3036	0	32308	31518	
3037	0	32388	32298	
3038	0	32312	32306	
3039	0	32428	32400	
3040	0	32481	33524	
3041	0	32626	33392	
3042	0	32648	32724	
3043	0	32714	32511	
3044	0	32688	32135	
3045	0	32814	32142	
3046	0	33108	33128	
3047	0	33110	32294	
3048	0	33022	32444	
3049	0	32940	32910	
3050	0	32897	33447	
3051	0	32862	33332	
3052	0	32948	33228	
3053	0	33094	32408	
3054	0	33012	32038	
3055	0	32996	32551	
3056	0	33060	32828	
3057	0	33048	33012	
3058	0	32980	32656	
3059	0	32968	33156	
3060	0	33188	31732	
3061	0	33024	32664	
3062	0	32800	32686	
3063	0	32714	32888	
3064	0	32626	32910	
3065	0	32522	32932	
3066	0	32476	33966	
3067	0	32544	33838	
3068	0	32596	33088	
3069	0	32560	32806	
3070	0	32464	32616	
3071	0	32624	32708	
3072	0	32716	32532	
3073	0	32896	32278	
3074	0	33012	32311	
3075	0	33104	32588	
3076	0	33072	32726	
3077	0	32916	32660	
3078	0	32852	32468	
3079	0	32716	32134	
3080	0	32758	33616	
3081	0	32916	33552	
3082	0	33018	33286	
3083	0	32844	34023	
3084	0	32772	32826	
3085	0	32706	30110	
3086	0	32612	31236	
3087	0	32584	33686	
3088	0	32648	32756	
3089	0	32718	32648	
3090	0	32902	32758	
3091	0	33040	32679	
3092	0	33128	33007	
3093	0	33116	33630	
3094	0	33112	33502	
3095	0	32812	33016	
3096	0	32652	32942	
3097	0	32720	32567	
3098	0	32708	32831	
3099	0	32740	32182	
3100	0	32696	31712	
3101	0	32620	33362	
3102	0	32696	31946	
3103	0	32776	31574	
3104	0	32760	33160	
3105	0	32696	34798	
3106	0	32540	33450	
3107	0	32656	32788	
3108	0	32725	32458	
3109	0	32944	32276	
3110	0	33128	31450	
3111	0	33240	32444	
3112	0	32872	32746	
3113	0	32664	31998	
3114	0	32738	33590	
3115	0	32832	35335	
3116	0	32730	33252	
3117	0	32734	30631	
3118	0	32704	32151	
3119	0	32900	33052	
3120	0	32941	33263	
3121	0	32936	32819	
3122	0	32972	33031	
3123	0	32860	33482	
3124	0	32928	33024	
3125	0	32940	32532	
3126	0	32764	32916	
3127	0	32652	32955	
3128	0	32564	32494	
3129	0	32572	32240	
3130	0	32600	32116	
3131	0	32672	32608	
3132	0	32620	32716	
3133	0	32740	31625	
3134	0	32730	32382	
3135	0	32824	33516	
3136	0	32898	33652	
3137	0	32689	32977	
3138	0	32680	33008	
3139	0	32572	32160	
3140	0	32664	32440	
3141	0	32712	32042	
3142	0	32865	33010	
3143	0	33028	32578	
3144	0	33120	32040	
3145	0	33076	32474	
3146	0	32932	34020	
3147	0	32870	33512	
3148	0	32804	32398	
3149	0	32836	31320	
3150	0	32816	32622	
3151	0	32878	34384	
3152	0	32800	33834	
3153	0	32860	32236	
3154	0	32848	32688	
3155	0	33012	33904	
3156	0	32912	32068	
3157	0	32904	32502	
3158	0	32770	33468	
3159	0	32934	33254	
3160	0	32854	33598	
3161	0	32788	32916	
3162	0	32886	31894	
3163	0	32756	32135	
3164	0	32918	32144	
3165	0	32924	32446	
3166	0	32924	32322	
3167	0	32760	32740	
3168	0	32670	33188	
3169	0	32648	33385	
3170	0	32538	32196	
3171	0	32590	32300	
3172	0	32712	32896	
3173	0	32834	32758	
3174	0	33010	31632	
3175	0	33070	33350	
3176	0	33138	35122	
3177	0	33140	32944	
3178	0	33024	32378	
3179	0	32872	33304	
3180	0	32744	32228	
3181	0	32728	31111	
3182	0	32724	31392	
3183	0	32558	32636	
3184	0	32676	33346	
3185	0	32776	33004	
3186	0	32878	32548	
3187	0	33066	32502	
3188	0	33050	32874	
3189	0	33072	33248	
3190	0	32960	33287	
3191	0	32956	33188	
3192	0	32754	33378	
3193	0	32520	34118	
3194	0	32176	33266	
3195	0	32168	32262	
3196	0	32126	32586	
3197	0	32216	32296	
3198	0	32460	32042	
3199	0	32776	32884	
3200	0	32774	33066	
3201	0	32722	32756	
3202	0	32804	32716	
3203	0	32830	32361	
3204	0	32850	32615	
3205	0	33002	33106	
3206	0	32864	32488	
3207	0	32862	32263	
3208	0	33088	32516	
3209	0	33238	33310	
3210	0	33176	33348	
3211	0	33146	32962	
3212	0	33234	32482	
3213	0	33224	32516	
3214	0	33072	32407	
3215	0	32880	32655	
3216	0	32824	33222	
3217	0	32696	33146	
3218	0	32512	33186	
3219	0	32560	32985	
3220	0	32612	32970	
3221	0	32616	32404	
3222	0	32704	32484	
3223	0	32988	32978	
3224	0	33062	32843	
3225	0	33104	31912	
3226	0	33082	32222	
3227	0	32968	32892	
3228	0	32928	33098	
3229	0	32828	32896	
3230	0	32644	33060	
3231	0	32666	32602	
3232	0	32588	32814	
3233	0	32612	32946	
3234	0	32584	32708	
3235	0	32564	32992	
3236	0	32535	32774	
3237	0	32722	32774	
3238	0	32644	33178	
3239	0	32638	32642	
3240	0	32868	32614	
3241	0	33142	32538	
3242	0	33102	32647	
3243	0	32992	33430	
3244	0	33024	33028	
3245	0	33124	32122	
3246	0	33008	33060	
3247	0	32816	32880	
3248	0	32600	31962	
3249	0	32580	31806	
3250	0	32600	32746	
3251	0	32684	33064	
3252	0	32648	33428	
3253	0	32738	32878	
3254	0	32708	32475	
3255	0	32668	32110	
3256	0	32588	32573	
3257	0	32542	33698	
3258	0	32466	33327	
3259	0	32512	32876	
3260	0	32694	32948	
3261	0	32876	32568	
3262	0	33224	32568	
3263	0	33026	33041	
3264	0	32932	33169	
3265	0	33096	32540	
3266	0	33100	32552	
3267	0	33136	32883	
3268	0	33064	32934	
3269	0	32968	32775	
3270	0	32854	33060	
3271	0	32940	32988	
3272	0	32868	32561	
3273	0	33024	33016	
3274	0	33048	32774	
3275	0	33020	33006	
3276	0	32903	33048	
3277	0	32772	32718	
3278	0	32754	32508	
3279	0	32676	32108	
3280	0	32728	31791	
3281	0	32774	32696	
3282	0	32824	33094	
3283	0	32812	32968	
3284	0	32876	32810	
3285	0	32916	32804	
3286	0	32961	32998	
3287	0	32988	32832	
3288	0	32868	32992	
3289	0	32692	33202	
3290	0	32592	32954	
3291	0	32396	31978	
3292	0	32324	32296	
3293	0	32504	33831	
3294	0	32618	33012	
3295	0	32680	32648	
3296	0	32698	32934	
3297	0	32636	32644	
3298	0	32522	32572	
3299	0	32880	32316	
3300	0	32876	32130	
3301	0	32804	32350	
3302	0	32812	33178	
3303	0	32820	33000	
3304	0	33070	32896	
3305	0	33152	33198	
3306	0	33024	33410	
3307	0	32868	32612	
3308	0	32604	32484	
3309	0	32516	32387	
3310	0	32596	32286	
3311	0	32513	32192	
3312	0	32532	32348	
3313	0	32620	33236	
3314	0	32746	33206	
3315	0	32796	32284	
3316	0	32964	33114	
3317	0	33020	32824	
3318	0	33094	33068	
3319	0	33148	32908	
3320	0	33232	32189	
3321	0	32958	32679	
3322	0	32800	32624	
3323	0	32692	32815	
3324	0	32820	33058	
3325	0	32808	32833	
3326	0	32796	32750	
3327	0	32706	32839	
3328	0	32764	32714	
3329	0	32538	32724	
3330	0	32560	32872	
3331	0	32556	32678	
3332	0	32680	32614	
3333	0	32844	32615	
3334	0	32996	32542	
3335	0	32992	32412	
3336	0	32936	32775	
3337	0	33098	32612	
3338	0	32984	32913	
3339	0	33000	32876	
3340	0	32929	32968	
3341	0	32932	32896	
3342	0	32930	32743	
3343	0	32932	32516	
3344	0	33100	32962	
3345	0	33004	32854	
3346	0	32930	32704	
3347	0	32932	32494	
3348	0	32818	32679	
3349	0	32850	32906	
3350	0	32850	33015	
3351	0	32704	33020	
3352	0	32688	32870	
3353	0	32676	32434	
3354	0	32700	32804	
3355	0	32732	32935	
3356	0	32844	32884	
3357	0	32764	32943	
3358	0	32792	32944	
3359	0	32788	32710	
3360	0	32866	33342	
3361	0	32880	32884	
3362	0	32850	32183	
3363	0	32692	32436	
3364	0	32716	32647	
3365	0	32692	32378	
3366	0	32668	32814	
3367	0	32658	33122	
3368	0	32806	32798	
3369	0	32840	32740	
3370	0	32716	33046	
3371	0	32786	32750	
3372	0	32830	33092	
3373	0	32990	32930	
3374	0	33126	32622	
3375	0	32968	32554	
3376	0	32948	32078	
3377	0	32800	32800	
3378	0	32612	32876	
3379	0	32532	32686	
3380	0	32582	32660	
3381	0	32560	32924	
3382	0	32568	32881	
3383	0	32720	32666	
3384	0	32913	32743	
3385	0	32808	32838	
3386	0	32792	32647	
3387	0	32812	32900	
3388	0	32744	32814	
3389	0	32662	32814	
3390	0	32814	32734	
3391	0	32744	32644	
3392	0	32794	32775	
3393	0	32780	32700	
3394	0	32798	32738	
3395	0	32850	32684	
3396	0	32880	32975	
3397	0	32956	32834	
3398	0	32890	32492	
3399	0	33000	32580	
3400	0	33084	32874	
3401	0	33093	33084	
3402	0	33144	33112	
3403	0	33004	33000	
3404	0	32920	32832	
3405	0	32814	32118	
3406	0	32878	32647	
3407	0	32808	32655	
3408	0	32581	32943	
3409	0	32512	33092	
3410	0	32464	32828	
3411	0	32560	32839	
3412	0	32998	32640	
3413	0	33126	32692	
3414	0	32924	32160	
3415	0	32732	32407	
3416	0	32442	33286	
3417	0	32452	32702	
3418	0	32556	33144	
3419	0	32520	32995	
3420	0	32480	32882	
3421	0	32574	32774	
3422	0	32992	32718	
3423	0	33124	32817	
3424	0	33024	32881	
3425	0	32884	32870	
3426	0	32688	32756	
3427	0	32440	32679	
3428	0	32560	32788	
3429	0	32824	32822	
3430	0	33282	33031	
3431	0	33404	32058	
3432	0	33208	32066	
3433	0	33004	32560	
3434	0	32696	32874	
3435	0	32562	32990	
3436	0	32534	32924	
3437	0	32642	33182	
3438	0	32908	33166	
3439	0	32846	32820	
3440	0	32968	32852	
3441	0	33000	33053	
3442	0	32884	32622	
3443	0	32892	32676	
3444	0	32760	32858	
3445	0	32696	32703	
3446	0	32724	32496	
3447	0	32756	32676	
3448	0	32770	32775	
3449	0	32736	32518	
3450	0	32766	32574	
3451	0	32834	32708	
3452	0	32900	32712	
3453	0	32966	32744	
3454	0	33126	32772	
3455	0	33022	32700	
3456	0	32792	32508	
3457	0	32648	32714	
3458	0	32670	32618	
3459	0	32682	32652	
3460	0	32620	32830	
3461	0	32704	32900	
3462	0	32828	32698	
3463	0	32858	32718	
3464	0	32812	32870	
3465	0	32804	33018	
3466	0	32840	32966	
3467	0	32776	32882	
3468	0	32740	33008	
3469	0	32796	32866	
3470	0	32764	32888	
3471	0	32796	32583	
3472	0	32914	32462	
3473	0	33026	32540	
3474	0	32876	32382	
3475	0	32788	32506	
3476	0	32844	32631	
3477	0	32774	32879	
3478	0	32718	33100	
3479	0	32786	32928	
3480	0	32838	32748	
3481	0	32876	32548	
3482	0	32848	32647	
3483	0	32816	33062	
3484	0	32776	33088	
3485	0	32742	32978	
3486	0	32808	32950	
3487	0	32776	32842	
3488	0	32904	32546	
3489	0	32856	32670	
3490	0	32780	32724	
3491	0	32832	32802	
3492	0	32844	32846	
3493	0	32794	32750	
3494	0	32856	32686	
3495	0	32736	32655	
3496	0	32762	32829	
3497	0	32780	32808	
3498	0	32814	32948	
3499	0	32818	32646	
3500	0	32804	32644	
3501	0	32834	32900	
3502	0	32788	32932	
3503	0	32670	32546	
3504	0	32736	32804	
3505	0	32906	32800	
3506	0	32876	32886	
3507	0	32814	32912	
3508	0	32896	32584	
3509	0	32860	33054	
3510	0	32834	33062	
3511	0	32776	32876	
3512	0	32708	32798	
3513	0	32804	32292	
3514	0	32936	32552	
3515	0	32840	32986	
3516	0	32737	32556	
3517	0	32672	32502	
3518	0	32712	32645	
3519	0	32812	32896	
3520	0	32838	32916	
3521	0	32876	32748	
3522	0	32928	32728	
3523	0	32848	32690	
3524	0	32748	32930	
3525	0	32738	32796	
3526	0	32700	32867	
3527	0	32612	32913	
3528	0	32564	32662	
3529	0	32662	32664	
3530	0	32712	32868	
3531	0	32906	32770	
3532	0	32964	32852	
3533	0	32892	32762	
3534	0	32804	32707	
3535	0	32836	32608	
3536	0	32822	32554	
3537	0	32944	32662	
3538	0	32928	32608	
3539	0	32940	32570	
3540	0	32822	32719	
3541	0	32833	32994	
3542	0	32755	32882	
3543	0	32804	32878	
3544	0	32786	32999	
3545	0	32774	32902	
3546	0	32842	32762	
3547	0	32958	32660	
3548	0	32834	32847	
3549	0	32844	33049	
3550	0	32784	32782	
3551	0	32784	32540	
3552	0	32878	32702	
3553	0	32898	32689	
3554	0	32884	32444	
3555	0	32928	32638	
3556	0	33016	32903	
3557	0	32826	32922	
3558	0	32678	32944	
3559	0	32594	32881	
3560	0	32584	32954	
3561	0	32652	32748	
3562	0	32730	32662	
3563	0	32752	32839	
3564	0	32808	33010	
3565	0	32872	32860	
3566	0	32832	32620	
3567	0	32928	32568	
3568	0	32852	32516	
3569	0	32900	32616	
3570	0	32906	32894	
3571	0	32852	33026	
3572	0	32820	32860	
3573	0	32769	32883	
3574	0	32644	32748	
3575	0	32702	32808	
3576	0	32800	32771	
3577	0	32740	32852	
3578	0	32754	32986	
3579	0	32798	32724	
3580	0	32876	32618	
3581	0	32892	32746	
3582	0	32900	32798	
3583	0	32808	32774	
3584	0	32804	32578	
3585	0	32756	32756	
3586	0	32680	32834	
3587	0	32796	32490	
3588	0	32896	32698	
3589	0	32828	32953	
3590	0	32794	33036	
3591	0	32758	33028	
3592	0	32724	32680	
3593	0	32868	32638	
3594	0	32928	32604	
3595	0	32808	32890	
3596	0	32840	32913	
3597	0	32808	32846	
3598	0	32852	32802	
3599	0	32844	32743	
3600	0	32826	32726	
3601	0	32774	32942	
3602	0	32824	32678	
3603	0	32736	32662	
3604	0	32796	32458	
3605	0	32828	32716	
3606	0	32820	32756	
3607	0	32752	32610	
3608	0	32820	32630	
3609	0	32770	32744	
3610	0	32808	32748	
3611	0	32748	32876	
3612	0	32844	32636	
3613	0	32844	32460	
3614	0	32812	32788	
3615	0	32852	32964	
3616	0	32824	32794	
3617	0	32768	32743	
3618	0	32772	32930	
3619	0	32825	32922	
3620	0	32868	32732	
3621	0	32788	32586	
3622	0	32750	32614	
3623	0	32764	32884	
3624	0	32876	32796	
3625	0	32912	32881	
3626	0	32852	32994	
3627	0	32952	32932	
3628	0	32842	32830	
3629	0	32820	32948	
3630	0	32848	33066	
3631	0	32788	32911	
3632	0	32840	32764	
3633	0	32844	32742	
3634	0	32848	32694	
3635	0	32808	32454	
3636	0	32872	32804	
3637	0	32878	32903	
3638	0	32840	32740	
3639	0	32860	32775	
3640	0	32800	32615	
3641	0	32856	32694	
3642	0	32776	32560	
3643	0	32658	32674	
3644	0	32688	32534	
3645	0	32650	32672	
3646	0	32672	32674	
3647	0	32592	32426	
3648	0	32622	32313	
3649	0	32692	32236	
3650	0	32764	32643	
3651	0	32732	32612	
3652	0	32764	32922	
3653	0	32784	32756	
3654	0	32782	32916	
3655	0	32895	32662	
3656	0	32842	32844	
3657	0	32884	32742	
3658	0	32820	32560	
3659	0	32776	32656	
3660	0	32816	32810	
3661	0	32844	33086	
3662	0	32992	33044	
3663	0	32998	32903	
3664	0	32932	32858	
3665	0	32898	33072	
3666	0	32882	33242	
3667	0	32784	33031	
3668	0	32710	32892	
3669	0	32776	32604	
3670	0	32780	32760	
3671	0	32824	32695	
3672	0	32772	32816	
3673	0	32814	32814	
3674	0	32760	32750	
3675	0	32780	32762	
3676	0	32842	32710	
3677	0	32848	32743	
3678	0	32860	32710	
3679	0	32860	32774	
3680	0	32740	32650	
3681	0	32764	32735	
3682	0	32812	32775	
3683	0	32856	32836	
3684	0	32776	32750	
3685	0	32825	32617	
3686	0	32876	32682	
3687	0	32892	32834	
3688	0	32876	32800	
3689	0	32804	32806	
3690	0	32808	32839	
3691	0	32816	32700	
3692	0	32862	32632	
3693	0	32748	32664	
3694	0	32842	32414	
3695	0	32796	32580	
3696	0	32784	32957	
3697	0	32732	33026	
3698	0	32744	32912	
3699	0	32840	33062	
3700	0	32864	32804	
3701	0	32880	32775	
3702	0	32855	32552	
3703	0	32848	32618	
3704	0	32956	32574	
3705	0	32908	32790	
3706	0	32830	32766	
3707	0	32844	32924	
3708	0	32836	33066	
3709	0	32732	32866	
3710	0	32858	32626	
3711	0	32856	32592	
3712	0	32794	32700	
3713	0	32876	32818	
3714	0	32848	32824	
3715	0	32892	32622	
3716	0	32896	32518	
3717	0	32926	32784	
3718	0	32814	32934	
3719	0	32848	32828	
3720	0	32752	32775	
3721	0	32820	32832	
3722	0	32818	32921	
3723	0	32908	32762	
3724	0	32842	32854	
3725	0	32768	32500	
3726	0	32772	32748	
3727	0	32824	32752	
3728	0	32824	32554	
3729	0	32758	32588	
3730	0	32744	32566	
3731	0	32756	32896	
3732	0	32732	33118	
3733	0	32762	33166	
3734	0	32860	32775	
3735	0	32880	32854	
3736	0	32878	32676	
3737	0	32830	32886	
3738	0	32880	32956	
3739	0	32828	32796	
3740	0	32760	32775	
3741	0	32816	32892	
3742	0	32836	32760	
3743	0	32858	32615	
3744	0	32784	32724	
3745	0	32860	32646	
3746	0	32792	32668	
3747	0	32828	32884	
3748	0	32840	32740	
3749	0	32836	32734	
3750	0	32794	32711	
3751	0	32776	32740	
3752	0	32740	32920	
3753	0	32854	33044	
3754	0	32810	32820	
3755	0	32736	32770	
3756	0	32644	32677	
3757	0	32672	32562	
3758	0	32690	32724	
3759	0	32698	32870	
3760	0	32846	32912	
3761	0	32892	32970	
3762	0	32850	32876	
3763	0	32810	32823	
3764	0	32828	32712	
3765	0	32836	32584	
3766	0	32852	32708	
3767	0	32916	32622	
3768	0	32968	32484	
3769	0	32932	32734	
3770	0	32842	32898	
3771	0	32828	32692	
3772	0	32808	32572	
3773	0	32888	32830	
3774	0	32894	32754	
3775	0	32738	32734	
3776	0	32894	32740	
3777	0	32890	32775	
3778	0	32856	32542	
3779	0	32936	32696	
3780	0	32796	32948	
3781	0	32854	33132	
3782	0	32840	32901	
3783	0	33010	32806	
3784	0	32948	32750	
3785	0	32892	32816	
3786	0	32874	32662	
3787	0	32844	32679	
3788	0	32766	32736	
3789	0	32764	32979	
3790	0	32672	32999	
3791	0	32600	32934	
3792	0	32604	32746	
3793	0	32666	32664	
3794	0	32676	32702	
3795	0	32656	32724	
3796	0	32676	32730	
3797	0	32700	32826	
3798	0	32768	32876	
3799	0	32808	32822	
3800	0	32824	32850	
3801	0	32764	32636	
3802	0	32776	32738	
3803	0	32860	32722	
3804	0	32862	32768	
3805	0	32870	32592	
3806	0	32766	32442	
3807	0	32828	32324	
3808	0	32852	32676	
3809	0	32862	32566	
3810	0	32834	32688	
3811	0	32800	32900	
3812	0	32844	33006	
3813	0	32860	33084	
3814	0	32766	32856	
3815	0	32808	32664	
3816	0	32864	32769	
3817	0	32774	32871	
3818	0	32772	32679	
3819	0	32828	32578	
3820	0	32832	32628	
3821	0	32884	32834	
3822	0	32862	32942	
3823	0	32902	32719	
3824	0	32900	32618	
3825	0	32864	32638	
3826	0	32824	32408	
3827	0	32836	32390	
3828	0	32830	32754	
3829	0	32824	32694	
3830	0	32838	32644	
3831	0	32824	32951	
3832	0	32720	32954	
3833	0	32773	32922	
3834	0	32736	32758	
3835	0	32672	32550	
3836	0	32694	32700	
3837	0	32774	32470	
3838	0	32732	32620	
3839	0	32670	32992	
3840	0	32752	33062	
3841	0	32724	33124	
3842	0	32766	32725	
3843	0	32728	32628	
3844	0	32748	32476	
3845	0	32692	32686	
3846	0	32785	32432	
3847	0	32772	32518	
3848	0	32802	32495	
3849	0	32836	32598	
3850	0	32868	32924	
3851	0	32828	32886	
3852	0	32744	32920	
3853	0	32810	32775	
3854	0	32848	32671	
3855	0	32865	32662	
3856	0	32876	32726	
3857	0	32812	32706	
3858	0	32868	32758	
3859	0	32766	32770	
3860	0	32884	32766	
3861	0	32820	32718	
3862	0	32836	32630	
3863	0	32856	32812	
3864	0	32832	32980	
3865	0	32760	32868	
3866	0	32746	32820	
3867	0	32736	33031	
3868	0	32758	32881	
3869	0	32774	32751	
3870	0	32810	32654	
3871	0	32812	32663	
3872	0	32792	32800	
3873	0	32886	32805	
3874	0	32890	32854	
3875	0	32872	32522	
3876	0	32812	32588	
3877	0	32860	32716	
3878	0	32880	32822	
3879	0	32900	32740	
3880	0	32922	32711	
3881	0	32898	32668	
3882	0	32848	32794	
3883	0	32856	32826	
3884	0	32748	32954	
3885	0	32756	32564	
3886	0	32738	32852	
3887	0	32700	32684	
3888	0	32840	32626	
3889	0	32796	32800	
3890	0	32842	32993	
3891	0	32868	32768	
3892	0	32920	32810	
3893	0	32884	32920	
3894	0	32792	32838	
3895	0	32852	32758	
3896	0	32840	32556	
3897	0	32872	32700	
3898	0	32872	32903	
3899	0	32806	32910	
3900	0	32760	32839	
3901	0	32730	32534	
3902	0	32750	32708	
3903	0	32806	32656	
3904	0	32848	32775	
3905	0	32834	32716	
3906	0	32870	32828	
3907	0	32808	32676	
3908	0	32832	32764	
3909	0	32864	32768	
3910	0	32852	32866	
3911	0	32860	32935	
3912	0	32820	32913	
3913	0	32776	32926	
3914	0	32828	32836	
3915	0	32808	32823	
3916	0	32742	32747	
3917	0	32840	32798	
3918	0	32802	32484	
3919	0	32820	32716	
3920	0	32810	32506	
3921	0	32737	32486	
3922	0	32766	32598	
3923	0	32784	32708	
3924	0	32752	32622	
3925	0	32748	32775	
3926	0	32804	32790	
3927	0	32798	32858	
3928	0	32792	32932	
3929	0	32772	32906	
3930	0	32842	32712	
3931	0	32941	32916	
3932	0	32872	32935	
3933	0	32752	32828	
3934	0	32830	32632	
3935	0	32802	32728	
3936	0	32720	32661	
3937	0	32789	32622	
3938	0	32808	32543	
3939	0	32804	32600	
3940	0	32816	32510	
3941	0	32744	32663	
3942	0	32764	32767	
3943	0	32724	32734	
3944	0	32736	32622	
3945	0	32760	32533	
3946	0	32772	32707	
3947	0	32736	32762	
3948	0	32784	32823	
3949	0	32744	32822	
3950	0	32800	32880	
3951	0	32840	32803	
3952	0	32860	32703	
3953	0	32840	32734	
3954	0	32900	32775	
3955	0	32836	32860	
3956	0	32876	32871	
3957	0	32834	32964	
3958	0	32820	32660	
3959	0	32872	32678	
3960	0	32872	32806	
3961	0	32837	32710	
3962	0	32860	32682	
3963	0	32878	32660	
3964	0	32828	32688	
3965	0	32692	32866	
3966	0	32766	32916	
3967	0	32788	32746	
3968	0	32822	32690	
3969	0	32804	32770	
3970	0	32784	33148	
3971	0	32786	32772	
3972	0	32706	32791	
3973	0	32806	32661	
3974	0	32830	32818	
3975	0	32824	32684	
3976	0	32848	32628	
3977	0	32804	32519	
3978	0	32830	32577	
3979	0	32801	32542	
3980	0	32730	32774	
3981	0	32758	32862	
3982	0	32812	32838	
3983	0	32832	32884	
3984	0	32732	32910	
3985	0	32788	32839	
3986	0	32740	32822	
3987	0	32824	32900	
3988	0	32864	32734	
3989	0	32836	32816	
3990	0	32868	32748	
3991	0	32904	32760	
3992	0	32876	32742	
3993	0	32848	32814	
3994	0	32936	32812	
3995	0	32894	32910	
3996	0	32808	32826	
3997	0	32810	32824	
3998	0	32778	32865	
3999	0	32744	32708	
4000	0	32820	32730	
4001	0	32770	32655	
4002	0	32754	32883	
4003	0	32836	32860	
4004	0	32778	32874	
4005	0	32876	32704	
4006	0	32812	32688	
4007	0	32712	32702	
4008	0	32764	32788	
4009	0	32770	32714	
4010	0	32836	32886	
4011	0	32884	32738	
4012	0	32792	32692	
4013	0	32824	32634	
4014	0	32812	32792	
4015	0	32832	32656	
4016	0	32881	32647	
4017	0	32814	32638	
4018	0	32792	32747	
4019	0	32848	32775	
4020	0	32812	32887	
4021	0	32758	32752	
4022	0	32784	32724	
4023	0	32784	32854	
4024	0	32690	32814	
4025	0	32828	32874	
4026	0	32764	32860	
4027	0	32784	32726	
4028	0	32840	32644	
4029	0	32892	32839	
4030	0	32808	32654	
4031	0	32856	32726	
4032	0	32808	32775	
4033	0	32852	32898	
4034	0	32758	32784	
4035	0	32856	32602	
4036	0	32788	32892	
4037	0	32844	32823	
4038	0	32816	32682	
4039	0	32780	32592	
4040	0	32796	32670	
4041	0	32852	32724	
4042	0	32828	32720	
4043	0	32760	32766	
4044	0	32830	32708	
4045	0	32848	32672	
4046	0	32830	32762	
4047	0	32920	32710	
4048	0	32784	32815	
4049	0	32878	32866	
4050	0	32720	32870	
4051	0	32844	32774	
4052	0	32800	32710	
4053	0	32848	32716	
4054	0	32848	32878	
4055	0	32880	32744	
4056	0	32812	32930	
4057	0	32776	32840	
4058	0	32820	32894	
4059	0	32856	32746	
4060	0	32884	32788	
4061	0	32776	32625	
4062	0	32784	32698	
4063	0	32790	32636	
4064	0	32738	32548	
4065	0	32820	32538	
4066	0	32804	32675	
4067	0	32788	32708	
4068	0	32848	32684	
4069	0	32820	32508	
4070	0	32858	32913	
4071	0	32932	33031	
4072	0	32834	32903	
4073	0	32850	32815	
4074	0	32812	32642	
4075	0	32880	32700	
4076	0	32864	32674	
4077	0	32870	32588	
4078	0	32768	32668	
4079	0	32844	32598	
4080	0	32792	32518	
4081	0	32764	32752	
4082	0	32824	32852	
4083	0	32724	32956	
4084	0	32774	32951	
4085	0	32720	32810	
4086	0	32810	32918	
4087	0	32830	32874	
4088	0	32796	32922	
4089	0	32780	32938	
4090	0	32756	32814	
4091	0	32776	32945	
4092	0	32748	32704	
4093	0	32788	32755	
4094	0	32804	32762	
4095	0	32840	32625	
4096	0	32752	32498	
4097	0	32760	32932	
4098	0	32946	33148	
4099	0	32868	32967	
4100	0	32838	32760	
4101	0	32776	32559	
4102	0	32760	32727	
4103	0	32824	32622	
4104	0	32842	32656	
4105	0	32758	32732	
4106	0	32796	32775	
4107	0	32844	32796	
4108	0	32804	32765	
4109	0	32812	32852	
4110	0	32848	32796	
4111	0	32788	32840	
4112	0	32826	32700	
4113	0	32848	32720	
4114	0	32872	32644	
4115	0	32862	32796	
4116	0	32840	32762	
4117	0	32852	32822	
4118	0	32832	32750	
4119	0	32828	32724	
4120	0	32788	32730	
4121	0	32812	32820	
4122	0	32818	32750	
4123	0	32800	32719	
4124	0	32732	32644	
4125	0	32788	32725	
4126	0	32740	32654	
4127	0	32788	32684	
4128	0	32800	32636	
4129	0	32784	32630	
4130	0	32760	32630	
4131	0	32856	32720	
4132	0	32866	32675	
4133	0	32824	32734	
4134	0	32798	32775	
4135	0	32796	32890	
4136	0	32822	32916	
4137	0	32858	32945	
4138	0	32854	32790	
4139	0	32741	32842	
4140	0	32832	32900	
4141	0	32736	32821	
4142	0	32768	32519	
4143	0	32768	32614	
4144	0	32856	32775	
4145	0	32832	32775	
4146	0	32806	32812	
4147	0	32838	32725	
4148	0	32892	32802	
4149	0	32798	32730	
4150	0	32844	32832	
4151	0	32800	32751	
4152	0	32818	32834	
4153	0	32778	32888	
4154	0	32884	32742	
4155	0	32848	32788	
4156	0	32826	32774	
4157	0	32868	32775	
4158	0	32806	32744	
4159	0	32756	32880	
4160	0	32836	32880	
4161	0	32744	32748	
4162	0	32826	32775	
4163	0	32754	32743	
4164	0	32796	32770	
4165	0	32828	32750	
4166	0	32804	32812	
4167	0	32784	32854	
4168	0	32792	32756	
4169	0	32812	32606	
4170	0	32796	32653	
4171	0	32820	32890	
4172	0	32857	32868	
4173	0	32856	32871	
4174	0	32884	32804	
4175	0	32814	32903	
4176	0	32770	32916	
4177	0	32852	32744	
4178	0	32816	32754	
4179	0	32796	32879	
4180	0	32784	32730	
4181	0	32862	32540	
4182	0	32866	32602	
4183	0	32808	32816	
4184	0	32810	32927	
4185	0	32768	32964	
4186	0	32816	32815	
4187	0	32814	32826	
4188	0	32872	32770	
4189	0	32826	32823	
4190	0	32840	32732	
4191	0	32830	32722	
4192	0	32800	32794	
4193	0	32768	32664	
4194	0	32816	32684	
4195	0	32828	32735	
4196	0	32784	32726	
4197	0	32816	32668	
4198	0	32744	32698	
4199	0	32816	32686	
4200	0	32802	32647	
4201	0	32728	32718	
4202	0	32776	32622	
4203	0	32710	32716	
4204	0	32792	32647	
4205	0	32800	32800	
4206	0	32856	32756	
4207	0	32768	32784	
4208	0	32832	32820	
4209	0	32868	32793	
4210	0	32836	32871	
4211	0	32768	32750	
4212	0	32860	32857	
4213	0	32808	32754	
4214	0	32808	32664	
4215	0	32800	32720	
4216	0	32864	32828	
4217	0	32788	32775	
4218	0	32784	32698	
4219	0	32794	32740	
4220	0	32806	32814	
4221	0	32862	32708	
4222	0	32836	32676	
4223	0	32816	32676	
4224	0	32764	32742	
4225	0	32792	32726	
4226	0	32844	32708	
4227	0	32796	32775	
4228	0	32870	32758	
4229	0	32824	32744	
4230	0	32840	32742	
4231	0	32778	32806	
4232	0	32774	32868	
4233	0	32812	32874	
4234	0	32792	32796	
4235	0	32792	32892	
4236	0	32800	32804	
4237	0	32836	32768	
4238	0	32792	32926	
4239	0	32812	32896	
4240	0	32804	32886	
4241	0	32830	32836	
4242	0	32832	32794	
4243	0	32854	32746	
4244	0	32806	32775	
4245	0	32768	32647	
4246	0	32774	32784	
4247	0	32780	32796	
4248	0	32796	32822	
4249	0	32840	32798	
4250	0	32810	32926	
4251	0	32756	32874	
4252	0	32788	32878	
4253	0	32820	32855	
4254	0	32876	32800	
4255	0	32849	32802	
4256	0	32868	32820	
4257	0	32848	32756	
4258	0	32884	32772	
4259	0	32783	32882	
4260	0	32758	32775	
4261	0	32788	32759	
4262	0	32836	32735	
4263	0	32820	32868	
4264	0	32800	32828	
4265	0	32840	32811	
4266	0	32748	32784	
4267	0	32804	32598	
4268	0	32858	32756	
4269	0	32748	32692	
4270	0	32768	32647	
4271	0	32830	32903	
4272	0	32834	32926	
4273	0	32834	32868	
4274	0	32756	32839	
4275	0	32768	32798	
4276	0	32788	32872	
4277	0	32820	32748	
4278	0	32892	32760	
4279	0	32768	32670	
4280	0	32756	32720	
4281	0	32826	32772	
4282	0	32772	32734	
4283	0	32812	32652	
4284	0	32792	32798	
4285	0	32824	32766	
4286	0	32830	32578	
4287	0	32822	32612	
4288	0	32812	32676	
4289	0	32808	32810	
4290	0	32830	32775	
4291	0	32862	32932	
4292	0	32804	32788	
4293	0	32816	32703	
4294	0	32844	32711	
4295	0	32868	32642	
4296	0	32836	32666	
4297	0	32872	32872	
4298	0	32860	32812	
4299	0	32880	32736	
4300	0	32834	32696	
4301	0	32824	32668	
4302	0	32842	32766	
4303	0	32764	32826	
4304	0	32824	32748	
4305	0	32822	32690	
4306	0	32840	32578	
4307	0	32848	32694	
4308	0	32868	32602	
4309	0	32912	32632	
4310	0	32838	32750	
4311	0	32904	32798	
4312	0	32904	32884	
4313	0	32850	32956	
4314	0	32856	32960	
4315	0	32756	32903	
4316	0	32704	32910	
4317	0	32650	32703	
4318	0	32636	32614	
4319	0	32680	32519	
4320	0	32592	32386	
4321	0	32616	32423	
4322	0	32614	32506	
4323	0	32732	32554	
4324	0	32674	32695	
4325	0	32718	32807	
4326	0	32774	32775	
4327	0	32752	32804	
4328	0	32892	32838	
4329	0	32860	32870	
4330	0	32788	32753	
4331	0	32872	32752	
4332	0	32856	32784	
4333	0	32842	32862	
4334	0	32888	32878	
4335	0	32868	32876	
4336	0	32880	32916	
4337	0	32860	32848	
4338	0	32874	32830	
4339	0	32908	32748	
4340	0	32876	32654	
4341	0	32806	32740	
4342	0	32840	32800	
4343	0	32936	32852	
4344	0	32848	32870	
4345	0	32856	32871	
4346	0	32820	32742	
4347	0	32868	32807	
4348	0	32816	32852	
4349	0	32810	32884	
4350	0	32852	32804	
4351	0	32788	32710	
4352	0	32798	32760	
4353	0	32832	32788	
4354	0	32836	32738	
4355	0	32796	32772	
4356	0	32884	32628	
4357	0	32768	32642	
4358	0	32770	32647	
4359	0	32752	32660	
4360	0	32758	32791	
4361	0	32768	32711	
4362	0	32788	32788	
4363	0	32808	32887	
4364	0	32852	32822	
4365	0	32798	32699	
4366	0	32848	32711	
4367	0	32880	32754	
4368	0	32852	32930	
4369	0	32758	32794	
4370	0	32820	32892	
4371	0	32808	32836	
4372	0	32804	32840	
4373	0	32782	32874	
4374	0	32844	32895	
4375	0	32812	32812	
4376	0	32764	32839	
4377	0	32844	32864	
4378	0	32850	32902	
4379	0	32828	32768	
4380	0	32768	32760	
4381	0	32874	32764	
4382	0	32800	32880	
4383	0	32802	32862	
4384	0	32804	32738	
4385	0	32824	32790	
4386	0	32808	32746	
4387	0	32778	32820	
4388	0	32816	32714	
4389	0	32800	32863	
4390	0	32784	32798	
4391	0	32868	32792	
4392	0	32744	32812	
4393	0	32820	32872	
4394	0	32806	32750	
4395	0	32808	32672	
4396	0	32832	32764	
4397	0	32804	32812	
4398	0	32856	32688	
4399	0	32852	32772	
4400	0	32852	32782	
4401	0	32884	32762	
4402	0	32800	32642	
4403	0	32832	32843	
4404	0	32804	32940	
4405	0	32824	32764	
4406	0	32748	32743	
4407	0	32760	32706	
4408	0	32790	32592	
4409	0	32764	32582	
4410	0	32836	32807	
4411	0	32836	32858	
4412	0	32808	32772	
4413	0	32744	32839	
4414	0	32812	32853	
4415	0	32824	32758	
4416	0	32868	32636	
4417	0	32852	32647	
4418	0	32768	32604	
4419	0	32849	32612	
4420	0	32834	32732	
4421	0	32808	32804	
4422	0	32810	32810	
4423	0	32832	32816	
4424	0	32822	32828	
4425	0	32780	32728	
4426	0	32834	32807	
4427	0	32740	32839	
4428	0	32810	32732	
4429	0	32802	32708	
4430	0	32776	32793	
4431	0	32808	32768	
4432	0	32816	32774	
4433	0	32760	32748	
4434	0	32832	32834	
4435	0	32804	32770	
4436	0	32866	32720	
4437	0	32790	32634	
4438	0	32820	32694	
4439	0	32778	32727	
4440	0	32816	32774	
4441	0	32856	32804	
4442	0	32818	32590	
4443	0	32816	32625	
4444	0	32754	32764	
4445	0	32826	32928	
4446	0	32764	32720	
4447	0	32874	32846	
4448	0	32820	32682	
4449	0	32754	32722	
4450	0	32824	32714	
4451	0	32768	32900	
4452	0	32848	32844	
4453	0	32840	32844	
4454	0	32860	32736	
4455	0	32856	32785	
4456	0	32844	32668	
4457	0	32796	32490	
4458	0	32800	32567	
4459	0	32754	32972	
4460	0	32824	33024	
4461	0	32754	32794	
4462	0	32804	32792	
4463	0	32770	32836	
4464	0	32828	32806	
4465	0	32856	32788	
4466	0	32846	32760	
4467	0	32796	32952	
4468	0	32792	32832	
4469	0	32856	32743	
4470	0	32840	32704	
4471	0	32796	32606	
4472	0	32760	32647	
4473	0	32832	32670	
4474	0	32820	32706	
4475	0	32794	32678	
4476	0	32822	32775	
4477	0	32896	32882	
4478	0	32828	32828	
4479	0	32768	32820	
4480	0	32776	32704	
4481	0	32809	32794	
4482	0	32784	32744	
4483	0	32854	32796	
4484	0	32776	32874	
4485	0	32824	32815	
4486	0	32864	32875	
4487	0	32824	32806	
4488	0	32758	32756	
4489	0	32824	32668	
4490	0	32796	32742	
4491	0	32820	32698	
4492	0	32814	32686	
4493	0	32900	32755	
4494	0	32736	32915	
4495	0	32788	32956	
4496	0	32808	32680	
4497	0	32812	32722	
4498	0	32820	32652	
4499	0	32752	32828	
4500	0	32800	32902	
4501	0	32792	32828	
4502	0	32832	32820	
4503	0	32852	32775	
4504	0	32844	32712	
4505	0	32858	32740	
4506	0	32800	32820	
4507	0	32784	32766	
4508	0	32772	32743	
4509	0	32836	32676	
4510	0	32878	32740	
4511	0	32926	32698	
4512	0	32816	32798	
4513	0	32772	32591	
4514	0	32812	32708	
4515	0	32848	32854	
4516	0	32860	32818	
4517	0	32764	32822	
4518	0	32812	32807	
4519	0	32760	32856	
4520	0	32796	32956	
4521	0	32804	32958	
4522	0	32772	32866	
4523	0	32808	32948	
4524	0	32808	32928	
4525	0	32864	32943	
4526	0	32816	32748	
4527	0	32796	32679	
4528	0	32796	32744	
4529	0	32864	32708	
4530	0	32852	32628	
4531	0	32754	32800	
4532	0	32766	32814	
4533	0	32756	32758	
4534	0	32836	32755	
4535	0	32784	32775	
4536	0	32792	32849	
4537	0	32802	32646	
4538	0	32765	32686	
4539	0	32784	32646	
4540	0	32804	32615	
4541	0	32774	32558	
4542	0	32816	32752	
4543	0	32804	32718	
4544	0	32788	32786	
4545	0	32788	32711	
4546	0	32816	32775	
4547	0	32806	32680	
4548	0	32836	32792	
4549	0	32784	32772	
4550	0	32804	32718	
4551	0	32826	32710	
4552	0	32820	32756	
4553	0	32812	32736	
4554	0	32856	32834	
4555	0	32874	32820	
4556	0	32800	32807	
4557	0	32848	32794	
4558	0	32840	32822	
4559	0	32812	32756	
4560	0	32826	32758	
4561	0	32732	32762	
4562	0	32772	32656	
4563	0	32860	32756	
4564	0	32822	32872	
4565	0	32736	32775	
4566	0	32776	32806	
4567	0	32820	32686	
4568	0	32852	32754	
4569	0	32852	32708	
4570	0	32832	32846	
4571	0	32854	32671	
4572	0	32799	32710	
4573	0	32832	32724	
4574	0	32872	32900	
4575	0	32884	32738	
4576	0	32757	32800	
4577	0	32804	32788	
4578	0	32744	32854	
4579	0	32770	32702	
4580	0	32824	32842	
4581	0	32836	32775	
4582	0	32822	32862	
4583	0	32770	32676	
4584	0	32868	32703	
4585	0	32792	32840	
4586	0	32820	32807	
4587	0	32832	32775	
4588	0	32848	32796	
4589	0	32842	32748	
4590	0	32800	32872	
4591	0	32816	32814	
4592	0	32852	32764	
4593	0	32825	32858	
4594	0	32796	32740	
4595	0	32836	32842	
4596	0	32849	32702	
4597	0	32772	32684	
4598	0	32832	32723	
4599	0	32838	32678	
4600	0	32880	32703	
4601	0	32796	32766	
4602	0	32736	32775	
4603	0	32824	32683	
4604	0	32858	32775	
4605	0	32744	32740	
4606	0	32820	32726	
4607	0	32788	32751	
4608	0	32824	32812	
4609	0	32868	32760	
4610	0	32823	32775	
4611	0	32776	32688	
4612	0	32806	32809	
4613	0	32800	32818	
4614	0	32800	32823	
4615	0	32786	32761	
4616	0	32846	32823	
4617	0	32776	32892	
4618	0	32798	32782	
4619	0	32814	32844	
4620	0	32876	32764	
4621	0	32720	32790	
4622	0	32816	32710	
4623	0	32754	32722	
4624	0	32764	32671	
4625	0	32788	32724	
4626	0	32804	32704	
4627	0	32834	32828	
4628	0	32824	32814	
4629	0	32854	32708	
4630	0	32828	32622	
4631	0	32784	32720	
4632	0	32852	32830	
4633	0	32844	32835	
4634	0	32774	32756	
4635	0	32834	32818	
4636	0	32820	32756	
4637	0	32840	32840	
4638	0	32864	32688	
4639	0	32840	32812	
4640	0	32832	32732	
4641	0	32812	32775	
4642	0	32820	32734	
4643	0	32808	32768	
4644	0	32808	32752	
4645	0	32744	32724	
4646	0	32844	32634	
4647	0	32848	32654	
4648	0	32844	32743	
4649	0	32788	32644	
4650	0	32820	32772	
4651	0	32816	32666	
4652	0	32906	32880	
4653	0	32796	32799	
4654	0	32812	32757	
4655	0	32792	32844	
4656	0	32792	32924	
4657	0	32760	32903	
4658	0	32748	32879	
4659	0	32752	32878	
4660	0	32874	32846	
4661	0	32752	32798	
4662	0	32814	32774	
4663	0	32790	32742	
4664	0	32804	32804	
4665	0	32828	32852	
4666	0	32848	32855	
4667	0	32888	32656	
4668	0	32848	32834	
4669	0	32872	32764	
4670	0	32814	32748	
4671	0	32748	32714	
4672	0	32836	32656	
4673	0	32796	32748	
4674	0	32872	32834	
4675	0	32800	32800	
4676	0	32844	32798	
4677	0	32804	32609	
4678	0	32746	32788	
4679	0	32834	32650	
4680	0	32816	32687	
4681	0	32784	32714	
4682	0	32880	32730	
4683	0	32834	32830	
4684	0	32812	32862	
4685	0	32808	32788	
4686	0	32820	32647	
4687	0	32848	32715	
4688	0	32775	32636	
4689	0	32832	32742	
4690	0	32762	32694	
4691	0	32785	32752	
4692	0	32836	32880	
4693	0	32778	32897	
4694	0	32839	32926	
4695	0	32766	32836	
4696	0	32800	32816	
4697	0	32778	32830	
4698	0	32796	32750	
4699	0	32768	32698	
4700	0	32834	32796	
4701	0	32812	32732	
4702	0	32764	32756	
4703	0	32860	32670	
4704	0	32868	32866	
4705	0	32772	32936	
4706	0	32768	32871	
4707	0	32862	32902	
4708	0	32796	32800	
4709	0	32808	32926	
4710	0	32812	32732	
4711	0	32804	32738	
4712	0	32868	32670	
4713	0	32804	32596	
4714	0	32808	32814	
4715	0	32814	32772	
4716	0	32808	32706	
4717	0	32816	32810	
4718	0	32878	32726	
4719	0	32836	32764	
4720	0	32762	32644	
4721	0	32824	32732	
4722	0	32848	32816	
4723	0	32860	32724	
4724	0	32880	32700	
4725	0	32800	32720	
4726	0	32842	32760	
4727	0	32824	32694	
4728	0	32772	32785	
4729	0	32810	32738	
4730	0	32784	32866	
4731	0	32772	32852	
4732	0	32872	32799	
4733	0	32800	32754	
4734	0	32800	32692	
4735	0	32774	32744	
4736	0	32778	32718	
4737	0	32860	32720	
4738	0	32820	32738	
4739	0	32800	32862	
4740	0	32860	32832	
4741	0	32840	32704	
4742	0	32752	32812	
4743	0	32768	32700	
4744	0	32820	32808	
4745	0	32858	32830	
4746	0	32816	32842	
4747	0	32824	32775	
4748	0	32748	32884	
4749	0	32808	32838	
4750	0	32832	32774	
4751	0	32784	32740	
4752	0	32754	32756	
4753	0	32788	32796	
4754	0	32770	32742	
4755	0	32780	32775	
4756	0	32800	32728	
4757	0	32848	32768	
4758	0	32859	32671	
4759	0	32908	32775	
4760	0	32792	32734	
4761	0	32813	32758	
4762	0	32752	32764	
4763	0	32780	32796	
4764	0	32846	32758	
4765	0	32788	32688	
4766	0	32780	32714	
4767	0	32828	32714	
4768	0	32752	32800	
4769	0	32772	32810	
4770	0	32842	32786	
4771	0	32836	32722	
4772	0	32844	32657	
4773	0	32788	32798	
4774	0	32896	32727	
4775	0	32737	32704	
4776	0	32832	32730	
4777	0	32862	32814	
4778	0	32768	32802	
4779	0	32804	32839	
4780	0	32840	32860	
4781	0	32790	32868	
4782	0	32766	32830	
4783	0	32852	32758	
4784	0	32800	32731	
4785	0	32808	32752	
4786	0	32868	32927	
4787	0	32810	32959	
4788	0	32784	32849	
4789	0	32852	32748	
4790	0	32836	32800	
4791	0	32772	32760	
4792	0	32812	32762	
4793	0	32828	32708	
4794	0	32812	32818	
4795	0	32868	32738	
4796	0	32828	32807	
4797	0	32840	32812	
4798	0	32832	32836	
4799	0	32762	32728	
4800	0	32852	32734	
4801	0	32804	32687	
4802	0	32800	32710	
4803	0	32824	32679	
4804	0	32860	32750	
4805	0	32732	32768	
4806	0	32818	32847	
4807	0	32794	32750	
4808	0	32820	32756	
4809	0	32792	32736	
4810	0	32792	32836	
4811	0	32844	32774	
4812	0	32832	32692	
4813	0	32788	32770	
4814	0	32804	32716	
4815	0	32745	32752	
4816	0	32782	32682	
4817	0	32754	32788	
4818	0	32854	32647	
4819	0	32820	32736	
4820	0	32800	32711	
4821	0	32842	32790	
4822	0	32792	32838	
4823	0	32776	32692	
4824	0	32792	32807	
4825	0	32778	32769	
4826	0	32788	32784	
4827	0	32820	32714	
4828	0	32846	32884	
4829	0	32860	32764	
4830	0	32860	32752	
4831	0	32856	32734	
4832	0	32768	32800	
4833	0	32868	32768	
4834	0	32860	32750	
4835	0	32836	32706	
4836	0	32820	32769	
4837	0	32816	32912	
4838	0	32856	32828	
4839	0	32806	32801	
4840	0	32820	32775	
4841	0	32812	32804	
4842	0	32774	32732	
4843	0	32780	32710	
4844	0	32712	32666	
4845	0	32792	32840	
4846	0	32788	32854	
4847	0	32756	32727	
4848	0	32796	32836	
4849	0	32770	32814	
4850	0	32768	32766	
4851	0	32794	32820	
4852	0	32792	32864	
4853	0	32830	32968	
4854	0	32808	32882	
4855	0	32812	32752	
4856	0	32794	32775	
4857	0	32872	32692	
4858	0	32854	32794	
4859	0	32860	32754	
4860	0	32868	32764	
4861	0	32852	32628	
4862	0	32756	32708	
4863	0	32794	32761	
4864	0	32858	32934	
4865	0	32816	32720	
4866	0	32860	32820	
4867	0	32798	32644	
4868	0	32774	32702	
4869	0	32794	32666	
4870	0	32772	32775	
4871	0	32880	32854	
4872	0	32812	32668	
4873	0	32774	32758	
4874	0	32804	32704	
4875	0	32864	32871	
4876	0	32836	32761	
4877	0	32822	32774	
4878	0	32802	32732	
4879	0	32820	32826	
4880	0	32814	32775	
4881	0	32804	32750	
4882	0	32854	32758	
4883	0	32828	32685	
4884	0	32796	32849	
4885	0	32748	32830	
4886	0	32788	32846	
4887	0	32844	32720	
4888	0	32848	32724	
4889	0	32864	32624	
4890	0	32754	32751	
4891	0	32776	32735	
4892	0	32816	32764	
4893	0	32788	32644	
4894	0	32778	32768	
4895	0	32820	32706	
4896	0	32822	32772	
4897	0	32824	32679	
4898	0	32720	32742	
4899	0	32798	32800	
4900	0	32767	32850	
4901	0	32816	32914	
4902	0	32796	32790	
4903	0	32800	32726	
4904	0	32858	32708	
4905	0	32858	32614	
4906	0	32848	32705	
4907	0	32808	32718	
4908	0	32792	32839	
4909	0	32806	32775	
4910	0	32788	32710	
4911	0	32764	32708	
4912	0	32834	32775	
4913	0	32800	32836	
4914	0	32788	32775	
4915	0	32878	32710	
4916	0	32820	32647	
4917	0	32802	32618	
4918	0	32804	32767	
4919	0	32764	32854	
4920	0	32728	32762	
4921	0	32756	32760	
4922	0	32844	32748	
4923	0	32768	32748	
4924	0	32824	32740	
4925	0	32811	32730	
4926	0	32784	32775	
4927	0	32834	32656	
4928	0	32788	32720	
4929	0	32836	32775	
4930	0	32810	32687	
4931	0	32792	32816	
4932	0	32824	32742	
4933	0	32836	32772	
4934	0	32834	32767	
4935	0	32848	32836	
4936	0	32800	32812	
4937	0	32810	32696	
4938	0	32870	32750	
4939	0	32866	32866	
4940	0	32800	32846	
4941	0	32836	32782	
4942	0	32816	32868	
4943	0	32860	32758	
4944	0	32832	32742	
4945	0	32808	32836	
4946	0	32730	32922	
4947	0	32878	32900	
4948	0	32845	32849	
4949	0	32836	32804	
4950	0	32874	32714	
4951	0	32828	32839	
4952	0	32824	32846	
4953	0	32836	32790	
4954	0	32852	32992	
4955	0	32852	32946	
4956	0	32896	32986	
4957	0	32888	33024	
4958	0	32844	32934	
4959	0	32854	32772	
4960	0	32904	32884	
4961	0	32830	32744	
4962	0	32816	32729	
4963	0	32844	32720	
4964	0	32882	32656	
4965	0	32814	32728	
4966	0	32752	32692	
4967	0	32724	32700	
4968	0	32650	32662	
4969	0	32650	32500	
4970	0	32640	32360	
4971	0	32596	32344	
4972	0	32570	32462	
4973	0	32632	32492	
4974	0	32680	32588	
4975	0	32810	32688	
4976	0	32796	32832	
4977	0	32776	32894	
4978	0	32862	32911	
4979	0	32792	32886	
4980	0	32846	32806	
4981	0	32804	32907	
4982	0	32736	32826	
4983	0	32848	32838	
4984	0	32764	32878	
4985	0	32928	32870	
4986	0	32880	32848	
4987	0	32936	32750	
4988	0	32946	32702	
4989	0	32762	32698	
4990	0	32862	32768	
4991	0	32852	32740	
4992	0	32914	32712	
4993	0	32848	32764	
4994	0	32898	32764	
4995	0	32866	32784	
4996	0	32852	32686	
4997	0	32780	32766	
4998	0	32896	32823	
4999	0	32872	32897	
5000	0	32834	32844	
5001	0	32776	32844	
5002	0	32770	32838	
5003	0	32816	32882	
5004	0	32766	32862	
5005	0	32784	32796	
5006	0	32808	32884	
5007	0	32752	32818	
5008	0	32808	32710	
5009	0	32788	32734	
5010	0	32826	32743	
5011	0	32796	32816	
5012	0	32796	32850	
5013	0	32864	32770	
5014	0	32784	32716	
5015	0	32830	32708	
5016	0	32752	32775	
5017	0	32820	32783	
5018	0	32792	32808	
5019	0	32828	32746	
5020	0	32788	32775	
5021	0	32824	32858	
5022	0	32760	32836	
5023	0	32878	32824	
5024	0	32800	32820	
5025	0	32836	32808	
5026	0	32800	32839	
5027	0	32840	32796	
5028	0	32806	32756	
5029	0	32808	32830	
5030	0	32836	32798	
5031	0	32822	32738	
5032	0	32828	32612	
5033	0	32874	32668	
5034	0	32812	32685	
5035	0	32764	32695	
5036	0	32704	32839	
5037	0	32746	32774	
5038	0	32872	32688	
5039	0	32796	32812	
5040	0	32756	32679	
5041	0	32724	32676	
5042	0	32772	32788	
5043	0	32796	32871	
5044	0	32832	32871	
5045	0	32802	32730	
5046	0	32828	32666	
5047	0	32864	32868	
5048	0	32868	32804	
5049	0	32888	32760	
5050	0	32832	32874	
5051	0	32832	32890	
5052	0	32834	32840	
5053	0	32924	32740	
5054	0	32842	32650	
5055	0	32860	32640	
5056	0	32796	32628	
5057	0	32804	32622	
5058	0	32824	32764	
5059	0	32842	32775	
5060	0	32844	32734	
5061	0	32800	32887	
5062	0	32784	32756	
5063	0	32802	32807	
5064	0	32824	32888	
5065	0	32816	32818	
5066	0	32816	32720	
5067	0	32780	32652	
5068	0	32852	32790	
5069	0	32856	32702	
5070	0	32750	32799	
5071	0	32826	32742	
5072	0	32792	32850	
5073	0	32760	32844	
5074	0	32846	32772	
5075	0	32838	32754	
5076	0	32774	32720	
5077	0	32840	32678	
5078	0	32816	32885	
5079	0	32812	32849	
5080	0	32872	32743	
5081	0	32876	32865	
5082	0	32808	32756	
5083	0	32784	32664	
5084	0	32888	32684	
5085	0	32770	32767	
5086	0	32832	32817	
5087	0	32834	32792	
5088	0	32816	32769	
5089	0	32768	32758	
5090	0	32810	32692	
5091	0	32760	32743	
5092	0	32760	32774	
5093	0	32866	32770	
5094	0	32768	32775	
5095	0	32790	32660	
5096	0	32848	32666	
5097	0	32852	32772	
5098	0	32798	32824	
5099	0	32824	32838	
5100	0	32840	32838	
5101	0	32816	32764	
5102	0	32712	32912	
5103	0	32804	32791	
5104	0	32810	32828	
5105	0	32752	32884	
5106	0	32830	32788	
5107	0	32884	32655	
5108	0	32810	32824	
5109	0	32864	32810	
5110	0	32816	32767	
5111	0	32828	32810	
5112	0	32796	32730	
5113	0	32864	32628	
5114	0	32818	32884	
5115	0	32796	32833	
5116	0	32754	32802	
5117	0	32866	32730	
5118	0	32792	32740	
5119	0	32790	32730	
5120	0	32828	32796	
5121	0	32808	32879	
5122	0	32776	32854	
5123	0	32836	32790	
5124	0	32804	32730	
5125	0	32820	32698	
5126	0	32848	32647	
5127	0	32820	32746	
5128	0	32772	32852	
5129	0	32824	32720	
5130	0	32832	32814	
5131	0	32840	32894	
5132	0	32806	32807	
5133	0	32804	32724	
5134	0	32796	32678	
5135	0	32828	32640	
5136	0	32816	32838	
5137	0	32876	32740	
5138	0	32850	32761	
5139	0	32806	32820	
5140	0	32834	32766	
5141	0	32824	32679	
5142	0	32824	32871	
5143	0	32774	32904	
5144	0	32860	32832	
5145	0	32840	32764	
5146	0	32824	32794	
5147	0	32924	32608	
5148	0	32832	32647	
5149	0	32823	32680	
5150	0	32796	32702	
5151	0	32748	32743	
5152	0	32816	32807	
5153	0	32802	32796	
5154	0	32808	32800	
5155	0	32840	32775	
5156	0	32810	32764	
5157	0	32778	32687	
5158	0	32906	32699	
5159	0	32866	32764	
5160	0	32780	32736	
5161	0	32784	32888	
5162	0	32716	32756	
5163	0	32854	32844	
5164	0	32820	32826	
5165	0	32802	32839	
5166	0	32824	32790	
5167	0	32804	32772	
5168	0	32760	32910	
5169	0	32836	32732	
5170	0	32800	32768	
5171	0	32824	32812	
5172	0	32798	32775	
5173	0	32812	32693	
5174	0	32796	32614	
5175	0	32800	32743	
5176	0	32808	32772	
5177	0	32812	32750	
5178	0	32818	32710	
5179	0	32792	32718	
5180	0	32780	32710	
5181	0	32872	32730	
5182	0	32774	32874	
5183	0	32824	32764	
5184	0	32832	32831	
5185	0	32816	32708	
5186	0	32788	32688	
5187	0	32782	32732	
5188	0	32824	32820	
5189	0	32782	32762	
5190	0	32838	32852	
5191	0	32820	32756	
5192	0	32752	32658	
5193	0	32802	32666	
5194	0	32814	32688	
5195	0	32864	32716	
5196	0	32782	32756	
5197	0	32864	32852	
5198	0	32832	32775	
5199	0	32758	32732	
5200	0	32832	32753	
5201	0	32760	32689	
5202	0	32794	32682	
5203	0	32788	32784	
5204	0	32808	32733	
5205	0	32788	32801	
5206	0	32708	32740	
5207	0	32888	32788	
5208	0	32796	32900	
5209	0	32814	32870	
5210	0	32780	32788	
5211	0	32796	32706	
5212	0	32830	32594	
5213	0	32816	32590	
5214	0	32841	32728	
5215	0	32862	32774	
5216	0	32812	32710	
5217	0	32822	32734	
5218	0	32808	32868	
5219	0	32780	32812	
5220	0	32920	32840	
5221	0	32852	32746	
5222	0	32836	32646	
5223	0	32828	32695	
5224	0	32760	32808	
5225	0	32782	32804	
5226	0	32820	32836	
5227	0	32772	32818	
5228	0	32744	32716	
5229	0	32748	32816	
5230	0	32792	32788	
5231	0	32804	32760	
5232	0	32844	32719	
5233	0	32796	32718	
5234	0	32786	32676	
5235	0	32844	32707	
5236	0	32772	32754	
5237	0	32834	32711	
5238	0	32810	32748	
5239	0	32792	32766	
5240	0	32784	32798	
5241	0	32886	32668	
5242	0	32878	32714	
5243	0	32772	32710	
5244	0	32758	32846	
5245	0	32842	32766	
5246	0	32758	32854	
5247	0	32796	32871	
5248	0	32792	32724	
5249	0	32780	32836	
5250	0	32788	32788	
5251	0	32860	32823	
5252	0	32844	32700	
5253	0	32800	32708	
5254	0	32732	32786	
5255	0	32836	32802	
5256	0	32856	32772	
5257	0	32792	32716	
5258	0	32804	32702	
5259	0	32876	32828	
5260	0	32832	32754	
5261	0	32832	32752	
5262	0	32792	32687	
5263	0	32868	32716	
5264	0	32770	32879	
5265	0	32872	32724	
5266	0	32782	32862	
5267	0	32768	32788	
5268	0	32778	32700	
5269	0	32826	32640	
5270	0	32790	32713	
5271	0	32836	32758	
5272	0	32852	32858	
5273	0	32768	32775	
5274	0	32852	32810	
5275	0	32810	32876	
5276	0	32908	32774	
5277	0	32874	32822	
5278	0	32808	32796	
5279	0	32770	32629	
5280	0	32828	32796	
5281	0	32852	32798	
5282	0	32834	32824	
5283	0	32744	32816	
5284	0	32738	32727	
5285	0	32792	32758	
5286	0	32820	32648	
5287	0	32836	32696	
5288	0	32872	32846	
5289	0	32768	32810	
5290	0	32764	32756	
5291	0	32778	32862	
5292	0	32828	32820	
5293	0	32808	32818	
5294	0	32801	32788	
5295	0	32808	32740	
5296	0	32740	32578	
5297	0	32790	32647	
5298	0	32822	32748	
5299	0	32844	32712	
5300	0	32788	32741	
5301	0	32834	32695	
5302	0	32852	32760	
5303	0	32824	32740	
5304	0	32800	32796	
5305	0	32848	32712	
5306	0	32796	32770	
5307	0	32844	32696	
5308	0	32756	32673	
5309	0	32836	32615	
5310	0	32798	32647	
5311	0	32806	32852	
5312	0	32696	32695	
5313	0	32804	32774	
5314	0	32828	32874	
5315	0	32830	32660	
5316	0	32774	32810	
5317	0	32856	32775	
5318	0	32852	32774	
5319	0	32790	32872	
5320	0	32836	32766	
5321	0	32806	32726	
5322	0	32788	32775	
5323	0	32752	32807	
5324	0	32760	32775	
5325	0	32732	32792	
5326	0	32792	32730	
5327	0	32810	32764	
5328	0	32816	32839	
5329	0	32836	32798	
5330	0	32774	32910	
5331	0	32838	32716	
5332	0	32820	32759	
5333	0	32876	32672	
5334	0	32812	32666	
5335	0	32796	32806	
5336	0	32784	32656	
5337	0	32852	32702	
5338	0	32898	32854	
5339	0	32864	32752	
5340	0	32812	32820	
5341	0	32852	32724	
5342	0	32906	32695	
5343	0	32884	32820	
5344	0	32830	32775	
5345	0	32842	32740	
5346	0	32816	32822	
5347	0	32762	32881	
5348	0	32818	32624	
5349	0	32816	32678	
5350	0	32816	32862	
5351	0	32812	32823	
5352	0	32775	32730	
5353	0	32764	32823	
5354	0	32850	32762	
5355	0	32860	32656	
5356	0	32830	32807	
5357	0	32832	32710	
5358	0	32752	32788	
5359	0	32848	32768	
5360	0	32824	32726	
5361	0	32774	32670	
5362	0	32824	32806	
5363	0	32884	32692	
5364	0	32852	32855	
5365	0	32788	32840	
5366	0	32788	32730	
5367	0	32864	32756	
5368	0	32852	32848	
5369	0	32808	32798	
5370	0	32756	32798	
5371	0	32858	32822	
5372	0	32828	32770	
5373	0	32832	32690	
5374	0	32840	32606	
5375	0	32892	32682	
5376	0	32862	32694	
5377	0	32812	32775	
5378	0	32820	32832	
5379	0	32748	32860	
5380	0	32808	32836	
5381	0	32796	32798	
5382	0	32782	32788	
5383	0	32782	32703	
5384	0	32778	32703	
5385	0	32800	32646	
5386	0	32724	32724	
5387	0	32876	32796	
5388	0	32840	32844	
5389	0	32716	32916	
5390	0	32790	32810	
5391	0	32802	32700	
5392	0	32808	32822	
5393	0	32852	32796	
5394	0	32844	32758	
5395	0	32832	32838	
5396	0	32824	32647	
5397	0	32820	32714	
5398	0	32744	32852	
5399	0	32884	32775	
5400	0	32824	32734	
5401	0	32822	32676	
5402	0	32804	32678	
5403	0	32768	32796	
5404	0	32804	32748	
5405	0	32896	32814	
5406	0	32816	32714	
5407	0	32818	32710	
5408	0	32802	32736	
5409	0	32828	32814	
5410	0	32862	32740	
5411	0	32840	32764	
5412	0	32816	32766	
5413	0	32850	32728	
5414	0	32838	32836	
5415	0	32840	32838	
5416	0	32820	32748	
5417	0	32890	32688	
5418	0	32810	32798	
5419	0	32740	32758	
5420	0	32864	32810	
5421	0	32820	32711	
5422	0	32782	32692	
5423	0	32808	32788	
5424	0	32822	32818	
5425	0	32732	32706	
5426	0	32800	32775	
5427	0	32764	32849	
5428	0	32812	32744	
5429	0	32832	32727	
5430	0	32800	32715	
5431	0	32816	32764	
5432	0	32712	32766	
5433	0	32784	32680	
5434	0	32796	32846	
5435	0	32816	32734	
5436	0	32824	32690	
5437	0	32824	32770	
5438	0	32764	32826	
5439	0	32840	32826	
5440	0	32880	32703	
5441	0	32876	32812	
5442	0	32817	32790	
5443	0	32876	32718	
5444	0	32840	32832	
5445	0	32822	32870	
5446	0	32840	32788	
5447	0	32774	32796	
5448	0	32818	32742	
5449	0	32820	32728	
5450	0	32780	32766	
5451	0	32792	32775	
5452	0	32788	32680	
5453	0	32816	32674	
5454	0	32916	32758	
5455	0	32760	32726	
5456	0	32814	32790	
5457	0	32766	32760	
5458	0	32804	32660	
5459	0	32772	32734	
5460	0	32832	32852	
5461	0	32802	32766	
5462	0	32720	32708	
5463	0	32778	32804	
5464	0	32776	32790	
5465	0	32770	32835	
5466	0	32798	32694	
5467	0	32760	32870	
5468	0	32824	32775	
5469	0	32780	32764	
5470	0	32814	32728	
5471	0	32848	32832	
5472	0	32824	32762	
5473	0	32784	32838	
5474	0	32880	32774	
5475	0	32822	32852	
5476	0	32788	32830	
5477	0	32828	32639	
5478	0	32824	32790	
5479	0	32828	32742	
5480	0	32808	32602	
5481	0	32838	32647	
5482	0	32820	32768	
5483	0	32881	32856	
5484	0	32840	32718	
5485	0	32878	32798	
5486	0	32872	32735	
5487	0	32794	32688	
5488	0	32844	32775	
5489	0	32800	32833	
5490	0	32764	32796	
5491	0	32848	32800	
5492	0	32808	32740	
5493	0	32784	32623	
5494	0	32764	32710	
5495	0	32778	32828	
5496	0	32780	32798	
5497	0	32804	32748	
5498	0	32890	32674	
5499	0	32804	32880	
5500	0	32828	32796	
5501	0	32834	32804	
5502	0	32816	32795	
5503	0	32824	32800	
5504	0	32768	32756	
5505	0	32834	32674	
5506	0	32744	32774	
5507	0	32890	32706	
5508	0	32778	32756	
5509	0	32834	32724	
5510	0	32816	32696	
5511	0	32802	32700	
5512	0	32794	32746	
5513	0	32752	32790	
5514	0	32824	32838	
5515	0	32826	32775	
5516	0	32864	32772	
5517	0	32824	32828	
5518	0	32800	32672	
5519	0	32744	32715	
5520	0	32775	32832	
5521	0	32836	32807	
5522	0	32822	32816	
5523	0	32874	32716	
5524	0	32810	32796	
5525	0	32872	32862	
5526	0	32738	32850	
5527	0	32798	32742	
5528	0	32825	32695	
5529	0	32848	32775	
5530	0	32840	32857	
5531	0	32872	32736	
5532	0	32828	32756	
5533	0	32826	32714	
5534	0	32788	32695	
5535	0	32816	32733	
5536	0	32832	32800	
5537	0	32772	32775	
5538	0	32788	32769	
5539	0	32832	32735	
5540	0	32808	32710	
5541	0	32856	32760	
5542	0	32832	32872	
5543	0	32804	32902	
5544	0	32740	32820	
5545	0	32812	32828	
5546	0	32808	32807	
5547	0	32874	32760	
5548	0	32794	32762	
5549	0	32788	32807	
5550	0	32804	32804	
5551	0	32784	32740	
5552	0	32806	32720	
5553	0	32824	32624	
5554	0	32844	32697	
5555	0	32858	32856	
5556	0	32872	32836	
5557	0	32828	32802	
5558	0	32800	32746	
5559	0	32772	32692	
5560	0	32816	32748	
5561	0	32802	32750	
5562	0	32784	32752	
5563	0	32816	32775	
5564	0	32756	32817	
5565	0	32794	32806	
5566	0	32816	32878	
5567	0	32820	32846	
5568	0	32798	32754	
5569	0	32710	32714	
5570	0	32812	32788	
5571	0	32784	32792	
5572	0	32792	32678	
5573	0	32784	32760	
5574	0	32732	32720	
5575	0	32782	32699	
5576	0	32792	32682	
5577	0	32796	32719	
5578	0	32814	32698	
5579	0	32792	32828	
5580	0	32864	32770	
5581	0	32788	32868	
5582	0	32788	32762	
5583	0	32840	32838	
5584	0	32820	32804	
5585	0	32820	32800	
5586	0	32812	32810	
5587	0	32836	32716	
5588	0	32840	32764	
5589	0	32848	32775	
5590	0	32868	32718	
5591	0	32860	32802	
5592	0	32809	32858	
5593	0	32896	32935	
5594	0	32816	32868	
5595	0	32864	32886	
5596	0	32830	32806	
5597	0	32860	32724	
5598	0	32842	32820	
5599	0	32868	32712	
5600	0	32824	32892	
5601	0	32862	32804	
5602	0	32808	32820	
5603	0	32918	32874	
5604	0	32936	32852	
5605	0	32876	32775	
5606	0	32836	32730	
5607	0	32852	32775	
5608	0	32828	32774	
5609	0	32788	32714	
5610	0	32688	32566	
5611	0	32688	32559	
5612	0	32638	32482	
5613	0	32646	32418	
5614	0	32625	32380	
5615	0	32632	32464	
5616	0	32668	32544	
5617	0	32680	32662	
5618	0	32726	32606	
5619	0	32788	32674	
5620	0	32844	32647	
5621	0	32802	32775	
5622	0	32769	32884	
5623	0	32836	32842	
5624	0	32836	32842	
5625	0	32840	32899	
5626	0	32824	32878	
5627	0	32832	32896	
5628	0	32840	32794	
5629	0	32906	32878	
5630	0	32932	32984	
5631	0	32862	32839	
5632	0	32872	32804	
5633	0	32852	32860	
5634	0	32922	32866	
5635	0	32800	32836	
5636	0	32884	32775	
5637	0	32820	32748	
5638	0	32848	32821	
5639	0	32856	32839	
5640	0	32842	32830	
5641	0	32808	32775	
5642	0	32764	32750	
5643	0	32804	32640	
5644	0	32800	32688	
5645	0	32764	32870	
5646	0	32804	32840	
5647	0	32800	32810	
5648	0	32772	32775	
5649	0	32782	32805	
5650	0	32788	32838	
5651	0	32778	32775	
5652	0	32781	32750	
5653	0	32824	32719	
5654	0	32862	32710	
5655	0	32864	32702	
5656	0	32804	32650	
5657	0	32804	32742	
5658	0	32792	32775	
5659	0	32820	32775	
5660	0	32840	32774	
5661	0	32830	32846	
5662	0	32828	32884	
5663	0	32860	32800	
5664	0	32798	32860	
5665	0	32788	32770	
5666	0	32748	32747	
5667	0	32836	32722	
5668	0	32828	32700	
5669	0	32758	32740	
5670	0	32842	32775	
5671	0	32796	32746	
5672	0	32776	32775	
5673	0	32804	32775	
5674	0	32834	32806	
5675	0	32808	32774	
5676	0	32768	32772	
5677	0	32792	32708	
5678	0	32800	32807	
5679	0	32766	32866	
5680	0	32776	32754	
5681	0	32752	32764	
5682	0	32808	32767	
5683	0	32872	32774	
5684	0	32778	32748	
5685	0	32826	32775	
5686	0	32816	32714	
5687	0	32856	32766	
5688	0	32756	32772	
5689	0	32824	32743	
5690	0	32936	32710	
5691	0	32818	32766	
5692	0	32796	32838	
5693	0	32848	32804	
5694	0	32816	32856	
5695	0	32824	32830	
5696	0	32820	32810	
5697	0	32832	32836	
5698	0	32840	32762	
5699	0	32820	32772	
5700	0	32848	32710	
5701	0	32756	32666	
5702	0	32796	32722	
5703	0	32812	32826	
5704	0	32798	32834	
5705	0	32788	32804	
5706	0	32772	32711	
5707	0	32816	32748	
5708	0	32796	32758	
5709	0	32796	32895	
5710	0	32844	32790	
5711	0	32804	32700	
5712	0	32836	32644	
5713	0	32880	32755	
5714	0	32828	32775	
5715	0	32798	32760	
5716	0	32808	32727	
5717	0	32780	32794	
5718	0	32862	32743	
5719	0	32842	32775	
5720	0	32752	32695	
5721	0	32864	32710	
5722	0	32806	32798	
5723	0	32812	32860	
5724	0	32832	32772	
5725	0	32836	32804	
5726	0	32844	32726	
5727	0	32824	32714	
5728	0	32856	32743	
5729	0	32814	32846	
5730	0	32776	32788	
5731	0	32852	32708	
5732	0	32804	32744	
5733	0	32828	32854	
5734	0	32772	32758	
5735	0	32816	32606	
5736	0	32844	32764	
5737	0	32816	32678	
5738	0	32820	32814	
5739	0	32864	32692	
5740	0	32810	32839	
5741	0	32832	32747	
5742	0	32844	32820	
5743	0	32844	32696	
5744	0	32874	32673	
5745	0	32824	32766	
5746	0	32720	32804	
5747	0	32742	32724	
5748	0	32782	32698	
5749	0	32762	32811	
5750	0	32790	32734	
5751	0	32736	32823	
5752	0	32724	32814	
5753	0	32712	32710	
5754	0	32728	32774	
5755	0	32820	32854	
5756	0	32746	32869	
5757	0	32764	32748	
5758	0	32824	32770	
5759	0	32844	32846	
5760	0	32792	32860	
5761	0	32816	32800	
5762	0	32816	32662	
5763	0	32824	32698	
5764	0	32820	32756	
5765	0	32808	32878	
5766	0	32756	32710	
5767	0	32902	32719	
5768	0	32836	32768	
5769	0	32832	32761	
5770	0	32842	32756	
5771	0	32824	32738	
5772	0	32860	32751	
5773	0	32808	32852	
5774	0	32836	32835	
5775	0	32858	32770	
5776	0	32854	32818	
5777	0	32838	32775	
5778	0	32806	32743	
5779	0	32840	32788	
5780	0	32836	32743	
5781	0	32880	32764	
5782	0	32784	32734	
5783	0	32804	32788	
5784	0	32856	32746	
5785	0	32840	32859	
5786	0	32736	32764	
5787	0	32744	32686	
5788	0	32760	32668	
5789	0	32762	32702	
5790	0	32770	32736	
5791	0	32788	32832	
5792	0	32856	32743	
5793	0	32906	32824	
5794	0	32796	32805	
5795	0	32828	32796	
5796	0	32865	32746	
5797	0	32788	32652	
5798	0	32840	32746	
5799	0	32888	32774	
5800	0	32848	32872	
5801	0	32864	32752	
5802	0	32834	32744	
5803	0	32788	32682	
5804	0	32832	32730	
5805	0	32760	32830	
5806	0	32900	32762	
5807	0	32812	32868	
5808	0	32904	32784	
5809	0	32748	32810	
5810	0	32804	32722	
5811	0	32816	32788	
5812	0	32792	32775	
5813	0	32768	32678	
5814	0	32858	32728	
5815	0	32778	32740	
5816	0	32800	32676	
5817	0	32852	32696	
5818	0	32808	32738	
5819	0	32808	32935	
5820	0	32804	32816	
5821	0	32816	32684	
5822	0	32820	32708	
5823	0	32840	32680	
5824	0	32810	32746	
5825	0	32804	32752	
5826	0	32826	32696	
5827	0	32818	32654	
5828	0	32836	32710	
5829	0	32824	32752	
5830	0	32721	32714	
5831	0	32784	32710	
5832	0	32816	32658	
5833	0	32796	32771	
5834	0	32786	32744	
5835	0	32798	32694	
5836	0	32798	32622	
5837	0	32744	32676	
5838	0	32848	32660	
5839	0	32832	32815	
5840	0	32862	32788	
5841	0	32868	32799	
5842	0	32790	32752	
5843	0	32768	32760	
5844	0	32766	32870	
5845	0	32756	32858	
5846	0	32836	32853	
5847	0	32792	32778	
5848	0	32800	32755	
5849	0	32796	32784	
5850	0	32772	32775	
5851	0	32840	32811	
5852	0	32860	32788	
5853	0	32796	32764	
5854	0	32788	32728	
5855	0	32836	32628	
5856	0	32760	32727	
5857	0	32728	32670	
5858	0	32794	32775	
5859	0	32804	32740	
5860	0	32794	32751	
5861	0	32804	32758	
5862	0	32838	32844	
5863	0	32860	32908	
5864	0	32808	32804	
5865	0	32808	32676	
5866	0	32776	32660	
5867	0	32786	32676	
5868	0	32846	32804	
5869	0	32756	32758	
5870	0	32800	32762	
5871	0	32762	32751	
5872	0	32804	32890	
5873	0	32858	32866	
5874	0	32852	32866	
5875	0	32784	32737	
5876	0	32832	32722	
5877	0	32926	32644	
5878	0	32814	32690	
5879	0	32824	32686	
5880	0	32800	32722	
5881	0	32758	32680	
5882	0	32808	32872	
5883	0	32772	32812	
5884	0	32836	32786	
5885	0	32850	32794	
5886	0	32800	32807	
5887	0	32810	32788	
5888	0	32804	32758	
5889	0	32792	32726	
5890	0	32796	32646	
5891	0	32820	32738	
5892	0	32814	32641	
5893	0	32856	32644	
5894	0	32874	32710	
5895	0	32768	32690	
5896	0	32804	32780	
5897	0	32778	32775	
5898	0	32752	32703	
5899	0	32788	32692	
5900	0	32782	32744	
5901	0	32880	32660	
5902	0	32848	32764	
5903	0	32802	32740	
5904	0	32816	32806	
5905	0	32830	32935	
5906	0	32782	32750	
5907	0	32772	32706	
5908	0	32774	32752	
5909	0	32840	32736	
5910	0	32780	32794	
5911	0	32796	32747	
5912	0	32808	32760	
5913	0	32772	32788	
5914	0	32848	32828	
5915	0	32768	32788	
5916	0	32792	32774	
5917	0	32812	32743	
5918	0	32812	32692	
5919	0	32812	32696	
5920	0	32848	32828	
5921	0	32942	32788	
5922	0	32798	32738	
5923	0	32796	32764	
5924	0	32856	32746	
5925	0	32868	32734	
5926	0	32800	32722	
5927	0	32864	32798	
5928	0	32872	32730	
5929	0	32810	32736	
5930	0	32758	32664	
5931	0	32792	32775	
5932	0	32744	32756	
5933	0	32840	32807	
5934	0	32780	32871	
5935	0	32832	32823	
5936	0	32830	32804	
5937	0	32826	32694	
5938	0	32852	32710	
5939	0	32836	32658	
5940	0	32824	32646	
5941	0	32772	32864	
5942	0	32792	32862	
5943	0	32860	32858	
5944	0	32812	32788	
5945	0	32848	32750	
5946	0	32780	32775	
5947	0	32892	32775	
5948	0	32722	32620	
5949	0	32812	32684	
5950	0	32788	32666	
5951	0	32836	32832	
5952	0	32784	32775	
5953	0	32786	32747	
5954	0	32794	32742	
5955	0	32760	32734	
5956	0	32730	32636	
5957	0	32832	32719	
5958	0	32804	32846	
5959	0	32780	32814	
5960	0	32888	32743	
5961	0	32748	32798	
5962	0	32824	32842	
5963	0	32792	32735	
5964	0	32782	32705	
5965	0	32840	32740	
5966	0	32764	32718	
5967	0	32764	32858	
5968	0	32814	32804	
5969	0	32904	32766	
5970	0	32824	32739	
5971	0	32758	32702	
5972	0	32876	32726	
5973	0	32820	32764	
5974	0	32804	32828	
5975	0	32796	32870	
5976	0	32762	32842	
5977	0	32820	32818	
5978	0	32752	32810	
5979	0	32794	32724	
5980	0	32785	32694	
5981	0	32802	32694	
5982	0	32764	32684	
5983	0	32798	32830	
5984	0	32872	32824	
5985	0	32794	32847	
5986	0	32912	32816	
5987	0	32852	32775	
5988	0	32800	32786	
5989	0	32764	32786	
5990	0	32812	32794	
5991	0	32864	32792	
5992	0	32768	32692	
5993	0	32852	32696	
5994	0	32852	32722	
5995	0	32782	32767	
5996	0	32812	32806	
5997	0	32836	32754	
5998	0	32824	32834	
5999	0	32786	32775	
6000	0	32808	32800	
6001	0	32872	32724	
6002	0	32740	32782	
6003	0	32760	32775	
6004	0	32782	32826	
6005	0	32800	32754	
6006	0	32860	32711	
6007	0	32840	32807	
6008	0	32767	32706	
6009	0	32796	32775	
6010	0	32884	32802	
6011	0	32852	32672	
6012	0	32844	32666	
