# OpenSignals Text File Format. Version 1
# {"00:07:80:8C:0A:39": {"position": 0, "device": "biosignalsplux", "device name": "00:07:80:8C:0A:39", "device connection": "BTH00:07:80:8C:0A:39", "sampling rate": 1000, "resolution": [16, 16], "firmware version": 776, "comments": "", "keywords": "", "mode": 0, "sync interval": 2, "date": "2023-3-20", "time": "10:40:44.357", "channels": [1, 2], "sensor": ["EMG", "EMG"], "label": ["CH1", "CH2"], "column": ["nSeq", "DI", "CH1", "CH2"], "special": [{"SpO2": [80, 40, 5, 4, 3, 3]}, {"SpO2": [80, 40, 5, 4, 3, 3]}, {"SpO2": [80, 40, 5, 4, 3, 3]}, {"SpO2": [80, 40, 5, 4, 3, 3]}, {"SpO2": [80, 40, 5, 4, 3, 3]}, {"SpO2": [80, 40, 5, 4, 3, 3]}, {"SpO2": [80, 40, 5, 4, 3, 3]}, {"SpO2": [80, 40, 5, 4, 3, 3]}], "digital IO": [0, 1], "sleeve color": ["gray", "yellow"], "convertedValues": 0}}
# EndOfHeader
0	0	32788	32752	
1	0	32792	32699	
2	0	32740	32800	
3	0	32800	32802	
4	0	32812	32828	
5	0	32814	32724	
6	0	32788	32711	
7	0	32892	32822	
8	0	32824	32804	
9	0	32828	32768	
10	0	32802	32816	
11	0	32724	32786	
12	0	32832	32842	
13	0	32833	32656	
14	0	32812	32775	
15	0	32832	32775	
16	0	32842	32748	
17	0	32804	32854	
18	0	32858	32796	
19	0	32898	32716	
20	0	32801	32708	
21	0	32766	32775	
22	0	32772	32762	
23	0	32832	32808	
24	0	32800	32740	
25	0	32748	32638	
26	0	32824	32852	
27	0	32834	32774	
28	0	32804	32855	
29	0	32832	32708	
30	0	32849	32730	
31	0	32840	32775	
32	0	32854	32856	
33	0	32826	32695	
34	0	32856	32718	
35	0	32770	32752	
36	0	32791	32794	
37	0	32780	32655	
38	0	32762	32852	
39	0	32818	32775	
40	0	32804	32748	
41	0	32794	32752	
42	0	32884	32842	
43	0	32832	32754	
44	0	32830	32808	
45	0	32820	32714	
46	0	32816	32758	
47	0	32788	32810	
48	0	32858	32772	
49	0	32750	32716	
50	0	32832	32700	
51	0	32832	32796	
52	0	32824	32710	
53	0	32810	32834	
54	0	32820	32714	
55	0	32808	32758	
56	0	32800	32768	
57	0	32784	32808	
58	0	32856	32744	
59	0	32736	32864	
60	0	32864	32672	
61	0	32794	32678	
62	0	32784	32775	
63	0	32776	32796	
64	0	32792	32774	
65	0	32780	32696	
66	0	32786	32758	
67	0	32812	32766	
68	0	32876	32840	
69	0	32882	32772	
70	0	32828	32704	
71	0	32848	32786	
72	0	32800	32676	
73	0	32826	32860	
74	0	32816	32730	
75	0	32825	32822	
76	0	32860	32732	
77	0	32800	32768	
78	0	32830	32692	
79	0	32800	32690	
80	0	32816	32726	
81	0	32714	32772	
82	0	32844	32892	
83	0	32836	32670	
84	0	32822	32750	
85	0	32784	32775	
86	0	32736	32775	
87	0	32802	32750	
88	0	32864	32715	
89	0	32744	32826	
90	0	32862	32762	
91	0	32832	32800	
92	0	32832	32716	
93	0	32834	32714	
94	0	32804	32792	
95	0	32816	32769	
96	0	32796	32854	
97	0	32784	32814	
98	0	32832	32770	
99	0	32828	32750	
100	0	32832	32816	
101	0	32852	32804	
102	0	32768	32744	
103	0	32748	32672	
104	0	32772	32836	
105	0	32806	32804	
106	0	32794	32769	
107	0	32804	32682	
108	0	32822	32756	
109	0	32748	32748	
110	0	32800	32812	
111	0	32844	32662	
112	0	32812	32750	
113	0	32816	32842	
114	0	32832	32842	
115	0	32804	32678	
116	0	32756	32668	
117	0	32848	32847	
118	0	32844	32744	
119	0	32764	32818	
120	0	32816	32744	
121	0	32824	32686	
122	0	32800	32784	
123	0	32802	32756	
124	0	32772	32822	
125	0	32774	32740	
126	0	32848	32789	
127	0	32802	32700	
128	0	32824	32759	
129	0	32832	32894	
130	0	32828	32743	
131	0	32828	32668	
132	0	32748	32838	
133	0	32808	32759	
134	0	32816	32810	
135	0	32868	32742	
136	0	32768	32695	
137	0	32784	32730	
138	0	32792	32819	
139	0	32768	32740	
140	0	32840	32788	
141	0	32752	32796	
142	0	32828	32712	
143	0	32776	32836	
144	0	32816	32680	
145	0	32820	32793	
146	0	32842	32740	
147	0	32802	32775	
148	0	32824	32762	
149	0	32828	32694	
150	0	32836	32818	
151	0	32834	32800	
152	0	32740	32764	
153	0	32852	32784	
154	0	32848	32680	
155	0	32772	32759	
156	0	32864	32796	
157	0	32760	32768	
158	0	32849	32702	
159	0	32888	32742	
160	0	32796	32832	
161	0	32816	32759	
162	0	32784	32737	
163	0	32842	32756	
164	0	32820	32775	
165	0	32808	32708	
166	0	32780	32828	
167	0	32788	32836	
168	0	32860	32694	
169	0	32800	32702	
170	0	32804	32792	
171	0	32830	32795	
172	0	32774	32759	
173	0	32772	32768	
174	0	32896	32796	
175	0	32880	32708	
176	0	32816	32686	
177	0	32768	32846	
178	0	32836	32816	
179	0	32836	32585	
180	0	32816	32820	
181	0	32801	32799	
182	0	32840	32900	
183	0	32792	32698	
184	0	32780	32834	
185	0	32808	32774	
186	0	32756	32775	
187	0	32820	32807	
188	0	32778	32671	
189	0	32822	32804	
190	0	32868	32748	
191	0	32846	32748	
192	0	32800	32753	
193	0	32816	32758	
194	0	32824	32870	
195	0	32849	32678	
196	0	32776	32718	
197	0	32814	32748	
198	0	32796	32791	
199	0	32816	32804	
200	0	32860	32694	
201	0	32824	32836	
202	0	32784	32775	
203	0	32848	32822	
204	0	32818	32672	
205	0	32802	32722	
206	0	32804	32754	
207	0	32816	32894	
208	0	32816	32718	
209	0	32824	32819	
210	0	32746	32862	
211	0	32788	32838	
212	0	32832	32647	
213	0	32800	32612	
214	0	32790	32756	
215	0	32852	32836	
216	0	32788	32752	
217	0	32788	32663	
218	0	32808	32754	
219	0	32788	32702	
220	0	32768	32716	
221	0	32840	32695	
222	0	32780	32834	
223	0	32856	32766	
224	0	32828	32753	
225	0	32804	32700	
226	0	32780	32684	
227	0	32842	32866	
228	0	32814	32804	
229	0	32772	32774	
230	0	32808	32900	
231	0	32856	32682	
232	0	32792	32852	
233	0	32746	32790	
234	0	32808	32772	
235	0	32844	32774	
236	0	32790	32732	
237	0	32852	32660	
238	0	32840	32761	
239	0	32824	32764	
240	0	32864	32834	
241	0	32838	32729	
242	0	32832	32775	
243	0	32768	32675	
244	0	32800	32678	
245	0	32804	32762	
246	0	32808	32798	
247	0	32806	32780	
248	0	32824	32739	
249	0	32870	32828	
250	0	32876	32770	
251	0	32780	32767	
252	0	32804	32775	
253	0	32792	32714	
254	0	32832	32694	
255	0	32792	32730	
256	0	32790	32792	
257	0	32836	32730	
258	0	32768	32858	
259	0	32748	32719	
260	0	32776	32679	
261	0	32820	32752	
262	0	32798	32810	
263	0	32798	32807	
264	0	32772	32820	
265	0	32848	32744	
266	0	32834	32728	
267	0	32810	32750	
268	0	32784	32775	
269	0	32802	32736	
270	0	32788	32826	
271	0	32784	32788	
272	0	32794	32700	
273	0	32794	32735	
274	0	32820	32871	
275	0	32752	32720	
276	0	32856	32744	
277	0	32868	32774	
278	0	32814	32644	
279	0	32832	32732	
280	0	32752	32846	
281	0	32832	32842	
282	0	32810	32790	
283	0	32748	32828	
284	0	32796	32736	
285	0	32776	32660	
286	0	32808	32770	
287	0	32844	32810	
288	0	32876	32798	
289	0	32840	32826	
290	0	32844	32775	
291	0	32798	32692	
292	0	32820	32775	
293	0	32824	32748	
294	0	32844	32772	
295	0	32808	32775	
296	0	32842	32775	
297	0	32756	32722	
298	0	32768	32671	
299	0	32796	32834	
300	0	32866	32775	
301	0	32796	32852	
302	0	32760	32706	
303	0	32836	32659	
304	0	32802	32884	
305	0	32828	32774	
306	0	32758	32770	
307	0	32814	32788	
308	0	32832	32775	
309	0	32828	32757	
310	0	32828	32811	
311	0	32834	32852	
312	0	32766	32820	
313	0	32792	32814	
314	0	32766	32671	
315	0	32846	32692	
316	0	32812	32672	
317	0	32880	32788	
318	0	32824	32788	
319	0	32746	32736	
320	0	32782	32788	
321	0	32800	32830	
322	0	32816	32792	
323	0	32818	32794	
324	0	32828	32806	
325	0	32878	32742	
326	0	32760	32820	
327	0	32792	32644	
328	0	32800	32697	
329	0	32824	32762	
330	0	32813	32888	
331	0	32804	32638	
332	0	32846	32792	
333	0	32800	32788	
334	0	32788	32838	
335	0	32774	32702	
336	0	32840	32887	
337	0	32884	32774	
338	0	32768	32816	
339	0	32824	32680	
340	0	32812	32735	
341	0	32784	32772	
342	0	32822	32792	
343	0	32802	32701	
344	0	32752	32674	
345	0	32780	32743	
346	0	32802	32758	
347	0	32860	32860	
348	0	32878	32784	
349	0	32852	32724	
350	0	32812	32838	
351	0	32878	32878	
352	0	32748	32740	
353	0	32808	32807	
354	0	32826	32696	
355	0	32718	32820	
356	0	32808	32772	
357	0	32800	32846	
358	0	32794	32775	
359	0	32772	32714	
360	0	32800	32716	
361	0	32812	32804	
362	0	32830	32870	
363	0	32768	32720	
364	0	32768	32740	
365	0	32844	32768	
366	0	32800	32790	
367	0	32872	32714	
368	0	32828	32764	
369	0	32834	32722	
370	0	32832	32692	
371	0	32876	32698	
372	0	32833	32753	
373	0	32880	32718	
374	0	32932	32716	
375	0	32830	32640	
376	0	32844	32775	
377	0	32828	32732	
378	0	32840	32628	
379	0	32850	32754	
380	0	32896	32712	
381	0	32872	32732	
382	0	32900	32552	
383	0	32838	32756	
384	0	32877	32687	
385	0	32913	32756	
386	0	32864	32663	
387	0	32868	32688	
388	0	32872	32694	
389	0	32944	32799	
390	0	32870	32631	
391	0	32888	32784	
392	0	32864	32880	
393	0	32826	32912	
394	0	32766	32962	
395	0	32692	32934	
396	0	32556	32856	
397	0	32692	32836	
398	0	32686	33044	
399	0	32712	32926	
400	0	32708	32939	
401	0	32620	32927	
402	0	32652	32950	
403	0	32700	32982	
404	0	32622	33002	
405	0	32640	32935	
406	0	32676	32939	
407	0	32684	33031	
408	0	32624	33031	
409	0	32642	32966	
410	0	32680	33067	
411	0	32688	32922	
412	0	32740	32804	
413	0	32764	32815	
414	0	32856	32673	
415	0	32884	32644	
416	0	32934	32538	
417	0	32912	32452	
418	0	32920	32614	
419	0	32912	32560	
420	0	32876	32562	
421	0	32820	32584	
422	0	32889	32582	
423	0	32944	32592	
424	0	32896	32736	
425	0	32828	32671	
426	0	32882	32735	
427	0	32868	32750	
428	0	32820	32678	
429	0	32840	32708	
430	0	32788	32790	
431	0	32786	32760	
432	0	32846	32806	
433	0	32860	32743	
434	0	32844	32689	
435	0	32818	32844	
436	0	32804	32758	
437	0	32800	32766	
438	0	32758	32807	
439	0	32782	32681	
440	0	32876	32755	
441	0	32870	32764	
442	0	32788	32764	
443	0	32794	32679	
444	0	32816	32730	
445	0	32864	32826	
446	0	32834	32767	
447	0	32792	32830	
448	0	32860	32716	
449	0	32868	32754	
450	0	32900	32846	
451	0	32796	32834	
452	0	32836	32683	
453	0	32852	32732	
454	0	32808	32742	
455	0	32780	32719	
456	0	32868	32752	
457	0	32776	32802	
458	0	32798	32834	
459	0	32844	32816	
460	0	32810	32724	
461	0	32824	32842	
462	0	32832	32644	
463	0	32824	32668	
464	0	32846	32810	
465	0	32832	32759	
466	0	32840	32766	
467	0	32844	32730	
468	0	32836	32734	
469	0	32924	32792	
470	0	32800	32706	
471	0	32888	32752	
472	0	32770	32688	
473	0	32848	32712	
474	0	32846	32792	
475	0	32852	32764	
476	0	32869	32716	
477	0	32848	32726	
478	0	32896	32624	
479	0	32804	32788	
480	0	32830	32706	
481	0	32788	32696	
482	0	32860	32780	
483	0	32832	32871	
484	0	32860	32836	
485	0	32792	32718	
486	0	32772	32720	
487	0	32804	32796	
488	0	32800	32763	
489	0	32753	32694	
490	0	32807	32774	
491	0	32778	32752	
492	0	32800	32849	
493	0	32792	32775	
494	0	32764	32775	
495	0	32753	32849	
496	0	32806	32750	
497	0	32732	32806	
498	0	32768	32823	
499	0	32724	32754	
500	0	32800	32704	
501	0	32848	32775	
502	0	32812	32760	
503	0	32704	32766	
504	0	32704	32809	
505	0	32812	32772	
506	0	32804	32726	
507	0	32737	32844	
508	0	32864	32823	
509	0	32846	32744	
510	0	32808	32812	
511	0	32796	32796	
512	0	32828	32691	
513	0	32780	32751	
514	0	32865	32855	
515	0	32768	32728	
516	0	32704	32864	
517	0	32812	32732	
518	0	32796	32820	
519	0	32800	32713	
520	0	32804	32794	
521	0	32840	32868	
522	0	32808	32652	
523	0	32856	32801	
524	0	32764	32746	
525	0	32784	32718	
526	0	32802	32758	
527	0	32840	32718	
528	0	32846	32848	
529	0	32814	32792	
530	0	32786	32740	
531	0	32785	32766	
532	0	32828	32775	
533	0	32833	32708	
534	0	32756	32750	
535	0	32788	32830	
536	0	32812	32742	
537	0	32798	32802	
538	0	32732	32740	
539	0	32786	32738	
540	0	32840	32782	
541	0	32850	32800	
542	0	32852	32893	
543	0	32796	32718	
544	0	32832	32660	
545	0	32868	32802	
546	0	32746	32822	
547	0	32842	32782	
548	0	32844	32760	
549	0	32806	32662	
550	0	32801	32764	
551	0	32840	32796	
552	0	32856	32791	
553	0	32810	32885	
554	0	32752	32676	
555	0	32782	32708	
556	0	32846	32802	
557	0	32840	32775	
558	0	32824	32773	
559	0	32752	32764	
560	0	32808	32666	
561	0	32772	32788	
562	0	32794	32770	
563	0	32810	32772	
564	0	32850	32736	
565	0	32852	32807	
566	0	32796	32846	
567	0	32788	32798	
568	0	32796	32610	
569	0	32858	32732	
570	0	32762	32689	
571	0	32788	32814	
572	0	32834	32886	
573	0	32720	32704	
574	0	32846	32804	
575	0	32776	32774	
576	0	32816	32806	
577	0	32836	32699	
578	0	32872	32726	
579	0	32824	32770	
580	0	32784	32756	
581	0	32874	32798	
582	0	32775	32754	
583	0	32840	32758	
584	0	32826	32756	
585	0	32816	32828	
586	0	32810	32724	
587	0	32756	32732	
588	0	32772	32820	
589	0	32856	32708	
590	0	32848	32680	
591	0	32860	32750	
592	0	32818	32842	
593	0	32824	32786	
594	0	32810	32864	
595	0	32748	32759	
596	0	32798	32768	
597	0	32752	32773	
598	0	32832	32844	
599	0	32848	32720	
600	0	32814	32692	
601	0	32792	32700	
602	0	32796	32825	
603	0	32840	32720	
604	0	32800	32751	
605	0	32852	32916	
606	0	32762	32720	
607	0	32720	32680	
608	0	32880	32648	
609	0	32770	32671	
610	0	32812	32815	
611	0	32834	32806	
612	0	32802	32800	
613	0	32780	32841	
614	0	32848	32684	
615	0	32800	32636	
616	0	32875	32828	
617	0	32800	32764	
618	0	32848	32756	
619	0	32784	32784	
620	0	32788	32802	
621	0	32810	32732	
622	0	32744	32666	
623	0	32800	32722	
624	0	32798	32728	
625	0	32824	32775	
626	0	32836	32748	
627	0	32808	32700	
628	0	32840	32842	
629	0	32828	32788	
630	0	32816	32818	
631	0	32848	32789	
632	0	32884	32736	
633	0	32864	32718	
634	0	32754	32676	
635	0	32778	32822	
636	0	32848	32742	
637	0	32810	32759	
638	0	32836	32842	
639	0	32848	32742	
640	0	32802	32678	
641	0	32792	32868	
642	0	32860	32724	
643	0	32808	32832	
644	0	32829	32754	
645	0	32800	32645	
646	0	32772	32678	
647	0	32884	32689	
648	0	32776	32711	
649	0	32864	32814	
650	0	32856	32769	
651	0	32840	32789	
652	0	32762	32786	
653	0	32814	32820	
654	0	32824	32812	
655	0	32814	32679	
656	0	32848	32740	
657	0	32832	32734	
658	0	32808	32775	
659	0	32832	32831	
660	0	32802	32716	
661	0	32792	32668	
662	0	32850	32740	
663	0	32820	32802	
664	0	32760	32800	
665	0	32800	32844	
666	0	32808	32775	
667	0	32836	32770	
668	0	32852	32816	
669	0	32748	32750	
670	0	32812	32796	
671	0	32828	32798	
672	0	32800	32800	
673	0	32788	32688	
674	0	32840	32788	
675	0	32816	32686	
676	0	32800	32870	
677	0	32852	32786	
678	0	32832	32764	
679	0	32852	32746	
680	0	32844	32742	
681	0	32810	32860	
682	0	32797	32695	
683	0	32834	32714	
684	0	32788	32870	
685	0	32812	32740	
686	0	32800	32742	
687	0	32834	32694	
688	0	32804	32748	
689	0	32778	32852	
690	0	32828	32682	
691	0	32828	32743	
692	0	32842	32856	
693	0	32784	32766	
694	0	32784	32772	
695	0	32782	32794	
696	0	32800	32838	
697	0	32854	32644	
698	0	32832	32726	
699	0	32748	32894	
700	0	32836	32812	
701	0	32804	32770	
702	0	32836	32754	
703	0	32800	32842	
704	0	32816	32830	
705	0	32756	32698	
706	0	32792	32740	
707	0	32800	32894	
708	0	32790	32836	
709	0	32794	32798	
710	0	32775	32732	
711	0	32764	32668	
712	0	32828	32868	
713	0	32884	32775	
714	0	32764	32846	
715	0	32808	32746	
716	0	32780	32716	
717	0	32780	32756	
718	0	32760	32764	
719	0	32850	32775	
720	0	32842	32712	
721	0	32770	32885	
722	0	32774	32756	
723	0	32756	32775	
724	0	32808	32804	
725	0	32836	32724	
726	0	32822	32680	
727	0	32800	32755	
728	0	32802	32828	
729	0	32840	32903	
730	0	32788	32708	
731	0	32804	32756	
732	0	32896	32792	
733	0	32804	32842	
734	0	32856	32692	
735	0	32822	32722	
736	0	32756	32844	
737	0	32828	32756	
738	0	32820	32878	
739	0	32762	32654	
740	0	32849	32720	
741	0	32852	32792	
742	0	32792	32738	
743	0	32852	32808	
744	0	32816	32694	
745	0	32772	32742	
746	0	32852	32853	
747	0	32820	32730	
748	0	32780	32814	
749	0	32892	32737	
750	0	32860	32684	
751	0	32764	32732	
752	0	32826	32790	
753	0	32824	32772	
754	0	32780	32742	
755	0	32792	32740	
756	0	32820	32814	
757	0	32816	32801	
758	0	32788	32664	
759	0	32928	32858	
760	0	32864	32774	
761	0	32816	32809	
762	0	32780	32865	
763	0	32836	32692	
764	0	32846	32712	
765	0	32856	32790	
766	0	32804	32736	
767	0	32792	32868	
768	0	32772	32666	
769	0	32872	32850	
770	0	32808	32760	
771	0	32820	32844	
772	0	32802	32730	
773	0	32776	32742	
774	0	32756	32804	
775	0	32788	32734	
776	0	32804	32868	
777	0	32798	32712	
778	0	32812	32760	
779	0	32792	32690	
780	0	32744	32798	
781	0	32880	32710	
782	0	32828	32684	
783	0	32804	32794	
784	0	32818	32788	
785	0	32812	32732	
786	0	32860	32668	
787	0	32864	32836	
788	0	32794	32764	
789	0	32782	32818	
790	0	32848	32712	
791	0	32832	32891	
792	0	32816	32766	
793	0	32810	32743	
794	0	32888	32817	
795	0	32796	32732	
796	0	32762	32846	
797	0	32820	32666	
798	0	32806	32828	
799	0	32756	32794	
800	0	32772	32676	
801	0	32849	32847	
802	0	32832	32858	
803	0	32768	32686	
804	0	32808	32864	
805	0	32796	32796	
806	0	32820	32772	
807	0	32834	32705	
808	0	32798	32804	
809	0	32760	32809	
810	0	32848	32892	
811	0	32844	32758	
812	0	32836	32718	
813	0	32826	32812	
814	0	32870	32748	
815	0	32796	32799	
816	0	32800	32708	
817	0	32796	32626	
818	0	32780	32730	
819	0	32760	32840	
820	0	32764	32768	
821	0	32708	32804	
822	0	32800	32770	
823	0	32840	32654	
824	0	32866	32752	
825	0	32792	32853	
826	0	32800	32766	
827	0	32832	32722	
828	0	32804	32836	
829	0	32832	32730	
830	0	32806	32802	
831	0	32812	32807	
832	0	32812	32854	
833	0	32826	32754	
834	0	32800	32718	
835	0	32764	32701	
836	0	32860	32766	
837	0	32808	32718	
838	0	32800	32740	
839	0	32790	32812	
840	0	32784	32799	
841	0	32740	32775	
842	0	32832	32696	
843	0	32816	32839	
844	0	32852	32694	
845	0	32856	32852	
846	0	32732	32750	
847	0	32864	32740	
848	0	32862	32839	
849	0	32760	32690	
850	0	32768	32724	
851	0	32802	32822	
852	0	32780	32810	
853	0	32748	32700	
854	0	32736	32694	
855	0	32820	32816	
856	0	32864	32775	
857	0	32821	32790	
858	0	32828	32628	
859	0	32790	32792	
860	0	32816	32728	
861	0	32816	32791	
862	0	32844	32734	
863	0	32852	32790	
864	0	32858	32840	
865	0	32806	32722	
866	0	32748	32706	
867	0	32815	32744	
868	0	32836	32796	
869	0	32768	32668	
870	0	32772	32758	
871	0	32762	32815	
872	0	32794	32758	
873	0	32780	32742	
874	0	32880	32834	
875	0	32804	32754	
876	0	32848	32862	
877	0	32876	32708	
878	0	32748	32798	
879	0	32768	32807	
880	0	32880	32807	
881	0	32836	32703	
882	0	32834	32802	
883	0	32814	32796	
884	0	32812	32794	
885	0	32836	32788	
886	0	32816	32717	
887	0	32842	32800	
888	0	32750	32743	
889	0	32808	32789	
890	0	32862	32718	
891	0	32820	32818	
892	0	32822	32756	
893	0	32788	32855	
894	0	32808	32868	
895	0	32824	32724	
896	0	32720	32740	
897	0	32834	32694	
898	0	32782	32758	
899	0	32876	32772	
900	0	32818	32818	
901	0	32824	32775	
902	0	32802	32680	
903	0	32816	32839	
904	0	32782	32820	
905	0	32816	32828	
906	0	32900	32794	
907	0	32794	32648	
908	0	32808	32886	
909	0	32844	32770	
910	0	32792	32748	
911	0	32816	32666	
912	0	32800	32871	
913	0	32828	32804	
914	0	32870	32815	
915	0	32802	32662	
916	0	32782	32838	
917	0	32854	32775	
918	0	32816	32831	
919	0	32820	32708	
920	0	32762	32647	
921	0	32820	32791	
922	0	32812	32756	
923	0	32792	32831	
924	0	32764	32785	
925	0	32780	32775	
926	0	32776	32828	
927	0	32764	32700	
928	0	32820	32714	
929	0	32748	32759	
930	0	32836	32872	
931	0	32768	32676	
932	0	32832	32714	
933	0	32792	32756	
934	0	32801	32822	
935	0	32834	32692	
936	0	32776	32740	
937	0	32869	32851	
938	0	32778	32800	
939	0	32844	32810	
940	0	32824	32647	
941	0	32834	32840	
942	0	32806	32812	
943	0	32768	32820	
944	0	32836	32646	
945	0	32840	32768	
946	0	32818	32772	
947	0	32834	32748	
948	0	32850	32714	
949	0	32818	32775	
950	0	32858	32799	
951	0	32828	32732	
952	0	32808	32752	
953	0	32804	32847	
954	0	32792	32862	
955	0	32774	32742	
956	0	32848	32612	
957	0	32872	32751	
958	0	32736	32774	
959	0	32888	32775	
960	0	32754	32684	
961	0	32800	32679	
962	0	32836	32748	
963	0	32776	32832	
964	0	32816	32735	
965	0	32802	32823	
966	0	32842	32714	
967	0	32856	32832	
968	0	32768	32663	
969	0	32798	32830	
970	0	32820	32824	
971	0	32812	32796	
972	0	32780	32710	
973	0	32824	32750	
974	0	32792	32766	
975	0	32872	32775	
976	0	32832	32798	
977	0	32749	32671	
978	0	32808	32736	
979	0	32832	32748	
980	0	32816	32814	
981	0	32824	32696	
982	0	32868	32736	
983	0	32768	32736	
984	0	32804	32836	
985	0	32784	32652	
986	0	32840	32704	
987	0	32840	32874	
988	0	32854	32858	
989	0	32872	32744	
990	0	32768	32695	
991	0	32872	32694	
992	0	32876	32807	
993	0	32844	32730	
994	0	32776	32834	
995	0	32732	32740	
996	0	32756	32794	
997	0	32776	32752	
998	0	32814	32854	
999	0	32834	32680	
1000	0	32788	32732	
1001	0	32841	32775	
1002	0	32798	32736	
1003	0	32862	32775	
1004	0	32800	32796	
1005	0	32752	32775	
1006	0	32788	32802	
1007	0	32836	32794	
1008	0	32812	32748	
1009	0	32876	32738	
1010	0	32784	32806	
1011	0	32796	32830	
1012	0	32818	32752	
1013	0	32832	32808	
1014	0	32760	32756	
1015	0	32834	32668	
1016	0	32792	32682	
1017	0	32824	32800	
1018	0	32800	32752	
1019	0	32860	32746	
1020	0	32768	32714	
1021	0	32884	32774	
1022	0	32812	32808	
1023	0	32788	32756	
1024	0	32840	32726	
1025	0	32796	32822	
1026	0	32842	32768	
1027	0	32764	32819	
1028	0	32810	32728	
1029	0	32786	32710	
1030	0	32760	32806	
1031	0	32867	32805	
1032	0	32804	32748	
1033	0	32826	32725	
1034	0	32798	32896	
1035	0	32800	32770	
1036	0	32828	32670	
1037	0	32784	32848	
1038	0	32900	32618	
1039	0	32828	32744	
1040	0	32848	32687	
1041	0	32760	32728	
1042	0	32714	32807	
1043	0	32790	32862	
1044	0	32756	32818	
1045	0	32832	32722	
1046	0	32852	32816	
1047	0	32812	32759	
1048	0	32850	32828	
1049	0	32832	32608	
1050	0	32832	32794	
1051	0	32824	32730	
1052	0	32804	32830	
1053	0	32760	32766	
1054	0	32808	32727	
1055	0	32744	32796	
1056	0	32886	32788	
1057	0	32814	32760	
1058	0	32832	32678	
1059	0	32864	32742	
1060	0	32788	32796	
1061	0	32774	32688	
1062	0	32786	32804	
1063	0	32742	32740	
1064	0	32820	32766	
1065	0	32842	32775	
1066	0	32820	32894	
1067	0	32864	32742	
1068	0	32756	32894	
1069	0	32794	32743	
1070	0	32802	32756	
1071	0	32800	32792	
1072	0	32790	32692	
1073	0	32832	32878	
1074	0	32823	32736	
1075	0	32768	32800	
1076	0	32833	32652	
1077	0	32772	32812	
1078	0	32832	32734	
1079	0	32828	32839	
1080	0	32832	32668	
1081	0	32814	32806	
1082	0	32802	32878	
1083	0	32746	32738	
1084	0	32736	32726	
1085	0	32800	32850	
1086	0	32852	32828	
1087	0	32810	32760	
1088	0	32912	32728	
1089	0	32852	32760	
1090	0	32804	32738	
1091	0	32804	32706	
1092	0	32800	32884	
1093	0	32806	32698	
1094	0	32812	32774	
1095	0	32834	32718	
1096	0	32860	32768	
1097	0	32772	32860	
1098	0	32798	32746	
1099	0	32862	32762	
1100	0	32792	32754	
1101	0	32802	32814	
1102	0	32784	32730	
1103	0	32732	32774	
1104	0	32814	32722	
1105	0	32770	32874	
1106	0	32812	32852	
1107	0	32836	32712	
1108	0	32844	32720	
1109	0	32836	32832	
1110	0	32760	32762	
1111	0	32804	32775	
1112	0	32824	32724	
1113	0	32868	32666	
1114	0	32772	32767	
1115	0	32804	32804	
1116	0	32809	32702	
1117	0	32812	32772	
1118	0	32820	32772	
1119	0	32808	32670	
1120	0	32808	32692	
1121	0	32772	32832	
1122	0	32812	32812	
1123	0	32840	32768	
1124	0	32842	32858	
1125	0	32820	32736	
1126	0	32784	32792	
1127	0	32848	32832	
1128	0	32858	32770	
1129	0	32848	32743	
1130	0	32830	32802	
1131	0	32812	32770	
1132	0	32808	32703	
1133	0	32820	32708	
1134	0	32828	32842	
1135	0	32796	32775	
1136	0	32804	32894	
1137	0	32784	32672	
1138	0	32780	32892	
1139	0	32824	32836	
1140	0	32842	32830	
1141	0	32824	32775	
1142	0	32770	32699	
1143	0	32832	32692	
1144	0	32756	32863	
1145	0	32780	32762	
1146	0	32812	32775	
1147	0	32848	32786	
1148	0	32770	32652	
1149	0	32800	32742	
1150	0	32812	32687	
1151	0	32776	32886	
1152	0	32792	32772	
1153	0	32836	32806	
1154	0	32804	32730	
1155	0	32796	32612	
1156	0	32748	32700	
1157	0	32808	32802	
1158	0	32800	32784	
1159	0	32824	32743	
1160	0	32880	32944	
1161	0	32812	32679	
1162	0	32832	32792	
1163	0	32782	32740	
1164	0	32810	32764	
1165	0	32844	32740	
1166	0	32808	32774	
1167	0	32774	32836	
1168	0	32816	32870	
1169	0	32824	32698	
1170	0	32872	32710	
1171	0	32836	32808	
1172	0	32840	32742	
1173	0	32768	32814	
1174	0	32808	32837	
1175	0	32784	32668	
1176	0	32816	32815	
1177	0	32796	32791	
1178	0	32842	32769	
1179	0	32832	32788	
1180	0	32834	32686	
1181	0	32810	32892	
1182	0	32800	32764	
1183	0	32780	32874	
1184	0	32828	32710	
1185	0	32774	32774	
1186	0	32822	32807	
1187	0	32768	32786	
1188	0	32872	32706	
1189	0	32812	32690	
1190	0	32754	32738	
1191	0	32754	32823	
1192	0	32760	32752	
1193	0	32778	32820	
1194	0	32840	32738	
1195	0	32882	32788	
1196	0	32892	32762	
1197	0	32808	32792	
1198	0	32844	32690	
1199	0	32752	32775	
1200	0	32820	32742	
1201	0	32810	32823	
1202	0	32744	32710	
1203	0	32780	32828	
1204	0	32774	32764	
1205	0	32842	32848	
1206	0	32800	32766	
1207	0	32796	32767	
1208	0	32884	32811	
1209	0	32836	32732	
1210	0	32834	32698	
1211	0	32888	32740	
1212	0	32868	32820	
1213	0	32846	32783	
1214	0	32868	32810	
1215	0	32752	32647	
1216	0	32804	32753	
1217	0	32808	32860	
1218	0	32772	32742	
1219	0	32776	32734	
1220	0	32840	32806	
1221	0	32804	32696	
1222	0	32816	32740	
1223	0	32790	32814	
1224	0	32838	32700	
1225	0	32800	32732	
1226	0	32849	32736	
1227	0	32856	32802	
1228	0	32913	32746	
1229	0	32714	32775	
1230	0	32812	32666	
1231	0	32812	32732	
1232	0	32790	32892	
1233	0	32793	32760	
1234	0	32824	32764	
1235	0	32774	32799	
1236	0	32767	32804	
1237	0	32788	32717	
1238	0	32842	32704	
1239	0	32820	32820	
1240	0	32784	32738	
1241	0	32784	32753	
1242	0	32812	32625	
1243	0	32864	32764	
1244	0	32780	32791	
1245	0	32760	32815	
1246	0	32830	32801	
1247	0	32844	32856	
1248	0	32800	32646	
1249	0	32830	32729	
1250	0	32830	32839	
1251	0	32870	32764	
1252	0	32752	32704	
1253	0	32796	32808	
1254	0	32856	32700	
1255	0	32825	32721	
1256	0	32808	32871	
1257	0	32816	32810	
1258	0	32824	32802	
1259	0	32840	32775	
1260	0	32808	32734	
1261	0	32802	32844	
1262	0	32817	32774	
1263	0	32814	32775	
1264	0	32804	32742	
1265	0	32820	32678	
1266	0	32812	32678	
1267	0	32756	32820	
1268	0	32776	32738	
1269	0	32788	32794	
1270	0	32828	32724	
1271	0	32868	32727	
1272	0	32792	32814	
1273	0	32818	32676	
1274	0	32784	32830	
1275	0	32790	32708	
1276	0	32810	32769	
1277	0	32781	32775	
1278	0	32820	32766	
1279	0	32844	32746	
1280	0	32826	32832	
1281	0	32774	32686	
1282	0	32796	32738	
1283	0	32818	32876	
1284	0	32766	32768	
1285	0	32852	32696	
1286	0	32769	32823	
1287	0	32860	32742	
1288	0	32866	32748	
1289	0	32812	32694	
1290	0	32808	32775	
1291	0	32736	32785	
1292	0	32832	32848	
1293	0	32800	32799	
1294	0	32780	32725	
1295	0	32840	32641	
1296	0	32848	32756	
1297	0	32820	32784	
1298	0	32744	32746	
1299	0	32788	32772	
1300	0	32812	32775	
1301	0	32856	32660	
1302	0	32854	32758	
1303	0	32776	32828	
1304	0	32790	32751	
1305	0	32892	32740	
1306	0	32864	32826	
1307	0	32808	32732	
1308	0	32804	32692	
1309	0	32728	32839	
1310	0	32816	32824	
1311	0	32802	32742	
1312	0	32770	32764	
1313	0	32804	32742	
1314	0	32826	32734	
1315	0	32820	32690	
1316	0	32860	32752	
1317	0	32788	32863	
1318	0	32792	32800	
1319	0	32786	32766	
1320	0	32804	32764	
1321	0	32810	32808	
1322	0	32740	32614	
1323	0	32842	32746	
1324	0	32790	32861	
1325	0	32784	32754	
1326	0	32796	32775	
1327	0	32816	32775	
1328	0	32868	32762	
1329	0	32864	32768	
1330	0	32854	32671	
1331	0	32832	32800	
1332	0	32784	32839	
1333	0	32778	32832	
1334	0	32784	32710	
1335	0	32802	32748	
1336	0	32788	32847	
1337	0	32772	32732	
1338	0	32776	32796	
1339	0	32776	32810	
1340	0	32796	32744	
1341	0	32880	32700	
1342	0	32878	32842	
1343	0	32782	32720	
1344	0	32792	32852	
1345	0	32792	32800	
1346	0	32780	32705	
1347	0	32792	32695	
1348	0	32816	32775	
1349	0	32836	32764	
1350	0	32898	32812	
1351	0	32790	32742	
1352	0	32816	32604	
1353	0	32740	32632	
1354	0	32782	32775	
1355	0	32774	32812	
1356	0	32872	32748	
1357	0	32808	32812	
1358	0	32824	32764	
1359	0	32856	32716	
1360	0	32784	32812	
1361	0	32802	32746	
1362	0	32842	32839	
1363	0	32785	32748	
1364	0	32836	32711	
1365	0	32849	32766	
1366	0	32828	32682	
1367	0	32840	32804	
1368	0	32896	32630	
1369	0	32884	32746	
1370	0	32852	32663	
1371	0	32844	32702	
1372	0	32916	32702	
1373	0	32874	32584	
1374	0	32896	32655	
1375	0	32912	32716	
1376	0	32856	32660	
1377	0	32864	32556	
1378	0	32856	32700	
1379	0	32856	32724	
1380	0	32852	32706	
1381	0	32892	32704	
1382	0	32876	32664	
1383	0	32824	32788	
1384	0	32840	32716	
1385	0	32814	32849	
1386	0	32812	32724	
1387	0	32808	32858	
1388	0	32798	32950	
1389	0	32752	33010	
1390	0	32696	32926	
1391	0	32706	32895	
1392	0	32680	32940	
1393	0	32674	32872	
1394	0	32708	32960	
1395	0	32722	32980	
1396	0	32652	32894	
1397	0	32676	32978	
1398	0	32730	33006	
1399	0	32650	32948	
1400	0	32684	32903	
1401	0	32624	32976	
1402	0	32504	33040	
1403	0	32584	33107	
1404	0	32636	32980	
1405	0	32724	32838	
1406	0	32708	32870	
1407	0	32802	32750	
1408	0	32900	32698	
1409	0	32900	32577	
1410	0	32940	32519	
1411	0	32920	32638	
1412	0	32924	32564	
1413	0	32914	32542	
1414	0	32945	32711	
1415	0	32844	32578	
1416	0	32860	32532	
1417	0	32858	32726	
1418	0	32928	32678	
1419	0	32860	32678	
1420	0	32878	32609	
1421	0	32864	32686	
1422	0	32833	32789	
1423	0	32773	32795	
1424	0	32796	32862	
1425	0	32826	32816	
1426	0	32778	32688	
1427	0	32884	32756	
1428	0	32800	32793	
1429	0	32816	32806	
1430	0	32776	32820	
1431	0	32828	32830	
1432	0	32792	32679	
1433	0	32830	32743	
1434	0	32820	32756	
1435	0	32806	32790	
1436	0	32768	32744	
1437	0	32864	32772	
1438	0	32808	32754	
1439	0	32828	32753	
1440	0	32818	32775	
1441	0	32836	32751	
1442	0	32800	32822	
1443	0	32816	32768	
1444	0	32808	32728	
1445	0	32762	32697	
1446	0	32806	32866	
1447	0	32828	32790	
1448	0	32864	32721	
1449	0	32832	32800	
1450	0	32776	32801	
1451	0	32816	32752	
1452	0	32840	32893	
1453	0	32868	32774	
1454	0	32764	32838	
1455	0	32820	32746	
1456	0	32848	32810	
1457	0	32792	32750	
1458	0	32868	32722	
1459	0	32792	32846	
1460	0	32836	32720	
1461	0	32864	32758	
1462	0	32800	32791	
1463	0	32790	32676	
1464	0	32800	32722	
1465	0	32798	32807	
1466	0	32904	32756	
1467	0	32824	32798	
1468	0	32856	32704	
1469	0	32858	32688	
1470	0	32814	32851	
1471	0	32860	32764	
1472	0	32844	32735	
1473	0	32834	32738	
1474	0	32796	32652	
1475	0	32770	32726	
1476	0	32816	32774	
1477	0	32848	32739	
1478	0	32808	32806	
1479	0	32844	32759	
1480	0	32801	32692	
1481	0	32804	32746	
1482	0	32816	32806	
1483	0	32824	32836	
1484	0	32768	32784	
1485	0	32828	32716	
1486	0	32848	32700	
1487	0	32828	32775	
1488	0	32800	32800	
1489	0	32852	32922	
1490	0	32808	32742	
1491	0	32828	32768	
1492	0	32833	32741	
1493	0	32784	32775	
1494	0	32792	32775	
1495	0	32782	32775	
1496	0	32762	32775	
1497	0	32804	32808	
1498	0	32820	32680	
1499	0	32808	32799	
1500	0	32764	32775	
1501	0	32810	32782	
1502	0	32800	32718	
1503	0	32838	32820	
1504	0	32784	32802	
1505	0	32816	32757	
1506	0	32804	32762	
1507	0	32814	32766	
1508	0	32828	32792	
1509	0	32862	32829	
1510	0	32792	32762	
1511	0	32820	32802	
1512	0	32752	32854	
1513	0	32836	32768	
1514	0	32816	32746	
1515	0	32810	32688	
1516	0	32822	32804	
1517	0	32756	32756	
1518	0	32764	32855	
1519	0	32816	32712	
1520	0	32864	32766	
1521	0	32780	32796	
1522	0	32844	32810	
1523	0	32788	32764	
1524	0	32798	32772	
1525	0	32812	32750	
1526	0	32806	32802	
1527	0	32790	32715	
1528	0	32804	32800	
1529	0	32828	32812	
1530	0	32792	32767	
1531	0	32816	32820	
1532	0	32840	32732	
1533	0	32792	32692	
1534	0	32866	32652	
1535	0	32812	32828	
1536	0	32750	32840	
1537	0	32802	32708	
1538	0	32780	32810	
1539	0	32832	32760	
1540	0	32804	32732	
1541	0	32794	32730	
1542	0	32746	32638	
1543	0	32812	32836	
1544	0	32870	32753	
1545	0	32792	32738	
1546	0	32848	32775	
1547	0	32800	32808	
1548	0	32846	32906	
1549	0	32846	32775	
1550	0	32800	32660	
1551	0	32800	32790	
1552	0	32808	32775	
1553	0	32800	32860	
1554	0	32822	32672	
1555	0	32848	32740	
1556	0	32816	32798	
1557	0	32804	32807	
1558	0	32828	32854	
1559	0	32736	32706	
1560	0	32782	32821	
1561	0	32788	32774	
1562	0	32774	32750	
1563	0	32836	32706	
1564	0	32826	32798	
1565	0	32840	32772	
1566	0	32844	32798	
1567	0	32772	32775	
1568	0	32844	32703	
1569	0	32860	32852	
1570	0	32770	32800	
1571	0	32848	32764	
1572	0	32786	32774	
1573	0	32840	32626	
1574	0	32850	32784	
1575	0	32768	32806	
1576	0	32766	32738	
1577	0	32788	32698	
1578	0	32828	32775	
1579	0	32788	32852	
1580	0	32832	32768	
1581	0	32840	32690	
1582	0	32780	32675	
1583	0	32832	32864	
1584	0	32832	32792	
1585	0	32776	32840	
1586	0	32790	32712	
1587	0	32876	32672	
1588	0	32824	32771	
1589	0	32816	32796	
1590	0	32844	32775	
1591	0	32864	32830	
1592	0	32806	32764	
1593	0	32832	32894	
1594	0	32780	32734	
1595	0	32818	32678	
1596	0	32796	32692	
1597	0	32848	32796	
1598	0	32876	32683	
1599	0	32792	32824	
1600	0	32856	32714	
1601	0	32850	32858	
1602	0	32812	32694	
1603	0	32784	32828	
1604	0	32804	32716	
1605	0	32848	32756	
1606	0	32752	32724	
1607	0	32820	32860	
1608	0	32904	32746	
1609	0	32838	32780	
1610	0	32782	32694	
1611	0	32800	32726	
1612	0	32814	32798	
1613	0	32820	32794	
1614	0	32828	32696	
1615	0	32820	32856	
1616	0	32844	32812	
1617	0	32792	32794	
1618	0	32796	32676	
1619	0	32784	32900	
1620	0	32748	32775	
1621	0	32776	32720	
1622	0	32812	32814	
1623	0	32836	32652	
1624	0	32816	32742	
1625	0	32868	32764	
1626	0	32842	32742	
1627	0	32848	32768	
1628	0	32798	32656	
1629	0	32788	32784	
1630	0	32804	32832	
1631	0	32778	32820	
1632	0	32828	32751	
1633	0	32788	32708	
1634	0	32756	32743	
1635	0	32802	32732	
1636	0	32818	32754	
1637	0	32800	32758	
1638	0	32814	32710	
1639	0	32844	32694	
1640	0	32864	32810	
1641	0	32840	32775	
1642	0	32800	32775	
1643	0	32844	32680	
1644	0	32792	32788	
1645	0	32816	32775	
1646	0	32792	32806	
1647	0	32816	32798	
1648	0	32812	32647	
1649	0	32826	32775	
1650	0	32816	32792	
1651	0	32864	32698	
1652	0	32784	32791	
1653	0	32817	32746	
1654	0	32840	32782	
1655	0	32821	32768	
1656	0	32818	32710	
1657	0	32828	32859	
1658	0	32776	32662	
1659	0	32824	32774	
1660	0	32858	32728	
1661	0	32784	32736	
1662	0	32820	32750	
1663	0	32796	32841	
1664	0	32796	32766	
1665	0	32752	32772	
1666	0	32830	32852	
1667	0	32808	32671	
1668	0	32778	32684	
1669	0	32842	32836	
1670	0	32808	32804	
1671	0	32832	32732	
1672	0	32800	32738	
1673	0	32804	32764	
1674	0	32848	32807	
1675	0	32776	32727	
1676	0	32804	32758	
1677	0	32748	32753	
1678	0	32796	32720	
1679	0	32856	32744	
1680	0	32784	32737	
1681	0	32780	32720	
1682	0	32774	32766	
1683	0	32788	32700	
1684	0	32820	32820	
1685	0	32784	32775	
1686	0	32838	32730	
1687	0	32816	32732	
1688	0	32820	32839	
1689	0	32820	32756	
1690	0	32781	32698	
1691	0	32824	32806	
1692	0	32804	32886	
1693	0	32876	32686	
1694	0	32830	32820	
1695	0	32788	32820	
1696	0	32820	32680	
1697	0	32836	32849	
1698	0	32796	32804	
1699	0	32844	32673	
1700	0	32804	32824	
1701	0	32856	32743	
1702	0	32844	32694	
1703	0	32878	32775	
1704	0	32760	32775	
1705	0	32776	32828	
1706	0	32824	32740	
1707	0	32788	32714	
1708	0	32830	32852	
1709	0	32840	32750	
1710	0	32772	32792	
1711	0	32820	32796	
1712	0	32808	32762	
1713	0	32826	32603	
1714	0	32828	32805	
1715	0	32808	32775	
1716	0	32836	32808	
1717	0	32810	32834	
1718	0	32793	32718	
1719	0	32792	32804	
1720	0	32804	32820	
1721	0	32860	32726	
1722	0	32780	32830	
1723	0	32768	32700	
1724	0	32800	32807	
1725	0	32840	32801	
1726	0	32792	32762	
1727	0	32776	32814	
1728	0	32836	32760	
1729	0	32858	32684	
1730	0	32792	32680	
1731	0	32820	32808	
1732	0	32830	32739	
1733	0	32834	32850	
1734	0	32798	32807	
1735	0	32782	32692	
1736	0	32830	32738	
1737	0	32772	32829	
1738	0	32868	32728	
1739	0	32752	32772	
1740	0	32824	32824	
1741	0	32786	32807	
1742	0	32848	32775	
1743	0	32776	32710	
1744	0	32844	32734	
1745	0	32848	32768	
1746	0	32796	32822	
1747	0	32794	32736	
1748	0	32780	32676	
1749	0	32832	32750	
1750	0	32780	32804	
1751	0	32828	32708	
1752	0	32812	32690	
1753	0	32760	32692	
1754	0	32820	32830	
1755	0	32740	32711	
1756	0	32844	32844	
1757	0	32828	32730	
1758	0	32820	32659	
1759	0	32800	32768	
1760	0	32812	32748	
1761	0	32778	32756	
1762	0	32788	32847	
1763	0	32776	32832	
1764	0	32786	32692	
1765	0	32816	32796	
1766	0	32804	32806	
1767	0	32847	32712	
1768	0	32752	32840	
1769	0	32796	32762	
1770	0	32834	32847	
1771	0	32842	32825	
1772	0	32774	32711	
1773	0	32788	32835	
1774	0	32844	32690	
1775	0	32844	32724	
1776	0	32788	32775	
1777	0	32832	32816	
1778	0	32776	32847	
1779	0	32784	32695	
1780	0	32764	32682	
1781	0	32800	32772	
1782	0	32858	32702	
1783	0	32768	32815	
1784	0	32770	32728	
1785	0	32814	32686	
1786	0	32804	32894	
1787	0	32808	32796	
1788	0	32794	32790	
1789	0	32768	32863	
1790	0	32888	32692	
1791	0	32844	32743	
1792	0	32862	32734	
1793	0	32752	32807	
1794	0	32804	32752	
1795	0	32880	32758	
1796	0	32808	32745	
1797	0	32824	32751	
1798	0	32788	32775	
1799	0	32828	32767	
1800	0	32824	32710	
1801	0	32804	32798	
1802	0	32836	32775	
1803	0	32788	32760	
1804	0	32824	32871	
1805	0	32796	32753	
1806	0	32756	32754	
1807	0	32772	32657	
1808	0	32844	32670	
1809	0	32788	32823	
1810	0	32750	32734	
1811	0	32844	32884	
1812	0	32804	32704	
1813	0	32784	32860	
1814	0	32832	32722	
1815	0	32870	32842	
1816	0	32836	32760	
1817	0	32796	32682	
1818	0	32794	32812	
1819	0	32824	32622	
1820	0	32768	32828	
1821	0	32760	32692	
1822	0	32834	32746	
1823	0	32856	32804	
1824	0	32746	32816	
1825	0	32804	32822	
1826	0	32852	32663	
1827	0	32852	32838	
1828	0	32840	32751	
1829	0	32772	32738	
1830	0	32876	32730	
1831	0	32858	32748	
1832	0	32792	32842	
1833	0	32796	32796	
1834	0	32776	32842	
1835	0	32824	32794	
1836	0	32816	32588	
1837	0	32834	32868	
1838	0	32842	32824	
1839	0	32792	32806	
1840	0	32812	32678	
1841	0	32852	32772	
1842	0	32838	32775	
1843	0	32800	32743	
1844	0	32816	32822	
1845	0	32796	32775	
1846	0	32808	32684	
1847	0	32850	32784	
1848	0	32888	32832	
1849	0	32764	32710	
1850	0	32790	32816	
1851	0	32842	32750	
1852	0	32730	32796	
1853	0	32774	32676	
1854	0	32856	32708	
1855	0	32832	32743	
1856	0	32844	32793	
1857	0	32800	32775	
1858	0	32799	32764	
1859	0	32820	32775	
1860	0	32780	32688	
1861	0	32760	32796	
1862	0	32764	32828	
1863	0	32800	32774	
1864	0	32804	32830	
1865	0	32784	32719	
1866	0	32792	32828	
1867	0	32780	32766	
1868	0	32862	32702	
1869	0	32816	32814	
1870	0	32832	32604	
1871	0	32836	32730	
1872	0	32886	32758	
1873	0	32846	32754	
1874	0	32784	32842	
1875	0	32876	32727	
1876	0	32788	32752	
1877	0	32780	32802	
1878	0	32816	32775	
1879	0	32810	32774	
1880	0	32852	32711	
1881	0	32816	32775	
1882	0	32784	32742	
1883	0	32796	32700	
1884	0	32872	32756	
1885	0	32768	32734	
1886	0	32844	32830	
1887	0	32822	32850	
1888	0	32828	32775	
1889	0	32844	32746	
1890	0	32878	32806	
1891	0	32788	32812	
1892	0	32780	32758	
1893	0	32828	32658	
1894	0	32764	32852	
1895	0	32788	32807	
1896	0	32792	32792	
1897	0	32820	32686	
1898	0	32784	32760	
1899	0	32796	32775	
1900	0	32829	32724	
1901	0	32814	32678	
1902	0	32780	32874	
1903	0	32756	32802	
1904	0	32870	32756	
1905	0	32810	32856	
1906	0	32840	32903	
1907	0	32836	32710	
1908	0	32798	32743	
1909	0	32848	32775	
1910	0	32784	32796	
1911	0	32874	32804	
1912	0	32824	32684	
1913	0	32760	32838	
1914	0	32796	32772	
1915	0	32848	32828	
1916	0	32844	32658	
1917	0	32778	32674	
1918	0	32824	32772	
1919	0	32880	32769	
1920	0	32772	32788	
1921	0	32772	32828	
1922	0	32828	32740	
1923	0	32846	32754	
1924	0	32820	32708	
1925	0	32794	32806	
1926	0	32794	32836	
1927	0	32828	32775	
1928	0	32792	32748	
1929	0	32812	32670	
1930	0	32776	32791	
1931	0	32842	32732	
1932	0	32776	32806	
1933	0	32834	32714	
1934	0	32828	32686	
1935	0	32816	32752	
1936	0	32816	32737	
1937	0	32824	32884	
1938	0	32834	32772	
1939	0	32792	32655	
1940	0	32848	32869	
1941	0	32804	32860	
1942	0	32832	32806	
1943	0	32766	32666	
1944	0	32812	32760	
1945	0	32832	32852	
1946	0	32780	32804	
1947	0	32824	32876	
1948	0	32762	32615	
1949	0	32802	32662	
1950	0	32814	32827	
1951	0	32856	32807	
1952	0	32812	32902	
1953	0	32836	32668	
1954	0	32820	32730	
1955	0	32784	32767	
1956	0	32720	32711	
1957	0	32748	32804	
1958	0	32804	32670	
1959	0	32844	32753	
1960	0	32776	32792	
1961	0	32832	32702	
1962	0	32744	32831	
1963	0	32840	32820	
1964	0	32782	32798	
1965	0	32832	32684	
1966	0	32780	32772	
1967	0	32760	32756	
1968	0	32844	32796	
1969	0	32812	32758	
1970	0	32848	32742	
1971	0	32800	32807	
1972	0	32816	32794	
1973	0	32836	32766	
1974	0	32804	32721	
1975	0	32848	32832	
1976	0	32820	32860	
1977	0	32798	32775	
1978	0	32800	32734	
1979	0	32768	32610	
1980	0	32760	32666	
1981	0	32848	32908	
1982	0	32786	32737	
1983	0	32840	32735	
1984	0	32756	32760	
1985	0	32810	32806	
1986	0	32832	32768	
1987	0	32848	32774	
1988	0	32852	32686	
1989	0	32778	32684	
1990	0	32748	32842	
1991	0	32752	32839	
1992	0	32800	32774	
1993	0	32876	32678	
1994	0	32820	32750	
1995	0	32800	32775	
1996	0	32792	32793	
1997	0	32796	32760	
1998	0	32828	32704	
1999	0	32804	32772	
2000	0	32780	32743	
2001	0	32802	32824	
2002	0	32832	32775	
2003	0	32784	32762	
2004	0	32820	32718	
2005	0	32804	32711	
2006	0	32862	32826	
2007	0	32816	32734	
2008	0	32778	32830	
2009	0	32814	32806	
2010	0	32860	32786	
2011	0	32868	32812	
2012	0	32800	32752	
2013	0	32820	32700	
2014	0	32824	32822	
2015	0	32780	32807	
2016	0	32854	32755	
2017	0	32768	32694	
2018	0	32840	32686	
2019	0	32808	32783	
2020	0	32738	32788	
2021	0	32848	32807	
2022	0	32840	32662	
2023	0	32784	32810	
2024	0	32768	32790	
2025	0	32820	32754	
2026	0	32768	32689	
2027	0	32872	32828	
2028	0	32792	32790	
2029	0	32818	32684	
2030	0	32804	32720	
2031	0	32848	32823	
2032	0	32804	32755	
2033	0	32808	32807	
2034	0	32804	32788	
2035	0	32814	32742	
2036	0	32834	32734	
2037	0	32772	32860	
2038	0	32824	32730	
2039	0	32798	32711	
2040	0	32828	32775	
2041	0	32866	32807	
2042	0	32766	32806	
2043	0	32808	32831	
2044	0	32818	32792	
2045	0	32778	32762	
2046	0	32816	32766	
2047	0	32730	32740	
2048	0	32849	32718	
2049	0	32801	32788	
2050	0	32796	32839	
2051	0	32864	32775	
2052	0	32832	32714	
2053	0	32844	32807	
2054	0	32804	32772	
2055	0	32876	32750	
2056	0	32762	32767	
2057	0	32768	32756	
2058	0	32884	32806	
2059	0	32748	32728	
2060	0	32832	32812	
2061	0	32892	32764	
2062	0	32800	32807	
2063	0	32798	32704	
2064	0	32772	32775	
2065	0	32832	32812	
2066	0	32754	32754	
2067	0	32778	32831	
2068	0	32768	32674	
2069	0	32764	32759	
2070	0	32824	32796	
2071	0	32834	32830	
2072	0	32804	32772	
2073	0	32756	32746	
2074	0	32800	32775	
2075	0	32768	32742	
2076	0	32820	32796	
2077	0	32772	32718	
2078	0	32772	32811	
2079	0	32870	32766	
2080	0	32880	32816	
2081	0	32784	32628	
2082	0	32896	32882	
2083	0	32840	32846	
2084	0	32780	32810	
2085	0	32802	32742	
2086	0	32832	32770	
2087	0	32794	32820	
2088	0	32868	32708	
2089	0	32792	32752	
2090	0	32824	32748	
2091	0	32860	32728	
2092	0	32800	32852	
2093	0	32788	32726	
2094	0	32801	32704	
2095	0	32792	32654	
2096	0	32808	32823	
2097	0	32760	32775	
2098	0	32808	32746	
2099	0	32820	32796	
2100	0	32820	32820	
2101	0	32880	32775	
2102	0	32840	32692	
2103	0	32776	32631	
2104	0	32822	32708	
2105	0	32800	32819	
2106	0	32832	32830	
2107	0	32820	32716	
2108	0	32820	32837	
2109	0	32832	32846	
2110	0	32810	32656	
2111	0	32812	32718	
2112	0	32810	32823	
2113	0	32848	32738	
2114	0	32808	32772	
2115	0	32820	32814	
2116	0	32772	32839	
2117	0	32764	32660	
2118	0	32746	32825	
2119	0	32824	32766	
2120	0	32740	32770	
2121	0	32820	32816	
2122	0	32796	32740	
2123	0	32812	32695	
2124	0	32832	32766	
2125	0	32764	32736	
2126	0	32840	32768	
2127	0	32824	32678	
2128	0	32790	32692	
2129	0	32870	32816	
2130	0	32808	32796	
2131	0	32808	32849	
2132	0	32824	32696	
2133	0	32816	32662	
2134	0	32824	32836	
2135	0	32848	32838	
2136	0	32810	32865	
2137	0	32800	32775	
2138	0	32836	32692	
2139	0	32758	32802	
2140	0	32802	32760	
2141	0	32890	32770	
2142	0	32808	32775	
2143	0	32848	32702	
2144	0	32781	32770	
2145	0	32800	32844	
2146	0	32820	32744	
2147	0	32794	32770	
2148	0	32832	32788	
2149	0	32788	32746	
2150	0	32788	32703	
2151	0	32772	32746	
2152	0	32790	32823	
2153	0	32812	32828	
2154	0	32784	32684	
2155	0	32854	32742	
2156	0	32844	32806	
2157	0	32804	32689	
2158	0	32800	32692	
2159	0	32856	32812	
2160	0	32788	32844	
2161	0	32832	32828	
2162	0	32788	32702	
2163	0	32781	32700	
2164	0	32790	32794	
2165	0	32808	32775	
2166	0	32776	32686	
2167	0	32880	32796	
2168	0	32837	32802	
2169	0	32810	32878	
2170	0	32820	32682	
2171	0	32775	32714	
2172	0	32770	32775	
2173	0	32848	32814	
2174	0	32856	32796	
2175	0	32848	32808	
2176	0	32814	32699	
2177	0	32820	32724	
2178	0	32828	32806	
2179	0	32826	32870	
2180	0	32788	32743	
2181	0	32826	32742	
2182	0	32824	32638	
2183	0	32800	32688	
2184	0	32792	32782	
2185	0	32804	32810	
2186	0	32824	32807	
2187	0	32860	32734	
2188	0	32772	32705	
2189	0	32820	32815	
2190	0	32768	32750	
2191	0	32740	32774	
2192	0	32838	32838	
2193	0	32832	32748	
2194	0	32792	32775	
2195	0	32826	32716	
2196	0	32828	32876	
2197	0	32784	32775	
2198	0	32776	32832	
2199	0	32870	32662	
2200	0	32896	32716	
2201	0	32842	32878	
2202	0	32764	32789	
2203	0	32878	32801	
2204	0	32840	32842	
2205	0	32832	32686	
2206	0	32792	32684	
2207	0	32796	32804	
2208	0	32838	32798	
2209	0	32828	32775	
2210	0	32840	32774	
2211	0	32826	32711	
2212	0	32756	32711	
2213	0	32824	32856	
2214	0	32768	32727	
2215	0	32768	32734	
2216	0	32798	32804	
2217	0	32940	32747	
2218	0	32752	32724	
2219	0	32824	32687	
2220	0	32874	32796	
2221	0	32836	32804	
2222	0	32862	32834	
2223	0	32824	32829	
2224	0	32834	32582	
2225	0	32748	32860	
2226	0	32806	32825	
2227	0	32846	32748	
2228	0	32810	32816	
2229	0	32776	32804	
2230	0	32786	32742	
2231	0	32866	32845	
2232	0	32874	32759	
2233	0	32768	32868	
2234	0	32776	32772	
2235	0	32824	32740	
2236	0	32806	32830	
2237	0	32784	32764	
2238	0	32832	32834	
2239	0	32804	32761	
2240	0	32788	32660	
2241	0	32878	32796	
2242	0	32808	32752	
2243	0	32820	32807	
2244	0	32868	32838	
2245	0	32784	32690	
2246	0	32844	32706	
2247	0	32816	32708	
2248	0	32814	32816	
2249	0	32864	32756	
2250	0	32788	32756	
2251	0	32796	32680	
2252	0	32812	32764	
2253	0	32826	32782	
2254	0	32836	32764	
2255	0	32809	32730	
2256	0	32872	32751	
2257	0	32818	32726	
2258	0	32840	32782	
2259	0	32758	32743	
2260	0	32812	32734	
2261	0	32804	32756	
2262	0	32808	32714	
2263	0	32800	32856	
2264	0	32836	32772	
2265	0	32836	32726	
2266	0	32796	32716	
2267	0	32902	32796	
2268	0	32820	32764	
2269	0	32812	32774	
2270	0	32860	32799	
2271	0	32840	32782	
2272	0	32780	32786	
2273	0	32808	32669	
2274	0	32824	32745	
2275	0	32764	32775	
2276	0	32836	32736	
2277	0	32840	32696	
2278	0	32804	32818	
2279	0	32772	32772	
2280	0	32788	32724	
2281	0	32746	32754	
2282	0	32796	32798	
2283	0	32778	32716	
2284	0	32856	32802	
2285	0	32788	32746	
2286	0	32844	32868	
2287	0	32788	32716	
2288	0	32800	32881	
2289	0	32834	32772	
2290	0	32784	32799	
2291	0	32802	32704	
2292	0	32796	32846	
2293	0	32800	32740	
2294	0	32798	32766	
2295	0	32752	32670	
2296	0	32788	32816	
2297	0	32804	32788	
2298	0	32824	32818	
2299	0	32760	32638	
2300	0	32724	32716	
2301	0	32800	32832	
2302	0	32772	32759	
2303	0	32842	32762	
2304	0	32872	32680	
2305	0	32788	32726	
2306	0	32836	32821	
2307	0	32870	32792	
2308	0	32836	32832	
2309	0	32800	32855	
2310	0	32816	32730	
2311	0	32836	32868	
2312	0	32808	32796	
2313	0	32820	32732	
2314	0	32744	32775	
2315	0	32788	32768	
2316	0	32776	32767	
2317	0	32888	32647	
2318	0	32794	32810	
2319	0	32772	32775	
2320	0	32784	32775	
2321	0	32860	32718	
2322	0	32775	32700	
2323	0	32800	32820	
2324	0	32816	32698	
2325	0	32772	32788	
2326	0	32818	32678	
2327	0	32842	32806	
2328	0	32824	32772	
2329	0	32832	32681	
2330	0	32840	32828	
2331	0	32772	32838	
2332	0	32726	32620	
2333	0	32804	32807	
2334	0	32798	32760	
2335	0	32834	32736	
2336	0	32802	32702	
2337	0	32784	32726	
2338	0	32792	32782	
2339	0	32808	32774	
2340	0	32848	32788	
2341	0	32842	32730	
2342	0	32816	32678	
2343	0	32834	32790	
2344	0	32836	32762	
2345	0	32862	32647	
2346	0	32778	32870	
2347	0	32860	32807	
2348	0	32812	32720	
2349	0	32836	32704	
2350	0	32780	32852	
2351	0	32836	32854	
2352	0	32768	32775	
2353	0	32764	32752	
2354	0	32814	32800	
2355	0	32840	32711	
2356	0	32816	32816	
2357	0	32800	32766	
2358	0	32842	32818	
2359	0	32858	32660	
2360	0	32776	32860	
2361	0	32798	32775	
2362	0	32858	32766	
2363	0	32864	32798	
2364	0	32800	32624	
2365	0	32824	32768	
2366	0	32820	32798	
2367	0	32824	32879	
2368	0	32854	32714	
2369	0	32806	32729	
2370	0	32896	32775	
2371	0	32796	32764	
2372	0	32844	32759	
2373	0	32804	32822	
2374	0	32820	32722	
2375	0	32824	32670	
2376	0	32784	32716	
2377	0	32808	32775	
2378	0	32760	32812	
2379	0	32816	32818	
2380	0	32848	32799	
2381	0	32770	32767	
2382	0	32722	32750	
2383	0	32854	32742	
2384	0	32792	32700	
2385	0	32826	32826	
2386	0	32788	32796	
2387	0	32828	32708	
2388	0	32884	32814	
2389	0	32834	32829	
2390	0	32824	32748	
2391	0	32856	32702	
2392	0	32874	32662	
2393	0	32890	32709	
2394	0	32792	32680	
2395	0	32808	32630	
2396	0	32910	32759	
2397	0	32876	32716	
2398	0	32834	32758	
2399	0	32808	32676	
2400	0	32926	32546	
2401	0	32958	32622	
2402	0	32900	32680	
2403	0	32892	32716	
2404	0	32814	32752	
2405	0	32912	32644	
2406	0	32848	32559	
2407	0	32884	32756	
2408	0	32932	32743	
2409	0	32892	32654	
2410	0	32860	32775	
2411	0	32902	32749	
2412	0	32928	32764	
2413	0	32794	32775	
2414	0	32804	32768	
2415	0	32748	32950	
2416	0	32714	32865	
2417	0	32656	32824	
2418	0	32648	32930	
2419	0	32740	32845	
2420	0	32722	33036	
2421	0	32708	33006	
2422	0	32696	33075	
2423	0	32670	32920	
2424	0	32648	33004	
2425	0	32644	32890	
2426	0	32652	32954	
2427	0	32680	32994	
2428	0	32640	33046	
2429	0	32610	32996	
2430	0	32558	32968	
2431	0	32612	33098	
2432	0	32698	32980	
2433	0	32770	32889	
2434	0	32712	32759	
2435	0	32814	32684	
2436	0	32932	32674	
2437	0	32918	32524	
2438	0	32936	32542	
2439	0	32868	32544	
2440	0	32906	32610	
2441	0	32896	32598	
2442	0	32945	32519	
2443	0	32874	32660	
2444	0	32852	32688	
2445	0	32888	32586	
2446	0	32924	32564	
2447	0	32856	32678	
2448	0	32900	32700	
2449	0	32820	32716	
2450	0	32812	32754	
2451	0	32874	32852	
2452	0	32768	32752	
2453	0	32824	32812	
2454	0	32800	32682	
2455	0	32812	32716	
2456	0	32804	32740	
2457	0	32698	32770	
2458	0	32800	32647	
2459	0	32794	32807	
2460	0	32860	32816	
2461	0	32788	32714	
2462	0	32844	32812	
2463	0	32816	32830	
2464	0	32820	32754	
2465	0	32816	32698	
2466	0	32800	32688	
2467	0	32886	32802	
2468	0	32888	32812	
2469	0	32800	32806	
2470	0	32870	32726	
2471	0	32836	32710	
2472	0	32836	32766	
2473	0	32876	32737	
2474	0	32816	32668	
2475	0	32792	32825	
2476	0	32794	32820	
2477	0	32820	32775	
2478	0	32810	32684	
2479	0	32858	32730	
2480	0	32785	32790	
2481	0	32836	32775	
2482	0	32772	32700	
2483	0	32932	32706	
2484	0	32788	32916	
2485	0	32776	32775	
2486	0	32860	32775	
2487	0	32782	32716	
2488	0	32796	32752	
2489	0	32888	32864	
2490	0	32800	32686	
2491	0	32828	32804	
2492	0	32830	32832	
2493	0	32844	32638	
2494	0	32860	32732	
2495	0	32892	32775	
2496	0	32824	32743	
2497	0	32828	32788	
2498	0	32908	32696	
2499	0	32808	32775	
2500	0	32864	32775	
2501	0	32844	32759	
2502	0	32864	32704	
2503	0	32832	32711	
2504	0	32778	32748	
2505	0	32832	32796	
2506	0	32822	32688	
2507	0	32800	32666	
2508	0	32807	32728	
2509	0	32798	32762	
2510	0	32888	32847	
2511	0	32814	32688	
2512	0	32784	32670	
2513	0	32800	32868	
2514	0	32774	32766	
2515	0	32782	32740	
2516	0	32830	32722	
2517	0	32790	32775	
2518	0	32790	32775	
2519	0	32778	32692	
2520	0	32864	32742	
2521	0	32800	32802	
2522	0	32766	32842	
2523	0	32784	32718	
2524	0	32746	32684	
2525	0	32796	32790	
2526	0	32776	32814	
2527	0	32804	32716	
2528	0	32824	32772	
2529	0	32864	32839	
2530	0	32809	32736	
2531	0	32780	32844	
2532	0	32856	32758	
2533	0	32800	32814	
2534	0	32830	32750	
2535	0	32890	32852	
2536	0	32812	32700	
2537	0	32780	32839	
2538	0	32836	32772	
2539	0	32766	32845	
2540	0	32824	32794	
2541	0	32708	32775	
2542	0	32756	32736	
2543	0	32774	32823	
2544	0	32820	32640	
2545	0	32856	32756	
2546	0	32798	32788	
2547	0	32844	32836	
2548	0	32736	32868	
2549	0	32800	32678	
2550	0	32824	32764	
2551	0	32850	32728	
2552	0	32828	32804	
2553	0	32816	32704	
2554	0	32806	32798	
2555	0	32788	32750	
2556	0	32788	32661	
2557	0	32816	32712	
2558	0	32866	32774	
2559	0	32844	32871	
2560	0	32768	32727	
2561	0	32830	32738	
2562	0	32860	32826	
2563	0	32764	32775	
2564	0	32814	32690	
2565	0	32842	32742	
2566	0	32880	32856	
2567	0	32856	32878	
2568	0	32740	32806	
2569	0	32816	32852	
2570	0	32804	32748	
2571	0	32792	32746	
2572	0	32844	32729	
2573	0	32782	32775	
2574	0	32832	32772	
2575	0	32806	32718	
2576	0	32842	32734	
2577	0	32788	32789	
2578	0	32808	32774	
2579	0	32836	32774	
2580	0	32808	32839	
2581	0	32824	32647	
2582	0	32776	32712	
2583	0	32834	32774	
2584	0	32804	32786	
2585	0	32816	32666	
2586	0	32828	32791	
2587	0	32816	32740	
2588	0	32846	32760	
2589	0	32784	32826	
2590	0	32804	32702	
2591	0	32792	32788	
2592	0	32884	32775	
2593	0	32844	32788	
2594	0	32814	32704	
2595	0	32772	32793	
2596	0	32800	32768	
2597	0	32804	32745	
2598	0	32804	32750	
2599	0	32764	32742	
2600	0	32842	32742	
2601	0	32773	32775	
2602	0	32828	32710	
2603	0	32796	32804	
2604	0	32856	32812	
2605	0	32792	32774	
2606	0	32792	32775	
2607	0	32852	32720	
2608	0	32764	32712	
2609	0	32906	32799	
2610	0	32794	32784	
2611	0	32808	32682	
2612	0	32792	32706	
2613	0	32812	32814	
2614	0	32816	32766	
2615	0	32812	32868	
2616	0	32774	32720	
2617	0	32828	32676	
2618	0	32728	32775	
2619	0	32800	32724	
2620	0	32824	32852	
2621	0	32796	32646	
2622	0	32760	32694	
2623	0	32824	32742	
2624	0	32816	32788	
2625	0	32800	32832	
2626	0	32769	32668	
2627	0	32804	32796	
2628	0	32820	32794	
2629	0	32798	32785	
2630	0	32882	32794	
2631	0	32832	32692	
2632	0	32846	32775	
2633	0	32778	32759	
2634	0	32780	32750	
2635	0	32784	32722	
2636	0	32774	32872	
2637	0	32832	32760	
2638	0	32821	32807	
2639	0	32756	32732	
2640	0	32770	32830	
2641	0	32868	32732	
2642	0	32824	32738	
2643	0	32784	32728	
2644	0	32832	32706	
2645	0	32782	32823	
2646	0	32884	32796	
2647	0	32894	32716	
2648	0	32840	32668	
2649	0	32804	32740	
2650	0	32834	32746	
2651	0	32830	32775	
2652	0	32780	32665	
2653	0	32796	32900	
2654	0	32832	32775	
2655	0	32810	32849	
2656	0	32820	32680	
2657	0	32808	32744	
2658	0	32792	32722	
2659	0	32820	32748	
2660	0	32784	32806	
2661	0	32784	32692	
2662	0	32802	32800	
2663	0	32734	32775	
2664	0	32816	32838	
2665	0	32848	32719	
2666	0	32832	32832	
2667	0	32840	32766	
2668	0	32808	32808	
2669	0	32816	32766	
2670	0	32770	32714	
2671	0	32778	32844	
2672	0	32816	32760	
2673	0	32868	32814	
2674	0	32784	32812	
2675	0	32860	32660	
2676	0	32816	32824	
2677	0	32696	32700	
2678	0	32836	32796	
2679	0	32780	32775	
2680	0	32754	32726	
2681	0	32820	32848	
2682	0	32798	32769	
2683	0	32822	32762	
2684	0	32802	32708	
2685	0	32820	32688	
2686	0	32832	32775	
2687	0	32788	32775	
2688	0	32800	32752	
2689	0	32848	32724	
2690	0	32816	32804	
2691	0	32780	32724	
2692	0	32868	32674	
2693	0	32764	32808	
2694	0	32792	32793	
2695	0	32832	32724	
2696	0	32780	32847	
2697	0	32786	32722	
2698	0	32837	32774	
2699	0	32768	32676	
2700	0	32762	32836	
2701	0	32784	32750	
2702	0	32816	32836	
2703	0	32760	32775	
2704	0	32828	32642	
2705	0	32768	32716	
2706	0	32848	32767	
2707	0	32820	32710	
2708	0	32756	32868	
2709	0	32810	32690	
2710	0	32792	32848	
2711	0	32832	32764	
2712	0	32856	32820	
2713	0	32878	32775	
2714	0	32789	32680	
2715	0	32828	32682	
2716	0	32794	32810	
2717	0	32790	32830	
2718	0	32804	32802	
2719	0	32748	32775	
2720	0	32804	32858	
2721	0	32884	32775	
2722	0	32808	32808	
2723	0	32748	32724	
2724	0	32792	32807	
2725	0	32832	32832	
2726	0	32840	32686	
2727	0	32796	32718	
2728	0	32860	32702	
2729	0	32824	32811	
2730	0	32832	32759	
2731	0	32808	32706	
2732	0	32800	32870	
2733	0	32844	32775	
2734	0	32820	32760	
2735	0	32830	32726	
2736	0	32824	32762	
2737	0	32761	32792	
2738	0	32828	32756	
2739	0	32800	32714	
2740	0	32788	32756	
2741	0	32780	32806	
2742	0	32850	32804	
2743	0	32792	32699	
2744	0	32842	32839	
2745	0	32812	32762	
2746	0	32838	32743	
2747	0	32852	32758	
2748	0	32806	32747	
2749	0	32756	32772	
2750	0	32775	32775	
2751	0	32750	32646	
2752	0	32804	32711	
2753	0	32828	32890	
2754	0	32806	32775	
2755	0	32812	32836	
2756	0	32822	32694	
2757	0	32792	32844	
2758	0	32832	32816	
2759	0	32836	32775	
2760	0	32788	32668	
2761	0	32818	32759	
2762	0	32810	32748	
2763	0	32800	32760	
2764	0	32788	32710	
2765	0	32816	32766	
2766	0	32760	32794	
2767	0	32812	32784	
2768	0	32764	32706	
2769	0	32852	32775	
2770	0	32798	32846	
2771	0	32840	32884	
2772	0	32820	32746	
2773	0	32858	32766	
2774	0	32888	32792	
2775	0	32800	32718	
2776	0	32812	32802	
2777	0	32836	32784	
2778	0	32764	32868	
2779	0	32768	32654	
2780	0	32854	32802	
2781	0	32808	32722	
2782	0	32792	32802	
2783	0	32798	32775	
2784	0	32808	32833	
2785	0	32828	32654	
2786	0	32852	32678	
2787	0	32778	32864	
2788	0	32792	32794	
2789	0	32852	32823	
2790	0	32786	32723	
2791	0	32816	32710	
2792	0	32888	32714	
2793	0	32818	32804	
2794	0	32828	32775	
2795	0	32808	32852	
2796	0	32736	32704	
2797	0	32766	32684	
2798	0	32775	32850	
2799	0	32756	32768	
2800	0	32804	32768	
2801	0	32796	32694	
2802	0	32788	32750	
2803	0	32852	32807	
2804	0	32836	32820	
2805	0	32782	32800	
2806	0	32888	32686	
2807	0	32840	32748	
2808	0	32836	32792	
2809	0	32856	32775	
2810	0	32812	32766	
2811	0	32830	32703	
2812	0	32816	32827	
2813	0	32858	32828	
2814	0	32832	32873	
2815	0	32800	32759	
2816	0	32824	32801	
2817	0	32828	32711	
2818	0	32778	32766	
2819	0	32770	32646	
2820	0	32818	32800	
2821	0	32816	32754	
2822	0	32834	32804	
2823	0	32844	32708	
2824	0	32806	32838	
2825	0	32852	32744	
2826	0	32768	32719	
2827	0	32848	32740	
2828	0	32832	32810	
2829	0	32848	32766	
2830	0	32849	32800	
2831	0	32788	32692	
2832	0	32826	32873	
2833	0	32784	32688	
2834	0	32844	32790	
2835	0	32852	32707	
2836	0	32720	32810	
2837	0	32800	32764	
2838	0	32808	32750	
2839	0	32792	32742	
2840	0	32794	32692	
2841	0	32856	32806	
2842	0	32794	32758	
2843	0	32860	32833	
2844	0	32852	32814	
2845	0	32804	32775	
2846	0	32900	32720	
2847	0	32784	32839	
2848	0	32836	32740	
2849	0	32868	32852	
2850	0	32800	32682	
2851	0	32824	32702	
2852	0	32776	32788	
2853	0	32880	32818	
2854	0	32836	32761	
2855	0	32800	32676	
2856	0	32780	32804	
2857	0	32812	32718	
2858	0	32820	32756	
2859	0	32800	32791	
2860	0	32770	32682	
2861	0	32788	32682	
2862	0	32792	32820	
2863	0	32768	32815	
2864	0	32776	32733	
2865	0	32884	32828	
2866	0	32772	32856	
2867	0	32844	32656	
2868	0	32876	32807	
2869	0	32868	32774	
2870	0	32810	32656	
2871	0	32834	32854	
2872	0	32820	32824	
2873	0	32800	32740	
2874	0	32775	32744	
2875	0	32780	32684	
2876	0	32832	32710	
2877	0	32768	32842	
2878	0	32834	32760	
2879	0	32848	32844	
2880	0	32808	32694	
2881	0	32822	32706	
2882	0	32885	32644	
2883	0	32792	32859	
2884	0	32834	32882	
2885	0	32816	32819	
2886	0	32772	32831	
2887	0	32804	32702	
2888	0	32828	32734	
2889	0	32804	32812	
2890	0	32868	32697	
2891	0	32824	32830	
2892	0	32780	32826	
2893	0	32852	32696	
2894	0	32784	32736	
2895	0	32752	32712	
2896	0	32828	32775	
2897	0	32780	32838	
2898	0	32810	32824	
2899	0	32837	32772	
2900	0	32796	32740	
2901	0	32882	32692	
2902	0	32792	32740	
2903	0	32816	32735	
2904	0	32842	32746	
2905	0	32848	32870	
2906	0	32800	32800	
2907	0	32872	32730	
2908	0	32816	32903	
2909	0	32800	32722	
2910	0	32794	32716	
2911	0	32788	32710	
2912	0	32788	32871	
2913	0	32817	32730	
2914	0	32766	32711	
2915	0	32826	32798	
2916	0	32744	32847	
2917	0	32800	32856	
2918	0	32706	32710	
2919	0	32880	32674	
2920	0	32888	32806	
2921	0	32836	32751	
2922	0	32744	32750	
2923	0	32886	32852	
2924	0	32800	32817	
2925	0	32740	32623	
2926	0	32852	32775	
2927	0	32820	32762	
2928	0	32804	32814	
2929	0	32796	32795	
2930	0	32844	32775	
2931	0	32824	32696	
2932	0	32834	32828	
2933	0	32852	32759	
2934	0	32752	32775	
2935	0	32826	32734	
2936	0	32790	32868	
2937	0	32804	32720	
2938	0	32854	32734	
2939	0	32792	32744	
2940	0	32784	32801	
2941	0	32792	32806	
2942	0	32758	32804	
2943	0	32826	32730	
2944	0	32866	32712	
2945	0	32824	32758	
2946	0	32888	32736	
2947	0	32860	32824	
2948	0	32758	32712	
2949	0	32754	32670	
2950	0	32832	32708	
2951	0	32828	32831	
2952	0	32848	32826	
2953	0	32816	32807	
2954	0	32783	32724	
2955	0	32752	32775	
2956	0	32832	32814	
2957	0	32760	32754	
2958	0	32804	32684	
2959	0	32744	32699	
2960	0	32796	32799	
2961	0	32836	32726	
2962	0	32870	32844	
2963	0	32848	32750	
2964	0	32810	32788	
2965	0	32836	32732	
2966	0	32824	32834	
2967	0	32776	32839	
2968	0	32832	32712	
2969	0	32828	32724	
2970	0	32784	32788	
2971	0	32780	32758	
2972	0	32802	32796	
2973	0	32822	32738	
2974	0	32858	32836	
2975	0	32820	32759	
2976	0	32792	32736	
2977	0	32792	32811	
2978	0	32768	32786	
2979	0	32836	32724	
2980	0	32824	32836	
2981	0	32840	32790	
2982	0	32776	32720	
2983	0	32818	32790	
2984	0	32838	32738	
2985	0	32928	32856	
2986	0	32792	32775	
2987	0	32842	32856	
2988	0	32840	32743	
2989	0	32820	32769	
2990	0	32808	32730	
2991	0	32848	32775	
2992	0	32740	32857	
2993	0	32840	32728	
2994	0	32752	32660	
2995	0	32798	32791	
2996	0	32796	32872	
2997	0	32836	32818	
2998	0	32780	32757	
2999	0	32788	32804	
3000	0	32764	32752	
3001	0	32844	32794	
3002	0	32832	32725	
3003	0	32780	32816	
3004	0	32764	32712	
3005	0	32878	32674	
3006	0	32856	32796	
3007	0	32784	32774	
3008	0	32792	32839	
3009	0	32826	32730	
3010	0	32824	32684	
3011	0	32760	32716	
3012	0	32780	32865	
3013	0	32812	32718	
3014	0	32820	32722	
3015	0	32758	32828	
3016	0	32788	32752	
3017	0	32798	32884	
3018	0	32802	32818	
3019	0	32800	32719	
3020	0	32828	32710	
3021	0	32816	32692	
3022	0	32816	32804	
3023	0	32776	32828	
3024	0	32790	32788	
3025	0	32828	32852	
3026	0	32804	32772	
3027	0	32834	32678	
3028	0	32810	32742	
3029	0	32834	32737	
3030	0	32852	32775	
3031	0	32824	32874	
3032	0	32796	32746	
3033	0	32744	32687	
3034	0	32788	32692	
3035	0	32798	32796	
3036	0	32744	32722	
3037	0	32844	32740	
3038	0	32764	32743	
3039	0	32792	32724	
3040	0	32800	32666	
3041	0	32860	32844	
3042	0	32722	32850	
3043	0	32752	32812	
3044	0	32824	32852	
3045	0	32821	32720	
3046	0	32808	32673	
3047	0	32801	32804	
3048	0	32812	32738	
3049	0	32840	32746	
3050	0	32832	32804	
3051	0	32834	32648	
3052	0	32826	32812	
3053	0	32880	32730	
3054	0	32784	32820	
3055	0	32804	32743	
3056	0	32820	32868	
3057	0	32800	32711	
3058	0	32829	32816	
3059	0	32804	32759	
3060	0	32824	32792	
3061	0	32846	32775	
3062	0	32748	32695	
3063	0	32848	32785	
3064	0	32864	32820	
3065	0	32798	32885	
3066	0	32832	32750	
3067	0	32848	32678	
3068	0	32806	32764	
3069	0	32806	32739	
3070	0	32788	32772	
3071	0	32812	32788	
3072	0	32818	32714	
3073	0	32820	32710	
3074	0	32824	32784	
3075	0	32736	32807	
3076	0	32788	32807	
3077	0	32784	32726	
3078	0	32840	32672	
3079	0	32852	32807	
3080	0	32844	32807	
3081	0	32824	32742	
3082	0	32876	32824	
3083	0	32756	32882	
3084	0	32812	32690	
3085	0	32828	32686	
3086	0	32840	32756	
3087	0	32790	32770	
3088	0	32842	32758	
3089	0	32836	32830	
3090	0	32842	32750	
3091	0	32784	32750	
3092	0	32812	32743	
3093	0	32856	32812	
3094	0	32868	32775	
3095	0	32774	32766	
3096	0	32830	32680	
3097	0	32744	32720	
3098	0	32796	32772	
3099	0	32836	32722	
3100	0	32804	32700	
3101	0	32840	32746	
3102	0	32808	32730	
3103	0	32776	32768	
3104	0	32812	32710	
3105	0	32820	32802	
3106	0	32826	32775	
3107	0	32817	32750	
3108	0	32857	32698	
3109	0	32796	32743	
3110	0	32774	32790	
3111	0	32770	32713	
3112	0	32832	32750	
3113	0	32778	32792	
3114	0	32828	32740	
3115	0	32792	32756	
3116	0	32724	32700	
3117	0	32804	32750	
3118	0	32814	32732	
3119	0	32868	32802	
3120	0	32790	32710	
3121	0	32776	32824	
3122	0	32824	32762	
3123	0	32832	32792	
3124	0	32868	32742	
3125	0	32856	32832	
3126	0	32862	32796	
3127	0	32828	32727	
3128	0	32852	32729	
3129	0	32810	32736	
3130	0	32856	32808	
3131	0	32804	32730	
3132	0	32794	32848	
3133	0	32888	32788	
3134	0	32764	32687	
3135	0	32800	32794	
3136	0	32794	32700	
3137	0	32742	32788	
3138	0	32820	32730	
3139	0	32808	32828	
3140	0	32830	32714	
3141	0	32872	32647	
3142	0	32816	32846	
3143	0	32836	32802	
3144	0	32760	32688	
3145	0	32796	32674	
3146	0	32820	32876	
3147	0	32772	32774	
3148	0	32810	32706	
3149	0	32760	32734	
3150	0	32802	32804	
3151	0	32800	32817	
3152	0	32808	32700	
3153	0	32808	32734	
3154	0	32852	32734	
3155	0	32796	32844	
3156	0	32812	32680	
3157	0	32758	32835	
3158	0	32820	32750	
3159	0	32788	32732	
3160	0	32836	32692	
3161	0	32868	32782	
3162	0	32786	32854	
3163	0	32804	32696	
3164	0	32870	32817	
3165	0	32848	32804	
3166	0	32828	32746	
3167	0	32832	32784	
3168	0	32800	32788	
3169	0	32808	32814	
3170	0	32786	32612	
3171	0	32774	32644	
3172	0	32838	32724	
3173	0	32784	32772	
3174	0	32834	32794	
3175	0	32774	32836	
3176	0	32789	32740	
3177	0	32840	32668	
3178	0	32852	32684	
3179	0	32840	32775	
3180	0	32806	32752	
3181	0	32828	32806	
3182	0	32776	32758	
3183	0	32756	32702	
3184	0	32828	32756	
3185	0	32862	32856	
3186	0	32800	32818	
3187	0	32866	32732	
3188	0	32840	32840	
3189	0	32852	32754	
3190	0	32852	32724	
3191	0	32796	32722	
3192	0	32758	32800	
3193	0	32822	32839	
3194	0	32856	32775	
3195	0	32768	32838	
3196	0	32842	32696	
3197	0	32806	32642	
3198	0	32818	32772	
3199	0	32818	32799	
3200	0	32812	32775	
3201	0	32804	32758	
3202	0	32822	32684	
3203	0	32764	32887	
3204	0	32786	32775	
3205	0	32798	32822	
3206	0	32802	32672	
3207	0	32864	32764	
3208	0	32818	32809	
3209	0	32784	32708	
3210	0	32790	32760	
3211	0	32788	32690	
3212	0	32828	32748	
3213	0	32808	32832	
3214	0	32798	32830	
3215	0	32760	32840	
3216	0	32808	32738	
3217	0	32772	32750	
3218	0	32879	32796	
3219	0	32887	32872	
3220	0	32814	32760	
3221	0	32870	32727	
3222	0	32800	32752	
3223	0	32784	32718	
3224	0	32769	32852	
3225	0	32800	32698	
3226	0	32818	32710	
3227	0	32866	32705	
3228	0	32828	32775	
3229	0	32830	32832	
3230	0	32828	32684	
3231	0	32744	32654	
3232	0	32884	32826	
3233	0	32844	32840	
3234	0	32880	32724	
3235	0	32800	32788	
3236	0	32856	32724	
3237	0	32836	32675	
3238	0	32766	32739	
3239	0	32778	32673	
3240	0	32808	32742	
3241	0	32820	32700	
3242	0	32832	32828	
3243	0	32820	32750	
3244	0	32822	32828	
3245	0	32800	32750	
3246	0	32834	32780	
3247	0	32800	32850	
3248	0	32856	32775	
3249	0	32836	32748	
3250	0	32793	32706	
3251	0	32856	32630	
3252	0	32866	32739	
3253	0	32759	32796	
3254	0	32816	32775	
3255	0	32810	32802	
3256	0	32774	32756	
3257	0	32794	32760	
3258	0	32778	32628	
3259	0	32772	32724	
3260	0	32768	32728	
3261	0	32832	32871	
3262	0	32876	32732	
3263	0	32812	32745	
3264	0	32740	32854	
3265	0	32800	32808	
3266	0	32834	32652	
3267	0	32822	32868	
3268	0	32768	32856	
3269	0	32852	32788	
3270	0	32814	32722	
3271	0	32836	32764	
3272	0	32792	32746	
3273	0	32800	32756	
3274	0	32812	32814	
3275	0	32860	32783	
3276	0	32776	32775	
3277	0	32804	32752	
3278	0	32854	32694	
3279	0	32764	32711	
3280	0	32844	32806	
3281	0	32808	32775	
3282	0	32748	32737	
3283	0	32796	32828	
3284	0	32780	32750	
3285	0	32792	32744	
3286	0	32802	32812	
3287	0	32804	32817	
3288	0	32828	32770	
3289	0	32844	32740	
3290	0	32804	32708	
3291	0	32814	32855	
3292	0	32830	32890	
3293	0	32768	32784	
3294	0	32830	32732	
3295	0	32828	32716	
3296	0	32800	32814	
3297	0	32768	32752	
3298	0	32853	32789	
3299	0	32840	32796	
3300	0	32824	32716	
3301	0	32842	32647	
3302	0	32810	32780	
3303	0	32838	32748	
3304	0	32852	32847	
3305	0	32756	32710	
3306	0	32788	32680	
3307	0	32768	32866	
3308	0	32758	32755	
3309	0	32780	32798	
3310	0	32790	32816	
3311	0	32800	32668	
3312	0	32784	32693	
3313	0	32812	32807	
3314	0	32900	32736	
3315	0	32792	32734	
3316	0	32782	32748	
3317	0	32836	32702	
3318	0	32832	32775	
3319	0	32812	32818	
3320	0	32792	32708	
3321	0	32804	32801	
3322	0	32800	32879	
3323	0	32874	32714	
3324	0	32792	32664	
3325	0	32786	32820	
3326	0	32820	32762	
3327	0	32840	32860	
3328	0	32824	32818	
3329	0	32842	32694	
3330	0	32792	32742	
3331	0	32864	32775	
3332	0	32904	32775	
3333	0	32832	32810	
3334	0	32696	32746	
3335	0	32760	32775	
3336	0	32788	32676	
3337	0	32808	32730	
3338	0	32832	32719	
3339	0	32824	32766	
3340	0	32860	32740	
3341	0	32766	32762	
3342	0	32820	32814	
3343	0	32864	32772	
3344	0	32764	32744	
3345	0	32864	32828	
3346	0	32810	32792	
3347	0	32776	32786	
3348	0	32856	32742	
3349	0	32814	32744	
3350	0	32796	32763	
3351	0	32784	32846	
3352	0	32846	32742	
3353	0	32788	32678	
3354	0	32800	32758	
3355	0	32744	32740	
3356	0	32776	32740	
3357	0	32860	32836	
3358	0	32778	32831	
3359	0	32808	32858	
3360	0	32784	32844	
3361	0	32821	32820	
3362	0	32868	32660	
3363	0	32776	32758	
3364	0	32842	32726	
3365	0	32775	32774	
3366	0	32828	32726	
3367	0	32860	32664	
3368	0	32844	32768	
3369	0	32752	32828	
3370	0	32816	32895	
3371	0	32808	32670	
3372	0	32812	32703	
3373	0	32816	32790	
3374	0	32784	32740	
3375	0	32728	32864	
3376	0	32764	32688	
3377	0	32790	32720	
3378	0	32710	32770	
3379	0	32786	32816	
3380	0	32792	32680	
3381	0	32772	32767	
3382	0	32750	32846	
3383	0	32778	32788	
3384	0	32804	32788	
3385	0	32874	32724	
3386	0	32766	32772	
3387	0	32828	32796	
3388	0	32864	32755	
3389	0	32920	32754	
3390	0	32906	32590	
3391	0	32896	32668	
3392	0	32870	32687	
3393	0	32824	32647	
3394	0	32812	32696	
3395	0	32852	32684	
3396	0	32844	32596	
3397	0	32864	32605	
3398	0	32896	32768	
3399	0	32816	32725	
3400	0	32904	32619	
3401	0	32904	32743	
3402	0	32852	32599	
3403	0	32894	32620	
3404	0	32832	32642	
3405	0	32928	32714	
3406	0	32944	32658	
3407	0	32900	32724	
3408	0	32916	32775	
3409	0	32884	32714	
3410	0	32786	32775	
3411	0	32784	32790	
3412	0	32752	32913	
3413	0	32756	32892	
3414	0	32636	33031	
3415	0	32740	32927	
3416	0	32700	32887	
3417	0	32744	32914	
3418	0	32700	32799	
3419	0	32644	33044	
3420	0	32680	32990	
3421	0	32724	33095	
3422	0	32656	32908	
3423	0	32672	32960	
3424	0	32636	32980	
3425	0	32656	32980	
3426	0	32650	32926	
3427	0	32636	33124	
3428	0	32647	33056	
3429	0	32654	32902	
3430	0	32688	32924	
3431	0	32746	32786	
3432	0	32772	32775	
3433	0	32834	32592	
3434	0	32836	32606	
3435	0	32948	32506	
3436	0	32948	32584	
3437	0	32884	32633	
3438	0	32968	32492	
3439	0	32936	32519	
3440	0	32909	32480	
3441	0	32936	32542	
3442	0	32864	32624	
3443	0	32892	32700	
3444	0	32798	32726	
3445	0	32816	32682	
3446	0	32796	32654	
3447	0	32820	32802	
3448	0	32778	32743	
3449	0	32868	32790	
3450	0	32762	32640	
3451	0	32766	32842	
3452	0	32860	32806	
3453	0	32758	32855	
3454	0	32836	32794	
3455	0	32836	32680	
3456	0	32778	32798	
3457	0	32760	32758	
3458	0	32788	32842	
3459	0	32846	32736	
3460	0	32782	32772	
3461	0	32902	32820	
3462	0	32748	32806	
3463	0	32776	32746	
3464	0	32858	32738	
3465	0	32796	32796	
3466	0	32792	32891	
3467	0	32796	32753	
3468	0	32820	32703	
3469	0	32840	32720	
3470	0	32804	32759	
3471	0	32792	32620	
3472	0	32870	32708	
3473	0	32780	32823	
3474	0	32860	32775	
3475	0	32828	32810	
3476	0	32800	32647	
3477	0	32832	32769	
3478	0	32844	32775	
3479	0	32782	32760	
3480	0	32840	32775	
3481	0	32861	32708	
3482	0	32848	32786	
3483	0	32914	32729	
3484	0	32828	32746	
3485	0	32740	32612	
3486	0	32808	32670	
3487	0	32850	32800	
3488	0	32898	32706	
3489	0	32864	32716	
3490	0	32806	32688	
3491	0	32834	32812	
3492	0	32856	32792	
3493	0	32824	32814	
3494	0	32868	32738	
3495	0	32828	32698	
3496	0	32884	32768	
3497	0	32824	32775	
3498	0	32872	32766	
3499	0	32848	32788	
3500	0	32864	32704	
3501	0	32820	32851	
3502	0	32832	32771	
3503	0	32844	32754	
3504	0	32768	32868	
3505	0	32768	32721	
3506	0	32862	32708	
3507	0	32740	32823	
3508	0	32823	32760	
3509	0	32812	32864	
3510	0	32772	32788	
3511	0	32828	32668	
3512	0	32828	32767	
3513	0	32812	32668	
3514	0	32842	32780	
3515	0	32796	32697	
3516	0	32836	32720	
3517	0	32834	32810	
3518	0	32736	32738	
3519	0	32784	32832	
3520	0	32796	32713	
3521	0	32744	32768	
3522	0	32809	32812	
3523	0	32816	32796	
3524	0	32750	32736	
3525	0	32728	32786	
3526	0	32804	32823	
3527	0	32860	32821	
3528	0	32810	32762	
3529	0	32822	32874	
3530	0	32782	32835	
3531	0	32802	32740	
3532	0	32876	32710	
3533	0	32806	32775	
3534	0	32796	32804	
3535	0	32814	32820	
3536	0	32836	32701	
3537	0	32800	32762	
3538	0	32840	32793	
3539	0	32810	32688	
3540	0	32812	32774	
3541	0	32834	32770	
3542	0	32882	32711	
3543	0	32800	32862	
3544	0	32816	32844	
3545	0	32858	32775	
3546	0	32780	32846	
3547	0	32728	32754	
3548	0	32776	32729	
3549	0	32788	32655	
3550	0	32848	32775	
3551	0	32774	32759	
3552	0	32806	32884	
3553	0	32834	32704	
3554	0	32812	32767	
3555	0	32828	32813	
3556	0	32840	32678	
3557	0	32808	32798	
3558	0	32760	32775	
3559	0	32860	32844	
3560	0	32752	32625	
3561	0	32804	32666	
3562	0	32760	32903	
3563	0	32748	32774	
3564	0	32780	32663	
3565	0	32824	32822	
3566	0	32794	32804	
3567	0	32884	32862	
3568	0	32830	32711	
3569	0	32882	32764	
3570	0	32784	32775	
3571	0	32808	32686	
3572	0	32790	32792	
3573	0	32825	32797	
3574	0	32796	32847	
3575	0	32748	32720	
3576	0	32818	32679	
3577	0	32784	32832	
3578	0	32868	32720	
3579	0	32772	32620	
3580	0	32880	32728	
3581	0	32764	32831	
3582	0	32828	32755	
3583	0	32832	32766	
3584	0	32852	32721	
3585	0	32842	32688	
3586	0	32740	32856	
3587	0	32820	32792	
3588	0	32836	32806	
3589	0	32800	32760	
3590	0	32820	32742	
3591	0	32820	32823	
3592	0	32810	32743	
3593	0	32856	32872	
3594	0	32872	32680	
3595	0	32788	32802	
3596	0	32814	32792	
3597	0	32848	32729	
3598	0	32752	32720	
3599	0	32800	32732	
3600	0	32792	32852	
3601	0	32802	32770	
3602	0	32792	32876	
3603	0	32804	32700	
3604	0	32800	32810	
3605	0	32904	32756	
3606	0	32792	32798	
3607	0	32800	32744	
3608	0	32808	32838	
3609	0	32748	32770	
3610	0	32760	32814	
3611	0	32800	32775	
3612	0	32776	32790	
3613	0	32798	32806	
3614	0	32852	32686	
3615	0	32808	32863	
3616	0	32872	32788	
3617	0	32804	32740	
3618	0	32880	32716	
3619	0	32792	32847	
3620	0	32800	32724	
3621	0	32800	32660	
3622	0	32792	32846	
3623	0	32712	32798	
3624	0	32820	32764	
3625	0	32828	32614	
3626	0	32796	32774	
3627	0	32808	32762	
3628	0	32821	32768	
3629	0	32870	32732	
3630	0	32844	32796	
3631	0	32806	32775	
3632	0	32812	32814	
3633	0	32824	32636	
3634	0	32800	32798	
3635	0	32788	32818	
3636	0	32834	32856	
3637	0	32794	32704	
3638	0	32800	32731	
3639	0	32836	32712	
3640	0	32844	32794	
3641	0	32794	32714	
3642	0	32858	32694	
3643	0	32788	32748	
3644	0	32882	32792	
3645	0	32768	32815	
3646	0	32800	32676	
3647	0	32732	32804	
3648	0	32836	32768	
3649	0	32904	32903	
3650	0	32820	32695	
3651	0	32772	32674	
3652	0	32876	32728	
3653	0	32792	32808	
3654	0	32852	32700	
3655	0	32808	32791	
3656	0	32830	32734	
3657	0	32768	32812	
3658	0	32793	32660	
3659	0	32788	32720	
3660	0	32812	32758	
3661	0	32832	32732	
3662	0	32796	32791	
3663	0	32808	32644	
3664	0	32809	32660	
3665	0	32800	32823	
3666	0	32794	32810	
3667	0	32774	32799	
3668	0	32814	32756	
3669	0	32794	32790	
3670	0	32844	32750	
3671	0	32826	32757	
3672	0	32888	32746	
3673	0	32818	32774	
3674	0	32820	32839	
3675	0	32780	32710	
3676	0	32828	32796	
3677	0	32848	32760	
3678	0	32772	32766	
3679	0	32812	32678	
3680	0	32868	32794	
3681	0	32784	32756	
3682	0	32908	32710	
3683	0	32830	32775	
3684	0	32808	32887	
3685	0	32808	32775	
3686	0	32788	32742	
3687	0	32804	32775	
3688	0	32856	32798	
3689	0	32804	32870	
3690	0	32852	32743	
3691	0	32810	32812	
3692	0	32756	32718	
3693	0	32776	32812	
3694	0	32852	32702	
3695	0	32828	32818	
3696	0	32796	32754	
3697	0	32804	32794	
3698	0	32816	32679	
3699	0	32832	32812	
3700	0	32810	32756	
3701	0	32775	32718	
3702	0	32832	32827	
3703	0	32756	32762	
3704	0	32752	32703	
3705	0	32868	32774	
3706	0	32810	32846	
3707	0	32808	32662	
3708	0	32828	32798	
3709	0	32830	32754	
3710	0	32726	32805	
3711	0	32839	32742	
3712	0	32806	32754	
3713	0	32816	32798	
3714	0	32840	32690	
3715	0	32788	32794	
3716	0	32890	32788	
3717	0	32806	32817	
3718	0	32766	32736	
3719	0	32822	32810	
3720	0	32824	32791	
3721	0	32798	32806	
3722	0	32752	32762	
3723	0	32794	32838	
3724	0	32772	32656	
3725	0	32816	32842	
3726	0	32780	32840	
3727	0	32772	32746	
3728	0	32788	32794	
3729	0	32816	32866	
3730	0	32838	32732	
3731	0	32830	32807	
3732	0	32752	32774	
3733	0	32816	32770	
3734	0	32810	32775	
3735	0	32788	32790	
3736	0	32860	32786	
3737	0	32836	32750	
3738	0	32784	32700	
3739	0	32780	32674	
3740	0	32744	32871	
3741	0	32796	32742	
3742	0	32832	32788	
3743	0	32824	32738	
3744	0	32840	32808	
3745	0	32780	32812	
3746	0	32772	32718	
3747	0	32808	32732	
3748	0	32788	32775	
3749	0	32784	32615	
3750	0	32784	32748	
3751	0	32848	32804	
3752	0	32808	32876	
3753	0	32836	32775	
3754	0	32840	32799	
3755	0	32784	32752	
3756	0	32810	32652	
3757	0	32788	32828	
3758	0	32876	32876	
3759	0	32822	32647	
3760	0	32828	32760	
3761	0	32836	32784	
3762	0	32806	32712	
3763	0	32860	32740	
3764	0	32850	32878	
3765	0	32814	32775	
3766	0	32804	32732	
3767	0	32812	32736	
3768	0	32794	32830	
3769	0	32878	32774	
3770	0	32816	32793	
3771	0	32800	32774	
3772	0	32790	32791	
3773	0	32808	32775	
3774	0	32780	32804	
3775	0	32732	32729	
3776	0	32838	32679	
3777	0	32840	32826	
3778	0	32762	32775	
3779	0	32812	32792	
3780	0	32866	32750	
3781	0	32836	32680	
3782	0	32824	32792	
3783	0	32796	32772	
3784	0	32780	32792	
3785	0	32842	32700	
3786	0	32784	32710	
3787	0	32776	32799	
3788	0	32868	32775	
3789	0	32826	32662	
3790	0	32856	32794	
3791	0	32790	32768	
3792	0	32840	32746	
3793	0	32748	32670	
3794	0	32784	32844	
3795	0	32800	32775	
3796	0	32812	32775	
3797	0	32836	32736	
3798	0	32812	32808	
3799	0	32808	32766	
3800	0	32908	32822	
3801	0	32752	32764	
3802	0	32808	32647	
3803	0	32744	32775	
3804	0	32722	32754	
3805	0	32840	32720	
3806	0	32812	32790	
3807	0	32828	32660	
3808	0	32824	32716	
3809	0	32824	32893	
3810	0	32792	32775	
3811	0	32852	32823	
3812	0	32826	32838	
3813	0	32856	32775	
3814	0	32820	32700	
3815	0	32808	32756	
3816	0	32874	32692	
3817	0	32828	32872	
3818	0	32810	32756	
3819	0	32830	32758	
3820	0	32834	32750	
3821	0	32812	32890	
3822	0	32790	32742	
3823	0	32732	32670	
3824	0	32776	32738	
3825	0	32804	32814	
3826	0	32820	32820	
3827	0	32844	32696	
3828	0	32840	32718	
3829	0	32788	32772	
3830	0	32852	32820	
3831	0	32858	32724	
3832	0	32810	32804	
3833	0	32889	32788	
3834	0	32864	32644	
3835	0	32752	32759	
3836	0	32840	32812	
3837	0	32798	32815	
3838	0	32832	32750	
3839	0	32792	32756	
3840	0	32768	32800	
3841	0	32836	32816	
3842	0	32772	32734	
3843	0	32808	32767	
3844	0	32864	32731	
3845	0	32810	32775	
3846	0	32836	32790	
3847	0	32804	32724	
3848	0	32866	32879	
3849	0	32764	32846	
3850	0	32840	32740	
3851	0	32788	32838	
3852	0	32746	32714	
3853	0	32844	32768	
3854	0	32842	32828	
3855	0	32810	32858	
3856	0	32818	32675	
3857	0	32828	32799	
3858	0	32800	32800	
3859	0	32816	32746	
3860	0	32786	32640	
3861	0	32840	32820	
3862	0	32808	32775	
3863	0	32772	32876	
3864	0	32752	32807	
3865	0	32796	32728	
3866	0	32856	32774	
3867	0	32864	32807	
3868	0	32800	32806	
3869	0	32832	32824	
3870	0	32784	32716	
3871	0	32858	32708	
3872	0	32840	32743	
3873	0	32821	32794	
3874	0	32824	32794	
3875	0	32824	32676	
3876	0	32790	32735	
3877	0	32810	32800	
3878	0	32868	32775	
3879	0	32801	32760	
3880	0	32840	32694	
3881	0	32770	32876	
3882	0	32792	32748	
3883	0	32800	32775	
3884	0	32774	32807	
3885	0	32812	32743	
3886	0	32786	32698	
3887	0	32828	32896	
3888	0	32784	32748	
3889	0	32808	32774	
3890	0	32780	32806	
3891	0	32806	32698	
3892	0	32840	32764	
3893	0	32824	32844	
3894	0	32840	32740	
3895	0	32872	32716	
3896	0	32788	32662	
3897	0	32872	32810	
3898	0	32758	32775	
3899	0	32804	32807	
3900	0	32815	32770	
3901	0	32780	32747	
3902	0	32832	32732	
3903	0	32752	32855	
3904	0	32818	32736	
3905	0	32792	32836	
3906	0	32808	32753	
3907	0	32888	32818	
3908	0	32828	32676	
3909	0	32784	32702	
3910	0	32860	32738	
3911	0	32830	32828	
3912	0	32862	32790	
3913	0	32776	32769	
3914	0	32844	32748	
3915	0	32828	32706	
3916	0	32820	32775	
3917	0	32788	32839	
3918	0	32802	32664	
3919	0	32826	32820	
3920	0	32802	32754	
3921	0	32810	32816	
3922	0	32816	32763	
3923	0	32872	32804	
3924	0	32810	32820	
3925	0	32798	32770	
3926	0	32822	32733	
3927	0	32850	32754	
3928	0	32796	32743	
3929	0	32848	32820	
3930	0	32816	32834	
3931	0	32800	32814	
3932	0	32864	32676	
3933	0	32782	32820	
3934	0	32792	32750	
3935	0	32808	32758	
3936	0	32792	32718	
3937	0	32814	32785	
3938	0	32769	32732	
3939	0	32824	32775	
3940	0	32814	32716	
3941	0	32848	32753	
3942	0	32772	32732	
3943	0	32836	32767	
3944	0	32808	32743	
3945	0	32766	32674	
3946	0	32808	32830	
3947	0	32790	32746	
3948	0	32800	32796	
3949	0	32840	32744	
3950	0	32808	32852	
3951	0	32812	32668	
3952	0	32820	32720	
3953	0	32740	32790	
3954	0	32800	32728	
3955	0	32832	32660	
3956	0	32820	32803	
3957	0	32784	32798	
3958	0	32782	32794	
3959	0	32852	32640	
3960	0	32844	32759	
3961	0	32836	32802	
3962	0	32888	32804	
3963	0	32850	32670	
3964	0	32844	32866	
3965	0	32816	32764	
3966	0	32788	32788	
3967	0	32840	32684	
3968	0	32780	32837	
3969	0	32806	32775	
3970	0	32800	32823	
3971	0	32810	32756	
3972	0	32772	32703	
3973	0	32688	32775	
3974	0	32816	32857	
3975	0	32798	32835	
3976	0	32804	32767	
3977	0	32814	32886	
3978	0	32854	32808	
3979	0	32784	32727	
3980	0	32862	32792	
3981	0	32776	32743	
3982	0	32802	32834	
3983	0	32728	32808	
3984	0	32728	32682	
3985	0	32784	32726	
3986	0	32856	32751	
3987	0	32908	32865	
3988	0	32840	32708	
3989	0	32816	32674	
3990	0	32860	32700	
3991	0	32816	32839	
3992	0	32792	32775	
3993	0	32768	32748	
3994	0	32824	32846	
3995	0	32828	32704	
3996	0	32756	32730	
3997	0	32868	32796	
3998	0	32780	32756	
3999	0	32760	32793	
4000	0	32856	32687	
4001	0	32864	32804	
4002	0	32812	32838	
4003	0	32776	32814	
4004	0	32800	32702	
4005	0	32848	32710	
4006	0	32808	32801	
4007	0	32812	32886	
4008	0	32808	32697	
4009	0	32788	32720	
4010	0	32840	32758	
4011	0	32848	32795	
4012	0	32932	32764	
4013	0	32800	32820	
4014	0	32830	32740	
4015	0	32790	32656	
4016	0	32756	32746	
4017	0	32820	32775	
4018	0	32780	32748	
4019	0	32810	32724	
4020	0	32796	32714	
4021	0	32790	32802	
4022	0	32858	32768	
4023	0	32836	32788	
4024	0	32796	32686	
4025	0	32768	32704	
4026	0	32782	32792	
4027	0	32768	32760	
4028	0	32828	32775	
4029	0	32774	32674	
4030	0	32866	32870	
4031	0	32780	32766	
4032	0	32836	32802	
4033	0	32808	32668	
4034	0	32831	32823	
4035	0	32824	32756	
4036	0	32830	32690	
4037	0	32908	32756	
4038	0	32768	32806	
4039	0	32818	32770	
4040	0	32806	32721	
4041	0	32808	32713	
4042	0	32725	32775	
4043	0	32860	32693	
4044	0	32814	32684	
4045	0	32832	32820	
4046	0	32764	32818	
4047	0	32821	32768	
4048	0	32828	32682	
4049	0	32796	32820	
4050	0	32858	32762	
4051	0	32768	32783	
4052	0	32798	32726	
4053	0	32792	32804	
4054	0	32780	32845	
4055	0	32836	32722	
4056	0	32808	32815	
4057	0	32826	32692	
4058	0	32796	32812	
4059	0	32764	32710	
4060	0	32876	32784	
4061	0	32837	32770	
4062	0	32818	32758	
4063	0	32872	32678	
4064	0	32802	32786	
4065	0	32858	32788	
4066	0	32818	32736	
4067	0	32804	32886	
4068	0	32828	32684	
4069	0	32828	32820	
4070	0	32808	32812	
4071	0	32924	32754	
4072	0	32788	32688	
4073	0	32752	32750	
4074	0	32814	32772	
4075	0	32846	32817	
4076	0	32830	32826	
4077	0	32794	32724	
4078	0	32872	32724	
4079	0	32852	32768	
4080	0	32860	32756	
4081	0	32835	32762	
4082	0	32800	32828	
4083	0	32768	32710	
4084	0	32824	32742	
4085	0	32830	32886	
4086	0	32836	32775	
4087	0	32768	32804	
4088	0	32712	32668	
4089	0	32836	32730	
4090	0	32798	32762	
4091	0	32788	32800	
4092	0	32828	32830	
4093	0	32876	32735	
4094	0	32812	32628	
4095	0	32792	32676	
4096	0	32852	32718	
4097	0	32818	32796	
4098	0	32786	32800	
4099	0	32816	32706	
4100	0	32812	32814	
4101	0	32840	32798	
4102	0	32808	32704	
4103	0	32790	32812	
4104	0	32782	32732	
4105	0	32868	32679	
4106	0	32804	32798	
4107	0	32777	32839	
4108	0	32830	32799	
4109	0	32792	32703	
4110	0	32934	32790	
4111	0	32814	32802	
4112	0	32804	32807	
4113	0	32876	32867	
4114	0	32852	32684	
4115	0	32808	32700	
4116	0	32822	32775	
4117	0	32794	32834	
4118	0	32844	32751	
4119	0	32862	32762	
4120	0	32764	32809	
4121	0	32765	32724	
4122	0	32705	32743	
4123	0	32800	32788	
4124	0	32746	32879	
4125	0	32850	32774	
4126	0	32796	32748	
4127	0	32832	32884	
4128	0	32862	32746	
4129	0	32860	32788	
4130	0	32812	32726	
4131	0	32730	32698	
4132	0	32840	32775	
4133	0	32810	32744	
4134	0	32866	32791	
4135	0	32800	32702	
4136	0	32784	32770	
4137	0	32852	32760	
4138	0	32732	32792	
4139	0	32804	32657	
4140	0	32840	32700	
4141	0	32842	32823	
4142	0	32778	32706	
4143	0	32808	32828	
4144	0	32794	32710	
4145	0	32836	32806	
4146	0	32872	32730	
4147	0	32808	32743	
4148	0	32799	32808	
4149	0	32826	32748	
4150	0	32788	32740	
4151	0	32812	32775	
4152	0	32830	32844	
4153	0	32826	32874	
4154	0	32834	32636	
4155	0	32780	32804	
4156	0	32788	32775	
4157	0	32764	32744	
4158	0	32804	32812	
4159	0	32754	32825	
4160	0	32810	32732	
4161	0	32804	32858	
4162	0	32764	32804	
4163	0	32872	32812	
4164	0	32768	32672	
4165	0	32828	32694	
4166	0	32792	32794	
4167	0	32808	32750	
4168	0	32810	32774	
4169	0	32848	32642	
4170	0	32786	32744	
4171	0	32818	32807	
4172	0	32828	32768	
4173	0	32804	32870	
4174	0	32796	32704	
4175	0	32832	32756	
4176	0	32852	32764	
4177	0	32778	32871	
4178	0	32872	32740	
4179	0	32760	32730	
4180	0	32746	32790	
4181	0	32804	32774	
4182	0	32792	32696	
4183	0	32776	32718	
4184	0	32822	32910	
4185	0	32824	32798	
4186	0	32858	32804	
4187	0	32860	32708	
4188	0	32800	32735	
4189	0	32796	32806	
4190	0	32800	32823	
4191	0	32804	32662	
4192	0	32876	32770	
4193	0	32788	32824	
4194	0	32808	32788	
4195	0	32808	32794	
4196	0	32784	32714	
4197	0	32780	32799	
4198	0	32841	32870	
4199	0	32876	32659	
4200	0	32868	32796	
4201	0	32826	32670	
4202	0	32822	32762	
4203	0	32824	32734	
4204	0	32828	32722	
4205	0	32776	32812	
4206	0	32798	32726	
4207	0	32756	32806	
4208	0	32808	32814	
4209	0	32772	32678	
4210	0	32820	32826	
4211	0	32832	32802	
4212	0	32832	32864	
4213	0	32808	32758	
4214	0	32844	32734	
4215	0	32794	32780	
4216	0	32820	32772	
4217	0	32784	32700	
4218	0	32800	32716	
4219	0	32810	32869	
4220	0	32854	32775	
4221	0	32840	32812	
4222	0	32804	32668	
4223	0	32821	32676	
4224	0	32862	32731	
4225	0	32780	32812	
4226	0	32820	32844	
4227	0	32796	32742	
4228	0	32822	32762	
4229	0	32780	32816	
4230	0	32856	32710	
4231	0	32804	32748	
4232	0	32768	32751	
4233	0	32768	32790	
4234	0	32796	32694	
4235	0	32768	32660	
4236	0	32840	32750	
4237	0	32828	32718	
4238	0	32774	32828	
4239	0	32822	32650	
4240	0	32844	32842	
4241	0	32865	32724	
4242	0	32850	32748	
4243	0	32840	32834	
4244	0	32812	32676	
4245	0	32776	32839	
4246	0	32790	32802	
4247	0	32776	32716	
4248	0	32786	32816	
4249	0	32820	32772	
4250	0	32850	32704	
4251	0	32772	32794	
4252	0	32788	32864	
4253	0	32772	32734	
4254	0	32772	32714	
4255	0	32808	32818	
4256	0	32766	32818	
4257	0	32794	32768	
4258	0	32808	32683	
4259	0	32854	32788	
4260	0	32864	32771	
4261	0	32852	32746	
4262	0	32842	32630	
4263	0	32796	32740	
4264	0	32892	32689	
4265	0	32828	32679	
4266	0	32904	32702	
4267	0	32848	32664	
4268	0	32816	32615	
4269	0	32832	32724	
4270	0	32860	32744	
4271	0	32916	32631	
4272	0	32874	32708	
4273	0	32916	32663	
4274	0	32880	32682	
4275	0	32944	32734	
4276	0	32882	32668	
4277	0	32866	32596	
4278	0	32840	32754	
4279	0	32908	32732	
4280	0	32892	32687	
4281	0	32865	32754	
4282	0	32872	32686	
4283	0	32778	32824	
4284	0	32872	32796	
4285	0	32716	32868	
4286	0	32666	32842	
4287	0	32624	32903	
4288	0	32680	33024	
4289	0	32698	32956	
4290	0	32668	32988	
4291	0	32672	33031	
4292	0	32664	32997	
4293	0	32680	32960	
4294	0	32684	33031	
4295	0	32666	33024	
4296	0	32668	32868	
4297	0	32634	32970	
4298	0	32588	32996	
4299	0	32616	32846	
4300	0	32672	32976	
4301	0	32680	33047	
4302	0	32656	32990	
4303	0	32756	32860	
4304	0	32740	32746	
4305	0	32868	32782	
4306	0	32832	32630	
4307	0	32920	32592	
4308	0	32984	32414	
4309	0	32948	32584	
4310	0	32956	32668	
4311	0	32882	32572	
4312	0	32908	32662	
4313	0	32932	32552	
4314	0	32870	32528	
4315	0	32826	32647	
4316	0	32876	32588	
4317	0	32876	32723	
4318	0	32828	32604	
4319	0	32845	32770	
4320	0	32836	32738	
4321	0	32848	32775	
4322	0	32792	32732	
4323	0	32796	32792	
4324	0	32782	32868	
4325	0	32788	32764	
4326	0	32816	32727	
4327	0	32800	32711	
4328	0	32800	32828	
4329	0	32852	32754	
4330	0	32832	32775	
4331	0	32904	32708	
4332	0	32840	32702	
4333	0	32812	32791	
4334	0	32804	32674	
4335	0	32864	32764	
4336	0	32860	32756	
4337	0	32802	32648	
4338	0	32821	32772	
4339	0	32788	32750	
4340	0	32860	32700	
4341	0	32808	32839	
4342	0	32768	32732	
4343	0	32828	32752	
4344	0	32846	32818	
4345	0	32828	32832	
4346	0	32912	32834	
4347	0	32775	32726	
4348	0	32820	32775	
4349	0	32847	32800	
4350	0	32778	32844	
4351	0	32880	32668	
4352	0	32816	32624	
4353	0	32808	32884	
4354	0	32812	32802	
4355	0	32852	32772	
4356	0	32884	32820	
4357	0	32788	32656	
4358	0	32840	32745	
4359	0	32824	32736	
4360	0	32866	32775	
4361	0	32844	32828	
4362	0	32902	32663	
4363	0	32838	32674	
4364	0	32889	32775	
4365	0	32853	32774	
4366	0	32808	32724	
4367	0	32884	32864	
4368	0	32828	32625	
4369	0	32830	32696	
4370	0	32864	32828	
4371	0	32856	32766	
4372	0	32804	32839	
4373	0	32868	32614	
4374	0	32780	32796	
4375	0	32836	32773	
4376	0	32817	32684	
4377	0	32828	32864	
4378	0	32776	32628	
4379	0	32836	32759	
4380	0	32790	32796	
4381	0	32836	32760	
4382	0	32764	32769	
4383	0	32792	32696	
4384	0	32746	32756	
4385	0	32808	32748	
4386	0	32818	32836	
4387	0	32780	32704	
4388	0	32758	32722	
4389	0	32792	32878	
4390	0	32836	32820	
4391	0	32826	32738	
4392	0	32838	32824	
4393	0	32796	32796	
4394	0	32804	32799	
4395	0	32802	32874	
4396	0	32788	32746	
4397	0	32772	32774	
4398	0	32756	32729	
4399	0	32834	32816	
4400	0	32840	32718	
4401	0	32804	32864	
4402	0	32876	32756	
4403	0	32854	32744	
4404	0	32804	32819	
4405	0	32728	32820	
4406	0	32800	32827	
4407	0	32788	32702	
4408	0	32804	32796	
4409	0	32824	32834	
4410	0	32762	32746	
4411	0	32856	32687	
4412	0	32838	32852	
4413	0	32804	32792	
4414	0	32769	32812	
4415	0	32808	32712	
4416	0	32804	32756	
4417	0	32794	32806	
4418	0	32860	32872	
4419	0	32826	32714	
4420	0	32772	32704	
4421	0	32818	32719	
4422	0	32816	32756	
4423	0	32832	32711	
4424	0	32868	32716	
4425	0	32760	32846	
4426	0	32828	32711	
4427	0	32782	32814	
4428	0	32808	32867	
4429	0	32838	32800	
4430	0	32780	32671	
4431	0	32822	32684	
4432	0	32852	32864	
4433	0	32792	32775	
4434	0	32736	32858	
4435	0	32794	32666	
4436	0	32840	32737	
4437	0	32828	32798	
4438	0	32736	32775	
4439	0	32830	32730	
4440	0	32794	32868	
4441	0	32752	32742	
4442	0	32834	32838	
4443	0	32824	32654	
4444	0	32808	32860	
4445	0	32800	32822	
4446	0	32806	32804	
4447	0	32816	32707	
4448	0	32870	32740	
4449	0	32800	32849	
4450	0	32864	32720	
4451	0	32756	32716	
4452	0	32792	32764	
4453	0	32842	32770	
4454	0	32864	32742	
4455	0	32844	32792	
4456	0	32748	32786	
4457	0	32800	32808	
4458	0	32784	32732	
4459	0	32888	32700	
4460	0	32796	32830	
4461	0	32828	32798	
4462	0	32762	32743	
4463	0	32808	32686	
4464	0	32822	32839	
4465	0	32810	32758	
4466	0	32794	32775	
4467	0	32820	32647	
4468	0	32800	32822	
4469	0	32838	32712	
4470	0	32828	32772	
4471	0	32842	32788	
4472	0	32836	32650	
4473	0	32878	32743	
4474	0	32828	32722	
4475	0	32754	32742	
4476	0	32820	32816	
4477	0	32776	32672	
4478	0	32812	32804	
4479	0	32854	32708	
4480	0	32834	32880	
4481	0	32800	32674	
4482	0	32804	32711	
4483	0	32780	32831	
4484	0	32753	32839	
4485	0	32766	32667	
4486	0	32830	32775	
4487	0	32740	32758	
4488	0	32812	32700	
4489	0	32872	32758	
4490	0	32872	32806	
4491	0	32820	32845	
4492	0	32780	32775	
4493	0	32800	32647	
4494	0	32738	32856	
4495	0	32832	32684	
4496	0	32808	32712	
4497	0	32820	32718	
4498	0	32780	32812	
4499	0	32838	32804	
4500	0	32802	32644	
4501	0	32756	32719	
4502	0	32788	32866	
4503	0	32764	32872	
4504	0	32754	32752	
4505	0	32800	32718	
4506	0	32760	32775	
4507	0	32848	32830	
4508	0	32806	32790	
4509	0	32840	32662	
4510	0	32820	32832	
4511	0	32852	32816	
4512	0	32850	32647	
4513	0	32774	32764	
4514	0	32792	32772	
4515	0	32864	32848	
4516	0	32852	32708	
4517	0	32748	32740	
4518	0	32810	32748	
4519	0	32808	32726	
4520	0	32820	32688	
4521	0	32820	32696	
4522	0	32824	32775	
4523	0	32796	32768	
4524	0	32866	32820	
4525	0	32824	32775	
4526	0	32832	32822	
4527	0	32828	32766	
4528	0	32752	32759	
4529	0	32868	32822	
4530	0	32744	32746	
4531	0	32816	32842	
4532	0	32808	32775	
4533	0	32782	32839	
4534	0	32760	32704	
4535	0	32800	32703	
4536	0	32774	32710	
4537	0	32800	32804	
4538	0	32788	32672	
4539	0	32810	32758	
4540	0	32816	32816	
4541	0	32776	32738	
4542	0	32804	32758	
4543	0	32816	32811	
4544	0	32776	32822	
4545	0	32802	32760	
4546	0	32816	32832	
4547	0	32856	32784	
4548	0	32836	32704	
4549	0	32828	32868	
4550	0	32860	32820	
4551	0	32894	32754	
4552	0	32766	32767	
4553	0	32750	32727	
4554	0	32888	32867	
4555	0	32816	32682	
4556	0	32816	32856	
4557	0	32837	32774	
4558	0	32780	32699	
4559	0	32822	32764	
4560	0	32836	32774	
4561	0	32788	32744	
4562	0	32800	32762	
4563	0	32832	32820	
4564	0	32800	32775	
4565	0	32844	32687	
4566	0	32844	32812	
4567	0	32844	32727	
4568	0	32744	32879	
4569	0	32740	32715	
4570	0	32824	32775	
4571	0	32884	32798	
4572	0	32770	32820	
4573	0	32776	32738	
4574	0	32868	32692	
4575	0	32772	32738	
4576	0	32820	32815	
4577	0	32808	32756	
4578	0	32764	32858	
4579	0	32808	32743	
4580	0	32774	32820	
4581	0	32846	32758	
4582	0	32836	32759	
4583	0	32806	32775	
4584	0	32808	32871	
4585	0	32786	32673	
4586	0	32800	32816	
4587	0	32812	32766	
4588	0	32820	32794	
4589	0	32802	32708	
4590	0	32844	32808	
4591	0	32752	32848	
4592	0	32806	32792	
4593	0	32752	32728	
4594	0	32804	32820	
4595	0	32872	32762	
4596	0	32808	32816	
4597	0	32824	32766	
4598	0	32842	32830	
4599	0	32800	32730	
4600	0	32896	32775	
4601	0	32792	32798	
4602	0	32796	32874	
4603	0	32804	32828	
4604	0	32862	32775	
4605	0	32788	32886	
4606	0	32828	32762	
4607	0	32792	32812	
4608	0	32768	32696	
4609	0	32840	32755	
4610	0	32806	32882	
4611	0	32766	32704	
4612	0	32818	32738	
4613	0	32802	32752	
4614	0	32760	32742	
4615	0	32756	32647	
4616	0	32852	32760	
4617	0	32824	32743	
4618	0	32810	32756	
4619	0	32786	32768	
4620	0	32844	32794	
4621	0	32792	32775	
4622	0	32808	32772	
4623	0	32820	32690	
4624	0	32844	32834	
4625	0	32804	32756	
4626	0	32854	32830	
4627	0	32828	32692	
4628	0	32796	32852	
4629	0	32772	32794	
4630	0	32748	32804	
4631	0	32840	32718	
4632	0	32836	32807	
4633	0	32852	32830	
4634	0	32825	32702	
4635	0	32784	32726	
4636	0	32786	32814	
4637	0	32790	32762	
4638	0	32780	32677	
4639	0	32826	32774	
4640	0	32814	32775	
4641	0	32848	32683	
4642	0	32874	32790	
4643	0	32840	32794	
4644	0	32812	32663	
4645	0	32776	32772	
4646	0	32808	32766	
4647	0	32824	32814	
4648	0	32824	32712	
4649	0	32800	32766	
4650	0	32800	32678	
4651	0	32848	32828	
4652	0	32800	32692	
4653	0	32808	32790	
4654	0	32868	32788	
4655	0	32796	32746	
4656	0	32822	32784	
4657	0	32792	32686	
4658	0	32790	32716	
4659	0	32814	32709	
4660	0	32768	32820	
4661	0	32762	32854	
4662	0	32794	32716	
4663	0	32796	32726	
4664	0	32804	32830	
4665	0	32740	32726	
4666	0	32816	32759	
4667	0	32850	32814	
4668	0	32800	32751	
4669	0	32794	32802	
4670	0	32860	32722	
4671	0	32736	32722	
4672	0	32748	32791	
4673	0	32860	32700	
4674	0	32792	32820	
4675	0	32824	32794	
4676	0	32800	32814	
4677	0	32744	32698	
4678	0	32834	32726	
4679	0	32784	32838	
4680	0	32836	32832	
4681	0	32816	32711	
4682	0	32808	32728	
4683	0	32768	32736	
4684	0	32824	32863	
4685	0	32826	32748	
4686	0	32812	32900	
4687	0	32812	32744	
4688	0	32762	32834	
4689	0	32794	32656	
4690	0	32836	32826	
4691	0	32816	32725	
4692	0	32866	32775	
4693	0	32806	32705	
4694	0	32724	32788	
4695	0	32768	32747	
4696	0	32792	32814	
4697	0	32818	32686	
4698	0	32824	32804	
4699	0	32898	32734	
4700	0	32856	32746	
4701	0	32808	32647	
4702	0	32810	32828	
4703	0	32716	32740	
4704	0	32802	32862	
4705	0	32828	32678	
4706	0	32806	32802	
4707	0	32754	32810	
4708	0	32806	32802	
4709	0	32840	32686	
4710	0	32798	32866	
4711	0	32758	32708	
4712	0	32860	32750	
4713	0	32820	32770	
4714	0	32804	32764	
4715	0	32822	32903	
4716	0	32800	32696	
4717	0	32856	32666	
4718	0	32840	32824	
4719	0	32804	32872	
4720	0	32740	32720	
4721	0	32760	32657	
4722	0	32760	32759	
4723	0	32832	32882	
4724	0	32798	32764	
4725	0	32805	32692	
4726	0	32800	32868	
4727	0	32788	32742	
4728	0	32770	32775	
4729	0	32808	32743	
4730	0	32868	32712	
4731	0	32854	32805	
4732	0	32848	32762	
4733	0	32842	32798	
4734	0	32796	32680	
4735	0	32810	32854	
4736	0	32812	32756	
4737	0	32814	32710	
4738	0	32856	32743	
4739	0	32840	32743	
4740	0	32754	32843	
4741	0	32812	32722	
4742	0	32818	32824	
4743	0	32836	32757	
4744	0	32808	32802	
4745	0	32828	32742	
4746	0	32728	32762	
4747	0	32792	32806	
4748	0	32852	32775	
4749	0	32824	32772	
4750	0	32832	32775	
4751	0	32872	32764	
4752	0	32822	32746	
4753	0	32836	32642	
4754	0	32828	32922	
4755	0	32876	32740	
4756	0	32912	32795	
4757	0	32752	32647	
4758	0	32812	32766	
4759	0	32847	32828	
4760	0	32760	32769	
4761	0	32776	32729	
4762	0	32766	32746	
4763	0	32780	32746	
4764	0	32806	32690	
4765	0	32848	32749	
4766	0	32788	32756	
4767	0	32752	32806	
4768	0	32800	32732	
4769	0	32848	32828	
4770	0	32800	32775	
4771	0	32800	32732	
4772	0	32840	32729	
4773	0	32880	32828	
4774	0	32826	32703	
4775	0	32774	32834	
4776	0	32784	32688	
4777	0	32806	32750	
4778	0	32836	32794	
4779	0	32860	32775	
4780	0	32846	32684	
4781	0	32774	32703	
4782	0	32824	32813	
4783	0	32848	32768	
4784	0	32806	32848	
4785	0	32830	32742	
4786	0	32768	32740	
4787	0	32840	32774	
4788	0	32876	32802	
4789	0	32802	32775	
4790	0	32846	32682	
4791	0	32842	32800	
4792	0	32830	32748	
4793	0	32812	32806	
4794	0	32798	32692	
4795	0	32820	32740	
4796	0	32838	32852	
4797	0	32764	32735	
4798	0	32800	32740	
4799	0	32808	32775	
4800	0	32820	32839	
4801	0	32816	32652	
4802	0	32856	32822	
4803	0	32828	32772	
4804	0	32828	32743	
4805	0	32814	32740	
4806	0	32804	32740	
4807	0	32834	32804	
4808	0	32824	32756	
4809	0	32824	32788	
4810	0	32752	32818	
4811	0	32832	32638	
4812	0	32804	32724	
4813	0	32794	32753	
4814	0	32828	32862	
4815	0	32828	32734	
4816	0	32816	32824	
4817	0	32816	32775	
4818	0	32858	32752	
4819	0	32770	32714	
4820	0	32814	32693	
4821	0	32828	32792	
4822	0	32860	32740	
4823	0	32852	32806	
4824	0	32782	32642	
4825	0	32738	32723	
4826	0	32781	32862	
4827	0	32866	32802	
4828	0	32836	32871	
4829	0	32808	32640	
4830	0	32872	32820	
4831	0	32792	32799	
4832	0	32776	32902	
4833	0	32824	32692	
4834	0	32844	32686	
4835	0	32752	32742	
4836	0	32778	32753	
4837	0	32816	32756	
4838	0	32776	32798	
4839	0	32800	32618	
4840	0	32804	32866	
4841	0	32800	32798	
4842	0	32860	32775	
4843	0	32804	32786	
4844	0	32768	32618	
4845	0	32850	32724	
4846	0	32796	32768	
4847	0	32868	32839	
4848	0	32808	32732	
4849	0	32844	32696	
4850	0	32812	32788	
4851	0	32776	32818	
4852	0	32824	32688	
4853	0	32800	32745	
4854	0	32838	32763	
4855	0	32808	32698	
4856	0	32869	32766	
4857	0	32792	32679	
4858	0	32782	32868	
4859	0	32816	32834	
4860	0	32769	32800	
4861	0	32820	32748	
4862	0	32820	32775	
4863	0	32825	32814	
4864	0	32796	32742	
4865	0	32804	32759	
4866	0	32808	32810	
4867	0	32808	32724	
4868	0	32832	32772	
4869	0	32794	32820	
4870	0	32814	32798	
4871	0	32842	32810	
4872	0	32772	32726	
4873	0	32784	32668	
4874	0	32796	32824	
4875	0	32804	32786	
4876	0	32840	32748	
4877	0	32776	32864	
4878	0	32784	32710	
4879	0	32836	32714	
4880	0	32832	32708	
4881	0	32824	32768	
4882	0	32804	32834	
4883	0	32828	32746	
4884	0	32896	32688	
4885	0	32812	32730	
4886	0	32808	32855	
4887	0	32818	32680	
4888	0	32808	32740	
4889	0	32850	32760	
4890	0	32808	32810	
4891	0	32736	32662	
4892	0	32794	32798	
4893	0	32776	32760	
4894	0	32792	32887	
4895	0	32794	32734	
4896	0	32808	32816	
4897	0	32768	32746	
4898	0	32846	32724	
4899	0	32796	32772	
4900	0	32760	32775	
4901	0	32832	32775	
4902	0	32832	32736	
4903	0	32783	32718	
4904	0	32800	32841	
4905	0	32804	32804	
4906	0	32804	32674	
4907	0	32840	32728	
4908	0	32881	32798	
4909	0	32772	32758	
4910	0	32847	32720	
4911	0	32776	32740	
4912	0	32800	32775	
4913	0	32762	32817	
4914	0	32826	32674	
4915	0	32772	32686	
4916	0	32830	32764	
4917	0	32844	32828	
4918	0	32882	32664	
4919	0	32744	32788	
4920	0	32746	32766	
4921	0	32820	32818	
4922	0	32764	32672	
4923	0	32808	32807	
4924	0	32820	32775	
4925	0	32810	32668	
4926	0	32860	32916	
4927	0	32724	32822	
4928	0	32792	32760	
4929	0	32804	32716	
4930	0	32790	32754	
4931	0	32824	32889	
4932	0	32920	32710	
4933	0	32852	32868	
4934	0	32785	32738	
4935	0	32802	32880	
4936	0	32783	32660	
4937	0	32840	32775	
4938	0	32808	32852	
4939	0	32832	32667	
4940	0	32868	32782	
4941	0	32842	32798	
4942	0	32828	32775	
4943	0	32768	32672	
4944	0	32814	32802	
4945	0	32812	32785	
4946	0	32824	32712	
4947	0	32784	32826	
4948	0	32818	32824	
4949	0	32844	32686	
4950	0	32824	32775	
4951	0	32714	32718	
4952	0	32792	32884	
4953	0	32832	32628	
4954	0	32872	32850	
4955	0	32816	32764	
4956	0	32800	32838	
4957	0	32776	32662	
4958	0	32852	32806	
4959	0	32792	32812	
4960	0	32810	32667	
4961	0	32812	32871	
4962	0	32880	32796	
4963	0	32802	32876	
4964	0	32816	32709	
4965	0	32768	32852	
4966	0	32804	32788	
4967	0	32748	32852	
4968	0	32820	32700	
4969	0	32812	32820	
4970	0	32788	32743	
4971	0	32824	32775	
4972	0	32890	32631	
4973	0	32844	32814	
4974	0	32786	32804	
4975	0	32794	32748	
4976	0	32840	32672	
4977	0	32870	32775	
4978	0	32746	32825	
4979	0	32796	32828	
4980	0	32792	32660	
4981	0	32892	32775	
4982	0	32862	32812	
4983	0	32830	32823	
4984	0	32804	32674	
4985	0	32816	32826	
4986	0	32784	32719	
4987	0	32836	32860	
4988	0	32756	32686	
4989	0	32830	32854	
4990	0	32860	32687	
4991	0	32816	32738	
4992	0	32872	32704	
4993	0	32784	32832	
4994	0	32804	32762	
4995	0	32824	32770	
4996	0	32784	32818	
4997	0	32768	32756	
4998	0	32840	32732	
4999	0	32856	32775	
5000	0	32840	32708	
5001	0	32820	32831	
5002	0	32800	32798	
5003	0	32860	32796	
5004	0	32792	32722	
5005	0	32838	32768	
5006	0	32822	32832	
5007	0	32794	32756	
5008	0	32852	32696	
5009	0	32802	32802	
5010	0	32856	32742	
5011	0	32784	32804	
5012	0	32810	32680	
5013	0	32832	32766	
5014	0	32816	32828	
5015	0	32794	32661	
5016	0	32720	32760	
5017	0	32816	32768	
5018	0	32804	32775	
5019	0	32732	32708	
5020	0	32834	32752	
5021	0	32838	32756	
5022	0	32840	32828	
5023	0	32830	32804	
5024	0	32840	32832	
5025	0	32829	32660	
5026	0	32834	32808	
5027	0	32816	32796	
5028	0	32834	32796	
5029	0	32798	32764	
5030	0	32848	32788	
5031	0	32748	32730	
5032	0	32816	32754	
5033	0	32772	32748	
5034	0	32784	32775	
5035	0	32824	32754	
5036	0	32812	32711	
5037	0	32812	32727	
5038	0	32804	32761	
5039	0	32798	32822	
5040	0	32816	32644	
5041	0	32788	32662	
5042	0	32884	32736	
5043	0	32810	32770	
5044	0	32764	32732	
5045	0	32860	32700	
5046	0	32860	32744	
5047	0	32792	32720	
5048	0	32820	32818	
5049	0	32844	32726	
5050	0	32856	32854	
5051	0	32844	32740	
5052	0	32768	32772	
5053	0	32832	32743	
5054	0	32840	32754	
5055	0	32784	32720	
5056	0	32802	32746	
5057	0	32856	32788	
5058	0	32820	32782	
5059	0	32778	32806	
5060	0	32748	32672	
5061	0	32836	32866	
5062	0	32848	32812	
5063	0	32849	32716	
5064	0	32772	32615	
5065	0	32770	32848	
5066	0	32804	32774	
5067	0	32833	32812	
5068	0	32756	32722	
5069	0	32812	32807	
5070	0	32834	32710	
5071	0	32788	32748	
5072	0	32790	32718	
5073	0	32778	32804	
5074	0	32864	32810	
5075	0	32776	32759	
5076	0	32854	32682	
5077	0	32774	32774	
5078	0	32836	32752	
5079	0	32800	32814	
5080	0	32800	32727	
5081	0	32832	32788	
5082	0	32841	32844	
5083	0	32750	32712	
5084	0	32776	32820	
5085	0	32848	32844	
5086	0	32748	32752	
5087	0	32788	32696	
5088	0	32836	32814	
5089	0	32808	32900	
5090	0	32838	32688	
5091	0	32896	32668	
5092	0	32800	32775	
5093	0	32804	32814	
5094	0	32880	32846	
5095	0	32808	32704	
5096	0	32720	32763	
5097	0	32796	32798	
5098	0	32746	32694	
5099	0	32786	32726	
5100	0	32820	32620	
5101	0	32836	32647	
5102	0	32808	32615	
5103	0	32794	32775	
5104	0	32804	32796	
5105	0	32800	32839	
5106	0	32852	32961	
5107	0	32812	33052	
5108	0	32772	33063	
5109	0	32876	32807	
5110	0	32832	32814	
5111	0	32864	32752	
5112	0	32792	32700	
5113	0	32784	32615	
5114	0	32824	32702	
5115	0	32840	32564	
5116	0	32844	32472	
5117	0	32780	32671	
5118	0	32724	32673	
5119	0	32796	32708	
5120	0	32812	32760	
5121	0	32840	32770	
5122	0	32776	32768	
5123	0	32804	32862	
5124	0	32820	32847	
5125	0	32860	32730	
5126	0	32816	32902	
5127	0	32840	32834	
5128	0	32888	32743	
5129	0	32848	32727	
5130	0	32792	32830	
5131	0	32832	32839	
5132	0	32784	32886	
5133	0	32798	32746	
5134	0	32796	32810	
5135	0	32841	32772	
5136	0	32750	32679	
5137	0	32746	32698	
5138	0	32820	32804	
5139	0	32828	32716	
5140	0	32806	32756	
5141	0	32840	32774	
5142	0	32780	32622	
5143	0	32864	32796	
5144	0	32828	32801	
5145	0	32742	32756	
5146	0	32894	32623	
5147	0	32780	32821	
5148	0	32828	32794	
5149	0	32800	32844	
5150	0	32894	32731	
5151	0	32834	32880	
5152	0	32824	32766	
5153	0	32804	32832	
5154	0	32832	32724	
5155	0	32816	32806	
5156	0	32828	32775	
5157	0	32754	32824	
5158	0	32752	32664	
5159	0	32768	32806	
5160	0	32800	32791	
5161	0	32772	32868	
5162	0	32766	32664	
5163	0	32756	32816	
5164	0	32788	32700	
5165	0	32852	32740	
5166	0	32820	32672	
5167	0	32896	32764	
5168	0	32832	32747	
5169	0	32836	32598	
5170	0	32872	32698	
5171	0	32870	32730	
5172	0	32858	32740	
5173	0	32820	32628	
5174	0	32956	32630	
5175	0	32876	32625	
5176	0	32868	32724	
5177	0	32884	32704	
5178	0	32912	32597	
5179	0	32838	32670	
5180	0	32934	32724	
5181	0	32868	32646	
5182	0	32908	32610	
5183	0	32852	32588	
5184	0	32896	32786	
5185	0	32880	32656	
5186	0	32928	32789	
5187	0	32850	32731	
5188	0	32878	32784	
5189	0	32828	32806	
5190	0	32866	32832	
5191	0	32780	32704	
5192	0	32764	32930	
5193	0	32692	32878	
5194	0	32714	32908	
5195	0	32720	33060	
5196	0	32643	32842	
5197	0	32682	32916	
5198	0	32672	33004	
5199	0	32652	33012	
5200	0	32764	32868	
5201	0	32696	33020	
5202	0	32656	32935	
5203	0	32625	32952	
5204	0	32580	32935	
5205	0	32576	33028	
5206	0	32668	33045	
5207	0	32638	32994	
5208	0	32618	33094	
5209	0	32654	33017	
5210	0	32712	32952	
5211	0	32748	32812	
5212	0	32862	32674	
5213	0	32922	32647	
5214	0	32936	32526	
5215	0	32932	32644	
5216	0	32934	32472	
5217	0	32924	32609	
5218	0	32932	32540	
5219	0	32880	32604	
5220	0	32996	32604	
5221	0	32868	32566	
5222	0	32854	32672	
5223	0	32840	32654	
5224	0	32902	32718	
5225	0	32820	32704	
5226	0	32836	32656	
5227	0	32832	32788	
5228	0	32821	32758	
5229	0	32868	32705	
5230	0	32908	32700	
5231	0	32772	32794	
5232	0	32828	32775	
5233	0	32816	32834	
5234	0	32778	32726	
5235	0	32888	32794	
5236	0	32858	32775	
5237	0	32756	32683	
5238	0	32842	32824	
5239	0	32768	32775	
5240	0	32812	32740	
5241	0	32776	32830	
5242	0	32837	32808	
5243	0	32828	32774	
5244	0	32874	32682	
5245	0	32768	32756	
5246	0	32821	32812	
5247	0	32808	32724	
5248	0	32808	32670	
5249	0	32826	32726	
5250	0	32778	32716	
5251	0	32832	32798	
5252	0	32792	32743	
5253	0	32837	32818	
5254	0	32832	32660	
5255	0	32812	32740	
5256	0	32866	32752	
5257	0	32840	32829	
5258	0	32828	32790	
5259	0	32898	32672	
5260	0	32870	32736	
5261	0	32848	32720	
5262	0	32804	32800	
5263	0	32782	32668	
5264	0	32840	32672	
5265	0	32812	32740	
5266	0	32880	32756	
5267	0	32812	32844	
5268	0	32840	32828	
5269	0	32816	32634	
5270	0	32792	32700	
5271	0	32880	32868	
5272	0	32872	32766	
5273	0	32868	32807	
5274	0	32786	32660	
5275	0	32834	32664	
5276	0	32808	32718	
5277	0	32834	32727	
5278	0	32812	32742	
5279	0	32812	32806	
5280	0	32868	32802	
5281	0	32824	32718	
5282	0	32825	32746	
5283	0	32788	32708	
5284	0	32800	32822	
5285	0	32820	32688	
5286	0	32800	32774	
5287	0	32780	32796	
5288	0	32842	32782	
5289	0	32818	32792	
5290	0	32846	32730	
5291	0	32848	32871	
5292	0	32762	32807	
5293	0	32768	32895	
5294	0	32816	32774	
5295	0	32804	32722	
5296	0	32794	32714	
5297	0	32840	32876	
5298	0	32776	32719	
5299	0	32792	32804	
5300	0	32756	32682	
5301	0	32820	32798	
5302	0	32814	32874	
5303	0	32825	32804	
5304	0	32832	32694	
5305	0	32748	32746	
5306	0	32834	32710	
5307	0	32790	32808	
5308	0	32764	32708	
5309	0	32778	32878	
5310	0	32800	32799	
5311	0	32854	32820	
5312	0	32766	32812	
5313	0	32828	32719	
5314	0	32806	32828	
5315	0	32759	32769	
5316	0	32876	32794	
5317	0	32778	32676	
5318	0	32894	32775	
5319	0	32856	32775	
5320	0	32792	32760	
5321	0	32844	32750	
5322	0	32808	32831	
5323	0	32746	32788	
5324	0	32758	32646	
5325	0	32762	33060	
5326	0	32804	32876	
5327	0	32808	32927	
5328	0	32918	32714	
5329	0	32852	32854	
5330	0	32808	32753	
5331	0	32810	32668	
5332	0	32786	32586	
5333	0	32724	32708	
5334	0	32756	32519	
5335	0	32740	32600	
5336	0	32792	32616	
5337	0	32805	32832	
5338	0	32824	32788	
5339	0	32836	32772	
5340	0	32862	32755	
5341	0	32828	32869	
5342	0	32850	32918	
5343	0	32784	32761	
5344	0	32802	32775	
5345	0	32844	32775	
5346	0	32836	32868	
5347	0	32848	32741	
5348	0	32832	32726	
5349	0	32800	32836	
5350	0	32884	32850	
5351	0	32870	32718	
5352	0	32828	32708	
5353	0	32848	32802	
5354	0	32820	32796	
5355	0	32812	32796	
5356	0	32760	32700	
5357	0	32746	32775	
5358	0	32798	32735	
5359	0	32794	32808	
5360	0	32772	32726	
5361	0	32832	32820	
5362	0	32776	32816	
5363	0	32796	32775	
5364	0	32792	32728	
5365	0	32810	32750	
5366	0	32775	32862	
5367	0	32845	32628	
5368	0	32776	32840	
5369	0	32804	32847	
5370	0	32788	32728	
5371	0	32842	32874	
5372	0	32820	32722	
5373	0	32792	32790	
5374	0	32825	32711	
5375	0	32864	32775	
5376	0	32850	32868	
5377	0	32829	32652	
5378	0	32825	32806	
5379	0	32804	32719	
5380	0	32778	32754	
5381	0	32846	32762	
5382	0	32756	32768	
5383	0	32756	32798	
5384	0	32756	32759	
5385	0	32800	32810	
5386	0	32768	32798	
5387	0	32816	32852	
5388	0	32784	32676	
5389	0	32856	32770	
5390	0	32808	32744	
5391	0	32852	32790	
5392	0	32832	32696	
5393	0	32796	32812	
5394	0	32852	32716	
5395	0	32856	32800	
5396	0	32734	32712	
5397	0	32708	32714	
5398	0	32784	32692	
5399	0	32828	32806	
5400	0	32794	32767	
5401	0	32808	32737	
5402	0	32832	32718	
5403	0	32752	32684	
5404	0	32800	32708	
5405	0	32764	32675	
5406	0	32808	32788	
5407	0	32793	32738	
5408	0	32796	32762	
5409	0	32808	32764	
5410	0	32804	32816	
5411	0	32744	32844	
5412	0	32838	32806	
5413	0	32838	32709	
5414	0	32866	32702	
5415	0	32824	32730	
5416	0	32816	32812	
5417	0	32789	32812	
5418	0	32812	32702	
5419	0	32834	32775	
5420	0	32824	32790	
5421	0	32830	32802	
5422	0	32748	32748	
5423	0	32774	32775	
5424	0	32800	32838	
5425	0	32809	32772	
5426	0	32828	32756	
5427	0	32812	32807	
5428	0	32792	32727	
5429	0	32804	32684	
5430	0	32808	32763	
5431	0	32776	32838	
5432	0	32810	32772	
5433	0	32825	32676	
5434	0	32817	32742	
5435	0	32784	32737	
5436	0	32820	32751	
5437	0	32820	32740	
5438	0	32810	32734	
5439	0	32804	32789	
5440	0	32800	32736	
5441	0	32808	32812	
5442	0	32820	32810	
5443	0	32808	32670	
5444	0	32848	32692	
5445	0	32856	32853	
5446	0	32846	32774	
5447	0	32764	32795	
5448	0	32796	32730	
5449	0	32788	32711	
5450	0	32762	32764	
5451	0	32820	32746	
5452	0	32832	32770	
5453	0	32814	32708	
5454	0	32840	32722	
5455	0	32849	32788	
5456	0	32796	32738	
5457	0	32808	32804	
5458	0	32772	32756	
5459	0	32784	32708	
5460	0	32790	32840	
5461	0	32811	32820	
5462	0	32832	32758	
5463	0	32833	32856	
5464	0	32808	32740	
5465	0	32836	32680	
5466	0	32732	32715	
5467	0	32814	32846	
5468	0	32808	32874	
5469	0	32756	32810	
5470	0	32730	32871	
5471	0	32780	32738	
5472	0	32760	32716	
5473	0	32808	32808	
5474	0	32768	32812	
5475	0	32824	32740	
5476	0	32832	32746	
5477	0	32798	32756	
5478	0	32860	32763	
5479	0	32864	32696	
5480	0	32782	32590	
5481	0	32800	32802	
5482	0	32772	32842	
5483	0	32780	32843	
5484	0	32848	32775	
5485	0	32844	32678	
5486	0	32784	32792	
5487	0	32786	32673	
5488	0	32812	32894	
5489	0	32828	32815	
5490	0	32784	32775	
5491	0	32810	32784	
5492	0	32810	32738	
5493	0	32832	32632	
5494	0	32888	32806	
5495	0	32802	32746	
5496	0	32774	32775	
5497	0	32798	32702	
5498	0	32808	32700	
5499	0	32770	32828	
5500	0	32834	32856	
5501	0	32836	32808	
5502	0	32828	32826	
5503	0	32814	32743	
5504	0	32764	32807	
5505	0	32844	32764	
5506	0	32736	32862	
5507	0	32752	32700	
5508	0	32804	32798	
5509	0	32880	32828	
5510	0	32768	32812	
5511	0	32802	32734	
5512	0	32810	32808	
5513	0	32768	32743	
5514	0	32804	32700	
5515	0	32836	32830	
5516	0	32814	32849	
5517	0	32872	32716	
5518	0	32874	32666	
5519	0	32804	32792	
5520	0	32826	32752	
5521	0	32792	32812	
5522	0	32793	32858	
5523	0	32828	32740	
5524	0	32864	32718	
5525	0	32816	32756	
5526	0	32832	32796	
5527	0	32764	32682	
5528	0	32802	32816	
5529	0	32752	32764	
5530	0	32736	32710	
5531	0	32800	32810	
5532	0	32904	32812	
5533	0	32800	32788	
5534	0	32840	32903	
5535	0	32774	32812	
5536	0	32768	32766	
5537	0	32776	32688	
5538	0	32847	32664	
5539	0	32780	32775	
5540	0	32812	32764	
5541	0	32834	32790	
5542	0	32780	32678	
5543	0	32898	32828	
5544	0	32816	32812	
5545	0	32776	32750	
5546	0	32872	32754	
5547	0	32804	32800	
5548	0	32842	32750	
5549	0	32872	32804	
5550	0	32812	32775	
5551	0	32812	32793	
5552	0	32816	32775	
5553	0	32812	32700	
5554	0	32800	32696	
5555	0	32796	32768	
5556	0	32832	32808	
5557	0	32832	32743	
5558	0	32714	32638	
5559	0	32768	32678	
5560	0	32832	32832	
5561	0	32828	32738	
5562	0	32882	32815	
5563	0	32820	32774	
5564	0	32804	32754	
5565	0	32808	32820	
5566	0	32816	32814	
5567	0	32770	32808	
5568	0	32812	32742	
5569	0	32830	32648	
5570	0	32784	32834	
5571	0	32780	32756	
5572	0	32833	32806	
5573	0	32792	32834	
5574	0	32796	32740	
5575	0	32764	32888	
5576	0	32772	32752	
5577	0	32852	32848	
5578	0	32800	32730	
5579	0	32820	32732	
5580	0	32824	32775	
5581	0	32832	32770	
5582	0	32775	32824	
5583	0	32892	32758	
5584	0	32788	32676	
5585	0	32800	32775	
5586	0	32778	32712	
5587	0	32780	32858	
5588	0	32800	32810	
5589	0	32876	32734	
5590	0	32796	32710	
5591	0	32814	32740	
5592	0	32828	32775	
5593	0	32796	32762	
5594	0	32818	32810	
5595	0	32868	32680	
5596	0	32848	32732	
5597	0	32800	32702	
5598	0	32828	32916	
5599	0	32788	32716	
5600	0	32876	32793	
5601	0	32836	32806	
5602	0	32880	32708	
5603	0	32780	32764	
5604	0	32828	32734	
5605	0	32832	32725	
5606	0	32814	32781	
5607	0	32862	32794	
5608	0	32700	32674	
5609	0	32844	32756	
5610	0	32880	32772	
5611	0	32760	32772	
5612	0	32748	32746	
5613	0	32832	32760	
5614	0	32844	32631	
5615	0	32784	32741	
5616	0	32816	32868	
5617	0	32796	32824	
5618	0	32840	32804	
5619	0	32804	32684	
5620	0	32784	32903	
5621	0	32780	32814	
5622	0	32812	32808	
5623	0	32804	32732	
5624	0	32826	32711	
5625	0	32884	32728	
5626	0	32834	32770	
5627	0	32880	32738	
5628	0	32904	32794	
5629	0	32824	32794	
5630	0	32796	32692	
5631	0	32824	32696	
5632	0	32840	32839	
5633	0	32726	32754	
5634	0	32858	32766	
5635	0	32798	32772	
5636	0	32788	32708	
5637	0	32792	32752	
5638	0	32804	32807	
5639	0	32756	32766	
5640	0	32780	32774	
5641	0	32864	32774	
5642	0	32816	32774	
5643	0	32733	32808	
5644	0	32834	32736	
5645	0	32812	32866	
5646	0	32814	32792	
5647	0	32756	32723	
5648	0	32838	32786	
5649	0	32756	32732	
5650	0	32820	32728	
5651	0	32810	32812	
5652	0	32757	32775	
5653	0	32790	32839	
5654	0	32774	32822	
5655	0	32824	32704	
5656	0	32836	32766	
5657	0	32822	32814	
5658	0	32772	32792	
5659	0	32870	32730	
5660	0	32772	32712	
5661	0	32746	32720	
5662	0	32822	32900	
5663	0	32836	32786	
5664	0	32808	32798	
5665	0	32848	32745	
5666	0	32816	32750	
5667	0	32812	32752	
5668	0	32830	32808	
5669	0	32856	32810	
5670	0	32736	32719	
5671	0	32852	32714	
5672	0	32836	32807	
5673	0	32788	32848	
5674	0	32876	32871	
5675	0	32804	32830	
5676	0	32780	32842	
5677	0	32808	32852	
5678	0	32810	32847	
5679	0	32834	32842	
5680	0	32826	32699	
5681	0	32868	32590	
5682	0	32768	32586	
5683	0	32772	32598	
5684	0	32836	32663	
5685	0	32852	32704	
5686	0	32836	32711	
5687	0	32790	32796	
5688	0	32844	32740	
5689	0	32768	32855	
5690	0	32730	32860	
5691	0	32740	32775	
5692	0	32790	32822	
5693	0	32828	32886	
5694	0	32828	32775	
5695	0	32868	32720	
5696	0	32812	32824	
5697	0	32860	32788	
5698	0	32814	32724	
5699	0	32816	32750	
5700	0	32832	32812	
5701	0	32794	32775	
5702	0	32804	32759	
5703	0	32844	32775	
5704	0	32862	32806	
5705	0	32794	32848	
5706	0	32816	32684	
5707	0	32820	32735	
5708	0	32824	32934	
5709	0	32804	32824	
5710	0	32748	32762	
5711	0	32817	32832	
5712	0	32816	32712	
5713	0	32820	32679	
5714	0	32808	32716	
5715	0	32733	32809	
5716	0	32796	32908	
5717	0	32754	32724	
5718	0	32792	32727	
5719	0	32808	32740	
5720	0	32836	32662	
5721	0	32848	32800	
5722	0	32852	32742	
5723	0	32766	32650	
5724	0	32776	32684	
5725	0	32828	32839	
5726	0	32880	32738	
5727	0	32816	32806	
5728	0	32780	32874	
5729	0	32848	32772	
5730	0	32808	32718	
5731	0	32802	32660	
5732	0	32810	32736	
5733	0	32794	32816	
5734	0	32864	32702	
5735	0	32792	32832	
5736	0	32788	32692	
5737	0	32812	32674	
5738	0	32822	32868	
5739	0	32776	32742	
5740	0	32774	32743	
5741	0	32780	32770	
5742	0	32792	32745	
5743	0	32848	32770	
5744	0	32852	32732	
5745	0	32750	32814	
5746	0	32784	32774	
5747	0	32864	32775	
5748	0	32856	32876	
5749	0	32768	32742	
5750	0	32796	32894	
5751	0	32828	32742	
5752	0	32832	32900	
5753	0	32840	32666	
5754	0	32842	32668	
5755	0	32806	32680	
5756	0	32734	32839	
5757	0	32791	32674	
5758	0	32864	32830	
5759	0	32802	32672	
5760	0	32896	32821	
5761	0	32884	32706	
5762	0	32818	32789	
5763	0	32849	32793	
5764	0	32816	32960	
5765	0	32836	32802	
5766	0	32790	33056	
5767	0	32834	32906	
5768	0	32776	33000	
5769	0	32864	33114	
5770	0	32828	32854	
5771	0	32852	32526	
5772	0	32806	32294	
5773	0	32762	32263	
5774	0	32842	32497	
5775	0	32800	32638	
5776	0	32808	32615	
5777	0	32726	32626	
5778	0	32770	32700	
5779	0	32840	32728	
5780	0	32802	32830	
5781	0	32792	32680	
5782	0	32814	32586	
5783	0	32882	32775	
5784	0	32862	32842	
5785	0	32796	32830	
5786	0	32840	32824	
5787	0	32844	32775	
5788	0	32800	32846	
5789	0	32864	32846	
5790	0	32798	32891	
5791	0	32828	32940	
5792	0	32804	32858	
5793	0	32808	32754	
5794	0	32816	32816	
5795	0	32796	32878	
5796	0	32826	32824	
5797	0	32796	32853	
5798	0	32900	32832	
5799	0	32838	32768	
5800	0	32844	32789	
5801	0	32740	32846	
5802	0	32812	32794	
5803	0	32812	32652	
5804	0	32792	32636	
5805	0	32832	32762	
5806	0	32858	32790	
5807	0	32896	32788	
5808	0	32872	32730	
5809	0	32832	32656	
5810	0	32832	32791	
5811	0	32730	32769	
5812	0	32740	32783	
5813	0	32792	32714	
5814	0	32708	32734	
5815	0	32856	32768	
5816	0	32776	32800	
5817	0	32780	32690	
5818	0	32832	32676	
5819	0	32768	32719	
5820	0	32770	32615	
5821	0	32792	32784	
5822	0	32832	32871	
5823	0	32840	32724	
5824	0	32772	32795	
5825	0	32768	32768	
5826	0	32792	32684	
5827	0	32778	32868	
5828	0	32808	32770	
5829	0	32800	32804	
5830	0	32796	32622	
5831	0	32886	32702	
5832	0	32868	32668	
5833	0	32760	32820	
5834	0	32818	32848	
5835	0	32808	32807	
5836	0	32784	32666	
5837	0	32812	32691	
5838	0	32848	32708	
5839	0	32812	32790	
5840	0	32884	32743	
5841	0	32800	32640	
5842	0	32760	32904	
5843	0	32808	32743	
5844	0	32760	32832	
5845	0	32828	32702	
5846	0	32852	32750	
5847	0	32832	32774	
5848	0	32768	32799	
5849	0	32852	32756	
5850	0	32804	32652	
5851	0	32794	32775	
5852	0	32762	32761	
5853	0	32824	32719	
5854	0	32836	32751	
5855	0	32804	32826	
5856	0	32836	32804	
5857	0	32872	32722	
5858	0	32780	32801	
5859	0	32796	32775	
5860	0	32848	32746	
5861	0	32824	32688	
5862	0	32808	32770	
5863	0	32830	32714	
5864	0	32780	32682	
5865	0	32792	32775	
5866	0	32788	32910	
5867	0	32832	32990	
5868	0	32824	32792	
5869	0	32828	32672	
5870	0	32856	32752	
5871	0	32828	32748	
5872	0	32786	32788	
5873	0	32854	32856	
5874	0	32780	33096	
5875	0	32772	33120	
5876	0	32880	33102	
5877	0	32812	32874	
5878	0	32828	32528	
5879	0	32746	32364	
5880	0	32864	32372	
5881	0	32856	32727	
5882	0	32828	32804	
5883	0	32812	32652	
5884	0	32798	32628	
5885	0	32836	32474	
5886	0	32820	32588	
5887	0	32896	32682	
5888	0	32786	32639	
5889	0	32832	32810	
5890	0	32688	33030	
5891	0	32870	33079	
5892	0	32762	32922	
5893	0	32800	32756	
5894	0	32780	32870	
5895	0	32798	32788	
5896	0	32788	32598	
5897	0	32804	32858	
5898	0	32776	32884	
5899	0	32800	32685	
5900	0	32909	32800	
5901	0	32786	32721	
5902	0	32888	32652	
5903	0	32812	32852	
5904	0	32856	32868	
5905	0	32802	32867	
5906	0	32806	32634	
5907	0	32854	32750	
5908	0	32764	32812	
5909	0	32848	32912	
5910	0	32880	32647	
5911	0	32858	32700	
5912	0	32886	32804	
5913	0	32784	32687	
5914	0	32796	32634	
5915	0	32820	32588	
5916	0	32788	32647	
5917	0	32820	32770	
5918	0	32754	32714	
5919	0	32762	32772	
5920	0	32810	32802	
5921	0	32782	32856	
5922	0	32778	32806	
5923	0	32804	32661	
5924	0	32856	32684	
5925	0	32836	32862	
5926	0	32800	32660	
5927	0	32880	32855	
5928	0	32846	32724	
5929	0	32788	32681	
5930	0	32830	32766	
5931	0	32776	32752	
5932	0	32812	32836	
5933	0	32806	32638	
5934	0	32780	32711	
5935	0	32868	32822	
5936	0	32826	32874	
5937	0	32808	32752	
5938	0	32752	32754	
5939	0	32804	32855	
5940	0	32832	32838	
5941	0	32822	32828	
5942	0	32822	32792	
5943	0	32824	32852	
5944	0	32820	32976	
5945	0	32816	32798	
5946	0	32804	32524	
5947	0	32792	32484	
5948	0	32768	32506	
5949	0	32832	32463	
5950	0	32800	32682	
5951	0	32800	32868	
5952	0	32804	33079	
5953	0	32820	33078	
5954	0	32836	32956	
5955	0	32806	32828	
5956	0	32816	32966	
5957	0	32784	32724	
5958	0	32828	32676	
5959	0	32798	32587	
5960	0	32776	32422	
5961	0	32860	32240	
5962	0	32840	32204	
5963	0	32800	32218	
5964	0	32764	32414	
5965	0	32816	32806	
5966	0	32754	33054	
5967	0	32816	33529	
5968	0	32752	33543	
5969	0	32896	33472	
5970	0	32860	33048	
5971	0	32832	32846	
5972	0	32828	32720	
5973	0	32836	32644	
5974	0	32805	32776	
5975	0	32804	32734	
5976	0	32750	32692	
5977	0	32796	32839	
5978	0	32732	32785	
5979	0	32784	32726	
5980	0	32808	32724	
5981	0	32878	32852	
5982	0	32890	32785	
5983	0	32817	32494	
5984	0	32836	32250	
5985	0	32808	32504	
5986	0	32772	32748	
5987	0	32816	32818	
5988	0	32768	32743	
5989	0	32792	32623	
5990	0	32772	32615	
5991	0	32840	32590	
5992	0	32826	32558	
5993	0	32730	32998	
5994	0	32744	33268	
5995	0	32824	33124	
5996	0	32760	32992	
5997	0	32716	33054	
5998	0	32728	32824	
5999	0	32856	32628	
6000	0	32792	32678	
6001	0	32944	32326	
6002	0	32824	32514	
6003	0	32848	32615	
6004	0	32888	32576	
6005	0	32732	32614	
6006	0	32620	32615	
6007	0	32564	32823	
6008	0	32656	32706	
6009	0	32620	32596	
6010	0	32644	32566	
6011	0	32692	32494	
6012	0	32650	32912	
