# OpenSignals Text File Format. Version 1
# {"00:07:80:8C:0A:39": {"position": 0, "device": "biosignalsplux", "device name": "00:07:80:8C:0A:39", "device connection": "BTH00:07:80:8C:0A:39", "sampling rate": 1000, "resolution": [16, 16], "firmware version": 776, "comments": "", "keywords": "", "mode": 0, "sync interval": 2, "date": "2023-3-20", "time": "9:58:32.607", "channels": [1, 2], "sensor": ["EMG", "EMG"], "label": ["CH1", "CH2"], "column": ["nSeq", "DI", "CH1", "CH2"], "special": [{"SpO2": [80, 40, 5, 4, 3, 3]}, {"SpO2": [80, 40, 5, 4, 3, 3]}, {"SpO2": [80, 40, 5, 4, 3, 3]}, {"SpO2": [80, 40, 5, 4, 3, 3]}, {"SpO2": [80, 40, 5, 4, 3, 3]}, {"SpO2": [80, 40, 5, 4, 3, 3]}, {"SpO2": [80, 40, 5, 4, 3, 3]}, {"SpO2": [80, 40, 5, 4, 3, 3]}], "digital IO": [0, 1], "sleeve color": ["gray", "yellow"], "convertedValues": 0}}
# EndOfHeader
0	0	32808	32775	
1	0	32834	32692	
2	0	32790	32652	
3	0	32764	32756	
4	0	32828	32761	
5	0	32790	32775	
6	0	32800	32751	
7	0	32820	32804	
8	0	32828	32764	
9	0	32820	32742	
10	0	32764	32730	
11	0	32864	32774	
12	0	32832	32802	
13	0	32844	32878	
14	0	32840	32838	
15	0	32844	32647	
16	0	32780	32742	
17	0	32744	32680	
18	0	32800	32708	
19	0	32756	32750	
20	0	32824	32724	
21	0	32764	32696	
22	0	32844	32812	
23	0	32828	32703	
24	0	32828	32740	
25	0	32830	32655	
26	0	32844	32688	
27	0	32800	32704	
28	0	32752	32720	
29	0	32878	32790	
30	0	32784	32700	
31	0	32752	32700	
32	0	32814	32738	
33	0	32814	32798	
34	0	32844	32720	
35	0	32826	32732	
36	0	32824	32812	
37	0	32708	32732	
38	0	32808	32744	
39	0	32808	32744	
40	0	32820	32817	
41	0	32852	32806	
42	0	32860	32764	
43	0	32792	32771	
44	0	32789	32660	
45	0	32790	32740	
46	0	32754	32666	
47	0	32800	32743	
48	0	32845	32762	
49	0	32792	32788	
50	0	32814	32791	
51	0	32809	32818	
52	0	32764	32826	
53	0	32808	32808	
54	0	32884	32828	
55	0	32844	32766	
56	0	32816	32775	
57	0	32840	32775	
58	0	32788	32794	
59	0	32836	32774	
60	0	32834	32822	
61	0	32840	32646	
62	0	32780	32686	
63	0	32824	32670	
64	0	32836	32711	
65	0	32828	32758	
66	0	32836	32664	
67	0	32774	32720	
68	0	32744	32756	
69	0	32802	32720	
70	0	32808	32742	
71	0	32756	32758	
72	0	32788	32804	
73	0	32740	32816	
74	0	32804	32746	
75	0	32808	32862	
76	0	32818	32814	
77	0	32780	32762	
78	0	32772	32871	
79	0	32804	32789	
80	0	32808	32806	
81	0	32834	32810	
82	0	32838	32806	
83	0	32904	32788	
84	0	32816	32702	
85	0	32836	32676	
86	0	32864	32692	
87	0	32832	32750	
88	0	32830	32708	
89	0	32740	32823	
90	0	32824	32836	
91	0	32814	32774	
92	0	32808	32752	
93	0	32830	32694	
94	0	32792	32767	
95	0	32850	32864	
96	0	32744	32759	
97	0	32772	32788	
98	0	32900	32814	
99	0	32772	32796	
100	0	32824	32879	
101	0	32784	32726	
102	0	32888	32670	
103	0	32816	32711	
104	0	32854	32775	
105	0	32822	32852	
106	0	32832	32792	
107	0	32804	32757	
108	0	32812	32732	
109	0	32816	32789	
110	0	32804	32818	
111	0	32832	32838	
112	0	32828	32740	
113	0	32816	32732	
114	0	32780	32711	
115	0	32800	32679	
116	0	32748	32762	
117	0	32798	32721	
118	0	32775	32820	
119	0	32836	32820	
120	0	32774	32806	
121	0	32844	32828	
122	0	32832	32726	
123	0	32788	32753	
124	0	32848	32836	
125	0	32788	32760	
126	0	32806	32775	
127	0	32764	32770	
128	0	32856	32694	
129	0	32804	32717	
130	0	32828	32732	
131	0	32828	32614	
132	0	32802	32800	
133	0	32836	32820	
134	0	32804	32800	
135	0	32874	32823	
136	0	32824	32740	
137	0	32772	32775	
138	0	32806	32772	
139	0	32820	32772	
140	0	32836	32775	
141	0	32775	32852	
142	0	32760	32718	
143	0	32810	32804	
144	0	32852	32722	
145	0	32860	32732	
146	0	32836	32824	
147	0	32802	32842	
148	0	32884	32788	
149	0	32784	32775	
150	0	32720	32834	
151	0	32840	32775	
152	0	32756	32818	
153	0	32808	32646	
154	0	32818	32678	
155	0	32780	32708	
156	0	32798	32708	
157	0	32828	32690	
158	0	32812	32768	
159	0	32822	32798	
160	0	32796	32847	
161	0	32808	32808	
162	0	32808	32804	
163	0	32872	32756	
164	0	32888	32752	
165	0	32820	32812	
166	0	32768	32821	
167	0	32852	32730	
168	0	32782	32736	
169	0	32804	32710	
170	0	32864	32726	
171	0	32753	32816	
172	0	32788	32726	
173	0	32846	32696	
174	0	32814	32708	
175	0	32800	32736	
176	0	32740	32704	
177	0	32864	32692	
178	0	32836	32676	
179	0	32824	32772	
180	0	32810	32748	
181	0	32792	32692	
182	0	32808	32775	
183	0	32828	32725	
184	0	32852	32711	
185	0	32842	32668	
186	0	32812	32720	
187	0	32804	32684	
188	0	32876	32702	
189	0	32806	32718	
190	0	32824	32926	
191	0	32844	32799	
192	0	32828	32855	
193	0	32788	32760	
194	0	32816	32775	
195	0	32810	32746	
196	0	32845	32796	
197	0	32800	32800	
198	0	32784	32756	
199	0	32760	32708	
200	0	32824	32683	
201	0	32812	32856	
202	0	32716	32824	
203	0	32788	32828	
204	0	32844	32788	
205	0	32810	32890	
206	0	32912	32702	
207	0	32812	32672	
208	0	32802	32695	
209	0	32826	32623	
210	0	32780	32749	
211	0	32760	32796	
212	0	32820	32728	
213	0	32766	32704	
214	0	32816	32806	
215	0	32868	32838	
216	0	32811	32718	
217	0	32756	32730	
218	0	32828	32714	
219	0	32828	32800	
220	0	32772	32780	
221	0	32832	32761	
222	0	32820	32806	
223	0	32828	32775	
224	0	32788	32756	
225	0	32824	32822	
226	0	32868	32726	
227	0	32768	32632	
228	0	32842	32723	
229	0	32816	32839	
230	0	32888	32864	
231	0	32872	32760	
232	0	32860	32754	
233	0	32808	32714	
234	0	32794	32800	
235	0	32776	32798	
236	0	32808	32772	
237	0	32760	32770	
238	0	32816	32759	
239	0	32718	32720	
240	0	32756	32740	
241	0	32773	32775	
242	0	32772	32876	
243	0	32788	32859	
244	0	32804	32862	
245	0	32804	32770	
246	0	32808	32879	
247	0	32828	32768	
248	0	32864	32644	
249	0	32902	32668	
250	0	32940	32619	
251	0	32916	32668	
252	0	32962	32624	
253	0	32968	32596	
254	0	33008	32610	
255	0	32976	32716	
256	0	32994	32659	
257	0	32992	32544	
258	0	32882	32676	
259	0	32888	32612	
260	0	32796	32788	
261	0	32894	32796	
262	0	32932	32692	
263	0	32984	32692	
264	0	32942	32770	
265	0	32916	32662	
266	0	32892	32662	
267	0	32744	32704	
268	0	32748	32740	
269	0	32680	32788	
270	0	32640	32808	
271	0	32640	33046	
272	0	32570	33007	
273	0	32520	33063	
274	0	32472	33122	
275	0	32498	33159	
276	0	32428	33175	
277	0	32472	33206	
278	0	32512	32990	
279	0	32576	32970	
280	0	32628	32912	
281	0	32600	32836	
282	0	32676	32768	
283	0	32664	32772	
284	0	32728	32706	
285	0	32800	32708	
286	0	32870	32639	
287	0	32898	32610	
288	0	32892	32611	
289	0	33006	32558	
290	0	33006	32518	
291	0	33000	32566	
292	0	32960	32660	
293	0	33000	32624	
294	0	33012	32687	
295	0	32936	32561	
296	0	32846	32642	
297	0	32868	32662	
298	0	32868	32708	
299	0	32864	32658	
300	0	32876	32840	
301	0	32824	32692	
302	0	32878	32794	
303	0	32884	32800	
304	0	32832	32772	
305	0	32884	32720	
306	0	32856	32852	
307	0	32772	32728	
308	0	32864	32704	
309	0	32784	32716	
310	0	32772	32742	
311	0	32796	32809	
312	0	32774	32826	
313	0	32808	32754	
314	0	32860	32725	
315	0	32824	32806	
316	0	32832	32677	
317	0	32800	32711	
318	0	32844	32818	
319	0	32812	32889	
320	0	32770	32868	
321	0	32832	32708	
322	0	32848	32692	
323	0	32848	32816	
324	0	32772	32826	
325	0	32866	32686	
326	0	32880	32792	
327	0	32816	32848	
328	0	32804	32754	
329	0	32808	32775	
330	0	32812	32796	
331	0	32800	32689	
332	0	32736	32860	
333	0	32834	32770	
334	0	32764	32731	
335	0	32844	32719	
336	0	32815	32824	
337	0	32784	32848	
338	0	32840	32719	
339	0	32844	32800	
340	0	32840	32806	
341	0	32818	32784	
342	0	32836	32731	
343	0	32868	32804	
344	0	32796	32750	
345	0	32721	32756	
346	0	32828	32708	
347	0	32848	32815	
348	0	32812	32806	
349	0	32836	32697	
350	0	32792	32800	
351	0	32768	32742	
352	0	32784	32647	
353	0	32766	32668	
354	0	32866	32760	
355	0	32816	32792	
356	0	32830	32890	
357	0	32716	32812	
358	0	32818	32702	
359	0	32820	32844	
360	0	32838	32738	
361	0	32864	32822	
362	0	32764	32804	
363	0	32800	32808	
364	0	32798	32792	
365	0	32854	32775	
366	0	32844	32791	
367	0	32828	32800	
368	0	32808	32726	
369	0	32844	32740	
370	0	32824	32840	
371	0	32780	32832	
372	0	32816	32822	
373	0	32812	32668	
374	0	32772	32807	
375	0	32750	32831	
376	0	32810	32732	
377	0	32782	32744	
378	0	32768	32679	
379	0	32728	32764	
380	0	32812	32864	
381	0	32800	32727	
382	0	32790	32752	
383	0	32824	32844	
384	0	32782	32871	
385	0	32854	32796	
386	0	32792	32740	
387	0	32804	32775	
388	0	32824	32747	
389	0	32754	32738	
390	0	32824	32832	
391	0	32836	32810	
392	0	32828	32718	
393	0	32868	32718	
394	0	32792	32792	
395	0	32778	32711	
396	0	32796	32775	
397	0	32892	32792	
398	0	32872	32772	
399	0	32814	32848	
400	0	32776	32810	
401	0	32788	32766	
402	0	32884	32739	
403	0	32832	32676	
404	0	32760	32641	
405	0	32828	32762	
406	0	32772	32668	
407	0	32804	32834	
408	0	32702	32736	
409	0	32885	32812	
410	0	32808	32775	
411	0	32748	32742	
412	0	32768	32692	
413	0	32808	32727	
414	0	32860	32817	
415	0	32840	32758	
416	0	32852	32696	
417	0	32888	32758	
418	0	32836	32775	
419	0	32848	32706	
420	0	32775	32766	
421	0	32814	32870	
422	0	32854	32762	
423	0	32864	32750	
424	0	32832	32839	
425	0	32832	32768	
426	0	32828	32759	
427	0	32816	32670	
428	0	32796	32730	
429	0	32821	32814	
430	0	32816	32775	
431	0	32884	32758	
432	0	32796	32708	
433	0	32746	32670	
434	0	32778	32810	
435	0	32798	32816	
436	0	32792	32722	
437	0	32768	32828	
438	0	32764	32676	
439	0	32780	32702	
440	0	32832	32804	
441	0	32864	32824	
442	0	32832	32734	
443	0	32840	32792	
444	0	32800	32816	
445	0	32840	32746	
446	0	32816	32794	
447	0	32796	32716	
448	0	32780	32700	
449	0	32820	32682	
450	0	32756	32679	
451	0	32832	32794	
452	0	32828	32827	
453	0	32818	32865	
454	0	32800	32814	
455	0	32824	32678	
456	0	32848	32738	
457	0	32744	32782	
458	0	32822	32840	
459	0	32832	32792	
460	0	32780	32714	
461	0	32784	32759	
462	0	32824	32807	
463	0	32852	32775	
464	0	32808	32720	
465	0	32876	32799	
466	0	32840	32775	
467	0	32810	32812	
468	0	32800	32812	
469	0	32810	32752	
470	0	32788	32766	
471	0	32788	32663	
472	0	32779	32775	
473	0	32810	32732	
474	0	32798	32706	
475	0	32776	32814	
476	0	32790	32759	
477	0	32848	32842	
478	0	32825	32800	
479	0	32832	32775	
480	0	32820	32855	
481	0	32808	32883	
482	0	32824	32708	
483	0	32740	32722	
484	0	32838	32721	
485	0	32816	32768	
486	0	32800	32824	
487	0	32862	32828	
488	0	32770	32770	
489	0	32780	32728	
490	0	32748	32748	
491	0	32793	32825	
492	0	32852	32916	
493	0	32862	32828	
494	0	32856	32788	
495	0	32770	32761	
496	0	32780	32807	
497	0	32712	32710	
498	0	32798	32769	
499	0	32848	32828	
500	0	32768	32750	
501	0	32748	32814	
502	0	32868	32810	
503	0	32894	32892	
504	0	32832	32798	
505	0	32808	32760	
506	0	32832	32728	
507	0	32792	32722	
508	0	32752	32807	
509	0	32846	32770	
510	0	32794	32772	
511	0	32822	32722	
512	0	32844	32830	
513	0	32792	32796	
514	0	32874	32840	
515	0	32776	32849	
516	0	32808	32714	
517	0	32804	32844	
518	0	32804	32775	
519	0	32800	32762	
520	0	32792	32870	
521	0	32790	32762	
522	0	32832	32735	
523	0	32846	32684	
524	0	32820	32767	
525	0	32798	32724	
526	0	32820	32828	
527	0	32810	32872	
528	0	32742	32828	
529	0	32796	32728	
530	0	32868	32791	
531	0	32836	32738	
532	0	32828	32820	
533	0	32752	32820	
534	0	32790	32768	
535	0	32792	32762	
536	0	32848	32766	
537	0	32750	32772	
538	0	32796	32792	
539	0	32748	32822	
540	0	32768	32728	
541	0	32800	32816	
542	0	32848	32732	
543	0	32848	32871	
544	0	32870	32764	
545	0	32848	32764	
546	0	32856	32852	
547	0	32804	32710	
548	0	32776	32688	
549	0	32834	32692	
550	0	32788	32718	
551	0	32794	32712	
552	0	32864	32836	
553	0	32774	32823	
554	0	32772	32740	
555	0	32790	32840	
556	0	32822	32800	
557	0	32800	32775	
558	0	32774	32801	
559	0	32824	32756	
560	0	32824	32714	
561	0	32768	32814	
562	0	32800	32739	
563	0	32836	32830	
564	0	32824	32768	
565	0	32820	32788	
566	0	32784	32711	
567	0	32788	32792	
568	0	32844	32814	
569	0	32796	32822	
570	0	32768	32794	
571	0	32810	32807	
572	0	32828	32836	
573	0	32802	32764	
574	0	32812	32736	
575	0	32816	32736	
576	0	32842	32700	
577	0	32796	32730	
578	0	32824	32881	
579	0	32806	32808	
580	0	32828	32775	
581	0	32788	32729	
582	0	32804	32848	
583	0	32792	32839	
584	0	32788	32718	
585	0	32828	32711	
586	0	32780	32700	
587	0	32804	32736	
588	0	32868	32692	
589	0	32760	32775	
590	0	32812	32742	
591	0	32832	32756	
592	0	32794	32814	
593	0	32814	32704	
594	0	32816	32748	
595	0	32840	32727	
596	0	32824	32722	
597	0	32768	32768	
598	0	32814	32710	
599	0	32816	32752	
600	0	32780	32796	
601	0	32800	32814	
602	0	32876	32746	
603	0	32864	32766	
604	0	32792	32806	
605	0	32788	32670	
606	0	32768	32663	
607	0	32796	32710	
608	0	32748	32857	
609	0	32776	32786	
610	0	32822	32862	
611	0	32820	32866	
612	0	32844	32732	
613	0	32820	32636	
614	0	32864	32798	
615	0	32836	32820	
616	0	32812	32775	
617	0	32812	32769	
618	0	32876	32822	
619	0	32828	32764	
620	0	32752	32708	
621	0	32804	32672	
622	0	32836	32775	
623	0	32812	32812	
624	0	32776	32788	
625	0	32856	32760	
626	0	32842	32790	
627	0	32852	32753	
628	0	32772	32775	
629	0	32864	32746	
630	0	32774	32743	
631	0	32752	32720	
632	0	32792	32790	
633	0	32816	32792	
634	0	32808	32758	
635	0	32800	32798	
636	0	32852	32775	
637	0	32838	32748	
638	0	32780	32720	
639	0	32694	32742	
640	0	32828	32757	
641	0	32824	32756	
642	0	32808	32847	
643	0	32836	32810	
644	0	32800	32852	
645	0	32836	32729	
646	0	32796	32660	
647	0	32844	32831	
648	0	32794	32798	
649	0	32836	32839	
650	0	32776	32757	
651	0	32792	32836	
652	0	32820	32732	
653	0	32876	32680	
654	0	32752	32772	
655	0	32812	32815	
656	0	32812	32806	
657	0	32828	32823	
658	0	32836	32724	
659	0	32806	32748	
660	0	32836	32870	
661	0	32904	32700	
662	0	32838	32704	
663	0	32840	32918	
664	0	32830	32757	
665	0	32830	32775	
666	0	32788	32814	
667	0	32804	32718	
668	0	32814	32683	
669	0	32769	32719	
670	0	32820	32892	
671	0	32826	32775	
672	0	32774	32812	
673	0	32808	32852	
674	0	32772	32772	
675	0	32778	32687	
676	0	32788	32698	
677	0	32786	32807	
678	0	32772	32727	
679	0	32840	32774	
680	0	32792	32832	
681	0	32820	32702	
682	0	32810	32693	
683	0	32828	32679	
684	0	32778	32760	
685	0	32866	32794	
686	0	32824	32764	
687	0	32810	32760	
688	0	32808	32832	
689	0	32808	32774	
690	0	32784	32839	
691	0	32830	32698	
692	0	32784	32738	
693	0	32832	32735	
694	0	32832	32748	
695	0	32854	32762	
696	0	32796	32808	
697	0	32814	32762	
698	0	32820	32751	
699	0	32788	32876	
700	0	32808	32775	
701	0	32821	32838	
702	0	32810	32684	
703	0	32838	32730	
704	0	32772	32751	
705	0	32824	32768	
706	0	32862	32760	
707	0	32800	32775	
708	0	32848	32806	
709	0	32798	32814	
710	0	32800	32768	
711	0	32756	32720	
712	0	32828	32800	
713	0	32844	32834	
714	0	32860	32686	
715	0	32768	32682	
716	0	32770	32708	
717	0	32766	32764	
718	0	32808	32812	
719	0	32755	32834	
720	0	32754	32855	
721	0	32764	32817	
722	0	32814	32802	
723	0	32832	32712	
724	0	32782	32746	
725	0	32818	32734	
726	0	32856	32820	
727	0	32816	32796	
728	0	32878	32775	
729	0	32778	32844	
730	0	32839	32871	
731	0	32764	32684	
732	0	32876	32646	
733	0	32852	32694	
734	0	32830	32792	
735	0	32788	32875	
736	0	32800	32826	
737	0	32830	32720	
738	0	32794	32806	
739	0	32856	32767	
740	0	32822	32807	
741	0	32804	32775	
742	0	32836	32750	
743	0	32852	32801	
744	0	32794	32684	
745	0	32804	32712	
746	0	32844	32769	
747	0	32788	32736	
748	0	32808	32821	
749	0	32832	32798	
750	0	32864	32803	
751	0	32784	32868	
752	0	32808	32814	
753	0	32806	32858	
754	0	32784	32700	
755	0	32884	32732	
756	0	32802	32838	
757	0	32812	32802	
758	0	32764	32806	
759	0	32822	32774	
760	0	32860	32807	
761	0	32798	32743	
762	0	32812	32832	
763	0	32808	32820	
764	0	32856	32724	
765	0	32760	32705	
766	0	32804	32720	
767	0	32844	32690	
768	0	32752	32735	
769	0	32854	32786	
770	0	32814	32820	
771	0	32816	32763	
772	0	32832	32775	
773	0	32814	32700	
774	0	32784	32724	
775	0	32774	32815	
776	0	32804	32684	
777	0	32804	32814	
778	0	32788	32799	
779	0	32808	32690	
780	0	32824	32687	
781	0	32812	32775	
782	0	32844	32818	
783	0	32816	32880	
784	0	32798	32775	
785	0	32838	32748	
786	0	32824	32728	
787	0	32852	32748	
788	0	32800	32811	
789	0	32772	32714	
790	0	32750	32682	
791	0	32836	32758	
792	0	32768	32734	
793	0	32822	32814	
794	0	32792	32775	
795	0	32878	32751	
796	0	32832	32703	
797	0	32818	32695	
798	0	32776	32836	
799	0	32793	32815	
800	0	32880	32771	
801	0	32800	32838	
802	0	32786	32712	
803	0	32840	32798	
804	0	32838	32712	
805	0	32784	32870	
806	0	32816	32821	
807	0	32836	32732	
808	0	32824	32784	
809	0	32816	32826	
810	0	32792	32768	
811	0	32724	32686	
812	0	32800	32895	
813	0	32832	32838	
814	0	32856	32788	
815	0	32842	32802	
816	0	32828	32798	
817	0	32788	32734	
818	0	32784	32775	
819	0	32764	32864	
820	0	32768	32798	
821	0	32844	32698	
822	0	32800	32672	
823	0	32824	32689	
824	0	32820	32696	
825	0	32796	32700	
826	0	32800	32727	
827	0	32838	32640	
828	0	32804	32767	
829	0	32816	32660	
830	0	32790	32676	
831	0	32800	32676	
832	0	32862	32740	
833	0	32740	32728	
834	0	32858	32846	
835	0	32828	32818	
836	0	32772	32766	
837	0	32780	32750	
838	0	32852	32856	
839	0	32750	32764	
840	0	32800	32767	
841	0	32784	32841	
842	0	32836	32827	
843	0	32858	32757	
844	0	32852	32818	
845	0	32792	32764	
846	0	32824	32734	
847	0	32808	32775	
848	0	32792	32743	
849	0	32868	32828	
850	0	32788	32828	
851	0	32860	32775	
852	0	32820	32791	
853	0	32756	32675	
854	0	32788	32736	
855	0	32817	32726	
856	0	32792	32668	
857	0	32828	32856	
858	0	32792	32896	
859	0	32805	32912	
860	0	32834	32775	
861	0	32808	32678	
862	0	32788	32808	
863	0	32818	32824	
864	0	32816	32775	
865	0	32816	32711	
866	0	32757	32700	
867	0	32884	32692	
868	0	32816	32694	
869	0	32844	32698	
870	0	32752	32690	
871	0	32796	32692	
872	0	32868	32748	
873	0	32834	32806	
874	0	32796	32817	
875	0	32814	32772	
876	0	32778	32855	
877	0	32812	32792	
878	0	32828	32820	
879	0	32824	32828	
880	0	32754	32716	
881	0	32840	32775	
882	0	32804	32762	
883	0	32800	32828	
884	0	32764	32774	
885	0	32858	32770	
886	0	32852	32758	
887	0	32800	32732	
888	0	32822	32744	
889	0	32708	32742	
890	0	32806	32775	
891	0	32772	32748	
892	0	32802	32748	
893	0	32828	32679	
894	0	32822	32696	
895	0	32816	32758	
896	0	32862	32808	
897	0	32830	32886	
898	0	32816	32836	
899	0	32849	32788	
900	0	32856	32694	
901	0	32804	32775	
902	0	32800	32810	
903	0	32816	32807	
904	0	32804	32738	
905	0	32828	32885	
906	0	32824	32774	
907	0	32846	32775	
908	0	32786	32738	
909	0	32852	32775	
910	0	32796	32820	
911	0	32808	32770	
912	0	32780	32830	
913	0	32872	32682	
914	0	32864	32718	
915	0	32820	32774	
916	0	32758	32678	
917	0	32888	32732	
918	0	32788	32670	
919	0	32760	32774	
920	0	32860	32775	
921	0	32822	32791	
922	0	32838	32798	
923	0	32844	32740	
924	0	32775	32786	
925	0	32832	32791	
926	0	32808	32827	
927	0	32784	32614	
928	0	32864	32800	
929	0	32814	32759	
930	0	32820	32775	
931	0	32764	32646	
932	0	32812	32750	
933	0	32864	32694	
934	0	32776	32846	
935	0	32783	32668	
936	0	32756	32640	
937	0	32808	32855	
938	0	32760	32774	
939	0	32806	32830	
940	0	32792	32799	
941	0	32824	32732	
942	0	32838	32784	
943	0	32832	32796	
944	0	32794	32788	
945	0	32836	32818	
946	0	32826	32792	
947	0	32724	32860	
948	0	32721	32694	
949	0	32850	32702	
950	0	32710	32734	
951	0	32844	32792	
952	0	32804	32796	
953	0	32800	32826	
954	0	32784	32854	
955	0	32804	32711	
956	0	32866	32748	
957	0	32784	32823	
958	0	32764	32895	
959	0	32744	32756	
960	0	32796	32741	
961	0	32880	32612	
962	0	32806	32798	
963	0	32846	32865	
964	0	32868	32865	
965	0	32775	32688	
966	0	32800	32756	
967	0	32832	32758	
968	0	32836	32848	
969	0	32872	32714	
970	0	32756	32722	
971	0	32796	32863	
972	0	32798	32806	
973	0	32794	32862	
974	0	32900	32812	
975	0	32814	32799	
976	0	32772	32800	
977	0	32820	32884	
978	0	32820	32823	
979	0	32784	32852	
980	0	32814	32738	
981	0	32824	32828	
982	0	32810	32817	
983	0	32810	32814	
984	0	32821	32838	
985	0	32824	32794	
986	0	32834	32706	
987	0	32786	32774	
988	0	32788	32672	
989	0	32820	32726	
990	0	32802	32759	
991	0	32842	32814	
992	0	32800	32872	
993	0	32808	32806	
994	0	32798	32844	
995	0	32800	32810	
996	0	32780	32748	
997	0	32836	32844	
998	0	32868	32790	
999	0	32724	32698	
1000	0	32796	32889	
1001	0	32842	32788	
1002	0	32760	32826	
1003	0	32820	32774	
1004	0	32824	32806	
1005	0	32802	32834	
1006	0	32732	32687	
1007	0	32774	32727	
1008	0	32764	32722	
1009	0	32824	32737	
1010	0	32766	32736	
1011	0	32819	32738	
1012	0	32786	32765	
1013	0	32752	32702	
1014	0	32796	32708	
1015	0	32904	32690	
1016	0	32828	32615	
1017	0	32868	32647	
1018	0	32976	32630	
1019	0	32972	32554	
1020	0	32960	32612	
1021	0	32948	32538	
1022	0	33008	32526	
1023	0	32960	32583	
1024	0	32965	32584	
1025	0	32948	32671	
1026	0	32920	32678	
1027	0	32852	32673	
1028	0	32938	32656	
1029	0	32928	32694	
1030	0	32924	32612	
1031	0	32864	32580	
1032	0	32932	32622	
1033	0	32860	32696	
1034	0	32848	32817	
1035	0	32750	32864	
1036	0	32708	32766	
1037	0	32652	32806	
1038	0	32648	32870	
1039	0	32610	32914	
1040	0	32550	32910	
1041	0	32516	33050	
1042	0	32412	33086	
1043	0	32398	33200	
1044	0	32484	33192	
1045	0	32536	33082	
1046	0	32536	33074	
1047	0	32588	32943	
1048	0	32692	32872	
1049	0	32648	32838	
1050	0	32648	32886	
1051	0	32728	32852	
1052	0	32800	32742	
1053	0	32878	32732	
1054	0	32840	32604	
1055	0	32884	32572	
1056	0	32974	32572	
1057	0	32988	32455	
1058	0	32940	32639	
1059	0	32972	32706	
1060	0	32944	32676	
1061	0	32910	32668	
1062	0	32922	32668	
1063	0	32902	32704	
1064	0	32896	32539	
1065	0	32932	32594	
1066	0	32892	32598	
1067	0	32886	32712	
1068	0	32900	32840	
1069	0	32804	32692	
1070	0	32780	32756	
1071	0	32844	32748	
1072	0	32809	32800	
1073	0	32840	32800	
1074	0	32836	32662	
1075	0	32820	32707	
1076	0	32812	32687	
1077	0	32804	32804	
1078	0	32820	32878	
1079	0	32802	32775	
1080	0	32828	32775	
1081	0	32817	32872	
1082	0	32812	32852	
1083	0	32828	32665	
1084	0	32780	32668	
1085	0	32818	32724	
1086	0	32864	32802	
1087	0	32820	32758	
1088	0	32794	32775	
1089	0	32784	32774	
1090	0	32810	32708	
1091	0	32880	32716	
1092	0	32774	32705	
1093	0	32786	32768	
1094	0	32814	32852	
1095	0	32812	32768	
1096	0	32812	32775	
1097	0	32816	32737	
1098	0	32772	32876	
1099	0	32785	32775	
1100	0	32776	32730	
1101	0	32760	32657	
1102	0	32880	32735	
1103	0	32766	32724	
1104	0	32810	32821	
1105	0	32768	32742	
1106	0	32760	32808	
1107	0	32860	32775	
1108	0	32860	32800	
1109	0	32774	32791	
1110	0	32852	32802	
1111	0	32806	32791	
1112	0	32820	32782	
1113	0	32796	32794	
1114	0	32796	32742	
1115	0	32832	32772	
1116	0	32800	32834	
1117	0	32796	32800	
1118	0	32782	32826	
1119	0	32804	32766	
1120	0	32762	32740	
1121	0	32786	32768	
1122	0	32792	32775	
1123	0	32864	32790	
1124	0	32820	32790	
1125	0	32844	32820	
1126	0	32772	32750	
1127	0	32846	32775	
1128	0	32852	32758	
1129	0	32900	32822	
1130	0	32796	32736	
1131	0	32788	32725	
1132	0	32872	32719	
1133	0	32740	32806	
1134	0	32848	32774	
1135	0	32808	32818	
1136	0	32818	32768	
1137	0	32820	32710	
1138	0	32732	32666	
1139	0	32788	32770	
1140	0	32818	32744	
1141	0	32836	32736	
1142	0	32816	32825	
1143	0	32864	32815	
1144	0	32806	32812	
1145	0	32792	32798	
1146	0	32808	32812	
1147	0	32784	32747	
1148	0	32848	32772	
1149	0	32824	32804	
1150	0	32812	32838	
1151	0	32804	32711	
1152	0	32768	32735	
1153	0	32790	32772	
1154	0	32780	32774	
1155	0	32832	32786	
1156	0	32844	32716	
1157	0	32832	32740	
1158	0	32752	32628	
1159	0	32844	32799	
1160	0	32866	32822	
1161	0	32792	32860	
1162	0	32822	32775	
1163	0	32904	32788	
1164	0	32820	32824	
1165	0	32788	32807	
1166	0	32772	32794	
1167	0	32912	32853	
1168	0	32848	32814	
1169	0	32826	32832	
1170	0	32768	32730	
1171	0	32792	32775	
1172	0	32828	32697	
1173	0	32764	32686	
1174	0	32808	32744	
1175	0	32782	32716	
1176	0	32844	32720	
1177	0	32778	32772	
1178	0	32772	32818	
1179	0	32808	32876	
1180	0	32774	32710	
1181	0	32884	32711	
1182	0	32772	32647	
1183	0	32820	32670	
1184	0	32804	32719	
1185	0	32844	32734	
1186	0	32816	32734	
1187	0	32840	32767	
1188	0	32802	32732	
1189	0	32836	32824	
1190	0	32808	32807	
1191	0	32792	32814	
1192	0	32760	32702	
1193	0	32840	32724	
1194	0	32840	32722	
1195	0	32762	32790	
1196	0	32802	32814	
1197	0	32774	32740	
1198	0	32754	32810	
1199	0	32832	32753	
1200	0	32808	32759	
1201	0	32840	32775	
1202	0	32792	32804	
1203	0	32876	32775	
1204	0	32794	32808	
1205	0	32828	32775	
1206	0	32884	32816	
1207	0	32812	32784	
1208	0	32840	32790	
1209	0	32844	32788	
1210	0	32772	32838	
1211	0	32840	32772	
1212	0	32830	32730	
1213	0	32800	32746	
1214	0	32840	32768	
1215	0	32800	32798	
1216	0	32784	32802	
1217	0	32856	32844	
1218	0	32824	32712	
1219	0	32772	32706	
1220	0	32858	32689	
1221	0	32862	32660	
1222	0	32858	32764	
1223	0	32792	32746	
1224	0	32784	32734	
1225	0	32768	32791	
1226	0	32801	32822	
1227	0	32852	32848	
1228	0	32798	32772	
1229	0	32828	32692	
1230	0	32858	32757	
1231	0	32778	32892	
1232	0	32882	32736	
1233	0	32772	32671	
1234	0	32768	32684	
1235	0	32838	32728	
1236	0	32852	32663	
1237	0	32776	32746	
1238	0	32818	32732	
1239	0	32780	32804	
1240	0	32732	32766	
1241	0	32878	32775	
1242	0	32804	32840	
1243	0	32776	32775	
1244	0	32844	32718	
1245	0	32844	32642	
1246	0	32796	32743	
1247	0	32836	32816	
1248	0	32844	32714	
1249	0	32820	32735	
1250	0	32764	32793	
1251	0	32808	32676	
1252	0	32814	32704	
1253	0	32784	32681	
1254	0	32816	32703	
1255	0	32752	32758	
1256	0	32800	32916	
1257	0	32788	32791	
1258	0	32824	32758	
1259	0	32782	32801	
1260	0	32796	32832	
1261	0	32820	32792	
1262	0	32788	32674	
1263	0	32820	32775	
1264	0	32812	32722	
1265	0	32778	32830	
1266	0	32788	32816	
1267	0	32860	32748	
1268	0	32808	32754	
1269	0	32818	32736	
1270	0	32830	32775	
1271	0	32838	32775	
1272	0	32802	32732	
1273	0	32772	32668	
1274	0	32828	32714	
1275	0	32824	32775	
1276	0	32840	32791	
1277	0	32766	32836	
1278	0	32792	32775	
1279	0	32868	32834	
1280	0	32826	32757	
1281	0	32698	32775	
1282	0	32848	32868	
1283	0	32870	32838	
1284	0	32764	32843	
1285	0	32828	32744	
1286	0	32796	32696	
1287	0	32848	32719	
1288	0	32820	32708	
1289	0	32770	32676	
1290	0	32716	32720	
1291	0	32824	32710	
1292	0	32748	32732	
1293	0	32756	32742	
1294	0	32816	32760	
1295	0	32766	32708	
1296	0	32836	32696	
1297	0	32754	32712	
1298	0	32902	32760	
1299	0	32780	32672	
1300	0	32792	32682	
1301	0	32828	32703	
1302	0	32784	32727	
1303	0	32810	32715	
1304	0	32810	32696	
1305	0	32800	32720	
1306	0	32836	32751	
1307	0	32750	32768	
1308	0	32824	32810	
1309	0	32860	32786	
1310	0	32826	32742	
1311	0	32788	32856	
1312	0	32842	32820	
1313	0	32818	32768	
1314	0	32828	32766	
1315	0	32836	32820	
1316	0	32770	32804	
1317	0	32776	32758	
1318	0	32764	32828	
1319	0	32834	32882	
1320	0	32844	32792	
1321	0	32832	32704	
1322	0	32868	32714	
1323	0	32825	32745	
1324	0	32820	32680	
1325	0	32836	32680	
1326	0	32856	32702	
1327	0	32840	32666	
1328	0	32772	32830	
1329	0	32781	32838	
1330	0	32718	32780	
1331	0	32816	32804	
1332	0	32804	32758	
1333	0	32806	32708	
1334	0	32824	32734	
1335	0	32828	32742	
1336	0	32872	32746	
1337	0	32752	32806	
1338	0	32768	32772	
1339	0	32736	32740	
1340	0	32792	32724	
1341	0	32824	32808	
1342	0	32868	32762	
1343	0	32828	32838	
1344	0	32856	32748	
1345	0	32808	32764	
1346	0	32772	32724	
1347	0	32830	32852	
1348	0	32784	32810	
1349	0	32808	32790	
1350	0	32844	32764	
1351	0	32876	32866	
1352	0	32788	32734	
1353	0	32718	32706	
1354	0	32832	32686	
1355	0	32788	32721	
1356	0	32868	32807	
1357	0	32828	32846	
1358	0	32828	32794	
1359	0	32798	32775	
1360	0	32816	32835	
1361	0	32800	32716	
1362	0	32826	32676	
1363	0	32820	32638	
1364	0	32742	32676	
1365	0	32820	32736	
1366	0	32904	32818	
1367	0	32836	32812	
1368	0	32820	32810	
1369	0	32824	32852	
1370	0	32764	32806	
1371	0	32846	32726	
1372	0	32808	32742	
1373	0	32820	32721	
1374	0	32820	32720	
1375	0	32764	32775	
1376	0	32836	32734	
1377	0	32848	32750	
1378	0	32772	32817	
1379	0	32812	32878	
1380	0	32808	32804	
1381	0	32824	32775	
1382	0	32768	32721	
1383	0	32844	32847	
1384	0	32850	32800	
1385	0	32836	32854	
1386	0	32868	32830	
1387	0	32790	32790	
1388	0	32854	32794	
1389	0	32786	32855	
1390	0	32814	32824	
1391	0	32788	32734	
1392	0	32764	32746	
1393	0	32804	32767	
1394	0	32778	32694	
1395	0	32856	32834	
1396	0	32844	32775	
1397	0	32814	32900	
1398	0	32788	32754	
1399	0	32840	32748	
1400	0	32782	32762	
1401	0	32864	32770	
1402	0	32804	32756	
1403	0	32868	32788	
1404	0	32830	32716	
1405	0	32864	32858	
1406	0	32812	32775	
1407	0	32828	32738	
1408	0	32846	32705	
1409	0	32828	32724	
1410	0	32804	32794	
1411	0	32836	32798	
1412	0	32760	32711	
1413	0	32816	32820	
1414	0	32820	32852	
1415	0	32780	32804	
1416	0	32828	32794	
1417	0	32776	32788	
1418	0	32772	32828	
1419	0	32708	32740	
1420	0	32788	32714	
1421	0	32840	32692	
1422	0	32753	32743	
1423	0	32788	32726	
1424	0	32798	32752	
1425	0	32864	32710	
1426	0	32798	32790	
1427	0	32780	32834	
1428	0	32834	32821	
1429	0	32824	32744	
1430	0	32852	32833	
1431	0	32820	32756	
1432	0	32748	32820	
1433	0	32764	32708	
1434	0	32816	32788	
1435	0	32741	32874	
1436	0	32764	32767	
1437	0	32874	32828	
1438	0	32844	32842	
1439	0	32792	32766	
1440	0	32800	32830	
1441	0	32802	32852	
1442	0	32796	32886	
1443	0	32798	32806	
1444	0	32822	32756	
1445	0	32768	32772	
1446	0	32804	32834	
1447	0	32784	32764	
1448	0	32856	32764	
1449	0	32784	32759	
1450	0	32836	32826	
1451	0	32858	32860	
1452	0	32792	32772	
1453	0	32828	32815	
1454	0	32784	32746	
1455	0	32794	32670	
1456	0	32816	32647	
1457	0	32844	32772	
1458	0	32816	32676	
1459	0	32821	32823	
1460	0	32850	32720	
1461	0	32852	32644	
1462	0	32832	32725	
1463	0	32834	32724	
1464	0	32780	32711	
1465	0	32740	32694	
1466	0	32808	32758	
1467	0	32832	32702	
1468	0	32848	32657	
1469	0	32816	32708	
1470	0	32836	32638	
1471	0	32740	32742	
1472	0	32820	32748	
1473	0	32769	32620	
1474	0	32772	32736	
1475	0	32780	32690	
1476	0	32792	32720	
1477	0	32792	32823	
1478	0	32782	32738	
1479	0	32746	32719	
1480	0	32796	32718	
1481	0	32781	32710	
1482	0	32856	32816	
1483	0	32802	32900	
1484	0	32796	32734	
1485	0	32824	32748	
1486	0	32830	32687	
1487	0	32852	32670	
1488	0	32858	32703	
1489	0	32806	32680	
1490	0	32756	32740	
1491	0	32820	32692	
1492	0	32812	32863	
1493	0	32810	32764	
1494	0	32830	32848	
1495	0	32832	32800	
1496	0	32804	32807	
1497	0	32816	32775	
1498	0	32846	32894	
1499	0	32746	32756	
1500	0	32868	32748	
1501	0	32814	32720	
1502	0	32808	32662	
1503	0	32860	32748	
1504	0	32804	32654	
1505	0	32856	32744	
1506	0	32788	32706	
1507	0	32856	32700	
1508	0	32820	32653	
1509	0	32844	32756	
1510	0	32832	32652	
1511	0	32798	32620	
1512	0	32840	32788	
1513	0	32784	32800	
1514	0	32864	32775	
1515	0	32772	32825	
1516	0	32784	32710	
1517	0	32848	32826	
1518	0	32836	32784	
1519	0	32760	32846	
1520	0	32828	32842	
1521	0	32828	32831	
1522	0	32836	32712	
1523	0	32790	32812	
1524	0	32864	32788	
1525	0	32780	32724	
1526	0	32824	32736	
1527	0	32762	32764	
1528	0	32724	32798	
1529	0	32812	32900	
1530	0	32880	32842	
1531	0	32768	32775	
1532	0	32792	32790	
1533	0	32774	32790	
1534	0	32804	32852	
1535	0	32836	32804	
1536	0	32812	32828	
1537	0	32840	32838	
1538	0	32798	32752	
1539	0	32766	32827	
1540	0	32818	32854	
1541	0	32844	32790	
1542	0	32896	32785	
1543	0	32880	32774	
1544	0	32832	32834	
1545	0	32784	32828	
1546	0	32814	32796	
1547	0	32780	32730	
1548	0	32814	32719	
1549	0	32808	32677	
1550	0	32820	32666	
1551	0	32758	32640	
1552	0	32768	32696	
1553	0	32752	32674	
1554	0	32772	32768	
1555	0	32792	32720	
1556	0	32772	32728	
1557	0	32748	32796	
1558	0	32782	32799	
1559	0	32782	32768	
1560	0	32804	32748	
1561	0	32764	32742	
1562	0	32816	32784	
1563	0	32778	32768	
1564	0	32834	32750	
1565	0	32852	32767	
1566	0	32868	32794	
1567	0	32832	32719	
1568	0	32848	32652	
1569	0	32832	32759	
1570	0	32862	32823	
1571	0	32834	32775	
1572	0	32770	32816	
1573	0	32836	32792	
1574	0	32880	32774	
1575	0	32862	32800	
1576	0	32812	32826	
1577	0	32784	32660	
1578	0	32726	32760	
1579	0	32810	32804	
1580	0	32852	32740	
1581	0	32783	32746	
1582	0	32820	32755	
1583	0	32760	32820	
1584	0	32852	32782	
1585	0	32820	32842	
1586	0	32900	32719	
1587	0	32804	32696	
1588	0	32844	32736	
1589	0	32838	32775	
1590	0	32778	32722	
1591	0	32784	32741	
1592	0	32806	32775	
1593	0	32830	32746	
1594	0	32820	32866	
1595	0	32788	32775	
1596	0	32786	32889	
1597	0	32780	32647	
1598	0	32858	32700	
1599	0	32780	32732	
1600	0	32804	32851	
1601	0	32844	32839	
1602	0	32748	32810	
1603	0	32807	32788	
1604	0	32778	32839	
1605	0	32820	32822	
1606	0	32748	32822	
1607	0	32796	32775	
1608	0	32806	32774	
1609	0	32775	32731	
1610	0	32840	32694	
1611	0	32824	32775	
1612	0	32836	32703	
1613	0	32766	32838	
1614	0	32776	32812	
1615	0	32804	32800	
1616	0	32788	32812	
1617	0	32800	32775	
1618	0	32792	32743	
1619	0	32814	32754	
1620	0	32828	32772	
1621	0	32834	32770	
1622	0	32800	32743	
1623	0	32872	32822	
1624	0	32782	32671	
1625	0	32864	32790	
1626	0	32782	32695	
1627	0	32856	32756	
1628	0	32836	32716	
1629	0	32824	32710	
1630	0	32800	32790	
1631	0	32788	32832	
1632	0	32816	32772	
1633	0	32764	32808	
1634	0	32768	32770	
1635	0	32841	32888	
1636	0	32796	32858	
1637	0	32848	32820	
1638	0	32788	32818	
1639	0	32784	32775	
1640	0	32820	32855	
1641	0	32832	32738	
1642	0	32804	32763	
1643	0	32860	32702	
1644	0	32800	32820	
1645	0	32878	32820	
1646	0	32808	32812	
1647	0	32844	32799	
1648	0	32764	32711	
1649	0	32768	32788	
1650	0	32730	32838	
1651	0	32788	32800	
1652	0	32852	32841	
1653	0	32810	32806	
1654	0	32764	32852	
1655	0	32772	32903	
1656	0	32860	32822	
1657	0	32832	32738	
1658	0	32738	32670	
1659	0	32852	32727	
1660	0	32762	32810	
1661	0	32844	32742	
1662	0	32849	32740	
1663	0	32852	32828	
1664	0	32784	32775	
1665	0	32764	32721	
1666	0	32816	32786	
1667	0	32780	32832	
1668	0	32796	32804	
1669	0	32830	32791	
1670	0	32816	32775	
1671	0	32856	32748	
1672	0	32900	32823	
1673	0	32820	32679	
1674	0	32766	32730	
1675	0	32820	32714	
1676	0	32844	32762	
1677	0	32801	32762	
1678	0	32828	32710	
1679	0	32832	32762	
1680	0	32824	32902	
1681	0	32810	32698	
1682	0	32832	32694	
1683	0	32808	32678	
1684	0	32752	32796	
1685	0	32880	32808	
1686	0	32856	32823	
1687	0	32820	32775	
1688	0	32814	32764	
1689	0	32805	32854	
1690	0	32820	32814	
1691	0	32762	32775	
1692	0	32796	32726	
1693	0	32847	32710	
1694	0	32748	32706	
1695	0	32752	32725	
1696	0	32840	32718	
1697	0	32796	32838	
1698	0	32756	32775	
1699	0	32744	32838	
1700	0	32800	32804	
1701	0	32778	32775	
1702	0	32840	32775	
1703	0	32848	32812	
1704	0	32808	32818	
1705	0	32852	32735	
1706	0	32836	32751	
1707	0	32870	32650	
1708	0	32860	32644	
1709	0	32878	32756	
1710	0	32802	32734	
1711	0	32836	32711	
1712	0	32808	32664	
1713	0	32782	32746	
1714	0	32812	32639	
1715	0	32852	32688	
1716	0	32753	32760	
1717	0	32812	32772	
1718	0	32832	32764	
1719	0	32812	32828	
1720	0	32792	32782	
1721	0	32770	32804	
1722	0	32828	32838	
1723	0	32816	32844	
1724	0	32808	32792	
1725	0	32858	32796	
1726	0	32780	32818	
1727	0	32760	32690	
1728	0	32840	32724	
1729	0	32836	32727	
1730	0	32796	32729	
1731	0	32836	32728	
1732	0	32836	32740	
1733	0	32788	32670	
1734	0	32780	32636	
1735	0	32756	32692	
1736	0	32712	32711	
1737	0	32808	32743	
1738	0	32820	32735	
1739	0	32800	32681	
1740	0	32868	32784	
1741	0	32844	32710	
1742	0	32828	32700	
1743	0	32816	32732	
1744	0	32800	32728	
1745	0	32836	32726	
1746	0	32808	32711	
1747	0	32830	32767	
1748	0	32820	32630	
1749	0	32708	32718	
1750	0	32836	32816	
1751	0	32820	32798	
1752	0	32816	32811	
1753	0	32808	32772	
1754	0	32804	32768	
1755	0	32804	32832	
1756	0	32800	32751	
1757	0	32840	32788	
1758	0	32798	32752	
1759	0	32753	32772	
1760	0	32756	32788	
1761	0	32774	32800	
1762	0	32872	32718	
1763	0	32848	32678	
1764	0	32800	32754	
1765	0	32768	32671	
1766	0	32852	32698	
1767	0	32804	32692	
1768	0	32828	32676	
1769	0	32846	32708	
1770	0	32800	32703	
1771	0	32760	32708	
1772	0	32781	32742	
1773	0	32756	32687	
1774	0	32712	32794	
1775	0	32848	32802	
1776	0	32862	32800	
1777	0	32744	32884	
1778	0	32872	32812	
1779	0	32858	32806	
1780	0	32876	32775	
1781	0	32956	32783	
1782	0	32906	32620	
1783	0	32924	32663	
1784	0	32944	32647	
1785	0	32904	32614	
1786	0	32892	32583	
1787	0	32932	32638	
1788	0	32984	32666	
1789	0	32892	32660	
1790	0	32912	32690	
1791	0	32812	32708	
1792	0	32900	32802	
1793	0	32868	32719	
1794	0	32908	32712	
1795	0	32938	32714	
1796	0	32932	32742	
1797	0	32920	32692	
1798	0	32878	32801	
1799	0	32792	32774	
1800	0	32744	32838	
1801	0	32692	32862	
1802	0	32648	32775	
1803	0	32672	32920	
1804	0	32593	32946	
1805	0	32588	33094	
1806	0	32548	33137	
1807	0	32440	33121	
1808	0	32436	33183	
1809	0	32394	33058	
1810	0	32514	33020	
1811	0	32576	32950	
1812	0	32648	33006	
1813	0	32702	32879	
1814	0	32720	32906	
1815	0	32664	32836	
1816	0	32812	32744	
1817	0	32808	32786	
1818	0	32844	32799	
1819	0	32960	32683	
1820	0	32984	32704	
1821	0	32890	32592	
1822	0	32968	32567	
1823	0	32928	32478	
1824	0	33012	32591	
1825	0	32964	32588	
1826	0	32936	32592	
1827	0	32892	32656	
1828	0	32884	32670	
1829	0	32884	32714	
1830	0	32876	32670	
1831	0	32868	32810	
1832	0	32884	32642	
1833	0	32832	32628	
1834	0	32804	32718	
1835	0	32838	32696	
1836	0	32858	32750	
1837	0	32842	32820	
1838	0	32812	32846	
1839	0	32784	32775	
1840	0	32776	32836	
1841	0	32836	32835	
1842	0	32792	32746	
1843	0	32840	32766	
1844	0	32782	32820	
1845	0	32824	32756	
1846	0	32776	32812	
1847	0	32802	32814	
1848	0	32768	32734	
1849	0	32796	32689	
1850	0	32836	32807	
1851	0	32822	32864	
1852	0	32806	32728	
1853	0	32792	32762	
1854	0	32808	32822	
1855	0	32844	32752	
1856	0	32862	32784	
1857	0	32858	32732	
1858	0	32784	32796	
1859	0	32756	32754	
1860	0	32808	32798	
1861	0	32836	32830	
1862	0	32816	32900	
1863	0	32836	32679	
1864	0	32788	32668	
1865	0	32858	32736	
1866	0	32857	32744	
1867	0	32834	32878	
1868	0	32836	32718	
1869	0	32846	32679	
1870	0	32857	32832	
1871	0	32796	32775	
1872	0	32792	32844	
1873	0	32812	32852	
1874	0	32822	32788	
1875	0	32844	32742	
1876	0	32784	32692	
1877	0	32788	32698	
1878	0	32798	32681	
1879	0	32860	32746	
1880	0	32842	32732	
1881	0	32788	32644	
1882	0	32784	32752	
1883	0	32728	32734	
1884	0	32812	32863	
1885	0	32828	32800	
1886	0	32788	32932	
1887	0	32788	32746	
1888	0	32788	32758	
1889	0	32770	32823	
1890	0	32860	32664	
1891	0	32854	32862	
1892	0	32820	32840	
1893	0	32808	32716	
1894	0	32840	32736	
1895	0	32822	32726	
1896	0	32775	32663	
1897	0	32776	32824	
1898	0	32816	32834	
1899	0	32816	32840	
1900	0	32804	32896	
1901	0	32792	32828	
1902	0	32906	32856	
1903	0	32832	32832	
1904	0	32856	32858	
1905	0	32802	32746	
1906	0	32800	32806	
1907	0	32784	32694	
1908	0	32780	32775	
1909	0	32800	32722	
1910	0	32834	32775	
1911	0	32818	32807	
1912	0	32798	32790	
1913	0	32840	32809	
1914	0	32762	32784	
1915	0	32816	32620	
1916	0	32812	32759	
1917	0	32808	32728	
1918	0	32764	32716	
1919	0	32808	32750	
1920	0	32904	32630	
1921	0	32874	32736	
1922	0	32881	32682	
1923	0	32822	32814	
1924	0	32788	32762	
1925	0	32774	32775	
1926	0	32828	32775	
1927	0	32798	32758	
1928	0	32860	32780	
1929	0	32786	32798	
1930	0	32818	32752	
1931	0	32780	32822	
1932	0	32840	32775	
1933	0	32816	32796	
1934	0	32816	32828	
1935	0	32780	32700	
1936	0	32850	32764	
1937	0	32848	32751	
1938	0	32764	32756	
1939	0	32828	32720	
1940	0	32832	32812	
1941	0	32778	32788	
1942	0	32844	32775	
1943	0	32816	32721	
1944	0	32796	32799	
1945	0	32814	32772	
1946	0	32772	32732	
1947	0	32876	32759	
1948	0	32836	32729	
1949	0	32886	32748	
1950	0	32800	32874	
1951	0	32852	32804	
1952	0	32780	32711	
1953	0	32784	32655	
1954	0	32864	32647	
1955	0	32784	32730	
1956	0	32798	32754	
1957	0	32784	32828	
1958	0	32712	32903	
1959	0	32736	32774	
1960	0	32792	32818	
1961	0	32792	32775	
1962	0	32772	32794	
1963	0	32728	32743	
1964	0	32800	32817	
1965	0	32900	32657	
1966	0	32872	32704	
1967	0	32800	32748	
1968	0	32792	32774	
1969	0	32760	32895	
1970	0	32816	32812	
1971	0	32820	32796	
1972	0	32820	32782	
1973	0	32734	32748	
1974	0	32804	32756	
1975	0	32784	32775	
1976	0	32868	32852	
1977	0	32876	32818	
1978	0	32892	32831	
1979	0	32828	32805	
1980	0	32804	32794	
1981	0	32816	32726	
1982	0	32760	32674	
1983	0	32734	32711	
1984	0	32821	32664	
1985	0	32824	32758	
1986	0	32814	32684	
1987	0	32876	32842	
1988	0	32842	32814	
1989	0	32836	32804	
1990	0	32834	32774	
1991	0	32828	32855	
1992	0	32844	32836	
1993	0	32816	32752	
1994	0	32894	32695	
1995	0	32842	32814	
1996	0	32784	32860	
1997	0	32834	32794	
1998	0	32826	32775	
1999	0	32798	32756	
2000	0	32784	32697	
2001	0	32786	32790	
2002	0	32748	32916	
2003	0	32768	32822	
2004	0	32804	32743	
2005	0	32740	32794	
2006	0	32904	32711	
2007	0	32888	32768	
2008	0	32732	32706	
2009	0	32824	32740	
2010	0	32784	32647	
2011	0	32840	32820	
2012	0	32862	32804	
2013	0	32796	32772	
2014	0	32852	32775	
2015	0	32808	32734	
2016	0	32798	32711	
2017	0	32836	32705	
2018	0	32880	32775	
2019	0	32800	32860	
2020	0	32788	32868	
2021	0	32792	32775	
2022	0	32828	32759	
2023	0	32856	32834	
2024	0	32800	32870	
2025	0	32802	32689	
2026	0	32790	32754	
2027	0	32822	32742	
2028	0	32856	32742	
2029	0	32844	32728	
2030	0	32754	32830	
2031	0	32764	32696	
2032	0	32852	32740	
2033	0	32752	32826	
2034	0	32774	32758	
2035	0	32780	32712	
2036	0	32754	32745	
2037	0	32808	32814	
2038	0	32824	32762	
2039	0	32825	32807	
2040	0	32792	32808	
2041	0	32778	32838	
2042	0	32788	32758	
2043	0	32808	32906	
2044	0	32806	32788	
2045	0	32826	32790	
2046	0	32834	32679	
2047	0	32892	32716	
2048	0	32868	32672	
2049	0	32890	32880	
2050	0	32728	32834	
2051	0	32840	32798	
2052	0	32822	32744	
2053	0	32824	32814	
2054	0	32780	32804	
2055	0	32808	32766	
2056	0	32896	32694	
2057	0	32800	32754	
2058	0	32740	32720	
2059	0	32842	32775	
2060	0	32812	32924	
2061	0	32788	32816	
2062	0	32840	32766	
2063	0	32810	32846	
2064	0	32896	32775	
2065	0	32804	32762	
2066	0	32876	32740	
2067	0	32744	32775	
2068	0	32768	32788	
2069	0	32840	32812	
2070	0	32782	32814	
2071	0	32764	32736	
2072	0	32784	32640	
2073	0	32780	32684	
2074	0	32792	32862	
2075	0	32812	32834	
2076	0	32848	32812	
2077	0	32804	32724	
2078	0	32764	32748	
2079	0	32768	32816	
2080	0	32830	32724	
2081	0	32860	32664	
2082	0	32822	32714	
2083	0	32872	32702	
2084	0	32796	32854	
2085	0	32828	32750	
2086	0	32798	32753	
2087	0	32880	32790	
2088	0	32810	32760	
2089	0	32820	32800	
2090	0	32854	32718	
2091	0	32846	32839	
2092	0	32738	32734	
2093	0	32816	32767	
2094	0	32808	32775	
2095	0	32794	32711	
2096	0	32796	32656	
2097	0	32792	32639	
2098	0	32794	32702	
2099	0	32776	32710	
2100	0	32812	32682	
2101	0	32796	32708	
2102	0	32842	32751	
2103	0	32822	32775	
2104	0	32832	32775	
2105	0	32814	32775	
2106	0	32774	32803	
2107	0	32820	32852	
2108	0	32842	32774	
2109	0	32849	32655	
2110	0	32897	32640	
2111	0	32754	32734	
2112	0	32868	32798	
2113	0	32816	32798	
2114	0	32898	32790	
2115	0	32792	32852	
2116	0	32838	32775	
2117	0	32792	32740	
2118	0	32820	32727	
2119	0	32824	32806	
2120	0	32868	32774	
2121	0	32808	32756	
2122	0	32756	32775	
2123	0	32842	32814	
2124	0	32828	32824	
2125	0	32834	32826	
2126	0	32852	32872	
2127	0	32876	32798	
2128	0	32860	32807	
2129	0	32820	32721	
2130	0	32740	32668	
2131	0	32842	32743	
2132	0	32820	32698	
2133	0	32798	32698	
2134	0	32804	32712	
2135	0	32788	32702	
2136	0	32832	32808	
2137	0	32724	32836	
2138	0	32766	32824	
2139	0	32788	32767	
2140	0	32820	32654	
2141	0	32798	32804	
2142	0	32836	32790	
2143	0	32832	32724	
2144	0	32824	32862	
2145	0	32840	32738	
2146	0	32800	32702	
2147	0	32868	32718	
2148	0	32832	32903	
2149	0	32832	32759	
2150	0	32814	32721	
2151	0	32812	32796	
2152	0	32802	32824	
2153	0	32764	32683	
2154	0	32852	32774	
2155	0	32856	32719	
2156	0	32766	32708	
2157	0	32782	32775	
2158	0	32832	32798	
2159	0	32812	32752	
2160	0	32826	32730	
2161	0	32814	32768	
2162	0	32832	32760	
2163	0	32828	32750	
2164	0	32800	32732	
2165	0	32808	32820	
2166	0	32880	32879	
2167	0	32834	32775	
2168	0	32796	32716	
2169	0	32756	32798	
2170	0	32896	32716	
2171	0	32832	32712	
2172	0	32820	32702	
2173	0	32806	32772	
2174	0	32784	32650	
2175	0	32862	32706	
2176	0	32794	32772	
2177	0	32804	32756	
2178	0	32832	32794	
2179	0	32776	32835	
2180	0	32768	32818	
2181	0	32834	32756	
2182	0	32864	32831	
2183	0	32796	32811	
2184	0	32828	32744	
2185	0	32814	32721	
2186	0	32817	32724	
2187	0	32884	32676	
2188	0	32840	32730	
2189	0	32842	32784	
2190	0	32740	32836	
2191	0	32788	32752	
2192	0	32772	32828	
2193	0	32764	32751	
2194	0	32730	32760	
2195	0	32808	32775	
2196	0	32760	32824	
2197	0	32794	32743	
2198	0	32808	32732	
2199	0	32834	32692	
2200	0	32804	32684	
2201	0	32792	32703	
2202	0	32824	32760	
2203	0	32864	32816	
2204	0	32872	32787	
2205	0	32736	32766	
2206	0	32800	32792	
2207	0	32836	32720	
2208	0	32762	32742	
2209	0	32780	32768	
2210	0	32784	32804	
2211	0	32788	32858	
2212	0	32840	32772	
2213	0	32796	32684	
2214	0	32828	32700	
2215	0	32844	32736	
2216	0	32856	32739	
2217	0	32776	32772	
2218	0	32772	32664	
2219	0	32750	32688	
2220	0	32854	32666	
2221	0	32702	32769	
2222	0	32844	32822	
2223	0	32806	32815	
2224	0	32816	32866	
2225	0	32810	32718	
2226	0	32828	32789	
2227	0	32788	32816	
2228	0	32822	32732	
2229	0	32876	32692	
2230	0	32820	32678	
2231	0	32758	32700	
2232	0	32768	32767	
2233	0	32928	32831	
2234	0	32792	32864	
2235	0	32864	32898	
2236	0	32790	32792	
2237	0	32804	32736	
2238	0	32724	32734	
2239	0	32800	32764	
2240	0	32760	32725	
2241	0	32754	32686	
2242	0	32814	32687	
2243	0	32804	32708	
2244	0	32810	32838	
2245	0	32840	32804	
2246	0	32808	32695	
2247	0	32834	32775	
2248	0	32852	32802	
2249	0	32800	32732	
2250	0	32832	32762	
2251	0	32852	32712	
2252	0	32830	32722	
2253	0	32878	32735	
2254	0	32770	32738	
2255	0	32820	32758	
2256	0	32764	32676	
2257	0	32786	32700	
2258	0	32822	32678	
2259	0	32728	32768	
2260	0	32750	32775	
2261	0	32824	32836	
2262	0	32904	32740	
2263	0	32888	32806	
2264	0	32824	32775	
2265	0	32805	32660	
2266	0	32846	32704	
2267	0	32800	32738	
2268	0	32896	32775	
2269	0	32768	32709	
2270	0	32752	32736	
2271	0	32808	32795	
2272	0	32808	32742	
2273	0	32802	32732	
2274	0	32792	32734	
2275	0	32800	32670	
2276	0	32740	32704	
2277	0	32846	32662	
2278	0	32837	32811	
2279	0	32828	32758	
2280	0	32852	32790	
2281	0	32756	32816	
2282	0	32837	32864	
2283	0	32784	32792	
2284	0	32876	32768	
2285	0	32917	32752	
2286	0	32822	32870	
2287	0	32880	32687	
2288	0	32868	32752	
2289	0	32826	32770	
2290	0	32762	32751	
2291	0	32808	32711	
2292	0	32724	32732	
2293	0	32808	32775	
2294	0	32844	32868	
2295	0	32822	32788	
2296	0	32800	32758	
2297	0	32796	32786	
2298	0	32796	32770	
2299	0	32782	32730	
2300	0	32752	32692	
2301	0	32814	32686	
2302	0	32840	32711	
2303	0	32774	32704	
2304	0	32850	32708	
2305	0	32772	32680	
2306	0	32834	32818	
2307	0	32822	32820	
2308	0	32828	32769	
2309	0	32830	32750	
2310	0	32804	32775	
2311	0	32826	32774	
2312	0	32828	32862	
2313	0	32864	32785	
2314	0	32820	32796	
2315	0	32756	32680	
2316	0	32798	32626	
2317	0	32832	32700	
2318	0	32792	32764	
2319	0	32806	32826	
2320	0	32828	32782	
2321	0	32776	32788	
2322	0	32776	32807	
2323	0	32758	32744	
2324	0	32775	32814	
2325	0	32860	32798	
2326	0	32814	32786	
2327	0	32860	32742	
2328	0	32768	32687	
2329	0	32824	32716	
2330	0	32864	32688	
2331	0	32798	32816	
2332	0	32872	32811	
2333	0	32774	32817	
2334	0	32890	32746	
2335	0	32846	32766	
2336	0	32800	32845	
2337	0	32752	32666	
2338	0	32740	32818	
2339	0	32760	32850	
2340	0	32810	32768	
2341	0	32776	32756	
2342	0	32778	32792	
2343	0	32814	32806	
2344	0	32800	32770	
2345	0	32792	32698	
2346	0	32724	32759	
2347	0	32872	32678	
2348	0	32726	32702	
2349	0	32804	32772	
2350	0	32808	32740	
2351	0	32830	32764	
2352	0	32812	32823	
2353	0	32836	32714	
2354	0	32828	32766	
2355	0	32836	32794	
2356	0	32828	32722	
2357	0	32886	32812	
2358	0	32836	32784	
2359	0	32820	32802	
2360	0	32774	32774	
2361	0	32794	32758	
2362	0	32831	32724	
2363	0	32812	32647	
2364	0	32804	32708	
2365	0	32728	32710	
2366	0	32888	32802	
2367	0	32772	32798	
2368	0	32806	32862	
2369	0	32876	32842	
2370	0	32844	32774	
2371	0	32816	32764	
2372	0	32860	32855	
2373	0	32798	32725	
2374	0	32852	32766	
2375	0	32828	32806	
2376	0	32824	32872	
2377	0	32772	32772	
2378	0	32828	32742	
2379	0	32854	32876	
2380	0	32820	32820	
2381	0	32828	32702	
2382	0	32838	32756	
2383	0	32836	32671	
2384	0	32868	32657	
2385	0	32876	32702	
2386	0	32740	32706	
2387	0	32864	32743	
2388	0	32770	32726	
2389	0	32800	32774	
2390	0	32772	32655	
2391	0	32772	32679	
2392	0	32782	32668	
2393	0	32810	32719	
2394	0	32806	32688	
2395	0	32832	32712	
2396	0	32824	32692	
2397	0	32756	32711	
2398	0	32816	32823	
2399	0	32764	32842	
2400	0	32749	32806	
2401	0	32818	32772	
2402	0	32772	32768	
2403	0	32820	32714	
2404	0	32834	32724	
2405	0	32806	32734	
2406	0	32824	32808	
2407	0	32804	32775	
2408	0	32868	32832	
2409	0	32776	32841	
2410	0	32790	32857	
2411	0	32768	32820	
2412	0	32808	32864	
2413	0	32788	32775	
2414	0	32858	32702	
2415	0	32880	32726	
2416	0	32842	32654	
2417	0	32814	32654	
2418	0	32756	32686	
2419	0	32828	32830	
2420	0	32750	32823	
2421	0	32848	32775	
2422	0	32824	32679	
2423	0	32846	32836	
2424	0	32794	32846	
2425	0	32832	32800	
2426	0	32844	32806	
2427	0	32792	32830	
2428	0	32766	32775	
2429	0	32818	32788	
2430	0	32848	32775	
2431	0	32862	32752	
2432	0	32824	32690	
2433	0	32724	32708	
2434	0	32796	32724	
2435	0	32692	32712	
2436	0	32832	32647	
2437	0	32836	32687	
2438	0	32892	32628	
2439	0	32732	32775	
2440	0	32808	32794	
2441	0	32800	32912	
2442	0	32826	32774	
2443	0	32818	32792	
2444	0	32802	32732	
2445	0	32848	32748	
2446	0	32920	32850	
2447	0	32836	32758	
2448	0	32768	32684	
2449	0	32848	32744	
2450	0	32808	32733	
2451	0	32790	32794	
2452	0	32800	32775	
2453	0	32820	32798	
2454	0	32788	32816	
2455	0	32696	32714	
2456	0	32808	32744	
2457	0	32798	32828	
2458	0	32753	32788	
2459	0	32834	32734	
2460	0	32812	32762	
2461	0	32816	32862	
2462	0	32824	32816	
2463	0	32820	32740	
2464	0	32800	32722	
2465	0	32862	32756	
2466	0	32836	32826	
2467	0	32766	32758	
2468	0	32804	32766	
2469	0	32860	32775	
2470	0	32768	32868	
2471	0	32788	32744	
2472	0	32792	32642	
2473	0	32832	32630	
2474	0	32808	32775	
2475	0	32832	32755	
2476	0	32792	32862	
2477	0	32804	32756	
2478	0	32816	32800	
2479	0	32778	32801	
2480	0	32754	32842	
2481	0	32830	32775	
2482	0	32866	32788	
2483	0	32804	32680	
2484	0	32880	32804	
2485	0	32804	32712	
2486	0	32842	32836	
2487	0	32814	32878	
2488	0	32892	32775	
2489	0	32818	32773	
2490	0	32774	32730	
2491	0	32868	32836	
2492	0	32772	32750	
2493	0	32772	32702	
2494	0	32768	32707	
2495	0	32788	32700	
2496	0	32826	32832	
2497	0	32792	32738	
2498	0	32794	32800	
2499	0	32748	32742	
2500	0	32864	32806	
2501	0	32824	32835	
2502	0	32868	32838	
2503	0	32824	32736	
2504	0	32772	32721	
2505	0	32816	32734	
2506	0	32832	32708	
2507	0	32768	32679	
2508	0	32764	32732	
2509	0	32836	32804	
2510	0	32840	32712	
2511	0	32828	32842	
2512	0	32830	32834	
2513	0	32800	32764	
2514	0	32808	32894	
2515	0	32832	32770	
2516	0	32804	32774	
2517	0	32756	32824	
2518	0	32860	32710	
2519	0	32832	32748	
2520	0	32880	32711	
2521	0	32866	32567	
2522	0	32970	32640	
2523	0	32984	32586	
2524	0	32942	32646	
2525	0	33066	32604	
2526	0	32942	32564	
2527	0	32978	32574	
2528	0	32948	32640	
2529	0	32964	32668	
2530	0	32884	32647	
2531	0	32868	32716	
2532	0	32840	32871	
2533	0	32842	32637	
2534	0	32948	32738	
2535	0	32998	32716	
2536	0	32886	32704	
2537	0	32924	32816	
2538	0	32840	32660	
2539	0	32768	32838	
2540	0	32622	32895	
2541	0	32710	32917	
2542	0	32572	32943	
2543	0	32612	33042	
2544	0	32600	33026	
2545	0	32548	33052	
2546	0	32472	33080	
2547	0	32432	33132	
2548	0	32400	33194	
2549	0	32506	33086	
2550	0	32636	33124	
2551	0	32636	32891	
2552	0	32648	32795	
2553	0	32654	32826	
2554	0	32682	32856	
2555	0	32734	32788	
2556	0	32796	32676	
2557	0	32868	32789	
2558	0	32926	32614	
2559	0	32864	32668	
2560	0	32914	32561	
2561	0	32902	32542	
2562	0	32940	32502	
2563	0	32948	32668	
2564	0	33024	32672	
2565	0	32906	32662	
2566	0	32984	32647	
2567	0	32886	32698	
2568	0	32832	32636	
2569	0	32924	32612	
2570	0	32840	32620	
2571	0	32960	32700	
2572	0	32848	32798	
2573	0	32922	32751	
2574	0	32760	32720	
2575	0	32820	32798	
2576	0	32884	32775	
2577	0	32820	32708	
2578	0	32768	32686	
2579	0	32764	32769	
2580	0	32802	32800	
2581	0	32780	32842	
2582	0	32848	32796	
2583	0	32756	32820	
2584	0	32748	32836	
2585	0	32764	32694	
2586	0	32866	32766	
2587	0	32860	32934	
2588	0	32792	32832	
2589	0	32900	32828	
2590	0	32798	32752	
2591	0	32775	32743	
2592	0	32840	32732	
2593	0	32828	32650	
2594	0	32836	32714	
2595	0	32856	32738	
2596	0	32762	32838	
2597	0	32856	32784	
2598	0	32836	32849	
2599	0	32796	32820	
2600	0	32890	32684	
2601	0	32782	32727	
2602	0	32792	32846	
2603	0	32788	32812	
2604	0	32748	32828	
2605	0	32842	32788	
2606	0	32818	32724	
2607	0	32810	32711	
2608	0	32800	32788	
2609	0	32802	32810	
2610	0	32848	32852	
2611	0	32828	32775	
2612	0	32788	32768	
2613	0	32814	32713	
2614	0	32768	32775	
2615	0	32812	32746	
2616	0	32824	32734	
2617	0	32772	32719	
2618	0	32744	32724	
2619	0	32796	32671	
2620	0	32808	32795	
2621	0	32840	32727	
2622	0	32816	32839	
2623	0	32784	32810	
2624	0	32834	32764	
2625	0	32816	32712	
2626	0	32808	32756	
2627	0	32844	32760	
2628	0	32792	32680	
2629	0	32828	32734	
2630	0	32826	32816	
2631	0	32816	32711	
2632	0	32828	32687	
2633	0	32832	32711	
2634	0	32832	32801	
2635	0	32820	32832	
2636	0	32774	32750	
2637	0	32800	32839	
2638	0	32816	32767	
2639	0	32870	32687	
2640	0	32804	32844	
2641	0	32782	32712	
2642	0	32788	32751	
2643	0	32738	32764	
2644	0	32804	32692	
2645	0	32744	32731	
2646	0	32788	32804	
2647	0	32818	32772	
2648	0	32854	32740	
2649	0	32807	32676	
2650	0	32784	32804	
2651	0	32810	32730	
2652	0	32814	32664	
2653	0	32756	32732	
2654	0	32776	32804	
2655	0	32824	32796	
2656	0	32892	32804	
2657	0	32866	32883	
2658	0	32754	32700	
2659	0	32792	32706	
2660	0	32822	32884	
2661	0	32852	32774	
2662	0	32800	32775	
2663	0	32782	32871	
2664	0	32830	32871	
2665	0	32832	32722	
2666	0	32866	32647	
2667	0	32864	32730	
2668	0	32874	32852	
2669	0	32801	32868	
2670	0	32820	32796	
2671	0	32860	32788	
2672	0	32780	32726	
2673	0	32760	32698	
2674	0	32792	32706	
2675	0	32710	32702	
2676	0	32802	32760	
2677	0	32724	32720	
2678	0	32746	32784	
2679	0	32764	32718	
2680	0	32814	32672	
2681	0	32830	32687	
2682	0	32824	32796	
2683	0	32876	32820	
2684	0	32848	32756	
2685	0	32816	32831	
2686	0	32812	32720	
2687	0	32834	32636	
2688	0	32816	32760	
2689	0	32790	32842	
2690	0	32782	32742	
2691	0	32904	32747	
2692	0	32746	32814	
2693	0	32750	32789	
2694	0	32823	32672	
2695	0	32844	32804	
2696	0	32826	32804	
2697	0	32830	32766	
2698	0	32796	32866	
2699	0	32824	32686	
2700	0	32792	32762	
2701	0	32800	32772	
2702	0	32782	32764	
2703	0	32824	32730	
2704	0	32816	32830	
2705	0	32806	32743	
2706	0	32796	32726	
2707	0	32812	32754	
2708	0	32830	32828	
2709	0	32868	32820	
2710	0	32847	32732	
2711	0	32796	32711	
2712	0	32758	32775	
2713	0	32788	32793	
2714	0	32752	32836	
2715	0	32804	32820	
2716	0	32794	32838	
2717	0	32836	32727	
2718	0	32812	32720	
2719	0	32802	32752	
2720	0	32800	32789	
2721	0	32784	32831	
2722	0	32768	32795	
2723	0	32852	32736	
2724	0	32884	32730	
2725	0	32780	32788	
2726	0	32828	32775	
2727	0	32818	32752	
2728	0	32772	32844	
2729	0	32822	32775	
2730	0	32788	32766	
2731	0	32828	32798	
2732	0	32838	32743	
2733	0	32824	32732	
2734	0	32782	32664	
2735	0	32886	32802	
2736	0	32800	32796	
2737	0	32800	32766	
2738	0	32818	32720	
2739	0	32762	32887	
2740	0	32812	32748	
2741	0	32828	32724	
2742	0	32766	32846	
2743	0	32794	32819	
2744	0	32852	32716	
2745	0	32836	32816	
2746	0	32776	32744	
2747	0	32788	32758	
2748	0	32770	32772	
2749	0	32832	32704	
2750	0	32714	32692	
2751	0	32746	32676	
2752	0	32780	32843	
2753	0	32816	32792	
2754	0	32792	32812	
2755	0	32818	32746	
2756	0	32900	32824	
2757	0	32804	32756	
2758	0	32828	32702	
2759	0	32808	32632	
2760	0	32776	32735	
2761	0	32772	32814	
2762	0	32752	32794	
2763	0	32832	32738	
2764	0	32840	32742	
2765	0	32808	32828	
2766	0	32952	32796	
2767	0	32876	32704	
2768	0	32740	32692	
2769	0	32860	32700	
2770	0	32780	32744	
2771	0	32782	32802	
2772	0	32806	32852	
2773	0	32848	32804	
2774	0	32774	32836	
2775	0	32788	32816	
2776	0	32848	32759	
2777	0	32796	32885	
2778	0	32752	32756	
2779	0	32820	32846	
2780	0	32728	32814	
2781	0	32724	32789	
2782	0	32790	32804	
2783	0	32792	32710	
2784	0	32876	32671	
2785	0	32844	32766	
2786	0	32808	32808	
2787	0	32840	32775	
2788	0	32848	32762	
2789	0	32860	32754	
2790	0	32796	32818	
2791	0	32730	32775	
2792	0	32714	32863	
2793	0	32816	32838	
2794	0	32796	32864	
2795	0	32804	32748	
2796	0	32790	32746	
2797	0	32816	32743	
2798	0	32812	32708	
2799	0	32804	32749	
2800	0	32784	32858	
2801	0	32796	32890	
2802	0	32848	32798	
2803	0	32841	32856	
2804	0	32804	32804	
2805	0	32774	32812	
2806	0	32774	32664	
2807	0	32792	32682	
2808	0	32808	32817	
2809	0	32740	32844	
2810	0	32808	32742	
2811	0	32884	32818	
2812	0	32872	32868	
2813	0	32816	32738	
2814	0	32794	32668	
2815	0	32785	32808	
2816	0	32722	32865	
2817	0	32744	32736	
2818	0	32836	32794	
2819	0	32820	32706	
2820	0	32816	32684	
2821	0	32774	32740	
2822	0	32788	32810	
2823	0	32886	32775	
2824	0	32824	32794	
2825	0	32816	32839	
2826	0	32900	32746	
2827	0	32760	32744	
2828	0	32776	32742	
2829	0	32756	32763	
2830	0	32812	32836	
2831	0	32808	32804	
2832	0	32792	32708	
2833	0	32814	32732	
2834	0	32862	32692	
2835	0	32886	32688	
2836	0	32808	32756	
2837	0	32836	32692	
2838	0	32844	32879	
2839	0	32820	32774	
2840	0	32770	32824	
2841	0	32825	32814	
2842	0	32876	32808	
2843	0	32784	32828	
2844	0	32800	32704	
2845	0	32804	32744	
2846	0	32820	32736	
2847	0	32880	32700	
2848	0	32828	32796	
2849	0	32820	32775	
2850	0	32856	32774	
2851	0	32816	32812	
2852	0	32792	32884	
2853	0	32788	32730	
2854	0	32820	32738	
2855	0	32760	32750	
2856	0	32804	32690	
2857	0	32828	32748	
2858	0	32820	32766	
2859	0	32806	32804	
2860	0	32780	32868	
2861	0	32773	32742	
2862	0	32820	32754	
2863	0	32850	32774	
2864	0	32866	32730	
2865	0	32854	32780	
2866	0	32744	32835	
2867	0	32832	32734	
2868	0	32856	32775	
2869	0	32784	32647	
2870	0	32794	32798	
2871	0	32804	32816	
2872	0	32808	32808	
2873	0	32748	32809	
2874	0	32772	32866	
2875	0	32852	32824	
2876	0	32872	32814	
2877	0	32836	32730	
2878	0	32806	32826	
2879	0	32744	32744	
2880	0	32804	32757	
2881	0	32800	32812	
2882	0	32812	32836	
2883	0	32894	32810	
2884	0	32832	32706	
2885	0	32800	32664	
2886	0	32808	32723	
2887	0	32800	32723	
2888	0	32778	32754	
2889	0	32826	32647	
2890	0	32812	32676	
2891	0	32768	32647	
2892	0	32838	32735	
2893	0	32744	32748	
2894	0	32832	32887	
2895	0	32804	32775	
2896	0	32772	32775	
2897	0	32800	32828	
2898	0	32836	32766	
2899	0	32806	32708	
2900	0	32852	32796	
2901	0	32876	32798	
2902	0	32812	32860	
2903	0	32788	32674	
2904	0	32810	32750	
2905	0	32804	32686	
2906	0	32868	32704	
2907	0	32812	32729	
2908	0	32832	32706	
2909	0	32818	32748	
2910	0	32784	32802	
2911	0	32800	32759	
2912	0	32710	32770	
2913	0	32788	32842	
2914	0	32752	32775	
2915	0	32828	32696	
2916	0	32775	32796	
2917	0	32769	32679	
2918	0	32784	32697	
2919	0	32782	32790	
2920	0	32798	32814	
2921	0	32772	32806	
2922	0	32798	32770	
2923	0	32820	32866	
2924	0	32840	32710	
2925	0	32840	32748	
2926	0	32824	32892	
2927	0	32820	32764	
2928	0	32744	32830	
2929	0	32816	32775	
2930	0	32800	32775	
2931	0	32896	32772	
2932	0	32780	32743	
2933	0	32856	32694	
2934	0	32812	32806	
2935	0	32866	32710	
2936	0	32848	32730	
2937	0	32812	32758	
2938	0	32776	32764	
2939	0	32768	32740	
2940	0	32780	32668	
2941	0	32816	32706	
2942	0	32804	32792	
2943	0	32804	32814	
2944	0	32868	32812	
2945	0	32908	32775	
2946	0	32776	32846	
2947	0	32774	32672	
2948	0	32852	32735	
2949	0	32846	32712	
2950	0	32828	32670	
2951	0	32848	32714	
2952	0	32754	32753	
2953	0	32774	32775	
2954	0	32856	32744	
2955	0	32876	32820	
2956	0	32936	32846	
2957	0	32828	32703	
2958	0	32792	32740	
2959	0	32800	32790	
2960	0	32772	32878	
2961	0	32784	32702	
2962	0	32832	32697	
2963	0	32852	32774	
2964	0	32798	32766	
2965	0	32848	32742	
2966	0	32800	32768	
2967	0	32808	32734	
2968	0	32804	32839	
2969	0	32744	32755	
2970	0	32792	32710	
2971	0	32820	32775	
2972	0	32726	32792	
2973	0	32796	32807	
2974	0	32840	32708	
2975	0	32810	32732	
2976	0	32880	32794	
2977	0	32880	32672	
2978	0	32828	32704	
2979	0	32776	32756	
2980	0	32764	32854	
2981	0	32815	32749	
2982	0	32801	32830	
2983	0	32836	32756	
2984	0	32756	32807	
2985	0	32820	32756	
2986	0	32855	32698	
2987	0	32820	32689	
2988	0	32800	32743	
2989	0	32838	32679	
2990	0	32840	32676	
2991	0	32828	32782	
2992	0	32808	32758	
2993	0	32824	32823	
2994	0	32736	32750	
2995	0	32840	32864	
2996	0	32792	32729	
2997	0	32870	32758	
2998	0	32768	32759	
2999	0	32760	32830	
3000	0	32712	32826	
3001	0	32801	32775	
3002	0	32773	32764	
3003	0	32786	32718	
3004	0	32792	32702	
3005	0	32896	32747	
3006	0	32900	32706	
3007	0	32866	32775	
3008	0	32834	32842	
3009	0	32798	32760	
3010	0	32812	32757	
3011	0	32860	32775	
3012	0	32812	32775	
3013	0	32856	32760	
3014	0	32821	32791	
3015	0	32724	32744	
3016	0	32806	32694	
3017	0	32808	32692	
3018	0	32810	32836	
3019	0	32766	32903	
3020	0	32776	32796	
3021	0	32798	32744	
3022	0	32796	32838	
3023	0	32808	32743	
3024	0	32892	32678	
3025	0	32820	32705	
3026	0	32832	32762	
3027	0	32782	32788	
3028	0	32864	32775	
3029	0	32828	32756	
3030	0	32832	32799	
3031	0	32800	32716	
3032	0	32782	32775	
3033	0	32752	32775	
3034	0	32800	32732	
3035	0	32866	32743	
3036	0	32846	32687	
3037	0	32840	32738	
3038	0	32804	32720	
3039	0	32864	32832	
3040	0	32774	32804	
3041	0	32824	32764	
3042	0	32792	32798	
3043	0	32802	32794	
3044	0	32772	32702	
3045	0	32840	32722	
3046	0	32838	32697	
3047	0	32836	32716	
3048	0	32768	32794	
3049	0	32820	32750	
3050	0	32804	32812	
3051	0	32858	32798	
3052	0	32804	32714	
3053	0	32806	32694	
3054	0	32720	32725	
3055	0	32784	32706	
3056	0	32844	32788	
3057	0	32784	32862	
3058	0	32798	32822	
3059	0	32786	32821	
3060	0	32828	32770	
3061	0	32816	32751	
3062	0	32796	32716	
3063	0	32850	32802	
3064	0	32844	32756	
3065	0	32836	32838	
3066	0	32820	32788	
3067	0	32836	32796	
3068	0	32804	32721	
3069	0	32792	32764	
3070	0	32804	32750	
3071	0	32806	32794	
3072	0	32784	32791	
3073	0	32756	32758	
3074	0	32853	32735	
3075	0	32804	32780	
3076	0	32808	32852	
3077	0	32808	32816	
3078	0	32812	32865	
3079	0	32896	32703	
3080	0	32844	32736	
3081	0	32798	32654	
3082	0	32808	32732	
3083	0	32792	32750	
3084	0	32772	32894	
3085	0	32832	32775	
3086	0	32840	32852	
3087	0	32744	32887	
3088	0	32826	32772	
3089	0	32816	32808	
3090	0	32820	32744	
3091	0	32818	32733	
3092	0	32836	32730	
3093	0	32792	32824	
3094	0	32800	32876	
3095	0	32754	32689	
3096	0	32764	32719	
3097	0	32796	32768	
3098	0	32759	32858	
3099	0	32816	32834	
3100	0	32732	32828	
3101	0	32828	32824	
3102	0	32876	32826	
3103	0	32814	32770	
3104	0	32812	32834	
3105	0	32848	32743	
3106	0	32825	32748	
3107	0	32896	32737	
3108	0	32808	32748	
3109	0	32788	32758	
3110	0	32820	32769	
3111	0	32820	32837	
3112	0	32888	32754	
3113	0	32884	32714	
3114	0	32816	32708	
3115	0	32804	32660	
3116	0	32780	32744	
3117	0	32808	32728	
3118	0	32772	32718	
3119	0	32790	32725	
3120	0	32712	32708	
3121	0	32784	32815	
3122	0	32816	32705	
3123	0	32832	32855	
3124	0	32813	32860	
3125	0	32808	32756	
3126	0	32814	32752	
3127	0	32752	32866	
3128	0	32836	32816	
3129	0	32844	32664	
3130	0	32816	32750	
3131	0	32794	32753	
3132	0	32840	32714	
3133	0	32780	32737	
3134	0	32784	32816	
3135	0	32808	32749	
3136	0	32806	32808	
3137	0	32792	32828	
3138	0	32864	32722	
3139	0	32812	32840	
3140	0	32784	32700	
3141	0	32804	32663	
3142	0	32828	32766	
3143	0	32876	32876	
3144	0	32840	32788	
3145	0	32824	32718	
3146	0	32890	32775	
3147	0	32788	32810	
3148	0	32792	32860	
3149	0	32794	32772	
3150	0	32816	32790	
3151	0	32852	32806	
3152	0	32776	32800	
3153	0	32764	32833	
3154	0	32800	32766	
3155	0	32768	32732	
3156	0	32806	32609	
3157	0	32844	32750	
3158	0	32764	32864	
3159	0	32826	32799	
3160	0	32788	32834	
3161	0	32832	32744	
3162	0	32844	32775	
3163	0	32868	32768	
3164	0	32804	32775	
3165	0	32780	32751	
3166	0	32852	32708	
3167	0	32804	32814	
3168	0	32840	32686	
3169	0	32858	32650	
3170	0	32832	32708	
3171	0	32780	32692	
3172	0	32776	32678	
3173	0	32826	32775	
3174	0	32770	32695	
3175	0	32852	32770	
3176	0	32752	32878	
3177	0	32836	32770	
3178	0	32824	32810	
3179	0	32864	32762	
3180	0	32794	32744	
3181	0	32864	32718	
3182	0	32804	32830	
3183	0	32777	32858	
3184	0	32804	32775	
3185	0	32788	32805	
3186	0	32804	32679	
3187	0	32816	32726	
3188	0	32792	32684	
3189	0	32774	32750	
3190	0	32736	32766	
3191	0	32804	32824	
3192	0	32866	32775	
3193	0	32764	32768	
3194	0	32836	32762	
3195	0	32810	32775	
3196	0	32838	32814	
3197	0	32784	32732	
3198	0	32840	32772	
3199	0	32836	32682	
3200	0	32830	32624	
3201	0	32816	32836	
3202	0	32852	32816	
3203	0	32800	32766	
3204	0	32868	32756	
3205	0	32824	32831	
3206	0	32794	32924	
3207	0	32846	32743	
3208	0	32808	32673	
3209	0	32840	32878	
3210	0	32838	32824	
3211	0	32798	32722	
3212	0	32804	32764	
3213	0	32798	32764	
3214	0	32768	32827	
3215	0	32780	32694	
3216	0	32792	32775	
3217	0	32794	32711	
3218	0	32784	32796	
3219	0	32836	32740	
3220	0	32764	32774	
3221	0	32776	32728	
3222	0	32770	32690	
3223	0	32880	32798	
3224	0	32902	32696	
3225	0	32820	32710	
3226	0	32836	32830	
3227	0	32752	32824	
3228	0	32768	32760	
3229	0	32776	32830	
3230	0	32778	32746	
3231	0	32820	32826	
3232	0	32808	32694	
3233	0	32830	32708	
3234	0	32776	32810	
3235	0	32808	32806	
3236	0	32756	32804	
3237	0	32770	32800	
3238	0	32808	32775	
3239	0	32808	32668	
3240	0	32764	32720	
3241	0	32808	32828	
3242	0	32856	32748	
3243	0	32784	32742	
3244	0	32832	32708	
3245	0	32828	32800	
3246	0	32784	32839	
3247	0	32864	32775	
3248	0	32812	32775	
3249	0	32784	32819	
3250	0	32796	32683	
3251	0	32824	32700	
3252	0	32792	32798	
3253	0	32788	32838	
3254	0	32836	32800	
3255	0	32690	32836	
3256	0	32792	32836	
3257	0	32686	32839	
3258	0	32700	32812	
3259	0	32800	32790	
3260	0	32816	32807	
3261	0	32801	32752	
3262	0	32852	32785	
3263	0	32868	32628	
3264	0	32965	32620	
3265	0	32980	32532	
3266	0	32952	32486	
3267	0	33010	32572	
3268	0	32924	32647	
3269	0	32976	32563	
3270	0	32980	32652	
3271	0	32944	32569	
3272	0	32862	32662	
3273	0	32900	32834	
3274	0	32816	32716	
3275	0	32890	32647	
3276	0	32896	32636	
3277	0	32906	32693	
3278	0	32930	32647	
3279	0	32876	32710	
3280	0	32942	32823	
3281	0	32774	32864	
3282	0	32676	32863	
3283	0	32656	32890	
3284	0	32668	32902	
3285	0	32576	32962	
3286	0	32540	33086	
3287	0	32544	33052	
3288	0	32448	33095	
3289	0	32426	33180	
3290	0	32398	33134	
3291	0	32456	33158	
3292	0	32556	32896	
3293	0	32576	32874	
3294	0	32652	32974	
3295	0	32720	32956	
3296	0	32688	32950	
3297	0	32760	32934	
3298	0	32736	32839	
3299	0	32845	32647	
3300	0	32888	32632	
3301	0	32974	32658	
3302	0	32934	32686	
3303	0	32948	32630	
3304	0	32962	32612	
3305	0	33028	32566	
3306	0	32968	32598	
3307	0	32962	32647	
3308	0	32954	32688	
3309	0	32970	32618	
3310	0	32864	32608	
3311	0	32870	32688	
3312	0	32872	32724	
3313	0	32900	32682	
3314	0	32820	32662	
3315	0	32854	32710	
3316	0	32788	32775	
3317	0	32798	32804	
3318	0	32804	32812	
3319	0	32768	32702	
3320	0	32820	32650	
3321	0	32881	32706	
3322	0	32782	32786	
3323	0	32774	32736	
3324	0	32792	32786	
3325	0	32862	32832	
3326	0	32768	32772	
3327	0	32750	32704	
3328	0	32884	32701	
3329	0	32816	32698	
3330	0	32792	32692	
3331	0	32824	32644	
3332	0	32788	32729	
3333	0	32812	32659	
3334	0	32792	32748	
3335	0	32836	32807	
3336	0	32844	32828	
3337	0	32788	32820	
3338	0	32816	32790	
3339	0	32770	32788	
3340	0	32858	32799	
3341	0	32752	32789	
3342	0	32839	32852	
3343	0	32776	32815	
3344	0	32824	32775	
3345	0	32836	32800	
3346	0	32840	32790	
3347	0	32786	32814	
3348	0	32856	32766	
3349	0	32872	32807	
3350	0	32810	32838	
3351	0	32788	32868	
3352	0	32804	32704	
3353	0	32800	32703	
3354	0	32775	32682	
3355	0	32860	32686	
3356	0	32812	32690	
3357	0	32788	32708	
3358	0	32834	32780	
3359	0	32776	32804	
3360	0	32816	32807	
3361	0	32844	32734	
3362	0	32812	32839	
3363	0	32836	32810	
3364	0	32762	32772	
3365	0	32820	32826	
3366	0	32824	32807	
3367	0	32784	32800	
3368	0	32868	32775	
3369	0	32784	32764	
3370	0	32816	32795	
3371	0	32810	32812	
3372	0	32828	32852	
3373	0	32800	32828	
3374	0	32858	32858	
3375	0	32824	32711	
3376	0	32836	32742	
3377	0	32764	32732	
3378	0	32848	32741	
3379	0	32758	32695	
3380	0	32792	32754	
3381	0	32812	32710	
3382	0	32806	32764	
3383	0	32880	32719	
3384	0	32808	32756	
3385	0	32840	32788	
3386	0	32822	32800	
3387	0	32792	32796	
3388	0	32834	32807	
3389	0	32816	32775	
3390	0	32854	32815	
3391	0	32814	32802	
3392	0	32730	32795	
3393	0	32828	32775	
3394	0	32744	32758	
3395	0	32796	32676	
3396	0	32780	32796	
3397	0	32792	32711	
3398	0	32824	32852	
3399	0	32848	32814	
3400	0	32840	32774	
3401	0	32800	32786	
3402	0	32800	32936	
3403	0	32808	32816	
3404	0	32872	32822	
3405	0	32836	32768	
3406	0	32836	32824	
3407	0	32814	32824	
3408	0	32820	32812	
3409	0	32826	32759	
3410	0	32736	32796	
3411	0	32812	32764	
3412	0	32804	32816	
3413	0	32764	32788	
3414	0	32796	32768	
3415	0	32884	32712	
3416	0	32780	32796	
3417	0	32836	32826	
3418	0	32810	32806	
3419	0	32812	32852	
3420	0	32790	32847	
3421	0	32788	32728	
3422	0	32844	32738	
3423	0	32836	32684	
3424	0	32862	32764	
3425	0	32862	32870	
3426	0	32798	32805	
3427	0	32874	32786	
3428	0	32844	32772	
3429	0	32828	32734	
3430	0	32828	32838	
3431	0	32786	32788	
3432	0	32824	32704	
3433	0	32832	32846	
3434	0	32816	32800	
3435	0	32828	32624	
3436	0	32852	32686	
3437	0	32824	32668	
3438	0	32848	32710	
3439	0	32752	32730	
3440	0	32820	32786	
3441	0	32764	32758	
3442	0	32826	32810	
3443	0	32828	32751	
3444	0	32808	32792	
3445	0	32806	32852	
3446	0	32750	32820	
3447	0	32836	32772	
3448	0	32808	32784	
3449	0	32772	32799	
3450	0	32812	32832	
3451	0	32844	32824	
3452	0	32768	32655	
3453	0	32804	32748	
3454	0	32804	32686	
3455	0	32776	32690	
3456	0	32748	32820	
3457	0	32792	32854	
3458	0	32815	32856	
3459	0	32788	32774	
3460	0	32772	32705	
3461	0	32798	32796	
3462	0	32852	32816	
3463	0	32856	32804	
3464	0	32824	32748	
3465	0	32836	32743	
3466	0	32817	32711	
3467	0	32782	32714	
3468	0	32877	32689	
3469	0	32816	32733	
3470	0	32790	32734	
3471	0	32804	32775	
3472	0	32792	32860	
3473	0	32874	32803	
3474	0	32824	32764	
3475	0	32789	32740	
3476	0	32769	32756	
3477	0	32836	32736	
3478	0	32784	32876	
3479	0	32760	32854	
3480	0	32800	32674	
3481	0	32796	32644	
3482	0	32778	32726	
3483	0	32800	32766	
3484	0	32814	32832	
3485	0	32800	32790	
3486	0	32794	32738	
3487	0	32849	32815	
3488	0	32856	32828	
3489	0	32810	32840	
3490	0	32816	32708	
3491	0	32918	32738	
3492	0	32838	32735	
3493	0	32820	32704	
3494	0	32834	32790	
3495	0	32852	32766	
3496	0	32796	32818	
3497	0	32808	32810	
3498	0	32808	32775	
3499	0	32752	32812	
3500	0	32724	32830	
3501	0	32768	32840	
3502	0	32788	32676	
3503	0	32852	32724	
3504	0	32836	32664	
3505	0	32804	32740	
3506	0	32830	32807	
3507	0	32816	32839	
3508	0	32816	32810	
3509	0	32838	32775	
3510	0	32838	32815	
3511	0	32808	32810	
3512	0	32790	32849	
3513	0	32748	32616	
3514	0	32800	32775	
3515	0	32832	32710	
3516	0	32768	32806	
3517	0	32813	32822	
3518	0	32834	32832	
3519	0	32844	32742	
3520	0	32814	32735	
3521	0	32856	32764	
3522	0	32814	32772	
3523	0	32828	32775	
3524	0	32830	32807	
3525	0	32830	32730	
3526	0	32792	32792	
3527	0	32858	32812	
3528	0	32812	32828	
3529	0	32774	32708	
3530	0	32810	32729	
3531	0	32784	32711	
3532	0	32778	32640	
3533	0	32788	32678	
3534	0	32802	32756	
3535	0	32760	32740	
3536	0	32764	32646	
3537	0	32766	32806	
3538	0	32828	32775	
3539	0	32756	32828	
3540	0	32822	32872	
3541	0	32808	32844	
3542	0	32816	32775	
3543	0	32774	32798	
3544	0	32804	32815	
3545	0	32796	32822	
3546	0	32760	32786	
3547	0	32826	32832	
3548	0	32824	32775	
3549	0	32884	32806	
3550	0	32802	32775	
3551	0	32720	32768	
3552	0	32836	32738	
3553	0	32764	32700	
3554	0	32892	32756	
3555	0	32906	32798	
3556	0	32858	32772	
3557	0	32860	32788	
3558	0	32888	32775	
3559	0	32784	32790	
3560	0	32766	32775	
3561	0	32810	32732	
3562	0	32854	32772	
3563	0	32844	32642	
3564	0	32804	32652	
3565	0	32840	32684	
3566	0	32808	32668	
3567	0	32870	32732	
3568	0	32812	32718	
3569	0	32844	32704	
3570	0	32772	32642	
3571	0	32776	32686	
3572	0	32768	32766	
3573	0	32788	32696	
3574	0	32800	32768	
3575	0	32840	32711	
3576	0	32796	32660	
3577	0	32824	32692	
3578	0	32732	32702	
3579	0	32822	32655	
3580	0	32762	32698	
3581	0	32796	32681	
3582	0	32778	32804	
3583	0	32804	32769	
3584	0	32820	32816	
3585	0	32856	32748	
3586	0	32828	32732	
3587	0	32830	32664	
3588	0	32784	32743	
3589	0	32856	32614	
3590	0	32808	32662	
3591	0	32792	32723	
3592	0	32781	32671	
3593	0	32816	32682	
3594	0	32772	32868	
3595	0	32780	32866	
3596	0	32812	32814	
3597	0	32824	32764	
3598	0	32832	32728	
3599	0	32832	32743	
3600	0	32724	32788	
3601	0	32806	32758	
3602	0	32726	32758	
3603	0	32800	32800	
3604	0	32866	32708	
3605	0	32850	32772	
3606	0	32864	32808	
3607	0	32804	32726	
3608	0	32784	32808	
3609	0	32884	32766	
3610	0	32804	32740	
3611	0	32832	32760	
3612	0	32812	32724	
3613	0	32844	32852	
3614	0	32836	32820	
3615	0	32868	32748	
3616	0	32832	32712	
3617	0	32808	32794	
3618	0	32776	32834	
3619	0	32784	32766	
3620	0	32824	32800	
3621	0	32774	32760	
3622	0	32788	32876	
3623	0	32744	32796	
3624	0	32756	32748	
3625	0	32836	32774	
3626	0	32840	32858	
3627	0	32842	32828	
3628	0	32736	32724	
3629	0	32876	32862	
3630	0	32796	32772	
3631	0	32784	32802	
3632	0	32734	32734	
3633	0	32844	32679	
3634	0	32860	32714	
3635	0	32840	32712	
3636	0	32860	32738	
3637	0	32936	32732	
3638	0	32910	32748	
3639	0	32876	32735	
3640	0	32732	32772	
3641	0	32736	32768	
3642	0	32736	32727	
3643	0	32652	32762	
3644	0	32740	32870	
3645	0	32804	32775	
3646	0	32856	32840	
3647	0	32862	32766	
3648	0	32736	32762	
3649	0	32700	32761	
3650	0	32676	32798	
3651	0	32741	32742	
3652	0	32762	32788	
3653	0	32700	32764	
3654	0	32858	32822	
3655	0	32800	32775	
3656	0	32870	32759	
3657	0	32932	32906	
3658	0	32941	32756	
3659	0	32986	32729	
3660	0	32962	32699	
3661	0	32980	32672	
3662	0	32876	32730	
3663	0	32824	32708	
3664	0	32740	32790	
3665	0	32811	32786	
3666	0	32776	32831	
3667	0	32768	32862	
3668	0	32674	32758	
3669	0	32916	32808	
3670	0	32932	32735	
3671	0	32852	32756	
3672	0	32874	32756	
3673	0	32864	32813	
3674	0	32780	32742	
3675	0	32680	32824	
3676	0	32616	32768	
3677	0	32664	32806	
3678	0	32640	32702	
3679	0	32668	32720	
3680	0	32806	32684	
3681	0	32846	32766	
3682	0	32808	32686	
3683	0	32856	32703	
3684	0	32876	32718	
3685	0	32810	32791	
3686	0	32928	32801	
3687	0	32802	32852	
3688	0	32790	32726	
3689	0	32868	32770	
3690	0	32852	32823	
3691	0	32926	32775	
3692	0	32810	32818	
3693	0	32816	32775	
3694	0	32800	32796	
3695	0	32726	32760	
3696	0	32682	32775	
3697	0	32728	32775	
3698	0	32708	32756	
3699	0	32748	32739	
3700	0	32800	32764	
3701	0	32830	32774	
3702	0	32872	32827	
3703	0	32924	32792	
3704	0	32911	32666	
3705	0	32820	32742	
3706	0	32728	32790	
3707	0	32774	32702	
3708	0	32660	32724	
3709	0	32688	32674	
3710	0	32736	32712	
3711	0	32808	32761	
3712	0	32896	32698	
3713	0	32828	32788	
3714	0	32864	32766	
3715	0	32864	32746	
3716	0	32928	32807	
3717	0	32908	32775	
3718	0	32860	32838	
3719	0	32790	32871	
3720	0	32832	32854	
3721	0	32764	32789	
3722	0	32752	32755	
3723	0	32792	32768	
3724	0	32830	32830	
3725	0	32876	32740	
3726	0	32846	32748	
3727	0	32796	32804	
3728	0	32826	32758	
3729	0	32796	32764	
3730	0	32820	32775	
3731	0	32820	32804	
3732	0	32836	32826	
3733	0	32817	32686	
3734	0	32788	32860	
3735	0	32844	32767	
3736	0	32836	32828	
3737	0	32896	32750	
3738	0	32788	32816	
3739	0	32820	32759	
3740	0	32734	32814	
3741	0	32800	32772	
3742	0	32756	32847	
3743	0	32858	32852	
3744	0	32868	32766	
3745	0	32820	32766	
3746	0	32824	32736	
3747	0	32778	32750	
3748	0	32816	32740	
3749	0	32844	32710	
3750	0	32868	32644	
3751	0	32872	32692	
3752	0	32890	32711	
3753	0	32724	32744	
3754	0	32848	32828	
3755	0	32760	32810	
3756	0	32780	32818	
3757	0	32784	32775	
3758	0	32772	32767	
3759	0	32780	32796	
3760	0	32740	32775	
3761	0	32704	32775	
3762	0	32616	32762	
3763	0	32672	32802	
3764	0	32842	32790	
3765	0	33026	32772	
3766	0	33226	32785	
3767	0	33220	32790	
3768	0	33092	32736	
3769	0	32980	32814	
3770	0	32822	32709	
3771	0	32592	32708	
3772	0	32528	32726	
3773	0	32514	32686	
3774	0	32589	32696	
3775	0	32720	32639	
3776	0	32764	32812	
3777	0	32728	32852	
3778	0	32792	32831	
3779	0	32908	32832	
3780	0	32900	32858	
3781	0	32960	32794	
3782	0	32868	32788	
3783	0	32906	32824	
3784	0	32928	32958	
3785	0	32912	32754	
3786	0	32878	32656	
3787	0	32804	32712	
3788	0	32736	32718	
3789	0	32692	32768	
3790	0	32824	32764	
3791	0	32852	32802	
3792	0	33034	32775	
3793	0	33024	32902	
3794	0	32880	32775	
3795	0	32712	32822	
3796	0	32834	32772	
3797	0	32656	32806	
3798	0	32680	32846	
3799	0	32768	32800	
3800	0	32760	32842	
3801	0	32756	32767	
3802	0	32744	32703	
3803	0	32734	32664	
3804	0	32872	32712	
3805	0	33092	32644	
3806	0	33066	32796	
3807	0	32980	32838	
3808	0	32868	32774	
3809	0	32744	32696	
3810	0	32378	32806	
3811	0	32208	32805	
3812	0	32276	32855	
3813	0	32526	32660	
3814	0	32810	32658	
3815	0	32876	32710	
3816	0	32968	32692	
3817	0	33054	32695	
3818	0	32888	32742	
3819	0	32888	32689	
3820	0	32884	32711	
3821	0	32908	32775	
3822	0	32868	32767	
3823	0	32884	32792	
3824	0	32910	32754	
3825	0	32914	32807	
3826	0	32887	32828	
3827	0	32828	32870	
3828	0	32856	32794	
3829	0	32844	32810	
3830	0	32850	32742	
3831	0	32894	32768	
3832	0	32828	32822	
3833	0	32872	32775	
3834	0	32928	32726	
3835	0	32876	32655	
3836	0	32804	32702	
3837	0	32772	32738	
3838	0	32740	32711	
3839	0	32768	32633	
3840	0	32746	32768	
3841	0	32766	32727	
3842	0	32872	32752	
3843	0	32938	32744	
3844	0	32732	32806	
3845	0	32752	32833	
3846	0	32804	32830	
3847	0	32928	32812	
3848	0	32916	32788	
3849	0	32854	32804	
3850	0	32942	32742	
3851	0	32880	32688	
3852	0	32832	32689	
3853	0	32652	32752	
3854	0	32548	32808	
3855	0	32518	32762	
3856	0	32540	32824	
3857	0	32700	32708	
3858	0	32630	32734	
3859	0	32704	32746	
3860	0	32900	32798	
3861	0	32860	32848	
3862	0	32904	32769	
3863	0	32936	32790	
3864	0	32992	32799	
3865	0	32924	32770	
3866	0	32886	32798	
3867	0	32880	32694	
3868	0	32884	32734	
3869	0	32948	32678	
3870	0	32920	32696	
3871	0	32804	32738	
3872	0	32752	32772	
3873	0	32816	32838	
3874	0	32846	32808	
3875	0	32724	32768	
3876	0	32760	32854	
3877	0	32692	32798	
3878	0	32656	32721	
3879	0	32728	32606	
3880	0	32782	32692	
3881	0	32780	32764	
3882	0	32868	32790	
3883	0	32988	32820	
3884	0	32890	32810	
3885	0	32896	32706	
3886	0	32897	32738	
3887	0	32932	32789	
3888	0	32800	32807	
3889	0	32838	32820	
3890	0	32796	32738	
3891	0	32816	32804	
3892	0	32800	32838	
3893	0	32758	32890	
3894	0	32702	32818	
3895	0	32706	32822	
3896	0	32608	32823	
3897	0	32616	32872	
3898	0	32804	32740	
3899	0	32844	32734	
3900	0	32788	32647	
3901	0	32766	32714	
3902	0	32748	32805	
3903	0	32756	32796	
3904	0	32768	32775	
3905	0	32877	32775	
3906	0	32896	32804	
3907	0	32946	32766	
3908	0	32996	32738	
3909	0	32900	32744	
3910	0	33060	32792	
3911	0	33012	32804	
3912	0	32856	32790	
3913	0	32852	32684	
3914	0	32888	32692	
3915	0	32628	32742	
3916	0	32680	32709	
3917	0	32720	32750	
3918	0	32808	32775	
3919	0	32770	32926	
3920	0	32560	32892	
3921	0	32654	32826	
3922	0	32612	32820	
3923	0	32930	32794	
3924	0	33104	32698	
3925	0	33024	32767	
3926	0	32834	32666	
3927	0	32820	32676	
3928	0	32684	32660	
3929	0	32458	32660	
3930	0	32508	32694	
3931	0	32734	32770	
3932	0	32988	32820	
3933	0	33324	32822	
3934	0	33302	32766	
3935	0	33178	32828	
3936	0	33122	32759	
3937	0	33108	32862	
3938	0	32740	32760	
3939	0	32740	32708	
3940	0	32750	32660	
3941	0	32700	32670	
3942	0	32348	32682	
3943	0	32228	32746	
3944	0	32448	32738	
3945	0	32552	32906	
3946	0	32648	32903	
3947	0	32738	32816	
3948	0	32840	32772	
3949	0	32898	32698	
3950	0	32798	32758	
3951	0	32488	32674	
3952	0	32438	32730	
3953	0	32850	32750	
3954	0	33196	32775	
3955	0	33224	32744	
3956	0	33258	32812	
3957	0	33312	32834	
3958	0	33088	32894	
3959	0	32664	32799	
3960	0	32384	32828	
3961	0	32442	32916	
3962	0	32688	32791	
3963	0	32536	32724	
3964	0	32622	32769	
3965	0	32574	32753	
3966	0	32656	32648	
3967	0	32800	32738	
3968	0	32934	32668	
3969	0	33084	32878	
3970	0	32960	32806	
3971	0	32852	32738	
3972	0	32796	32743	
3973	0	32888	32698	
3974	0	32800	32732	
3975	0	32822	32774	
3976	0	32914	32748	
3977	0	32820	32716	
3978	0	32856	32660	
3979	0	32976	32628	
3980	0	32868	32748	
3981	0	32878	32775	
3982	0	32928	32769	
3983	0	32900	32846	
3984	0	32830	32732	
3985	0	32840	32762	
3986	0	32764	32807	
3987	0	32792	32818	
3988	0	32736	32871	
3989	0	32696	32722	
3990	0	32714	32818	
3991	0	32744	32800	
3992	0	32644	32770	
3993	0	32800	32854	
3994	0	32860	32964	
3995	0	32654	32805	
3996	0	32810	32798	
3997	0	32878	32831	
3998	0	32866	32894	
3999	0	33156	32828	
4000	0	33028	32903	
4001	0	33004	32878	
4002	0	32900	32930	
4003	0	32908	32886	
4004	0	32612	32807	
4005	0	32520	32760	
4006	0	32728	32812	
4007	0	32984	32654	
4008	0	33064	32718	
4009	0	33072	32657	
4010	0	32812	32702	
4011	0	32554	32647	
4012	0	32304	32606	
4013	0	32212	32628	
4014	0	32176	32696	
4015	0	32456	32685	
4016	0	33028	32836	
4017	0	33216	32850	
4018	0	33132	32966	
4019	0	33092	32897	
4020	0	32914	32940	
4021	0	32680	32910	
4022	0	32528	32800	
4023	0	32616	32738	
4024	0	32854	32768	
4025	0	32946	32791	
4026	0	32961	32692	
4027	0	32956	32608	
4028	0	33098	32656	
4029	0	33130	32668	
4030	0	33028	32700	
4031	0	33024	32615	
4032	0	32934	32564	
4033	0	32852	32606	
4034	0	32852	32580	
4035	0	32926	32664	
4036	0	32986	32710	
4037	0	33158	32652	
4038	0	32932	32696	
4039	0	33032	32748	
4040	0	32904	32670	
4041	0	32692	32612	
4042	0	32768	32790	
4043	0	32852	32721	
4044	0	33000	32752	
4045	0	33236	32876	
4046	0	33196	32903	
4047	0	32852	32924	
4048	0	32604	33022	
4049	0	32340	33040	
4050	0	32392	33011	
4051	0	32184	33026	
4052	0	32128	33089	
4053	0	32144	33180	
4054	0	32194	33082	
4055	0	32398	33070	
4056	0	32540	33113	
4057	0	32576	33008	
4058	0	32786	33038	
4059	0	32968	32924	
4060	0	33012	32903	
4061	0	33174	32804	
4062	0	33104	32816	
4063	0	32997	32738	
4064	0	32788	32724	
4065	0	32640	32627	
4066	0	32534	32564	
4067	0	32592	32550	
4068	0	32728	32582	
4069	0	32750	32572	
4070	0	32614	32589	
4071	0	32622	32598	
4072	0	32922	32632	
4073	0	33174	32588	
4074	0	33460	32632	
4075	0	33332	32704	
4076	0	33076	32704	
4077	0	32848	32764	
4078	0	32866	32798	
4079	0	32520	32814	
4080	0	32386	32902	
4081	0	32724	32734	
4082	0	32940	32916	
4083	0	32952	32775	
4084	0	32816	32807	
4085	0	32720	32748	
4086	0	32651	32826	
4087	0	32646	32820	
4088	0	32706	32788	
4089	0	32892	32720	
4090	0	32932	32673	
4091	0	33048	32679	
4092	0	32936	32714	
4093	0	32996	32762	
4094	0	32864	32725	
4095	0	32700	32750	
4096	0	32712	32822	
4097	0	32712	32828	
4098	0	32766	32844	
4099	0	32944	32835	
4100	0	32903	32834	
4101	0	32932	32743	
4102	0	32994	32753	
4103	0	32848	32759	
4104	0	32956	32730	
4105	0	32962	32795	
4106	0	32805	32775	
4107	0	32794	32697	
4108	0	32802	32630	
4109	0	32818	32673	
4110	0	32780	32580	
4111	0	33082	32670	
4112	0	32964	32772	
4113	0	32882	32826	
4114	0	33240	32898	
4115	0	32912	32771	
4116	0	32704	32788	
4117	0	32440	32775	
4118	0	31758	32715	
4119	0	31628	32668	
4120	0	31980	32708	
4121	0	32700	32788	
4122	0	32980	32861	
4123	0	33034	32790	
4124	0	33172	32802	
4125	0	33050	32898	
4126	0	32896	32882	
4127	0	32832	32870	
4128	0	33000	32742	
4129	0	33096	32852	
4130	0	33072	32868	
4131	0	32972	32802	
4132	0	32888	32802	
4133	0	32868	32805	
4134	0	32860	32714	
4135	0	32756	32769	
4136	0	32776	32790	
4137	0	32805	32748	
4138	0	32768	32722	
4139	0	32940	32775	
4140	0	33064	32775	
4141	0	33056	32734	
4142	0	32990	32796	
4143	0	32796	32790	
4144	0	32864	32828	
4145	0	32936	32804	
4146	0	32876	32762	
4147	0	32982	32768	
4148	0	32792	32740	
4149	0	32860	32718	
4150	0	32750	32732	
4151	0	32738	32788	
4152	0	32646	32854	
4153	0	32468	32753	
4154	0	32384	32708	
4155	0	32428	32772	
4156	0	32584	32808	
4157	0	32836	32906	
4158	0	32836	32924	
4159	0	32888	32764	
4160	0	32972	32839	
4161	0	32940	32884	
4162	0	32852	32834	
4163	0	32912	32830	
4164	0	32962	32790	
4165	0	33088	32852	
4166	0	32900	32878	
4167	0	32824	32886	
4168	0	32638	32816	
4169	0	32684	32852	
4170	0	32746	32766	
4171	0	32800	32694	
4172	0	32812	32665	
4173	0	32928	32686	
4174	0	32952	32714	
4175	0	33112	32654	
4176	0	33108	32759	
4177	0	33394	32728	
4178	0	33236	32858	
4179	0	32928	32842	
4180	0	32570	32732	
4181	0	32464	32712	
4182	0	32296	32600	
4183	0	32206	32590	
4184	0	32604	32608	
4185	0	32764	32504	
4186	0	32654	32583	
4187	0	32604	32836	
4188	0	32468	32838	
4189	0	32624	32704	
4190	0	32736	32764	
4191	0	32912	32823	
4192	0	32904	32916	
4193	0	33094	32722	
4194	0	33008	32704	
4195	0	33036	32604	
4196	0	32908	32766	
4197	0	32764	32927	
4198	0	32748	32904	
4199	0	32785	32982	
4200	0	32964	32910	
4201	0	33108	33044	
4202	0	32926	33002	
4203	0	32692	32992	
4204	0	32586	32887	
4205	0	32568	32721	
4206	0	32684	32628	
4207	0	32841	32704	
4208	0	33168	32660	
4209	0	33300	32502	
4210	0	33220	32510	
4211	0	33276	32596	
4212	0	33252	32615	
4213	0	32908	32728	
4214	0	32676	32700	
4215	0	32592	32678	
4216	0	32348	32647	
4217	0	32018	32679	
4218	0	31776	32664	
4219	0	32084	32800	
4220	0	32482	32833	
4221	0	32609	32918	
4222	0	32852	32824	
4223	0	33220	32836	
4224	0	33284	33069	
4225	0	33094	32977	
4226	0	33044	33040	
4227	0	33100	33016	
4228	0	32934	32968	
4229	0	32714	32827	
4230	0	32670	32519	
4231	0	32982	32470	
4232	0	33060	32372	
4233	0	33120	32390	
4234	0	32968	32668	
4235	0	32824	32711	
4236	0	32820	32881	
4237	0	32700	32935	
4238	0	32702	33031	
4239	0	32568	32910	
4240	0	32644	32824	
4241	0	32704	32892	
4242	0	32934	32892	
4243	0	32928	33012	
4244	0	32853	33058	
4245	0	32822	32900	
4246	0	32740	32850	
4247	0	32847	32740	
4248	0	32892	32710	
4249	0	32932	32800	
4250	0	32954	32708	
4251	0	32952	32598	
4252	0	32928	32623	
4253	0	32900	32506	
4254	0	32798	32474	
4255	0	32836	32526	
4256	0	32712	32535	
4257	0	32612	32569	
4258	0	32678	32696	
4259	0	32788	32740	
4260	0	32850	32655	
4261	0	32778	32774	
4262	0	32750	32584	
4263	0	32736	32652	
4264	0	32664	32798	
4265	0	32660	32862	
4266	0	32576	32858	
4267	0	32794	32836	
4268	0	32904	32888	
4269	0	32870	32894	
4270	0	32996	32836	
4271	0	32832	32796	
4272	0	32720	32914	
4273	0	32890	33046	
4274	0	32728	32988	
4275	0	32708	32902	
4276	0	32826	32770	
4277	0	32696	32822	
4278	0	32664	32774	
4279	0	32912	32814	
4280	0	33032	32912	
4281	0	32864	32798	
4282	0	32884	32848	
4283	0	32784	32804	
4284	0	32752	32858	
4285	0	32932	32679	
4286	0	32932	32720	
4287	0	32776	32932	
4288	0	32602	32992	
4289	0	32624	32992	
4290	0	32562	32775	
4291	0	32500	32680	
4292	0	32876	32672	
4293	0	33168	32738	
4294	0	33220	32825	
4295	0	33344	32684	
4296	0	33348	32679	
4297	0	33332	32674	
4298	0	33124	32654	
4299	0	32918	32548	
4300	0	32542	32540	
4301	0	32468	32539	
4302	0	32648	32564	
4303	0	32604	32647	
4304	0	32524	32662	
4305	0	32657	32816	
4306	0	32612	32911	
4307	0	32512	33044	
4308	0	32364	33306	
4309	0	32586	33399	
4310	0	33060	33398	
4311	0	33270	33439	
4312	0	33564	33466	
4313	0	33552	33396	
4314	0	32992	32908	
4315	0	32226	32382	
4316	0	31972	31962	
4317	0	32386	31802	
4318	0	32068	32020	
4319	0	32300	31952	
4320	0	32772	31700	
4321	0	32952	31623	
4322	0	32940	31996	
4323	0	32692	32350	
4324	0	32452	32754	
4325	0	32484	33000	
4326	0	32720	32956	
4327	0	32960	33062	
4328	0	33048	33262	
4329	0	33128	33140	
4330	0	33068	33504	
4331	0	33014	33588	
4332	0	33104	33718	
4333	0	33108	33982	
4334	0	32988	33992	
4335	0	32876	33728	
4336	0	32848	33460	
4337	0	32858	33114	
4338	0	32828	32558	
4339	0	32708	32015	
4340	0	32622	31614	
4341	0	32620	31118	
4342	0	32740	31058	
4343	0	32900	31208	
4344	0	32880	31462	
4345	0	32834	31594	
4346	0	33008	31956	
4347	0	33084	32599	
4348	0	33064	33038	
4349	0	33046	33287	
4350	0	32968	33455	
4351	0	32860	33558	
4352	0	32918	33574	
4353	0	32732	33516	
4354	0	32668	33316	
4355	0	32670	33351	
4356	0	32846	33327	
4357	0	32862	33252	
4358	0	32716	33004	
4359	0	32736	32786	
4360	0	32746	32742	
4361	0	32820	32788	
4362	0	32820	32862	
4363	0	32706	32624	
4364	0	32736	32652	
4365	0	32944	32888	
4366	0	32880	32854	
4367	0	32830	32775	
4368	0	32736	32680	
4369	0	32874	32916	
4370	0	32952	33178	
4371	0	32968	33234	
4372	0	33022	33188	
4373	0	32878	33031	
4374	0	32568	32828	
4375	0	32538	32668	
4376	0	32580	32612	
4377	0	32885	32582	
4378	0	32934	32558	
4379	0	33156	32326	
4380	0	33136	32056	
4381	0	33018	32100	
4382	0	33016	32177	
4383	0	32932	32227	
4384	0	32588	32438	
4385	0	32546	32542	
4386	0	32748	32674	
4387	0	32812	32727	
4388	0	32849	32744	
4389	0	32660	32775	
4390	0	32468	32794	
4391	0	32612	32943	
4392	0	32744	32788	
4393	0	32648	32775	
4394	0	32632	32964	
4395	0	32506	32993	
4396	0	32596	33320	
4397	0	32792	33826	
4398	0	32960	33628	
4399	0	32976	33380	
4400	0	33052	33156	
4401	0	33096	32964	
4402	0	32858	32722	
4403	0	32644	32606	
4404	0	32762	32188	
4405	0	32866	32039	
4406	0	33012	31840	
4407	0	32948	31874	
4408	0	32900	32135	
4409	0	32832	32334	
4410	0	32712	32614	
4411	0	32708	32836	
4412	0	32830	32984	
4413	0	32736	32807	
4414	0	32696	32918	
4415	0	32808	33339	
4416	0	32912	33924	
4417	0	32964	34394	
4418	0	33116	34638	
4419	0	33300	35126	
4420	0	32986	34620	
4421	0	32804	34334	
4422	0	32556	33760	
4423	0	32172	33593	
4424	0	32088	33175	
4425	0	32222	32044	
4426	0	32504	30960	
4427	0	32270	29696	
4428	0	32453	28864	
4429	0	32964	28739	
4430	0	33140	29282	
4431	0	32858	29870	
4432	0	32876	30524	
4433	0	32896	31254	
4434	0	32976	31782	
4435	0	33116	32678	
4436	0	33364	33394	
4437	0	33514	34204	
4438	0	33440	34446	
4439	0	33476	34992	
4440	0	33846	35332	
4441	0	33402	35144	
4442	0	33104	35015	
4443	0	32382	34942	
4444	0	31880	34532	
4445	0	31424	34076	
4446	0	31002	33356	
4447	0	31968	32858	
4448	0	32390	32207	
4449	0	32732	31644	
4450	0	33124	30873	
4451	0	33024	30550	
4452	0	33156	30582	
4453	0	33156	30975	
4454	0	33136	31326	
4455	0	32920	32026	
4456	0	32814	32428	
4457	0	32914	33062	
4458	0	32916	33530	
4459	0	32888	33962	
4460	0	32896	34088	
4461	0	32916	34023	
4462	0	32928	33860	
4463	0	32936	33740	
4464	0	32936	33415	
4465	0	32884	33455	
4466	0	32926	33443	
4467	0	32936	33624	
4468	0	32934	33432	
4469	0	32834	33244	
4470	0	32828	33132	
4471	0	32804	33194	
4472	0	32876	33075	
4473	0	32896	32486	
4474	0	32884	31799	
4475	0	32904	31492	
4476	0	32830	31322	
4477	0	32840	31126	
4478	0	32760	31316	
4479	0	32510	31310	
4480	0	32528	31676	
4481	0	32548	32112	
4482	0	32590	32879	
4483	0	32708	33350	
4484	0	32854	33537	
4485	0	32916	33818	
4486	0	32928	34152	
4487	0	32886	33966	
4488	0	33210	33880	
4489	0	33224	34830	
4490	0	33428	34823	
4491	0	33466	34086	
4492	0	33158	33468	
4493	0	32446	32932	
4494	0	32424	32454	
4495	0	32332	31821	
4496	0	32340	31111	
4497	0	32098	30436	
4498	0	31992	30122	
4499	0	32072	30336	
4500	0	32340	30418	
4501	0	32668	30716	
4502	0	32912	31207	
4503	0	33192	31634	
4504	0	32792	32186	
4505	0	32848	32391	
4506	0	33032	32874	
4507	0	33096	33489	
4508	0	33268	33998	
4509	0	33220	34230	
4510	0	33090	34260	
4511	0	33018	34198	
4512	0	32920	33968	
4513	0	32888	34038	
4514	0	32848	33719	
4515	0	32864	33388	
4516	0	32834	33286	
4517	0	32769	33052	
4518	0	32761	33050	
4519	0	32644	33020	
4520	0	32640	32942	
4521	0	32653	32876	
4522	0	32724	32674	
4523	0	32632	32700	
4524	0	32654	32952	
4525	0	32810	33602	
4526	0	33126	33821	
4527	0	33200	33748	
4528	0	33256	33500	
4529	0	33104	33218	
4530	0	33122	33092	
4531	0	33046	33116	
4532	0	32756	33336	
4533	0	32452	33048	
4534	0	32184	32388	
4535	0	32136	31908	
4536	0	32132	32007	
4537	0	32402	31658	
4538	0	32854	31332	
4539	0	33096	30845	
4540	0	32760	30228	
4541	0	32860	29830	
4542	0	32848	29872	
4543	0	32724	31076	
4544	0	32874	32536	
4545	0	32944	34068	
4546	0	33080	35502	
4547	0	33152	35950	
4548	0	33154	35138	
4549	0	33084	35150	
4550	0	32964	34922	
4551	0	32784	34455	
4552	0	32712	33648	
4553	0	32646	33072	
4554	0	32632	32102	
4555	0	32608	31143	
4556	0	32796	30394	
4557	0	32926	29990	
4558	0	32872	29868	
4559	0	32782	30056	
4560	0	32840	30519	
4561	0	32868	30914	
4562	0	32720	31676	
4563	0	32672	32247	
4564	0	32712	32760	
4565	0	32862	33180	
4566	0	32828	33608	
4567	0	32790	33858	
4568	0	32800	34370	
4569	0	32826	34602	
4570	0	32948	34512	
4571	0	33076	34356	
4572	0	33348	34282	
4573	0	33556	33834	
4574	0	33244	33368	
4575	0	33120	33192	
4576	0	32616	33043	
4577	0	31940	33258	
4578	0	32046	33311	
4579	0	32616	33338	
4580	0	32482	33412	
4581	0	32357	33391	
4582	0	32260	33566	
4583	0	32062	33813	
4584	0	32700	33946	
4585	0	33080	33984	
4586	0	33024	33258	
4587	0	33200	32300	
4588	0	33560	31832	
4589	0	33328	31840	
4590	0	32962	32124	
4591	0	32702	32175	
4592	0	32660	32014	
4593	0	32824	31524	
4594	0	32700	30808	
4595	0	32784	30922	
4596	0	32789	31852	
4597	0	32746	32060	
4598	0	32796	31694	
4599	0	32898	31620	
4600	0	32994	32006	
4601	0	33030	32612	
4602	0	32902	33918	
4603	0	32808	34839	
4604	0	32834	34930	
4605	0	32974	35002	
4606	0	33072	33970	
4607	0	32988	33076	
4608	0	32858	33310	
4609	0	32502	33127	
4610	0	32074	32716	
4611	0	32256	31591	
4612	0	32364	30024	
4613	0	32592	29008	
4614	0	32910	28743	
4615	0	33099	29447	
4616	0	33064	30366	
4617	0	33176	30882	
4618	0	32884	31572	
4619	0	32677	31856	
4620	0	32614	32304	
4621	0	32608	33268	
4622	0	32745	33956	
4623	0	32941	34414	
4624	0	33072	34998	
4625	0	33016	34884	
4626	0	32988	34976	
4627	0	32926	34864	
4628	0	33006	34768	
4629	0	32966	34456	
4630	0	32812	34244	
4631	0	32801	34024	
4632	0	32804	35260	
4633	0	32776	34912	
4634	0	32800	34248	
4635	0	32812	34183	
4636	0	32756	33707	
4637	0	32788	33700	
4638	0	32808	33411	
4639	0	32808	32166	
4640	0	32852	30880	
4641	0	32876	30048	
4642	0	32848	29860	
4643	0	32784	29981	
4644	0	32862	30236	
4645	0	32908	30228	
4646	0	32872	30620	
4647	0	32868	31445	
4648	0	32770	32284	
4649	0	32738	33118	
4650	0	32768	34632	
4651	0	32836	36398	
4652	0	32804	36770	
4653	0	32742	36066	
4654	0	32804	35448	
4655	0	32968	35002	
4656	0	32728	34084	
4657	0	32596	32790	
4658	0	32712	31524	
4659	0	32392	30074	
4660	0	32452	28991	
4661	0	32868	28376	
4662	0	33162	28334	
4663	0	33024	28840	
4664	0	32926	30454	
4665	0	33024	31966	
4666	0	32592	33256	
4667	0	32384	34132	
4668	0	32562	34862	
4669	0	32868	34892	
4670	0	32776	34792	
4671	0	32868	34580	
4672	0	32910	33977	
4673	0	32928	33287	
4674	0	32988	32684	
4675	0	32930	32316	
4676	0	32938	32150	
4677	0	32888	32372	
4678	0	32876	32719	
4679	0	32789	33384	
4680	0	32848	33558	
4681	0	32874	34258	
4682	0	32864	34518	
4683	0	32796	34262	
4684	0	32808	34055	
4685	0	32896	33700	
4686	0	32781	33721	
4687	0	32740	33329	
4688	0	32620	32404	
4689	0	32606	31727	
4690	0	32684	31910	
4691	0	32796	32694	
4692	0	32796	32916	
4693	0	32808	32340	
4694	0	32718	32232	
4695	0	32748	32018	
4696	0	32686	32550	
4697	0	32648	32664	
4698	0	32700	32942	
4699	0	32864	33647	
4700	0	32968	32556	
4701	0	32884	31551	
4702	0	32780	30896	
4703	0	32928	31006	
4704	0	32892	31558	
4705	0	32968	31956	
4706	0	32901	32295	
4707	0	32896	32291	
4708	0	32896	33092	
4709	0	32812	32924	
4710	0	32724	31731	
4711	0	32536	31050	
4712	0	32764	31207	
4713	0	32820	31404	
4714	0	32924	31602	
4715	0	32896	31879	
4716	0	32816	32350	
4717	0	32894	32612	
4718	0	32928	32562	
4719	0	32980	32601	
4720	0	32840	33108	
4721	0	32818	33696	
4722	0	32864	33876	
4723	0	32996	34636	
4724	0	32860	34670	
4725	0	32746	34439	
4726	0	32550	34402	
4727	0	32444	34832	
4728	0	32552	34518	
4729	0	32616	34986	
4730	0	32680	34730	
4731	0	32896	34218	
4732	0	33104	33980	
4733	0	33016	33276	
4734	0	32920	33414	
4735	0	32857	32968	
4736	0	32842	31560	
4737	0	32764	32161	
4738	0	32764	32546	
4739	0	32680	31463	
4740	0	32670	31076	
4741	0	32654	30490	
4742	0	32630	31015	
4743	0	32660	31524	
4744	0	32736	31966	
4745	0	33030	32460	
4746	0	33218	32016	
4747	0	33284	31934	
4748	0	33260	31641	
4749	0	33140	31136	
4750	0	33088	30828	
4751	0	32846	31094	
4752	0	32768	31892	
4753	0	32666	32852	
4754	0	32550	33961	
4755	0	32608	35905	
4756	0	32720	37726	
4757	0	32950	37308	
4758	0	32854	36342	
4759	0	32496	35927	
4760	0	32478	35796	
4761	0	32408	34364	
4762	0	32422	32756	
4763	0	32512	31215	
4764	0	32640	30574	
4765	0	32820	30092	
4766	0	32917	29714	
4767	0	33090	29581	
4768	0	33180	29054	
4769	0	33180	28844	
4770	0	32956	29090	
4771	0	32828	29328	
4772	0	32724	29558	
4773	0	32788	30118	
4774	0	32540	31644	
4775	0	32384	32988	
4776	0	32460	34768	
4777	0	32876	36880	
4778	0	32958	36946	
4779	0	32940	37068	
4780	0	32974	36388	
4781	0	32903	35174	
4782	0	32724	34068	
4783	0	32692	33135	
4784	0	32648	32700	
4785	0	32852	32888	
4786	0	32932	33127	
4787	0	32912	32918	
4788	0	33157	32316	
4789	0	32872	32052	
4790	0	33084	33418	
4791	0	33120	34045	
4792	0	33100	33403	
4793	0	32996	33818	
4794	0	33116	33148	
4795	0	33178	31914	
4796	0	33088	30657	
4797	0	32996	30204	
4798	0	32996	30970	
4799	0	33278	32454	
4800	0	33348	32999	
4801	0	33160	32647	
4802	0	32862	32354	
4803	0	32386	32391	
4804	0	32324	33594	
4805	0	32082	36020	
4806	0	32101	38996	
4807	0	32268	39430	
4808	0	32022	36764	
4809	0	31948	34270	
4810	0	32164	32338	
4811	0	32388	29972	
4812	0	32598	26688	
4813	0	32806	24092	
4814	0	32870	23172	
4815	0	32700	24104	
4816	0	32808	25790	
4817	0	32772	27300	
4818	0	32926	28818	
4819	0	33244	31044	
4820	0	32960	33692	
4821	0	32612	35903	
4822	0	32436	37276	
4823	0	32420	37758	
4824	0	32544	38044	
4825	0	32730	37880	
4826	0	32912	37536	
4827	0	32920	36359	
4828	0	33018	36156	
4829	0	32960	35941	
4830	0	32996	35686	
4831	0	33048	34808	
4832	0	33006	34122	
4833	0	33074	33447	
4834	0	32968	32872	
4835	0	32922	32100	
4836	0	32836	31654	
4837	0	32844	31382	
4838	0	32968	31398	
4839	0	32978	30844	
4840	0	33132	30638	
4841	0	33154	30762	
4842	0	33248	31124	
4843	0	33242	31579	
4844	0	33092	31820	
4845	0	32932	31668	
4846	0	32644	32007	
4847	0	32516	32913	
4848	0	32276	33330	
4849	0	32138	33790	
4850	0	32440	33788	
4851	0	32752	33968	
4852	0	32960	33828	
4853	0	33068	33760	
4854	0	33020	33744	
4855	0	33144	33796	
4856	0	33067	33880	
4857	0	32880	33958	
4858	0	32560	36952	
4859	0	32412	38254	
4860	0	32344	36174	
4861	0	32436	34012	
4862	0	32614	32260	
4863	0	32768	31114	
4864	0	32776	29748	
4865	0	32872	27864	
4866	0	32802	25800	
4867	0	32874	24748	
4868	0	32856	25438	
4869	0	32744	26517	
4870	0	32750	27532	
4871	0	32848	29029	
4872	0	32848	30944	
4873	0	32872	33456	
4874	0	32780	36100	
4875	0	32722	38146	
4876	0	32740	38662	
4877	0	32510	38134	
4878	0	32572	36854	
4879	0	32678	35378	
4880	0	32956	34980	
4881	0	33086	34482	
4882	0	33098	33975	
4883	0	33044	33690	
4884	0	33010	33326	
4885	0	33008	34162	
4886	0	32856	34200	
4887	0	32800	33650	
4888	0	32924	32896	
4889	0	33004	31656	
4890	0	33076	31550	
4891	0	33246	31982	
4892	0	33180	32046	
4893	0	33292	31812	
4894	0	33400	32026	
4895	0	33248	32148	
4896	0	33120	32191	
4897	0	32952	32812	
4898	0	32790	32935	
4899	0	32640	32834	
4900	0	32508	33670	
4901	0	32406	34298	
4902	0	32352	33896	
4903	0	32184	33416	
4904	0	32172	32486	
4905	0	31900	31452	
4906	0	32038	30780	
4907	0	31892	30542	
4908	0	31964	30406	
4909	0	32004	30066	
4910	0	32448	30398	
4911	0	32888	30708	
4912	0	32972	30686	
4913	0	33030	30994	
4914	0	33440	32448	
4915	0	33316	33642	
4916	0	33316	34292	
4917	0	33124	34980	
4918	0	32900	35718	
4919	0	32852	35335	
4920	0	32956	34566	
4921	0	33038	33368	
4922	0	33006	32672	
4923	0	32872	32327	
4924	0	32954	31778	
4925	0	33052	31614	
4926	0	32932	32212	
4927	0	32710	32604	
4928	0	32808	33044	
4929	0	33032	33732	
4930	0	33084	34208	
4931	0	33030	34572	
4932	0	32770	35462	
4933	0	32756	36218	
4934	0	32716	36455	
4935	0	32716	35390	
4936	0	32790	34448	
4937	0	32788	32878	
4938	0	32808	31910	
4939	0	32804	31515	
4940	0	32858	31550	
4941	0	32848	31406	
4942	0	32828	30782	
4943	0	32844	31060	
4944	0	32846	30562	
4945	0	32804	29838	
4946	0	32820	30002	
4947	0	32779	31604	
4948	0	32772	31688	
4949	0	32758	31924	
4950	0	32740	33028	
4951	0	32788	33406	
4952	0	32776	33103	
4953	0	32764	32720	
4954	0	32756	32815	
4955	0	32796	32775	
4956	0	32826	32998	
4957	0	32824	32846	
4958	0	32820	32047	
4959	0	32812	31464	
4960	0	32872	31703	
4961	0	32980	32627	
4962	0	32935	32775	
4963	0	32952	32374	
4964	0	33064	32450	
4965	0	32886	32800	
4966	0	32808	33536	
4967	0	32844	33920	
4968	0	32885	34300	
4969	0	32972	34188	
4970	0	33016	34204	
4971	0	33034	34302	
4972	0	33050	34410	
4973	0	32704	34692	
4974	0	32506	34722	
4975	0	32180	34466	
4976	0	32052	34040	
4977	0	32358	34184	
4978	0	32452	34215	
4979	0	32438	33062	
4980	0	32408	32642	
4981	0	32436	31920	
4982	0	32588	30796	
4983	0	32916	30215	
4984	0	32968	30774	
4985	0	33092	32200	
4986	0	33136	32060	
4987	0	33076	31441	
4988	0	33046	31062	
4989	0	33074	30652	
4990	0	33020	30384	
4991	0	33024	30530	
4992	0	32952	31168	
4993	0	32958	32082	
4994	0	32832	34632	
4995	0	32834	35977	
4996	0	32744	35264	
4997	0	32680	33588	
4998	0	32872	32375	
4999	0	32826	32092	
5000	0	32892	32304	
5001	0	32670	32036	
5002	0	32924	31150	
5003	0	33048	30911	
5004	0	33088	31094	
5005	0	33052	30944	
5006	0	33000	30706	
5007	0	33032	31638	
5008	0	32956	32738	
5009	0	32636	33694	
5010	0	32376	34756	
5011	0	32416	35362	
5012	0	32580	35388	
5013	0	32420	34956	
5014	0	32450	34444	
5015	0	32574	34404	
5016	0	32674	33892	
5017	0	32884	33832	
5018	0	32800	34026	
5019	0	32893	33494	
5020	0	32972	33016	
5021	0	32984	32846	
5022	0	32934	32756	
5023	0	32874	33799	
5024	0	32820	34144	
5025	0	32708	33600	
5026	0	32837	32682	
5027	0	32896	32794	
5028	0	32830	31824	
5029	0	32856	30681	
5030	0	32892	29887	
5031	0	32886	29350	
5032	0	33004	28952	
5033	0	33068	28996	
5034	0	33120	29831	
5035	0	33218	31093	
5036	0	33128	32404	
5037	0	33066	33296	
5038	0	32964	34244	
5039	0	32608	34978	
5040	0	32462	35558	
5041	0	32254	35206	
5042	0	32218	34588	
5043	0	32448	34487	
5044	0	32596	34518	
5045	0	32792	34692	
5046	0	32692	34311	
5047	0	32772	33962	
5048	0	32676	33543	
5049	0	32572	33730	
5050	0	32588	33962	
5051	0	32452	33488	
5052	0	32416	32448	
5053	0	32754	31202	
5054	0	32880	30087	
5055	0	33038	29580	
5056	0	33100	29173	
5057	0	33096	29372	
5058	0	33102	30023	
5059	0	33012	31103	
5060	0	32946	32504	
5061	0	32924	34402	
5062	0	32964	35370	
5063	0	32820	36924	
5064	0	32897	36942	
5065	0	32822	35702	
5066	0	32860	35028	
5067	0	32756	34230	
5068	0	32736	33696	
5069	0	32748	34072	
5070	0	32688	33594	
5071	0	32726	32156	
5072	0	32740	31654	
5073	0	32748	30524	
5074	0	32744	30156	
5075	0	32868	30390	
5076	0	32814	30702	
5077	0	32888	30576	
5078	0	32852	30158	
5079	0	32836	30206	
5080	0	32916	30422	
5081	0	32928	30624	
5082	0	32886	30934	
5083	0	32800	31608	
5084	0	32688	32888	
5085	0	32748	34010	
5086	0	32750	34800	
5087	0	32678	34887	
5088	0	32572	34662	
5089	0	32584	34386	
5090	0	32676	34452	
5091	0	32689	33748	
5092	0	32776	32998	
5093	0	32794	32375	
5094	0	32976	32062	
5095	0	32938	32208	
5096	0	32980	32332	
5097	0	32964	32564	
5098	0	32942	32960	
5099	0	32944	33031	
5100	0	32864	33312	
5101	0	32864	33671	
5102	0	32792	34176	
5103	0	32784	34020	
5104	0	32810	33660	
5105	0	32752	33333	
5106	0	32744	33031	
5107	0	32752	32870	
5108	0	32746	32658	
5109	0	32776	32450	
5110	0	32708	32364	
5111	0	32834	32574	
5112	0	32896	32610	
5113	0	32864	32695	
5114	0	32888	32806	
5115	0	32788	32796	
5116	0	32802	32852	
5117	0	32764	32806	
5118	0	32758	32871	
5119	0	32808	32647	
5120	0	32728	32730	
5121	0	32704	32710	
5122	0	32798	32796	
5123	0	32776	32807	
5124	0	32872	32900	
5125	0	32908	33084	
5126	0	33002	33046	
5127	0	32896	32858	
5128	0	32740	32883	
5129	0	32794	33164	
5130	0	32820	33287	
5131	0	32808	32815	
5132	0	32776	34792	
5133	0	32808	35662	
5134	0	32794	35044	
5135	0	32778	35876	
5136	0	32708	34396	
5137	0	32720	32898	
5138	0	32736	32903	
5139	0	32744	31900	
5140	0	32736	31356	
5141	0	32804	30318	
5142	0	32822	29204	
5143	0	32808	28860	
5144	0	32900	28540	
5145	0	33020	28380	
5146	0	32960	28418	
5147	0	32868	28588	
5148	0	32766	28960	
5149	0	32754	29766	
5150	0	32720	31488	
5151	0	32719	33202	
5152	0	32774	34076	
5153	0	32724	35092	
5154	0	32764	35712	
5155	0	32820	35563	
5156	0	32794	35534	
5157	0	32816	35228	
5158	0	32852	35015	
5159	0	32896	34372	
5160	0	32824	33841	
5161	0	32912	33548	
5162	0	32870	33267	
5163	0	32812	33430	
5164	0	32778	33566	
5165	0	32828	33632	
5166	0	32838	33382	
5167	0	32834	33166	
5168	0	32688	32930	
5169	0	32734	32807	
5170	0	32676	32826	
5171	0	32768	32844	
5172	0	32808	32769	
5173	0	32844	32722	
5174	0	32902	32746	
5175	0	32862	32742	
5176	0	32852	32708	
5177	0	32763	32647	
5178	0	32778	32596	
5179	0	32862	32654	
5180	0	32706	32766	
5181	0	32832	32752	
5182	0	32876	32716	
5183	0	32874	32742	
5184	0	32768	32655	
5185	0	32762	32534	
5186	0	32748	32704	
5187	0	32836	32690	
5188	0	32838	32686	
5189	0	32784	32604	
5190	0	32850	32807	
5191	0	32812	33308	
5192	0	32872	33606	
5193	0	32820	33838	
5194	0	32820	33526	
5195	0	32878	32938	
5196	0	32812	33670	
5197	0	32840	33396	
5198	0	32902	32775	
5199	0	32845	32142	
5200	0	32860	31708	
5201	0	32864	30940	
5202	0	32780	30528	
5203	0	32876	30460	
5204	0	32900	30954	
5205	0	32864	32252	
5206	0	32868	34364	
5207	0	32948	34343	
5208	0	32802	33638	
5209	0	32772	33308	
5210	0	32828	33276	
5211	0	32684	33352	
5212	0	32848	32984	
5213	0	32776	32936	
5214	0	32726	33159	
5215	0	32660	32844	
5216	0	32748	32526	
5217	0	32788	32164	
5218	0	32868	31148	
5219	0	32820	30804	
5220	0	32830	30663	
5221	0	32846	30828	
5222	0	32912	31052	
5223	0	32921	31157	
5224	0	32844	31516	
5225	0	32800	32316	
5226	0	32696	33196	
5227	0	32700	33689	
5228	0	32784	33934	
5229	0	32772	34348	
5230	0	32802	34436	
5231	0	32814	34366	
5232	0	32832	34708	
5233	0	32860	34820	
5234	0	32808	34266	
5235	0	32756	33584	
5236	0	32770	33450	
5237	0	32766	33100	
5238	0	32744	32878	
5239	0	32832	32690	
5240	0	32888	32767	
5241	0	32892	32818	
5242	0	32842	32775	
5243	0	32868	32516	
5244	0	32894	32400	
5245	0	32932	32412	
5246	0	32980	32416	
5247	0	32916	32367	
5248	0	32948	32292	
5249	0	32864	32756	
5250	0	32688	32730	
5251	0	32654	32815	
5252	0	32614	32940	
5253	0	32680	33574	
5254	0	32688	33335	
5255	0	32808	33106	
5256	0	32812	32903	
5257	0	32804	32908	
5258	0	32906	32958	
5259	0	32812	33412	
5260	0	32868	33310	
5261	0	32884	32638	
5262	0	32820	31884	
5263	0	32821	32994	
5264	0	32816	32859	
5265	0	32796	32444	
5266	0	32892	31980	
5267	0	32920	31958	
5268	0	32804	31262	
5269	0	32794	31050	
5270	0	32774	30960	
5271	0	32752	30951	
5272	0	32730	31154	
5273	0	32812	32054	
5274	0	32744	32804	
5275	0	32834	33232	
5276	0	32836	32986	
5277	0	32806	32934	
5278	0	32716	33094	
5279	0	32876	32950	
5280	0	32764	32920	
5281	0	32776	34004	
5282	0	32822	34063	
5283	0	32832	33678	
5284	0	32820	33197	
5285	0	32848	33104	
5286	0	32856	32934	
5287	0	32846	33008	
5288	0	32736	32992	
5289	0	32776	33113	
5290	0	32768	32912	
5291	0	32824	33038	
5292	0	32892	32839	
5293	0	32784	32631	
5294	0	32870	32600	
5295	0	32880	33018	
5296	0	32868	33180	
5297	0	32796	33103	
5298	0	32820	33004	
5299	0	32764	33058	
5300	0	32780	32844	
5301	0	32836	32934	
5302	0	32774	32762	
5303	0	32800	32623	
5304	0	32768	32839	
5305	0	32756	33052	
5306	0	32736	32868	
5307	0	32804	32706	
5308	0	32832	32792	
5309	0	32820	32697	
5310	0	32688	32760	
5311	0	32796	33732	
5312	0	32756	33824	
5313	0	32868	33710	
5314	0	32834	33504	
5315	0	32780	33484	
5316	0	32768	33386	
5317	0	32770	33120	
5318	0	32794	32770	
5319	0	32740	32190	
5320	0	32818	32518	
5321	0	32812	32366	
5322	0	32868	31546	
5323	0	32912	31239	
5324	0	32956	30981	
5325	0	32918	31582	
5326	0	32892	32122	
5327	0	32789	31234	
5328	0	32656	31118	
5329	0	32744	31000	
5330	0	32908	31268	
5331	0	32948	31636	
5332	0	32852	32148	
5333	0	32820	32631	
5334	0	32756	33104	
5335	0	32762	33318	
5336	0	32738	32852	
5337	0	32740	32676	
5338	0	32700	32874	
5339	0	32708	32740	
5340	0	32741	32628	
5341	0	32836	32775	
5342	0	32810	33206	
5343	0	32790	33736	
5344	0	32852	34188	
5345	0	32882	34158	
5346	0	32802	34006	
5347	0	32736	34086	
5348	0	32736	33910	
5349	0	32784	33784	
5350	0	32784	33647	
5351	0	32742	33356	
5352	0	32754	33002	
5353	0	32760	32790	
5354	0	32750	32762	
5355	0	32780	32655	
5356	0	32868	32587	
5357	0	32788	32550	
5358	0	32832	32767	
5359	0	32820	32800	
5360	0	32830	32916	
5361	0	32820	32934	
5362	0	32746	32693	
5363	0	32716	32799	
5364	0	32876	32672	
5365	0	32884	32766	
5366	0	32960	32556	
5367	0	32896	32638	
5368	0	32808	32687	
5369	0	32778	32375	
5370	0	32876	32519	
5371	0	32890	33004	
5372	0	32916	33264	
5373	0	32958	33912	
5374	0	32918	34874	
5375	0	32916	35088	
5376	0	32886	34785	
5377	0	32812	33576	
5378	0	32872	32276	
5379	0	32744	31324	
5380	0	32794	31162	
5381	0	32928	32044	
5382	0	32860	31682	
5383	0	32840	30905	
5384	0	32856	30343	
5385	0	32808	30372	
5386	0	32720	30934	
5387	0	32792	31304	
5388	0	32712	30834	
5389	0	32704	30584	
5390	0	32756	30968	
5391	0	32688	32424	
5392	0	32740	33234	
5393	0	32752	33158	
5394	0	32760	32882	
5395	0	32832	32982	
5396	0	32868	33142	
5397	0	32852	33216	
5398	0	32828	33224	
5399	0	32848	33300	
5400	0	32740	33175	
5401	0	32774	33374	
5402	0	32728	33652	
5403	0	32700	33936	
5404	0	32792	34302	
5405	0	32770	34324	
5406	0	32780	34150	
5407	0	32810	33940	
5408	0	32798	33655	
5409	0	32816	33444	
5410	0	32808	33372	
5411	0	32704	33008	
5412	0	32824	32774	
5413	0	32796	32720	
5414	0	32897	32718	
5415	0	32868	32684	
5416	0	32996	32632	
5417	0	32980	32574	
5418	0	32932	32569	
5419	0	32860	32396	
5420	0	32698	32558	
5421	0	32764	32599	
5422	0	32714	32516	
5423	0	32682	32488	
5424	0	32684	32540	
5425	0	32736	32502	
5426	0	32840	32706	
5427	0	32810	32754	
5428	0	32808	32730	
5429	0	32868	32677	
5430	0	32872	32697	
5431	0	32846	32833	
5432	0	32902	32977	
5433	0	32900	32980	
5434	0	32856	32876	
5435	0	32882	33095	
5436	0	32926	33090	
5437	0	32878	33230	
5438	0	32976	33178	
5439	0	32846	32847	
5440	0	32806	32392	
5441	0	32804	32188	
5442	0	32812	32054	
5443	0	32860	31936	
5444	0	32944	31974	
5445	0	32872	31982	
5446	0	32842	32148	
5447	0	32776	32148	
5448	0	32776	32231	
5449	0	32824	32597	
5450	0	32828	32794	
5451	0	32762	32798	
5452	0	32856	33132	
5453	0	32834	33478	
5454	0	32804	33486	
5455	0	32828	33441	
5456	0	32732	33082	
5457	0	32768	32774	
5458	0	32896	32604	
5459	0	32836	32576	
5460	0	32848	32638	
5461	0	32822	32660	
5462	0	32692	32879	
5463	0	32752	32884	
5464	0	32748	32940	
5465	0	32752	32948	
5466	0	32798	32889	
5467	0	32684	32926	
5468	0	32828	32862	
5469	0	32804	32690	
5470	0	32864	32686	
5471	0	32836	32812	
5472	0	32792	33066	
5473	0	32776	33060	
5474	0	32776	32911	
5475	0	32774	32756	
5476	0	32764	32684	
5477	0	32752	32598	
5478	0	32770	32550	
5479	0	32804	32536	
5480	0	32798	32706	
5481	0	32746	32756	
5482	0	32720	32742	
5483	0	32708	32801	
5484	0	32836	32671	
5485	0	32776	32764	
5486	0	32860	32646	
5487	0	32928	32948	
5488	0	32884	32972	
5489	0	32960	32927	
5490	0	33000	33146	
5491	0	32924	33476	
5492	0	32952	33588	
5493	0	32824	33536	
5494	0	32896	33418	
5495	0	32960	33665	
5496	0	32876	33350	
5497	0	32872	32791	
5498	0	32832	32128	
5499	0	32872	31815	
5500	0	32878	31202	
5501	0	32746	30740	
5502	0	32860	30830	
5503	0	32888	30946	
5504	0	32714	31092	
5505	0	32706	31514	
5506	0	32761	32048	
5507	0	32788	32872	
5508	0	32736	33300	
5509	0	32696	34392	
5510	0	32766	34764	
5511	0	32800	34228	
5512	0	32768	33652	
5513	0	32820	33089	
5514	0	32814	32664	
5515	0	32832	32647	
5516	0	32794	32636	
5517	0	32868	32954	
5518	0	32794	33148	
5519	0	32770	33200	
5520	0	32850	33301	
5521	0	32804	33062	
5522	0	32770	32836	
5523	0	32824	33112	
5524	0	32784	33702	
5525	0	32858	33778	
5526	0	32796	33256	
5527	0	32718	32743	
5528	0	32725	32237	
5529	0	32772	31862	
5530	0	32720	32230	
5531	0	32780	32240	
5532	0	32792	32084	
5533	0	32842	32147	
5534	0	32848	32151	
5535	0	32856	32352	
5536	0	32856	32534	
5537	0	32924	32740	
5538	0	32960	32761	
5539	0	32948	32814	
5540	0	32968	32892	
5541	0	32992	33056	
5542	0	33028	33084	
5543	0	33024	33044	
5544	0	32932	33077	
5545	0	32960	32966	
5546	0	32866	32918	
5547	0	32848	33543	
5548	0	32830	33799	
5549	0	32836	33386	
5550	0	32824	32876	
5551	0	32920	32572	
5552	0	32956	32503	
5553	0	32984	32389	
5554	0	32904	32208	
5555	0	32788	31973	
5556	0	32718	32239	
5557	0	32756	32280	
5558	0	32714	32384	
5559	0	32722	32452	
5560	0	32640	32510	
5561	0	32560	32864	
5562	0	32500	33278	
5563	0	32546	33542	
5564	0	32400	33316	
5565	0	32516	33044	
5566	0	32604	33108	
5567	0	32620	33028	
5568	0	32724	33002	
5569	0	32682	33175	
5570	0	32698	33080	
5571	0	32688	33095	
5572	0	32700	32926	
5573	0	32850	32902	
5574	0	32876	32700	
5575	0	32908	32710	
5576	0	32880	32668	
5577	0	32884	32526	
5578	0	32778	32328	
5579	0	32862	32484	
5580	0	32996	32626	
5581	0	32888	32692	
5582	0	32900	32679	
5583	0	32878	32692	
5584	0	32882	32546	
5585	0	32808	32680	
5586	0	32824	32608	
5587	0	32800	32689	
5588	0	32878	32836	
5589	0	32774	32852	
5590	0	32802	32864	
5591	0	32828	32775	
5592	0	32804	32887	
5593	0	32836	32990	
5594	0	32886	32956	
5595	0	32834	33102	
5596	0	32780	33096	
5597	0	32788	32738	
5598	0	32816	32956	
5599	0	32788	32876	
5600	0	32868	32756	
5601	0	32816	33004	
5602	0	32842	32964	
5603	0	32820	32832	
5604	0	32836	32692	
5605	0	32812	32088	
5606	0	32806	31604	
5607	0	32776	31138	
5608	0	32824	31111	
5609	0	32804	31367	
5610	0	32798	31751	
5611	0	32852	32404	
5612	0	32878	32826	
5613	0	32798	33346	
5614	0	32860	33599	
5615	0	32824	33490	
5616	0	32885	33362	
5617	0	32860	33338	
5618	0	32880	33132	
5619	0	32822	32968	
5620	0	32760	32882	
5621	0	32808	33007	
5622	0	32772	32964	
5623	0	32782	33030	
5624	0	32816	33080	
5625	0	32768	33076	
5626	0	32780	33086	
5627	0	32762	32975	
5628	0	32828	32920	
5629	0	32676	32852	
5630	0	32888	32868	
5631	0	32854	32791	
5632	0	32900	33060	
5633	0	32884	33086	
5634	0	32840	32976	
5635	0	32762	32862	
5636	0	32860	33095	
5637	0	32854	33146	
5638	0	32836	32868	
5639	0	32920	32572	
5640	0	32808	32402	
5641	0	32778	32446	
5642	0	32748	33014	
5643	0	32718	32660	
5644	0	32804	32102	
5645	0	32860	31879	
5646	0	32834	31964	
5647	0	32808	31816	
5648	0	32856	31866	
5649	0	32872	32007	
5650	0	32936	32199	
5651	0	33024	32518	
5652	0	32844	32704	
5653	0	32868	32839	
5654	0	32820	32922	
5655	0	32808	33030	
5656	0	32784	33318	
5657	0	32800	33316	
5658	0	32876	33457	
5659	0	32864	33352	
5660	0	32832	33250	
5661	0	32768	33236	
5662	0	32836	33105	
5663	0	32812	33048	
5664	0	32804	33014	
5665	0	32750	32932	
5666	0	32665	32980	
5667	0	32724	32858	
5668	0	32739	32969	
5669	0	32748	33123	
5670	0	32776	33044	
5671	0	32824	32832	
5672	0	32752	32856	
5673	0	32824	32862	
5674	0	32821	32756	
5675	0	32844	32775	
5676	0	32800	32686	
5677	0	32782	32568	
5678	0	32798	32694	
5679	0	32828	32801	
5680	0	32932	32818	
5681	0	32868	32866	
5682	0	32802	32636	
5683	0	32836	32743	
5684	0	32744	32769	
5685	0	32774	32862	
5686	0	32672	32760	
5687	0	32672	32660	
5688	0	32844	32672	
5689	0	32760	32724	
5690	0	32768	32517	
5691	0	32714	32536	
5692	0	32832	32612	
5693	0	32832	32633	
5694	0	32776	32676	
5695	0	32878	32647	
5696	0	32856	32678	
5697	0	32848	32662	
5698	0	32870	32598	
5699	0	32844	32634	
5700	0	32814	32668	
5701	0	32808	32746	
5702	0	32776	32714	
5703	0	32746	32722	
5704	0	32774	32788	
5705	0	32822	32880	
5706	0	32746	32732	
5707	0	32864	32820	
5708	0	32728	32855	
5709	0	32772	32855	
5710	0	32808	32774	
5711	0	32770	32836	
5712	0	32792	32772	
5713	0	32832	32814	
5714	0	32800	32839	
5715	0	32832	32774	
5716	0	32848	32780	
5717	0	32857	32808	
5718	0	32872	32658	
5719	0	32848	32695	
5720	0	32824	32876	
5721	0	32792	32789	
5722	0	32760	32838	
5723	0	32768	32893	
5724	0	32790	32740	
5725	0	32772	32746	
5726	0	32736	32802	
5727	0	32764	32752	
5728	0	32738	32775	
5729	0	32772	32756	
5730	0	32761	32844	
5731	0	32828	33108	
5732	0	32800	33585	
5733	0	32936	33558	
5734	0	32928	33462	
5735	0	32790	33360	
5736	0	32764	32862	
5737	0	32714	32318	
5738	0	32760	31926	
5739	0	32746	31940	
5740	0	32908	32088	
5741	0	32922	32092	
5742	0	32848	32160	
5743	0	32928	32148	
5744	0	32800	32135	
5745	0	32788	32302	
5746	0	32856	32396	
5747	0	32752	32644	
5748	0	32868	32892	
5749	0	32832	33044	
5750	0	32846	33064	
5751	0	32768	33094	
5752	0	32792	33118	
5753	0	32772	33152	
5754	0	32761	32958	
5755	0	32840	32994	
5756	0	32824	32892	
5757	0	32800	32890	
5758	0	32840	32870	
5759	0	32858	32830	
5760	0	32828	32868	
5761	0	32860	32926	
5762	0	32828	32874	
5763	0	32716	32888	
5764	0	32820	32807	
5765	0	32794	32839	
5766	0	32744	32952	
5767	0	32832	32752	
5768	0	32834	32703	
5769	0	32856	32727	
5770	0	32793	32687	
5771	0	32832	32794	
5772	0	32830	32792	
5773	0	32834	32775	
5774	0	32780	32736	
5775	0	32864	32736	
5776	0	32820	32697	
5777	0	32880	32734	
5778	0	32808	32808	
5779	0	32792	32775	
5780	0	32796	32736	
5781	0	32768	32647	
5782	0	32698	32642	
5783	0	32816	32742	
5784	0	32796	32730	
5785	0	32788	32834	
5786	0	32892	32927	
5787	0	32832	32741	
5788	0	32716	32674	
5789	0	32852	32819	
5790	0	32894	32943	
5791	0	32776	33003	
5792	0	32760	32820	
5793	0	32748	32754	
5794	0	32769	32834	
5795	0	32856	32836	
5796	0	32852	32804	
5797	0	32736	32653	
5798	0	32746	32568	
5799	0	32870	32784	
5800	0	32938	32816	
5801	0	32840	32740	
5802	0	32828	32562	
5803	0	32796	32477	
5804	0	32844	32614	
5805	0	32850	32707	
5806	0	32802	32930	
5807	0	32824	32870	
5808	0	32810	32756	
5809	0	32736	32768	
5810	0	32760	32758	
5811	0	32716	32870	
5812	0	32798	32836	
5813	0	32860	32843	
5814	0	32780	32830	
5815	0	32836	32726	
5816	0	32832	32812	
5817	0	32836	32842	
5818	0	32832	32838	
5819	0	32780	32832	
5820	0	32860	32884	
5821	0	32878	32906	
5822	0	32790	32862	
5823	0	32828	32746	
5824	0	32764	32838	
5825	0	32736	32724	
5826	0	32708	32686	
5827	0	32716	32706	
5828	0	32712	32670	
5829	0	32832	32710	
5830	0	32756	32747	
5831	0	32788	32735	
5832	0	32838	32744	
5833	0	32928	32817	
5834	0	32836	32718	
5835	0	32876	32676	
5836	0	32898	32788	
5837	0	32888	32716	
5838	0	32768	32750	
5839	0	32768	32612	
5840	0	32782	32631	
5841	0	32848	32710	
5842	0	32896	32860	
5843	0	32830	32878	
5844	0	32756	32748	
5845	0	32766	32684	
5846	0	32729	32847	
5847	0	32804	32822	
5848	0	32764	32815	
5849	0	32812	32806	
5850	0	32804	32738	
5851	0	32734	32748	
5852	0	32764	32855	
5853	0	32840	32862	
5854	0	32872	32754	
5855	0	32808	32668	
5856	0	32696	32539	
5857	0	32928	32656	
5858	0	32904	32684	
5859	0	32808	32754	
5860	0	32828	32556	
5861	0	32812	32580	
5862	0	32828	32634	
5863	0	32802	32716	
5864	0	32876	32718	
5865	0	32866	32828	
5866	0	32884	32848	
5867	0	32768	32752	
5868	0	32756	32806	
5869	0	32806	32732	
5870	0	32808	32928	
5871	0	32742	32846	
5872	0	32824	32772	
5873	0	32754	32804	
5874	0	32920	32734	
5875	0	32820	32746	
5876	0	32836	32759	
5877	0	32860	32902	
5878	0	32854	32740	
5879	0	32766	32834	
5880	0	32836	32744	
5881	0	32868	32740	
5882	0	32870	32906	
5883	0	32828	32784	
5884	0	32800	32807	
5885	0	32678	32852	
5886	0	32764	32816	
5887	0	32832	32858	
5888	0	32788	32806	
5889	0	32776	32832	
5890	0	32775	32764	
5891	0	32762	32817	
5892	0	32832	32752	
5893	0	32794	32799	
5894	0	32804	32732	
5895	0	32860	32758	
5896	0	32816	32862	
5897	0	32844	32756	
5898	0	32836	32759	
5899	0	32878	32799	
5900	0	32775	32714	
5901	0	32768	32790	
5902	0	32860	32806	
5903	0	32740	32692	
5904	0	32740	32724	
5905	0	32828	32768	
5906	0	32844	32842	
5907	0	32664	32890	
5908	0	32784	32847	
5909	0	32798	32932	
5910	0	32826	32846	
5911	0	32844	32940	
5912	0	32868	32955	
5913	0	32772	32880	
5914	0	32908	32748	
5915	0	32872	32574	
5916	0	32772	32480	
5917	0	32728	32607	
5918	0	32812	32687	
5919	0	32880	32636	
5920	0	32814	32820	
5921	0	32748	32666	
5922	0	32812	32775	
5923	0	32856	32874	
5924	0	32872	32800	
5925	0	32808	32863	
5926	0	32760	32822	
5927	0	32774	32756	
5928	0	32830	32750	
5929	0	32808	32784	
5930	0	32774	32756	
5931	0	32792	32775	
5932	0	32844	32967	
5933	0	32864	32804	
5934	0	32858	32757	
5935	0	32796	32878	
5936	0	32844	32830	
5937	0	32840	32847	
5938	0	32840	32794	
5939	0	32846	32870	
5940	0	32736	32788	
5941	0	32788	32742	
5942	0	32810	32796	
5943	0	32790	32775	
5944	0	32792	32884	
5945	0	32792	32800	
5946	0	32664	32756	
5947	0	32810	32748	
5948	0	32812	32694	
5949	0	32832	32716	
5950	0	32804	32708	
5951	0	32766	32700	
5952	0	32812	32673	
5953	0	32810	32696	
5954	0	32792	32711	
5955	0	32820	32735	
5956	0	32846	32646	
5957	0	32860	32679	
5958	0	32874	32690	
5959	0	32844	32738	
5960	0	32824	32796	
5961	0	32796	32756	
5962	0	32844	32789	
5963	0	32828	32786	
5964	0	32788	32775	
5965	0	32736	32663	
5966	0	32744	32754	
5967	0	32808	32750	
5968	0	32826	32760	
5969	0	32768	32807	
5970	0	32804	32742	
5971	0	32806	32834	
5972	0	32862	32693	
5973	0	32824	32738	
5974	0	32840	32833	
5975	0	32832	32898	
5976	0	32830	32692	
5977	0	32792	32658	
5978	0	32820	32694	
5979	0	32860	32821	
5980	0	32854	32716	
5981	0	32762	32808	
5982	0	32832	32855	
5983	0	32844	32878	
5984	0	32856	32783	
5985	0	32792	32775	
5986	0	32804	32778	
5987	0	32760	32710	
5988	0	32760	32754	
5989	0	32762	32810	
5990	0	32802	32718	
5991	0	32822	32822	
5992	0	32816	32836	
5993	0	32836	32700	
5994	0	32757	32698	
5995	0	32918	32738	
5996	0	32802	32714	
5997	0	32888	32678	
5998	0	32952	32718	
5999	0	32796	32658	
6000	0	32812	32732	
6001	0	32821	32774	
6002	0	32796	32800	
6003	0	32780	32728	
6004	0	32729	32844	
6005	0	32788	32796	
6006	0	32778	32801	
6007	0	32696	32888	
6008	0	32748	32854	
6009	0	32794	32695	
6010	0	32728	32676	
6011	0	32792	32866	
6012	0	32926	32814	
