# OpenSignals Text File Format. Version 1
# {"00:07:80:8C:0A:39": {"position": 0, "device": "biosignalsplux", "device name": "00:07:80:8C:0A:39", "device connection": "BTH00:07:80:8C:0A:39", "sampling rate": 1000, "resolution": [16, 16], "firmware version": 776, "comments": "", "keywords": "", "mode": 0, "sync interval": 2, "date": "2023-3-10", "time": "15:43:3.708", "channels": [1, 2], "sensor": ["EMG", "EMG"], "label": ["CH1", "CH2"], "column": ["nSeq", "DI", "CH1", "CH2"], "special": [{"SpO2": [80, 40, 5, 4, 3, 3]}, {"SpO2": [80, 40, 5, 4, 3, 3]}, {"SpO2": [80, 40, 5, 4, 3, 3]}, {"SpO2": [80, 40, 5, 4, 3, 3]}, {"SpO2": [80, 40, 5, 4, 3, 3]}, {"SpO2": [80, 40, 5, 4, 3, 3]}, {"SpO2": [80, 40, 5, 4, 3, 3]}, {"SpO2": [80, 40, 5, 4, 3, 3]}], "digital IO": [0, 1], "sleeve color": ["gray", "yellow"], "convertedValues": 0}}
# EndOfHeader
0	0	32832	32834	
1	0	32872	32799	
2	0	32830	32775	
3	0	32800	32836	
4	0	32790	32858	
5	0	32860	32764	
6	0	32796	32823	
7	0	32784	32899	
8	0	32850	32834	
9	0	32848	32706	
10	0	32809	32744	
11	0	32804	32807	
12	0	32852	32790	
13	0	32788	32810	
14	0	32816	32790	
15	0	32760	32734	
16	0	32790	32752	
17	0	32760	32709	
18	0	32884	32804	
19	0	32832	32746	
20	0	32816	32732	
21	0	32792	32704	
22	0	32844	32738	
23	0	32848	32743	
24	0	32860	32720	
25	0	32852	32768	
26	0	32794	32782	
27	0	32780	32688	
28	0	32818	32686	
29	0	32808	32668	
30	0	32792	32870	
31	0	32772	32810	
32	0	32830	32730	
33	0	32802	32822	
34	0	32816	32775	
35	0	32816	32775	
36	0	32876	32808	
37	0	32832	32772	
38	0	32812	32738	
39	0	32878	32746	
40	0	32802	32817	
41	0	32808	32847	
42	0	32832	32852	
43	0	32780	32844	
44	0	32792	32808	
45	0	32834	32870	
46	0	32834	32718	
47	0	32808	32814	
48	0	32768	32788	
49	0	32780	32772	
50	0	32832	32788	
51	0	32768	32830	
52	0	32800	32775	
53	0	32808	32840	
54	0	32768	32796	
55	0	32816	32812	
56	0	32828	32864	
57	0	32808	32756	
58	0	32828	32766	
59	0	32796	32800	
60	0	32820	32766	
61	0	32856	32760	
62	0	32844	32847	
63	0	32800	32846	
64	0	32848	32790	
65	0	32788	32870	
66	0	32806	32732	
67	0	32812	32634	
68	0	32804	32728	
69	0	32800	32750	
70	0	32892	32740	
71	0	32728	32806	
72	0	32744	32792	
73	0	32750	32702	
74	0	32820	32758	
75	0	32800	32720	
76	0	32856	32794	
77	0	32792	32796	
78	0	32816	32822	
79	0	32840	32790	
80	0	32816	32788	
81	0	32772	32712	
82	0	32896	32772	
83	0	32768	32798	
84	0	32824	32848	
85	0	32824	32792	
86	0	32856	32832	
87	0	32782	32800	
88	0	32800	32836	
89	0	32792	32874	
90	0	32824	32808	
91	0	32782	32800	
92	0	32832	32858	
93	0	32808	32804	
94	0	32828	32746	
95	0	32780	32775	
96	0	32856	32771	
97	0	32820	32775	
98	0	32788	32836	
99	0	32802	32760	
100	0	32764	32735	
101	0	32782	32820	
102	0	32750	32816	
103	0	32748	32816	
104	0	32784	32741	
105	0	32736	32750	
106	0	32822	32664	
107	0	32792	32742	
108	0	32704	32871	
109	0	32666	32870	
110	0	32752	32800	
111	0	32728	32828	
112	0	32684	32794	
113	0	32764	32768	
114	0	32778	32736	
115	0	32696	32786	
116	0	32636	32882	
117	0	32656	32788	
118	0	32724	32895	
119	0	32692	32900	
120	0	32728	32834	
121	0	32768	32816	
122	0	32792	32830	
123	0	32778	32708	
124	0	32762	32712	
125	0	32776	32806	
126	0	32848	32825	
127	0	32872	32740	
128	0	32916	32716	
129	0	32936	32742	
130	0	32932	32752	
131	0	33090	32710	
132	0	33072	32628	
133	0	33202	32628	
134	0	33232	32622	
135	0	33240	32518	
136	0	33296	32534	
137	0	33300	32598	
138	0	33266	32591	
139	0	33264	32604	
140	0	33200	32660	
141	0	33080	32800	
142	0	32932	32831	
143	0	32850	32840	
144	0	32778	32845	
145	0	32686	32854	
146	0	32506	32858	
147	0	32544	32850	
148	0	32544	32796	
149	0	32556	32766	
150	0	32532	32884	
151	0	32508	32870	
152	0	32512	32820	
153	0	32556	32836	
154	0	32680	32784	
155	0	32618	32738	
156	0	32716	32847	
157	0	32708	32798	
158	0	32730	32823	
159	0	32756	32790	
160	0	32724	32756	
161	0	32780	32742	
162	0	32840	32696	
163	0	32744	32711	
164	0	32812	32865	
165	0	32818	32881	
166	0	32812	32848	
167	0	32760	32820	
168	0	32788	32756	
169	0	32788	32824	
170	0	32780	32868	
171	0	32836	32721	
172	0	32820	32642	
173	0	32822	32743	
174	0	32816	32828	
175	0	32760	32879	
176	0	32794	32855	
177	0	32842	32844	
178	0	32836	32760	
179	0	32854	32789	
180	0	32816	32792	
181	0	32798	32804	
182	0	32852	32760	
183	0	32840	32870	
184	0	32808	32792	
185	0	32872	32768	
186	0	32824	32680	
187	0	32808	32634	
188	0	32752	32750	
189	0	32804	32822	
190	0	32824	32836	
191	0	32852	32704	
192	0	32800	32738	
193	0	32758	32712	
194	0	32812	32806	
195	0	32844	32768	
196	0	32848	32820	
197	0	32790	32804	
198	0	32839	32812	
199	0	32868	32757	
200	0	32830	32690	
201	0	32792	32716	
202	0	32784	32673	
203	0	32796	32762	
204	0	32804	32746	
205	0	32826	32752	
206	0	32786	32714	
207	0	32792	32726	
208	0	32752	32634	
209	0	32808	32690	
210	0	32780	32836	
211	0	32852	32738	
212	0	32778	32805	
213	0	32808	32760	
214	0	32880	32712	
215	0	32784	32692	
216	0	32868	32744	
217	0	32886	32816	
218	0	32836	32800	
219	0	32824	32775	
220	0	32828	32868	
221	0	32760	32854	
222	0	32826	32624	
223	0	32816	32711	
224	0	32778	32774	
225	0	32848	32740	
226	0	32788	32692	
227	0	32816	32750	
228	0	32802	32704	
229	0	32789	32775	
230	0	32852	32864	
231	0	32860	32796	
232	0	32768	32718	
233	0	32840	32710	
234	0	32800	32736	
235	0	32808	32824	
236	0	32864	32844	
237	0	32788	32724	
238	0	32758	32856	
239	0	32818	32732	
240	0	32768	32788	
241	0	32776	32648	
242	0	32832	32719	
243	0	32834	32839	
244	0	32828	32879	
245	0	32820	32734	
246	0	32792	32860	
247	0	32768	32832	
248	0	32760	32746	
249	0	32746	32726	
250	0	32860	32690	
251	0	32741	32750	
252	0	32824	32786	
253	0	32772	32714	
254	0	32834	32804	
255	0	32768	32804	
256	0	32816	32804	
257	0	32838	32702	
258	0	32790	32716	
259	0	32824	32860	
260	0	32806	32767	
261	0	32820	32810	
262	0	32794	32826	
263	0	32840	32804	
264	0	32832	32788	
265	0	32816	32720	
266	0	32824	32756	
267	0	32780	32804	
268	0	32754	32660	
269	0	32832	32734	
270	0	32816	32800	
271	0	32798	32874	
272	0	32766	32768	
273	0	32854	32782	
274	0	32820	32810	
275	0	32776	32904	
276	0	32864	32775	
277	0	32836	32662	
278	0	32788	32734	
279	0	32880	32760	
280	0	32810	32724	
281	0	32860	32831	
282	0	32824	32736	
283	0	32824	32732	
284	0	32776	32807	
285	0	32764	32766	
286	0	32820	32742	
287	0	32804	32846	
288	0	32794	32812	
289	0	32838	32694	
290	0	32785	32775	
291	0	32816	32816	
292	0	32822	32732	
293	0	32770	32762	
294	0	32798	32856	
295	0	32826	32704	
296	0	32736	32764	
297	0	32848	32742	
298	0	32792	32748	
299	0	32844	32775	
300	0	32804	32838	
301	0	32808	32764	
302	0	32818	32800	
303	0	32868	32775	
304	0	32808	32750	
305	0	32816	32696	
306	0	32794	32814	
307	0	32760	32716	
308	0	32830	32758	
309	0	32834	32842	
310	0	32804	32844	
311	0	32804	32838	
312	0	32800	32754	
313	0	32776	32718	
314	0	32792	32663	
315	0	32818	32704	
316	0	32846	32862	
317	0	32814	32819	
318	0	32748	32760	
319	0	32820	32796	
320	0	32808	32758	
321	0	32804	32847	
322	0	32788	32782	
323	0	32816	32696	
324	0	32888	32730	
325	0	32720	32680	
326	0	32828	32726	
327	0	32894	32708	
328	0	32782	32932	
329	0	32844	32756	
330	0	32840	32798	
331	0	32892	32750	
332	0	32832	32746	
333	0	32808	32816	
334	0	32808	32866	
335	0	32832	32775	
336	0	32784	32692	
337	0	32828	32770	
338	0	32810	32825	
339	0	32808	32820	
340	0	32792	32764	
341	0	32812	32820	
342	0	32812	32824	
343	0	32848	32774	
344	0	32784	32712	
345	0	32832	32676	
346	0	32840	32714	
347	0	32736	32775	
348	0	32760	32804	
349	0	32804	32775	
350	0	32816	32836	
351	0	32788	32658	
352	0	32864	32654	
353	0	32836	32794	
354	0	32736	32754	
355	0	32804	32775	
356	0	32760	32708	
357	0	32828	32798	
358	0	32868	32820	
359	0	32788	32775	
360	0	32802	32766	
361	0	32862	32796	
362	0	32816	32748	
363	0	32872	32718	
364	0	32856	32792	
365	0	32798	32824	
366	0	32776	32772	
367	0	32804	32806	
368	0	32840	32762	
369	0	32808	32660	
370	0	32856	32716	
371	0	32876	32774	
372	0	32836	32730	
373	0	32858	32742	
374	0	32834	32716	
375	0	32798	32724	
376	0	32864	32736	
377	0	32814	32766	
378	0	32816	32830	
379	0	32904	32756	
380	0	32818	32830	
381	0	32860	32820	
382	0	32840	32740	
383	0	32800	32775	
384	0	32772	32775	
385	0	32842	32666	
386	0	32788	32794	
387	0	32828	32847	
388	0	32844	32650	
389	0	32808	32784	
390	0	32830	32694	
391	0	32802	32742	
392	0	32800	32764	
393	0	32800	32718	
394	0	32862	32700	
395	0	32816	32810	
396	0	32716	32788	
397	0	32888	32748	
398	0	32790	32804	
399	0	32840	32728	
400	0	32840	32634	
401	0	32816	32794	
402	0	32752	32759	
403	0	32768	32754	
404	0	32800	32764	
405	0	32816	32688	
406	0	32872	32800	
407	0	32788	32818	
408	0	32810	32709	
409	0	32812	32768	
410	0	32848	32663	
411	0	32836	32748	
412	0	32780	32828	
413	0	32796	32724	
414	0	32800	32738	
415	0	32812	32839	
416	0	32868	32888	
417	0	32816	32742	
418	0	32834	32666	
419	0	32800	32694	
420	0	32839	32664	
421	0	32822	32814	
422	0	32820	32812	
423	0	32788	32738	
424	0	32856	32828	
425	0	32748	32772	
426	0	32780	32756	
427	0	32804	32768	
428	0	32812	32775	
429	0	32732	32687	
430	0	32780	32775	
431	0	32820	32784	
432	0	32756	32818	
433	0	32788	32712	
434	0	32824	32654	
435	0	32856	32688	
436	0	32856	32704	
437	0	32800	32740	
438	0	32810	32775	
439	0	32784	32774	
440	0	32784	32732	
441	0	32782	32775	
442	0	32796	32866	
443	0	32820	32736	
444	0	32824	32740	
445	0	32796	32772	
446	0	32794	32706	
447	0	32786	32888	
448	0	32816	32822	
449	0	32808	32740	
450	0	32778	32830	
451	0	32768	32736	
452	0	32746	32768	
453	0	32764	32712	
454	0	32808	32804	
455	0	32760	32766	
456	0	32850	32864	
457	0	32801	32775	
458	0	32796	32710	
459	0	32832	32818	
460	0	32828	32770	
461	0	32800	32828	
462	0	32856	32698	
463	0	32848	32700	
464	0	32808	32684	
465	0	32800	32725	
466	0	32824	32684	
467	0	32874	32652	
468	0	32884	32852	
469	0	32768	32766	
470	0	32858	32802	
471	0	32792	32770	
472	0	32878	32832	
473	0	32808	32760	
474	0	32754	32764	
475	0	32784	32812	
476	0	32792	32815	
477	0	32816	32738	
478	0	32804	32748	
479	0	32846	32900	
480	0	32780	32878	
481	0	32796	32764	
482	0	32776	32806	
483	0	32832	32728	
484	0	32788	32794	
485	0	32820	32708	
486	0	32848	32700	
487	0	32856	32606	
488	0	32802	32770	
489	0	32792	32690	
490	0	32804	32842	
491	0	32796	32804	
492	0	32806	32708	
493	0	32792	32759	
494	0	32810	32718	
495	0	32850	32844	
496	0	32826	32798	
497	0	32796	32838	
498	0	32748	32814	
499	0	32824	32772	
500	0	32864	32756	
501	0	32864	32630	
502	0	32812	32744	
503	0	32762	32692	
504	0	32792	32692	
505	0	32788	32708	
506	0	32828	32714	
507	0	32800	32775	
508	0	32844	32774	
509	0	32860	32830	
510	0	32880	32810	
511	0	32812	32724	
512	0	32790	32782	
513	0	32792	32744	
514	0	32792	32828	
515	0	32774	32808	
516	0	32828	32708	
517	0	32804	32642	
518	0	32762	32772	
519	0	32796	32758	
520	0	32816	32830	
521	0	32774	32775	
522	0	32802	32775	
523	0	32804	32802	
524	0	32824	32764	
525	0	32824	32839	
526	0	32768	32788	
527	0	32768	32686	
528	0	32736	32660	
529	0	32750	32720	
530	0	32864	32768	
531	0	32836	32794	
532	0	32804	32678	
533	0	32794	32802	
534	0	32808	32752	
535	0	32812	32752	
536	0	32756	32835	
537	0	32874	32772	
538	0	32798	32700	
539	0	32804	32712	
540	0	32824	32738	
541	0	32822	32798	
542	0	32768	32816	
543	0	32836	32836	
544	0	32816	32774	
545	0	32816	32736	
546	0	32837	32650	
547	0	32730	32678	
548	0	32860	32846	
549	0	32824	32688	
550	0	32852	32704	
551	0	32816	32766	
552	0	32800	32814	
553	0	32856	32812	
554	0	32822	32916	
555	0	32788	32868	
556	0	32802	32704	
557	0	32852	32694	
558	0	32860	32836	
559	0	32810	32775	
560	0	32816	32886	
561	0	32822	32775	
562	0	32744	32724	
563	0	32775	32720	
564	0	32870	32670	
565	0	32820	32810	
566	0	32796	32746	
567	0	32796	32816	
568	0	32832	32706	
569	0	32778	32718	
570	0	32752	32702	
571	0	32822	32708	
572	0	32754	32766	
573	0	32798	32794	
574	0	32768	32775	
575	0	32780	32775	
576	0	32916	32785	
577	0	32834	32848	
578	0	32832	32748	
579	0	32812	32791	
580	0	32834	32792	
581	0	32792	32855	
582	0	32794	32748	
583	0	32832	32704	
584	0	32808	32688	
585	0	32804	32702	
586	0	32818	32775	
587	0	32816	32810	
588	0	32832	32822	
589	0	32808	32840	
590	0	32770	32770	
591	0	32784	32842	
592	0	32836	32710	
593	0	32772	32660	
594	0	32808	32718	
595	0	32784	32874	
596	0	32828	32808	
597	0	32832	32726	
598	0	32784	32806	
599	0	32850	32832	
600	0	32756	32686	
601	0	32856	32679	
602	0	32810	32792	
603	0	32722	32742	
604	0	32860	32647	
605	0	32784	32846	
606	0	32852	32788	
607	0	32766	32708	
608	0	32834	32784	
609	0	32884	32740	
610	0	32814	32702	
611	0	32792	32822	
612	0	32866	32806	
613	0	32820	32680	
614	0	32752	32818	
615	0	32746	32884	
616	0	32764	32674	
617	0	32840	32816	
618	0	32804	32858	
619	0	32892	32814	
620	0	32784	32766	
621	0	32814	32720	
622	0	32834	32762	
623	0	32772	32774	
624	0	32812	32720	
625	0	32864	32746	
626	0	32856	32790	
627	0	32780	32744	
628	0	32824	32639	
629	0	32860	32756	
630	0	32772	32734	
631	0	32820	32774	
632	0	32804	32780	
633	0	32824	32800	
634	0	32782	32734	
635	0	32784	32808	
636	0	32838	32736	
637	0	32800	32774	
638	0	32849	32782	
639	0	32808	32836	
640	0	32832	32775	
641	0	32820	32706	
642	0	32810	32768	
643	0	32820	32702	
644	0	32816	32872	
645	0	32824	32844	
646	0	32780	32831	
647	0	32864	32890	
648	0	32784	32748	
649	0	32852	32764	
650	0	32760	32756	
651	0	32826	32708	
652	0	32756	32814	
653	0	32816	32736	
654	0	32796	32774	
655	0	32818	32766	
656	0	32834	32766	
657	0	32784	32726	
658	0	32804	32710	
659	0	32828	32670	
660	0	32856	32830	
661	0	32788	32792	
662	0	32836	32838	
663	0	32796	32804	
664	0	32828	32832	
665	0	32804	32806	
666	0	32828	32800	
667	0	32820	32826	
668	0	32800	32768	
669	0	32762	32670	
670	0	32812	32866	
671	0	32792	32756	
672	0	32828	32751	
673	0	32810	32758	
674	0	32794	32760	
675	0	32820	32812	
676	0	32900	32748	
677	0	32836	32859	
678	0	32816	32796	
679	0	32794	32734	
680	0	32836	32788	
681	0	32828	32822	
682	0	32820	32692	
683	0	32844	32716	
684	0	32836	32696	
685	0	32792	32848	
686	0	32824	32878	
687	0	32760	32842	
688	0	32864	32694	
689	0	32812	32726	
690	0	32868	32832	
691	0	32816	32704	
692	0	32832	32718	
693	0	32844	32679	
694	0	32758	32716	
695	0	32808	32775	
696	0	32800	32814	
697	0	32858	32798	
698	0	32784	32772	
699	0	32852	32820	
700	0	32774	32820	
701	0	32804	32684	
702	0	32806	32656	
703	0	32816	32688	
704	0	32804	32855	
705	0	32806	32748	
706	0	32816	32758	
707	0	32782	32840	
708	0	32784	32732	
709	0	32796	32668	
710	0	32776	32828	
711	0	32832	32846	
712	0	32804	32842	
713	0	32876	32814	
714	0	32776	32750	
715	0	32792	32792	
716	0	32844	32836	
717	0	32832	32724	
718	0	32808	32788	
719	0	32862	32775	
720	0	32830	32742	
721	0	32804	32810	
722	0	32907	32780	
723	0	32762	32660	
724	0	32824	32798	
725	0	32834	32864	
726	0	32768	32708	
727	0	32888	32798	
728	0	32802	32878	
729	0	32796	32746	
730	0	32804	32756	
731	0	32852	32854	
732	0	32804	32732	
733	0	32798	32798	
734	0	32760	32820	
735	0	32822	32728	
736	0	32816	32754	
737	0	32838	32842	
738	0	32816	32772	
739	0	32828	32742	
740	0	32792	32634	
741	0	32808	32726	
742	0	32740	32775	
743	0	32794	32804	
744	0	32834	32728	
745	0	32788	32770	
746	0	32768	32742	
747	0	32850	32812	
748	0	32780	32728	
749	0	32830	32712	
750	0	32772	32806	
751	0	32824	32802	
752	0	32738	32708	
753	0	32772	32698	
754	0	32838	32752	
755	0	32816	32728	
756	0	32794	32836	
757	0	32848	32856	
758	0	32824	32846	
759	0	32746	32832	
760	0	32816	32680	
761	0	32824	32732	
762	0	32832	32676	
763	0	32792	32850	
764	0	32776	32866	
765	0	32790	32784	
766	0	32802	32802	
767	0	32768	32758	
768	0	32884	32894	
769	0	32804	32775	
770	0	32854	32702	
771	0	32812	32826	
772	0	32866	32804	
773	0	32810	32614	
774	0	32836	32876	
775	0	32840	32788	
776	0	32810	32702	
777	0	32822	32862	
778	0	32802	32710	
779	0	32804	32690	
780	0	32868	32822	
781	0	32812	32806	
782	0	32848	32720	
783	0	32834	32784	
784	0	32774	32775	
785	0	32764	32732	
786	0	32872	32894	
787	0	32794	32844	
788	0	32848	32756	
789	0	32890	32764	
790	0	32788	32764	
791	0	32834	32842	
792	0	32812	32706	
793	0	32796	32823	
794	0	32848	32806	
795	0	32800	32765	
796	0	32768	32824	
797	0	32800	32824	
798	0	32792	32754	
799	0	32830	32775	
800	0	32896	32804	
801	0	32744	32644	
802	0	32792	32711	
803	0	32752	32740	
804	0	32764	32718	
805	0	32796	32740	
806	0	32870	32864	
807	0	32810	32834	
808	0	32876	32690	
809	0	32864	32788	
810	0	32772	32836	
811	0	32820	32744	
812	0	32810	32760	
813	0	32780	32746	
814	0	32830	32814	
815	0	32804	32672	
816	0	32810	32775	
817	0	32824	32814	
818	0	32772	32692	
819	0	32770	32800	
820	0	32816	32866	
821	0	32846	32710	
822	0	32828	32758	
823	0	32816	32775	
824	0	32796	32706	
825	0	32840	32720	
826	0	32772	32726	
827	0	32812	32848	
828	0	32736	32796	
829	0	32770	32686	
830	0	32792	32808	
831	0	32820	32866	
832	0	32816	32680	
833	0	32778	32758	
834	0	32844	32775	
835	0	32812	32728	
836	0	32792	32756	
837	0	32844	32860	
838	0	32826	32662	
839	0	32868	32820	
840	0	32816	32830	
841	0	32812	32732	
842	0	32778	32863	
843	0	32824	32670	
844	0	32752	32816	
845	0	32796	32792	
846	0	32816	32660	
847	0	32744	32686	
848	0	32816	32814	
849	0	32796	32696	
850	0	32838	32746	
851	0	32828	32806	
852	0	32796	32656	
853	0	32828	32740	
854	0	32820	32868	
855	0	32832	32742	
856	0	32790	32820	
857	0	32776	32716	
858	0	32800	32775	
859	0	32804	32772	
860	0	32842	32660	
861	0	32842	32772	
862	0	32816	32719	
863	0	32804	32810	
864	0	32810	32832	
865	0	32792	32676	
866	0	32828	32852	
867	0	32840	32834	
868	0	32784	32788	
869	0	32768	32724	
870	0	32728	32728	
871	0	32818	32856	
872	0	32784	32806	
873	0	32852	32740	
874	0	32800	32806	
875	0	32800	32862	
876	0	32782	32732	
877	0	32802	32775	
878	0	32832	32700	
879	0	32782	32726	
880	0	32752	32732	
881	0	32868	32878	
882	0	32780	32864	
883	0	32772	32661	
884	0	32802	32743	
885	0	32820	32726	
886	0	32792	32840	
887	0	32784	32800	
888	0	32796	32746	
889	0	32764	32852	
890	0	32856	32816	
891	0	32828	32804	
892	0	32852	32764	
893	0	32896	32752	
894	0	32800	32684	
895	0	32844	32750	
896	0	32796	32864	
897	0	32776	32792	
898	0	32808	32764	
899	0	32816	32800	
900	0	32798	32800	
901	0	32822	32764	
902	0	32834	32646	
903	0	32782	32730	
904	0	32882	32691	
905	0	32866	32808	
906	0	32828	32734	
907	0	32772	32740	
908	0	32768	32775	
909	0	32756	32858	
910	0	32808	32816	
911	0	32764	32806	
912	0	32816	32692	
913	0	32810	32866	
914	0	32822	32748	
915	0	32824	32808	
916	0	32810	32769	
917	0	32772	32828	
918	0	32768	32759	
919	0	32792	32712	
920	0	32796	32648	
921	0	32804	32700	
922	0	32788	32876	
923	0	32800	32720	
924	0	32814	32718	
925	0	32886	32774	
926	0	32766	32816	
927	0	32832	32748	
928	0	32832	32722	
929	0	32788	32742	
930	0	32800	32682	
931	0	32868	32804	
932	0	32856	32775	
933	0	32874	32798	
934	0	32820	32774	
935	0	32828	32668	
936	0	32864	32720	
937	0	32868	32846	
938	0	32782	32766	
939	0	32780	32836	
940	0	32852	32814	
941	0	32800	32828	
942	0	32800	32744	
943	0	32814	32902	
944	0	32790	32836	
945	0	32760	32732	
946	0	32814	32876	
947	0	32764	32698	
948	0	32750	32716	
949	0	32816	32736	
950	0	32846	32775	
951	0	32772	32736	
952	0	32800	32772	
953	0	32792	32788	
954	0	32798	32720	
955	0	32832	32724	
956	0	32786	32684	
957	0	32804	32720	
958	0	32800	32853	
959	0	32840	32774	
960	0	32840	32880	
961	0	32836	32860	
962	0	32788	32816	
963	0	32838	32804	
964	0	32802	32758	
965	0	32836	32742	
966	0	32774	32772	
967	0	32812	32775	
968	0	32800	32770	
969	0	32844	32775	
970	0	32834	32788	
971	0	32804	32902	
972	0	32842	32706	
973	0	32758	32676	
974	0	32784	32800	
975	0	32864	32738	
976	0	32804	32862	
977	0	32844	32830	
978	0	32796	32760	
979	0	32884	32848	
980	0	32812	32820	
981	0	32724	32820	
982	0	32824	32824	
983	0	32804	32866	
984	0	32714	32764	
985	0	32775	32712	
986	0	32834	32775	
987	0	32850	32852	
988	0	32816	32816	
989	0	32804	32744	
990	0	32832	32646	
991	0	32708	32678	
992	0	32772	32656	
993	0	32838	32818	
994	0	32836	32775	
995	0	32874	32726	
996	0	32828	32816	
997	0	32846	32840	
998	0	32784	32732	
999	0	32822	32734	
1000	0	32820	32692	
1001	0	32860	32698	
1002	0	32796	32728	
1003	0	32810	32760	
1004	0	32796	32775	
1005	0	32780	32752	
1006	0	32834	32880	
1007	0	32856	32716	
1008	0	32792	32626	
1009	0	32858	32710	
1010	0	32802	32876	
1011	0	32848	32868	
1012	0	32782	32824	
1013	0	32800	32788	
1014	0	32856	32740	
1015	0	32858	32756	
1016	0	32808	32746	
1017	0	32812	32676	
1018	0	32834	32730	
1019	0	32848	32724	
1020	0	32856	32736	
1021	0	32776	32884	
1022	0	32844	32862	
1023	0	32798	32768	
1024	0	32792	32870	
1025	0	32806	32788	
1026	0	32808	32868	
1027	0	32722	32836	
1028	0	32850	32738	
1029	0	32816	32716	
1030	0	32696	32698	
1031	0	32796	32708	
1032	0	32788	32850	
1033	0	32740	32784	
1034	0	32844	32808	
1035	0	32880	32796	
1036	0	32818	32792	
1037	0	32824	32796	
1038	0	32828	32816	
1039	0	32828	32798	
1040	0	32792	32820	
1041	0	32870	32826	
1042	0	32828	32775	
1043	0	32808	32774	
1044	0	32836	32788	
1045	0	32776	32700	
1046	0	32782	32748	
1047	0	32768	32756	
1048	0	32816	32784	
1049	0	32844	32828	
1050	0	32804	32804	
1051	0	32826	32838	
1052	0	32802	32822	
1053	0	32860	32760	
1054	0	32820	32734	
1055	0	32780	32768	
1056	0	32760	32742	
1057	0	32796	32682	
1058	0	32844	32756	
1059	0	32872	32812	
1060	0	32804	32816	
1061	0	32794	32822	
1062	0	32866	32800	
1063	0	32784	32728	
1064	0	32776	32732	
1065	0	32836	32688	
1066	0	32780	32825	
1067	0	32822	32794	
1068	0	32860	32786	
1069	0	32854	32810	
1070	0	32816	32820	
1071	0	32834	32762	
1072	0	32780	32690	
1073	0	32832	32710	
1074	0	32756	32656	
1075	0	32824	32800	
1076	0	32800	32857	
1077	0	32912	32794	
1078	0	32780	32740	
1079	0	32840	32887	
1080	0	32758	32800	
1081	0	32792	32764	
1082	0	32848	32774	
1083	0	32792	32690	
1084	0	32870	32711	
1085	0	32828	32884	
1086	0	32792	32758	
1087	0	32814	32775	
1088	0	32789	32784	
1089	0	32844	32766	
1090	0	32856	32790	
1091	0	32768	32684	
1092	0	32796	32712	
1093	0	32800	32748	
1094	0	32738	32844	
1095	0	32776	32820	
1096	0	32760	32796	
1097	0	32784	32748	
1098	0	32810	32810	
1099	0	32776	32828	
1100	0	32776	32686	
1101	0	32698	32808	
1102	0	32794	32680	
1103	0	32708	32838	
1104	0	32756	32812	
1105	0	32692	32770	
1106	0	32710	32852	
1107	0	32716	32924	
1108	0	32680	32810	
1109	0	32678	32743	
1110	0	32728	32743	
1111	0	32714	32816	
1112	0	32732	32775	
1113	0	32696	32814	
1114	0	32650	32775	
1115	0	32668	32906	
1116	0	32792	32866	
1117	0	32784	32808	
1118	0	32872	32692	
1119	0	32830	32690	
1120	0	32852	32732	
1121	0	32892	32746	
1122	0	32896	32716	
1123	0	32948	32695	
1124	0	33062	32710	
1125	0	33028	32602	
1126	0	33076	32620	
1127	0	33128	32614	
1128	0	33182	32530	
1129	0	33208	32494	
1130	0	33270	32558	
1131	0	33372	32545	
1132	0	33338	32596	
1133	0	33276	32622	
1134	0	33274	32648	
1135	0	33144	32775	
1136	0	33056	32768	
1137	0	32914	32732	
1138	0	32734	32800	
1139	0	32614	32930	
1140	0	32480	33040	
1141	0	32448	32991	
1142	0	32398	32948	
1143	0	32414	32954	
1144	0	32388	32956	
1145	0	32492	32878	
1146	0	32552	32858	
1147	0	32572	32708	
1148	0	32612	32828	
1149	0	32677	32826	
1150	0	32668	32714	
1151	0	32664	32768	
1152	0	32756	32796	
1153	0	32748	32710	
1154	0	32808	32879	
1155	0	32796	32839	
1156	0	32840	32696	
1157	0	32706	32804	
1158	0	32820	32798	
1159	0	32896	32716	
1160	0	32912	32816	
1161	0	32844	32868	
1162	0	32832	32752	
1163	0	32792	32764	
1164	0	32802	32652	
1165	0	32844	32860	
1166	0	32748	32850	
1167	0	32814	32718	
1168	0	32752	32756	
1169	0	32772	32730	
1170	0	32738	32820	
1171	0	32766	32844	
1172	0	32850	32775	
1173	0	32792	32736	
1174	0	32848	32766	
1175	0	32868	32670	
1176	0	32856	32744	
1177	0	32816	32778	
1178	0	32848	32784	
1179	0	32822	32708	
1180	0	32792	32816	
1181	0	32842	32738	
1182	0	32808	32796	
1183	0	32812	32788	
1184	0	32840	32848	
1185	0	32772	32775	
1186	0	32810	32742	
1187	0	32804	32821	
1188	0	32792	32792	
1189	0	32860	32718	
1190	0	32836	32839	
1191	0	32790	32722	
1192	0	32808	32708	
1193	0	32802	32814	
1194	0	32850	32794	
1195	0	32796	32732	
1196	0	32808	32761	
1197	0	32810	32738	
1198	0	32852	32775	
1199	0	32864	32798	
1200	0	32825	32684	
1201	0	32836	32704	
1202	0	32780	32754	
1203	0	32828	32712	
1204	0	32802	32807	
1205	0	32856	32754	
1206	0	32864	32692	
1207	0	32788	32788	
1208	0	32840	32760	
1209	0	32828	32736	
1210	0	32808	32772	
1211	0	32810	32836	
1212	0	32804	32678	
1213	0	32824	32764	
1214	0	32810	32740	
1215	0	32760	32742	
1216	0	32832	32804	
1217	0	32808	32838	
1218	0	32842	32775	
1219	0	32832	32756	
1220	0	32832	32786	
1221	0	32778	32698	
1222	0	32776	32692	
1223	0	32752	32716	
1224	0	32844	32742	
1225	0	32844	32816	
1226	0	32764	32811	
1227	0	32784	32730	
1228	0	32754	32692	
1229	0	32746	32738	
1230	0	32832	32728	
1231	0	32800	32668	
1232	0	32784	32710	
1233	0	32812	32782	
1234	0	32812	32775	
1235	0	32800	32832	
1236	0	32828	32752	
1237	0	32820	32836	
1238	0	32848	32854	
1239	0	32846	32842	
1240	0	32784	32702	
1241	0	32840	32710	
1242	0	32810	32692	
1243	0	32852	32844	
1244	0	32802	32724	
1245	0	32814	32764	
1246	0	32802	32870	
1247	0	32786	32798	
1248	0	32788	32658	
1249	0	32816	32732	
1250	0	32834	32738	
1251	0	32764	32692	
1252	0	32800	32724	
1253	0	32842	32727	
1254	0	32860	32750	
1255	0	32770	32824	
1256	0	32904	32804	
1257	0	32788	32694	
1258	0	32836	32812	
1259	0	32816	32839	
1260	0	32810	32726	
1261	0	32730	32832	
1262	0	32808	32690	
1263	0	32768	32806	
1264	0	32744	32822	
1265	0	32716	32700	
1266	0	32816	32758	
1267	0	32840	32850	
1268	0	32740	32774	
1269	0	32800	32834	
1270	0	32792	32816	
1271	0	32816	32770	
1272	0	32792	32806	
1273	0	32772	32690	
1274	0	32800	32804	
1275	0	32850	32810	
1276	0	32834	32672	
1277	0	32800	32847	
1278	0	32872	32825	
1279	0	32876	32775	
1280	0	32836	32738	
1281	0	32872	32716	
1282	0	32828	32876	
1283	0	32792	32732	
1284	0	32814	32689	
1285	0	32788	32796	
1286	0	32830	32785	
1287	0	32812	32754	
1288	0	32810	32752	
1289	0	32796	32748	
1290	0	32756	32839	
1291	0	32772	32730	
1292	0	32776	32676	
1293	0	32862	32724	
1294	0	32788	32728	
1295	0	32780	32884	
1296	0	32822	32756	
1297	0	32806	32784	
1298	0	32796	32770	
1299	0	32812	32702	
1300	0	32796	32761	
1301	0	32816	32806	
1302	0	32852	32764	
1303	0	32820	32774	
1304	0	32766	32730	
1305	0	32800	32876	
1306	0	32832	32775	
1307	0	32804	32832	
1308	0	32792	32756	
1309	0	32810	32743	
1310	0	32864	32700	
1311	0	32868	32760	
1312	0	32836	32732	
1313	0	32832	32720	
1314	0	32816	32922	
1315	0	32780	32840	
1316	0	32834	32834	
1317	0	32840	32830	
1318	0	32880	32748	
1319	0	32804	32702	
1320	0	32826	32878	
1321	0	32784	32852	
1322	0	32828	32754	
1323	0	32788	32712	
1324	0	32761	32775	
1325	0	32788	32734	
1326	0	32776	32740	
1327	0	32832	32740	
1328	0	32764	32716	
1329	0	32772	32818	
1330	0	32840	32790	
1331	0	32812	32775	
1332	0	32768	32746	
1333	0	32816	32748	
1334	0	32872	32896	
1335	0	32798	32852	
1336	0	32836	32724	
1337	0	32840	32674	
1338	0	32792	32700	
1339	0	32816	32668	
1340	0	32810	32775	
1341	0	32780	32764	
1342	0	32820	32844	
1343	0	32832	32748	
1344	0	32812	32752	
1345	0	32768	32856	
1346	0	32848	32870	
1347	0	32828	32754	
1348	0	32800	32768	
1349	0	32842	32788	
1350	0	32826	32812	
1351	0	32838	32772	
1352	0	32828	32806	
1353	0	32814	32724	
1354	0	32796	32732	
1355	0	32836	32711	
1356	0	32856	32771	
1357	0	32832	32662	
1358	0	32812	32744	
1359	0	32854	32804	
1360	0	32808	32672	
1361	0	32824	32772	
1362	0	32838	32720	
1363	0	32760	32758	
1364	0	32876	32702	
1365	0	32836	32692	
1366	0	32752	32680	
1367	0	32828	32810	
1368	0	32862	32770	
1369	0	32888	32784	
1370	0	32860	32944	
1371	0	32866	32734	
1372	0	32832	32662	
1373	0	32864	32768	
1374	0	32830	32804	
1375	0	32856	32775	
1376	0	32852	32736	
1377	0	32872	32784	
1378	0	32868	32796	
1379	0	32824	32680	
1380	0	32796	32680	
1381	0	32800	32903	
1382	0	32836	32774	
1383	0	32812	32790	
1384	0	32816	32760	
1385	0	32712	32840	
1386	0	32804	32810	
1387	0	32812	32870	
1388	0	32856	32738	
1389	0	32826	32724	
1390	0	32692	32748	
1391	0	32830	32732	
1392	0	32848	32647	
1393	0	32860	32772	
1394	0	32856	32775	
1395	0	32828	32788	
1396	0	32822	32868	
1397	0	32824	32824	
1398	0	32788	32720	
1399	0	32820	32831	
1400	0	32824	32818	
1401	0	32784	32718	
1402	0	32776	32670	
1403	0	32806	32798	
1404	0	32744	32774	
1405	0	32748	32756	
1406	0	32788	32800	
1407	0	32760	32784	
1408	0	32826	32870	
1409	0	32798	32878	
1410	0	32728	32838	
1411	0	32848	32814	
1412	0	32840	32775	
1413	0	32796	32854	
1414	0	32828	32814	
1415	0	32832	32816	
1416	0	32816	32821	
1417	0	32828	32766	
1418	0	32864	32794	
1419	0	32808	32772	
1420	0	32820	32740	
1421	0	32744	32806	
1422	0	32772	32788	
1423	0	32834	32849	
1424	0	32812	32832	
1425	0	32740	32764	
1426	0	32812	32750	
1427	0	32740	32832	
1428	0	32830	32862	
1429	0	32808	32830	
1430	0	32856	32808	
1431	0	32836	32752	
1432	0	32806	32730	
1433	0	32722	32782	
1434	0	32756	32844	
1435	0	32828	32802	
1436	0	32816	32788	
1437	0	32812	32756	
1438	0	32848	32818	
1439	0	32736	32766	
1440	0	32780	32772	
1441	0	32788	32775	
1442	0	32850	32724	
1443	0	32860	32756	
1444	0	32808	32728	
1445	0	32780	32775	
1446	0	32756	32730	
1447	0	32770	32806	
1448	0	32810	32726	
1449	0	32834	32830	
1450	0	32810	32768	
1451	0	32796	32798	
1452	0	32846	32775	
1453	0	32856	32838	
1454	0	32806	32830	
1455	0	32816	32846	
1456	0	32846	32786	
1457	0	32822	32722	
1458	0	32848	32737	
1459	0	32840	32666	
1460	0	32800	32725	
1461	0	32844	32696	
1462	0	32738	32794	
1463	0	32808	32808	
1464	0	32876	32775	
1465	0	32764	32756	
1466	0	32830	32716	
1467	0	32816	32840	
1468	0	32800	32800	
1469	0	32766	32860	
1470	0	32800	32804	
1471	0	32788	32764	
1472	0	32818	32826	
1473	0	32822	32775	
1474	0	32836	32793	
1475	0	32870	32834	
1476	0	32820	32756	
1477	0	32776	32836	
1478	0	32880	32860	
1479	0	32772	32742	
1480	0	32834	32810	
1481	0	32860	32816	
1482	0	32740	32752	
1483	0	32818	32806	
1484	0	32758	32768	
1485	0	32816	32799	
1486	0	32832	32842	
1487	0	32760	32814	
1488	0	32836	32788	
1489	0	32832	32756	
1490	0	32822	32676	
1491	0	32808	32751	
1492	0	32832	32812	
1493	0	32768	32812	
1494	0	32782	32818	
1495	0	32824	32726	
1496	0	32800	32775	
1497	0	32808	32724	
1498	0	32740	32676	
1499	0	32832	32888	
1500	0	32860	32840	
1501	0	32792	32712	
1502	0	32862	32806	
1503	0	32864	32632	
1504	0	32774	32792	
1505	0	32828	32864	
1506	0	32780	32764	
1507	0	32780	32810	
1508	0	32872	32756	
1509	0	32820	32775	
1510	0	32822	32775	
1511	0	32822	32768	
1512	0	32840	32784	
1513	0	32864	32880	
1514	0	32784	32817	
1515	0	32774	32852	
1516	0	32790	32810	
1517	0	32806	32804	
1518	0	32810	32736	
1519	0	32814	32692	
1520	0	32800	32678	
1521	0	32750	32718	
1522	0	32784	32720	
1523	0	32784	32834	
1524	0	32820	32860	
1525	0	32798	32756	
1526	0	32820	32766	
1527	0	32808	32852	
1528	0	32828	32748	
1529	0	32812	32804	
1530	0	32790	32794	
1531	0	32812	32646	
1532	0	32844	32721	
1533	0	32804	32742	
1534	0	32814	32906	
1535	0	32816	32732	
1536	0	32808	32839	
1537	0	32760	32732	
1538	0	32764	32812	
1539	0	32804	32680	
1540	0	32840	32752	
1541	0	32836	32824	
1542	0	32876	32712	
1543	0	32816	32752	
1544	0	32871	32710	
1545	0	32856	32798	
1546	0	32800	32796	
1547	0	32848	32710	
1548	0	32810	32775	
1549	0	32784	32756	
1550	0	32816	32748	
1551	0	32780	32772	
1552	0	32814	32812	
1553	0	32820	32647	
1554	0	32802	32775	
1555	0	32832	32810	
1556	0	32788	32770	
1557	0	32822	32816	
1558	0	32800	32830	
1559	0	32816	32647	
1560	0	32744	32775	
1561	0	32824	32754	
1562	0	32810	32680	
1563	0	32848	32758	
1564	0	32784	32774	
1565	0	32820	32810	
1566	0	32804	32706	
1567	0	32774	32808	
1568	0	32800	32766	
1569	0	32832	32680	
1570	0	32840	32740	
1571	0	32844	32828	
1572	0	32792	32812	
1573	0	32892	32674	
1574	0	32800	32818	
1575	0	32792	32774	
1576	0	32858	32762	
1577	0	32788	32770	
1578	0	32874	32726	
1579	0	32848	32716	
1580	0	32824	32838	
1581	0	32800	32844	
1582	0	32844	32704	
1583	0	32836	32796	
1584	0	32728	32804	
1585	0	32770	32700	
1586	0	32810	32748	
1587	0	32834	32738	
1588	0	32760	32750	
1589	0	32834	32766	
1590	0	32792	32686	
1591	0	32760	32710	
1592	0	32794	32890	
1593	0	32794	32816	
1594	0	32846	32784	
1595	0	32904	32780	
1596	0	32806	32772	
1597	0	32756	32644	
1598	0	32848	32744	
1599	0	32754	32898	
1600	0	32828	32806	
1601	0	32804	32680	
1602	0	32752	32746	
1603	0	32788	32856	
1604	0	32772	32812	
1605	0	32800	32720	
1606	0	32812	32830	
1607	0	32832	32862	
1608	0	32764	32710	
1609	0	32784	32775	
1610	0	32840	32743	
1611	0	32776	32676	
1612	0	32800	32800	
1613	0	32868	32734	
1614	0	32852	32766	
1615	0	32744	32804	
1616	0	32940	32832	
1617	0	32776	32678	
1618	0	32794	32832	
1619	0	32810	32790	
1620	0	32888	32722	
1621	0	32792	32848	
1622	0	32900	32732	
1623	0	32766	32702	
1624	0	32806	32840	
1625	0	32840	32820	
1626	0	32820	32690	
1627	0	32724	32775	
1628	0	32768	32812	
1629	0	32832	32718	
1630	0	32808	32718	
1631	0	32855	32842	
1632	0	32766	32775	
1633	0	32844	32718	
1634	0	32852	32822	
1635	0	32848	32847	
1636	0	32736	32714	
1637	0	32816	32798	
1638	0	32828	32756	
1639	0	32800	32660	
1640	0	32816	32790	
1641	0	32748	32884	
1642	0	32782	32726	
1643	0	32808	32822	
1644	0	32788	32846	
1645	0	32840	32750	
1646	0	32784	32830	
1647	0	32824	32724	
1648	0	32832	32826	
1649	0	32796	32726	
1650	0	32824	32864	
1651	0	32806	32692	
1652	0	32840	32803	
1653	0	32832	32766	
1654	0	32848	32724	
1655	0	32816	32711	
1656	0	32776	32826	
1657	0	32872	32775	
1658	0	32840	32738	
1659	0	32740	32742	
1660	0	32836	32868	
1661	0	32772	32648	
1662	0	32814	32852	
1663	0	32814	32752	
1664	0	32736	32735	
1665	0	32752	32726	
1666	0	32768	32716	
1667	0	32788	32830	
1668	0	32844	32684	
1669	0	32880	32796	
1670	0	32868	32730	
1671	0	32852	32810	
1672	0	32814	32764	
1673	0	32832	32828	
1674	0	32836	32790	
1675	0	32788	32743	
1676	0	32826	32789	
1677	0	32802	32806	
1678	0	32870	32868	
1679	0	32800	32734	
1680	0	32820	32836	
1681	0	32852	32798	
1682	0	32744	32686	
1683	0	32776	32744	
1684	0	32818	32726	
1685	0	32852	32698	
1686	0	32804	32842	
1687	0	32816	32902	
1688	0	32824	32728	
1689	0	32780	32916	
1690	0	32836	32794	
1691	0	32784	32730	
1692	0	32820	32806	
1693	0	32760	32800	
1694	0	32872	32680	
1695	0	32840	32816	
1696	0	32824	32742	
1697	0	32804	32700	
1698	0	32772	32788	
1699	0	32872	32742	
1700	0	32820	32750	
1701	0	32810	32800	
1702	0	32832	32734	
1703	0	32778	32800	
1704	0	32826	32826	
1705	0	32824	32694	
1706	0	32820	32752	
1707	0	32838	32798	
1708	0	32744	32678	
1709	0	32780	32764	
1710	0	32810	32730	
1711	0	32808	32775	
1712	0	32778	32768	
1713	0	32828	32690	
1714	0	32844	32796	
1715	0	32784	32674	
1716	0	32808	32740	
1717	0	32792	32846	
1718	0	32818	32836	
1719	0	32824	32748	
1720	0	32852	32700	
1721	0	32844	32764	
1722	0	32822	32848	
1723	0	32846	32784	
1724	0	32816	32820	
1725	0	32768	32804	
1726	0	32742	32824	
1727	0	32800	32858	
1728	0	32812	32804	
1729	0	32778	32710	
1730	0	32760	32724	
1731	0	32840	32748	
1732	0	32820	32824	
1733	0	32764	32860	
1734	0	32852	32791	
1735	0	32832	32807	
1736	0	32810	32782	
1737	0	32872	32848	
1738	0	32810	32775	
1739	0	32808	32704	
1740	0	32800	32736	
1741	0	32840	32688	
1742	0	32774	32838	
1743	0	32848	32812	
1744	0	32806	32700	
1745	0	32806	32834	
1746	0	32796	32754	
1747	0	32846	32688	
1748	0	32766	32775	
1749	0	32816	32884	
1750	0	32784	32666	
1751	0	32848	32868	
1752	0	32772	32756	
1753	0	32848	32764	
1754	0	32776	32744	
1755	0	32836	32790	
1756	0	32876	32836	
1757	0	32780	32604	
1758	0	32776	32868	
1759	0	32798	32744	
1760	0	32808	32690	
1761	0	32820	32870	
1762	0	32840	32742	
1763	0	32804	32634	
1764	0	32816	32794	
1765	0	32910	32798	
1766	0	32856	32689	
1767	0	32834	32804	
1768	0	32856	32758	
1769	0	32796	32674	
1770	0	32808	32814	
1771	0	32764	32764	
1772	0	32836	32674	
1773	0	32840	32775	
1774	0	32836	32804	
1775	0	32812	32720	
1776	0	32762	32738	
1777	0	32828	32774	
1778	0	32842	32647	
1779	0	32804	32796	
1780	0	32864	32711	
1781	0	32804	32672	
1782	0	32804	32740	
1783	0	32856	32666	
1784	0	32896	32630	
1785	0	32824	32760	
1786	0	32840	32774	
1787	0	32752	32740	
1788	0	32792	32840	
1789	0	32844	32742	
1790	0	32876	32848	
1791	0	32798	32775	
1792	0	32848	32720	
1793	0	32764	32708	
1794	0	32852	32775	
1795	0	32796	32812	
1796	0	32800	32822	
1797	0	32800	32824	
1798	0	32788	32742	
1799	0	32800	32698	
1800	0	32826	32796	
1801	0	32852	32678	
1802	0	32856	32864	
1803	0	32786	32810	
1804	0	32780	32788	
1805	0	32760	32850	
1806	0	32754	32756	
1807	0	32820	32775	
1808	0	32756	32754	
1809	0	32804	32754	
1810	0	32812	32720	
1811	0	32750	32764	
1812	0	32840	32792	
1813	0	32768	32892	
1814	0	32800	32846	
1815	0	32792	32698	
1816	0	32856	32740	
1817	0	32886	32756	
1818	0	32824	32862	
1819	0	32837	32759	
1820	0	32796	32808	
1821	0	32778	32794	
1822	0	32782	32720	
1823	0	32846	32806	
1824	0	32764	32719	
1825	0	32828	32716	
1826	0	32766	32684	
1827	0	32788	32774	
1828	0	32820	32782	
1829	0	32870	32832	
1830	0	32842	32742	
1831	0	32800	32796	
1832	0	32778	32775	
1833	0	32808	32786	
1834	0	32784	32636	
1835	0	32774	32736	
1836	0	32856	32692	
1837	0	32736	32692	
1838	0	32824	32820	
1839	0	32818	32760	
1840	0	32770	32788	
1841	0	32748	32836	
1842	0	32768	32802	
1843	0	32820	32818	
1844	0	32812	32788	
1845	0	32820	32688	
1846	0	32844	32896	
1847	0	32792	32820	
1848	0	32808	32794	
1849	0	32780	32832	
1850	0	32834	32728	
1851	0	32802	32726	
1852	0	32798	32740	
1853	0	32790	32808	
1854	0	32802	32760	
1855	0	32764	32775	
1856	0	32834	32728	
1857	0	32810	32660	
1858	0	32748	32728	
1859	0	32792	32848	
1860	0	32836	32818	
1861	0	32836	32806	
1862	0	32754	32788	
1863	0	32850	32714	
1864	0	32796	32823	
1865	0	32780	32788	
1866	0	32810	32708	
1867	0	32804	32691	
1868	0	32800	32775	
1869	0	32826	32788	
1870	0	32784	32806	
1871	0	32824	32842	
1872	0	32808	32902	
1873	0	32844	32798	
1874	0	32852	32684	
1875	0	32810	32760	
1876	0	32776	32804	
1877	0	32772	32696	
1878	0	32792	32860	
1879	0	32794	32838	
1880	0	32828	32756	
1881	0	32820	32746	
1882	0	32832	32754	
1883	0	32800	32808	
1884	0	32812	32792	
1885	0	32828	32854	
1886	0	32762	32772	
1887	0	32828	32748	
1888	0	32842	32676	
1889	0	32844	32743	
1890	0	32794	32870	
1891	0	32872	32720	
1892	0	32786	32836	
1893	0	32784	32805	
1894	0	32752	32694	
1895	0	32824	32700	
1896	0	32836	32754	
1897	0	32776	32839	
1898	0	32876	32736	
1899	0	32804	32844	
1900	0	32848	32744	
1901	0	32744	32698	
1902	0	32816	32660	
1903	0	32772	32812	
1904	0	32820	32854	
1905	0	32780	32800	
1906	0	32768	32870	
1907	0	32828	32748	
1908	0	32804	32676	
1909	0	32808	32710	
1910	0	32872	32708	
1911	0	32813	32836	
1912	0	32816	32794	
1913	0	32778	32784	
1914	0	32836	32832	
1915	0	32796	32752	
1916	0	32768	32700	
1917	0	32832	32790	
1918	0	32830	32746	
1919	0	32832	32772	
1920	0	32784	32874	
1921	0	32796	32839	
1922	0	32778	32748	
1923	0	32812	32772	
1924	0	32860	32752	
1925	0	32880	32775	
1926	0	32800	32660	
1927	0	32828	32670	
1928	0	32858	32756	
1929	0	32798	32752	
1930	0	32878	32826	
1931	0	32876	32820	
1932	0	32762	32798	
1933	0	32844	32825	
1934	0	32746	32828	
1935	0	32762	32742	
1936	0	32812	32655	
1937	0	32788	32708	
1938	0	32812	32820	
1939	0	32824	32860	
1940	0	32826	32758	
1941	0	32792	32766	
1942	0	32760	32740	
1943	0	32776	32832	
1944	0	32800	32775	
1945	0	32860	32704	
1946	0	32816	32672	
1947	0	32792	32660	
1948	0	32808	32680	
1949	0	32824	32716	
1950	0	32776	32775	
1951	0	32788	32702	
1952	0	32802	32730	
1953	0	32872	32708	
1954	0	32766	32634	
1955	0	32832	32784	
1956	0	32852	32775	
1957	0	32836	32796	
1958	0	32788	32676	
1959	0	32816	32726	
1960	0	32740	32686	
1961	0	32842	32695	
1962	0	32810	32796	
1963	0	32824	32834	
1964	0	32840	32810	
1965	0	32878	32852	
1966	0	32844	32838	
1967	0	32816	32740	
1968	0	32796	32788	
1969	0	32836	32928	
1970	0	32816	32743	
1971	0	32854	32752	
1972	0	32848	32775	
1973	0	32778	32808	
1974	0	32808	32796	
1975	0	32832	32710	
1976	0	32812	32704	
1977	0	32760	32775	
1978	0	32782	32743	
1979	0	32820	32748	
1980	0	32740	32720	
1981	0	32760	32608	
1982	0	32840	32688	
1983	0	32828	32800	
1984	0	32768	32744	
1985	0	32746	32768	
1986	0	32814	32752	
1987	0	32756	32804	
1988	0	32776	32718	
1989	0	32782	32734	
1990	0	32816	32716	
1991	0	32782	32736	
1992	0	32820	32726	
1993	0	32856	32834	
1994	0	32780	32750	
1995	0	32832	32738	
1996	0	32865	32796	
1997	0	32825	32812	
1998	0	32864	32652	
1999	0	32868	32681	
2000	0	32834	32678	
2001	0	32808	32724	
2002	0	32786	32684	
2003	0	32872	32752	
2004	0	32840	32826	
2005	0	32756	32860	
2006	0	32888	32758	
2007	0	32820	32734	
2008	0	32746	32746	
2009	0	32768	32672	
2010	0	32836	32766	
2011	0	32864	32752	
2012	0	32870	32684	
2013	0	32812	32738	
2014	0	32858	32754	
2015	0	32884	32784	
2016	0	32848	32796	
2017	0	32838	32744	
2018	0	32794	32806	
2019	0	32820	32784	
2020	0	32828	32746	
2021	0	32896	32636	
2022	0	32790	32740	
2023	0	32842	32840	
2024	0	32796	32812	
2025	0	32780	32716	
2026	0	32784	32828	
2027	0	32774	32844	
2028	0	32842	32722	
2029	0	32798	32758	
2030	0	32748	32704	
2031	0	32824	32732	
2032	0	32844	32752	
2033	0	32830	32820	
2034	0	32832	32822	
2035	0	32796	32816	
2036	0	32848	32824	
2037	0	32809	32786	
2038	0	32816	32812	
2039	0	32742	32746	
2040	0	32792	32664	
2041	0	32792	32700	
2042	0	32820	32692	
2043	0	32828	32807	
2044	0	32776	32782	
2045	0	32832	32758	
2046	0	32762	32790	
2047	0	32820	32840	
2048	0	32788	32796	
2049	0	32804	32764	
2050	0	32812	32718	
2051	0	32868	32704	
2052	0	32800	32716	
2053	0	32816	32758	
2054	0	32808	32852	
2055	0	32828	32880	
2056	0	32734	32839	
2057	0	32808	32775	
2058	0	32782	32775	
2059	0	32738	32786	
2060	0	32738	32774	
2061	0	32692	32816	
2062	0	32740	32836	
2063	0	32800	32851	
2064	0	32708	32834	
2065	0	32728	32742	
2066	0	32688	32768	
2067	0	32744	32744	
2068	0	32756	32826	
2069	0	32744	32780	
2070	0	32786	32806	
2071	0	32724	32804	
2072	0	32604	32920	
2073	0	32672	32858	
2074	0	32682	32890	
2075	0	32624	32874	
2076	0	32696	32718	
2077	0	32676	32798	
2078	0	32684	32836	
2079	0	32780	32758	
2080	0	32778	32774	
2081	0	32824	32774	
2082	0	32856	32698	
2083	0	32828	32703	
2084	0	32924	32783	
2085	0	32956	32750	
2086	0	33016	32685	
2087	0	33102	32688	
2088	0	33136	32708	
2089	0	33164	32676	
2090	0	33212	32566	
2091	0	33236	32466	
2092	0	33384	32572	
2093	0	33308	32486	
2094	0	33322	32500	
2095	0	33312	32664	
2096	0	33248	32702	
2097	0	33136	32828	
2098	0	32904	32784	
2099	0	32824	32852	
2100	0	32688	32816	
2101	0	32644	32906	
2102	0	32452	33072	
2103	0	32418	32964	
2104	0	32416	32932	
2105	0	32418	32927	
2106	0	32478	32812	
2107	0	32448	32760	
2108	0	32488	32753	
2109	0	32608	32728	
2110	0	32660	32728	
2111	0	32664	32810	
2112	0	32680	32940	
2113	0	32744	32852	
2114	0	32804	32766	
2115	0	32720	32775	
2116	0	32736	32806	
2117	0	32760	32752	
2118	0	32708	32694	
2119	0	32800	32720	
2120	0	32792	32738	
2121	0	32876	32808	
2122	0	32778	32792	
2123	0	32774	32816	
2124	0	32816	32800	
2125	0	32810	32740	
2126	0	32816	32742	
2127	0	32844	32788	
2128	0	32804	32720	
2129	0	32818	32716	
2130	0	32776	32712	
2131	0	32840	32766	
2132	0	32816	32764	
2133	0	32824	32870	
2134	0	32818	32830	
2135	0	32856	32726	
2136	0	32788	32716	
2137	0	32852	32710	
2138	0	32832	32732	
2139	0	32778	32785	
2140	0	32836	32824	
2141	0	32800	32740	
2142	0	32836	32718	
2143	0	32820	32804	
2144	0	32868	32828	
2145	0	32834	32784	
2146	0	32860	32792	
2147	0	32816	32832	
2148	0	32896	32855	
2149	0	32836	32824	
2150	0	32800	32764	
2151	0	32816	32726	
2152	0	32846	32692	
2153	0	32844	32728	
2154	0	32828	32760	
2155	0	32860	32714	
2156	0	32864	32824	
2157	0	32836	32775	
2158	0	32826	32788	
2159	0	32792	32775	
2160	0	32852	32774	
2161	0	32776	32738	
2162	0	32794	32796	
2163	0	32834	32774	
2164	0	32786	32834	
2165	0	32792	32822	
2166	0	32848	32886	
2167	0	32840	32794	
2168	0	32852	32848	
2169	0	32776	32853	
2170	0	32856	32756	
2171	0	32776	32838	
2172	0	32812	32903	
2173	0	32846	32825	
2174	0	32838	32692	
2175	0	32888	32624	
2176	0	32780	32696	
2177	0	32818	32775	
2178	0	32856	32660	
2179	0	32790	32708	
2180	0	32752	32726	
2181	0	32816	32696	
2182	0	32834	32671	
2183	0	32828	32706	
2184	0	32786	32698	
2185	0	32836	32688	
2186	0	32836	32676	
2187	0	32796	32688	
2188	0	32788	32712	
2189	0	32844	32784	
2190	0	32828	32807	
2191	0	32792	32812	
2192	0	32730	32772	
2193	0	32824	32764	
2194	0	32788	32732	
2195	0	32792	32773	
2196	0	32768	32828	
2197	0	32796	32810	
2198	0	32836	32824	
2199	0	32820	32775	
2200	0	32780	32902	
2201	0	32768	32786	
2202	0	32816	32766	
2203	0	32792	32754	
2204	0	32774	32750	
2205	0	32822	32716	
2206	0	32840	32758	
2207	0	32772	32691	
2208	0	32804	32718	
2209	0	32848	32808	
2210	0	32920	32832	
2211	0	32792	32738	
2212	0	32792	32772	
2213	0	32866	32730	
2214	0	32786	32810	
2215	0	32844	32796	
2216	0	32836	32858	
2217	0	32792	32820	
2218	0	32800	32798	
2219	0	32804	32743	
2220	0	32804	32762	
2221	0	32780	32693	
2222	0	32786	32754	
2223	0	32856	32775	
2224	0	32736	32746	
2225	0	32784	32750	
2226	0	32818	32738	
2227	0	32812	32616	
2228	0	32800	32724	
2229	0	32772	32708	
2230	0	32840	32710	
2231	0	32832	32774	
2232	0	32792	32800	
2233	0	32846	32824	
2234	0	32824	32800	
2235	0	32792	32724	
2236	0	32778	32766	
2237	0	32868	32758	
2238	0	32858	32775	
2239	0	32856	32800	
2240	0	32820	32736	
2241	0	32800	32774	
2242	0	32824	32784	
2243	0	32880	32806	
2244	0	32848	32798	
2245	0	32810	32902	
2246	0	32788	32794	
2247	0	32836	32758	
2248	0	32732	32735	
2249	0	32800	32775	
2250	0	32800	32798	
2251	0	32764	32852	
2252	0	32896	32762	
2253	0	32830	32752	
2254	0	32804	32678	
2255	0	32800	32740	
2256	0	32896	32746	
2257	0	32824	32686	
2258	0	32762	32711	
2259	0	32808	32706	
2260	0	32820	32764	
2261	0	32746	32852	
2262	0	32778	32850	
2263	0	32844	32844	
2264	0	32838	32836	
2265	0	32742	32732	
2266	0	32856	32774	
2267	0	32818	32736	
2268	0	32880	32712	
2269	0	32760	32750	
2270	0	32798	32758	
2271	0	32808	32824	
2272	0	32814	32854	
2273	0	32864	32798	
2274	0	32800	32868	
2275	0	32770	32746	
2276	0	32770	32889	
2277	0	32858	32822	
2278	0	32864	32878	
2279	0	32774	32734	
2280	0	32840	32600	
2281	0	32840	32682	
2282	0	32824	32704	
2283	0	32828	32756	
2284	0	32832	32768	
2285	0	32814	32742	
2286	0	32796	32816	
2287	0	32857	32852	
2288	0	32850	32720	
2289	0	32760	32672	
2290	0	32832	32698	
2291	0	32858	32802	
2292	0	32832	32810	
2293	0	32808	32884	
2294	0	32828	32752	
2295	0	32804	32756	
2296	0	32828	32754	
2297	0	32810	32796	
2298	0	32844	32758	
2299	0	32784	32864	
2300	0	32788	32816	
2301	0	32778	32712	
2302	0	32832	32718	
2303	0	32808	32656	
2304	0	32868	32638	
2305	0	32812	32760	
2306	0	32832	32714	
2307	0	32820	32626	
2308	0	32780	32708	
2309	0	32820	32696	
2310	0	32816	32712	
2311	0	32792	32736	
2312	0	32810	32802	
2313	0	32844	32775	
2314	0	32848	32818	
2315	0	32804	32796	
2316	0	32800	32808	
2317	0	32856	32734	
2318	0	32734	32788	
2319	0	32808	32836	
2320	0	32760	32774	
2321	0	32834	32794	
2322	0	32768	32762	
2323	0	32848	32764	
2324	0	32820	32749	
2325	0	32780	32834	
2326	0	32764	32804	
2327	0	32852	32780	
2328	0	32744	32848	
2329	0	32800	32866	
2330	0	32860	32832	
2331	0	32888	32870	
2332	0	32808	32766	
2333	0	32878	32852	
2334	0	32850	32732	
2335	0	32858	32826	
2336	0	32812	32788	
2337	0	32782	32732	
2338	0	32812	32658	
2339	0	32794	32722	
2340	0	32848	32774	
2341	0	32828	32752	
2342	0	32776	32702	
2343	0	32846	32775	
2344	0	32868	32748	
2345	0	32828	32740	
2346	0	32800	32742	
2347	0	32840	32724	
2348	0	32804	32700	
2349	0	32910	32678	
2350	0	32760	32620	
2351	0	32756	32775	
2352	0	32826	32702	
2353	0	32810	32740	
2354	0	32740	32788	
2355	0	32812	32927	
2356	0	32814	32788	
2357	0	32752	32786	
2358	0	32760	32740	
2359	0	32776	32826	
2360	0	32792	32772	
2361	0	32864	32774	
2362	0	32908	32799	
2363	0	32788	32824	
2364	0	32810	32789	
2365	0	32832	32794	
2366	0	32806	32828	
2367	0	32820	32700	
2368	0	32840	32638	
2369	0	32816	32728	
2370	0	32866	32708	
2371	0	32856	32696	
2372	0	32864	32834	
2373	0	32792	32812	
2374	0	32740	32806	
2375	0	32704	32720	
2376	0	32748	32772	
2377	0	32792	32742	
2378	0	32756	32712	
2379	0	32800	32672	
2380	0	32704	32878	
2381	0	32812	32824	
2382	0	32764	32748	
2383	0	32740	32847	
2384	0	32792	32832	
2385	0	32716	32807	
2386	0	32828	32738	
2387	0	32760	32738	
2388	0	32788	32823	
2389	0	32816	32820	
2390	0	32872	32826	
2391	0	32836	32844	
2392	0	32824	32767	
2393	0	32800	32743	
2394	0	32820	32814	
2395	0	32782	32862	
2396	0	32888	32820	
2397	0	32828	32768	
2398	0	32782	32804	
2399	0	32768	32724	
2400	0	32794	32782	
2401	0	32832	32802	
2402	0	32760	32770	
2403	0	32766	32670	
2404	0	32776	32784	
2405	0	32734	32726	
2406	0	32880	32790	
2407	0	32836	32676	
2408	0	32832	32752	
2409	0	32800	32734	
2410	0	32768	32807	
2411	0	32864	32760	
2412	0	32776	32708	
2413	0	32836	32704	
2414	0	32848	32732	
2415	0	32832	32818	
2416	0	32807	32728	
2417	0	32742	32810	
2418	0	32820	32800	
2419	0	32858	32802	
2420	0	32804	32726	
2421	0	32838	32724	
2422	0	32808	32686	
2423	0	32840	32806	
2424	0	32828	32746	
2425	0	32748	32746	
2426	0	32836	32798	
2427	0	32798	32870	
2428	0	32842	32726	
2429	0	32805	32722	
2430	0	32808	32730	
2431	0	32872	32768	
2432	0	32841	32760	
2433	0	32764	32816	
2434	0	32856	32810	
2435	0	32802	32806	
2436	0	32832	32808	
2437	0	32810	32738	
2438	0	32820	32743	
2439	0	32840	32836	
2440	0	32806	32806	
2441	0	32804	32808	
2442	0	32824	32720	
2443	0	32820	32734	
2444	0	32824	32753	
2445	0	32836	32698	
2446	0	32844	32810	
2447	0	32816	32798	
2448	0	32804	32820	
2449	0	32832	32918	
2450	0	32814	32782	
2451	0	32816	32718	
2452	0	32872	32680	
2453	0	32812	32636	
2454	0	32804	32693	
2455	0	32816	32628	
2456	0	32852	32682	
2457	0	32820	32786	
2458	0	32770	32748	
2459	0	32764	32790	
2460	0	32768	32850	
2461	0	32776	32719	
2462	0	32864	32772	
2463	0	32814	32764	
2464	0	32890	32782	
2465	0	32872	32748	
2466	0	32818	32828	
2467	0	32810	32724	
2468	0	32788	32678	
2469	0	32772	32696	
2470	0	32826	32766	
2471	0	32832	32730	
2472	0	32836	32654	
2473	0	32824	32876	
2474	0	32838	32836	
2475	0	32800	32740	
2476	0	32868	32790	
2477	0	32834	32818	
2478	0	32860	32756	
2479	0	32810	32775	
2480	0	32848	32766	
2481	0	32764	32670	
2482	0	32828	32678	
2483	0	32836	32820	
2484	0	32868	32820	
2485	0	32792	32798	
2486	0	32810	32684	
2487	0	32756	32724	
2488	0	32792	32766	
2489	0	32828	32714	
2490	0	32814	32774	
2491	0	32824	32838	
2492	0	32896	32742	
2493	0	32790	32793	
2494	0	32852	32756	
2495	0	32816	32786	
2496	0	32856	32788	
2497	0	32804	32828	
2498	0	32804	32775	
2499	0	32812	32742	
2500	0	32824	32764	
2501	0	32816	32724	
2502	0	32832	32864	
2503	0	32748	32910	
2504	0	32816	32814	
2505	0	32800	32712	
2506	0	32780	32718	
2507	0	32812	32758	
2508	0	32748	32718	
2509	0	32844	32804	
2510	0	32852	32734	
2511	0	32814	32830	
2512	0	32816	32764	
2513	0	32792	32823	
2514	0	32800	32822	
2515	0	32808	32752	
2516	0	32836	32660	
2517	0	32760	32676	
2518	0	32820	32750	
2519	0	32832	32852	
2520	0	32774	32764	
2521	0	32736	32822	
2522	0	32874	32775	
2523	0	32748	32686	
2524	0	32794	32708	
2525	0	32800	32822	
2526	0	32836	32826	
2527	0	32768	32762	
2528	0	32840	32906	
2529	0	32792	32696	
2530	0	32792	32761	
2531	0	32864	32896	
2532	0	32828	32846	
2533	0	32830	32775	
2534	0	32784	32775	
2535	0	32814	32774	
2536	0	32828	32726	
2537	0	32864	32696	
2538	0	32800	32934	
2539	0	32764	32824	
2540	0	32800	32750	
2541	0	32816	32746	
2542	0	32896	32790	
2543	0	32782	32686	
2544	0	32784	32670	
2545	0	32764	32743	
2546	0	32826	32834	
2547	0	32800	32796	
2548	0	32732	32798	
2549	0	32740	32782	
2550	0	32782	32768	
2551	0	32812	32775	
2552	0	32800	32872	
2553	0	32842	32760	
2554	0	32824	32830	
2555	0	32804	32746	
2556	0	32864	32916	
2557	0	32778	32817	
2558	0	32932	32712	
2559	0	32868	32774	
2560	0	32828	32824	
2561	0	32804	32658	
2562	0	32846	32668	
2563	0	32792	32816	
2564	0	32768	32678	
2565	0	32802	32740	
2566	0	32836	32756	
2567	0	32784	32742	
2568	0	32778	32784	
2569	0	32826	32732	
2570	0	32868	32810	
2571	0	32832	32748	
2572	0	32744	32758	
2573	0	32720	32840	
2574	0	32800	32775	
2575	0	32836	32890	
2576	0	32840	32710	
2577	0	32720	32818	
2578	0	32760	32868	
2579	0	32792	32884	
2580	0	32804	32828	
2581	0	32784	32828	
2582	0	32802	32678	
2583	0	32832	32699	
2584	0	32826	32772	
2585	0	32788	32920	
2586	0	32888	32912	
2587	0	32830	32802	
2588	0	32830	32764	
2589	0	32788	32784	
2590	0	32876	32660	
2591	0	32824	32674	
2592	0	32820	32654	
2593	0	32864	32706	
2594	0	32864	32744	
2595	0	32896	32740	
2596	0	32804	32696	
2597	0	32828	32730	
2598	0	32762	32798	
2599	0	32720	32775	
2600	0	32780	32724	
2601	0	32822	32752	
2602	0	32816	32796	
2603	0	32842	32842	
2604	0	32800	32718	
2605	0	32856	32870	
2606	0	32842	32896	
2607	0	32822	32900	
2608	0	32772	32822	
2609	0	32774	32878	
2610	0	32804	32938	
2611	0	32806	32830	
2612	0	32812	32952	
2613	0	32736	32646	
2614	0	32756	32744	
2615	0	32874	32648	
2616	0	32808	32870	
2617	0	32840	32692	
2618	0	32760	32606	
2619	0	32814	32754	
2620	0	32808	32708	
2621	0	32856	32668	
2622	0	32824	32796	
2623	0	32724	32840	
2624	0	32792	32626	
2625	0	32748	32708	
2626	0	32752	32692	
2627	0	32704	32788	
2628	0	32808	32818	
2629	0	32880	32792	
2630	0	32884	32880	
2631	0	32768	32716	
2632	0	32798	32714	
2633	0	32744	32766	
2634	0	32842	32760	
2635	0	32792	32802	
2636	0	32853	32720	
2637	0	32784	32818	
2638	0	32752	32766	
2639	0	32800	32740	
2640	0	32804	32794	
2641	0	32728	32770	
2642	0	32778	32770	
2643	0	32844	32838	
2644	0	32800	32748	
2645	0	32856	32668	
2646	0	32840	32640	
2647	0	32776	32848	
2648	0	32820	32759	
2649	0	32798	32756	
2650	0	32784	32802	
2651	0	32852	32750	
2652	0	32832	32676	
2653	0	32764	32698	
2654	0	32782	32807	
2655	0	32952	32788	
2656	0	32902	32790	
2657	0	32846	32696	
2658	0	32876	32820	
2659	0	32820	32672	
2660	0	32896	32732	
2661	0	32820	32775	
2662	0	32804	32812	
2663	0	32822	32834	
2664	0	32788	32772	
2665	0	32908	32692	
2666	0	32926	32742	
2667	0	32744	32832	
2668	0	32688	32890	
2669	0	32688	32914	
2670	0	32692	32936	
2671	0	32708	32970	
2672	0	32680	32990	
2673	0	32704	32772	
2674	0	32840	32598	
2675	0	32794	32692	
2676	0	32806	32644	
2677	0	32912	32748	
2678	0	32864	32742	
2679	0	32832	32662	
2680	0	32820	32663	
2681	0	32956	32758	
2682	0	32916	32744	
2683	0	32884	32664	
2684	0	32868	32668	
2685	0	32938	32740	
2686	0	32824	32632	
2687	0	32802	32678	
2688	0	32760	32844	
2689	0	32732	32862	
2690	0	32753	32852	
2691	0	32882	32871	
2692	0	32884	32768	
2693	0	32816	32743	
2694	0	32844	32726	
2695	0	32858	32800	
2696	0	32820	32732	
2697	0	32640	32882	
2698	0	32670	32903	
2699	0	32594	32852	
2700	0	32700	32868	
2701	0	32756	32719	
2702	0	32764	32720	
2703	0	32708	32727	
2704	0	32830	32870	
2705	0	32804	32802	
2706	0	32840	32687	
2707	0	32932	32772	
2708	0	32848	32750	
2709	0	32840	32684	
2710	0	32868	32684	
2711	0	32924	32702	
2712	0	32872	32708	
2713	0	32902	32594	
2714	0	32884	32634	
2715	0	32884	32634	
2716	0	32866	32679	
2717	0	32872	32686	
2718	0	32890	32852	
2719	0	32824	32834	
2720	0	32868	32706	
2721	0	32788	32794	
2722	0	32910	32775	
2723	0	32842	32660	
2724	0	32848	32596	
2725	0	32800	32644	
2726	0	32900	32612	
2727	0	32888	32724	
2728	0	32922	32808	
2729	0	32832	32766	
2730	0	32818	32652	
2731	0	32832	32854	
2732	0	32844	32768	
2733	0	32814	32678	
2734	0	32804	32640	
2735	0	32756	32686	
2736	0	32826	32756	
2737	0	32780	32742	
2738	0	32744	32888	
2739	0	32836	32860	
2740	0	32866	32920	
2741	0	32828	32807	
2742	0	32880	32878	
2743	0	32814	32884	
2744	0	32900	32846	
2745	0	32880	32692	
2746	0	32894	32838	
2747	0	32808	32818	
2748	0	32784	32862	
2749	0	32840	32932	
2750	0	32850	32892	
2751	0	32866	32852	
2752	0	32808	32858	
2753	0	32780	32903	
2754	0	32800	32896	
2755	0	32886	32788	
2756	0	32798	32704	
2757	0	32830	32754	
2758	0	32816	32820	
2759	0	32720	32830	
2760	0	32650	32909	
2761	0	32632	32884	
2762	0	32624	32916	
2763	0	32662	32900	
2764	0	32686	32852	
2765	0	32746	32718	
2766	0	32806	32775	
2767	0	32876	32968	
2768	0	32952	32814	
2769	0	32900	32808	
2770	0	32912	32599	
2771	0	32940	32500	
2772	0	32884	32602	
2773	0	32746	32570	
2774	0	32572	32488	
2775	0	32520	32586	
2776	0	32416	32548	
2777	0	32468	32570	
2778	0	32572	32745	
2779	0	32574	32768	
2780	0	32632	32807	
2781	0	32756	32838	
2782	0	32744	32870	
2783	0	32846	32948	
2784	0	32972	33063	
2785	0	32976	33020	
2786	0	32912	32920	
2787	0	32898	32824	
2788	0	32788	32903	
2789	0	32780	32946	
2790	0	32852	33020	
2791	0	32866	32871	
2792	0	32900	32758	
2793	0	32840	32711	
2794	0	32874	32656	
2795	0	32904	32678	
2796	0	32900	32678	
2797	0	32878	32724	
2798	0	32962	32655	
2799	0	32916	32706	
2800	0	32896	32735	
2801	0	32834	32788	
2802	0	32712	32750	
2803	0	32762	32794	
2804	0	32746	32775	
2805	0	32808	32788	
2806	0	32798	32812	
2807	0	32736	32768	
2808	0	32842	32738	
2809	0	32776	32818	
2810	0	32844	32930	
2811	0	32852	32775	
2812	0	32820	32774	
2813	0	32816	32756	
2814	0	32820	32700	
2815	0	32792	32784	
2816	0	32828	32775	
2817	0	32772	32775	
2818	0	32756	32704	
2819	0	32864	32668	
2820	0	32768	32742	
2821	0	32832	32622	
2822	0	32840	32678	
2823	0	32764	32704	
2824	0	32794	32623	
2825	0	32912	32666	
2826	0	32928	32682	
2827	0	32848	32686	
2828	0	32874	32690	
2829	0	32880	32708	
2830	0	32880	32775	
2831	0	32840	32672	
2832	0	32828	32798	
2833	0	32740	32740	
2834	0	32760	32798	
2835	0	32800	32800	
2836	0	32790	32774	
2837	0	32708	32768	
2838	0	32738	32775	
2839	0	32792	32734	
2840	0	32775	32802	
2841	0	32754	32860	
2842	0	32796	32903	
2843	0	32816	32831	
2844	0	32816	32864	
2845	0	32828	32912	
2846	0	32816	32910	
2847	0	32820	32834	
2848	0	32790	32959	
2849	0	32840	32858	
2850	0	32944	32788	
2851	0	32848	32743	
2852	0	32820	32878	
2853	0	32804	32774	
2854	0	32844	32810	
2855	0	32834	32810	
2856	0	32860	32818	
2857	0	32906	32852	
2858	0	32804	32736	
2859	0	32793	32680	
2860	0	32740	32596	
2861	0	32804	32719	
2862	0	32772	32640	
2863	0	32742	32696	
2864	0	32740	32802	
2865	0	32860	32842	
2866	0	32852	32664	
2867	0	32876	32662	
2868	0	32824	32655	
2869	0	32788	32676	
2870	0	32820	32666	
2871	0	32834	32808	
2872	0	32820	32692	
2873	0	32804	32668	
2874	0	32808	32756	
2875	0	32784	32742	
2876	0	32742	32728	
2877	0	32816	32676	
2878	0	32804	32828	
2879	0	32754	32751	
2880	0	32868	32758	
2881	0	32810	32678	
2882	0	32842	32640	
2883	0	32860	32688	
2884	0	32828	32664	
2885	0	32830	32772	
2886	0	32848	32848	
2887	0	32824	32903	
2888	0	32782	32810	
2889	0	32816	32728	
2890	0	32796	32822	
2891	0	32802	32830	
2892	0	32784	32821	
2893	0	32758	32730	
2894	0	32816	32716	
2895	0	32760	32764	
2896	0	32784	32830	
2897	0	32812	32820	
2898	0	32900	32704	
2899	0	32798	32868	
2900	0	32784	32856	
2901	0	32780	32822	
2902	0	32836	32774	
2903	0	32816	32740	
2904	0	32832	32662	
2905	0	32736	32738	
2906	0	32794	32690	
2907	0	32796	32842	
2908	0	32842	32830	
2909	0	32830	32792	
2910	0	32816	32852	
2911	0	32834	32839	
2912	0	32832	32814	
2913	0	32832	32817	
2914	0	32832	32844	
2915	0	32888	32750	
2916	0	32816	32638	
2917	0	32800	32728	
2918	0	32756	32678	
2919	0	32792	32764	
2920	0	32700	32647	
2921	0	32744	32720	
2922	0	32812	32742	
2923	0	32862	32878	
2924	0	32796	32804	
2925	0	32848	32784	
2926	0	32772	32640	
2927	0	32854	32764	
2928	0	32796	32836	
2929	0	32788	32824	
2930	0	32830	32794	
2931	0	32792	32738	
2932	0	32868	32932	
2933	0	32804	32974	
2934	0	32788	33004	
2935	0	32820	32762	
2936	0	32792	32788	
2937	0	32740	32638	
2938	0	32836	32870	
2939	0	32832	32805	
2940	0	32836	32768	
2941	0	32788	32768	
2942	0	32878	32800	
2943	0	32854	32704	
2944	0	32876	32708	
2945	0	32864	32740	
2946	0	32816	32874	
2947	0	32776	32890	
2948	0	32800	32722	
2949	0	32786	32712	
2950	0	32692	32608	
2951	0	32694	32756	
2952	0	32724	32774	
2953	0	32748	32660	
2954	0	32716	32588	
2955	0	32760	32628	
2956	0	32776	32775	
2957	0	32816	32766	
2958	0	32900	32874	
2959	0	32954	32788	
2960	0	32950	32680	
2961	0	32932	32839	
2962	0	32904	32936	
2963	0	32862	32710	
2964	0	32880	32834	
2965	0	32810	32676	
2966	0	32820	32720	
2967	0	32756	32822	
2968	0	32728	32812	
2969	0	32612	32806	
2970	0	32532	32740	
2971	0	32584	32767	
2972	0	32700	32775	
2973	0	32676	32858	
2974	0	32704	32740	
2975	0	32702	32774	
2976	0	32760	32732	
2977	0	32764	32632	
2978	0	32744	32656	
2979	0	32858	32732	
2980	0	32896	32616	
2981	0	32900	32775	
2982	0	32884	32804	
2983	0	32858	32824	
2984	0	32938	32840	
2985	0	32964	32792	
2986	0	32878	32790	
2987	0	32788	32748	
2988	0	32856	32854	
2989	0	32872	32775	
2990	0	32828	32678	
2991	0	32816	32714	
2992	0	32892	32666	
2993	0	32874	32616	
2994	0	32848	32666	
2995	0	32856	32676	
2996	0	32802	32692	
2997	0	32892	32824	
2998	0	32785	32842	
2999	0	32796	32766	
3000	0	32906	32768	
3001	0	32864	32728	
3002	0	32804	32786	
3003	0	32852	32752	
3004	0	32824	32839	
3005	0	32848	32740	
3006	0	32816	32730	
3007	0	32782	32754	
3008	0	32760	32974	
3009	0	32872	32820	
3010	0	32826	32799	
3011	0	32824	32902	
3012	0	32748	32834	
3013	0	32584	32847	
3014	0	32696	32766	
3015	0	32658	32812	
3016	0	32668	32754	
3017	0	32718	32926	
3018	0	32728	32786	
3019	0	32728	32865	
3020	0	32688	32840	
3021	0	32692	32848	
3022	0	32700	32792	
3023	0	32712	32752	
3024	0	32624	32712	
3025	0	32644	32946	
3026	0	32706	32869	
3027	0	32712	32854	
3028	0	32776	32888	
3029	0	32672	32872	
3030	0	32712	32834	
3031	0	32840	32903	
3032	0	32920	32816	
3033	0	32892	32850	
3034	0	32890	32712	
3035	0	32904	32593	
3036	0	33004	32588	
3037	0	33116	32700	
3038	0	33088	32592	
3039	0	33096	32698	
3040	0	33176	32488	
3041	0	33300	32433	
3042	0	33306	32436	
3043	0	33346	32458	
3044	0	33316	32568	
3045	0	33190	32640	
3046	0	33176	32740	
3047	0	33008	32807	
3048	0	32932	32804	
3049	0	32898	32820	
3050	0	32784	32774	
3051	0	32660	32812	
3052	0	32548	32906	
3053	0	32530	32778	
3054	0	32504	32884	
3055	0	32456	32898	
3056	0	32532	32764	
3057	0	32536	32676	
3058	0	32592	32703	
3059	0	32640	32856	
3060	0	32596	32824	
3061	0	32700	32832	
3062	0	32664	32916	
3063	0	32738	32830	
3064	0	32680	32838	
3065	0	32652	32836	
3066	0	32694	32866	
3067	0	32784	32894	
3068	0	32808	32802	
3069	0	32832	32862	
3070	0	32858	32758	
3071	0	32836	32790	
3072	0	32816	32796	
3073	0	32812	32862	
3074	0	32796	32760	
3075	0	32864	32640	
3076	0	32794	32732	
3077	0	32792	32586	
3078	0	32761	32624	
3079	0	32760	32754	
3080	0	32892	32775	
3081	0	32768	32744	
3082	0	32786	32736	
3083	0	32820	32740	
3084	0	32848	32727	
3085	0	32784	32768	
3086	0	32794	32684	
3087	0	32860	32628	
3088	0	32848	32660	
3089	0	32810	32650	
3090	0	32808	32730	
3091	0	32848	32860	
3092	0	32804	32834	
3093	0	32736	32772	
3094	0	32836	32772	
3095	0	32772	32824	
3096	0	32854	32870	
3097	0	32888	32926	
3098	0	32816	32968	
3099	0	32860	32930	
3100	0	32904	32916	
3101	0	32750	32764	
3102	0	32796	32452	
3103	0	32912	32678	
3104	0	32836	32638	
3105	0	32872	32682	
3106	0	32776	32734	
3107	0	32640	32843	
3108	0	32596	32854	
3109	0	32660	32775	
3110	0	32646	32740	
3111	0	32696	32812	
3112	0	32648	32868	
3113	0	32808	32740	
3114	0	32820	32800	
3115	0	32796	32806	
3116	0	32852	32696	
3117	0	32744	32759	
3118	0	32748	32846	
3119	0	32836	32724	
3120	0	32840	32732	
3121	0	32812	32694	
3122	0	32832	32796	
3123	0	32896	32802	
3124	0	32872	32816	
3125	0	32918	32792	
3126	0	32844	32736	
3127	0	32902	32828	
3128	0	32875	32752	
3129	0	32844	32680	
3130	0	32892	32786	
3131	0	32878	32658	
3132	0	32844	32812	
3133	0	32846	32668	
3134	0	32826	32700	
3135	0	32880	32772	
3136	0	32808	32788	
3137	0	32778	32694	
3138	0	32832	32772	
3139	0	32812	32794	
3140	0	32786	32708	
3141	0	32812	32794	
3142	0	32796	32828	
3143	0	32826	32660	
3144	0	32906	32732	
3145	0	32844	32690	
3146	0	32816	32812	
3147	0	32816	32770	
3148	0	32944	32830	
3149	0	32838	32847	
3150	0	32784	32704	
3151	0	32776	32884	
3152	0	32766	32914	
3153	0	32776	32775	
3154	0	32752	32736	
3155	0	32760	32732	
3156	0	32796	32870	
3157	0	32874	32750	
3158	0	32836	32831	
3159	0	32814	32748	
3160	0	32796	32832	
3161	0	32836	32752	
3162	0	32788	32860	
3163	0	32880	32652	
3164	0	32782	32808	
3165	0	32786	32807	
3166	0	32844	32684	
3167	0	32820	32790	
3168	0	32772	32775	
3169	0	32840	32806	
3170	0	32804	32780	
3171	0	32828	32716	
3172	0	32798	32720	
3173	0	32786	32792	
3174	0	32774	32702	
3175	0	32828	32740	
3176	0	32816	32708	
3177	0	32808	32798	
3178	0	32812	32752	
3179	0	32814	32788	
3180	0	32812	32806	
3181	0	32848	32798	
3182	0	32860	32692	
3183	0	32776	32650	
3184	0	32722	32696	
3185	0	32808	32884	
3186	0	32756	32738	
3187	0	32778	32748	
3188	0	32820	32800	
3189	0	32804	32752	
3190	0	32738	32812	
3191	0	32782	32692	
3192	0	32692	32625	
3193	0	32782	32678	
3194	0	32800	32786	
3195	0	32720	32820	
3196	0	32804	32758	
3197	0	32804	32770	
3198	0	32800	32800	
3199	0	32770	32798	
3200	0	32872	32768	
3201	0	32834	32767	
3202	0	32952	32840	
3203	0	32884	32684	
3204	0	32870	32782	
3205	0	32856	32900	
3206	0	32858	32807	
3207	0	32880	32800	
3208	0	32796	32612	
3209	0	32792	32696	
3210	0	32734	32674	
3211	0	32724	32720	
3212	0	32774	32746	
3213	0	32810	32816	
3214	0	32784	32743	
3215	0	32802	32600	
3216	0	32780	32742	
3217	0	32792	32846	
3218	0	32720	32775	
3219	0	32764	32794	
3220	0	32748	32898	
3221	0	32800	32871	
3222	0	32798	32824	
3223	0	32850	32734	
3224	0	32880	32628	
3225	0	32810	32672	
3226	0	32874	32676	
3227	0	32890	32710	
3228	0	32844	32792	
3229	0	32866	32804	
3230	0	32824	32890	
3231	0	32776	32972	
3232	0	32796	32934	
3233	0	32724	32782	
3234	0	32872	32848	
3235	0	32840	32948	
3236	0	32876	32814	
3237	0	32960	32766	
3238	0	32996	32759	
3239	0	32952	32712	
3240	0	32836	32696	
3241	0	32860	32654	
3242	0	32860	32652	
3243	0	32866	32775	
3244	0	32808	32732	
3245	0	32762	32816	
3246	0	32658	32724	
3247	0	32656	32664	
3248	0	32632	32864	
3249	0	32624	32788	
3250	0	32664	32792	
3251	0	32738	32802	
3252	0	32780	32730	
3253	0	32832	32791	
3254	0	32878	32846	
3255	0	32788	32884	
3256	0	32808	32842	
3257	0	32808	32828	
3258	0	32860	32774	
3259	0	32812	32710	
3260	0	32812	32774	
3261	0	32848	32742	
3262	0	32906	32775	
3263	0	32900	32774	
3264	0	32848	32798	
3265	0	32830	32808	
3266	0	32830	32730	
3267	0	32820	32816	
3268	0	32852	32734	
3269	0	32836	32729	
3270	0	32836	32726	
3271	0	32846	32634	
3272	0	32872	32676	
3273	0	32916	32710	
3274	0	32948	32615	
3275	0	32868	32584	
3276	0	32948	32596	
3277	0	32948	32752	
3278	0	32822	32704	
3279	0	32902	32806	
3280	0	32854	32732	
3281	0	32824	32708	
3282	0	32728	32762	
3283	0	32720	32764	
3284	0	32724	32668	
3285	0	32832	32706	
3286	0	32816	32836	
3287	0	32844	32792	
3288	0	32828	32839	
3289	0	32876	32740	
3290	0	32848	32775	
3291	0	32856	32760	
3292	0	32868	32775	
3293	0	32828	32794	
3294	0	32796	32812	
3295	0	32840	32847	
3296	0	32828	32769	
3297	0	32794	32816	
3298	0	32834	32864	
3299	0	32776	32820	
3300	0	32788	32790	
3301	0	32798	32903	
3302	0	32848	32836	
3303	0	32808	32673	
3304	0	32761	32752	
3305	0	32858	32900	
3306	0	32832	32816	
3307	0	32764	32726	
3308	0	32798	32772	
3309	0	32812	32766	
3310	0	32778	32734	
3311	0	32800	32775	
3312	0	32766	32744	
3313	0	32812	32760	
3314	0	32828	32790	
3315	0	32792	32702	
3316	0	32784	32856	
3317	0	32728	32692	
3318	0	32832	32705	
3319	0	32800	32712	
3320	0	32864	32810	
3321	0	32840	32660	
3322	0	32804	32708	
3323	0	32752	32775	
3324	0	32732	32804	
3325	0	32756	32702	
3326	0	32848	32710	
3327	0	32808	32696	
3328	0	32828	32728	
3329	0	32800	32904	
3330	0	32880	32826	
3331	0	32854	32792	
3332	0	32862	32830	
3333	0	32820	32652	
3334	0	32830	32704	
3335	0	32834	32788	
3336	0	32868	32644	
3337	0	32840	32686	
3338	0	32900	32744	
3339	0	32854	32794	
3340	0	32768	32762	
3341	0	32788	32780	
3342	0	32736	32680	
3343	0	32762	32606	
3344	0	32764	32706	
3345	0	32800	32696	
3346	0	32842	32666	
3347	0	32848	32788	
3348	0	32808	32800	
3349	0	32856	32790	
3350	0	32804	32680	
3351	0	32778	32898	
3352	0	32776	32928	
3353	0	32748	33042	
3354	0	32734	32850	
3355	0	32682	32697	
3356	0	32708	32734	
3357	0	32732	32668	
3358	0	32832	32756	
3359	0	32926	32726	
3360	0	32924	32654	
3361	0	32884	32558	
3362	0	32868	32696	
3363	0	32856	32736	
3364	0	32760	32922	
3365	0	32724	32967	
3366	0	32700	32880	
3367	0	32744	32834	
3368	0	32792	32716	
3369	0	32746	32730	
3370	0	32736	32788	
3371	0	32828	32730	
3372	0	32876	32712	
3373	0	32768	32784	
3374	0	32788	32852	
3375	0	32774	32950	
3376	0	32752	32880	
3377	0	32792	32686	
3378	0	32952	32647	
3379	0	32948	32711	
3380	0	32876	32740	
3381	0	32784	32828	
3382	0	32808	32702	
3383	0	32772	32792	
3384	0	32706	32743	
3385	0	32672	32564	
3386	0	32804	32632	
3387	0	32768	32706	
3388	0	32788	32716	
3389	0	32756	32774	
3390	0	32812	32816	
3391	0	32774	32732	
3392	0	32808	32762	
3393	0	32846	32686	
3394	0	32876	32710	
3395	0	32840	32806	
3396	0	32912	32810	
3397	0	32760	32924	
3398	0	32774	32916	
3399	0	32846	32876	
3400	0	32792	32743	
3401	0	32804	32662	
3402	0	32782	32736	
3403	0	32864	32846	
3404	0	32914	32881	
3405	0	32868	32911	
3406	0	32864	32868	
3407	0	32838	32894	
3408	0	32848	32968	
3409	0	32836	32902	
3410	0	32790	33016	
3411	0	32800	32816	
3412	0	32858	32772	
3413	0	32848	32626	
3414	0	32846	32488	
3415	0	32924	32496	
3416	0	32912	32592	
3417	0	32870	32628	
3418	0	32862	32487	
3419	0	32874	32556	
3420	0	32870	32772	
3421	0	32892	32696	
3422	0	32824	32816	
3423	0	32824	32884	
3424	0	32812	32794	
3425	0	32684	32710	
3426	0	32712	32753	
3427	0	32702	32792	
3428	0	32680	32844	
3429	0	32628	32960	
3430	0	32712	32922	
3431	0	32696	32892	
3432	0	32808	33048	
3433	0	32848	33094	
3434	0	32782	33031	
3435	0	32812	32761	
3436	0	32850	32543	
3437	0	32848	32576	
3438	0	32832	32662	
3439	0	32880	32895	
3440	0	32928	32834	
3441	0	32872	33012	
3442	0	32900	32756	
3443	0	32884	32748	
3444	0	32834	32922	
3445	0	32768	32764	
3446	0	32820	32636	
3447	0	32906	32654	
3448	0	32874	32519	
3449	0	32858	32540	
3450	0	32932	32679	
3451	0	32730	32628	
3452	0	32652	32714	
3453	0	32552	32812	
3454	0	32614	32890	
3455	0	32628	32936	
3456	0	32780	32964	
3457	0	32864	32942	
3458	0	32960	33047	
3459	0	32974	32914	
3460	0	32999	32696	
3461	0	32926	32529	
3462	0	32964	32456	
3463	0	32996	32564	
3464	0	32760	32652	
3465	0	32700	32732	
3466	0	32672	32633	
3467	0	32656	32798	
3468	0	32784	32692	
3469	0	32684	32655	
3470	0	32644	32752	
3471	0	32624	32798	
3472	0	32810	32940	
3473	0	32840	32734	
3474	0	32764	32742	
3475	0	32752	32832	
3476	0	32846	32744	
3477	0	32874	32708	
3478	0	32868	32764	
3479	0	32780	32790	
3480	0	32736	32821	
3481	0	32656	32920	
3482	0	32692	32894	
3483	0	32692	33026	
3484	0	32740	32880	
3485	0	32756	32772	
3486	0	32772	32674	
3487	0	32792	32818	
3488	0	32812	32912	
3489	0	32848	32743	
3490	0	32828	32872	
3491	0	32838	32880	
3492	0	32838	32754	
3493	0	32852	32764	
3494	0	33016	32704	
3495	0	33024	32732	
3496	0	33052	32646	
3497	0	33088	32908	
3498	0	33008	32984	
3499	0	33028	32919	
3500	0	32988	32977	
3501	0	32888	32950	
3502	0	32794	32984	
3503	0	32846	32796	
3504	0	32776	32866	
3505	0	32872	32803	
3506	0	32840	32796	
3507	0	32772	32622	
3508	0	32768	32629	
3509	0	32700	32807	
3510	0	32758	32600	
3511	0	32840	32690	
3512	0	32842	32670	
3513	0	32842	32542	
3514	0	33010	32624	
3515	0	32948	32616	
3516	0	33028	32580	
3517	0	33020	32542	
3518	0	32924	32718	
3519	0	32928	32628	
3520	0	32800	32676	
3521	0	32792	32726	
3522	0	32678	32892	
3523	0	32698	32836	
3524	0	32560	32840	
3525	0	32518	32916	
3526	0	32488	32854	
3527	0	32484	32946	
3528	0	32616	32850	
3529	0	32868	32688	
3530	0	32832	32644	
3531	0	32782	32668	
3532	0	32644	32608	
3533	0	32660	32704	
3534	0	32676	32620	
3535	0	32824	32718	
3536	0	32920	32796	
3537	0	32896	33058	
3538	0	33036	33052	
3539	0	32932	32798	
3540	0	32848	32604	
3541	0	32624	32512	
3542	0	32474	32616	
3543	0	32464	32738	
3544	0	32516	32762	
3545	0	32612	32680	
3546	0	32612	32712	
3547	0	32768	32824	
3548	0	32904	32746	
3549	0	32832	32490	
3550	0	32790	32664	
3551	0	32616	32936	
3552	0	32568	32683	
3553	0	32672	32428	
3554	0	32728	32514	
3555	0	32800	32806	
3556	0	32828	32738	
3557	0	32896	32546	
3558	0	32796	32704	
3559	0	32776	32852	
3560	0	32762	32855	
3561	0	32764	32974	
3562	0	32904	33064	
3563	0	32984	33018	
3564	0	32924	32984	
3565	0	33020	32990	
3566	0	33076	32956	
3567	0	33084	32892	
3568	0	33048	32812	
3569	0	33028	32614	
3570	0	33052	32624	
3571	0	33124	32582	
3572	0	33062	32740	
3573	0	32904	32764	
3574	0	32812	32679	
3575	0	32812	32752	
3576	0	32604	32712	
3577	0	32506	32764	
3578	0	32542	32852	
3579	0	32580	32782	
3580	0	32648	32750	
3581	0	32770	32578	
3582	0	32868	32712	
3583	0	32902	32830	
3584	0	33048	32802	
3585	0	32958	32614	
3586	0	33048	32664	
3587	0	33048	32756	
3588	0	33026	33136	
3589	0	33012	33034	
3590	0	33024	32932	
3591	0	32984	32856	
3592	0	32840	32732	
3593	0	32910	32672	
3594	0	33000	32628	
3595	0	33056	32930	
3596	0	33024	33040	
3597	0	33200	32862	
3598	0	33196	32668	
3599	0	33196	32768	
3600	0	32944	33130	
3601	0	32764	33110	
3602	0	32600	32810	
3603	0	32422	32860	
3604	0	32356	32868	
3605	0	32620	32349	
3606	0	32580	32132	
3607	0	32458	32404	
3608	0	32376	32583	
3609	0	32452	32562	
3610	0	32620	32718	
3611	0	32850	32886	
3612	0	32704	32924	
3613	0	32490	32988	
3614	0	32264	32804	
3615	0	32308	32780	
3616	0	32634	32762	
3617	0	32550	32828	
3618	0	32576	32632	
3619	0	32528	32604	
3620	0	32446	32718	
3621	0	32526	32748	
3622	0	32708	32895	
3623	0	33122	32834	
3624	0	33524	32828	
3625	0	33496	32908	
3626	0	33328	32932	
3627	0	33190	32935	
3628	0	32932	32852	
3629	0	32836	32823	
3630	0	32662	32798	
3631	0	32572	32762	
3632	0	32600	32914	
3633	0	32532	32846	
3634	0	32528	32928	
3635	0	32800	33002	
3636	0	33176	32734	
3637	0	33396	32775	
3638	0	33442	32830	
3639	0	33212	32812	
3640	0	33276	32750	
3641	0	33184	32678	
3642	0	33022	32640	
3643	0	32898	32650	
3644	0	32756	32724	
3645	0	32640	32678	
3646	0	32548	32358	
3647	0	32336	32304	
3648	0	32478	32430	
3649	0	32564	32538	
3650	0	32672	32658	
3651	0	32696	32775	
3652	0	32938	32926	
3653	0	33020	32966	
3654	0	33056	32903	
3655	0	33102	32842	
3656	0	33072	32880	
3657	0	32918	32932	
3658	0	32894	33006	
3659	0	32860	32952	
3660	0	32836	33052	
3661	0	32654	32972	
3662	0	32752	32673	
3663	0	32762	32764	
3664	0	32776	32584	
3665	0	32926	32588	
3666	0	32824	32542	
3667	0	32676	32564	
3668	0	32674	32476	
3669	0	32604	32528	
3670	0	32480	32456	
3671	0	32324	32575	
3672	0	32366	32550	
3673	0	32424	32734	
3674	0	32376	32680	
3675	0	32348	32602	
3676	0	32452	32592	
3677	0	32808	32676	
3678	0	32948	32934	
3679	0	33018	32802	
3680	0	32984	32775	
3681	0	33048	32688	
3682	0	32924	32944	
3683	0	32996	32871	
3684	0	32988	32834	
3685	0	33024	32812	
3686	0	33080	32814	
3687	0	33084	33052	
3688	0	33158	32926	
3689	0	33296	33056	
3690	0	33218	33220	
3691	0	33006	32960	
3692	0	32840	32882	
3693	0	32816	32760	
3694	0	32736	32860	
3695	0	32640	32906	
3696	0	32514	32903	
3697	0	32440	32864	
3698	0	32385	32798	
3699	0	32506	32834	
3700	0	32528	32688	
3701	0	32516	32752	
3702	0	32542	32762	
3703	0	32800	32790	
3704	0	33146	33078	
3705	0	33508	32698	
3706	0	33770	32765	
3707	0	33888	32870	
3708	0	33744	32840	
3709	0	33548	32622	
3710	0	33404	32540	
3711	0	33030	32626	
3712	0	32540	32676	
3713	0	32254	32528	
3714	0	32228	32436	
3715	0	32228	32668	
3716	0	32304	32738	
3717	0	32126	32752	
3718	0	32176	32700	
3719	0	32110	32496	
3720	0	32108	32262	
3721	0	32248	32590	
3722	0	32444	32874	
3723	0	32464	32740	
3724	0	32500	32816	
3725	0	32620	32810	
3726	0	32918	32890	
3727	0	32948	32924	
3728	0	33162	32712	
3729	0	32936	32598	
3730	0	33098	32534	
3731	0	33264	32673	
3732	0	33482	32852	
3733	0	33466	32876	
3734	0	33324	32826	
3735	0	32946	32724	
3736	0	32590	32818	
3737	0	32374	32666	
3738	0	32840	32546	
3739	0	32984	32750	
3740	0	32964	32775	
3741	0	32988	32812	
3742	0	32976	32884	
3743	0	32720	32992	
3744	0	32600	32852	
3745	0	32828	32830	
3746	0	33002	32952	
3747	0	32778	32884	
3748	0	32700	32940	
3749	0	32668	32838	
3750	0	32540	32962	
3751	0	32640	32912	
3752	0	32800	32926	
3753	0	32800	33135	
3754	0	32848	32980	
3755	0	32920	33152	
3756	0	32884	32912	
3757	0	33024	33004	
3758	0	33020	32876	
3759	0	32994	32775	
3760	0	32928	32817	
3761	0	33012	32626	
3762	0	32868	32630	
3763	0	32652	32734	
3764	0	32324	32594	
3765	0	32350	32760	
3766	0	32462	32928	
3767	0	32416	32820	
3768	0	32412	32743	
3769	0	32413	32618	
3770	0	32766	32455	
3771	0	32960	32502	
3772	0	33024	32602	
3773	0	33320	32574	
3774	0	33528	32768	
3775	0	33132	32852	
3776	0	33028	32810	
3777	0	32960	32496	
3778	0	32752	32426	
3779	0	32610	32614	
3780	0	32945	32862	
3781	0	33508	32967	
3782	0	33442	33006	
3783	0	33220	32840	
3784	0	32684	32788	
3785	0	32456	32812	
3786	0	32256	32674	
3787	0	32334	32544	
3788	0	32290	32886	
3789	0	32424	32932	
3790	0	32344	32984	
3791	0	32320	32775	
3792	0	32500	32849	
3793	0	32542	32836	
3794	0	32658	32825	
3795	0	32872	32624	
3796	0	32840	32678	
3797	0	33044	32652	
3798	0	33182	32874	
3799	0	33228	32808	
3800	0	33252	32836	
3801	0	33112	32871	
3802	0	33140	32868	
3803	0	33112	32664	
3804	0	33176	32688	
3805	0	33172	32898	
3806	0	33136	32788	
3807	0	32960	32880	
3808	0	32806	32908	
3809	0	32596	32784	
3810	0	32320	32812	
3811	0	32104	32710	
3812	0	31934	32896	
3813	0	31964	32775	
3814	0	32238	32768	
3815	0	32554	32828	
3816	0	32558	32812	
3817	0	32772	32864	
3818	0	32990	32992	
3819	0	33136	32832	
3820	0	33660	32826	
3821	0	33464	32756	
3822	0	33222	32768	
3823	0	32828	32734	
3824	0	32776	32737	
3825	0	33006	32726	
3826	0	33084	32742	
3827	0	33160	32730	
3828	0	33524	32694	
3829	0	33864	32624	
3830	0	33960	32652	
3831	0	33984	32734	
3832	0	33680	32840	
3833	0	33137	32684	
3834	0	32484	32788	
3835	0	32164	32720	
3836	0	31900	32624	
3837	0	31670	32518	
3838	0	31660	32808	
3839	0	31556	32647	
3840	0	31416	32644	
3841	0	31520	32956	
3842	0	31872	32966	
3843	0	32036	33040	
3844	0	32196	32914	
3845	0	32312	32822	
3846	0	32614	32794	
3847	0	32580	32688	
3848	0	32960	32542	
3849	0	33064	32518	
3850	0	33176	32576	
3851	0	33338	32550	
3852	0	33536	32775	
3853	0	33732	32694	
3854	0	33930	32758	
3855	0	33956	32792	
3856	0	33996	32820	
3857	0	33984	32636	
3858	0	33818	32708	
3859	0	33800	32564	
3860	0	33380	32636	
3861	0	32996	32828	
3862	0	32576	32848	
3863	0	32160	32586	
3864	0	31860	32740	
3865	0	31960	32510	
3866	0	32296	32542	
3867	0	32598	32614	
3868	0	32508	32646	
3869	0	32324	32638	
3870	0	32344	32673	
3871	0	32300	32608	
3872	0	32504	32632	
3873	0	32700	32680	
3874	0	32688	32802	
3875	0	32468	32640	
3876	0	32494	32748	
3877	0	32578	32760	
3878	0	32964	32852	
3879	0	33036	32772	
3880	0	33096	32775	
3881	0	33228	32953	
3882	0	33226	33064	
3883	0	33392	32802	
3884	0	33228	32668	
3885	0	32976	32724	
3886	0	32624	32664	
3887	0	32476	32724	
3888	0	32556	32848	
3889	0	32648	32846	
3890	0	32736	32908	
3891	0	32868	32945	
3892	0	32706	32836	
3893	0	32490	32696	
3894	0	32232	32830	
3895	0	32280	32876	
3896	0	32648	32860	
3897	0	32824	32908	
3898	0	32660	32792	
3899	0	32688	32956	
3900	0	32884	33060	
3901	0	32808	32910	
3902	0	32868	32647	
3903	0	32728	32804	
3904	0	32684	32862	
3905	0	32490	32750	
3906	0	32580	32762	
3907	0	32836	32732	
3908	0	32920	32792	
3909	0	32964	32756	
3910	0	33124	32758	
3911	0	33156	32666	
3912	0	33012	32775	
3913	0	33126	32686	
3914	0	33032	32743	
3915	0	33216	32820	
3916	0	33112	32836	
3917	0	32980	32714	
3918	0	33096	32708	
3919	0	33006	32710	
3920	0	32836	32762	
3921	0	32888	32892	
3922	0	33146	32774	
3923	0	33124	32802	
3924	0	32864	32788	
3925	0	32848	32924	
3926	0	33002	32938	
3927	0	32968	32822	
3928	0	32692	32920	
3929	0	32398	33008	
3930	0	32232	32970	
3931	0	32120	32808	
3932	0	32086	32512	
3933	0	32146	32618	
3934	0	32288	32608	
3935	0	32188	32656	
3936	0	32228	32736	
3937	0	32480	32712	
3938	0	32500	32720	
3939	0	32894	32722	
3940	0	32980	32730	
3941	0	33046	32744	
3942	0	33144	32884	
3943	0	33232	32846	
3944	0	33244	32858	
3945	0	33408	32856	
3946	0	33120	32774	
3947	0	32892	32638	
3948	0	32982	32684	
3949	0	33022	32750	
3950	0	33034	32647	
3951	0	33116	32738	
3952	0	33256	32734	
3953	0	33072	32912	
3954	0	32932	32854	
3955	0	33132	32794	
3956	0	33308	32918	
3957	0	33312	32706	
3958	0	33352	32564	
3959	0	32846	32736	
3960	0	32552	32792	
3961	0	32216	32768	
3962	0	32193	32880	
3963	0	32110	32894	
3964	0	32078	32886	
3965	0	32244	32903	
3966	0	32392	32740	
3967	0	32388	32704	
3968	0	32612	32572	
3969	0	32824	32514	
3970	0	32934	32704	
3971	0	32984	33008	
3972	0	32832	32952	
3973	0	32876	32744	
3974	0	32936	32736	
3975	0	33024	32770	
3976	0	32616	32769	
3977	0	32484	32774	
3978	0	32508	32868	
3979	0	32576	32856	
3980	0	32684	32784	
3981	0	32856	32802	
3982	0	33004	32950	
3983	0	32832	32878	
3984	0	32832	32910	
3985	0	32676	32992	
3986	0	32564	32992	
3987	0	32390	32886	
3988	0	32462	32740	
3989	0	32520	32601	
3990	0	32628	32758	
3991	0	32868	32826	
3992	0	33324	32564	
3993	0	33472	32602	
3994	0	33632	32738	
3995	0	33761	32682	
3996	0	33516	32634	
3997	0	33240	32620	
3998	0	33048	32560	
3999	0	33288	32430	
4000	0	33342	32327	
4001	0	33082	32490	
4002	0	32808	32564	
4003	0	32548	32710	
4004	0	32464	32775	
4005	0	32652	32852	
4006	0	32616	32890	
4007	0	32508	32838	
4008	0	32378	33172	
4009	0	32524	33094	
4010	0	32654	33070	
4011	0	32880	32860	
4012	0	32952	32876	
4013	0	33018	32678	
4014	0	33044	32638	
4015	0	33292	32716	
4016	0	33316	32808	
4017	0	33216	32798	
4018	0	33042	33002	
4019	0	32720	32686	
4020	0	32804	32480	
4021	0	32964	32500	
4022	0	32968	32582	
4023	0	32612	32764	
4024	0	32192	32768	
4025	0	32012	32700	
4026	0	32112	32832	
4027	0	32466	32758	
4028	0	32576	32694	
4029	0	32528	32802	
4030	0	32576	32794	
4031	0	32960	32788	
4032	0	33132	32732	
4033	0	33120	32831	
4034	0	33040	32806	
4035	0	32760	32935	
4036	0	32784	32714	
4037	0	32668	32769	
4038	0	32250	32724	
4039	0	32376	32742	
4040	0	32584	32676	
4041	0	32832	32890	
4042	0	32916	32956	
4043	0	32980	32775	
4044	0	32928	32794	
4045	0	32840	32812	
4046	0	32756	32850	
4047	0	32904	32783	
4048	0	33086	32846	
4049	0	33160	32775	
4050	0	32964	32726	
4051	0	32906	32772	
4052	0	32828	32562	
4053	0	32600	32636	
4054	0	32752	32727	
4055	0	32644	32630	
4056	0	32532	32566	
4057	0	32892	32680	
4058	0	33136	32896	
4059	0	33160	32850	
4060	0	33176	32756	
4061	0	33148	32692	
4062	0	33249	32806	
4063	0	33100	32750	
4064	0	33220	32762	
4065	0	33304	32694	
4066	0	33160	32586	
4067	0	33000	32580	
4068	0	32530	32668	
4069	0	32264	32530	
4070	0	32168	32566	
4071	0	32168	32678	
4072	0	32146	32568	
4073	0	32448	32584	
4074	0	32670	32628	
4075	0	32588	32578	
4076	0	32772	32644	
4077	0	32764	32720	
4078	0	32700	32714	
4079	0	32876	32708	
4080	0	32616	32775	
4081	0	32618	32926	
4082	0	32776	32794	
4083	0	32638	32682	
4084	0	32488	32842	
4085	0	32446	32864	
4086	0	32336	32692	
4087	0	32520	32750	
4088	0	32566	32751	
4089	0	32780	32654	
4090	0	32890	32770	
4091	0	32894	32876	
4092	0	33031	32768	
4093	0	33112	32926	
4094	0	33218	32924	
4095	0	33456	33028	
4096	0	33484	32886	
4097	0	33376	32836	
4098	0	33282	32871	
4099	0	33150	32930	
4100	0	33120	32903	
4101	0	33158	32983	
4102	0	32928	32908	
4103	0	32780	32916	
4104	0	32840	32960	
4105	0	32932	32852	
4106	0	32824	32974	
4107	0	33034	32814	
4108	0	33092	32634	
4109	0	32738	32724	
4110	0	32594	32752	
4111	0	32488	32566	
4112	0	32476	32736	
4113	0	32688	32820	
4114	0	32724	32862	
4115	0	32488	32932	
4116	0	32528	32804	
4117	0	32768	32604	
4118	0	32528	32708	
4119	0	32010	32836	
4120	0	32196	32924	
4121	0	32270	32846	
4122	0	32304	32644	
4123	0	32284	32762	
4124	0	32368	32775	
4125	0	32332	32730	
4126	0	32532	32822	
4127	0	32640	32647	
4128	0	32940	32714	
4129	0	33010	32702	
4130	0	33176	32784	
4131	0	33320	32927	
4132	0	33256	32856	
4133	0	33242	32898	
4134	0	33100	32936	
4135	0	33122	32916	
4136	0	33308	32858	
4137	0	33210	32719	
4138	0	33092	32825	
4139	0	33000	32822	
4140	0	33040	32768	
4141	0	33028	32716	
4142	0	33082	32702	
4143	0	32972	32764	
4144	0	33092	32802	
4145	0	33056	32758	
4146	0	32906	32612	
4147	0	32884	32742	
4148	0	32932	32710	
4149	0	32952	32872	
4150	0	32730	32804	
4151	0	32568	32918	
4152	0	32600	32762	
4153	0	32596	32878	
4154	0	32688	32904	
4155	0	32596	32804	
4156	0	32540	32802	
4157	0	32558	32796	
4158	0	32620	32841	
4159	0	32708	32788	
4160	0	32766	32812	
4161	0	32528	32839	
4162	0	32546	32886	
4163	0	32546	32916	
4164	0	32548	32684	
4165	0	32652	32708	
4166	0	32680	32834	
4167	0	32588	32852	
4168	0	32740	32800	
4169	0	32928	32806	
4170	0	33122	32952	
4171	0	33120	32908	
4172	0	33140	32868	
4173	0	33200	32742	
4174	0	33296	32602	
4175	0	33274	32668	
4176	0	33188	32818	
4177	0	33048	32816	
4178	0	32844	32864	
4179	0	32814	32772	
4180	0	32644	32814	
4181	0	32488	32656	
4182	0	32412	32615	
4183	0	32492	32560	
4184	0	32636	32652	
4185	0	32650	32714	
4186	0	32824	32676	
4187	0	32888	32700	
4188	0	32826	32644	
4189	0	32896	32680	
4190	0	32804	32636	
4191	0	32652	32698	
4192	0	32668	32714	
4193	0	32744	32716	
4194	0	32660	32672	
4195	0	32504	32716	
4196	0	32548	32698	
4197	0	32700	32812	
4198	0	32816	32878	
4199	0	33128	32775	
4200	0	33228	32746	
4201	0	33136	32658	
4202	0	32980	32786	
4203	0	32984	32720	
4204	0	32726	32684	
4205	0	32668	32725	
4206	0	32764	32798	
4207	0	32644	32800	
4208	0	32700	32818	
4209	0	32580	32822	
4210	0	32576	32746	
4211	0	32736	32742	
4212	0	32652	32680	
4213	0	33041	32682	
4214	0	33040	32821	
4215	0	33016	32692	
4216	0	32940	32668	
4217	0	33068	32690	
4218	0	33098	32668	
4219	0	33040	32730	
4220	0	33136	32852	
4221	0	33324	32897	
4222	0	33172	32854	
4223	0	32784	32754	
4224	0	32376	32808	
4225	0	32164	32769	
4226	0	31844	32602	
4227	0	31898	32724	
4228	0	32148	32623	
4229	0	32248	32532	
4230	0	32460	32580	
4231	0	32620	32714	
4232	0	32798	32687	
4233	0	33020	32644	
4234	0	33052	32592	
4235	0	33164	32694	
4236	0	33080	32724	
4237	0	33012	32844	
4238	0	33106	32796	
4239	0	33042	32689	
4240	0	33020	32718	
4241	0	33092	32794	
4242	0	33100	32766	
4243	0	33040	32926	
4244	0	33100	33028	
4245	0	33016	32992	
4246	0	32912	32862	
4247	0	32962	32836	
4248	0	32816	32935	
4249	0	32792	32932	
4250	0	32800	32920	
4251	0	32912	32865	
4252	0	33028	32870	
4253	0	32908	32782	
4254	0	32756	32750	
4255	0	32724	32718	
4256	0	32764	32756	
4257	0	32712	32740	
4258	0	32730	32712	
4259	0	32768	32756	
4260	0	32788	32794	
4261	0	32822	32784	
4262	0	32904	32838	
4263	0	32828	32738	
4264	0	32800	32846	
4265	0	32818	32734	
4266	0	32740	32800	
4267	0	32708	32710	
4268	0	32834	32774	
4269	0	32980	32775	
4270	0	33184	32744	
4271	0	32912	32664	
4272	0	32644	32716	
4273	0	32606	32756	
4274	0	32652	32690	
4275	0	32700	32646	
4276	0	32732	32724	
4277	0	32780	32699	
4278	0	32672	32596	
4279	0	32852	32586	
4280	0	33116	32700	
4281	0	33058	32708	
4282	0	33004	32718	
4283	0	32728	32800	
4284	0	32482	32800	
4285	0	32424	32886	
4286	0	32428	32782	
4287	0	32464	32800	
4288	0	32352	32775	
4289	0	32636	32728	
4290	0	32744	32775	
4291	0	32808	32822	
4292	0	32768	32844	
4293	0	32816	32876	
4294	0	32896	32880	
4295	0	32888	32976	
4296	0	33032	32884	
4297	0	33352	32788	
4298	0	33388	32836	
4299	0	33204	32902	
4300	0	33020	32816	
4301	0	32840	32879	
4302	0	32772	32836	
4303	0	32638	32774	
4304	0	32514	32846	
4305	0	32508	32798	
4306	0	32500	32872	
4307	0	32560	32798	
4308	0	32576	32694	
4309	0	32724	32680	
4310	0	32816	32636	
4311	0	32848	32728	
4312	0	32880	32708	
4313	0	32848	32628	
4314	0	32888	32768	
4315	0	32820	32726	
4316	0	33056	32852	
4317	0	32976	32796	
4318	0	32886	32836	
4319	0	33072	32740	
4320	0	33106	32804	
4321	0	33056	32902	
4322	0	33132	32858	
4323	0	32944	32884	
4324	0	32788	32854	
4325	0	32732	32906	
4326	0	32654	32836	
4327	0	32548	32740	
4328	0	32604	32868	
4329	0	32796	32743	
4330	0	32692	32676	
4331	0	32988	32732	
4332	0	32904	32724	
4333	0	32868	32764	
4334	0	32644	32788	
4335	0	32700	32880	
4336	0	32810	32824	
4337	0	32688	32876	
4338	0	32816	32775	
4339	0	32822	32806	
4340	0	32852	32874	
4341	0	32852	32800	
4342	0	32784	32876	
4343	0	32812	32860	
4344	0	32752	32712	
4345	0	32732	32774	
4346	0	32790	32771	
4347	0	32828	32812	
4348	0	32760	32708	
4349	0	32702	32756	
4350	0	32804	32816	
4351	0	32860	32828	
4352	0	32840	32752	
4353	0	32812	32798	
4354	0	32730	32716	
4355	0	32704	32748	
4356	0	32772	32764	
4357	0	32902	32704	
4358	0	32848	32726	
4359	0	32772	32758	
4360	0	32744	32696	
4361	0	32878	32882	
4362	0	32992	32728	
4363	0	32984	32740	
4364	0	33016	32638	
4365	0	32968	32552	
4366	0	32828	32680	
4367	0	32780	32608	
4368	0	32644	32608	
4369	0	32720	32618	
4370	0	32664	32610	
4371	0	32588	32484	
4372	0	32664	32618	
4373	0	32768	32610	
4374	0	32792	32647	
4375	0	32768	32746	
4376	0	32912	32746	
4377	0	32976	32782	
4378	0	32888	32728	
4379	0	32828	32647	
4380	0	32608	32682	
4381	0	32750	32788	
4382	0	32812	32700	
4383	0	32748	32822	
4384	0	33064	32807	
4385	0	33144	32828	
4386	0	33192	32828	
4387	0	33136	32788	
4388	0	32976	32806	
4389	0	32808	32772	
4390	0	32652	32792	
4391	0	32654	32678	
4392	0	32568	32772	
4393	0	32448	32668	
4394	0	32524	32724	
4395	0	32580	32692	
4396	0	32548	32668	
4397	0	32612	32724	
4398	0	32678	32736	
4399	0	32932	32800	
4400	0	32836	32706	
4401	0	32754	32682	
4402	0	32804	32682	
4403	0	32800	32697	
4404	0	32888	32712	
4405	0	32936	32714	
4406	0	32838	32734	
4407	0	32932	32704	
4408	0	32970	32718	
4409	0	33088	32775	
4410	0	33004	32842	
4411	0	33020	32770	
4412	0	32928	32772	
4413	0	32852	32796	
4414	0	32938	32832	
4415	0	32986	32760	
4416	0	33064	32708	
4417	0	32980	32700	
4418	0	32858	32710	
4419	0	32672	32767	
4420	0	32704	32760	
4421	0	32656	32775	
4422	0	32540	32818	
4423	0	32496	32820	
4424	0	32474	32894	
4425	0	32414	32748	
4426	0	32740	32774	
4427	0	32650	32836	
4428	0	32664	32788	
4429	0	32666	32767	
4430	0	32764	32844	
4431	0	32812	32913	
4432	0	32804	32830	
4433	0	32862	32788	
4434	0	32836	32834	
4435	0	32864	32718	
4436	0	32952	32644	
4437	0	32986	32724	
4438	0	33008	32752	
4439	0	32830	32792	
4440	0	32870	32834	
4441	0	32964	32866	
4442	0	32966	32852	
4443	0	32940	32878	
4444	0	32820	32856	
4445	0	32802	32793	
4446	0	32782	32816	
4447	0	32814	32738	
4448	0	32924	32775	
4449	0	32848	32796	
4450	0	32898	32762	
4451	0	32960	32775	
4452	0	32908	32798	
4453	0	32769	32748	
4454	0	32652	32778	
4455	0	32694	32806	
4456	0	32762	32791	
4457	0	32734	32818	
4458	0	32668	32846	
4459	0	32668	32828	
4460	0	32704	32775	
4461	0	32576	32770	
4462	0	32704	32718	
4463	0	32684	32684	
4464	0	32704	32775	
4465	0	32792	32812	
4466	0	32800	32700	
4467	0	32814	32750	
4468	0	32648	32764	
4469	0	32776	32634	
4470	0	32852	32752	
4471	0	33120	32728	
4472	0	32962	32696	
4473	0	32834	32794	
4474	0	32790	32672	
4475	0	32864	32752	
4476	0	32938	32764	
4477	0	32884	32775	
4478	0	32834	32858	
4479	0	32740	32808	
4480	0	32780	32823	
4481	0	32764	32822	
4482	0	32798	32784	
4483	0	32880	32788	
4484	0	33050	32775	
4485	0	32936	32728	
4486	0	32830	32958	
4487	0	32808	32871	
4488	0	32908	32706	
4489	0	32926	32736	
4490	0	32996	32748	
4491	0	33108	32732	
4492	0	33124	32712	
4493	0	32946	32758	
4494	0	32772	32694	
4495	0	32672	32732	
4496	0	32632	32808	
4497	0	32534	32769	
4498	0	32564	32726	
4499	0	32704	32766	
4500	0	32658	32708	
4501	0	32664	32766	
4502	0	32796	32756	
4503	0	32592	32756	
4504	0	32540	32720	
4505	0	32570	32680	
4506	0	32652	32748	
4507	0	32668	32760	
4508	0	32706	32892	
4509	0	32816	32844	
4510	0	32840	32906	
4511	0	32956	32903	
4512	0	32968	32828	
4513	0	32960	32836	
4514	0	32826	32928	
4515	0	32814	32934	
4516	0	32820	32806	
4517	0	32928	32770	
4518	0	32826	32720	
4519	0	32748	32736	
4520	0	32844	32796	
4521	0	32812	32704	
4522	0	32760	32704	
4523	0	32808	32676	
4524	0	32788	32650	
4525	0	32856	32550	
4526	0	32932	32582	
4527	0	32894	32568	
4528	0	32887	32538	
4529	0	32868	32656	
4530	0	32988	32672	
4531	0	32966	32708	
4532	0	32900	32684	
4533	0	32844	32730	
4534	0	32792	32775	
4535	0	32768	32756	
4536	0	32746	32793	
4537	0	32776	32751	
4538	0	32698	32804	
4539	0	32704	32726	
4540	0	32784	32704	
4541	0	32688	32716	
4542	0	32688	32684	
4543	0	32852	32775	
4544	0	32762	32810	
4545	0	32760	32824	
4546	0	32756	32700	
4547	0	32954	32860	
4548	0	32904	32866	
4549	0	32844	32820	
4550	0	32862	32742	
4551	0	32868	32792	
4552	0	32850	32786	
4553	0	32968	32694	
4554	0	32900	32710	
4555	0	32892	32828	
4556	0	32982	32890	
4557	0	32908	32902	
4558	0	32876	32900	
4559	0	32880	32924	
4560	0	32896	32836	
4561	0	32752	32786	
4562	0	32752	32808	
4563	0	32764	32775	
4564	0	32712	32770	
4565	0	32820	32748	
4566	0	32748	32668	
4567	0	32768	32725	
4568	0	32964	32686	
4569	0	33008	32852	
4570	0	32912	32874	
4571	0	32788	32852	
4572	0	32666	32826	
4573	0	32636	32784	
4574	0	32700	32760	
4575	0	32692	32784	
4576	0	32728	32798	
4577	0	32792	32718	
4578	0	32784	32750	
4579	0	32892	32736	
4580	0	32912	32775	
4581	0	32840	32844	
4582	0	32796	32766	
4583	0	32792	32752	
4584	0	32872	32820	
4585	0	32892	32836	
4586	0	32874	32794	
4587	0	32856	32838	
4588	0	32798	32752	
4589	0	32772	32815	
4590	0	32672	32826	
4591	0	32728	32768	
4592	0	32768	32862	
4593	0	32724	32826	
4594	0	32754	32768	
4595	0	33004	32818	
4596	0	33064	32756	
4597	0	32848	32796	
4598	0	32824	32832	
4599	0	32960	32852	
4600	0	32924	32802	
4601	0	32944	32730	
4602	0	32992	32700	
4603	0	32868	32700	
4604	0	32908	32738	
4605	0	32858	32721	
4606	0	32936	32728	
4607	0	32948	32832	
4608	0	32898	32734	
4609	0	32722	32744	
4610	0	32748	32650	
4611	0	32742	32590	
4612	0	32716	32700	
4613	0	32636	32668	
4614	0	32564	32656	
4615	0	32512	32657	
4616	0	32518	32720	
4617	0	32446	32740	
4618	0	32556	32752	
4619	0	32644	32576	
4620	0	32684	32608	
4621	0	32834	32654	
4622	0	32892	32692	
4623	0	32820	32711	
4624	0	32932	32687	
4625	0	32940	32676	
4626	0	33012	32832	
4627	0	32986	32820	
4628	0	32976	32758	
4629	0	33056	32772	
4630	0	32884	32730	
4631	0	32984	32678	
4632	0	32940	32724	
4633	0	32884	32807	
4634	0	32849	32870	
4635	0	32852	32892	
4636	0	32908	32800	
4637	0	32940	32948	
4638	0	32844	32994	
4639	0	32792	32924	
4640	0	32868	32796	
4641	0	32792	32716	
4642	0	32776	32698	
4643	0	32736	32686	
4644	0	32756	32720	
4645	0	32744	32704	
4646	0	32662	32841	
4647	0	32620	32822	
4648	0	32668	32796	
4649	0	32708	32775	
4650	0	32724	32767	
4651	0	32746	32890	
4652	0	32756	32796	
4653	0	32800	32792	
4654	0	32764	32732	
4655	0	32808	32758	
4656	0	32878	32770	
4657	0	32882	32750	
4658	0	32832	32786	
4659	0	32812	32839	
4660	0	32784	32846	
4661	0	32740	32758	
4662	0	32852	32818	
4663	0	32832	32804	
4664	0	32900	32750	
4665	0	32772	32726	
4666	0	32794	32814	
4667	0	32804	32712	
4668	0	32718	32840	
4669	0	32676	32862	
4670	0	32704	32856	
4671	0	32676	32864	
4672	0	32880	32932	
4673	0	32872	32866	
4674	0	32796	32796	
4675	0	32720	32768	
4676	0	32846	32684	
4677	0	32828	32694	
4678	0	32728	32775	
4679	0	32858	32674	
4680	0	32916	32680	
4681	0	32900	32756	
4682	0	32864	32672	
4683	0	32782	32748	
4684	0	32884	32754	
4685	0	32938	32753	
4686	0	32952	32732	
4687	0	32954	32760	
4688	0	32884	32736	
4689	0	32926	32662	
4690	0	32840	32660	
4691	0	32784	32688	
4692	0	32760	32720	
4693	0	32768	32800	
4694	0	32720	32774	
4695	0	32750	32840	
4696	0	32760	32716	
4697	0	32732	32711	
4698	0	32792	32872	
4699	0	32822	32714	
4700	0	32740	32684	
4701	0	32672	32670	
4702	0	32708	32596	
4703	0	32678	32712	
4704	0	32760	32662	
4705	0	32938	32596	
4706	0	32772	32596	
4707	0	32760	32670	
4708	0	32716	32836	
4709	0	32692	32762	
4710	0	32592	32775	
4711	0	32794	32764	
4712	0	32732	32838	
4713	0	32818	32834	
4714	0	32952	32774	
4715	0	32976	32728	
4716	0	32972	32772	
4717	0	32818	32692	
4718	0	32852	32863	
4719	0	32776	32752	
4720	0	32814	32628	
4721	0	32840	32740	
4722	0	32704	32862	
4723	0	32650	32730	
4724	0	32784	32858	
4725	0	32800	32775	
4726	0	32820	32674	
4727	0	32908	32772	
4728	0	32852	32832	
4729	0	32840	32716	
4730	0	32892	32680	
4731	0	32828	32714	
4732	0	32800	32634	
4733	0	32816	32714	
4734	0	32804	32672	
4735	0	32830	32647	
4736	0	32804	32644	
4737	0	32696	32760	
4738	0	32676	32902	
4739	0	32820	32860	
4740	0	32736	32788	
4741	0	32872	32840	
4742	0	32992	32800	
4743	0	32872	32832	
4744	0	32960	32711	
4745	0	32972	32752	
4746	0	32898	32880	
4747	0	32852	32791	
4748	0	32836	32760	
4749	0	32784	32812	
4750	0	32708	32694	
4751	0	32724	32794	
4752	0	32780	32820	
4753	0	32820	32810	
4754	0	32728	32866	
4755	0	32706	32711	
4756	0	32860	32746	
4757	0	32840	32678	
4758	0	32856	32660	
4759	0	32924	32730	
4760	0	32980	32714	
4761	0	32932	32676	
4762	0	32748	32728	
4763	0	32766	32752	
4764	0	32856	32661	
4765	0	32928	32766	
4766	0	32952	32870	
4767	0	32882	32994	
4768	0	32786	32974	
4769	0	32680	32943	
4770	0	32712	32964	
4771	0	32684	33022	
4772	0	32780	32911	
4773	0	32814	33018	
4774	0	32896	32994	
4775	0	32876	32996	
4776	0	32916	32916	
4777	0	32838	32860	
4778	0	32758	32872	
4779	0	32748	32800	
4780	0	32750	32748	
4781	0	32864	32600	
4782	0	32865	32626	
4783	0	32836	32644	
4784	0	32732	32654	
4785	0	32794	32622	
4786	0	32760	32634	
4787	0	32730	32775	
4788	0	32748	32762	
4789	0	32808	32775	
4790	0	32844	32836	
4791	0	32820	32836	
4792	0	32816	32802	
4793	0	32856	32848	
4794	0	32892	32810	
4795	0	32884	32775	
4796	0	32846	32820	
4797	0	32828	32832	
4798	0	32756	32774	
4799	0	32728	32647	
4800	0	32736	32719	
4801	0	32778	32900	
4802	0	32808	32788	
4803	0	32760	32756	
4804	0	32718	32720	
4805	0	32828	32662	
4806	0	32836	32710	
4807	0	32872	32750	
4808	0	32704	32622	
4809	0	32794	32632	
4810	0	32802	32582	
4811	0	32804	32650	
4812	0	32748	32678	
4813	0	32746	32636	
4814	0	32744	32670	
4815	0	32868	32768	
4816	0	32864	32862	
4817	0	32796	32772	
4818	0	32860	32708	
4819	0	32944	32775	
4820	0	32900	32823	
4821	0	32862	32774	
4822	0	32732	32744	
4823	0	32752	32895	
4824	0	32776	32864	
4825	0	32816	32742	
4826	0	32812	32732	
4827	0	32796	32872	
4828	0	32812	32760	
4829	0	32860	32774	
4830	0	32802	32740	
4831	0	32744	32810	
4832	0	32748	32928	
4833	0	32740	32716	
4834	0	32776	32647	
4835	0	32804	32766	
4836	0	32872	32906	
4837	0	32956	32982	
4838	0	33008	33020	
4839	0	32960	32958	
4840	0	32720	32916	
4841	0	32720	32884	
4842	0	32762	32951	
4843	0	32718	33014	
4844	0	32688	32896	
4845	0	32640	32952	
4846	0	32780	32934	
4847	0	32892	32881	
4848	0	32932	32924	
4849	0	32892	32824	
4850	0	32702	32732	
4851	0	32678	32625	
4852	0	32708	32600	
4853	0	32792	32664	
4854	0	32704	32600	
4855	0	32756	32594	
4856	0	32628	32616	
4857	0	32664	32718	
4858	0	32682	32749	
4859	0	32832	32722	
4860	0	32804	32767	
4861	0	32662	32836	
4862	0	32708	33050	
4863	0	32780	33032	
4864	0	32836	32920	
4865	0	32776	32798	
4866	0	32816	32752	
4867	0	32822	32646	
4868	0	32868	32542	
4869	0	32902	32434	
4870	0	32902	32456	
4871	0	33068	32620	
4872	0	32954	32576	
4873	0	33018	32764	
4874	0	33084	32656	
4875	0	33088	32644	
4876	0	33388	32544	
4877	0	33308	32578	
4878	0	33210	32508	
4879	0	33340	32744	
4880	0	33364	32692	
4881	0	33199	32720	
4882	0	33174	32815	
4883	0	33024	32784	
4884	0	32840	32962	
4885	0	32622	32934	
4886	0	32444	32904	
4887	0	32398	32877	
4888	0	32394	32820	
4889	0	32342	32952	
4890	0	32348	32868	
4891	0	32548	32740	
4892	0	32680	32790	
4893	0	32592	32832	
4894	0	32568	32856	
4895	0	32636	32746	
4896	0	32680	32604	
4897	0	32728	32598	
4898	0	32752	32518	
4899	0	32848	32488	
4900	0	32782	32606	
4901	0	32794	32588	
4902	0	32808	32602	
4903	0	32852	32658	
4904	0	32842	32684	
4905	0	32804	32702	
4906	0	32814	32808	
4907	0	32842	32810	
4908	0	32828	32812	
4909	0	32706	32816	
4910	0	32842	32864	
4911	0	32732	32746	
4912	0	32756	32622	
4913	0	32804	32867	
4914	0	32798	32917	
4915	0	32830	33000	
4916	0	32804	33000	
4917	0	32864	32932	
4918	0	32912	32872	
4919	0	32860	32736	
4920	0	32832	32740	
4921	0	32672	32710	
4922	0	32786	32775	
4923	0	32872	32688	
4924	0	32968	32871	
4925	0	32852	32734	
4926	0	32864	32752	
4927	0	32876	32698	
4928	0	32776	32668	
4929	0	32816	32572	
4930	0	32792	32536	
4931	0	32724	32686	
4932	0	32750	32592	
4933	0	32846	32490	
4934	0	32974	32618	
4935	0	32820	32740	
4936	0	32916	32618	
4937	0	32842	32608	
4938	0	32766	32666	
4939	0	32856	32754	
4940	0	32738	32850	
4941	0	32732	32856	
4942	0	32714	32874	
4943	0	32724	32822	
4944	0	32801	32896	
4945	0	32804	32834	
4946	0	32860	32874	
4947	0	32832	32802	
4948	0	32902	32903	
4949	0	32824	32936	
4950	0	32782	32774	
4951	0	32752	32784	
4952	0	32834	32738	
4953	0	32872	32716	
4954	0	32872	32666	
4955	0	32732	32580	
4956	0	32800	32630	
4957	0	32912	32652	
4958	0	32932	32590	
4959	0	32918	32636	
4960	0	32828	32775	
4961	0	32768	32692	
4962	0	32752	32666	
4963	0	32830	32666	
4964	0	32768	32646	
4965	0	32714	32718	
4966	0	32752	32775	
4967	0	32788	32762	
4968	0	32824	32668	
4969	0	32792	32692	
4970	0	32812	32722	
4971	0	32710	32831	
4972	0	32842	32812	
4973	0	32888	32768	
4974	0	32716	32834	
4975	0	32740	32726	
4976	0	32732	32700	
4977	0	32750	32748	
4978	0	32638	32922	
4979	0	32878	32916	
4980	0	33212	32796	
4981	0	32920	32714	
4982	0	32878	32768	
4983	0	32848	32692	
4984	0	32706	32656	
4985	0	32904	32700	
4986	0	32840	32775	
4987	0	32844	33002	
4988	0	32680	32948	
4989	0	32724	32954	
4990	0	32728	33088	
4991	0	32784	33134	
4992	0	32784	32996	
4993	0	32836	32788	
4994	0	32824	32807	
4995	0	32892	32916	
4996	0	32820	32810	
4997	0	32864	32796	
4998	0	32798	32732	
4999	0	32776	32704	
5000	0	32780	32644	
5001	0	32740	32668	
5002	0	32836	32586	
5003	0	32808	32756	
5004	0	32834	32860	
5005	0	32762	32878	
5006	0	32820	32944	
5007	0	32856	32752	
5008	0	32836	32672	
5009	0	32708	32570	
5010	0	32748	32632	
5011	0	32782	32876	
5012	0	32884	32964	
5013	0	32820	33017	
5014	0	32816	33200	
5015	0	32796	33216	
5016	0	32816	33196	
5017	0	32768	33074	
5018	0	32868	33114	
5019	0	32778	33140	
5020	0	32804	33072	
5021	0	32820	33086	
5022	0	32856	33005	
5023	0	32938	32964	
5024	0	32824	32832	
5025	0	32700	32670	
5026	0	32746	32624	
5027	0	32792	32572	
5028	0	32860	32507	
5029	0	32802	32552	
5030	0	32848	32420	
5031	0	32842	32448	
5032	0	32816	32480	
5033	0	32756	32636	
5034	0	32808	32686	
5035	0	32740	32612	
5036	0	32796	32652	
5037	0	32800	32728	
5038	0	32856	32848	
5039	0	32892	32980	
5040	0	32704	32838	
5041	0	32818	32806	
5042	0	32896	32710	
5043	0	32828	32612	
5044	0	32820	32622	
5045	0	32816	32615	
5046	0	32760	32640	
5047	0	32716	32676	
5048	0	32786	32700	
5049	0	32766	32807	
5050	0	32818	32775	
5051	0	32840	32698	
5052	0	32800	32768	
5053	0	32788	32758	
5054	0	32856	32802	
5055	0	32808	32788	
5056	0	32834	32782	
5057	0	32890	32764	
5058	0	32740	32748	
5059	0	32700	32740	
5060	0	32742	32892	
5061	0	32892	32928	
5062	0	32728	32912	
5063	0	32884	32935	
5064	0	32884	33039	
5065	0	32792	32942	
5066	0	32796	32860	
5067	0	32840	32928	
5068	0	32836	32772	
5069	0	32936	32800	
5070	0	32900	32794	
5071	0	32832	32702	
5072	0	32800	32760	
5073	0	32880	32732	
5074	0	32826	32774	
5075	0	32764	32812	
5076	0	32744	32702	
5077	0	32792	32616	
5078	0	32780	32647	
5079	0	32828	32734	
5080	0	32832	32636	
5081	0	33068	32560	
5082	0	32928	32590	
5083	0	32870	32647	
5084	0	32764	32812	
5085	0	32762	32775	
5086	0	32716	32766	
5087	0	32732	32892	
5088	0	32658	32892	
5089	0	32648	32788	
5090	0	32766	32774	
5091	0	32870	32762	
5092	0	32812	32832	
5093	0	32772	32920	
5094	0	32772	32896	
5095	0	32804	32788	
5096	0	32700	32654	
5097	0	32760	32696	
5098	0	32834	32696	
5099	0	32748	32762	
5100	0	32776	32636	
5101	0	32858	32740	
5102	0	32784	32818	
5103	0	32852	32767	
5104	0	32984	32750	
5105	0	32976	32820	
5106	0	33016	32942	
5107	0	32880	32872	
5108	0	32848	32804	
5109	0	32912	32692	
5110	0	32844	32726	
5111	0	32924	32732	
5112	0	32790	32666	
5113	0	32736	32598	
5114	0	32848	32576	
5115	0	32728	32594	
5116	0	32796	32567	
5117	0	32744	32586	
5118	0	32730	32570	
5119	0	32724	32582	
5120	0	32818	32572	
5121	0	32852	32598	
5122	0	32820	32616	
5123	0	32792	32594	
5124	0	32686	32686	
5125	0	32856	32828	
5126	0	32952	32888	
5127	0	32816	32952	
5128	0	32870	32810	
5129	0	32808	32982	
5130	0	32858	32888	
5131	0	32884	32960	
5132	0	32766	32814	
5133	0	32768	32746	
5134	0	32784	32642	
5135	0	32774	32608	
5136	0	32844	32652	
5137	0	32886	32576	
5138	0	32832	32518	
5139	0	32744	32500	
5140	0	32856	32610	
5141	0	32808	32516	
5142	0	32848	32706	
5143	0	32988	32678	
5144	0	32820	32708	
5145	0	32820	32746	
5146	0	32820	32726	
5147	0	32720	32852	
5148	0	32844	32870	
5149	0	32712	32886	
5150	0	32736	33028	
5151	0	32696	33038	
5152	0	32756	33012	
5153	0	32804	33032	
5154	0	32804	32958	
5155	0	32864	32944	
5156	0	32724	32902	
5157	0	32726	32788	
5158	0	32820	32836	
5159	0	32848	32832	
5160	0	32852	32694	
5161	0	32864	32548	
5162	0	32860	32532	
5163	0	32826	32494	
5164	0	32868	32646	
5165	0	32940	32664	
5166	0	32900	32852	
5167	0	32821	32746	
5168	0	32848	32702	
5169	0	32896	32775	
5170	0	32788	32816	
5171	0	32856	32796	
5172	0	32832	32742	
5173	0	32760	32760	
5174	0	32738	32828	
5175	0	32736	32834	
5176	0	32818	32766	
5177	0	32632	32740	
5178	0	32732	32660	
5179	0	32764	32656	
5180	0	32788	32668	
5181	0	32804	32684	
5182	0	32804	32586	
5183	0	32748	32604	
5184	0	32688	32474	
5185	0	32756	32572	
5186	0	32780	32556	
5187	0	32708	32666	
5188	0	32708	32676	
5189	0	32796	32684	
5190	0	32900	32790	
5191	0	32852	32720	
5192	0	32818	32663	
5193	0	32884	32696	
5194	0	32832	32800	
5195	0	33074	32790	
5196	0	33002	32678	
5197	0	32898	32678	
5198	0	32808	32672	
5199	0	32892	32680	
5200	0	32860	32586	
5201	0	32820	32700	
5202	0	32830	32725	
5203	0	32720	32734	
5204	0	32812	32936	
5205	0	32844	32866	
5206	0	32708	32764	
5207	0	32872	32832	
5208	0	32826	32790	
5209	0	32680	32812	
5210	0	32720	32772	
5211	0	32744	32838	
5212	0	32874	32772	
5213	0	32732	32844	
5214	0	32514	32828	
5215	0	32770	32876	
5216	0	32818	32808	
5217	0	32872	32692	
5218	0	32830	32822	
5219	0	32860	32770	
5220	0	32872	32796	
5221	0	32804	32754	
5222	0	32820	32823	
5223	0	32792	32750	
5224	0	32714	32808	
5225	0	32740	32674	
5226	0	32848	32716	
5227	0	32840	32738	
5228	0	32864	32732	
5229	0	32896	32804	
5230	0	32902	32807	
5231	0	32912	32838	
5232	0	32842	32788	
5233	0	32730	32716	
5234	0	32660	32689	
5235	0	32756	32679	
5236	0	32852	32790	
5237	0	32848	32826	
5238	0	32780	32790	
5239	0	32806	32734	
5240	0	32832	32654	
5241	0	32812	32682	
5242	0	32784	32722	
5243	0	32944	32788	
5244	0	32804	32728	
5245	0	32802	32718	
5246	0	32804	32742	
5247	0	32824	32726	
5248	0	32842	32816	
5249	0	32792	32660	
5250	0	32820	32612	
5251	0	32766	32634	
5252	0	32778	32756	
5253	0	32804	32775	
5254	0	32864	32772	
5255	0	32864	32838	
5256	0	32814	32754	
5257	0	32804	32764	
5258	0	32824	32848	
5259	0	32856	32908	
5260	0	32808	32740	
5261	0	32716	32620	
5262	0	32812	32662	
5263	0	32752	32668	
5264	0	32836	32664	
5265	0	32913	32742	
5266	0	32828	32932	
5267	0	32836	32856	
5268	0	32826	32878	
5269	0	32804	32792	
5270	0	32812	32860	
5271	0	32738	32866	
5272	0	32772	32742	
5273	0	32780	32622	
5274	0	32744	32670	
5275	0	32796	32820	
5276	0	32968	32740	
5277	0	32916	32800	
5278	0	32752	32807	
5279	0	32784	32774	
5280	0	32824	32698	
5281	0	32856	32744	
5282	0	32994	32740	
5283	0	32864	32770	
5284	0	32894	32744	
5285	0	32914	32768	
5286	0	32804	32836	
5287	0	32716	32874	
5288	0	32810	32848	
5289	0	32732	32894	
5290	0	32696	32842	
5291	0	32700	32888	
5292	0	32644	32902	
5293	0	32744	32775	
5294	0	32760	32714	
5295	0	32792	32646	
5296	0	32782	32668	
5297	0	32840	32688	
5298	0	32800	32564	
5299	0	32736	32614	
5300	0	32790	32604	
5301	0	32820	32682	
5302	0	32958	32752	
5303	0	32896	32748	
5304	0	32792	32662	
5305	0	32804	32700	
5306	0	32710	32722	
5307	0	32704	32702	
5308	0	32777	32748	
5309	0	32864	32839	
5310	0	32808	32902	
5311	0	32864	32844	
5312	0	32762	32854	
5313	0	32800	32842	
5314	0	32896	32820	
5315	0	32908	32886	
5316	0	32920	32808	
5317	0	32788	32792	
5318	0	32880	32818	
5319	0	32854	32746	
5320	0	32804	32836	
5321	0	32814	32790	
5322	0	32748	32817	
5323	0	32796	32790	
5324	0	32742	32892	
5325	0	32956	32790	
5326	0	32868	32766	
5327	0	32758	32716	
5328	0	32772	32836	
5329	0	32764	32756	
5330	0	32728	32786	
5331	0	32724	32772	
5332	0	32784	32832	
5333	0	32852	32790	
5334	0	32822	32708	
5335	0	32870	32602	
5336	0	32744	32720	
5337	0	32764	32762	
5338	0	32832	32688	
5339	0	32710	32700	
5340	0	32608	32766	
5341	0	32640	32708	
5342	0	32752	32704	
5343	0	33016	32742	
5344	0	33088	32720	
5345	0	32930	32924	
5346	0	32850	32775	
5347	0	32852	32818	
5348	0	32858	32844	
5349	0	32728	32895	
5350	0	32936	32766	
5351	0	32944	32788	
5352	0	32884	32770	
5353	0	32936	32700	
5354	0	32804	32714	
5355	0	32724	32871	
5356	0	32730	32762	
5357	0	32728	32762	
5358	0	32730	32746	
5359	0	32840	32788	
5360	0	32732	32666	
5361	0	32616	32807	
5362	0	32832	32760	
5363	0	32850	32748	
5364	0	32812	32664	
5365	0	32824	32654	
5366	0	32708	32722	
5367	0	32848	32830	
5368	0	32828	32828	
5369	0	32818	32822	
5370	0	32760	32820	
5371	0	32800	32750	
5372	0	32850	32800	
5373	0	32772	32756	
5374	0	32878	32848	
5375	0	32964	32820	
5376	0	32754	32642	
5377	0	32792	32646	
5378	0	32906	32774	
5379	0	32788	32880	
5380	0	32844	32798	
5381	0	32872	32872	
5382	0	32908	32880	
5383	0	32920	32830	
5384	0	32768	32760	
5385	0	32704	32647	
5386	0	32702	32703	
5387	0	32760	32612	
5388	0	32856	32629	
5389	0	32784	32660	
5390	0	32904	32710	
5391	0	32968	32768	
5392	0	32924	32794	
5393	0	32880	32798	
5394	0	32652	32790	
5395	0	32616	32718	
5396	0	32622	32687	
5397	0	32624	32742	
5398	0	32644	32770	
5399	0	32900	32716	
5400	0	32996	32788	
5401	0	32834	32720	
5402	0	32800	32864	
5403	0	32800	32720	
5404	0	32892	32832	
5405	0	32720	32897	
5406	0	32748	32762	
5407	0	32756	32984	
5408	0	32852	32898	
5409	0	32892	32884	
5410	0	32788	32916	
5411	0	32716	32874	
5412	0	32872	32832	
5413	0	32784	32812	
5414	0	32884	32902	
5415	0	32780	32858	
5416	0	32732	32830	
5417	0	32862	32899	
5418	0	32748	32746	
5419	0	32740	32718	
5420	0	32768	32720	
5421	0	32720	32671	
5422	0	32792	32668	
5423	0	32928	32710	
5424	0	32812	32688	
5425	0	32752	32724	
5426	0	32838	32839	
5427	0	32944	32926	
5428	0	32912	32839	
5429	0	32864	32775	
5430	0	32864	32830	
5431	0	32820	32860	
5432	0	32852	32772	
5433	0	32760	32814	
5434	0	32840	32823	
5435	0	32924	32856	
5436	0	32952	32832	
5437	0	32842	32858	
5438	0	32772	32802	
5439	0	32744	32716	
5440	0	32676	32652	
5441	0	32728	32697	
5442	0	32804	32672	
5443	0	32902	32670	
5444	0	32996	32736	
5445	0	32850	32744	
5446	0	32788	32710	
5447	0	32772	32760	
5448	0	32780	32766	
5449	0	32864	32858	
5450	0	32836	32806	
5451	0	32868	32758	
5452	0	32922	32748	
5453	0	32848	32756	
5454	0	32816	32764	
5455	0	32780	32654	
5456	0	32748	32647	
5457	0	32706	32678	
5458	0	32686	32808	
5459	0	32836	32746	
5460	0	32814	32792	
5461	0	32896	32860	
5462	0	32762	32800	
5463	0	32728	32710	
5464	0	32814	32791	
5465	0	32814	32760	
5466	0	32936	32664	
5467	0	32814	32708	
5468	0	32850	32708	
5469	0	32832	32884	
5470	0	32600	32834	
5471	0	32692	32817	
5472	0	32772	32856	
5473	0	32768	32808	
5474	0	32680	32660	
5475	0	32784	32762	
5476	0	32688	32700	
5477	0	32832	32706	
5478	0	32844	32724	
5479	0	32824	32762	
5480	0	32786	32692	
5481	0	32966	32634	
5482	0	32818	32708	
5483	0	32832	32775	
5484	0	32800	32775	
5485	0	32620	32764	
5486	0	32828	32724	
5487	0	32910	32654	
5488	0	32816	32632	
5489	0	32740	32732	
5490	0	32808	32810	
5491	0	32836	32695	
5492	0	32792	32828	
5493	0	32980	32846	
5494	0	32914	32856	
5495	0	32872	32824	
5496	0	32700	32760	
5497	0	32848	32718	
5498	0	32790	32640	
5499	0	32814	32750	
5500	0	32710	32742	
5501	0	32748	32764	
5502	0	32892	32924	
5503	0	32796	32856	
5504	0	32744	32774	
5505	0	32856	32768	
5506	0	32874	32839	
5507	0	32842	32784	
5508	0	32740	32762	
5509	0	32780	32810	
5510	0	32906	32718	
5511	0	32832	32820	
5512	0	32868	32832	
5513	0	32836	32775	
5514	0	32780	32772	
5515	0	32754	32774	
5516	0	32740	32692	
5517	0	32756	32750	
5518	0	32696	32696	
5519	0	32752	32690	
5520	0	32968	32758	
5521	0	32964	32816	
5522	0	32900	32804	
5523	0	32804	32720	
5524	0	32792	32814	
5525	0	32748	32766	
5526	0	32714	32668	
5527	0	32740	32708	
5528	0	32740	32722	
5529	0	32792	32788	
5530	0	32752	32743	
5531	0	32832	32756	
5532	0	32788	32784	
5533	0	32680	32838	
5534	0	32868	32766	
5535	0	32784	32790	
5536	0	32740	32704	
5537	0	32640	32742	
5538	0	32764	32860	
5539	0	32856	32870	
5540	0	32940	32838	
5541	0	32950	32762	
5542	0	32924	32775	
5543	0	32825	32748	
5544	0	32874	32692	
5545	0	32868	32630	
5546	0	32868	32804	
5547	0	32744	32624	
5548	0	32868	32700	
5549	0	32994	32834	
5550	0	32948	32754	
5551	0	32944	32724	
5552	0	32840	32758	
5553	0	32964	32856	
5554	0	32904	32760	
5555	0	32836	32770	
5556	0	32714	32632	
5557	0	32720	32612	
5558	0	32788	32762	
5559	0	32700	32834	
5560	0	32682	32862	
5561	0	32720	32838	
5562	0	32704	32775	
5563	0	32764	32680	
5564	0	32696	32701	
5565	0	32748	32820	
5566	0	32744	32680	
5567	0	32846	32790	
5568	0	32884	32748	
5569	0	32808	32774	
5570	0	32792	32818	
5571	0	32820	32810	
5572	0	32878	32808	
5573	0	32796	32760	
5574	0	32849	32814	
5575	0	32754	32716	
5576	0	32632	32802	
5577	0	32704	32804	
5578	0	32812	32770	
5579	0	32744	32854	
5580	0	32790	32830	
5581	0	32936	32919	
5582	0	32852	32892	
5583	0	32912	32775	
5584	0	32844	32790	
5585	0	32888	32728	
5586	0	32892	32796	
5587	0	32976	32670	
5588	0	32844	32696	
5589	0	32904	32730	
5590	0	32874	32673	
5591	0	32876	32600	
5592	0	32740	32526	
5593	0	32800	32608	
5594	0	32748	32662	
5595	0	32716	32766	
5596	0	32760	32708	
5597	0	32724	32724	
5598	0	32774	32804	
5599	0	32740	32839	
5600	0	32848	32839	
5601	0	32860	32800	
5602	0	32752	32796	
5603	0	32760	32892	
5604	0	32728	32868	
5605	0	32608	32818	
5606	0	32760	32792	
5607	0	32948	32844	
5608	0	32952	32774	
5609	0	32900	32848	
5610	0	32896	32732	
5611	0	32876	32686	
5612	0	32686	32714	
5613	0	32760	32680	
5614	0	32664	32653	
5615	0	32784	32632	
5616	0	32784	32680	
5617	0	32920	32728	
5618	0	32804	32676	
5619	0	32768	32632	
5620	0	32840	32734	
5621	0	32868	32756	
5622	0	32820	32740	
5623	0	32858	32672	
5624	0	32884	32758	
5625	0	32848	32690	
5626	0	32832	32622	
5627	0	32874	32704	
5628	0	32804	32724	
5629	0	32804	32852	
5630	0	32856	32880	
5631	0	32724	32922	
5632	0	32712	32876	
5633	0	32708	32834	
5634	0	32752	32788	
5635	0	32740	32736	
5636	0	32708	32839	
5637	0	32656	32818	
5638	0	32698	32720	
5639	0	32728	32718	
5640	0	32800	32742	
5641	0	32868	32760	
5642	0	32880	32743	
5643	0	32880	32826	
5644	0	32782	32876	
5645	0	32876	32804	
5646	0	32868	32775	
5647	0	32980	32788	
5648	0	32980	32664	
5649	0	32972	32734	
5650	0	32800	32676	
5651	0	32772	32707	
5652	0	32842	32682	
5653	0	32904	32802	
5654	0	32820	32770	
5655	0	32960	32780	
5656	0	32968	32742	
5657	0	32830	32750	
5658	0	32742	32814	
5659	0	32700	32718	
5660	0	32712	32775	
5661	0	32760	32716	
5662	0	32746	32796	
5663	0	32780	32760	
5664	0	32820	32800	
5665	0	32844	32824	
5666	0	32700	32794	
5667	0	32700	32806	
5668	0	32746	32792	
5669	0	32736	32790	
5670	0	32776	32876	
5671	0	32812	32830	
5672	0	32884	32896	
5673	0	32978	32848	
5674	0	32736	32847	
5675	0	32572	32744	
5676	0	32700	32775	
5677	0	32778	32702	
5678	0	32636	32698	
5679	0	32766	32700	
5680	0	32670	32842	
5681	0	32612	32872	
5682	0	32688	32764	
5683	0	32676	32819	
5684	0	32714	32727	
5685	0	32668	32903	
5686	0	32656	32804	
5687	0	32714	32786	
5688	0	32808	32824	
5689	0	32820	32860	
5690	0	32884	32808	
5691	0	32814	32754	
5692	0	32872	32718	
5693	0	32832	32686	
5694	0	32834	32676	
5695	0	32838	32640	
5696	0	32932	32648	
5697	0	33056	32608	
5698	0	33156	32622	
5699	0	33100	32642	
5700	0	33224	32694	
5701	0	33328	32582	
5702	0	33372	32558	
5703	0	33320	32672	
5704	0	33278	32652	
5705	0	33194	32638	
5706	0	33160	32674	
5707	0	32920	32752	
5708	0	32888	32727	
5709	0	32792	32792	
5710	0	32720	32814	
5711	0	32594	32860	
5712	0	32536	32984	
5713	0	32580	32972	
5714	0	32565	32839	
5715	0	32528	32871	
5716	0	32568	32872	
5717	0	32580	32926	
5718	0	32566	32888	
5719	0	32620	32792	
5720	0	32576	32753	
5721	0	32652	32764	
5722	0	32658	32740	
5723	0	32702	32728	
5724	0	32708	32838	
5725	0	32710	32836	
5726	0	32720	32812	
5727	0	32752	32702	
5728	0	32786	32710	
5729	0	32864	32792	
5730	0	32864	32688	
5731	0	32792	32624	
5732	0	32794	32622	
5733	0	32864	32804	
5734	0	32794	32734	
5735	0	32784	32772	
5736	0	32748	32836	
5737	0	32806	32764	
5738	0	32772	32810	
5739	0	32822	32748	
5740	0	32784	32810	
5741	0	32760	32831	
5742	0	32784	32774	
5743	0	32782	32720	
5744	0	32794	32876	
5745	0	32830	32798	
5746	0	32914	32760	
5747	0	32878	32708	
5748	0	32914	32786	
5749	0	32840	32846	
5750	0	32800	32848	
5751	0	32844	32829	
5752	0	32896	32742	
5753	0	32798	32754	
5754	0	32820	32676	
5755	0	32864	32632	
5756	0	32848	32646	
5757	0	32816	32647	
5758	0	32868	32766	
5759	0	32862	32763	
5760	0	32812	32775	
5761	0	32910	32800	
5762	0	32848	32794	
5763	0	32774	32756	
5764	0	32792	32880	
5765	0	32816	32878	
5766	0	32846	32774	
5767	0	32808	32822	
5768	0	32864	32768	
5769	0	32828	32820	
5770	0	32828	32822	
5771	0	32764	32838	
5772	0	32798	32704	
5773	0	32746	32750	
5774	0	32804	32754	
5775	0	32860	32696	
5776	0	32852	32784	
5777	0	32824	32788	
5778	0	32774	32716	
5779	0	32796	32652	
5780	0	32800	32692	
5781	0	32796	32858	
5782	0	32856	32756	
5783	0	32816	32862	
5784	0	32752	32720	
5785	0	32784	32682	
5786	0	32808	32796	
5787	0	32800	32806	
5788	0	32816	32834	
5789	0	32798	32688	
5790	0	32776	32647	
5791	0	32768	32846	
5792	0	32888	32788	
5793	0	32794	32788	
5794	0	32846	32775	
5795	0	32768	32775	
5796	0	32820	32750	
5797	0	32816	32686	
5798	0	32824	32714	
5799	0	32824	32847	
5800	0	32794	32810	
5801	0	32774	32802	
5802	0	32832	32798	
5803	0	32728	32807	
5804	0	32744	32692	
5805	0	32800	32718	
5806	0	32750	32692	
5807	0	32804	32775	
5808	0	32776	32775	
5809	0	32836	32724	
5810	0	32820	32848	
5811	0	32800	32774	
5812	0	32792	32592	
5813	0	32822	32824	
5814	0	32808	32804	
5815	0	32776	32632	
5816	0	32780	32757	
5817	0	32796	32692	
5818	0	32908	32814	
5819	0	32810	32786	
5820	0	32780	32806	
5821	0	32832	32692	
5822	0	32828	32784	
5823	0	32808	32796	
5824	0	32823	32687	
5825	0	32794	32760	
5826	0	32796	32772	
5827	0	32864	32734	
5828	0	32800	32808	
5829	0	32856	32839	
5830	0	32820	32690	
5831	0	32802	32740	
5832	0	32804	32827	
5833	0	32888	32792	
5834	0	32838	32834	
5835	0	32836	32684	
5836	0	32824	32692	
5837	0	32764	32812	
5838	0	32840	32694	
5839	0	32786	32760	
5840	0	32804	32716	
5841	0	32780	32775	
5842	0	32826	32734	
5843	0	32860	32818	
5844	0	32780	32742	
5845	0	32798	32668	
5846	0	32814	32839	
5847	0	32852	32812	
5848	0	32768	32800	
5849	0	32824	32812	
5850	0	32829	32750	
5851	0	32804	32736	
5852	0	32834	32796	
5853	0	32776	32742	
5854	0	32816	32754	
5855	0	32844	32844	
5856	0	32856	32758	
5857	0	32758	32730	
5858	0	32786	32624	
5859	0	32800	32744	
5860	0	32820	32756	
5861	0	32790	32775	
5862	0	32784	32761	
5863	0	32816	32718	
5864	0	32776	32686	
5865	0	32812	32843	
5866	0	32776	32738	
5867	0	32726	32858	
5868	0	32850	32836	
5869	0	32804	32734	
5870	0	32840	32670	
5871	0	32856	32792	
5872	0	32826	32839	
5873	0	32880	32684	
5874	0	32792	32852	
5875	0	32816	32775	
5876	0	32852	32720	
5877	0	32808	32828	
5878	0	32748	32830	
5879	0	32846	32720	
5880	0	32796	32752	
5881	0	32814	32806	
5882	0	32768	32875	
5883	0	32752	32792	
5884	0	32820	32820	
5885	0	32710	32800	
5886	0	32806	32838	
5887	0	32842	32775	
5888	0	32782	32836	
5889	0	32772	32775	
5890	0	32758	32790	
5891	0	32618	32710	
5892	0	32740	32673	
5893	0	32746	32706	
5894	0	32762	32772	
5895	0	32848	32726	
5896	0	32768	32758	
5897	0	32836	32807	
5898	0	32812	32752	
5899	0	32770	32732	
5900	0	32816	32704	
5901	0	32844	32712	
5902	0	32798	32794	
5903	0	32788	32775	
5904	0	32752	32810	
5905	0	32780	32826	
5906	0	32820	32760	
5907	0	32832	32704	
5908	0	32808	32742	
5909	0	32818	32680	
5910	0	32816	32822	
5911	0	32824	32770	
5912	0	32840	32759	
5913	0	32844	32798	
5914	0	32790	32836	
5915	0	32826	32732	
5916	0	32768	32640	
5917	0	32870	32708	
5918	0	32860	32796	
5919	0	32840	32694	
5920	0	32844	32808	
5921	0	32832	32812	
5922	0	32832	32756	
5923	0	32880	32694	
5924	0	32834	32682	
5925	0	32782	32796	
5926	0	32756	32856	
5927	0	32820	32744	
5928	0	32876	32760	
5929	0	32834	32736	
5930	0	32880	32844	
5931	0	32916	32678	
5932	0	32796	32708	
5933	0	32912	32654	
5934	0	32884	32754	
5935	0	32852	32748	
5936	0	32816	32774	
5937	0	32754	32826	
5938	0	32740	32775	
5939	0	32756	32678	
5940	0	32780	32740	
5941	0	32856	32694	
5942	0	32832	32716	
5943	0	32764	32886	
5944	0	32808	32764	
5945	0	32836	32716	
5946	0	32828	32834	
5947	0	32816	32807	
5948	0	32826	32726	
5949	0	32896	32708	
5950	0	32754	32728	
5951	0	32856	32764	
5952	0	32844	32714	
5953	0	32812	32804	
5954	0	32874	32652	
5955	0	32748	32638	
5956	0	32718	32769	
5957	0	32788	32764	
5958	0	32880	32831	
5959	0	32808	32906	
5960	0	32856	32800	
5961	0	32810	32732	
5962	0	32788	32738	
5963	0	32764	32868	
5964	0	32784	32796	
5965	0	32756	32822	
5966	0	32864	32671	
5967	0	32822	32664	
5968	0	32824	32662	
5969	0	32756	32736	
5970	0	32782	32814	
5971	0	32760	32708	
5972	0	32732	32818	
5973	0	32796	32862	
5974	0	32799	32736	
5975	0	32748	32796	
5976	0	32792	32662	
5977	0	32798	32815	
5978	0	32772	32684	
5979	0	32794	32710	
5980	0	32836	32796	
5981	0	32816	32772	
5982	0	32790	32686	
5983	0	32810	32812	
5984	0	32808	32840	
5985	0	32852	32698	
5986	0	32836	32878	
5987	0	32882	32856	
5988	0	32824	32730	
5989	0	32848	32788	
5990	0	32876	32903	
5991	0	32848	32815	
5992	0	32838	32758	
5993	0	32876	32654	
5994	0	32796	32772	
5995	0	32740	32656	
5996	0	32804	32788	
5997	0	32828	32806	
5998	0	32832	32854	
5999	0	32832	32698	
6000	0	32840	32714	
6001	0	32824	32852	
6002	0	32812	32936	
6003	0	32804	32806	
6004	0	32788	32872	
6005	0	32751	32810	
6006	0	32780	32856	
6007	0	32816	32864	
6008	0	32770	32698	
6009	0	32730	32674	
6010	0	32818	32512	
6011	0	32792	32584	
6012	0	32836	32610	
