# OpenSignals Text File Format. Version 1
# {"00:07:80:8C:0A:39": {"position": 0, "device": "biosignalsplux", "device name": "00:07:80:8C:0A:39", "device connection": "BTH00:07:80:8C:0A:39", "sampling rate": 1000, "resolution": [16, 16], "firmware version": 776, "comments": "", "keywords": "", "mode": 0, "sync interval": 2, "date": "2023-3-17", "time": "11:7:22.169", "channels": [1, 2], "sensor": ["EMG", "EMG"], "label": ["CH1", "CH2"], "column": ["nSeq", "DI", "CH1", "CH2"], "special": [{"SpO2": [80, 40, 5, 4, 3, 3]}, {"SpO2": [80, 40, 5, 4, 3, 3]}, {"SpO2": [80, 40, 5, 4, 3, 3]}, {"SpO2": [80, 40, 5, 4, 3, 3]}, {"SpO2": [80, 40, 5, 4, 3, 3]}, {"SpO2": [80, 40, 5, 4, 3, 3]}, {"SpO2": [80, 40, 5, 4, 3, 3]}, {"SpO2": [80, 40, 5, 4, 3, 3]}], "digital IO": [0, 1], "sleeve color": ["gray", "yellow"], "convertedValues": 0}}
# EndOfHeader
0	0	32858	32775	
1	0	32862	32861	
2	0	32834	32742	
3	0	32795	32726	
4	0	32856	32696	
5	0	32824	32740	
6	0	32822	32800	
7	0	32848	32820	
8	0	32782	32704	
9	0	32816	32799	
10	0	32742	32816	
11	0	32820	32750	
12	0	32836	32810	
13	0	32852	32834	
14	0	32820	32826	
15	0	32840	32750	
16	0	32816	32738	
17	0	32784	32770	
18	0	32808	32660	
19	0	32834	32772	
20	0	32776	32807	
21	0	32774	32688	
22	0	32788	32708	
23	0	32808	32826	
24	0	32804	32814	
25	0	32840	32666	
26	0	32776	32828	
27	0	32840	32740	
28	0	32774	32720	
29	0	32808	32796	
30	0	32812	32794	
31	0	32840	32758	
32	0	32824	32766	
33	0	32810	32807	
34	0	32820	32800	
35	0	32844	32820	
36	0	32796	32702	
37	0	32824	32814	
38	0	32788	32736	
39	0	32821	32822	
40	0	32848	32736	
41	0	32844	32766	
42	0	32816	32810	
43	0	32812	32772	
44	0	32814	32668	
45	0	32836	32704	
46	0	32856	32762	
47	0	32785	32838	
48	0	32764	32750	
49	0	32728	32756	
50	0	32826	32794	
51	0	32826	32756	
52	0	32864	32860	
53	0	32832	32710	
54	0	32776	32750	
55	0	32834	32822	
56	0	32804	32740	
57	0	32804	32824	
58	0	32844	32612	
59	0	32840	32742	
60	0	32792	32775	
61	0	32756	32714	
62	0	32832	32700	
63	0	32848	32760	
64	0	32810	32786	
65	0	32840	32880	
66	0	32780	32711	
67	0	32852	32858	
68	0	32824	32862	
69	0	32836	32811	
70	0	32752	32800	
71	0	32840	32724	
72	0	32796	32830	
73	0	32808	32711	
74	0	32775	32796	
75	0	32852	32775	
76	0	32860	32858	
77	0	32776	32788	
78	0	32832	32692	
79	0	32812	32636	
80	0	32752	32816	
81	0	32808	32786	
82	0	32820	32696	
83	0	32858	32740	
84	0	32788	32695	
85	0	32886	32817	
86	0	32852	32724	
87	0	32840	32714	
88	0	32828	32832	
89	0	32804	32792	
90	0	32834	32916	
91	0	32766	32754	
92	0	32816	32672	
93	0	32852	32775	
94	0	32856	32864	
95	0	32838	32748	
96	0	32821	32679	
97	0	32792	32698	
98	0	32864	32775	
99	0	32815	32764	
100	0	32816	32694	
101	0	32848	32772	
102	0	32816	32750	
103	0	32820	32828	
104	0	32848	32704	
105	0	32782	32727	
106	0	32824	32796	
107	0	32788	32790	
108	0	32834	32742	
109	0	32852	32775	
110	0	32802	32806	
111	0	32760	32714	
112	0	32812	32767	
113	0	32816	32743	
114	0	32821	32704	
115	0	32830	32816	
116	0	32860	32790	
117	0	32846	32694	
118	0	32796	32688	
119	0	32769	32890	
120	0	32832	32858	
121	0	32832	32772	
122	0	32768	32752	
123	0	32804	32852	
124	0	32824	32788	
125	0	32792	32738	
126	0	32836	32748	
127	0	32790	32764	
128	0	32832	32823	
129	0	32776	32734	
130	0	32752	32804	
131	0	32840	32826	
132	0	32792	32682	
133	0	32852	32775	
134	0	32840	32689	
135	0	32800	32664	
136	0	32798	32722	
137	0	32812	32740	
138	0	32812	32767	
139	0	32822	32676	
140	0	32832	32796	
141	0	32868	32846	
142	0	32784	32766	
143	0	32764	32672	
144	0	32764	32824	
145	0	32852	32839	
146	0	32792	32775	
147	0	32784	32775	
148	0	32772	32864	
149	0	32792	32806	
150	0	32760	32806	
151	0	32838	32794	
152	0	32806	32812	
153	0	32840	32754	
154	0	32816	32775	
155	0	32824	32646	
156	0	32826	32825	
157	0	32752	32720	
158	0	32780	32828	
159	0	32870	32736	
160	0	32806	32788	
161	0	32826	32714	
162	0	32792	32714	
163	0	32884	32646	
164	0	32828	32752	
165	0	32792	32766	
166	0	32848	32750	
167	0	32762	32630	
168	0	32780	32835	
169	0	32808	32820	
170	0	32748	32774	
171	0	32856	32814	
172	0	32838	32668	
173	0	32796	32716	
174	0	32800	32842	
175	0	32840	32768	
176	0	32836	32751	
177	0	32848	32678	
178	0	32812	32710	
179	0	32782	32818	
180	0	32804	32766	
181	0	32840	32775	
182	0	32828	32732	
183	0	32836	32794	
184	0	32782	32790	
185	0	32816	32766	
186	0	32800	32724	
187	0	32794	32747	
188	0	32836	32742	
189	0	32724	32817	
190	0	32732	32871	
191	0	32788	32681	
192	0	32828	32752	
193	0	32808	32816	
194	0	32760	32860	
195	0	32840	32710	
196	0	32788	32722	
197	0	32842	32790	
198	0	32856	32746	
199	0	32828	32702	
200	0	32856	32678	
201	0	32778	32766	
202	0	32768	32732	
203	0	32808	32722	
204	0	32772	32711	
205	0	32834	32935	
206	0	32804	32775	
207	0	32830	32742	
208	0	32800	32766	
209	0	32788	32800	
210	0	32772	32826	
211	0	32796	32660	
212	0	32878	32724	
213	0	32784	32746	
214	0	32780	32743	
215	0	32816	32704	
216	0	32826	32740	
217	0	32780	32686	
218	0	32784	32796	
219	0	32792	32670	
220	0	32840	32775	
221	0	32768	32764	
222	0	32756	32770	
223	0	32764	32662	
224	0	32750	32540	
225	0	32780	32746	
226	0	32742	32736	
227	0	32746	32734	
228	0	32784	32732	
229	0	32746	32606	
230	0	32736	32820	
231	0	32740	32682	
232	0	32752	32748	
233	0	32736	32672	
234	0	32800	32746	
235	0	32848	32804	
236	0	32896	32804	
237	0	32824	32775	
238	0	32880	32734	
239	0	32906	32958	
240	0	32858	32846	
241	0	32892	32934	
242	0	32904	32806	
243	0	32893	32831	
244	0	32912	32919	
245	0	32932	32918	
246	0	32960	32928	
247	0	32884	32935	
248	0	32888	32826	
249	0	32864	32874	
250	0	32844	32839	
251	0	32912	32912	
252	0	32894	32838	
253	0	32848	32871	
254	0	32904	33010	
255	0	32912	32936	
256	0	32880	32775	
257	0	32866	32734	
258	0	32832	32830	
259	0	32816	32742	
260	0	32748	32647	
261	0	32766	32775	
262	0	32724	32572	
263	0	32774	32632	
264	0	32718	32698	
265	0	32740	32632	
266	0	32724	32692	
267	0	32716	32682	
268	0	32752	32692	
269	0	32764	32788	
270	0	32748	32750	
271	0	32844	32804	
272	0	32828	32600	
273	0	32792	32704	
274	0	32794	32798	
275	0	32784	32760	
276	0	32840	32815	
277	0	32786	32636	
278	0	32876	32775	
279	0	32832	32820	
280	0	32832	32756	
281	0	32764	32760	
282	0	32812	32734	
283	0	32838	32772	
284	0	32844	32753	
285	0	32800	32860	
286	0	32804	32698	
287	0	32820	32804	
288	0	32844	32748	
289	0	32756	32740	
290	0	32764	32708	
291	0	32872	32799	
292	0	32848	32756	
293	0	32826	32871	
294	0	32812	32656	
295	0	32784	32839	
296	0	32868	32710	
297	0	32836	32742	
298	0	32854	32744	
299	0	32796	32864	
300	0	32808	32756	
301	0	32816	32903	
302	0	32820	32743	
303	0	32772	32694	
304	0	32814	32796	
305	0	32808	32762	
306	0	32852	32764	
307	0	32828	32694	
308	0	32810	32820	
309	0	32754	32774	
310	0	32832	32758	
311	0	32790	32775	
312	0	32786	32762	
313	0	32792	32742	
314	0	32802	32896	
315	0	32788	32804	
316	0	32868	32754	
317	0	32794	32798	
318	0	32808	32736	
319	0	32804	32699	
320	0	32762	32720	
321	0	32812	32775	
322	0	32796	32871	
323	0	32858	32708	
324	0	32796	32752	
325	0	32802	32665	
326	0	32722	32711	
327	0	32884	32732	
328	0	32824	32763	
329	0	32732	32790	
330	0	32816	32887	
331	0	32778	32680	
332	0	32820	32656	
333	0	32796	32824	
334	0	32872	32775	
335	0	32816	32840	
336	0	32796	32686	
337	0	32792	32783	
338	0	32784	32742	
339	0	32862	32727	
340	0	32808	32744	
341	0	32766	32732	
342	0	32796	32647	
343	0	32864	32822	
344	0	32826	32792	
345	0	32832	32673	
346	0	32892	32775	
347	0	32784	32764	
348	0	32800	32811	
349	0	32788	32692	
350	0	32808	32876	
351	0	32836	32830	
352	0	32798	32764	
353	0	32804	32794	
354	0	32792	32840	
355	0	32786	32668	
356	0	32810	32774	
357	0	32808	32812	
358	0	32784	32840	
359	0	32834	32750	
360	0	32796	32638	
361	0	32828	32720	
362	0	32896	32822	
363	0	32796	32662	
364	0	32856	32900	
365	0	32816	32897	
366	0	32808	32678	
367	0	32732	32792	
368	0	32836	32847	
369	0	32848	32758	
370	0	32804	32806	
371	0	32840	32772	
372	0	32868	32724	
373	0	32812	32788	
374	0	32760	32800	
375	0	32836	32823	
376	0	32836	32861	
377	0	32830	32860	
378	0	32762	32678	
379	0	32836	32698	
380	0	32788	32734	
381	0	32788	32775	
382	0	32848	32647	
383	0	32818	32868	
384	0	32860	32739	
385	0	32876	32846	
386	0	32798	32720	
387	0	32784	32812	
388	0	32788	32760	
389	0	32750	32798	
390	0	32784	32792	
391	0	32792	32758	
392	0	32834	32790	
393	0	32828	32838	
394	0	32824	32738	
395	0	32852	32736	
396	0	32786	32775	
397	0	32774	32838	
398	0	32756	32768	
399	0	32824	32826	
400	0	32780	32671	
401	0	32844	32804	
402	0	32844	32818	
403	0	32816	32800	
404	0	32876	32714	
405	0	32752	32751	
406	0	32808	32718	
407	0	32816	32748	
408	0	32852	32710	
409	0	32804	32726	
410	0	32776	32792	
411	0	32768	32726	
412	0	32796	32918	
413	0	32792	32718	
414	0	32882	32875	
415	0	32858	32820	
416	0	32838	32674	
417	0	32868	32686	
418	0	32834	32774	
419	0	32794	32754	
420	0	32820	32752	
421	0	32790	32756	
422	0	32796	32775	
423	0	32816	32657	
424	0	32772	32775	
425	0	32868	32752	
426	0	32872	32788	
427	0	32772	32699	
428	0	32780	32743	
429	0	32808	32800	
430	0	32780	32740	
431	0	32826	32766	
432	0	32816	32819	
433	0	32868	32850	
434	0	32786	32692	
435	0	32788	32775	
436	0	32808	32737	
437	0	32800	32732	
438	0	32780	32742	
439	0	32836	32756	
440	0	32840	32772	
441	0	32852	32705	
442	0	32786	32836	
443	0	32788	32739	
444	0	32816	32728	
445	0	32760	32732	
446	0	32764	32826	
447	0	32852	32796	
448	0	32778	32750	
449	0	32798	32826	
450	0	32796	32775	
451	0	32856	32696	
452	0	32794	32830	
453	0	32852	32806	
454	0	32812	32874	
455	0	32840	32750	
456	0	32740	32768	
457	0	32821	32811	
458	0	32798	32718	
459	0	32806	32774	
460	0	32820	32736	
461	0	32838	32746	
462	0	32792	32712	
463	0	32796	32642	
464	0	32788	32775	
465	0	32892	32757	
466	0	32792	32859	
467	0	32810	32732	
468	0	32776	32756	
469	0	32866	32847	
470	0	32820	32772	
471	0	32792	32852	
472	0	32838	32764	
473	0	32776	32775	
474	0	32797	32784	
475	0	32772	32846	
476	0	32820	32738	
477	0	32840	32716	
478	0	32856	32794	
479	0	32841	32750	
480	0	32808	32704	
481	0	32828	32754	
482	0	32812	32774	
483	0	32772	32722	
484	0	32820	32819	
485	0	32847	32788	
486	0	32878	32784	
487	0	32848	32830	
488	0	32804	32698	
489	0	32800	32812	
490	0	32860	32832	
491	0	32852	32775	
492	0	32810	32704	
493	0	32816	32676	
494	0	32804	32810	
495	0	32772	32814	
496	0	32852	32759	
497	0	32852	32688	
498	0	32786	32756	
499	0	32814	32784	
500	0	32838	32798	
501	0	32836	32848	
502	0	32784	32756	
503	0	32820	32767	
504	0	32852	32838	
505	0	32744	32726	
506	0	32878	32743	
507	0	32728	32775	
508	0	32812	32806	
509	0	32792	32768	
510	0	32800	32705	
511	0	32796	32798	
512	0	32828	32802	
513	0	32854	32689	
514	0	32784	32764	
515	0	32788	32774	
516	0	32802	32830	
517	0	32824	32700	
518	0	32756	32716	
519	0	32836	32814	
520	0	32820	32758	
521	0	32812	32838	
522	0	32832	32719	
523	0	32716	32798	
524	0	32802	32748	
525	0	32844	32794	
526	0	32780	32850	
527	0	32816	32758	
528	0	32816	32804	
529	0	32820	32784	
530	0	32812	32871	
531	0	32768	32676	
532	0	32824	32826	
533	0	32798	32714	
534	0	32750	32830	
535	0	32794	32714	
536	0	32832	32784	
537	0	32792	32818	
538	0	32816	32840	
539	0	32756	32666	
540	0	32858	32679	
541	0	32842	32746	
542	0	32804	32775	
543	0	32832	32767	
544	0	32772	32762	
545	0	32772	32688	
546	0	32772	32760	
547	0	32784	32832	
548	0	32772	32772	
549	0	32840	32812	
550	0	32824	32839	
551	0	32788	32738	
552	0	32808	32760	
553	0	32872	32802	
554	0	32788	32759	
555	0	32852	32775	
556	0	32780	32710	
557	0	32806	32775	
558	0	32812	32775	
559	0	32808	32834	
560	0	32844	32682	
561	0	32864	32702	
562	0	32790	32752	
563	0	32780	32718	
564	0	32816	32775	
565	0	32812	32900	
566	0	32792	32712	
567	0	32842	32802	
568	0	32796	32823	
569	0	32800	32837	
570	0	32812	32710	
571	0	32800	32742	
572	0	32814	32828	
573	0	32870	32708	
574	0	32822	32766	
575	0	32848	32774	
576	0	32792	32673	
577	0	32754	32796	
578	0	32896	32888	
579	0	32800	32714	
580	0	32862	32668	
581	0	32812	32710	
582	0	32808	32793	
583	0	32796	32686	
584	0	32852	32820	
585	0	32796	32732	
586	0	32784	32830	
587	0	32840	32678	
588	0	32824	32850	
589	0	32808	32726	
590	0	32792	32792	
591	0	32837	32750	
592	0	32842	32802	
593	0	32828	32792	
594	0	32784	32762	
595	0	32794	32818	
596	0	32772	32730	
597	0	32816	32878	
598	0	32796	32740	
599	0	32800	32872	
600	0	32824	32792	
601	0	32830	32821	
602	0	32804	32658	
603	0	32844	32775	
604	0	32820	32679	
605	0	32785	32743	
606	0	32788	32743	
607	0	32844	32742	
608	0	32848	32884	
609	0	32788	32844	
610	0	32832	32842	
611	0	32778	32832	
612	0	32784	32822	
613	0	32784	32770	
614	0	32828	32758	
615	0	32782	32703	
616	0	32826	32806	
617	0	32744	32748	
618	0	32828	32788	
619	0	32790	32607	
620	0	32780	32683	
621	0	32852	32832	
622	0	32822	32672	
623	0	32812	32683	
624	0	32808	32704	
625	0	32836	32842	
626	0	32834	32734	
627	0	32808	32750	
628	0	32856	32740	
629	0	32804	32775	
630	0	32856	32903	
631	0	32756	32806	
632	0	32852	32668	
633	0	32848	32775	
634	0	32832	32756	
635	0	32824	32806	
636	0	32832	32692	
637	0	32800	32770	
638	0	32796	32806	
639	0	32812	32860	
640	0	32764	32702	
641	0	32856	32831	
642	0	32838	32810	
643	0	32816	32674	
644	0	32838	32817	
645	0	32792	32775	
646	0	32826	32718	
647	0	32836	32708	
648	0	32816	32839	
649	0	32760	32756	
650	0	32794	32830	
651	0	32800	32718	
652	0	32804	32772	
653	0	32820	32798	
654	0	32830	32750	
655	0	32804	32695	
656	0	32848	32654	
657	0	32854	32807	
658	0	32804	32742	
659	0	32872	32766	
660	0	32736	32714	
661	0	32876	32728	
662	0	32772	32774	
663	0	32852	32744	
664	0	32778	32784	
665	0	32817	32710	
666	0	32768	32711	
667	0	32808	32792	
668	0	32774	32924	
669	0	32840	32708	
670	0	32896	32870	
671	0	32824	32751	
672	0	32886	32690	
673	0	32774	32793	
674	0	32814	32748	
675	0	32864	32808	
676	0	32814	32798	
677	0	32828	32758	
678	0	32816	32807	
679	0	32812	32744	
680	0	32880	32812	
681	0	32870	32739	
682	0	32816	32808	
683	0	32756	32743	
684	0	32792	32726	
685	0	32760	32711	
686	0	32772	32812	
687	0	32768	32807	
688	0	32780	32754	
689	0	32792	32796	
690	0	32728	32706	
691	0	32848	32772	
692	0	32856	32711	
693	0	32748	32756	
694	0	32772	32734	
695	0	32850	32758	
696	0	32784	32718	
697	0	32892	32832	
698	0	32828	32794	
699	0	32748	32708	
700	0	32826	32732	
701	0	32832	32892	
702	0	32860	32762	
703	0	32792	32694	
704	0	32848	32837	
705	0	32768	32732	
706	0	32866	32670	
707	0	32844	32830	
708	0	32800	32822	
709	0	32806	32708	
710	0	32820	32775	
711	0	32808	32862	
712	0	32756	32820	
713	0	32802	32695	
714	0	32834	32820	
715	0	32756	32767	
716	0	32804	32828	
717	0	32808	32724	
718	0	32812	32888	
719	0	32888	32748	
720	0	32824	32706	
721	0	32838	32784	
722	0	32844	32884	
723	0	32800	32792	
724	0	32824	32834	
725	0	32820	32696	
726	0	32780	32806	
727	0	32796	32892	
728	0	32836	32718	
729	0	32836	32866	
730	0	32771	32718	
731	0	32830	32802	
732	0	32856	32686	
733	0	32834	32775	
734	0	32840	32758	
735	0	32832	32672	
736	0	32808	32808	
737	0	32802	32788	
738	0	32840	32730	
739	0	32834	32790	
740	0	32876	32870	
741	0	32818	32710	
742	0	32864	32775	
743	0	32808	32764	
744	0	32820	32855	
745	0	32750	32689	
746	0	32836	32810	
747	0	32806	32816	
748	0	32794	32840	
749	0	32756	32676	
750	0	32730	32834	
751	0	32780	32802	
752	0	32816	32836	
753	0	32800	32670	
754	0	32884	32792	
755	0	32812	32802	
756	0	32872	32818	
757	0	32816	32672	
758	0	32810	32726	
759	0	32782	32795	
760	0	32848	32814	
761	0	32858	32750	
762	0	32728	32775	
763	0	32848	32740	
764	0	32804	32775	
765	0	32824	32708	
766	0	32816	32834	
767	0	32792	32818	
768	0	32802	32800	
769	0	32858	32708	
770	0	32752	32644	
771	0	32766	32839	
772	0	32810	32784	
773	0	32756	32690	
774	0	32826	32798	
775	0	32860	32774	
776	0	32854	32718	
777	0	32806	32775	
778	0	32836	32836	
779	0	32828	32807	
780	0	32820	32714	
781	0	32774	32676	
782	0	32884	32780	
783	0	32778	32726	
784	0	32816	32796	
785	0	32780	32720	
786	0	32828	32820	
787	0	32792	32828	
788	0	32758	32692	
789	0	32752	32844	
790	0	32817	32794	
791	0	32844	32710	
792	0	32810	32834	
793	0	32792	32770	
794	0	32816	32710	
795	0	32820	32863	
796	0	32860	32870	
797	0	32816	32742	
798	0	32788	32679	
799	0	32824	32775	
800	0	32788	32746	
801	0	32820	32704	
802	0	32792	32774	
803	0	32804	32810	
804	0	32818	32756	
805	0	32788	32830	
806	0	32814	32742	
807	0	32788	32822	
808	0	32816	32634	
809	0	32808	32710	
810	0	32744	32858	
811	0	32856	32792	
812	0	32798	32668	
813	0	32760	32764	
814	0	32800	32775	
815	0	32816	32810	
816	0	32802	32695	
817	0	32836	32770	
818	0	32800	32772	
819	0	32834	32800	
820	0	32824	32642	
821	0	32824	32801	
822	0	32860	32810	
823	0	32792	32862	
824	0	32824	32758	
825	0	32900	32862	
826	0	32906	32850	
827	0	32836	32794	
828	0	32864	32774	
829	0	32836	32854	
830	0	32828	32775	
831	0	32720	32690	
832	0	32826	32706	
833	0	32772	32750	
834	0	32784	32736	
835	0	32834	32730	
836	0	32836	32724	
837	0	32834	32732	
838	0	32810	32751	
839	0	32852	32794	
840	0	32832	32670	
841	0	32796	32839	
842	0	32792	32784	
843	0	32768	32711	
844	0	32812	32727	
845	0	32824	32798	
846	0	32792	32772	
847	0	32780	32694	
848	0	32860	32844	
849	0	32824	32775	
850	0	32826	32774	
851	0	32824	32676	
852	0	32852	32754	
853	0	32800	32795	
854	0	32794	32844	
855	0	32836	32676	
856	0	32794	32775	
857	0	32860	32810	
858	0	32808	32735	
859	0	32812	32800	
860	0	32816	32775	
861	0	32862	32818	
862	0	32788	32710	
863	0	32842	32794	
864	0	32752	32822	
865	0	32804	32704	
866	0	32854	32678	
867	0	32780	32743	
868	0	32798	32856	
869	0	32794	32775	
870	0	32776	32764	
871	0	32758	32720	
872	0	32836	32768	
873	0	32828	32696	
874	0	32792	32711	
875	0	32800	32774	
876	0	32724	32854	
877	0	32816	32676	
878	0	32768	32743	
879	0	32868	32750	
880	0	32834	32798	
881	0	32814	32666	
882	0	32798	32775	
883	0	32832	32750	
884	0	32828	32754	
885	0	32806	32870	
886	0	32828	32814	
887	0	32784	32750	
888	0	32852	32774	
889	0	32808	32786	
890	0	32804	32682	
891	0	32770	32812	
892	0	32800	32686	
893	0	32828	32740	
894	0	32842	32752	
895	0	32784	32762	
896	0	32876	32768	
897	0	32818	32714	
898	0	32852	32798	
899	0	32836	32864	
900	0	32816	32743	
901	0	32824	32827	
902	0	32806	32764	
903	0	32880	32714	
904	0	32792	32771	
905	0	32784	32750	
906	0	32808	32687	
907	0	32784	32807	
908	0	32808	32743	
909	0	32848	32703	
910	0	32858	32862	
911	0	32876	32927	
912	0	32764	32718	
913	0	32818	32772	
914	0	32772	32743	
915	0	32820	32687	
916	0	32800	32660	
917	0	32758	32792	
918	0	32828	32796	
919	0	32816	32710	
920	0	32764	32638	
921	0	32784	32692	
922	0	32768	32831	
923	0	32768	32700	
924	0	32832	32774	
925	0	32832	32748	
926	0	32792	32795	
927	0	32808	32822	
928	0	32794	32736	
929	0	32823	32847	
930	0	32800	32823	
931	0	32764	32711	
932	0	32828	32834	
933	0	32822	32810	
934	0	32824	32726	
935	0	32823	32772	
936	0	32852	32838	
937	0	32794	32831	
938	0	32826	32774	
939	0	32772	32720	
940	0	32832	32886	
941	0	32820	32818	
942	0	32868	32710	
943	0	32816	32722	
944	0	32808	32738	
945	0	32762	32766	
946	0	32772	32654	
947	0	32842	32839	
948	0	32840	32852	
949	0	32814	32722	
950	0	32750	32732	
951	0	32748	32663	
952	0	32748	32753	
953	0	32832	32838	
954	0	32850	32742	
955	0	32800	32770	
956	0	32874	32766	
957	0	32796	32784	
958	0	32848	32620	
959	0	32818	32798	
960	0	32812	32772	
961	0	32804	32741	
962	0	32760	32764	
963	0	32770	32775	
964	0	32908	32664	
965	0	32792	32855	
966	0	32804	32854	
967	0	32752	32660	
968	0	32708	32804	
969	0	32828	32807	
970	0	32790	32799	
971	0	32804	32766	
972	0	32812	32775	
973	0	32862	32775	
974	0	32858	32656	
975	0	32832	32772	
976	0	32764	32667	
977	0	32800	32807	
978	0	32812	32678	
979	0	32848	32802	
980	0	32788	32764	
981	0	32894	32670	
982	0	32884	32678	
983	0	32804	32871	
984	0	32786	32774	
985	0	32786	32647	
986	0	32872	32738	
987	0	32758	32775	
988	0	32834	32844	
989	0	32842	32788	
990	0	32752	32822	
991	0	32814	32774	
992	0	32780	32772	
993	0	32772	32752	
994	0	32832	32760	
995	0	32820	32800	
996	0	32814	32670	
997	0	32860	32816	
998	0	32864	32694	
999	0	32788	32671	
1000	0	32836	32858	
1001	0	32774	32754	
1002	0	32794	32772	
1003	0	32774	32646	
1004	0	32780	32748	
1005	0	32804	32706	
1006	0	32782	32760	
1007	0	32772	32722	
1008	0	32768	32708	
1009	0	32792	32711	
1010	0	32780	32656	
1011	0	32740	32647	
1012	0	32748	32718	
1013	0	32754	32743	
1014	0	32730	32756	
1015	0	32736	32730	
1016	0	32740	32752	
1017	0	32736	32730	
1018	0	32792	32608	
1019	0	32832	32720	
1020	0	32772	32692	
1021	0	32904	32762	
1022	0	32910	32826	
1023	0	32836	32714	
1024	0	32806	32852	
1025	0	32794	32967	
1026	0	32750	32918	
1027	0	32832	32874	
1028	0	32828	33006	
1029	0	32876	32886	
1030	0	33012	32942	
1031	0	33002	32958	
1032	0	32958	32892	
1033	0	32860	32930	
1034	0	32916	32878	
1035	0	32902	32855	
1036	0	32928	32916	
1037	0	32918	32868	
1038	0	32944	32702	
1039	0	32936	32708	
1040	0	32898	32926	
1041	0	32938	32872	
1042	0	32840	32768	
1043	0	32780	32730	
1044	0	32744	32686	
1045	0	32754	32663	
1046	0	32720	32574	
1047	0	32806	32726	
1048	0	32780	32702	
1049	0	32692	32770	
1050	0	32732	32606	
1051	0	32748	32775	
1052	0	32762	32838	
1053	0	32702	32950	
1054	0	32724	32792	
1055	0	32760	32830	
1056	0	32732	32794	
1057	0	32772	32646	
1058	0	32704	32656	
1059	0	32856	32622	
1060	0	32844	32734	
1061	0	32740	32748	
1062	0	32768	32607	
1063	0	32680	32743	
1064	0	32730	32694	
1065	0	32784	32830	
1066	0	32758	32800	
1067	0	32834	32734	
1068	0	32852	32878	
1069	0	32738	32840	
1070	0	32732	32734	
1071	0	32764	32766	
1072	0	32768	32766	
1073	0	32832	32775	
1074	0	32824	32746	
1075	0	32880	32711	
1076	0	32844	32775	
1077	0	32798	32644	
1078	0	32798	32490	
1079	0	32884	32554	
1080	0	32824	32526	
1081	0	32828	32523	
1082	0	32816	32606	
1083	0	32824	32688	
1084	0	32864	32863	
1085	0	32806	32970	
1086	0	32846	33138	
1087	0	32872	33130	
1088	0	32870	33086	
1089	0	32904	33082	
1090	0	32832	33002	
1091	0	32832	32983	
1092	0	32754	32834	
1093	0	32784	32759	
1094	0	32810	32732	
1095	0	32821	32775	
1096	0	32786	32576	
1097	0	32740	32711	
1098	0	32808	32690	
1099	0	32764	32614	
1100	0	32832	32628	
1101	0	32844	32803	
1102	0	32828	32653	
1103	0	32860	32615	
1104	0	32826	32761	
1105	0	32850	32528	
1106	0	32744	32612	
1107	0	32856	32680	
1108	0	32817	32655	
1109	0	32788	32660	
1110	0	32804	32751	
1111	0	32758	32852	
1112	0	32784	32807	
1113	0	32836	32854	
1114	0	32818	32872	
1115	0	32812	32847	
1116	0	32846	32884	
1117	0	32876	32706	
1118	0	32816	32746	
1119	0	32788	32687	
1120	0	32748	32725	
1121	0	32816	32724	
1122	0	32792	32710	
1123	0	32884	32770	
1124	0	32830	32582	
1125	0	32852	32804	
1126	0	32918	32756	
1127	0	32808	32689	
1128	0	32834	32775	
1129	0	32896	32738	
1130	0	32764	32858	
1131	0	32788	32816	
1132	0	32720	32820	
1133	0	32752	32816	
1134	0	32752	32854	
1135	0	32754	32722	
1136	0	32714	32750	
1137	0	32756	32796	
1138	0	32676	32764	
1139	0	32632	32730	
1140	0	32746	32820	
1141	0	32874	32804	
1142	0	32806	32600	
1143	0	32868	32606	
1144	0	32932	32754	
1145	0	32932	32804	
1146	0	32892	32738	
1147	0	32832	32720	
1148	0	32868	32740	
1149	0	32896	32850	
1150	0	32834	32795	
1151	0	32864	32814	
1152	0	32832	32752	
1153	0	32816	32806	
1154	0	32784	32736	
1155	0	32752	32751	
1156	0	32778	32932	
1157	0	32822	32854	
1158	0	32768	32775	
1159	0	32822	32690	
1160	0	32820	32836	
1161	0	32732	32806	
1162	0	32685	32881	
1163	0	32688	32722	
1164	0	32708	32686	
1165	0	32756	32791	
1166	0	32806	32788	
1167	0	32860	32794	
1168	0	32890	32662	
1169	0	32868	32806	
1170	0	32844	32718	
1171	0	32824	32672	
1172	0	32894	32602	
1173	0	32824	32764	
1174	0	32862	32775	
1175	0	32886	32762	
1176	0	32814	32775	
1177	0	32824	32876	
1178	0	32792	32908	
1179	0	32748	32903	
1180	0	32728	32815	
1181	0	32732	32788	
1182	0	32778	32832	
1183	0	32724	32818	
1184	0	32824	32748	
1185	0	32748	32724	
1186	0	32760	32696	
1187	0	32784	32824	
1188	0	32804	32740	
1189	0	32820	32774	
1190	0	32884	32831	
1191	0	32836	32762	
1192	0	32812	32775	
1193	0	32800	32740	
1194	0	32844	32734	
1195	0	32740	32694	
1196	0	32740	32726	
1197	0	32796	32736	
1198	0	32784	32728	
1199	0	32936	32703	
1200	0	32880	32743	
1201	0	32858	32770	
1202	0	32844	32736	
1203	0	32852	32608	
1204	0	32888	32663	
1205	0	32816	32790	
1206	0	32924	32754	
1207	0	32944	32790	
1208	0	32896	32702	
1209	0	32768	32775	
1210	0	32764	32860	
1211	0	32682	32728	
1212	0	32748	32808	
1213	0	32622	32828	
1214	0	32640	32726	
1215	0	32744	32690	
1216	0	32860	32732	
1217	0	32936	32698	
1218	0	32932	32820	
1219	0	32808	32802	
1220	0	32870	32608	
1221	0	32784	32688	
1222	0	32840	32960	
1223	0	32898	32938	
1224	0	32824	32942	
1225	0	32832	32798	
1226	0	32808	32871	
1227	0	32878	32842	
1228	0	32820	32844	
1229	0	32820	32672	
1230	0	32780	32636	
1231	0	32768	32759	
1232	0	32868	32772	
1233	0	32816	32896	
1234	0	32796	32824	
1235	0	32824	32764	
1236	0	32808	32683	
1237	0	32807	32610	
1238	0	32768	32506	
1239	0	32684	32775	
1240	0	32776	32614	
1241	0	32764	32718	
1242	0	32764	32826	
1243	0	32772	32943	
1244	0	32756	32830	
1245	0	32816	32754	
1246	0	32884	32866	
1247	0	32920	32828	
1248	0	32946	32918	
1249	0	32838	32775	
1250	0	32844	32668	
1251	0	32902	32696	
1252	0	32900	32826	
1253	0	32864	32882	
1254	0	32916	32857	
1255	0	32806	32828	
1256	0	32932	32636	
1257	0	32924	32620	
1258	0	32840	32718	
1259	0	32856	32726	
1260	0	32788	32716	
1261	0	32740	32886	
1262	0	32752	32842	
1263	0	32724	32714	
1264	0	32728	32789	
1265	0	32802	32775	
1266	0	32744	32868	
1267	0	32680	32798	
1268	0	32840	32759	
1269	0	32832	32612	
1270	0	32852	32632	
1271	0	32850	32752	
1272	0	32920	32690	
1273	0	32910	32639	
1274	0	32912	32576	
1275	0	32856	32718	
1276	0	32840	32706	
1277	0	32834	32716	
1278	0	32828	32774	
1279	0	32764	32684	
1280	0	32784	32836	
1281	0	32728	32836	
1282	0	32704	32751	
1283	0	32784	32892	
1284	0	32816	32748	
1285	0	32772	32818	
1286	0	32780	32842	
1287	0	32750	32862	
1288	0	32770	32934	
1289	0	32800	32868	
1290	0	32820	32750	
1291	0	32740	32814	
1292	0	32778	32791	
1293	0	32798	32826	
1294	0	32872	32722	
1295	0	32856	32735	
1296	0	32806	32759	
1297	0	32732	32679	
1298	0	32676	32740	
1299	0	32788	32830	
1300	0	32792	32926	
1301	0	32744	32839	
1302	0	32794	32944	
1303	0	32792	32775	
1304	0	32806	32742	
1305	0	32864	32760	
1306	0	32884	32838	
1307	0	32800	32828	
1308	0	32804	32830	
1309	0	32748	32681	
1310	0	32828	32728	
1311	0	32874	32822	
1312	0	32824	32818	
1313	0	32840	32711	
1314	0	32860	32754	
1315	0	32848	32684	
1316	0	32868	32761	
1317	0	32880	32774	
1318	0	32868	32794	
1319	0	32812	32756	
1320	0	32896	32820	
1321	0	32866	32894	
1322	0	32812	32798	
1323	0	32762	32516	
1324	0	32697	32536	
1325	0	32696	32484	
1326	0	32724	32544	
1327	0	32750	32770	
1328	0	32664	32960	
1329	0	32708	33024	
1330	0	32808	32948	
1331	0	32780	32946	
1332	0	32800	32903	
1333	0	32920	32828	
1334	0	32864	32826	
1335	0	32944	32832	
1336	0	32922	32798	
1337	0	32856	32850	
1338	0	32876	32798	
1339	0	32800	32754	
1340	0	32836	32754	
1341	0	32800	32650	
1342	0	32764	32710	
1343	0	32842	32684	
1344	0	32834	32734	
1345	0	32834	32592	
1346	0	32816	32656	
1347	0	32799	32692	
1348	0	32834	32745	
1349	0	32760	32704	
1350	0	32738	32794	
1351	0	32732	32788	
1352	0	32770	32756	
1353	0	32868	32732	
1354	0	32874	32708	
1355	0	32904	32740	
1356	0	32836	32732	
1357	0	32752	32687	
1358	0	32860	32682	
1359	0	32824	32770	
1360	0	32878	32756	
1361	0	32804	32698	
1362	0	32808	32766	
1363	0	32804	32686	
1364	0	32775	32756	
1365	0	32728	32806	
1366	0	32784	32814	
1367	0	32804	32860	
1368	0	32820	32840	
1369	0	32840	32646	
1370	0	32756	32764	
1371	0	32790	32743	
1372	0	32836	32820	
1373	0	32812	32743	
1374	0	32788	32804	
1375	0	32778	32826	
1376	0	32762	32775	
1377	0	32810	32658	
1378	0	32774	32768	
1379	0	32824	32852	
1380	0	32792	32722	
1381	0	32800	32822	
1382	0	32836	32702	
1383	0	32878	32816	
1384	0	32872	32892	
1385	0	32840	32846	
1386	0	32854	32775	
1387	0	32772	32806	
1388	0	32780	32694	
1389	0	32792	32763	
1390	0	32852	32854	
1391	0	32846	32894	
1392	0	32774	32756	
1393	0	32772	32752	
1394	0	32792	32734	
1395	0	32812	32692	
1396	0	32732	32739	
1397	0	32740	32743	
1398	0	32788	32758	
1399	0	32828	32628	
1400	0	32768	32694	
1401	0	32802	32752	
1402	0	32788	32798	
1403	0	32824	32736	
1404	0	32788	32712	
1405	0	32764	32630	
1406	0	32796	32872	
1407	0	32832	32860	
1408	0	32816	32836	
1409	0	32846	32931	
1410	0	32820	32686	
1411	0	32804	32788	
1412	0	32866	32775	
1413	0	32844	32838	
1414	0	32782	32711	
1415	0	32784	32806	
1416	0	32768	32806	
1417	0	32808	32750	
1418	0	32812	32830	
1419	0	32802	32738	
1420	0	32784	32697	
1421	0	32792	32790	
1422	0	32868	32704	
1423	0	32804	32720	
1424	0	32876	32754	
1425	0	32908	32668	
1426	0	32794	32682	
1427	0	32804	32744	
1428	0	32808	32775	
1429	0	32784	32775	
1430	0	32732	32866	
1431	0	32868	32916	
1432	0	32856	32724	
1433	0	32832	32720	
1434	0	32802	32816	
1435	0	32880	32772	
1436	0	32864	32692	
1437	0	32912	32678	
1438	0	32820	32644	
1439	0	32848	32791	
1440	0	32804	32713	
1441	0	32820	32758	
1442	0	32836	32762	
1443	0	32772	32762	
1444	0	32738	32812	
1445	0	32742	32834	
1446	0	32768	32898	
1447	0	32728	32807	
1448	0	32732	32830	
1449	0	32922	32784	
1450	0	32824	32614	
1451	0	32848	32696	
1452	0	32841	32766	
1453	0	32836	32756	
1454	0	32756	32750	
1455	0	32752	32654	
1456	0	32736	32700	
1457	0	32736	32788	
1458	0	32724	32843	
1459	0	32804	32744	
1460	0	32864	32839	
1461	0	32884	32742	
1462	0	32920	32762	
1463	0	32888	32754	
1464	0	32846	32886	
1465	0	32766	32762	
1466	0	32780	32840	
1467	0	32854	32900	
1468	0	32864	32870	
1469	0	32772	32614	
1470	0	32824	32756	
1471	0	32756	32684	
1472	0	32812	32757	
1473	0	32852	32624	
1474	0	32764	32775	
1475	0	32818	32784	
1476	0	32760	32678	
1477	0	32800	32852	
1478	0	32794	32800	
1479	0	32756	32775	
1480	0	32794	32801	
1481	0	32804	32664	
1482	0	32892	32863	
1483	0	32862	32750	
1484	0	32836	32828	
1485	0	32714	32608	
1486	0	32764	32768	
1487	0	32744	32775	
1488	0	32712	32687	
1489	0	32730	32790	
1490	0	32790	32812	
1491	0	32856	32858	
1492	0	32798	32794	
1493	0	32804	32864	
1494	0	32840	32775	
1495	0	32866	32795	
1496	0	32856	32838	
1497	0	32911	32792	
1498	0	32872	32647	
1499	0	32808	32807	
1500	0	32872	32748	
1501	0	32852	32670	
1502	0	32808	32798	
1503	0	32846	32756	
1504	0	32816	32791	
1505	0	32834	32610	
1506	0	32842	32830	
1507	0	32764	32783	
1508	0	32804	32672	
1509	0	32856	32870	
1510	0	32752	32686	
1511	0	32816	32705	
1512	0	32808	32606	
1513	0	32894	32630	
1514	0	32716	32564	
1515	0	32804	32630	
1516	0	32808	32843	
1517	0	32800	32952	
1518	0	32800	32972	
1519	0	32810	32888	
1520	0	32884	32938	
1521	0	32864	32968	
1522	0	32872	32868	
1523	0	32886	32742	
1524	0	32868	32739	
1525	0	32762	32802	
1526	0	32764	32806	
1527	0	32728	32690	
1528	0	32740	32704	
1529	0	32756	32730	
1530	0	32698	32820	
1531	0	32824	32658	
1532	0	32732	32790	
1533	0	32788	32722	
1534	0	32818	32810	
1535	0	32796	32703	
1536	0	32840	32768	
1537	0	32852	32798	
1538	0	32830	32766	
1539	0	32848	32814	
1540	0	32800	32734	
1541	0	32806	32634	
1542	0	32788	32608	
1543	0	32772	32682	
1544	0	32870	32684	
1545	0	32812	32753	
1546	0	32816	32734	
1547	0	32852	32756	
1548	0	32810	32818	
1549	0	32856	32716	
1550	0	32784	32775	
1551	0	32804	32748	
1552	0	32846	32720	
1553	0	32834	32792	
1554	0	32756	32821	
1555	0	32884	32752	
1556	0	32817	32858	
1557	0	32816	32774	
1558	0	32824	32700	
1559	0	32788	32798	
1560	0	32850	32767	
1561	0	32892	32676	
1562	0	32816	32786	
1563	0	32842	32708	
1564	0	32808	32807	
1565	0	32784	32647	
1566	0	32766	32846	
1567	0	32762	32752	
1568	0	32724	32900	
1569	0	32900	33031	
1570	0	32882	32752	
1571	0	32852	32863	
1572	0	32824	32754	
1573	0	32800	32775	
1574	0	32806	32673	
1575	0	32780	32844	
1576	0	32781	32842	
1577	0	32764	32738	
1578	0	32794	32906	
1579	0	32800	32936	
1580	0	32842	32830	
1581	0	32756	32656	
1582	0	32778	32767	
1583	0	32834	32712	
1584	0	32808	32598	
1585	0	32924	32784	
1586	0	32838	32758	
1587	0	32832	32719	
1588	0	32834	32798	
1589	0	32808	32748	
1590	0	32754	32908	
1591	0	32820	32756	
1592	0	32740	32760	
1593	0	32800	32722	
1594	0	32768	32622	
1595	0	32788	32736	
1596	0	32730	32858	
1597	0	32798	32768	
1598	0	32824	32936	
1599	0	32752	32974	
1600	0	32772	32814	
1601	0	32788	32692	
1602	0	32776	32544	
1603	0	32802	32600	
1604	0	32870	32719	
1605	0	32840	32720	
1606	0	32808	32740	
1607	0	32792	32859	
1608	0	32880	32806	
1609	0	32904	32864	
1610	0	32932	32806	
1611	0	33000	32894	
1612	0	33000	32766	
1613	0	32984	32866	
1614	0	32828	32800	
1615	0	32848	32689	
1616	0	32680	32748	
1617	0	32712	32600	
1618	0	32728	32812	
1619	0	32700	32725	
1620	0	32644	32830	
1621	0	32612	32792	
1622	0	32596	32686	
1623	0	32734	32650	
1624	0	32750	32671	
1625	0	32744	32614	
1626	0	32824	32775	
1627	0	32844	32678	
1628	0	32872	32660	
1629	0	32820	32762	
1630	0	32806	32707	
1631	0	32796	32692	
1632	0	32792	32871	
1633	0	32808	32956	
1634	0	32704	32992	
1635	0	32752	32850	
1636	0	32780	32708	
1637	0	32824	32721	
1638	0	32840	32716	
1639	0	32848	32730	
1640	0	32886	32808	
1641	0	32844	32806	
1642	0	32906	32580	
1643	0	32968	32627	
1644	0	32960	32810	
1645	0	33052	32775	
1646	0	33000	33048	
1647	0	33008	32940	
1648	0	32902	32884	
1649	0	32894	32724	
1650	0	32848	32466	
1651	0	32868	32508	
1652	0	32880	32619	
1653	0	32916	32843	
1654	0	32824	32775	
1655	0	32820	32678	
1656	0	32804	32698	
1657	0	32796	32721	
1658	0	32726	32672	
1659	0	32748	32842	
1660	0	32704	32697	
1661	0	32696	32762	
1662	0	32694	32767	
1663	0	32658	32748	
1664	0	32676	32677	
1665	0	32704	32798	
1666	0	32740	32882	
1667	0	32740	32710	
1668	0	32708	32852	
1669	0	32874	32932	
1670	0	32816	32932	
1671	0	32832	33152	
1672	0	32766	32928	
1673	0	32744	32644	
1674	0	32816	32763	
1675	0	32768	32688	
1676	0	32748	32686	
1677	0	32764	32932	
1678	0	32762	32820	
1679	0	32780	32519	
1680	0	32708	32698	
1681	0	32794	32762	
1682	0	32816	32604	
1683	0	32890	32628	
1684	0	32924	32650	
1685	0	32876	32647	
1686	0	32872	32892	
1687	0	32852	33126	
1688	0	33026	33031	
1689	0	32890	32990	
1690	0	32812	32932	
1691	0	32738	32748	
1692	0	32760	32732	
1693	0	32552	32404	
1694	0	32500	32368	
1695	0	32548	32564	
1696	0	32742	32604	
1697	0	32788	32516	
1698	0	32784	32718	
1699	0	32804	32820	
1700	0	32848	32961	
1701	0	32836	32914	
1702	0	32932	32775	
1703	0	33044	32588	
1704	0	32852	32794	
1705	0	32850	33060	
1706	0	32804	33048	
1707	0	32874	33012	
1708	0	32916	33092	
1709	0	32996	32967	
1710	0	33048	32740	
1711	0	32964	32644	
1712	0	32944	32478	
1713	0	32960	32604	
1714	0	32938	32660	
1715	0	32828	32544	
1716	0	32798	32788	
1717	0	32752	32792	
1718	0	32590	32584	
1719	0	32688	32756	
1720	0	32606	32688	
1721	0	32680	32732	
1722	0	32718	32670	
1723	0	32901	32687	
1724	0	32844	32836	
1725	0	32820	32484	
1726	0	32761	32298	
1727	0	32728	32263	
1728	0	32764	32599	
1729	0	32836	32592	
1730	0	32742	32870	
1731	0	32775	32792	
1732	0	32886	32926	
1733	0	32816	33223	
1734	0	32806	33074	
1735	0	32788	32919	
1736	0	32760	32892	
1737	0	32734	33126	
1738	0	32720	32976	
1739	0	32660	32574	
1740	0	32808	32574	
1741	0	32876	32814	
1742	0	32750	32922	
1743	0	32786	32631	
1744	0	32856	32479	
1745	0	32865	32754	
1746	0	32892	32980	
1747	0	32964	33028	
1748	0	32984	33026	
1749	0	32870	33274	
1750	0	32842	32964	
1751	0	32888	32676	
1752	0	32786	32438	
1753	0	32784	32494	
1754	0	32828	32102	
1755	0	32816	32084	
1756	0	32922	32374	
1757	0	32928	32678	
1758	0	32988	33010	
1759	0	32902	33184	
1760	0	32916	33231	
1761	0	32900	33220	
1762	0	32920	33095	
1763	0	32850	32986	
1764	0	32780	33018	
1765	0	32832	32966	
1766	0	32696	33006	
1767	0	32600	32772	
1768	0	32548	32554	
1769	0	32464	32631	
1770	0	32434	32324	
1771	0	32458	32294	
1772	0	32544	32596	
1773	0	32516	32727	
1774	0	32648	32940	
1775	0	32670	32838	
1776	0	32792	32808	
1777	0	32692	32842	
1778	0	32844	32902	
1779	0	32924	32932	
1780	0	33000	32766	
1781	0	33152	32756	
1782	0	33072	32410	
1783	0	33124	32654	
1784	0	33060	32795	
1785	0	33096	33011	
1786	0	33038	32672	
1787	0	33108	32516	
1788	0	33204	32094	
1789	0	33162	32260	
1790	0	33072	32384	
1791	0	32956	32644	
1792	0	32896	33086	
1793	0	32728	32836	
1794	0	32688	32903	
1795	0	32718	32894	
1796	0	32712	33082	
1797	0	32628	32446	
1798	0	32628	32470	
1799	0	32708	32391	
1800	0	32668	32624	
1801	0	32620	32476	
1802	0	32558	32927	
1803	0	32488	32948	
1804	0	32440	33159	
1805	0	32410	32818	
1806	0	32488	32254	
1807	0	32548	32310	
1808	0	32592	32292	
1809	0	32760	32748	
1810	0	32740	33099	
1811	0	32920	33378	
1812	0	32948	33322	
1813	0	32942	33207	
1814	0	32856	32990	
1815	0	32930	32880	
1816	0	32876	32912	
1817	0	32904	32647	
1818	0	32942	32550	
1819	0	32812	32488	
1820	0	32788	32822	
1821	0	32628	33094	
1822	0	32252	32888	
1823	0	32408	32654	
1824	0	32756	32684	
1825	0	33012	33118	
1826	0	33140	32926	
1827	0	33300	33080	
1828	0	33284	33262	
1829	0	33376	33164	
1830	0	33292	32902	
1831	0	33276	32760	
1832	0	33192	32866	
1833	0	33188	32876	
1834	0	33113	32772	
1835	0	33060	32674	
1836	0	32938	32926	
1837	0	32956	32916	
1838	0	32772	32996	
1839	0	32658	32775	
1840	0	32482	32600	
1841	0	32400	32104	
1842	0	32380	32348	
1843	0	32492	32198	
1844	0	32642	32388	
1845	0	32772	32614	
1846	0	32864	32540	
1847	0	33014	32444	
1848	0	32910	32567	
1849	0	32952	32770	
1850	0	32952	32775	
1851	0	32908	32583	
1852	0	32944	32786	
1853	0	32812	32978	
1854	0	32682	32903	
1855	0	32628	32828	
1856	0	32608	32743	
1857	0	32596	32812	
1858	0	32604	32903	
1859	0	32564	32573	
1860	0	32680	32470	
1861	0	32762	32452	
1862	0	32904	32613	
1863	0	32704	32678	
1864	0	32800	32855	
1865	0	32696	32903	
1866	0	32744	33352	
1867	0	32568	33403	
1868	0	32332	33114	
1869	0	32548	32902	
1870	0	32798	32718	
1871	0	32908	32646	
1872	0	32950	32548	
1873	0	33096	32740	
1874	0	33200	32862	
1875	0	33140	32736	
1876	0	33064	32980	
1877	0	33040	32860	
1878	0	33048	33092	
1879	0	33048	33118	
1880	0	33006	32798	
1881	0	32952	32800	
1882	0	32956	32532	
1883	0	32796	32647	
1884	0	32738	32000	
1885	0	32686	32162	
1886	0	32700	32646	
1887	0	32576	33036	
1888	0	32560	33164	
1889	0	32616	33278	
1890	0	32712	33748	
1891	0	32624	33490	
1892	0	32564	32578	
1893	0	32388	31432	
1894	0	32364	31288	
1895	0	32270	31654	
1896	0	32260	31736	
1897	0	32348	32151	
1898	0	32720	32932	
1899	0	32874	33186	
1900	0	33006	33380	
1901	0	33048	33628	
1902	0	33172	33838	
1903	0	33166	33942	
1904	0	33318	33484	
1905	0	33233	33206	
1906	0	33220	32844	
1907	0	33274	32542	
1908	0	33300	32583	
1909	0	33056	32742	
1910	0	32944	32746	
1911	0	32901	32796	
1912	0	32864	32874	
1913	0	32788	32668	
1914	0	32912	32668	
1915	0	32778	32771	
1916	0	32656	32812	
1917	0	32488	32748	
1918	0	32356	32380	
1919	0	32448	32094	
1920	0	32482	31680	
1921	0	32548	30896	
1922	0	32500	31323	
1923	0	32548	31998	
1924	0	32474	33016	
1925	0	32596	33442	
1926	0	32604	33927	
1927	0	32722	33999	
1928	0	32836	34140	
1929	0	32946	33812	
1930	0	33024	33223	
1931	0	33142	33179	
1932	0	33156	33020	
1933	0	33212	32920	
1934	0	33368	32456	
1935	0	33400	32213	
1936	0	33234	32166	
1937	0	32785	32190	
1938	0	32576	32128	
1939	0	32554	32412	
1940	0	32338	32302	
1941	0	32224	31394	
1942	0	32540	31160	
1943	0	32708	31926	
1944	0	32782	32684	
1945	0	33012	33422	
1946	0	33108	34164	
1947	0	33092	34476	
1948	0	33054	33856	
1949	0	33036	33274	
1950	0	32976	32676	
1951	0	33006	32974	
1952	0	32856	33308	
1953	0	32540	33466	
1954	0	32476	33098	
1955	0	32548	32391	
1956	0	32502	32048	
1957	0	32660	32611	
1958	0	32684	32704	
1959	0	32770	32638	
1960	0	32768	32887	
1961	0	32796	33208	
1962	0	32904	33076	
1963	0	32972	33460	
1964	0	33170	32840	
1965	0	33232	32340	
1966	0	33226	32380	
1967	0	33308	32354	
1968	0	33414	32492	
1969	0	33381	32334	
1970	0	33072	32340	
1971	0	32960	32263	
1972	0	32750	31900	
1973	0	32612	32126	
1974	0	32514	32346	
1975	0	32536	32775	
1976	0	32394	32654	
1977	0	32128	33222	
1978	0	32096	33692	
1979	0	32064	33438	
1980	0	32148	33214	
1981	0	32292	32244	
1982	0	32328	31750	
1983	0	32488	31868	
1984	0	32728	32402	
1985	0	32841	32980	
1986	0	32998	33316	
1987	0	33080	33492	
1988	0	33252	33712	
1989	0	33332	33752	
1990	0	33348	33732	
1991	0	33372	33309	
1992	0	33316	33220	
1993	0	33220	32820	
1994	0	33168	32614	
1995	0	33030	32550	
1996	0	32978	32586	
1997	0	32908	32296	
1998	0	32728	32270	
1999	0	32688	32484	
2000	0	32660	32487	
2001	0	32604	32646	
2002	0	32676	32632	
2003	0	32594	32775	
2004	0	32520	32802	
2005	0	32556	32650	
2006	0	32546	32598	
2007	0	32684	32420	
2008	0	32756	32086	
2009	0	32708	32482	
2010	0	32688	32377	
2011	0	32728	32190	
2012	0	32582	32308	
2013	0	32456	32102	
2014	0	32386	32405	
2015	0	32328	32710	
2016	0	32356	33166	
2017	0	32508	33504	
2018	0	32652	33606	
2019	0	32874	33058	
2020	0	32952	33096	
2021	0	33034	32850	
2022	0	33204	32220	
2023	0	33144	32148	
2024	0	33144	32710	
2025	0	32938	32618	
2026	0	32900	32839	
2027	0	32964	33176	
2028	0	32964	33638	
2029	0	32952	33799	
2030	0	33016	33812	
2031	0	33274	33300	
2032	0	33284	32833	
2033	0	33092	32974	
2034	0	33024	32938	
2035	0	32952	32519	
2036	0	32692	31660	
2037	0	32480	32036	
2038	0	32436	32388	
2039	0	32472	31859	
2040	0	32688	32215	
2041	0	32948	32476	
2042	0	33080	32298	
2043	0	33188	32170	
2044	0	33112	32452	
2045	0	33018	33035	
2046	0	32972	33657	
2047	0	32900	34044	
2048	0	32688	33388	
2049	0	32656	33026	
2050	0	32480	33200	
2051	0	32666	33142	
2052	0	32704	32956	
2053	0	32848	32948	
2054	0	32690	32858	
2055	0	32692	32970	
2056	0	32832	32798	
2057	0	32800	31982	
2058	0	32754	31454	
2059	0	32684	31774	
2060	0	32624	32138	
2061	0	32724	32528	
2062	0	32674	33068	
2063	0	32700	33440	
2064	0	32684	33446	
2065	0	32772	33526	
2066	0	32870	33354	
2067	0	33010	33202	
2068	0	32868	32972	
2069	0	33012	33188	
2070	0	32996	32564	
2071	0	32964	32412	
2072	0	32858	32100	
2073	0	33056	32324	
2074	0	33052	32644	
2075	0	33044	32052	
2076	0	32810	31928	
2077	0	32716	32103	
2078	0	32648	32300	
2079	0	32690	32812	
2080	0	32788	33210	
2081	0	32722	33330	
2082	0	32684	33396	
2083	0	32572	33980	
2084	0	32568	33534	
2085	0	32756	33610	
2086	0	32884	33546	
2087	0	32904	32199	
2088	0	32828	31282	
2089	0	33056	31612	
2090	0	33236	31976	
2091	0	33092	32396	
2092	0	33048	33662	
2093	0	32986	33072	
2094	0	32996	33308	
2095	0	32956	33287	
2096	0	32784	33191	
2097	0	32632	32979	
2098	0	32676	32494	
2099	0	32590	32412	
2100	0	32734	32639	
2101	0	32714	32534	
2102	0	32736	32632	
2103	0	32752	32628	
2104	0	32804	32170	
2105	0	32740	32324	
2106	0	32600	32884	
2107	0	32540	33612	
2108	0	32508	34000	
2109	0	32574	31420	
2110	0	32696	31812	
2111	0	32632	31908	
2112	0	32504	31828	
2113	0	32556	32208	
2114	0	32554	32742	
2115	0	32727	33728	
2116	0	32924	34060	
2117	0	33028	33983	
2118	0	33050	33014	
2119	0	32932	32743	
2120	0	32768	31983	
2121	0	32704	32110	
2122	0	32422	33127	
2123	0	32578	32919	
2124	0	32698	32740	
2125	0	32980	33300	
2126	0	33218	33706	
2127	0	33420	33524	
2128	0	33352	33266	
2129	0	33360	33248	
2130	0	33310	32886	
2131	0	33264	32924	
2132	0	33168	32578	
2133	0	33052	31996	
2134	0	32852	31860	
2135	0	32774	31910	
2136	0	32786	32061	
2137	0	32660	32098	
2138	0	32482	32678	
2139	0	32574	32994	
2140	0	32664	33126	
2141	0	32762	32824	
2142	0	32790	32730	
2143	0	32682	32054	
2144	0	32568	32042	
2145	0	32340	33018	
2146	0	32492	32700	
2147	0	32412	32167	
2148	0	32504	33198	
2149	0	32628	32982	
2150	0	32716	32738	
2151	0	32770	33144	
2152	0	32828	33430	
2153	0	32548	33785	
2154	0	32666	32970	
2155	0	32884	32994	
2156	0	33048	33326	
2157	0	33248	33339	
2158	0	33224	32950	
2159	0	33250	32908	
2160	0	33268	32533	
2161	0	33160	32775	
2162	0	33068	32746	
2163	0	33088	32615	
2164	0	32986	32486	
2165	0	32858	32487	
2166	0	32784	32478	
2167	0	32752	32442	
2168	0	32756	32518	
2169	0	32736	33078	
2170	0	32684	31860	
2171	0	32564	31143	
2172	0	32588	31370	
2173	0	32580	31900	
2174	0	32628	32896	
2175	0	32664	32996	
2176	0	32436	33784	
2177	0	32308	33732	
2178	0	32308	33678	
2179	0	32232	33136	
2180	0	32282	32066	
2181	0	32394	32128	
2182	0	32756	32263	
2183	0	32924	32914	
2184	0	33018	33476	
2185	0	32818	33736	
2186	0	32948	33732	
2187	0	33216	34020	
2188	0	33390	33412	
2189	0	33472	33875	
2190	0	33524	33056	
2191	0	33548	32758	
2192	0	33530	32560	
2193	0	33440	32342	
2194	0	33148	32120	
2195	0	32972	32134	
2196	0	32808	32257	
2197	0	32810	32672	
2198	0	32634	32174	
2199	0	32392	32214	
2200	0	32288	32644	
2201	0	32292	32656	
2202	0	32482	31943	
2203	0	32458	31074	
2204	0	32516	31626	
2205	0	32498	32474	
2206	0	32580	32591	
2207	0	32592	33446	
2208	0	32592	33328	
2209	0	32680	33720	
2210	0	32672	32572	
2211	0	32772	33134	
2212	0	32790	32966	
2213	0	32820	32583	
2214	0	32672	33095	
2215	0	32714	33566	
2216	0	32882	33270	
2217	0	32924	32548	
2218	0	33004	32644	
2219	0	32864	32622	
2220	0	32920	32411	
2221	0	32960	33090	
2222	0	32888	31806	
2223	0	32784	31615	
2224	0	32940	31866	
2225	0	33072	32824	
2226	0	32968	33010	
2227	0	32548	33020	
2228	0	32500	32519	
2229	0	32680	32662	
2230	0	32792	33688	
2231	0	32798	34956	
2232	0	32922	34127	
2233	0	32970	33526	
2234	0	32866	33408	
2235	0	32908	33210	
2236	0	32836	32748	
2237	0	32948	32424	
2238	0	32944	31732	
2239	0	32902	32326	
2240	0	32802	32247	
2241	0	32712	31706	
2242	0	32792	32241	
2243	0	32798	32576	
2244	0	32856	32224	
2245	0	32704	32892	
2246	0	32732	32951	
2247	0	32758	32961	
2248	0	32804	33313	
2249	0	32938	33438	
2250	0	32984	33008	
2251	0	32914	32298	
2252	0	32804	32660	
2253	0	32944	33438	
2254	0	32952	32582	
2255	0	32726	32495	
2256	0	32708	32764	
2257	0	32744	32340	
2258	0	32690	31302	
2259	0	32644	32174	
2260	0	32612	31224	
2261	0	32584	31576	
2262	0	32641	32431	
2263	0	32696	32094	
2264	0	32780	34516	
2265	0	32844	34868	
2266	0	32944	34472	
2267	0	32880	34264	
2268	0	32884	33464	
2269	0	32844	33654	
2270	0	32896	32616	
2271	0	32846	32135	
2272	0	32924	32477	
2273	0	32830	32092	
2274	0	32862	32506	
2275	0	32734	33630	
2276	0	32432	33496	
2277	0	32440	32072	
2278	0	32600	32806	
2279	0	32638	31976	
2280	0	32966	32505	
2281	0	33036	31742	
2282	0	33016	32378	
2283	0	33140	32188	
2284	0	33176	32722	
2285	0	33222	33244	
2286	0	33202	33334	
2287	0	33256	34246	
2288	0	33058	34536	
2289	0	33064	33868	
2290	0	33032	32986	
2291	0	33068	33054	
2292	0	33112	32302	
2293	0	32972	32116	
2294	0	32704	31696	
2295	0	32550	31672	
2296	0	32592	32106	
2297	0	32480	32308	
2298	0	32432	31643	
2299	0	32328	31046	
2300	0	32552	32006	
2301	0	32506	32598	
2302	0	32630	33914	
2303	0	32648	34026	
2304	0	32712	33184	
2305	0	32902	33480	
2306	0	32868	33794	
2307	0	33018	33774	
2308	0	32972	33158	
2309	0	32970	33236	
2310	0	32924	32886	
2311	0	33016	32646	
2312	0	32850	32786	
2313	0	32904	32474	
2314	0	32824	32590	
2315	0	32700	32820	
2316	0	32602	32540	
2317	0	32740	32680	
2318	0	32768	32860	
2319	0	32676	32782	
2320	0	32708	32567	
2321	0	32828	32326	
2322	0	32896	32250	
2323	0	32820	31476	
2324	0	32804	32658	
2325	0	32844	32326	
2326	0	32736	32102	
2327	0	32690	33064	
2328	0	32702	34276	
2329	0	32772	32636	
2330	0	32810	33254	
2331	0	32906	32842	
2332	0	33032	32615	
2333	0	32880	33200	
2334	0	32720	33598	
2335	0	32800	33638	
2336	0	32908	33470	
2337	0	33084	33319	
2338	0	32878	32841	
2339	0	32832	32560	
2340	0	32816	32422	
2341	0	32776	32376	
2342	0	32864	32225	
2343	0	32684	32312	
2344	0	32788	32228	
2345	0	32874	32256	
2346	0	32858	32294	
2347	0	32944	32551	
2348	0	32892	32906	
2349	0	32948	32952	
2350	0	32932	33121	
2351	0	32828	32715	
2352	0	32836	32423	
2353	0	32736	32460	
2354	0	32660	32625	
2355	0	32676	33258	
2356	0	32788	32468	
2357	0	32766	32558	
2358	0	32840	30082	
2359	0	32868	30188	
2360	0	32940	32196	
2361	0	32880	34038	
2362	0	33000	33148	
2363	0	32794	34468	
2364	0	32904	34046	
2365	0	32936	34553	
2366	0	33064	34940	
2367	0	32932	34430	
2368	0	32964	33988	
2369	0	32810	33764	
2370	0	32740	33254	
2371	0	32840	32670	
2372	0	32878	32373	
2373	0	32868	30978	
2374	0	32764	31642	
2375	0	32708	32132	
2376	0	32754	31796	
2377	0	32752	31828	
2378	0	32616	31694	
2379	0	32620	32775	
2380	0	32501	32954	
2381	0	32714	33022	
2382	0	32774	33468	
2383	0	32842	33234	
2384	0	32832	32644	
2385	0	32810	32674	
2386	0	32796	32876	
2387	0	32976	30812	
2388	0	32806	31252	
2389	0	32784	30862	
2390	0	32820	32386	
2391	0	32754	33780	
2392	0	32564	34544	
2393	0	32644	34718	
2394	0	32784	33250	
2395	0	32968	33434	
2396	0	33024	33116	
2397	0	32832	33018	
2398	0	32794	32698	
2399	0	32788	32486	
2400	0	32876	32518	
2401	0	32880	32462	
2402	0	32756	32638	
2403	0	32714	32446	
2404	0	32887	32712	
2405	0	32832	32760	
2406	0	32748	32364	
2407	0	32812	32416	
2408	0	32806	32180	
2409	0	32844	32500	
2410	0	32784	32672	
2411	0	32762	32578	
2412	0	32824	32822	
2413	0	32800	32400	
2414	0	32848	32519	
2415	0	32938	32518	
2416	0	32772	32503	
2417	0	32804	33671	
2418	0	32856	33017	
2419	0	32962	32670	
2420	0	32884	32615	
2421	0	32876	33192	
2422	0	32818	33515	
2423	0	32776	33098	
2424	0	32844	32894	
2425	0	32800	32140	
2426	0	32816	32355	
2427	0	32866	33210	
2428	0	32824	32838	
2429	0	32784	32320	
2430	0	32778	32934	
2431	0	32646	32932	
2432	0	32676	33062	
2433	0	32698	32400	
2434	0	32904	32908	
2435	0	32898	33364	
2436	0	32865	33104	
2437	0	32804	33024	
2438	0	32740	33287	
2439	0	32798	32584	
2440	0	32804	32332	
2441	0	32788	32302	
2442	0	32850	32636	
2443	0	32856	33556	
2444	0	32928	32958	
2445	0	32878	31520	
2446	0	32778	31882	
2447	0	32772	32718	
2448	0	32820	32743	
2449	0	32790	32998	
2450	0	32852	33006	
2451	0	32849	33429	
2452	0	32800	33166	
2453	0	32760	32860	
2454	0	32798	32912	
2455	0	32864	32743	
2456	0	32862	33190	
2457	0	32896	33004	
2458	0	33052	33064	
2459	0	32904	32816	
2460	0	32858	32795	
2461	0	32832	33056	
2462	0	32764	32748	
2463	0	32784	32276	
2464	0	32828	32194	
2465	0	32762	33108	
2466	0	32856	32628	
2467	0	32856	31686	
2468	0	32708	31334	
2469	0	32700	31105	
2470	0	32772	32206	
2471	0	32774	32586	
2472	0	32800	33063	
2473	0	32776	33066	
2474	0	32652	33830	
2475	0	32724	33988	
2476	0	32818	34068	
2477	0	32872	33958	
2478	0	32862	33578	
2479	0	32902	33223	
2480	0	32774	32966	
2481	0	32860	32662	
2482	0	32822	32512	
2483	0	32732	32564	
2484	0	32768	32518	
2485	0	32836	32492	
2486	0	32872	32508	
2487	0	32796	32740	
2488	0	32872	33030	
2489	0	32898	32842	
2490	0	32832	32770	
2491	0	32750	32658	
2492	0	32814	32711	
2493	0	32762	32688	
2494	0	32766	32700	
2495	0	32764	32411	
2496	0	32874	32316	
2497	0	32980	32292	
2498	0	32896	32224	
2499	0	32760	32440	
2500	0	32753	32188	
2501	0	32804	32308	
2502	0	32800	32531	
2503	0	32746	32256	
2504	0	32628	32020	
2505	0	32620	32578	
2506	0	32620	31896	
2507	0	32644	32140	
2508	0	32744	32828	
2509	0	32728	33290	
2510	0	32886	33234	
2511	0	33073	33494	
2512	0	33040	33412	
2513	0	32836	33382	
2514	0	32746	33326	
2515	0	32772	33210	
2516	0	32852	33042	
2517	0	32970	32969	
2518	0	32984	32990	
2519	0	32804	33031	
2520	0	32808	33038	
2521	0	32812	32756	
2522	0	32838	32807	
2523	0	32804	32788	
2524	0	32836	32702	
2525	0	32764	32622	
2526	0	32850	32742	
2527	0	32836	32882	
2528	0	32806	32737	
2529	0	32764	32300	
2530	0	32766	32768	
2531	0	32804	33018	
2532	0	32738	32687	
2533	0	32788	33172	
2534	0	32964	32878	
2535	0	32864	32290	
2536	0	32822	32276	
2537	0	32776	32992	
2538	0	32772	33200	
2539	0	32874	33041	
2540	0	32784	33704	
2541	0	32762	33330	
2542	0	32772	33258	
2543	0	32778	33472	
2544	0	32672	33398	
2545	0	32718	32614	
2546	0	32775	32274	
2547	0	32832	32501	
2548	0	32846	32684	
2549	0	32864	32494	
2550	0	32980	32614	
2551	0	32820	32430	
2552	0	32804	32328	
2553	0	32816	32510	
2554	0	32760	32808	
2555	0	32690	32002	
2556	0	32708	32004	
2557	0	32808	32135	
2558	0	32890	33121	
2559	0	32760	33184	
2560	0	32752	33538	
2561	0	32868	33220	
2562	0	32768	33175	
2563	0	32900	32880	
2564	0	32876	33122	
2565	0	32780	33556	
2566	0	32756	33440	
2567	0	32912	32678	
2568	0	32792	31412	
2569	0	32592	31524	
2570	0	32692	32491	
2571	0	32856	32263	
2572	0	32760	31972	
2573	0	32692	31852	
2574	0	32593	32318	
2575	0	32828	32692	
2576	0	32756	33128	
2577	0	32714	33049	
2578	0	32748	33124	
2579	0	32820	32796	
2580	0	32830	33232	
2581	0	32976	33056	
2582	0	32908	33063	
2583	0	32904	32834	
2584	0	32784	32583	
2585	0	32756	32582	
2586	0	32914	32795	
2587	0	32928	33070	
2588	0	32792	33008	
2589	0	32906	32964	
2590	0	32928	32824	
2591	0	32864	32918	
2592	0	32940	32720	
2593	0	32986	33060	
2594	0	32954	33391	
2595	0	32840	33108	
2596	0	32784	33078	
2597	0	32836	32922	
2598	0	32886	33031	
2599	0	32908	32846	
2600	0	32882	32868	
2601	0	32820	32512	
2602	0	32824	32564	
2603	0	32804	32551	
2604	0	32820	31879	
2605	0	32864	32130	
2606	0	32748	31966	
2607	0	32824	32084	
2608	0	32796	32204	
2609	0	32750	32316	
2610	0	32775	32226	
2611	0	32736	32454	
2612	0	32720	32362	
2613	0	32772	32810	
2614	0	32708	32842	
2615	0	32672	32886	
2616	0	32688	33096	
2617	0	32650	33047	
2618	0	32606	33128	
2619	0	32688	33280	
2620	0	32888	33196	
2621	0	33020	32874	
2622	0	32922	33196	
2623	0	32912	32752	
2624	0	32842	33306	
2625	0	32832	32889	
2626	0	32790	32720	
2627	0	32816	33210	
2628	0	32748	32640	
2629	0	32856	33030	
2630	0	32896	33048	
2631	0	32824	32799	
2632	0	32848	32982	
2633	0	32820	32676	
2634	0	32800	32398	
2635	0	32856	32796	
2636	0	32868	33524	
2637	0	32856	33399	
2638	0	32944	33196	
2639	0	32900	32956	
2640	0	32840	32736	
2641	0	32882	33204	
2642	0	32740	32572	
2643	0	32704	33030	
2644	0	32728	32710	
2645	0	32692	32570	
2646	0	32708	32362	
2647	0	32696	32386	
2648	0	32650	32388	
2649	0	32802	32256	
2650	0	32876	32252	
2651	0	32906	32840	
2652	0	33092	32884	
2653	0	33030	32316	
2654	0	32958	32399	
2655	0	33004	32124	
2656	0	32880	32386	
2657	0	32832	32640	
2658	0	32800	32858	
2659	0	32866	32564	
2660	0	32900	32910	
2661	0	32728	32564	
2662	0	32682	32790	
2663	0	32724	33108	
2664	0	32804	32725	
2665	0	32890	32919	
2666	0	32868	33008	
2667	0	32810	33030	
2668	0	32720	33240	
2669	0	32740	33180	
2670	0	32744	32858	
2671	0	32804	32367	
2672	0	32872	32455	
2673	0	32964	32748	
2674	0	32932	32366	
2675	0	32790	32718	
2676	0	32784	32732	
2677	0	32846	32192	
2678	0	32940	32284	
2679	0	32844	32468	
2680	0	32810	32934	
2681	0	32728	32800	
2682	0	32776	32871	
2683	0	32868	32802	
2684	0	33028	32966	
2685	0	32986	32958	
2686	0	32948	33010	
2687	0	32836	32992	
2688	0	32828	32614	
2689	0	32904	32678	
2690	0	32904	32998	
2691	0	32972	32775	
2692	0	32776	32596	
2693	0	32700	32280	
2694	0	32708	32636	
2695	0	32700	32690	
2696	0	32588	32616	
2697	0	32550	32864	
2698	0	32600	32263	
2699	0	32596	32056	
2700	0	32584	32429	
2701	0	32410	32302	
2702	0	32400	32352	
2703	0	32536	32704	
2704	0	32554	32478	
2705	0	32692	32954	
2706	0	32702	32496	
2707	0	32820	32098	
2708	0	32754	32488	
2709	0	32616	33156	
2710	0	32484	33196	
2711	0	32488	33554	
2712	0	32530	33582	
2713	0	32640	33452	
2714	0	32618	33474	
2715	0	32774	33470	
2716	0	32821	33238	
2717	0	32752	32486	
2718	0	32660	32490	
2719	0	32668	33132	
2720	0	32932	33040	
2721	0	32894	32575	
2722	0	32930	33084	
2723	0	33036	32775	
2724	0	33120	32994	
2725	0	33108	32974	
2726	0	33012	32152	
2727	0	32920	32202	
2728	0	32950	32568	
2729	0	32904	33040	
2730	0	33028	32340	
2731	0	33064	32359	
2732	0	33136	32612	
2733	0	32976	32695	
2734	0	32926	32888	
2735	0	32974	32994	
2736	0	32928	33114	
2737	0	32928	33188	
2738	0	32966	32934	
2739	0	32856	33374	
2740	0	32952	32956	
2741	0	32940	32516	
2742	0	32914	32494	
2743	0	32780	32615	
2744	0	32800	32619	
2745	0	32836	32646	
2746	0	32892	32028	
2747	0	32820	32252	
2748	0	32906	32606	
2749	0	32962	32812	
2750	0	32964	33159	
2751	0	32890	32944	
2752	0	32804	33014	
2753	0	32890	33020	
2754	0	32834	32945	
2755	0	32916	32852	
2756	0	32940	32664	
2757	0	32888	32807	
2758	0	32764	32966	
2759	0	32784	32664	
2760	0	32860	32286	
2761	0	32846	32567	
2762	0	32858	32872	
2763	0	32884	32886	
2764	0	32852	33276	
2765	0	32772	32625	
2766	0	32824	32796	
2767	0	32900	32222	
2768	0	33154	32286	
2769	0	32960	32693	
2770	0	32764	32444	
2771	0	32788	33028	
2772	0	32852	33319	
2773	0	32780	33423	
2774	0	32924	33274	
2775	0	33002	33287	
2776	0	32846	33226	
2777	0	32690	33280	
2778	0	32678	32988	
2779	0	32796	33089	
2780	0	32784	33319	
2781	0	32852	33130	
2782	0	32736	32994	
2783	0	32668	32804	
2784	0	32692	32354	
2785	0	32708	32472	
2786	0	32716	33084	
2787	0	32654	32980	
2788	0	32682	32894	
2789	0	32706	32182	
2790	0	32720	32300	
2791	0	32712	32775	
2792	0	32696	32590	
2793	0	32778	32644	
2794	0	33028	32176	
2795	0	32764	31838	
2796	0	32668	32048	
2797	0	32598	32504	
2798	0	32628	32806	
2799	0	32684	33096	
2800	0	32582	33262	
2801	0	32652	32703	
2802	0	32744	32748	
2803	0	32836	32750	
2804	0	32818	33322	
2805	0	32880	33437	
2806	0	32930	33364	
2807	0	32922	32230	
2808	0	32840	33284	
2809	0	32700	33238	
2810	0	32648	32132	
2811	0	32804	32870	
2812	0	32856	33112	
2813	0	32864	33276	
2814	0	32912	33068	
2815	0	32776	32614	
2816	0	32784	32676	
2817	0	33000	33042	
2818	0	32924	32918	
2819	0	32844	32844	
2820	0	32980	32502	
2821	0	32924	32970	
2822	0	32924	32570	
2823	0	32952	32324	
2824	0	32934	32654	
2825	0	33056	32624	
2826	0	32888	32572	
2827	0	32704	32682	
2828	0	32702	32788	
2829	0	32844	32724	
2830	0	33018	32806	
2831	0	32806	33166	
2832	0	32752	32696	
2833	0	32876	32508	
2834	0	32860	32812	
2835	0	32820	33140	
2836	0	32834	33095	
2837	0	32964	33256	
2838	0	33038	33298	
2839	0	32860	33194	
2840	0	32888	32908	
2841	0	32916	32998	
2842	0	33034	32901	
2843	0	32740	32715	
2844	0	32812	31918	
2845	0	32760	32374	
2846	0	32796	32759	
2847	0	32784	32761	
2848	0	32654	32404	
2849	0	32596	32342	
2850	0	32652	32896	
2851	0	32704	32678	
2852	0	32564	32871	
2853	0	32488	32743	
2854	0	32660	32808	
2855	0	32742	32798	
2856	0	32756	32804	
2857	0	32752	32766	
2858	0	32678	32450	
2859	0	32800	32647	
2860	0	32850	32794	
2861	0	32871	32938	
2862	0	32976	32775	
2863	0	32982	32720	
2864	0	32956	33128	
2865	0	32932	32710	
2866	0	32904	32751	
2867	0	32886	32702	
2868	0	32864	32836	
2869	0	32868	32890	
2870	0	32870	33157	
2871	0	32856	31956	
2872	0	32598	31644	
2873	0	32694	32548	
2874	0	32736	32439	
2875	0	32656	31220	
2876	0	32870	31198	
2877	0	32980	32500	
2878	0	32700	32204	
2879	0	32764	32765	
2880	0	32814	33322	
2881	0	32834	33415	
2882	0	32704	33634	
2883	0	32874	34156	
2884	0	32748	33334	
2885	0	32860	32954	
2886	0	32908	32838	
2887	0	32808	32790	
2888	0	32756	32624	
2889	0	32728	32671	
2890	0	32700	32622	
2891	0	32720	33127	
2892	0	32868	32652	
2893	0	32880	32606	
2894	0	32922	32706	
2895	0	32968	32758	
2896	0	32618	32762	
2897	0	32672	32775	
2898	0	32740	32674	
2899	0	32702	32052	
2900	0	32864	31836	
2901	0	32866	32040	
2902	0	32802	32838	
2903	0	32816	32647	
2904	0	32840	32676	
2905	0	32872	32708	
2906	0	32748	32582	
2907	0	32768	32938	
2908	0	32748	33398	
2909	0	32800	33236	
2910	0	32800	32642	
2911	0	32810	32614	
2912	0	32848	32903	
2913	0	32860	33084	
2914	0	32836	33208	
2915	0	32800	33134	
2916	0	32736	32838	
2917	0	32865	32368	
2918	0	32874	32582	
2919	0	32904	32547	
2920	0	32904	32318	
2921	0	32824	32556	
2922	0	32696	33068	
2923	0	32848	33135	
2924	0	32852	33462	
2925	0	32844	32684	
2926	0	32800	32674	
2927	0	32800	32448	
2928	0	32816	32406	
2929	0	32854	32710	
2930	0	32820	32721	
2931	0	32764	32903	
2932	0	32732	33276	
2933	0	32892	32963	
2934	0	32932	33200	
2935	0	32768	32880	
2936	0	32726	32738	
2937	0	32732	33086	
2938	0	32836	32580	
2939	0	32780	32674	
2940	0	32890	32460	
2941	0	33002	32916	
2942	0	32696	32758	
2943	0	32976	32436	
2944	0	33044	32314	
2945	0	32860	32810	
2946	0	32906	33004	
2947	0	33036	32897	
2948	0	32896	32615	
2949	0	32888	33194	
2950	0	32836	32504	
2951	0	32924	32544	
2952	0	32844	33066	
2953	0	32820	32330	
2954	0	32800	32518	
2955	0	32820	32335	
2956	0	32640	32903	
2957	0	32510	32984	
2958	0	32786	33332	
2959	0	32888	33158	
2960	0	32788	32890	
2961	0	32804	32498	
2962	0	32832	32612	
2963	0	32730	32510	
2964	0	32678	32584	
2965	0	32660	32962	
2966	0	32724	33038	
2967	0	32812	32954	
2968	0	32788	32408	
2969	0	32928	32763	
2970	0	32972	32584	
2971	0	32916	32756	
2972	0	32880	32962	
2973	0	32880	32942	
2974	0	32814	32954	
2975	0	32948	32698	
2976	0	32832	32895	
2977	0	32756	32376	
2978	0	32960	32423	
2979	0	32904	31972	
2980	0	32712	32086	
2981	0	32820	32124	
2982	0	32772	32760	
2983	0	32644	32596	
2984	0	32932	33370	
2985	0	32994	33550	
2986	0	32948	33316	
2987	0	32934	33428	
2988	0	32824	33140	
2989	0	32926	33006	
2990	0	32852	32504	
2991	0	32772	32660	
2992	0	32880	32624	
2993	0	32852	32832	
2994	0	32630	33044	
2995	0	32564	33082	
2996	0	32822	32774	
2997	0	33044	32672	
2998	0	32838	32446	
2999	0	32784	32455	
3000	0	32712	32367	
3001	0	32780	32578	
3002	0	32706	32519	
3003	0	32618	32652	
3004	0	32672	32392	
3005	0	32644	32598	
3006	0	32516	32684	
3007	0	32652	32772	
3008	0	32714	32864	
3009	0	32826	32900	
3010	0	32658	33172	
3011	0	32642	32860	
3012	0	32750	32774	
3013	0	32880	32148	
3014	0	32852	33098	
3015	0	32956	32526	
3016	0	33012	32540	
3017	0	32976	32342	
3018	0	32768	32039	
3019	0	32730	32846	
3020	0	32820	33488	
3021	0	32824	33361	
3022	0	32936	33172	
3023	0	32828	33303	
3024	0	32900	32963	
3025	0	32868	32764	
3026	0	32784	32728	
3027	0	32706	32799	
3028	0	32788	32844	
3029	0	32730	32480	
3030	0	32686	32396	
3031	0	32676	32844	
3032	0	32884	32830	
3033	0	32852	32814	
3034	0	33036	32258	
3035	0	33028	32616	
3036	0	33044	32836	
3037	0	33072	32912	
3038	0	33100	32606	
3039	0	32826	32446	
3040	0	32824	32768	
3041	0	32678	32951	
3042	0	32768	33002	
3043	0	32732	32880	
3044	0	32726	32998	
3045	0	32786	32694	
3046	0	32604	32718	
3047	0	32706	32822	
3048	0	32848	32742	
3049	0	32736	33344	
3050	0	32840	33250	
3051	0	32958	32686	
3052	0	32848	32436	
3053	0	32800	32466	
3054	0	32736	32418	
3055	0	32788	33150	
3056	0	32794	33256	
3057	0	32696	32487	
3058	0	32828	32122	
3059	0	32768	32504	
3060	0	32828	33012	
3061	0	33052	32834	
3062	0	33020	32700	
3063	0	32704	32904	
3064	0	32656	33214	
3065	0	32820	33068	
3066	0	33036	33408	
3067	0	32902	33346	
3068	0	32900	32802	
3069	0	32916	32160	
3070	0	32732	32470	
3071	0	32876	32826	
3072	0	33074	32963	
3073	0	33036	33678	
3074	0	32844	33766	
3075	0	32778	32582	
3076	0	32808	32302	
3077	0	32806	32100	
3078	0	32704	31562	
3079	0	32752	32424	
3080	0	32900	32980	
3081	0	32582	33206	
3082	0	32554	32406	
3083	0	32874	32486	
3084	0	32972	32726	
3085	0	32960	32936	
3086	0	32778	32812	
3087	0	32676	32917	
3088	0	32688	33070	
3089	0	32768	32783	
3090	0	32804	32916	
3091	0	32876	33031	
3092	0	32828	32736	
3093	0	32740	32398	
3094	0	32812	32892	
3095	0	32822	32632	
3096	0	32800	32434	
3097	0	32716	32455	
3098	0	32726	32670	
3099	0	32786	32490	
3100	0	32688	32726	
3101	0	32660	33095	
3102	0	32728	32720	
3103	0	32644	32759	
3104	0	32534	33028	
3105	0	32704	33163	
3106	0	32864	33122	
3107	0	32952	32852	
3108	0	32888	32974	
3109	0	32956	33024	
3110	0	32836	32530	
3111	0	32938	32436	
3112	0	32834	32732	
3113	0	32842	32712	
3114	0	32800	32556	
3115	0	32904	32199	
3116	0	32834	32590	
3117	0	32900	32743	
3118	0	32876	32908	
3119	0	32848	32679	
3120	0	32880	32952	
3121	0	32848	32542	
3122	0	32944	32703	
3123	0	32940	32839	
3124	0	32848	32852	
3125	0	32896	32896	
3126	0	32896	32656	
3127	0	32826	32844	
3128	0	32704	33065	
3129	0	32746	32424	
3130	0	32840	32999	
3131	0	32896	33167	
3132	0	32954	32998	
3133	0	32804	32970	
3134	0	32836	33052	
3135	0	32758	32948	
3136	0	32756	32832	
3137	0	32924	32870	
3138	0	32820	32167	
3139	0	32704	32358	
3140	0	32586	32887	
3141	0	32672	32868	
3142	0	32628	33244	
3143	0	32764	32406	
3144	0	32794	32586	
3145	0	32920	32792	
3146	0	32894	32844	
3147	0	32806	32886	
3148	0	32740	33134	
3149	0	32768	33124	
3150	0	32744	32519	
3151	0	32808	32464	
3152	0	32852	32903	
3153	0	32936	33100	
3154	0	32913	32586	
3155	0	32892	33334	
3156	0	32700	32724	
3157	0	32652	32900	
3158	0	32694	32864	
3159	0	32824	32725	
3160	0	32932	32486	
3161	0	32964	32498	
3162	0	32932	32692	
3163	0	32976	32860	
3164	0	32670	32596	
3165	0	32704	33066	
3166	0	32850	32496	
3167	0	32804	32830	
3168	0	32916	32816	
3169	0	32852	33096	
3170	0	32940	32594	
3171	0	32944	33044	
3172	0	32852	32884	
3173	0	32548	32850	
3174	0	32640	33078	
3175	0	32856	32431	
3176	0	32904	33094	
3177	0	32900	32976	
3178	0	32866	32208	
3179	0	32864	32258	
3180	0	32800	32370	
3181	0	32886	32751	
3182	0	32732	32818	
3183	0	32761	32684	
3184	0	32928	32840	
3185	0	32917	32572	
3186	0	32880	32230	
3187	0	32784	32798	
3188	0	32850	32726	
3189	0	32860	32704	
3190	0	32780	32775	
3191	0	32708	32819	
3192	0	32628	32732	
3193	0	32778	32766	
3194	0	32864	32660	
3195	0	33000	32876	
3196	0	32860	32940	
3197	0	32788	32964	
3198	0	32800	33095	
3199	0	32748	32884	
3200	0	32776	32810	
3201	0	32766	32916	
3202	0	32790	32896	
3203	0	32744	32794	
3204	0	32834	32604	
3205	0	32756	32622	
3206	0	32824	32690	
3207	0	32796	32448	
3208	0	32866	32551	
3209	0	32722	32804	
3210	0	32488	32990	
3211	0	32704	32752	
3212	0	32800	32644	
3213	0	32661	32422	
3214	0	32798	32732	
3215	0	32868	32898	
3216	0	32956	32798	
3217	0	32896	33014	
3218	0	32836	33063	
3219	0	32746	32966	
3220	0	32780	32604	
3221	0	32812	32736	
3222	0	32798	32855	
3223	0	32712	32836	
3224	0	32688	32902	
3225	0	32764	32814	
3226	0	32796	32864	
3227	0	32852	32720	
3228	0	32800	32647	
3229	0	32794	32566	
3230	0	32780	32766	
3231	0	32760	32614	
3232	0	32804	32544	
3233	0	32900	32670	
3234	0	32912	32788	
3235	0	33082	32926	
3236	0	32788	32884	
3237	0	32616	32764	
3238	0	32554	32807	
3239	0	32828	32678	
3240	0	32712	32652	
3241	0	32796	32604	
3242	0	32712	32775	
3243	0	32664	32847	
3244	0	32816	32882	
3245	0	32778	32884	
3246	0	32742	32884	
3247	0	32746	33156	
3248	0	32732	32647	
3249	0	32640	32902	
3250	0	32732	33039	
3251	0	32814	32178	
3252	0	32856	32628	
3253	0	32776	32567	
3254	0	32848	32540	
3255	0	32820	32732	
3256	0	32744	32607	
3257	0	32788	32775	
3258	0	32872	33094	
3259	0	32804	33031	
3260	0	32764	32870	
3261	0	32720	33174	
3262	0	32780	33210	
3263	0	32768	33042	
3264	0	32784	32788	
3265	0	32756	32800	
3266	0	32740	32775	
3267	0	32868	32732	
3268	0	32814	32767	
3269	0	32936	32788	
3270	0	32880	32714	
3271	0	32856	32684	
3272	0	32748	32724	
3273	0	32804	32644	
3274	0	32838	32642	
3275	0	32686	32576	
3276	0	32876	32682	
3277	0	32930	32732	
3278	0	32772	32700	
3279	0	32692	32856	
3280	0	32753	32896	
3281	0	32824	32571	
3282	0	32696	32604	
3283	0	32777	32628	
3284	0	32862	32828	
3285	0	32820	32800	
3286	0	32784	32660	
3287	0	32786	32812	
3288	0	32772	32824	
3289	0	32904	32750	
3290	0	32736	32472	
3291	0	32756	32412	
3292	0	32824	32436	
3293	0	32840	32650	
3294	0	32968	32824	
3295	0	32834	32954	
3296	0	32888	32944	
3297	0	32892	33076	
3298	0	32748	32938	
3299	0	32820	32868	
3300	0	32704	33085	
3301	0	32582	32816	
3302	0	32600	32814	
3303	0	32696	32804	
3304	0	32717	32820	
3305	0	32864	32863	
3306	0	32926	32871	
3307	0	32854	32927	
3308	0	32906	32661	
3309	0	32976	32758	
3310	0	33006	32687	
3311	0	32814	32686	
3312	0	32768	32844	
3313	0	32696	32754	
3314	0	32706	32820	
3315	0	32794	32814	
3316	0	32920	32842	
3317	0	33052	33010	
3318	0	32970	32700	
3319	0	32812	32504	
3320	0	32784	32679	
3321	0	32808	32628	
3322	0	32804	32420	
3323	0	32750	32674	
3324	0	32714	33018	
3325	0	32872	32630	
3326	0	32756	32870	
3327	0	32858	32604	
3328	0	32776	32798	
3329	0	32736	32552	
3330	0	32816	32668	
3331	0	32888	32766	
3332	0	32728	32740	
3333	0	32752	32839	
3334	0	32900	32935	
3335	0	32848	32862	
3336	0	32756	32695	
3337	0	32820	33092	
3338	0	32956	33015	
3339	0	32928	32980	
3340	0	32956	32814	
3341	0	32840	32630	
3342	0	32650	32666	
3343	0	32716	32888	
3344	0	32712	32903	
3345	0	32868	32750	
3346	0	32874	32822	
3347	0	32856	32655	
3348	0	32772	32588	
3349	0	32742	32624	
3350	0	32954	32554	
3351	0	32896	32726	
3352	0	32796	32664	
3353	0	32804	32746	
3354	0	32732	32735	
3355	0	32752	32728	
3356	0	32872	32688	
3357	0	32956	32754	
3358	0	32888	32812	
3359	0	32836	32810	
3360	0	32756	32878	
3361	0	32774	32814	
3362	0	32744	32774	
3363	0	32746	32728	
3364	0	32764	32745	
3365	0	32860	32772	
3366	0	32736	32798	
3367	0	32756	32760	
3368	0	32804	32735	
3369	0	32766	32640	
3370	0	32794	32862	
3371	0	32800	32812	
3372	0	32706	33072	
3373	0	32804	33024	
3374	0	32884	32846	
3375	0	32828	32612	
3376	0	32782	32711	
3377	0	32824	32682	
3378	0	32888	32678	
3379	0	32896	32620	
3380	0	32828	32820	
3381	0	32768	32535	
3382	0	32752	32711	
3383	0	32808	32662	
3384	0	32890	32638	
3385	0	32860	32375	
3386	0	32698	32632	
3387	0	32752	32664	
3388	0	32796	32766	
3389	0	32805	32508	
3390	0	32736	32560	
3391	0	32736	32518	
3392	0	32716	32497	
3393	0	32772	32530	
3394	0	32772	32524	
3395	0	32858	32599	
3396	0	32760	32823	
3397	0	32688	32981	
3398	0	32664	32772	
3399	0	32810	32935	
3400	0	32834	32788	
3401	0	32732	32762	
3402	0	32672	32844	
3403	0	32712	33000	
3404	0	32844	32710	
3405	0	32780	32620	
3406	0	32716	33046	
3407	0	32774	33002	
3408	0	32732	32895	
3409	0	32740	33022	
3410	0	32916	33063	
3411	0	33008	32898	
3412	0	32884	33016	
3413	0	32880	32840	
3414	0	32910	32644	
3415	0	33002	32886	
3416	0	32916	33072	
3417	0	33016	33006	
3418	0	32917	32849	
3419	0	32896	32754	
3420	0	32848	32878	
3421	0	32906	33140	
3422	0	32944	32750	
3423	0	32948	32936	
3424	0	32966	33186	
3425	0	32810	33002	
3426	0	32792	32758	
3427	0	32762	32682	
3428	0	32882	32519	
3429	0	32888	32519	
3430	0	32886	32510	
3431	0	32888	32655	
3432	0	33064	32575	
3433	0	33034	32668	
3434	0	32800	32695	
3435	0	32814	32695	
3436	0	32738	32711	
3437	0	32654	32775	
3438	0	32644	32740	
3439	0	32678	33036	
3440	0	32692	32934	
3441	0	32772	32922	
3442	0	32794	32863	
3443	0	32768	32856	
3444	0	32788	32791	
3445	0	32784	32848	
3446	0	32808	32774	
3447	0	32776	32858	
3448	0	32808	32808	
3449	0	32854	32860	
3450	0	32782	32710	
3451	0	32810	32934	
3452	0	32810	32874	
3453	0	32768	32756	
3454	0	32774	32632	
3455	0	32760	32750	
3456	0	32806	32742	
3457	0	32732	32720	
3458	0	32730	32668	
3459	0	32692	32866	
3460	0	32680	33020	
3461	0	32726	32838	
3462	0	32784	33080	
3463	0	32800	32986	
3464	0	32872	33026	
3465	0	32694	32902	
3466	0	32686	33026	
3467	0	32692	32868	
3468	0	32826	32582	
3469	0	32832	32519	
3470	0	32860	32654	
3471	0	32906	32678	
3472	0	32820	32828	
3473	0	32914	32786	
3474	0	32932	32756	
3475	0	32940	32836	
3476	0	33000	32802	
3477	0	32912	32632	
3478	0	32796	32612	
3479	0	32796	32528	
3480	0	32750	32540	
3481	0	32728	32508	
3482	0	32704	32476	
3483	0	32816	32370	
3484	0	32770	32284	
3485	0	32746	32345	
3486	0	32600	32462	
3487	0	32661	32546	
3488	0	32712	32700	
3489	0	32814	32846	
3490	0	32928	32880	
3491	0	33000	32912	
3492	0	32868	33204	
3493	0	32660	33062	
3494	0	32828	33226	
3495	0	32864	33376	
3496	0	32792	33095	
3497	0	33054	32967	
3498	0	32988	32714	
3499	0	32844	32660	
3500	0	32836	32740	
3501	0	32916	32646	
3502	0	32800	32903	
3503	0	32872	32854	
3504	0	33060	32871	
3505	0	32994	33004	
3506	0	32712	32859	
3507	0	32656	32750	
3508	0	32848	32612	
3509	0	32824	32559	
3510	0	32752	32696	
3511	0	32812	32695	
3512	0	32848	32466	
3513	0	32784	32608	
3514	0	32800	32618	
3515	0	32824	32684	
3516	0	32817	32551	
3517	0	32730	32532	
3518	0	32736	32772	
3519	0	32748	32584	
3520	0	32704	32854	
3521	0	32768	32669	
3522	0	32944	32717	
3523	0	32914	32724	
3524	0	32784	32590	
3525	0	32716	32722	
3526	0	32590	32657	
3527	0	32736	32850	
3528	0	32856	32743	
3529	0	32775	32978	
3530	0	32824	32887	
3531	0	32796	32766	
3532	0	32838	32856	
3533	0	32946	32646	
3534	0	32820	32639	
3535	0	32888	32652	
3536	0	32848	32740	
3537	0	32876	32704	
3538	0	32845	32775	
3539	0	32940	32868	
3540	0	32850	32848	
3541	0	32812	32866	
3542	0	32772	32910	
3543	0	32792	32820	
3544	0	32792	32934	
3545	0	32720	32738	
3546	0	32830	32855	
3547	0	32824	32742	
3548	0	32822	32871	
3549	0	32764	32671	
3550	0	32842	32748	
3551	0	32872	32661	
3552	0	32832	32652	
3553	0	32868	32760	
3554	0	32916	32714	
3555	0	32684	32612	
3556	0	32778	32687	
3557	0	32736	32599	
3558	0	32738	32584	
3559	0	32768	32672	
3560	0	32664	32710	
3561	0	32552	32601	
3562	0	32640	32679	
3563	0	32900	32714	
3564	0	33040	32662	
3565	0	32824	32844	
3566	0	32696	32886	
3567	0	32702	32826	
3568	0	32792	32903	
3569	0	32904	32886	
3570	0	32928	32900	
3571	0	32962	32862	
3572	0	32846	32814	
3573	0	32900	32807	
3574	0	32792	32810	
3575	0	32676	32726	
3576	0	32804	32599	
3577	0	32834	32870	
3578	0	32808	32738	
3579	0	32823	32862	
3580	0	32801	32740	
3581	0	32780	32610	
3582	0	32938	32466	
3583	0	32880	32519	
3584	0	32854	32824	
3585	0	32844	33024	
3586	0	32888	32875	
3587	0	32888	32790	
3588	0	32760	32769	
3589	0	32664	32646	
3590	0	32716	33076	
3591	0	32772	32984	
3592	0	32834	32788	
3593	0	32800	32743	
3594	0	32808	32744	
3595	0	32798	32671	
3596	0	32952	32704	
3597	0	32852	32664	
3598	0	32818	32528	
3599	0	32784	32529	
3600	0	32821	32704	
3601	0	32798	32642	
3602	0	32760	32518	
3603	0	32862	32519	
3604	0	32828	32588	
3605	0	32740	32694	
3606	0	32766	32876	
3607	0	32834	32774	
3608	0	32800	32702	
3609	0	32696	32728	
3610	0	32820	32716	
3611	0	32792	32660	
3612	0	32836	32678	
3613	0	32856	32618	
3614	0	32924	32681	
3615	0	32788	32791	
3616	0	32706	32647	
3617	0	32884	32800	
3618	0	32974	32647	
3619	0	32860	32768	
3620	0	32844	32924	
3621	0	32772	32943	
3622	0	32908	32750	
3623	0	32934	32671	
3624	0	32849	32678	
3625	0	32774	32806	
3626	0	32820	32698	
3627	0	32824	32692	
3628	0	32740	32586	
3629	0	32638	32646	
3630	0	32754	32708	
3631	0	32800	32854	
3632	0	32764	32881	
3633	0	32784	32790	
3634	0	32760	32903	
3635	0	32832	32924	
3636	0	32750	32950	
3637	0	32754	32864	
3638	0	32824	32834	
3639	0	32754	32882	
3640	0	32796	32807	
3641	0	32716	32884	
3642	0	32800	32795	
3643	0	32746	32826	
3644	0	32818	32840	
3645	0	32858	32774	
3646	0	32798	32764	
3647	0	32882	32748	
3648	0	32704	32668	
3649	0	32666	32724	
3650	0	32792	32706	
3651	0	32990	32599	
3652	0	32824	32670	
3653	0	32916	32696	
3654	0	32852	32862	
3655	0	32810	32878	
3656	0	32844	32866	
3657	0	32900	33062	
3658	0	32988	32868	
3659	0	32886	33018	
3660	0	32834	32988	
3661	0	32906	32948	
3662	0	32710	32871	
3663	0	32720	32714	
3664	0	32770	32694	
3665	0	32822	32608	
3666	0	32800	32734	
3667	0	32796	32664	
3668	0	32868	32647	
3669	0	32928	32698	
3670	0	32860	32606	
3671	0	32802	32646	
3672	0	32708	32660	
3673	0	32840	32556	
3674	0	32884	32516	
3675	0	32852	32471	
3676	0	32734	32442	
3677	0	32690	32620	
3678	0	32772	32879	
3679	0	32756	32640	
3680	0	32682	32818	
3681	0	32920	32874	
3682	0	32786	33078	
3683	0	32834	33108	
3684	0	32844	33182	
3685	0	32788	33110	
3686	0	32736	33220	
3687	0	32888	33158	
3688	0	32868	32854	
3689	0	32864	32903	
3690	0	32842	32940	
3691	0	32880	32702	
3692	0	32948	32706	
3693	0	33066	32663	
3694	0	33009	32775	
3695	0	32800	32870	
3696	0	32720	32775	
3697	0	32712	32875	
3698	0	32890	32775	
3699	0	32928	32743	
3700	0	32908	32865	
3701	0	32682	32823	
3702	0	32748	32687	
3703	0	32826	32700	
3704	0	32820	32888	
3705	0	32716	32533	
3706	0	32712	32715	
3707	0	32714	32688	
3708	0	32736	32596	
3709	0	32836	32732	
3710	0	32736	32662	
3711	0	32784	32697	
3712	0	32890	32628	
3713	0	32818	32578	
3714	0	32756	32756	
3715	0	32760	32763	
3716	0	32744	32700	
3717	0	32896	32872	
3718	0	32892	32919	
3719	0	32808	32707	
3720	0	32740	32700	
3721	0	32938	32754	
3722	0	33077	32719	
3723	0	32930	32758	
3724	0	32784	32870	
3725	0	32775	32736	
3726	0	32749	32748	
3727	0	32780	32668	
3728	0	32684	32774	
3729	0	32668	32748	
3730	0	32784	32732	
3731	0	32750	32786	
3732	0	32728	32710	
3733	0	32814	32774	
3734	0	32894	32808	
3735	0	32848	32708	
3736	0	32768	32584	
3737	0	32754	32676	
3738	0	32940	32668	
3739	0	32928	32808	
3740	0	32872	32711	
3741	0	32880	32736	
3742	0	32804	32756	
3743	0	32780	32807	
3744	0	32758	32870	
3745	0	32800	32902	
3746	0	32774	32866	
3747	0	32732	32874	
3748	0	32760	32718	
3749	0	32660	32639	
3750	0	32720	32796	
3751	0	32786	32816	
3752	0	32928	32862	
3753	0	32728	32950	
3754	0	32748	32878	
3755	0	32812	32564	
3756	0	32916	32700	
3757	0	32928	32682	
3758	0	32932	32708	
3759	0	32828	32692	
3760	0	32868	32713	
3761	0	32884	32775	
3762	0	32934	32748	
3763	0	32894	32834	
3764	0	32880	32820	
3765	0	32752	32844	
3766	0	32706	32684	
3767	0	32716	32727	
3768	0	32752	32798	
3769	0	32783	32740	
3770	0	32740	32816	
3771	0	32744	32916	
3772	0	32775	32855	
3773	0	32844	32746	
3774	0	32882	32694	
3775	0	32730	32640	
3776	0	32784	32775	
3777	0	32772	32702	
3778	0	32756	32644	
3779	0	32868	32686	
3780	0	32852	32676	
3781	0	32900	32924	
3782	0	32902	32967	
3783	0	32858	32782	
3784	0	32800	32661	
3785	0	32876	32692	
3786	0	32980	32656	
3787	0	32706	32812	
3788	0	32684	32716	
3789	0	32764	32738	
3790	0	32792	32775	
3791	0	32836	32737	
3792	0	32950	32722	
3793	0	32792	32775	
3794	0	32678	32810	
3795	0	32688	32608	
3796	0	32800	32742	
3797	0	32806	32680	
3798	0	32876	32721	
3799	0	32796	32666	
3800	0	32846	32814	
3801	0	32804	32808	
3802	0	32712	32894	
3803	0	32910	32680	
3804	0	32996	32764	
3805	0	32870	32812	
3806	0	32876	32787	
3807	0	32820	32842	
3808	0	32800	32860	
3809	0	32848	32882	
3810	0	32830	32754	
3811	0	32768	32912	
3812	0	32676	32942	
3813	0	32740	32710	
3814	0	32764	32786	
3815	0	32844	32762	
3816	0	32830	32672	
3817	0	32802	32743	
3818	0	32806	32774	
3819	0	32847	32598	
3820	0	32734	32636	
3821	0	32746	32720	
3822	0	32820	32580	
3823	0	32806	32703	
3824	0	32844	32718	
3825	0	32888	32790	
3826	0	32834	32724	
3827	0	32642	32926	
3828	0	32766	32860	
3829	0	32802	32832	
3830	0	32756	32794	
3831	0	32828	32801	
3832	0	32814	32726	
3833	0	32938	32752	
3834	0	32908	32820	
3835	0	32882	32996	
3836	0	32904	32830	
3837	0	32796	32874	
3838	0	32848	32807	
3839	0	32832	32644	
3840	0	32824	32766	
3841	0	32832	32718	
3842	0	32777	32775	
3843	0	32824	32650	
3844	0	32784	32796	
3845	0	32810	32748	
3846	0	32748	32697	
3847	0	32772	32768	
3848	0	32836	32750	
3849	0	32834	32708	
3850	0	32792	32679	
3851	0	32736	32810	
3852	0	32814	32654	
3853	0	32766	32764	
3854	0	32756	32660	
3855	0	32774	32788	
3856	0	32774	32703	
3857	0	32768	32751	
3858	0	32804	32645	
3859	0	32852	32702	
3860	0	32800	32714	
3861	0	32676	32722	
3862	0	32688	32680	
3863	0	32764	32708	
3864	0	32928	32820	
3865	0	32844	32868	
3866	0	32888	32902	
3867	0	32884	32684	
3868	0	32864	32758	
3869	0	32940	32804	
3870	0	32968	32852	
3871	0	32981	32806	
3872	0	32904	32920	
3873	0	32878	32884	
3874	0	32868	32796	
3875	0	32868	32711	
3876	0	32794	32718	
3877	0	32784	32775	
3878	0	32788	32748	
3879	0	32732	32775	
3880	0	32804	32763	
3881	0	32724	32767	
3882	0	32808	32806	
3883	0	32712	32732	
3884	0	32768	32807	
3885	0	32656	32775	
3886	0	32746	32876	
3887	0	32668	32800	
3888	0	32700	32838	
3889	0	32832	32756	
3890	0	32776	32682	
3891	0	32852	32756	
3892	0	32852	32770	
3893	0	32770	32908	
3894	0	32790	32718	
3895	0	32838	32620	
3896	0	32858	32766	
3897	0	32830	32676	
3898	0	32840	32816	
3899	0	32748	32774	
3900	0	32774	32916	
3901	0	32812	32830	
3902	0	32804	32876	
3903	0	32872	32934	
3904	0	32824	32958	
3905	0	32738	32676	
3906	0	32824	32892	
3907	0	32848	32804	
3908	0	32728	32683	
3909	0	32802	32789	
3910	0	32825	32732	
3911	0	32866	32786	
3912	0	32852	32647	
3913	0	32868	32664	
3914	0	32938	32775	
3915	0	32804	32742	
3916	0	32776	32775	
3917	0	32790	32756	
3918	0	32792	32903	
3919	0	32788	32642	
3920	0	32844	32760	
3921	0	32820	32734	
3922	0	32830	32786	
3923	0	32832	32676	
3924	0	32816	32807	
3925	0	32832	32748	
3926	0	32728	32718	
3927	0	32784	32839	
3928	0	32798	32839	
3929	0	32792	32702	
3930	0	32772	32766	
3931	0	32798	32705	
3932	0	32762	32660	
3933	0	32788	32711	
3934	0	32864	32838	
3935	0	32834	32706	
3936	0	32802	32750	
3937	0	32812	32728	
3938	0	32842	32775	
3939	0	32780	32792	
3940	0	32836	32860	
3941	0	32820	32798	
3942	0	32780	32759	
3943	0	32808	32756	
3944	0	32780	32826	
3945	0	32848	32810	
3946	0	32788	32707	
3947	0	32854	32824	
3948	0	32820	32788	
3949	0	32822	32929	
3950	0	32794	32686	
3951	0	32860	32804	
3952	0	32860	32833	
3953	0	32856	32758	
3954	0	32849	32743	
3955	0	32848	32768	
3956	0	32752	32738	
3957	0	32774	32607	
3958	0	32804	32772	
3959	0	32746	32742	
3960	0	32830	32794	
3961	0	32840	32624	
3962	0	32834	32767	
3963	0	32872	32828	
3964	0	32868	32775	
3965	0	32726	32860	
3966	0	32778	32740	
3967	0	32782	32812	
3968	0	32784	32748	
3969	0	32802	32684	
3970	0	32861	32800	
3971	0	32832	32810	
3972	0	32788	32796	
3973	0	32796	32647	
3974	0	32796	32802	
3975	0	32848	32724	
3976	0	32832	32816	
3977	0	32880	32647	
3978	0	32868	32692	
3979	0	32836	32700	
3980	0	32760	32834	
3981	0	32804	32694	
3982	0	32852	32706	
3983	0	32774	32800	
3984	0	32780	32766	
3985	0	32812	32935	
3986	0	32692	32766	
3987	0	32860	32716	
3988	0	32802	32830	
3989	0	32864	32756	
3990	0	32798	32775	
3991	0	32756	32684	
3992	0	32800	32816	
3993	0	32794	32758	
3994	0	32856	32743	
3995	0	32808	32748	
3996	0	32820	32714	
3997	0	32852	32772	
3998	0	32868	32868	
3999	0	32860	32708	
4000	0	32864	32720	
4001	0	32846	32632	
4002	0	32794	32775	
4003	0	32790	32646	
4004	0	32828	32726	
4005	0	32760	32838	
4006	0	32772	32846	
4007	0	32742	32926	
4008	0	32784	32740	
4009	0	32858	32791	
4010	0	32808	32924	
4011	0	32776	32766	
4012	0	32820	32824	
4013	0	32808	32912	
4014	0	32760	32711	
4015	0	32840	32764	
4016	0	32880	32768	
4017	0	32824	32752	
4018	0	32840	32762	
4019	0	32884	32768	
4020	0	32856	32854	
4021	0	32840	32775	
4022	0	32808	32828	
4023	0	32814	32822	
4024	0	32760	32756	
4025	0	32788	32775	
4026	0	32772	32832	
4027	0	32788	32764	
4028	0	32784	32718	
4029	0	32732	32700	
4030	0	32782	32764	
4031	0	32846	32726	
4032	0	32856	32796	
4033	0	32820	32744	
4034	0	32844	32846	
4035	0	32824	32796	
4036	0	32800	32712	
4037	0	32832	32646	
4038	0	32874	32660	
4039	0	32844	32768	
4040	0	32802	32716	
4041	0	32791	32695	
4042	0	32796	32711	
4043	0	32740	32736	
4044	0	32804	32815	
4045	0	32742	32700	
4046	0	32800	32820	
4047	0	32716	32848	
4048	0	32776	32798	
4049	0	32800	32870	
4050	0	32840	32731	
4051	0	32760	32818	
4052	0	32848	32674	
4053	0	32844	32840	
4054	0	32804	32716	
4055	0	32808	32714	
4056	0	32888	32684	
4057	0	32864	32804	
4058	0	32862	32844	
4059	0	32804	32714	
4060	0	32808	32806	
4061	0	32870	32826	
4062	0	32780	32726	
4063	0	32862	32794	
4064	0	32775	32774	
4065	0	32816	32706	
4066	0	32856	32824	
4067	0	32864	32854	
4068	0	32788	32820	
4069	0	32826	32694	
4070	0	32892	32862	
4071	0	32896	32871	
4072	0	32816	32711	
4073	0	32724	32903	
4074	0	32836	32812	
4075	0	32810	32804	
4076	0	32868	32753	
4077	0	32808	32855	
4078	0	32804	32836	
4079	0	32800	32678	
4080	0	32752	32818	
4081	0	32844	32694	
4082	0	32812	32708	
4083	0	32792	32758	
4084	0	32856	32720	
4085	0	32832	32668	
4086	0	32780	32774	
4087	0	32748	32914	
4088	0	32734	32668	
4089	0	32792	32743	
4090	0	32896	32756	
4091	0	32820	32710	
4092	0	32780	32882	
4093	0	32880	32768	
4094	0	32856	32680	
4095	0	32822	32775	
4096	0	32824	32750	
4097	0	32788	32826	
4098	0	32812	32680	
4099	0	32862	32849	
4100	0	32808	32766	
4101	0	32784	32710	
4102	0	32792	32772	
4103	0	32848	32748	
4104	0	32778	32775	
4105	0	32760	32734	
4106	0	32844	32890	
4107	0	32860	32736	
4108	0	32708	32775	
4109	0	32760	32784	
4110	0	32842	32688	
4111	0	32816	32766	
4112	0	32872	32750	
4113	0	32868	32806	
4114	0	32904	32692	
4115	0	32816	32790	
4116	0	32758	32734	
4117	0	32814	32836	
4118	0	32812	32652	
4119	0	32796	32839	
4120	0	32796	32814	
4121	0	32862	32782	
4122	0	32740	32711	
4123	0	32770	32742	
4124	0	32684	32698	
4125	0	32720	32818	
4126	0	32718	32702	
4127	0	32792	32762	
4128	0	32808	32714	
4129	0	32852	32664	
4130	0	32888	32684	
4131	0	32824	32823	
4132	0	32868	32858	
4133	0	32918	32690	
4134	0	32848	32743	
4135	0	32870	32698	
4136	0	32804	32834	
4137	0	32804	32775	
4138	0	32856	32794	
4139	0	32856	32806	
4140	0	32832	32708	
4141	0	32818	32750	
4142	0	32876	32743	
4143	0	32832	32740	
4144	0	32792	32628	
4145	0	32720	32750	
4146	0	32764	32696	
4147	0	32800	32706	
4148	0	32780	32719	
4149	0	32798	32774	
4150	0	32804	32790	
4151	0	32784	32774	
4152	0	32823	32784	
4153	0	32766	32901	
4154	0	32824	32826	
4155	0	32856	32823	
4156	0	32878	32844	
4157	0	32834	32706	
4158	0	32816	32902	
4159	0	32830	32740	
4160	0	32778	32828	
4161	0	32816	32703	
4162	0	32798	32874	
4163	0	32806	32810	
4164	0	32780	32830	
4165	0	32836	32728	
4166	0	32860	32760	
4167	0	32822	32788	
4168	0	32812	32800	
4169	0	32838	32664	
4170	0	32808	32842	
4171	0	32816	32852	
4172	0	32762	32648	
4173	0	32880	32714	
4174	0	32808	32740	
4175	0	32830	32750	
4176	0	32825	32606	
4177	0	32780	32704	
4178	0	32740	32615	
4179	0	32648	32724	
4180	0	32714	32528	
4181	0	32798	32775	
4182	0	32692	32647	
4183	0	32756	32618	
4184	0	32704	32636	
4185	0	32678	32764	
4186	0	32735	32816	
4187	0	32810	32756	
4188	0	32684	32743	
4189	0	32708	32772	
4190	0	32824	32774	
4191	0	32808	32724	
4192	0	32852	32760	
4193	0	32900	32862	
4194	0	32812	32930	
4195	0	32892	32882	
4196	0	32900	32976	
4197	0	32876	33008	
4198	0	32908	32996	
4199	0	32988	33092	
4200	0	32952	33084	
4201	0	32932	33040	
4202	0	32981	32960	
4203	0	32892	32912	
4204	0	32888	32960	
4205	0	32876	32866	
4206	0	32816	32980	
4207	0	32858	32954	
4208	0	32834	32897	
4209	0	32908	32986	
4210	0	32821	32898	
4211	0	32880	32922	
4212	0	32852	32692	
4213	0	32844	32680	
4214	0	32832	32582	
4215	0	32860	32576	
4216	0	32828	32554	
4217	0	32744	32618	
4218	0	32748	32568	
4219	0	32772	32558	
4220	0	32784	32590	
4221	0	32792	32572	
4222	0	32760	32658	
4223	0	32774	32644	
4224	0	32792	32661	
4225	0	32722	32600	
4226	0	32724	32744	
4227	0	32748	32752	
4228	0	32776	32810	
4229	0	32800	32647	
4230	0	32842	32879	
4231	0	32864	32796	
4232	0	32788	32838	
4233	0	32856	32796	
4234	0	32896	32826	
4235	0	32830	32802	
4236	0	32790	32796	
4237	0	32828	32743	
4238	0	32796	32798	
4239	0	32818	32842	
4240	0	32832	32711	
4241	0	32796	32760	
4242	0	32766	32738	
4243	0	32788	32874	
4244	0	32826	32662	
4245	0	32804	32740	
4246	0	32826	32784	
4247	0	32800	32800	
4248	0	32808	32679	
4249	0	32806	32854	
4250	0	32784	32788	
4251	0	32728	32711	
4252	0	32852	32846	
4253	0	32822	32702	
4254	0	32830	32888	
4255	0	32788	32738	
4256	0	32816	32751	
4257	0	32780	32775	
4258	0	32864	32655	
4259	0	32824	32742	
4260	0	32712	32654	
4261	0	32808	32764	
4262	0	32772	32678	
4263	0	32808	32775	
4264	0	32818	32754	
4265	0	32824	32790	
4266	0	32784	32716	
4267	0	32824	32944	
4268	0	32852	32820	
4269	0	32788	32754	
4270	0	32802	32666	
4271	0	32808	32764	
4272	0	32878	32734	
4273	0	32824	32708	
4274	0	32852	32764	
4275	0	32828	32862	
4276	0	32868	32818	
4277	0	32828	32798	
4278	0	32812	32936	
4279	0	32764	32838	
4280	0	32840	32886	
4281	0	32846	32790	
4282	0	32816	32794	
4283	0	32834	32775	
4284	0	32810	32804	
4285	0	32808	32698	
4286	0	32744	32745	
4287	0	32816	32704	
4288	0	32786	32742	
4289	0	32852	32742	
4290	0	32844	32766	
4291	0	32836	32752	
4292	0	32714	32762	
4293	0	32754	32614	
4294	0	32777	32716	
4295	0	32856	32811	
4296	0	32804	32804	
4297	0	32892	32784	
4298	0	32820	32830	
4299	0	32848	32844	
4300	0	32760	32839	
4301	0	32814	32770	
4302	0	32792	32839	
4303	0	32812	32775	
4304	0	32784	32712	
4305	0	32754	32646	
4306	0	32836	32790	
4307	0	32785	32743	
4308	0	32776	32775	
4309	0	32832	32804	
4310	0	32856	32662	
4311	0	32792	32762	
4312	0	32780	32766	
4313	0	32808	32682	
4314	0	32852	32799	
4315	0	32850	32816	
4316	0	32812	32692	
4317	0	32816	32814	
4318	0	32824	32756	
4319	0	32790	32732	
4320	0	32808	32702	
4321	0	32816	32807	
4322	0	32772	32718	
4323	0	32804	32700	
4324	0	32788	32660	
4325	0	32778	32765	
4326	0	32812	32854	
4327	0	32872	32750	
4328	0	32800	32847	
4329	0	32804	32828	
4330	0	32788	32714	
4331	0	32864	32706	
4332	0	32820	32743	
4333	0	32804	32743	
4334	0	32824	32639	
4335	0	32816	32846	
4336	0	32768	32828	
4337	0	32862	32642	
4338	0	32868	32707	
4339	0	32824	32876	
4340	0	32782	32700	
4341	0	32806	32860	
4342	0	32824	32824	
4343	0	32808	32746	
4344	0	32866	32788	
4345	0	32814	32750	
4346	0	32752	32630	
4347	0	32776	32720	
4348	0	32864	32744	
4349	0	32816	32736	
4350	0	32766	32799	
4351	0	32866	32764	
4352	0	32828	32686	
4353	0	32772	32766	
4354	0	32825	32775	
4355	0	32792	32647	
4356	0	32796	32802	
4357	0	32828	32738	
4358	0	32800	32668	
4359	0	32860	32689	
4360	0	32846	32810	
4361	0	32832	32918	
4362	0	32740	32846	
4363	0	32737	32736	
4364	0	32736	32646	
4365	0	32788	32800	
4366	0	32848	32850	
4367	0	32824	32772	
4368	0	32796	32926	
4369	0	32780	32832	
4370	0	32814	32673	
4371	0	32750	32844	
4372	0	32762	32772	
4373	0	32866	32711	
4374	0	32792	32878	
4375	0	32776	32768	
4376	0	32832	32774	
4377	0	32816	32746	
4378	0	32798	32784	
4379	0	32826	32700	
4380	0	32808	32791	
4381	0	32792	32747	
4382	0	32850	32722	
4383	0	32734	32860	
4384	0	32776	32775	
4385	0	32772	32794	
4386	0	32792	32748	
4387	0	32804	32818	
4388	0	32820	32853	
4389	0	32808	32724	
4390	0	32842	32886	
4391	0	32830	32897	
4392	0	32898	32684	
4393	0	32844	32726	
4394	0	32868	32752	
4395	0	32808	32724	
4396	0	32832	32836	
4397	0	32820	32756	
4398	0	32772	32760	
4399	0	32824	32676	
4400	0	32824	32852	
4401	0	32732	32800	
4402	0	32818	32679	
4403	0	32664	32720	
4404	0	32796	32730	
4405	0	32808	32786	
4406	0	32720	32676	
4407	0	32786	32775	
4408	0	32788	32812	
4409	0	32836	32671	
4410	0	32846	32823	
4411	0	32854	32734	
4412	0	32860	32852	
4413	0	32816	32666	
4414	0	32866	32746	
4415	0	32824	32688	
4416	0	32820	32788	
4417	0	32768	32704	
4418	0	32836	32766	
4419	0	32808	32668	
4420	0	32834	32847	
4421	0	32764	32638	
4422	0	32798	32871	
4423	0	32832	32809	
4424	0	32744	32704	
4425	0	32864	32768	
4426	0	32820	32814	
4427	0	32832	32742	
4428	0	32736	32706	
4429	0	32790	32836	
4430	0	32838	32775	
4431	0	32844	32704	
4432	0	32772	32671	
4433	0	32836	32856	
4434	0	32832	32775	
4435	0	32820	32816	
4436	0	32800	32750	
4437	0	32826	32839	
4438	0	32812	32790	
4439	0	32784	32696	
4440	0	32804	32767	
4441	0	32760	32760	
4442	0	32784	32796	
4443	0	32824	32690	
4444	0	32870	32726	
4445	0	32824	32796	
4446	0	32832	32670	
4447	0	32820	32858	
4448	0	32812	32802	
4449	0	32824	32736	
4450	0	32866	32764	
4451	0	32844	32834	
4452	0	32780	32814	
4453	0	32916	32852	
4454	0	32752	32634	
4455	0	32824	32740	
4456	0	32832	32718	
4457	0	32807	32788	
4458	0	32774	32852	
4459	0	32812	32708	
4460	0	32768	32742	
4461	0	32772	32770	
4462	0	32796	32816	
4463	0	32806	32662	
4464	0	32776	32702	
4465	0	32818	32846	
4466	0	32780	32814	
4467	0	32792	32750	
4468	0	32808	32656	
4469	0	32788	32838	
4470	0	32868	32696	
4471	0	32799	32728	
4472	0	32856	32688	
4473	0	32804	32676	
4474	0	32830	32844	
4475	0	32816	32924	
4476	0	32728	32884	
4477	0	32806	32830	
4478	0	32800	32670	
4479	0	32740	32868	
4480	0	32744	32756	
4481	0	32736	32835	
4482	0	32770	32712	
4483	0	32780	32660	
4484	0	32744	32884	
4485	0	32856	32712	
4486	0	32826	32794	
4487	0	32824	32662	
4488	0	32828	32712	
4489	0	32836	32656	
4490	0	32860	32714	
4491	0	32834	32716	
4492	0	32858	32792	
4493	0	32768	32652	
4494	0	32812	32794	
4495	0	32856	32687	
4496	0	32826	32775	
4497	0	32768	32678	
4498	0	32886	32836	
4499	0	32818	32752	
4500	0	32816	32775	
4501	0	32836	32674	
4502	0	32764	32726	
4503	0	32842	32764	
4504	0	32788	32771	
4505	0	32760	32839	
4506	0	32820	32772	
4507	0	32796	32862	
4508	0	32784	32735	
4509	0	32780	32866	
4510	0	32860	32774	
4511	0	32796	32699	
4512	0	32802	32746	
4513	0	32840	32768	
4514	0	32784	32812	
4515	0	32878	32724	
4516	0	32810	32800	
4517	0	32838	32766	
4518	0	32852	32710	
4519	0	32764	32679	
4520	0	32808	32772	
4521	0	32872	32736	
4522	0	32864	32799	
4523	0	32820	32674	
4524	0	32774	32759	
4525	0	32740	32718	
4526	0	32724	32824	
4527	0	32802	32676	
4528	0	32858	32812	
4529	0	32790	32744	
4530	0	32840	32842	
4531	0	32872	32702	
4532	0	32852	32816	
4533	0	32848	32774	
4534	0	32776	32775	
4535	0	32820	32692	
4536	0	32868	32747	
4537	0	32808	32831	
4538	0	32756	32744	
4539	0	32766	32844	
4540	0	32812	32722	
4541	0	32792	32746	
4542	0	32868	32812	
4543	0	32736	32828	
4544	0	32774	32718	
4545	0	32840	32758	
4546	0	32800	32871	
4547	0	32840	32740	
4548	0	32844	32838	
4549	0	32852	32764	
4550	0	32834	32850	
4551	0	32836	32775	
4552	0	32858	32794	
4553	0	32852	32815	
4554	0	32810	32657	
4555	0	32848	32732	
4556	0	32837	32846	
4557	0	32870	32774	
4558	0	32830	32806	
4559	0	32788	32864	
4560	0	32828	32736	
4561	0	32804	32836	
4562	0	32801	32772	
4563	0	32754	32768	
4564	0	32682	32693	
4565	0	32696	32720	
4566	0	32760	32810	
4567	0	32769	32712	
4568	0	32796	32770	
4569	0	32824	32698	
4570	0	32850	32788	
4571	0	32856	32775	
4572	0	32876	32766	
4573	0	32820	32686	
4574	0	32836	32788	
4575	0	32862	32766	
4576	0	32824	32796	
4577	0	32872	32662	
4578	0	32846	32854	
4579	0	32848	32753	
4580	0	32792	32816	
4581	0	32784	32740	
4582	0	32815	32896	
4583	0	32754	32851	
4584	0	32760	32738	
4585	0	32836	32880	
4586	0	32822	32816	
4587	0	32748	32871	
4588	0	32752	32656	
4589	0	32828	32864	
4590	0	32804	32775	
4591	0	32804	32711	
4592	0	32820	32742	
4593	0	32848	32763	
4594	0	32860	32694	
4595	0	32892	32766	
4596	0	32832	32679	
4597	0	32788	32876	
4598	0	32772	32752	
4599	0	32820	32835	
4600	0	32768	32788	
4601	0	32780	32614	
4602	0	32804	32712	
4603	0	32794	32742	
4604	0	32808	32691	
4605	0	32825	32796	
4606	0	32828	32742	
4607	0	32862	32799	
4608	0	32904	32764	
4609	0	32826	32738	
4610	0	32794	32770	
4611	0	32836	32736	
4612	0	32798	32818	
4613	0	32832	32860	
4614	0	32796	32630	
4615	0	32804	32788	
4616	0	32856	32734	
4617	0	32796	32800	
4618	0	32816	32694	
4619	0	32806	32864	
4620	0	32821	32856	
4621	0	32808	32815	
4622	0	32804	32734	
4623	0	32812	32652	
4624	0	32752	32790	
4625	0	32756	32698	
4626	0	32818	32686	
4627	0	32820	32793	
4628	0	32828	32775	
4629	0	32772	32738	
4630	0	32840	32758	
4631	0	32784	32826	
4632	0	32822	32830	
4633	0	32840	32718	
4634	0	32816	32814	
4635	0	32774	32795	
4636	0	32880	32732	
4637	0	32836	32764	
4638	0	32836	32764	
4639	0	32842	32788	
4640	0	32862	32670	
4641	0	32830	32730	
4642	0	32812	32866	
4643	0	32810	32689	
4644	0	32796	32804	
4645	0	32780	32834	
4646	0	32808	32736	
4647	0	32828	32756	
4648	0	32748	32808	
4649	0	32804	32716	
4650	0	32714	32743	
4651	0	32744	32808	
4652	0	32760	32721	
4653	0	32802	32820	
4654	0	32798	32775	
4655	0	32828	32642	
4656	0	32828	32892	
4657	0	32856	32822	
4658	0	32836	32692	
4659	0	32792	32815	
4660	0	32844	32791	
4661	0	32836	32864	
4662	0	32840	32748	
4663	0	32760	32740	
4664	0	32790	32694	
4665	0	32804	32775	
4666	0	32824	32748	
4667	0	32832	32800	
4668	0	32808	32775	
4669	0	32768	32858	
4670	0	32828	32752	
4671	0	32894	32758	
4672	0	32908	32736	
4673	0	32756	32874	
4674	0	32844	32756	
4675	0	32794	32734	
4676	0	32808	32810	
4677	0	32832	32680	
4678	0	32832	32868	
4679	0	32824	32754	
4680	0	32868	32658	
4681	0	32750	32764	
4682	0	32804	32630	
4683	0	32752	32730	
4684	0	32744	32690	
4685	0	32740	32879	
4686	0	32772	32911	
4687	0	32816	32732	
4688	0	32840	32822	
4689	0	32800	32836	
4690	0	32816	32772	
4691	0	32828	32734	
4692	0	32864	32804	
4693	0	32810	32790	
4694	0	32870	32810	
4695	0	32848	32719	
4696	0	32760	32726	
4697	0	32870	32772	
4698	0	32820	32796	
4699	0	32849	32734	
4700	0	32904	32662	
4701	0	32764	32816	
4702	0	32780	32775	
4703	0	32794	32834	
4704	0	32748	32700	
4705	0	32742	32770	
4706	0	32770	32802	
4707	0	32808	32775	
4708	0	32830	32728	
4709	0	32794	32759	
4710	0	32784	32730	
4711	0	32800	32812	
4712	0	32818	32710	
4713	0	32816	32684	
4714	0	32832	32772	
4715	0	32816	32738	
4716	0	32826	32716	
4717	0	32878	32692	
4718	0	32853	32878	
4719	0	32716	32775	
4720	0	32858	32818	
4721	0	32832	32668	
4722	0	32836	32807	
4723	0	32816	32851	
4724	0	32788	32720	
4725	0	32788	32766	
4726	0	32746	32865	
4727	0	32872	32706	
4728	0	32784	32824	
4729	0	32750	32796	
4730	0	32820	32740	
4731	0	32836	32842	
4732	0	32764	32734	
4733	0	32724	32862	
4734	0	32808	32725	
4735	0	32812	32818	
4736	0	32842	32742	
4737	0	32820	32640	
4738	0	32856	32756	
4739	0	32836	32839	
4740	0	32812	32735	
4741	0	32796	32718	
4742	0	32804	32770	
4743	0	32758	32828	
4744	0	32828	32766	
4745	0	32788	32786	
4746	0	32768	32734	
4747	0	32812	32862	
4748	0	32792	32832	
4749	0	32812	32654	
4750	0	32836	32794	
4751	0	32838	32756	
4752	0	32832	32711	
4753	0	32804	32743	
4754	0	32872	32710	
4755	0	32720	32806	
4756	0	32844	32742	
4757	0	32752	32759	
4758	0	32784	32694	
4759	0	32788	32839	
4760	0	32840	32706	
4761	0	32816	32863	
4762	0	32792	32844	
4763	0	32840	32752	
4764	0	32748	32884	
4765	0	32788	32716	
4766	0	32828	32814	
4767	0	32792	32797	
4768	0	32836	32890	
4769	0	32786	32720	
4770	0	32777	32770	
4771	0	32836	32720	
4772	0	32822	32868	
4773	0	32798	32734	
4774	0	32820	32922	
4775	0	32764	32762	
4776	0	32840	32708	
4777	0	32816	32830	
4778	0	32734	32748	
4779	0	32764	32798	
4780	0	32814	32589	
4781	0	32908	32666	
4782	0	32788	32803	
4783	0	32746	32706	
4784	0	32784	32734	
4785	0	32786	32626	
4786	0	32852	32727	
4787	0	32828	32862	
4788	0	32864	32711	
4789	0	32808	32752	
4790	0	32806	32818	
4791	0	32844	32748	
4792	0	32828	32886	
4793	0	32832	32796	
4794	0	32816	32670	
4795	0	32842	32774	
4796	0	32778	32706	
4797	0	32830	32636	
4798	0	32804	32766	
4799	0	32834	32862	
4800	0	32864	32743	
4801	0	32888	32814	
4802	0	32876	32789	
4803	0	32886	32736	
4804	0	32816	32800	
4805	0	32720	32720	
4806	0	32802	32774	
4807	0	32736	32800	
4808	0	32820	32856	
4809	0	32762	32775	
4810	0	32874	32792	
4811	0	32752	32742	
4812	0	32824	32775	
4813	0	32740	32678	
4814	0	32780	32742	
4815	0	32888	32742	
4816	0	32838	32715	
4817	0	32818	32732	
4818	0	32732	32644	
4819	0	32824	32743	
4820	0	32836	32730	
4821	0	32796	32744	
4822	0	32828	32748	
4823	0	32804	32678	
4824	0	32792	32850	
4825	0	32802	32790	
4826	0	32810	32774	
4827	0	32884	32764	
4828	0	32868	32815	
4829	0	32852	32760	
4830	0	32832	32880	
4831	0	32810	32879	
4832	0	32868	32791	
4833	0	32900	32852	
4834	0	32782	32758	
4835	0	32840	32767	
4836	0	32746	32826	
4837	0	32868	32824	
4838	0	32814	32660	
4839	0	32750	32764	
4840	0	32820	32802	
4841	0	32744	32689	
4842	0	32836	32666	
4843	0	32802	32775	
4844	0	32816	32726	
4845	0	32844	32734	
4846	0	32844	32734	
4847	0	32804	32760	
4848	0	32850	32850	
4849	0	32824	32738	
4850	0	32762	32772	
4851	0	32716	32748	
4852	0	32692	32838	
4853	0	32772	32758	
4854	0	32868	32730	
4855	0	32872	32800	
4856	0	32868	32738	
4857	0	32880	32626	
4858	0	32828	32839	
4859	0	32800	32756	
4860	0	32834	32720	
4861	0	32816	32736	
4862	0	32740	32598	
4863	0	32882	32775	
4864	0	32790	32828	
4865	0	32788	32714	
4866	0	32728	32836	
4867	0	32796	32775	
4868	0	32816	32740	
4869	0	32808	32818	
4870	0	32872	32774	
4871	0	32844	32664	
4872	0	32864	32775	
4873	0	32890	32856	
4874	0	32834	32628	
4875	0	32736	32784	
4876	0	32828	32750	
4877	0	32798	32708	
4878	0	32768	32852	
4879	0	32814	32772	
4880	0	32758	32640	
4881	0	32820	32812	
4882	0	32824	32780	
4883	0	32892	32814	
4884	0	32858	32836	
4885	0	32804	32775	
4886	0	32772	32698	
4887	0	32832	32802	
4888	0	32752	32756	
4889	0	32868	32740	
4890	0	32804	32775	
4891	0	32792	32798	
4892	0	32836	32774	
4893	0	32830	32756	
4894	0	32818	32814	
4895	0	32842	32839	
4896	0	32898	32743	
4897	0	32814	32788	
4898	0	32842	32772	
4899	0	32816	32775	
4900	0	32780	32716	
4901	0	32776	32742	
4902	0	32754	32742	
4903	0	32798	32640	
4904	0	32792	32814	
4905	0	32824	32775	
4906	0	32744	32628	
4907	0	32816	32654	
4908	0	32756	32740	
4909	0	32760	32588	
4910	0	32704	32682	
4911	0	32760	32550	
4912	0	32760	32667	
4913	0	32774	32588	
4914	0	32702	32678	
4915	0	32728	32642	
4916	0	32724	32700	
4917	0	32768	32632	
4918	0	32724	32730	
4919	0	32792	32928	
4920	0	32736	32680	
4921	0	32762	32836	
4922	0	32784	32880	
4923	0	32852	32868	
4924	0	32850	32868	
4925	0	32884	32680	
4926	0	32896	32824	
4927	0	32880	32858	
4928	0	32872	32948	
4929	0	32836	33028	
4930	0	32881	32998	
4931	0	32912	32847	
4932	0	32988	33076	
4933	0	33040	33094	
4934	0	33000	32966	
4935	0	32904	32884	
4936	0	32872	32855	
4937	0	32876	32924	
4938	0	32896	32938	
4939	0	32866	32839	
4940	0	32895	32859	
4941	0	32850	32943	
4942	0	32880	32992	
4943	0	32952	32770	
4944	0	32804	32806	
4945	0	32820	32708	
4946	0	32775	32718	
4947	0	32764	32792	
4948	0	32758	32700	
4949	0	32820	32454	
4950	0	32744	32602	
4951	0	32868	32455	
4952	0	32748	32551	
4953	0	32832	32628	
4954	0	32804	32626	
4955	0	32824	32738	
4956	0	32776	32752	
4957	0	32776	32590	
4958	0	32852	32814	
4959	0	32760	32763	
4960	0	32772	32618	
4961	0	32788	32774	
4962	0	32761	32860	
4963	0	32760	32758	
4964	0	32808	32732	
4965	0	32816	32724	
4966	0	32800	32692	
4967	0	32794	32826	
4968	0	32804	32816	
4969	0	32810	32740	
4970	0	32790	32824	
4971	0	32824	32814	
4972	0	32900	32726	
4973	0	32868	32842	
4974	0	32892	32775	
4975	0	32864	32596	
4976	0	32810	32849	
4977	0	32792	32740	
4978	0	32808	32688	
4979	0	32804	32850	
4980	0	32764	32775	
4981	0	32820	32679	
4982	0	32788	32908	
4983	0	32844	32820	
4984	0	32722	32704	
4985	0	32741	32810	
4986	0	32764	32767	
4987	0	32820	32728	
4988	0	32814	32786	
4989	0	32788	32772	
4990	0	32808	32708	
4991	0	32860	32740	
4992	0	32798	32792	
4993	0	32834	32748	
4994	0	32884	32678	
4995	0	32792	32724	
4996	0	32740	32766	
4997	0	32840	32748	
4998	0	32848	32628	
4999	0	32798	32876	
5000	0	32848	32760	
5001	0	32812	32736	
5002	0	32798	32740	
5003	0	32824	32806	
5004	0	32812	32838	
5005	0	32814	32726	
5006	0	32824	32696	
5007	0	32824	32888	
5008	0	32836	32802	
5009	0	32820	32656	
5010	0	32775	32902	
5011	0	32858	32758	
5012	0	32834	32678	
5013	0	32852	32818	
5014	0	32838	32884	
5015	0	32785	32715	
5016	0	32798	32850	
5017	0	32800	32724	
5018	0	32782	32738	
5019	0	32828	32804	
5020	0	32880	32754	
5021	0	32754	32727	
5022	0	32792	32748	
5023	0	32778	32730	
5024	0	32760	32810	
5025	0	32804	32755	
5026	0	32792	32807	
5027	0	32778	32858	
5028	0	32806	32718	
5029	0	32796	32734	
5030	0	32804	32839	
5031	0	32836	32647	
5032	0	32794	32838	
5033	0	32868	32878	
5034	0	32808	32758	
5035	0	32764	32870	
5036	0	32798	32759	
5037	0	32800	32798	
5038	0	32840	32687	
5039	0	32858	32668	
5040	0	32844	32791	
5041	0	32810	32762	
5042	0	32742	32693	
5043	0	32798	32815	
5044	0	32804	32760	
5045	0	32816	32783	
5046	0	32776	32774	
5047	0	32856	32708	
5048	0	32813	32788	
5049	0	32852	32814	
5050	0	32796	32831	
5051	0	32836	32862	
5052	0	32800	32874	
5053	0	32866	32775	
5054	0	32776	32774	
5055	0	32772	32679	
5056	0	32872	32722	
5057	0	32847	32878	
5058	0	32744	32734	
5059	0	32824	32863	
5060	0	32804	32704	
5061	0	32804	32792	
5062	0	32788	32748	
5063	0	32800	32798	
5064	0	32784	32844	
5065	0	32806	32862	
5066	0	32794	32722	
5067	0	32820	32679	
5068	0	32800	32764	
5069	0	32822	32751	
5070	0	32808	32812	
5071	0	32814	32838	
5072	0	32804	32752	
5073	0	32796	32764	
5074	0	32840	32660	
5075	0	32836	32775	
5076	0	32816	32836	
5077	0	32836	32772	
5078	0	32752	32810	
5079	0	32848	32692	
5080	0	32844	32798	
5081	0	32874	32752	
5082	0	32772	32710	
5083	0	32764	32716	
5084	0	32808	32750	
5085	0	32852	32708	
5086	0	32824	32790	
5087	0	32788	32710	
5088	0	32784	32772	
5089	0	32796	32742	
5090	0	32816	32694	
5091	0	32872	32618	
5092	0	32808	32796	
5093	0	32858	32844	
5094	0	32832	32626	
5095	0	32854	32742	
5096	0	32744	32838	
5097	0	32796	32684	
5098	0	32816	32775	
5099	0	32798	32868	
5100	0	32744	32654	
5101	0	32814	32798	
5102	0	32744	32748	
5103	0	32760	32775	
5104	0	32748	32766	
5105	0	32820	32807	
5106	0	32784	32724	
5107	0	32834	32769	
5108	0	32820	32775	
5109	0	32872	32858	
5110	0	32804	32672	
5111	0	32840	32800	
5112	0	32828	32845	
5113	0	32840	32687	
5114	0	32788	32750	
5115	0	32790	32800	
5116	0	32872	32724	
5117	0	32846	32802	
5118	0	32820	32775	
5119	0	32768	32702	
5120	0	32879	32814	
5121	0	32768	32767	
5122	0	32776	32719	
5123	0	32840	32775	
5124	0	32788	32860	
5125	0	32800	32768	
5126	0	32796	32866	
5127	0	32772	32806	
5128	0	32808	32788	
5129	0	32836	32764	
5130	0	32846	32715	
5131	0	32834	32796	
5132	0	32854	32775	
5133	0	32864	32720	
5134	0	32810	32871	
5135	0	32820	32830	
5136	0	32784	32682	
5137	0	32800	32903	
5138	0	32820	32824	
5139	0	32824	32670	
5140	0	32844	32828	
5141	0	32820	32735	
5142	0	32788	32752	
5143	0	32792	32930	
5144	0	32796	32804	
5145	0	32812	32689	
5146	0	32822	32746	
5147	0	32784	32734	
5148	0	32750	32816	
5149	0	32858	32724	
5150	0	32812	32618	
5151	0	32808	32732	
5152	0	32808	32726	
5153	0	32874	32868	
5154	0	32798	32772	
5155	0	32804	32775	
5156	0	32908	32836	
5157	0	32840	32734	
5158	0	32828	32849	
5159	0	32796	32794	
5160	0	32816	32674	
5161	0	32812	32684	
5162	0	32812	32742	
5163	0	32748	32775	
5164	0	32820	32775	
5165	0	32736	32822	
5166	0	32828	32706	
5167	0	32856	32775	
5168	0	32834	32876	
5169	0	32766	32645	
5170	0	32772	32792	
5171	0	32860	32871	
5172	0	32832	32716	
5173	0	32872	32697	
5174	0	32808	32782	
5175	0	32876	32798	
5176	0	32840	32706	
5177	0	32820	32812	
5178	0	32804	32859	
5179	0	32864	32752	
5180	0	32804	32770	
5181	0	32732	32802	
5182	0	32760	32760	
5183	0	32776	32775	
5184	0	32834	32774	
5185	0	32788	32824	
5186	0	32792	32720	
5187	0	32808	32870	
5188	0	32760	32726	
5189	0	32764	32732	
5190	0	32772	32718	
5191	0	32800	32699	
5192	0	32870	32794	
5193	0	32850	32700	
5194	0	32876	32714	
5195	0	32916	32742	
5196	0	32894	32770	
5197	0	32892	32752	
5198	0	32814	32758	
5199	0	32774	32903	
5200	0	32788	32775	
5201	0	32760	32732	
5202	0	32780	32801	
5203	0	32753	32796	
5204	0	32740	32720	
5205	0	32818	32824	
5206	0	32836	32748	
5207	0	32864	32788	
5208	0	32804	32673	
5209	0	32812	32804	
5210	0	32812	32782	
5211	0	32804	32759	
5212	0	32832	32725	
5213	0	32840	32738	
5214	0	32774	32703	
5215	0	32840	32855	
5216	0	32844	32830	
5217	0	32884	32730	
5218	0	32838	32836	
5219	0	32796	32760	
5220	0	32740	32732	
5221	0	32784	32846	
5222	0	32862	32770	
5223	0	32768	32809	
5224	0	32874	32775	
5225	0	32810	32671	
5226	0	32796	32751	
5227	0	32788	32752	
5228	0	32788	32740	
5229	0	32826	32638	
5230	0	32796	32775	
5231	0	32806	32686	
5232	0	32836	32772	
5233	0	32864	32772	
5234	0	32796	32756	
5235	0	32848	32775	
5236	0	32808	32727	
5237	0	32796	32710	
5238	0	32784	32826	
5239	0	32840	32826	
5240	0	32768	32742	
5241	0	32762	32742	
5242	0	32822	32812	
5243	0	32772	32692	
5244	0	32814	32768	
5245	0	32842	32594	
5246	0	32792	32866	
5247	0	32840	32796	
5248	0	32830	32687	
5249	0	32776	32864	
5250	0	32828	32775	
5251	0	32904	32670	
5252	0	32852	32748	
5253	0	32816	32744	
5254	0	32808	32775	
5255	0	32848	32742	
5256	0	32832	32679	
5257	0	32808	32744	
5258	0	32784	32768	
5259	0	32775	32870	
5260	0	32788	32808	
5261	0	32812	32741	
5262	0	32824	32702	
5263	0	32800	32792	
5264	0	32834	32798	
5265	0	32758	32706	
5266	0	32808	32812	
5267	0	32832	32718	
5268	0	32780	32836	
5269	0	32880	32774	
5270	0	32824	32727	
5271	0	32784	32814	
5272	0	32804	32647	
5273	0	32824	32767	
5274	0	32822	32775	
5275	0	32808	32764	
5276	0	32820	32814	
5277	0	32868	32812	
5278	0	32808	32802	
5279	0	32812	32774	
5280	0	32832	32724	
5281	0	32752	32830	
5282	0	32850	32616	
5283	0	32788	32858	
5284	0	32834	32844	
5285	0	32800	32734	
5286	0	32796	32824	
5287	0	32798	32822	
5288	0	32830	32696	
5289	0	32794	32766	
5290	0	32760	32831	
5291	0	32820	32775	
5292	0	32844	32668	
5293	0	32800	32722	
5294	0	32848	32747	
5295	0	32888	32764	
5296	0	32808	32775	
5297	0	32772	32826	
5298	0	32858	32686	
5299	0	32802	32818	
5300	0	32788	32772	
5301	0	32788	32666	
5302	0	32772	32774	
5303	0	32750	32775	
5304	0	32776	32847	
5305	0	32782	32766	
5306	0	32758	32839	
5307	0	32832	32722	
5308	0	32812	32764	
5309	0	32838	32716	
5310	0	32804	32748	
5311	0	32838	32830	
5312	0	32852	32770	
5313	0	32784	32742	
5314	0	32792	32740	
5315	0	32817	32844	
5316	0	32892	32762	
5317	0	32834	32690	
5318	0	32792	32772	
5319	0	32784	32756	
5320	0	32758	32748	
5321	0	32876	32808	
5322	0	32822	32740	
5323	0	32772	32775	
5324	0	32834	32814	
5325	0	32825	32772	
5326	0	32844	32798	
5327	0	32816	32788	
5328	0	32808	32800	
5329	0	32796	32837	
5330	0	32860	32704	
5331	0	32822	32766	
5332	0	32812	32870	
5333	0	32848	32799	
5334	0	32764	32662	
5335	0	32858	32858	
5336	0	32828	32742	
5337	0	32864	32692	
5338	0	32835	32863	
5339	0	32854	32769	
5340	0	32788	32739	
5341	0	32852	32759	
5342	0	32788	32692	
5343	0	32782	32746	
5344	0	32820	32822	
5345	0	32758	32672	
5346	0	32812	32772	
5347	0	32834	32860	
5348	0	32820	32754	
5349	0	32824	32916	
5350	0	32864	32734	
5351	0	32836	32820	
5352	0	32834	32820	
5353	0	32828	32784	
5354	0	32876	32810	
5355	0	32824	32740	
5356	0	32812	32756	
5357	0	32784	32748	
5358	0	32768	32630	
5359	0	32796	32700	
5360	0	32796	32728	
5361	0	32784	32844	
5362	0	32868	32608	
5363	0	32808	32832	
5364	0	32764	32714	
5365	0	32776	32894	
5366	0	32818	32756	
5367	0	32892	32792	
5368	0	32810	32711	
5369	0	32808	32752	
5370	0	32828	32673	
5371	0	32860	32775	
5372	0	32792	32756	
5373	0	32792	32762	
5374	0	32816	32775	
5375	0	32870	32764	
5376	0	32840	32806	
5377	0	32775	32751	
5378	0	32760	32808	
5379	0	32808	32734	
5380	0	32780	32764	
5381	0	32784	32794	
5382	0	32812	32762	
5383	0	32734	32703	
5384	0	32820	32732	
5385	0	32754	32838	
5386	0	32832	32775	
5387	0	32846	32810	
5388	0	32830	32748	
5389	0	32820	32819	
5390	0	32836	32647	
5391	0	32784	32730	
5392	0	32846	32756	
5393	0	32772	32903	
5394	0	32816	32748	
5395	0	32790	32732	
5396	0	32868	32704	
5397	0	32864	32732	
5398	0	32862	32903	
5399	0	32858	32684	
5400	0	32820	32858	
5401	0	32900	32822	
5402	0	32788	32728	
5403	0	32756	32748	
5404	0	32770	32724	
5405	0	32844	32823	
5406	0	32768	32722	
5407	0	32788	32772	
5408	0	32810	32764	
5409	0	32744	32716	
5410	0	32806	32668	
5411	0	32808	32750	
5412	0	32820	32826	
5413	0	32868	32775	
5414	0	32806	32742	
5415	0	32830	32730	
5416	0	32784	32784	
5417	0	32849	32692	
5418	0	32820	32860	
5419	0	32802	32736	
5420	0	32768	32814	
5421	0	32762	32796	
5422	0	32828	32766	
5423	0	32848	32726	
5424	0	32808	32739	
5425	0	32838	32806	
5426	0	32844	32816	
5427	0	32748	32654	
5428	0	32752	32748	
5429	0	32780	32806	
5430	0	32820	32664	
5431	0	32800	32790	
5432	0	32820	32743	
5433	0	32864	32670	
5434	0	32866	32775	
5435	0	32836	32839	
5436	0	32794	32708	
5437	0	32806	32866	
5438	0	32812	32736	
5439	0	32874	32780	
5440	0	32816	32844	
5441	0	32744	32817	
5442	0	32752	32682	
5443	0	32816	32762	
5444	0	32758	32814	
5445	0	32824	32810	
5446	0	32752	32694	
5447	0	32740	32804	
5448	0	32748	32814	
5449	0	32756	32742	
5450	0	32816	32728	
5451	0	32868	32690	
5452	0	32828	32792	
5453	0	32852	32738	
5454	0	32842	32792	
5455	0	32876	32743	
5456	0	32852	32842	
5457	0	32896	32720	
5458	0	32876	32802	
5459	0	32852	32752	
5460	0	32728	32640	
5461	0	32730	32756	
5462	0	32748	32836	
5463	0	32880	32892	
5464	0	32712	32809	
5465	0	32786	32825	
5466	0	32832	32810	
5467	0	32885	32743	
5468	0	32848	32794	
5469	0	32830	32708	
5470	0	32818	32838	
5471	0	32868	32730	
5472	0	32776	32682	
5473	0	32800	32647	
5474	0	32768	32814	
5475	0	32814	32775	
5476	0	32852	32742	
5477	0	32796	32844	
5478	0	32818	32862	
5479	0	32770	32738	
5480	0	32785	32764	
5481	0	32774	32804	
5482	0	32796	32852	
5483	0	32784	32606	
5484	0	32770	32806	
5485	0	32775	32784	
5486	0	32834	32734	
5487	0	32800	32754	
5488	0	32748	32772	
5489	0	32748	32608	
5490	0	32824	32849	
5491	0	32820	32740	
5492	0	32894	32796	
5493	0	32822	32770	
5494	0	32780	32775	
5495	0	32826	32814	
5496	0	32824	32646	
5497	0	32822	32711	
5498	0	32888	32850	
5499	0	32752	32798	
5500	0	32736	32682	
5501	0	32786	32824	
5502	0	32812	32787	
5503	0	32796	32676	
5504	0	32786	32774	
5505	0	32788	32810	
5506	0	32792	32743	
5507	0	32818	32812	
5508	0	32820	32670	
5509	0	32888	32732	
5510	0	32832	32747	
5511	0	32882	32668	
5512	0	32848	32840	
5513	0	32792	32789	
5514	0	32884	32718	
5515	0	32826	32812	
5516	0	32832	32758	
5517	0	32752	32752	
5518	0	32748	32727	
5519	0	32696	32756	
5520	0	32812	32852	
5521	0	32834	32666	
5522	0	32788	32775	
5523	0	32868	32766	
5524	0	32906	32740	
5525	0	32950	32790	
5526	0	32944	32824	
5527	0	32872	32662	
5528	0	32769	32810	
5529	0	32816	32895	
5530	0	32792	32764	
5531	0	32812	32775	
5532	0	32860	32775	
5533	0	32808	32756	
5534	0	32808	32828	
5535	0	32852	32720	
5536	0	32864	32804	
5537	0	32820	32766	
5538	0	32792	32703	
5539	0	32804	32790	
5540	0	32812	32711	
5541	0	32756	32836	
5542	0	32717	32668	
5543	0	32766	32775	
5544	0	32772	32806	
5545	0	32784	32714	
5546	0	32808	32864	
5547	0	32758	32850	
5548	0	32802	32824	
5549	0	32864	32807	
5550	0	32772	32775	
5551	0	32876	32838	
5552	0	32852	32740	
5553	0	32816	32832	
5554	0	32806	32792	
5555	0	32832	32690	
5556	0	32868	32618	
5557	0	32824	32801	
5558	0	32780	32736	
5559	0	32838	32632	
5560	0	32796	32775	
5561	0	32794	32732	
5562	0	32826	32652	
5563	0	32782	32898	
5564	0	32734	32775	
5565	0	32756	32882	
5566	0	32784	32728	
5567	0	32836	32808	
5568	0	32796	32812	
5569	0	32806	32672	
5570	0	32842	32876	
5571	0	32794	32818	
5572	0	32816	32676	
5573	0	32900	32894	
5574	0	32820	32714	
5575	0	32884	32769	
5576	0	32836	32772	
5577	0	32834	32762	
5578	0	32846	32652	
5579	0	32880	32712	
5580	0	32800	32774	
5581	0	32750	32668	
5582	0	32732	32775	
5583	0	32728	32880	
5584	0	32736	32715	
5585	0	32748	32878	
5586	0	32788	32772	
5587	0	32848	32760	
5588	0	32846	32740	
5589	0	32840	32804	
5590	0	32868	32682	
5591	0	32844	32668	
5592	0	32886	32792	
5593	0	32756	32751	
5594	0	32840	32702	
5595	0	32766	32826	
5596	0	32852	32728	
5597	0	32828	32658	
5598	0	32812	32775	
5599	0	32808	32870	
5600	0	32870	32791	
5601	0	32796	32670	
5602	0	32816	32823	
5603	0	32836	32750	
5604	0	32840	32728	
5605	0	32742	32836	
5606	0	32722	32812	
5607	0	32776	32748	
5608	0	32864	32767	
5609	0	32780	32770	
5610	0	32774	32832	
5611	0	32866	32646	
5612	0	32828	32720	
5613	0	32816	32804	
5614	0	32800	32742	
5615	0	32792	32812	
5616	0	32820	32824	
5617	0	32782	32743	
5618	0	32860	32814	
5619	0	32848	32820	
5620	0	32842	32774	
5621	0	32852	32696	
5622	0	32852	32704	
5623	0	32772	32820	
5624	0	32732	32732	
5625	0	32732	32750	
5626	0	32754	32756	
5627	0	32772	32820	
5628	0	32798	32746	
5629	0	32778	32790	
5630	0	32852	32732	
5631	0	32852	32806	
5632	0	32832	32665	
5633	0	32856	32890	
5634	0	32812	32814	
5635	0	32856	32720	
5636	0	32820	32868	
5637	0	32812	32806	
5638	0	32772	32680	
5639	0	32710	32748	
5640	0	32796	32727	
5641	0	32836	32702	
5642	0	32804	32856	
5643	0	32796	32807	
5644	0	32820	32642	
5645	0	32780	32766	
5646	0	32766	32746	
5647	0	32870	32724	
5648	0	32832	32740	
5649	0	32856	32758	
5650	0	32800	32775	
5651	0	32848	32824	
5652	0	32828	32759	
5653	0	32816	32687	
5654	0	32736	32711	
5655	0	32806	32816	
5656	0	32838	32700	
5657	0	32828	32700	
5658	0	32808	32695	
5659	0	32832	32672	
5660	0	32876	32854	
5661	0	32804	32775	
5662	0	32796	32712	
5663	0	32718	32750	
5664	0	32728	32703	
5665	0	32676	32612	
5666	0	32718	32660	
5667	0	32776	32608	
5668	0	32788	32698	
5669	0	32740	32660	
5670	0	32724	32747	
5671	0	32684	32632	
5672	0	32748	32732	
5673	0	32716	32716	
5674	0	32804	32626	
5675	0	32784	32855	
5676	0	32800	32858	
5677	0	32786	32740	
5678	0	32918	32854	
5679	0	32802	32775	
5680	0	32792	32894	
5681	0	32804	32738	
5682	0	32836	33022	
5683	0	32836	32933	
5684	0	32840	32842	
5685	0	32910	32964	
5686	0	32910	32999	
5687	0	32904	32882	
5688	0	32968	32991	
5689	0	33014	32916	
5690	0	32922	32941	
5691	0	32888	33090	
5692	0	32860	32935	
5693	0	32902	32924	
5694	0	32926	32918	
5695	0	32836	32925	
5696	0	32854	32924	
5697	0	32856	32996	
5698	0	32960	32871	
5699	0	32946	32912	
5700	0	32896	32748	
5701	0	32808	32698	
5702	0	32894	32823	
5703	0	32820	32554	
5704	0	32784	32504	
5705	0	32766	32620	
5706	0	32710	32568	
5707	0	32770	32506	
5708	0	32764	32528	
5709	0	32696	32645	
5710	0	32780	32696	
5711	0	32748	32572	
5712	0	32762	32718	
5713	0	32780	32664	
5714	0	32804	32762	
5715	0	32728	32644	
5716	0	32740	32700	
5717	0	32820	32729	
5718	0	32808	32670	
5719	0	32828	32750	
5720	0	32802	32855	
5721	0	32882	32754	
5722	0	32740	32775	
5723	0	32804	32712	
5724	0	32740	32820	
5725	0	32804	32825	
5726	0	32792	32722	
5727	0	32800	32774	
5728	0	32820	32790	
5729	0	32812	32842	
5730	0	32840	32724	
5731	0	32828	32794	
5732	0	32856	32753	
5733	0	32836	32844	
5734	0	32822	32743	
5735	0	32802	32775	
5736	0	32856	32736	
5737	0	32892	32734	
5738	0	32832	32826	
5739	0	32756	32750	
5740	0	32830	32718	
5741	0	32860	32860	
5742	0	32800	32710	
5743	0	32840	32860	
5744	0	32764	32674	
5745	0	32808	32836	
5746	0	32808	32711	
5747	0	32828	32754	
5748	0	32766	32732	
5749	0	32792	32743	
5750	0	32796	32743	
5751	0	32800	32690	
5752	0	32794	32788	
5753	0	32816	32824	
5754	0	32852	32662	
5755	0	32828	32828	
5756	0	32784	32768	
5757	0	32838	32850	
5758	0	32772	32678	
5759	0	32832	32775	
5760	0	32812	32762	
5761	0	32850	32740	
5762	0	32722	32728	
5763	0	32872	32774	
5764	0	32784	32775	
5765	0	32762	32724	
5766	0	32796	32798	
5767	0	32808	32775	
5768	0	32756	32726	
5769	0	32704	32838	
5770	0	32788	32775	
5771	0	32860	32772	
5772	0	32840	32814	
5773	0	32836	32816	
5774	0	32884	32660	
5775	0	32825	32838	
5776	0	32776	32786	
5777	0	32718	32647	
5778	0	32896	32858	
5779	0	32764	32798	
5780	0	32830	32710	
5781	0	32828	32740	
5782	0	32832	32743	
5783	0	32836	32692	
5784	0	32816	32775	
5785	0	32858	32900	
5786	0	32800	32775	
5787	0	32786	32772	
5788	0	32778	32757	
5789	0	32828	32828	
5790	0	32796	32775	
5791	0	32736	32672	
5792	0	32812	32734	
5793	0	32858	32751	
5794	0	32792	32678	
5795	0	32844	32808	
5796	0	32812	32708	
5797	0	32816	32732	
5798	0	32808	32655	
5799	0	32824	32786	
5800	0	32822	32694	
5801	0	32838	32794	
5802	0	32768	32856	
5803	0	32816	32670	
5804	0	32816	32803	
5805	0	32792	32788	
5806	0	32812	32766	
5807	0	32778	32798	
5808	0	32772	32820	
5809	0	32804	32762	
5810	0	32774	32796	
5811	0	32806	32748	
5812	0	32824	32676	
5813	0	32790	32808	
5814	0	32848	32743	
5815	0	32872	32712	
5816	0	32814	32830	
5817	0	32852	32798	
5818	0	32828	32744	
5819	0	32836	32870	
5820	0	32802	32807	
5821	0	32838	32743	
5822	0	32804	32732	
5823	0	32800	32720	
5824	0	32796	32775	
5825	0	32772	32670	
5826	0	32810	32830	
5827	0	32724	32814	
5828	0	32802	32680	
5829	0	32800	32892	
5830	0	32820	32806	
5831	0	32816	32687	
5832	0	32840	32814	
5833	0	32864	32754	
5834	0	32836	32684	
5835	0	32764	32757	
5836	0	32761	32718	
5837	0	32876	32790	
5838	0	32820	32716	
5839	0	32856	32744	
5840	0	32830	32794	
5841	0	32836	32775	
5842	0	32752	32812	
5843	0	32802	32711	
5844	0	32858	32750	
5845	0	32812	32830	
5846	0	32816	32852	
5847	0	32754	32775	
5848	0	32796	32852	
5849	0	32804	32766	
5850	0	32816	32748	
5851	0	32764	32702	
5852	0	32800	32748	
5853	0	32834	32682	
5854	0	32866	32743	
5855	0	32772	32806	
5856	0	32768	32716	
5857	0	32848	32624	
5858	0	32876	32794	
5859	0	32864	32788	
5860	0	32850	32696	
5861	0	32796	32796	
5862	0	32752	32732	
5863	0	32816	32812	
5864	0	32806	32743	
5865	0	32740	32812	
5866	0	32828	32801	
5867	0	32844	32756	
5868	0	32764	32826	
5869	0	32936	32818	
5870	0	32836	32740	
5871	0	32890	32754	
5872	0	32886	32775	
5873	0	32810	32792	
5874	0	32778	32721	
5875	0	32814	32772	
5876	0	32796	32720	
5877	0	32818	32712	
5878	0	32908	32806	
5879	0	32816	32732	
5880	0	32762	32647	
5881	0	32759	32806	
5882	0	32802	32775	
5883	0	32810	32730	
5884	0	32818	32775	
5885	0	32766	32769	
5886	0	32820	32735	
5887	0	32760	32652	
5888	0	32817	32768	
5889	0	32844	32847	
5890	0	32886	32702	
5891	0	32844	32796	
5892	0	32838	32824	
5893	0	32865	32822	
5894	0	32836	32772	
5895	0	32796	32731	
5896	0	32848	32820	
5897	0	32801	32646	
5898	0	32790	32794	
5899	0	32852	32772	
5900	0	32832	32784	
5901	0	32784	32812	
5902	0	32768	32804	
5903	0	32800	32630	
5904	0	32768	32766	
5905	0	32704	32812	
5906	0	32796	32691	
5907	0	32816	32806	
5908	0	32794	32770	
5909	0	32880	32762	
5910	0	32884	32738	
5911	0	32838	32828	
5912	0	32872	32820	
5913	0	32882	32814	
5914	0	32864	32790	
5915	0	32810	32684	
5916	0	32836	32774	
5917	0	32792	32798	
5918	0	32742	32766	
5919	0	32736	32737	
5920	0	32816	32686	
5921	0	32740	32730	
5922	0	32760	32820	
5923	0	32772	32697	
5924	0	32840	32868	
5925	0	32856	32896	
5926	0	32864	32800	
5927	0	32768	32820	
5928	0	32798	32760	
5929	0	32774	32852	
5930	0	32834	32736	
5931	0	32744	32674	
5932	0	32842	32756	
5933	0	32868	32834	
5934	0	32900	32734	
5935	0	32796	32744	
5936	0	32788	32804	
5937	0	32872	32708	
5938	0	32804	32792	
5939	0	32752	32758	
5940	0	32804	32806	
5941	0	32816	32750	
5942	0	32836	32700	
5943	0	32824	32775	
5944	0	32820	32742	
5945	0	32756	32724	
5946	0	32792	32806	
5947	0	32792	32864	
5948	0	32812	32732	
5949	0	32808	32830	
5950	0	32872	32788	
5951	0	32868	32743	
5952	0	32834	32806	
5953	0	32908	32766	
5954	0	32762	32760	
5955	0	32816	32807	
5956	0	32832	32692	
5957	0	32808	32832	
5958	0	32788	32854	
5959	0	32820	32751	
5960	0	32786	32698	
5961	0	32744	32690	
5962	0	32812	32832	
5963	0	32852	32738	
5964	0	32820	32700	
5965	0	32794	32794	
5966	0	32756	32730	
5967	0	32744	32684	
5968	0	32776	32810	
5969	0	32760	32804	
5970	0	32775	32866	
5971	0	32800	32775	
5972	0	32796	32772	
5973	0	32820	32666	
5974	0	32890	32775	
5975	0	32824	32775	
5976	0	32850	32668	
5977	0	32824	32796	
5978	0	32806	32844	
5979	0	32818	32800	
5980	0	32784	32736	
5981	0	32792	32700	
5982	0	32740	32750	
5983	0	32814	32788	
5984	0	32840	32714	
5985	0	32852	32844	
5986	0	32792	32800	
5987	0	32764	32680	
5988	0	32800	32818	
5989	0	32746	32802	
5990	0	32776	32730	
5991	0	32798	32775	
5992	0	32840	32871	
5993	0	32856	32699	
5994	0	32812	32774	
5995	0	32840	32828	
5996	0	32896	32718	
5997	0	32840	32835	
5998	0	32838	32799	
5999	0	32780	32702	
6000	0	32788	32734	
6001	0	32734	32826	
6002	0	32792	32706	
6003	0	32796	32775	
6004	0	32770	32762	
6005	0	32788	32775	
6006	0	32752	32775	
6007	0	32764	32812	
6008	0	32812	32734	
6009	0	32792	32674	
6010	0	32872	32796	
6011	0	32916	32794	
6012	0	32872	32657	
