# OpenSignals Text File Format. Version 1
# {"00:07:80:8C:0A:39": {"position": 0, "device": "biosignalsplux", "device name": "00:07:80:8C:0A:39", "device connection": "BTH00:07:80:8C:0A:39", "sampling rate": 1000, "resolution": [16, 16], "firmware version": 776, "comments": "", "keywords": "", "mode": 0, "sync interval": 2, "date": "2023-3-17", "time": "11:9:10.137", "channels": [1, 2], "sensor": ["EMG", "EMG"], "label": ["CH1", "CH2"], "column": ["nSeq", "DI", "CH1", "CH2"], "special": [{"SpO2": [80, 40, 5, 4, 3, 3]}, {"SpO2": [80, 40, 5, 4, 3, 3]}, {"SpO2": [80, 40, 5, 4, 3, 3]}, {"SpO2": [80, 40, 5, 4, 3, 3]}, {"SpO2": [80, 40, 5, 4, 3, 3]}, {"SpO2": [80, 40, 5, 4, 3, 3]}, {"SpO2": [80, 40, 5, 4, 3, 3]}, {"SpO2": [80, 40, 5, 4, 3, 3]}], "digital IO": [0, 1], "sleeve color": ["gray", "yellow"], "convertedValues": 0}}
# EndOfHeader
0	0	32792	32764	
1	0	32820	32652	
2	0	32836	32710	
3	0	32768	32766	
4	0	32840	32860	
5	0	32816	32775	
6	0	32836	32856	
7	0	32808	32799	
8	0	32792	32852	
9	0	32736	32727	
10	0	32812	32726	
11	0	32822	32862	
12	0	32844	32725	
13	0	32864	32924	
14	0	32837	32823	
15	0	32842	32679	
16	0	32828	32718	
17	0	32832	32839	
18	0	32788	32718	
19	0	32804	32732	
20	0	32840	32858	
21	0	32772	32663	
22	0	32800	32710	
23	0	32720	32714	
24	0	32826	32821	
25	0	32852	32903	
26	0	32830	32802	
27	0	32800	32727	
28	0	32764	32775	
29	0	32832	32722	
30	0	32832	32884	
31	0	32880	32770	
32	0	32798	32722	
33	0	32812	32800	
34	0	32818	32831	
35	0	32856	32674	
36	0	32750	32698	
37	0	32832	32848	
38	0	32792	32767	
39	0	32800	32794	
40	0	32794	32756	
41	0	32788	32820	
42	0	32828	32830	
43	0	32836	32810	
44	0	32812	32836	
45	0	32788	32796	
46	0	32796	32751	
47	0	32816	32736	
48	0	32816	32878	
49	0	32816	32792	
50	0	32840	32740	
51	0	32808	32860	
52	0	32854	32756	
53	0	32816	32811	
54	0	32866	32724	
55	0	32844	32746	
56	0	32818	32828	
57	0	32852	32718	
58	0	32804	32775	
59	0	32868	32775	
60	0	32808	32756	
61	0	32830	32750	
62	0	32786	32747	
63	0	32764	32816	
64	0	32810	32692	
65	0	32764	32759	
66	0	32774	32754	
67	0	32844	32860	
68	0	32848	32820	
69	0	32776	32836	
70	0	32826	32770	
71	0	32852	32742	
72	0	32796	32716	
73	0	32856	32768	
74	0	32888	32840	
75	0	32778	32724	
76	0	32847	32710	
77	0	32824	32847	
78	0	32864	32775	
79	0	32784	32812	
80	0	32806	32826	
81	0	32824	32756	
82	0	32740	32756	
83	0	32840	32738	
84	0	32778	32734	
85	0	32774	32862	
86	0	32764	32756	
87	0	32792	32818	
88	0	32780	32706	
89	0	32812	32729	
90	0	32772	32806	
91	0	32774	32759	
92	0	32840	32583	
93	0	32852	32698	
94	0	32824	32832	
95	0	32768	32792	
96	0	32832	32852	
97	0	32760	32814	
98	0	32828	32769	
99	0	32792	32700	
100	0	32820	32890	
101	0	32820	32796	
102	0	32870	32836	
103	0	32846	32871	
104	0	32804	32818	
105	0	32794	32790	
106	0	32832	32722	
107	0	32826	32758	
108	0	32780	32751	
109	0	32818	32720	
110	0	32818	32684	
111	0	32818	32759	
112	0	32748	32740	
113	0	32798	32784	
114	0	32868	32822	
115	0	32794	32838	
116	0	32792	32742	
117	0	32832	32818	
118	0	32738	32771	
119	0	32846	32823	
120	0	32896	32775	
121	0	32780	32700	
122	0	32816	32686	
123	0	32800	32775	
124	0	32752	32775	
125	0	32849	32852	
126	0	32796	32772	
127	0	32752	32818	
128	0	32870	32808	
129	0	32778	32703	
130	0	32764	32676	
131	0	32782	32806	
132	0	32868	32774	
133	0	32832	32740	
134	0	32868	32770	
135	0	32792	32780	
136	0	32806	32800	
137	0	32760	32660	
138	0	32816	32666	
139	0	32828	32838	
140	0	32778	32805	
141	0	32840	32788	
142	0	32798	32871	
143	0	32804	32767	
144	0	32874	32686	
145	0	32780	32682	
146	0	32794	32830	
147	0	32766	32748	
148	0	32864	32794	
149	0	32928	32799	
150	0	32768	32764	
151	0	32888	32735	
152	0	32812	32642	
153	0	32754	32706	
154	0	32848	32900	
155	0	32770	32814	
156	0	32786	32815	
157	0	32844	32775	
158	0	32832	32762	
159	0	32784	32816	
160	0	32840	32814	
161	0	32794	32694	
162	0	32764	32750	
163	0	32888	32839	
164	0	32828	32807	
165	0	32816	32775	
166	0	32740	32762	
167	0	32812	32711	
168	0	32780	32772	
169	0	32772	32878	
170	0	32896	32818	
171	0	32830	32796	
172	0	32816	32768	
173	0	32832	32642	
174	0	32812	32656	
175	0	32812	32716	
176	0	32808	32818	
177	0	32788	32748	
178	0	32824	32734	
179	0	32892	32724	
180	0	32884	32862	
181	0	32776	32802	
182	0	32828	32788	
183	0	32778	32834	
184	0	32828	32808	
185	0	32756	32672	
186	0	32824	32842	
187	0	32876	32810	
188	0	32856	32748	
189	0	32808	32830	
190	0	32826	32734	
191	0	32840	32690	
192	0	32800	32682	
193	0	32834	32826	
194	0	32808	32785	
195	0	32852	32806	
196	0	32808	32646	
197	0	32811	32775	
198	0	32800	32774	
199	0	32808	32746	
200	0	32808	32775	
201	0	32810	32768	
202	0	32776	32870	
203	0	32888	32822	
204	0	32792	32746	
205	0	32826	32804	
206	0	32804	32694	
207	0	32812	32702	
208	0	32872	32822	
209	0	32828	32890	
210	0	32814	32812	
211	0	32832	32734	
212	0	32848	32719	
213	0	32840	32738	
214	0	32878	32794	
215	0	32840	32710	
216	0	32828	32868	
217	0	32788	32826	
218	0	32864	32700	
219	0	32760	32704	
220	0	32800	32796	
221	0	32788	32708	
222	0	32820	32806	
223	0	32788	32807	
224	0	32890	32718	
225	0	32782	32810	
226	0	32793	32798	
227	0	32770	32802	
228	0	32814	32714	
229	0	32856	32662	
230	0	32800	32763	
231	0	32804	32801	
232	0	32750	32796	
233	0	32780	32806	
234	0	32768	32775	
235	0	32740	32840	
236	0	32804	32772	
237	0	32840	32704	
238	0	32842	32823	
239	0	32840	32788	
240	0	32884	32688	
241	0	32888	32746	
242	0	32870	32810	
243	0	32794	32820	
244	0	32800	32862	
245	0	32824	32752	
246	0	32822	32692	
247	0	32816	32750	
248	0	32800	32772	
249	0	32873	32836	
250	0	32814	32706	
251	0	32768	32664	
252	0	32836	32758	
253	0	32770	32676	
254	0	32812	32828	
255	0	32814	32720	
256	0	32788	32794	
257	0	32800	32823	
258	0	32826	32670	
259	0	32824	32694	
260	0	32828	32726	
261	0	32756	32798	
262	0	32792	32742	
263	0	32780	32823	
264	0	32844	32742	
265	0	32775	32764	
266	0	32796	32820	
267	0	32792	32775	
268	0	32824	32816	
269	0	32780	32670	
270	0	32800	32704	
271	0	32798	32784	
272	0	32794	32810	
273	0	32764	32786	
274	0	32848	32806	
275	0	32804	32710	
276	0	32813	32710	
277	0	32871	32800	
278	0	32824	32775	
279	0	32828	32806	
280	0	32828	32784	
281	0	32812	32642	
282	0	32798	32724	
283	0	32820	32834	
284	0	32792	32812	
285	0	32780	32753	
286	0	32846	32796	
287	0	32788	32794	
288	0	32750	32756	
289	0	32884	32674	
290	0	32784	32796	
291	0	32812	32775	
292	0	32778	32808	
293	0	32808	32890	
294	0	32852	32676	
295	0	32904	32672	
296	0	32788	32846	
297	0	32832	32796	
298	0	32818	32806	
299	0	32852	32758	
300	0	32794	32741	
301	0	32844	32790	
302	0	32784	32775	
303	0	32772	32790	
304	0	32754	32806	
305	0	32832	32679	
306	0	32772	32673	
307	0	32876	32860	
308	0	32780	32856	
309	0	32752	32740	
310	0	32844	32784	
311	0	32876	32740	
312	0	32874	32636	
313	0	32756	32707	
314	0	32852	32682	
315	0	32808	32860	
316	0	32896	32796	
317	0	32756	32766	
318	0	32788	32784	
319	0	32866	32836	
320	0	32800	32820	
321	0	32832	32734	
322	0	32802	32724	
323	0	32830	32668	
324	0	32744	32734	
325	0	32830	32818	
326	0	32832	32812	
327	0	32788	32743	
328	0	32878	32798	
329	0	32708	32846	
330	0	32842	32826	
331	0	32792	32702	
332	0	32870	32664	
333	0	32812	32660	
334	0	32828	32856	
335	0	32842	32716	
336	0	32750	32736	
337	0	32772	32740	
338	0	32832	32768	
339	0	32800	32686	
340	0	32774	32744	
341	0	32804	32706	
342	0	32792	32744	
343	0	32832	32842	
344	0	32818	32823	
345	0	32806	32826	
346	0	32764	32738	
347	0	32784	32864	
348	0	32806	32788	
349	0	32808	32804	
350	0	32748	32767	
351	0	32802	32756	
352	0	32856	32759	
353	0	32826	32748	
354	0	32832	32775	
355	0	32802	32780	
356	0	32796	32768	
357	0	32904	32736	
358	0	32800	32866	
359	0	32788	32843	
360	0	32824	32838	
361	0	32842	32732	
362	0	32796	32742	
363	0	32900	32735	
364	0	32800	32818	
365	0	32814	32766	
366	0	32810	32756	
367	0	32786	32740	
368	0	32772	32763	
369	0	32828	32806	
370	0	32836	32720	
371	0	32832	32720	
372	0	32764	32670	
373	0	32804	32834	
374	0	32800	32742	
375	0	32924	32792	
376	0	32790	32702	
377	0	32800	32806	
378	0	32812	32758	
379	0	32772	32680	
380	0	32834	32664	
381	0	32782	32734	
382	0	32740	32760	
383	0	32866	32830	
384	0	32816	32792	
385	0	32828	32855	
386	0	32832	32807	
387	0	32790	32784	
388	0	32824	32794	
389	0	32786	32735	
390	0	32788	32775	
391	0	32792	32680	
392	0	32792	32710	
393	0	32816	32700	
394	0	32780	32764	
395	0	32832	32852	
396	0	32798	32808	
397	0	32708	32688	
398	0	32812	32740	
399	0	32842	32806	
400	0	32830	32866	
401	0	32800	32738	
402	0	32860	32797	
403	0	32808	32796	
404	0	32788	32774	
405	0	32844	32692	
406	0	32804	32926	
407	0	32780	32710	
408	0	32864	32802	
409	0	32756	32824	
410	0	32848	32730	
411	0	32830	32704	
412	0	32830	32660	
413	0	32824	32655	
414	0	32808	32714	
415	0	32808	32689	
416	0	32832	32735	
417	0	32814	32807	
418	0	32804	32742	
419	0	32802	32868	
420	0	32798	32738	
421	0	32828	32743	
422	0	32806	32688	
423	0	32878	32718	
424	0	32856	32800	
425	0	32816	32894	
426	0	32816	32774	
427	0	32848	32706	
428	0	32806	32720	
429	0	32814	32853	
430	0	32796	32850	
431	0	32820	32812	
432	0	32792	32774	
433	0	32856	32710	
434	0	32788	32763	
435	0	32854	32794	
436	0	32812	32711	
437	0	32848	32644	
438	0	32880	32700	
439	0	32778	32806	
440	0	32780	32750	
441	0	32746	32754	
442	0	32852	32808	
443	0	32836	32711	
444	0	32768	32774	
445	0	32826	32818	
446	0	32864	32738	
447	0	32836	32754	
448	0	32828	32757	
449	0	32788	32726	
450	0	32794	32708	
451	0	32760	32710	
452	0	32796	32808	
453	0	32800	32756	
454	0	32860	32814	
455	0	32832	32814	
456	0	32760	32823	
457	0	32788	32686	
458	0	32730	32644	
459	0	32884	32676	
460	0	32864	32682	
461	0	32806	32666	
462	0	32828	32756	
463	0	32812	32868	
464	0	32852	32758	
465	0	32790	32830	
466	0	32856	32790	
467	0	32770	32728	
468	0	32784	32750	
469	0	32746	32760	
470	0	32896	32792	
471	0	32804	32860	
472	0	32834	32757	
473	0	32776	32692	
474	0	32818	32664	
475	0	32798	32698	
476	0	32824	32696	
477	0	32798	32706	
478	0	32806	32796	
479	0	32784	32806	
480	0	32774	32831	
481	0	32856	32822	
482	0	32808	32769	
483	0	32804	32700	
484	0	32808	32774	
485	0	32764	32694	
486	0	32752	32796	
487	0	32834	32862	
488	0	32848	32863	
489	0	32820	32790	
490	0	32828	32732	
491	0	32764	32726	
492	0	32848	32860	
493	0	32852	32760	
494	0	32762	32764	
495	0	32818	32748	
496	0	32868	32762	
497	0	32820	32775	
498	0	32844	32743	
499	0	32772	32674	
500	0	32868	32702	
501	0	32878	32796	
502	0	32816	32770	
503	0	32772	32798	
504	0	32772	32691	
505	0	32834	32807	
506	0	32808	32710	
507	0	32824	32710	
508	0	32798	32708	
509	0	32812	32824	
510	0	32756	32753	
511	0	32822	32784	
512	0	32800	32775	
513	0	32826	32820	
514	0	32812	32764	
515	0	32796	32743	
516	0	32822	32740	
517	0	32768	32775	
518	0	32812	32770	
519	0	32860	32850	
520	0	32804	32814	
521	0	32824	32814	
522	0	32796	32856	
523	0	32854	32798	
524	0	32796	32663	
525	0	32780	32712	
526	0	32822	32748	
527	0	32820	32740	
528	0	32816	32756	
529	0	32862	32702	
530	0	32908	32767	
531	0	32794	32686	
532	0	32816	32762	
533	0	32822	32772	
534	0	32752	32886	
535	0	32888	32726	
536	0	32806	32816	
537	0	32806	32794	
538	0	32804	32743	
539	0	32808	32788	
540	0	32770	32764	
541	0	32774	32790	
542	0	32774	32775	
543	0	32898	32768	
544	0	32844	32810	
545	0	32864	32846	
546	0	32824	32806	
547	0	32848	32766	
548	0	32848	32856	
549	0	32828	32775	
550	0	32780	32796	
551	0	32840	32830	
552	0	32776	32752	
553	0	32812	32754	
554	0	32808	32770	
555	0	32832	32804	
556	0	32820	32772	
557	0	32802	32812	
558	0	32817	32752	
559	0	32846	32708	
560	0	32766	32800	
561	0	32816	32816	
562	0	32808	32715	
563	0	32788	32771	
564	0	32826	32828	
565	0	32776	32810	
566	0	32796	32828	
567	0	32770	32774	
568	0	32816	32855	
569	0	32822	32828	
570	0	32836	32751	
571	0	32798	32738	
572	0	32796	32702	
573	0	32816	32726	
574	0	32718	32694	
575	0	32836	32624	
576	0	32844	32743	
577	0	32796	32832	
578	0	32808	32796	
579	0	32828	32884	
580	0	32796	32764	
581	0	32808	32847	
582	0	32752	32712	
583	0	32784	32775	
584	0	32808	32767	
585	0	32784	32772	
586	0	32852	32812	
587	0	32784	32828	
588	0	32794	32706	
589	0	32796	32743	
590	0	32774	32752	
591	0	32840	32724	
592	0	32856	32806	
593	0	32824	32855	
594	0	32856	32800	
595	0	32824	32770	
596	0	32814	32708	
597	0	32850	32794	
598	0	32848	32818	
599	0	32736	32766	
600	0	32850	32692	
601	0	32786	32742	
602	0	32810	32710	
603	0	32802	32700	
604	0	32816	32839	
605	0	32740	32743	
606	0	32814	32734	
607	0	32828	32766	
608	0	32812	32818	
609	0	32752	32890	
610	0	32760	32864	
611	0	32820	32830	
612	0	32844	32702	
613	0	32866	32807	
614	0	32804	32836	
615	0	32832	32762	
616	0	32774	32730	
617	0	32852	32654	
618	0	32748	32646	
619	0	32856	32770	
620	0	32812	32664	
621	0	32844	32748	
622	0	32816	32838	
623	0	32820	32817	
624	0	32800	32860	
625	0	32808	32816	
626	0	32804	32818	
627	0	32800	32734	
628	0	32768	32846	
629	0	32812	32798	
630	0	32832	32768	
631	0	32846	32773	
632	0	32864	32760	
633	0	32800	32740	
634	0	32778	32828	
635	0	32758	32775	
636	0	32732	32860	
637	0	32778	32769	
638	0	32817	32856	
639	0	32836	32844	
640	0	32844	32775	
641	0	32796	32768	
642	0	32852	32674	
643	0	32752	32709	
644	0	32780	32774	
645	0	32880	32742	
646	0	32804	32794	
647	0	32812	32814	
648	0	32776	32792	
649	0	32856	32792	
650	0	32848	32752	
651	0	32743	32618	
652	0	32812	32684	
653	0	32816	32711	
654	0	32796	32836	
655	0	32756	32774	
656	0	32812	32775	
657	0	32876	32806	
658	0	32808	32852	
659	0	32812	32871	
660	0	32856	32775	
661	0	32820	32724	
662	0	32836	32766	
663	0	32856	32784	
664	0	32748	32732	
665	0	32792	32775	
666	0	32784	32812	
667	0	32794	32806	
668	0	32828	32798	
669	0	32847	32775	
670	0	32792	32772	
671	0	32838	32775	
672	0	32842	32748	
673	0	32844	32631	
674	0	32788	32670	
675	0	32786	32804	
676	0	32828	32742	
677	0	32824	32730	
678	0	32796	32720	
679	0	32840	32800	
680	0	32844	32676	
681	0	32888	32736	
682	0	32832	32700	
683	0	32792	32760	
684	0	32804	32746	
685	0	32756	32718	
686	0	32760	32660	
687	0	32802	32690	
688	0	32780	32710	
689	0	32884	32682	
690	0	32775	32636	
691	0	32768	32726	
692	0	32804	32692	
693	0	32748	32666	
694	0	32802	32696	
695	0	32782	32743	
696	0	32736	32692	
697	0	32702	32748	
698	0	32804	32708	
699	0	32804	32658	
700	0	32778	32639	
701	0	32729	32610	
702	0	32736	32774	
703	0	32736	32774	
704	0	32760	32732	
705	0	32720	32732	
706	0	32738	32759	
707	0	32740	32734	
708	0	32852	32722	
709	0	32852	32726	
710	0	32834	32748	
711	0	32836	32828	
712	0	32876	32850	
713	0	32898	32824	
714	0	32900	32926	
715	0	32896	32896	
716	0	32948	32880	
717	0	32880	32806	
718	0	32938	32864	
719	0	32948	32935	
720	0	32984	32900	
721	0	32964	32874	
722	0	32888	32826	
723	0	32794	32944	
724	0	32800	32862	
725	0	32872	32839	
726	0	32844	32870	
727	0	32868	32952	
728	0	32892	32903	
729	0	32864	32887	
730	0	32834	32748	
731	0	32872	32808	
732	0	32772	32768	
733	0	32840	32674	
734	0	32824	32586	
735	0	32813	32634	
736	0	32812	32588	
737	0	32792	32788	
738	0	32794	32668	
739	0	32754	32592	
740	0	32764	32670	
741	0	32696	32794	
742	0	32686	32711	
743	0	32780	32692	
744	0	32852	32696	
745	0	32820	32678	
746	0	32792	32828	
747	0	32716	32775	
748	0	32800	32732	
749	0	32760	32774	
750	0	32810	32820	
751	0	32752	32756	
752	0	32864	32730	
753	0	32856	32732	
754	0	32848	32743	
755	0	32820	32924	
756	0	32776	32820	
757	0	32818	32870	
758	0	32842	32742	
759	0	32863	32775	
760	0	32824	32726	
761	0	32814	32712	
762	0	32794	32826	
763	0	32784	32804	
764	0	32824	32750	
765	0	32816	32742	
766	0	32790	32806	
767	0	32824	32834	
768	0	32727	32836	
769	0	32874	32788	
770	0	32796	32792	
771	0	32758	32720	
772	0	32846	32734	
773	0	32804	32728	
774	0	32813	32737	
775	0	32792	32816	
776	0	32894	32836	
777	0	32840	32809	
778	0	32788	32708	
779	0	32836	32800	
780	0	32820	32757	
781	0	32844	32738	
782	0	32808	32758	
783	0	32784	32800	
784	0	32748	32724	
785	0	32824	32910	
786	0	32836	32775	
787	0	32794	32769	
788	0	32728	32774	
789	0	32816	32823	
790	0	32774	32792	
791	0	32816	32700	
792	0	32814	32711	
793	0	32814	32775	
794	0	32794	32757	
795	0	32896	32834	
796	0	32854	32826	
797	0	32756	32736	
798	0	32842	32860	
799	0	32832	32835	
800	0	32836	32775	
801	0	32794	32714	
802	0	32832	32656	
803	0	32770	32698	
804	0	32802	32681	
805	0	32752	32743	
806	0	32802	32846	
807	0	32854	32836	
808	0	32856	32810	
809	0	32890	32826	
810	0	32802	32682	
811	0	32794	32690	
812	0	32770	32698	
813	0	32796	32807	
814	0	32768	32759	
815	0	32758	32732	
816	0	32794	32828	
817	0	32836	32814	
818	0	32802	32799	
819	0	32796	32696	
820	0	32836	32660	
821	0	32818	32807	
822	0	32892	32808	
823	0	32762	32806	
824	0	32754	32816	
825	0	32784	32696	
826	0	32772	32660	
827	0	32784	32724	
828	0	32904	32820	
829	0	32816	32748	
830	0	32796	32742	
831	0	32760	32845	
832	0	32788	32775	
833	0	32864	32640	
834	0	32784	32762	
835	0	32818	32740	
836	0	32780	32782	
837	0	32794	32806	
838	0	32814	32775	
839	0	32832	32647	
840	0	32838	32676	
841	0	32864	32692	
842	0	32774	32673	
843	0	32814	32764	
844	0	32802	32908	
845	0	32810	32892	
846	0	32760	32710	
847	0	32836	32852	
848	0	32768	32796	
849	0	32796	32724	
850	0	32818	32732	
851	0	32798	32736	
852	0	32874	32839	
853	0	32848	32830	
854	0	32804	32770	
855	0	32788	32775	
856	0	32860	32732	
857	0	32766	32692	
858	0	32834	32775	
859	0	32834	32718	
860	0	32808	32824	
861	0	32774	32791	
862	0	32864	32832	
863	0	32780	32830	
864	0	32842	32734	
865	0	32838	32646	
866	0	32792	32718	
867	0	32812	32740	
868	0	32784	32734	
869	0	32816	32726	
870	0	32774	32897	
871	0	32820	32878	
872	0	32886	32758	
873	0	32830	32708	
874	0	32796	32694	
875	0	32838	32823	
876	0	32804	32753	
877	0	32794	32722	
878	0	32792	32686	
879	0	32785	32730	
880	0	32856	32686	
881	0	32752	32705	
882	0	32836	32866	
883	0	32852	32796	
884	0	32756	32844	
885	0	32798	32775	
886	0	32804	32756	
887	0	32832	32800	
888	0	32880	32732	
889	0	32836	32743	
890	0	32821	32804	
891	0	32868	32730	
892	0	32796	32804	
893	0	32756	32888	
894	0	32848	32832	
895	0	32848	32722	
896	0	32872	32740	
897	0	32776	32673	
898	0	32768	32711	
899	0	32832	32754	
900	0	32778	32758	
901	0	32768	32750	
902	0	32774	32804	
903	0	32828	32756	
904	0	32824	32895	
905	0	32808	32799	
906	0	32802	32772	
907	0	32748	32794	
908	0	32792	32734	
909	0	32816	32734	
910	0	32776	32772	
911	0	32760	32642	
912	0	32794	32794	
913	0	32782	32836	
914	0	32828	32865	
915	0	32840	32708	
916	0	32837	32793	
917	0	32788	32756	
918	0	32836	32696	
919	0	32820	32679	
920	0	32858	32694	
921	0	32832	32807	
922	0	32830	32824	
923	0	32834	32727	
924	0	32824	32804	
925	0	32896	32792	
926	0	32788	32828	
927	0	32804	32848	
928	0	32820	32799	
929	0	32800	32654	
930	0	32820	32756	
931	0	32760	32839	
932	0	32818	32775	
933	0	32760	32806	
934	0	32820	32772	
935	0	32760	32710	
936	0	32822	32672	
937	0	32844	32711	
938	0	32816	32775	
939	0	32816	32796	
940	0	32884	32801	
941	0	32824	32716	
942	0	32798	32682	
943	0	32758	32710	
944	0	32818	32804	
945	0	32752	32810	
946	0	32778	32736	
947	0	32794	32758	
948	0	32864	32802	
949	0	32880	32714	
950	0	32816	32721	
951	0	32784	32718	
952	0	32808	32847	
953	0	32828	32710	
954	0	32836	32720	
955	0	32840	32735	
956	0	32816	32820	
957	0	32790	32770	
958	0	32850	32804	
959	0	32844	32814	
960	0	32832	32806	
961	0	32860	32746	
962	0	32752	32720	
963	0	32856	32892	
964	0	32822	32878	
965	0	32798	32676	
966	0	32820	32804	
967	0	32838	32766	
968	0	32740	32828	
969	0	32792	32852	
970	0	32860	32750	
971	0	32766	32608	
972	0	32808	32746	
973	0	32848	32688	
974	0	32808	32812	
975	0	32864	32884	
976	0	32804	32869	
977	0	32874	32734	
978	0	32848	32823	
979	0	32836	32766	
980	0	32784	32820	
981	0	32754	32678	
982	0	32768	32666	
983	0	32856	32849	
984	0	32850	32828	
985	0	32816	32818	
986	0	32784	32770	
987	0	32766	32664	
988	0	32800	32711	
989	0	32854	32791	
990	0	32780	32736	
991	0	32748	32769	
992	0	32850	32654	
993	0	32736	32820	
994	0	32814	32799	
995	0	32810	32768	
996	0	32824	32724	
997	0	32804	32788	
998	0	32752	32775	
999	0	32814	32808	
1000	0	32788	32686	
1001	0	32800	32775	
1002	0	32768	32854	
1003	0	32872	32842	
1004	0	32844	32768	
1005	0	32800	32806	
1006	0	32759	32756	
1007	0	32800	32719	
1008	0	32776	32768	
1009	0	32832	32702	
1010	0	32826	32806	
1011	0	32776	32788	
1012	0	32808	32716	
1013	0	32840	32804	
1014	0	32790	32806	
1015	0	32789	32660	
1016	0	32864	32742	
1017	0	32741	32774	
1018	0	32834	32827	
1019	0	32776	32710	
1020	0	32830	32734	
1021	0	32804	32690	
1022	0	32828	32792	
1023	0	32768	32746	
1024	0	32774	32762	
1025	0	32836	32712	
1026	0	32774	32856	
1027	0	32768	32794	
1028	0	32852	32580	
1029	0	32900	32775	
1030	0	32896	32766	
1031	0	32800	32743	
1032	0	32820	32914	
1033	0	32784	32793	
1034	0	32816	32724	
1035	0	32822	32730	
1036	0	32816	32734	
1037	0	32808	32760	
1038	0	32764	32794	
1039	0	32804	32796	
1040	0	32796	32740	
1041	0	32848	32788	
1042	0	32864	32806	
1043	0	32810	32701	
1044	0	32844	32688	
1045	0	32766	32775	
1046	0	32792	32796	
1047	0	32780	32764	
1048	0	32788	32782	
1049	0	32800	32834	
1050	0	32840	32748	
1051	0	32824	32756	
1052	0	32798	32800	
1053	0	32840	32764	
1054	0	32827	32823	
1055	0	32824	32711	
1056	0	32838	32826	
1057	0	32824	32839	
1058	0	32818	32812	
1059	0	32792	32680	
1060	0	32774	32744	
1061	0	32804	32644	
1062	0	32788	32866	
1063	0	32780	32794	
1064	0	32800	32788	
1065	0	32768	32790	
1066	0	32840	32798	
1067	0	32852	32734	
1068	0	32894	32724	
1069	0	32794	32702	
1070	0	32792	32719	
1071	0	32776	32799	
1072	0	32790	32742	
1073	0	32804	32856	
1074	0	32848	32718	
1075	0	32840	32764	
1076	0	32784	32815	
1077	0	32764	32756	
1078	0	32820	32710	
1079	0	32834	32764	
1080	0	32775	32808	
1081	0	32825	32660	
1082	0	32804	32746	
1083	0	32864	32798	
1084	0	32830	32892	
1085	0	32768	32788	
1086	0	32820	32772	
1087	0	32792	32660	
1088	0	32738	32826	
1089	0	32796	32762	
1090	0	32842	32782	
1091	0	32816	32767	
1092	0	32826	32740	
1093	0	32834	32750	
1094	0	32860	32860	
1095	0	32808	32764	
1096	0	32814	32702	
1097	0	32848	32754	
1098	0	32806	32807	
1099	0	32816	32762	
1100	0	32792	32710	
1101	0	32864	32614	
1102	0	32852	32740	
1103	0	32702	32830	
1104	0	32780	32800	
1105	0	32838	32720	
1106	0	32832	32757	
1107	0	32780	32796	
1108	0	32832	32806	
1109	0	32833	32698	
1110	0	32810	32647	
1111	0	32821	32810	
1112	0	32862	32788	
1113	0	32820	32735	
1114	0	32772	32831	
1115	0	32774	32772	
1116	0	32788	32652	
1117	0	32784	32796	
1118	0	32820	32808	
1119	0	32857	32754	
1120	0	32772	32668	
1121	0	32804	32730	
1122	0	32804	32871	
1123	0	32832	32710	
1124	0	32784	32888	
1125	0	32804	32764	
1126	0	32824	32850	
1127	0	32804	32686	
1128	0	32800	32684	
1129	0	32884	32831	
1130	0	32804	32775	
1131	0	32852	32839	
1132	0	32858	32814	
1133	0	32796	32720	
1134	0	32804	32788	
1135	0	32808	32640	
1136	0	32844	32800	
1137	0	32788	32775	
1138	0	32816	32832	
1139	0	32748	32766	
1140	0	32828	32632	
1141	0	32796	32828	
1142	0	32796	32756	
1143	0	32849	32815	
1144	0	32848	32727	
1145	0	32790	32738	
1146	0	32856	32802	
1147	0	32832	32756	
1148	0	32808	32838	
1149	0	32810	32695	
1150	0	32818	32723	
1151	0	32800	32806	
1152	0	32770	32808	
1153	0	32768	32756	
1154	0	32866	32872	
1155	0	32808	32738	
1156	0	32788	32679	
1157	0	32852	32710	
1158	0	32916	32823	
1159	0	32772	32695	
1160	0	32862	32756	
1161	0	32846	32708	
1162	0	32820	32750	
1163	0	32788	32774	
1164	0	32768	32860	
1165	0	32788	32821	
1166	0	32884	32696	
1167	0	32798	32760	
1168	0	32826	32816	
1169	0	32804	32742	
1170	0	32848	32819	
1171	0	32878	32794	
1172	0	32784	32872	
1173	0	32806	32742	
1174	0	32820	32775	
1175	0	32818	32744	
1176	0	32856	32703	
1177	0	32872	32722	
1178	0	32838	32772	
1179	0	32725	32722	
1180	0	32792	32806	
1181	0	32800	32636	
1182	0	32804	32740	
1183	0	32806	32859	
1184	0	32836	32796	
1185	0	32820	32800	
1186	0	32800	32762	
1187	0	32798	32712	
1188	0	32848	32807	
1189	0	32796	32750	
1190	0	32778	32766	
1191	0	32840	32775	
1192	0	32836	32746	
1193	0	32800	32791	
1194	0	32748	32775	
1195	0	32808	32836	
1196	0	32780	32668	
1197	0	32768	32808	
1198	0	32820	32722	
1199	0	32857	32831	
1200	0	32844	32650	
1201	0	32812	32670	
1202	0	32800	32743	
1203	0	32796	32870	
1204	0	32770	32842	
1205	0	32776	32734	
1206	0	32775	32682	
1207	0	32826	32775	
1208	0	32808	32716	
1209	0	32800	32906	
1210	0	32830	32816	
1211	0	32804	32688	
1212	0	32812	32846	
1213	0	32834	32748	
1214	0	32856	32756	
1215	0	32764	32730	
1216	0	32836	32758	
1217	0	32828	32811	
1218	0	32844	32771	
1219	0	32784	32690	
1220	0	32844	32720	
1221	0	32776	32810	
1222	0	32784	32734	
1223	0	32808	32860	
1224	0	32816	32788	
1225	0	32800	32682	
1226	0	32806	32702	
1227	0	32828	32808	
1228	0	32800	32728	
1229	0	32812	32768	
1230	0	32868	32804	
1231	0	32808	32788	
1232	0	32858	32714	
1233	0	32832	32750	
1234	0	32824	32756	
1235	0	32804	32743	
1236	0	32772	32806	
1237	0	32852	32762	
1238	0	32825	32628	
1239	0	32808	32663	
1240	0	32834	32724	
1241	0	32808	32830	
1242	0	32768	32806	
1243	0	32760	32832	
1244	0	32760	32876	
1245	0	32766	32800	
1246	0	32828	32740	
1247	0	32810	32766	
1248	0	32790	32758	
1249	0	32772	32671	
1250	0	32792	32860	
1251	0	32828	32842	
1252	0	32806	32775	
1253	0	32812	32828	
1254	0	32792	32792	
1255	0	32812	32672	
1256	0	32756	32712	
1257	0	32790	32678	
1258	0	32832	32712	
1259	0	32738	32820	
1260	0	32846	32760	
1261	0	32768	32774	
1262	0	32836	32804	
1263	0	32816	32822	
1264	0	32886	32744	
1265	0	32814	32719	
1266	0	32792	32750	
1267	0	32816	32811	
1268	0	32812	32734	
1269	0	32788	32870	
1270	0	32812	32802	
1271	0	32800	32796	
1272	0	32840	32690	
1273	0	32806	32804	
1274	0	32810	32850	
1275	0	32832	32798	
1276	0	32834	32728	
1277	0	32788	32759	
1278	0	32802	32818	
1279	0	32888	32702	
1280	0	32828	32720	
1281	0	32836	32688	
1282	0	32792	32772	
1283	0	32824	32850	
1284	0	32892	32814	
1285	0	32834	32806	
1286	0	32828	32774	
1287	0	32840	32640	
1288	0	32844	32689	
1289	0	32824	32700	
1290	0	32788	32802	
1291	0	32832	32806	
1292	0	32783	32860	
1293	0	32784	32730	
1294	0	32800	32743	
1295	0	32800	32802	
1296	0	32800	32820	
1297	0	32820	32751	
1298	0	32886	32663	
1299	0	32824	32654	
1300	0	32788	32702	
1301	0	32782	32775	
1302	0	32818	32856	
1303	0	32800	32838	
1304	0	32842	32764	
1305	0	32776	32943	
1306	0	32872	32842	
1307	0	32830	32694	
1308	0	32760	32638	
1309	0	32872	32714	
1310	0	32932	32775	
1311	0	32748	32775	
1312	0	32776	32800	
1313	0	32804	32752	
1314	0	32816	32698	
1315	0	32808	32660	
1316	0	32810	32830	
1317	0	32785	32764	
1318	0	32766	32822	
1319	0	32832	32816	
1320	0	32820	32868	
1321	0	32788	32692	
1322	0	32788	32743	
1323	0	32880	32798	
1324	0	32780	32785	
1325	0	32848	32775	
1326	0	32840	32752	
1327	0	32780	32754	
1328	0	32788	32720	
1329	0	32846	32858	
1330	0	32810	32762	
1331	0	32856	32775	
1332	0	32804	32806	
1333	0	32816	32622	
1334	0	32852	32728	
1335	0	32772	32799	
1336	0	32800	32766	
1337	0	32824	32792	
1338	0	32804	32679	
1339	0	32816	32654	
1340	0	32820	32775	
1341	0	32792	32810	
1342	0	32806	32788	
1343	0	32760	32874	
1344	0	32836	32828	
1345	0	32782	32692	
1346	0	32804	32748	
1347	0	32856	32820	
1348	0	32796	32764	
1349	0	32796	32764	
1350	0	32828	32718	
1351	0	32774	32734	
1352	0	32872	32824	
1353	0	32828	32775	
1354	0	32820	32812	
1355	0	32796	32848	
1356	0	32800	32763	
1357	0	32828	32718	
1358	0	32768	32770	
1359	0	32840	32775	
1360	0	32876	32836	
1361	0	32860	32717	
1362	0	32800	32751	
1363	0	32848	32775	
1364	0	32798	32766	
1365	0	32804	32870	
1366	0	32794	32798	
1367	0	32796	32702	
1368	0	32812	32720	
1369	0	32816	32775	
1370	0	32820	32702	
1371	0	32852	32807	
1372	0	32792	32728	
1373	0	32798	32710	
1374	0	32838	32680	
1375	0	32870	32752	
1376	0	32816	32772	
1377	0	32816	32828	
1378	0	32816	32775	
1379	0	32784	32684	
1380	0	32792	32753	
1381	0	32792	32814	
1382	0	32781	32734	
1383	0	32812	32858	
1384	0	32804	32732	
1385	0	32828	32676	
1386	0	32836	32871	
1387	0	32828	32775	
1388	0	32792	32736	
1389	0	32792	32743	
1390	0	32844	32716	
1391	0	32808	32762	
1392	0	32822	32832	
1393	0	32788	32814	
1394	0	32804	32788	
1395	0	32812	32798	
1396	0	32764	32699	
1397	0	32820	32738	
1398	0	32774	32734	
1399	0	32772	32828	
1400	0	32804	32810	
1401	0	32772	32770	
1402	0	32824	32692	
1403	0	32792	32752	
1404	0	32836	32823	
1405	0	32808	32822	
1406	0	32780	32742	
1407	0	32806	32743	
1408	0	32848	32683	
1409	0	32728	32802	
1410	0	32832	32775	
1411	0	32816	32758	
1412	0	32812	32758	
1413	0	32844	32806	
1414	0	32892	32762	
1415	0	32828	32686	
1416	0	32812	32664	
1417	0	32832	32860	
1418	0	32804	32820	
1419	0	32802	32706	
1420	0	32788	32784	
1421	0	32752	32829	
1422	0	32852	32670	
1423	0	32862	32822	
1424	0	32828	32751	
1425	0	32866	32839	
1426	0	32800	32814	
1427	0	32786	32814	
1428	0	32841	32792	
1429	0	32852	32708	
1430	0	32822	32670	
1431	0	32804	32680	
1432	0	32796	32824	
1433	0	32814	32708	
1434	0	32768	32710	
1435	0	32840	32830	
1436	0	32810	32724	
1437	0	32796	32738	
1438	0	32778	32660	
1439	0	32804	32762	
1440	0	32868	32742	
1441	0	32792	32854	
1442	0	32788	32870	
1443	0	32716	32775	
1444	0	32820	32766	
1445	0	32778	32730	
1446	0	32896	32794	
1447	0	32848	32844	
1448	0	32840	32775	
1449	0	32792	32759	
1450	0	32800	32616	
1451	0	32775	32712	
1452	0	32762	32727	
1453	0	32804	32730	
1454	0	32804	32740	
1455	0	32820	32664	
1456	0	32836	32790	
1457	0	32862	32850	
1458	0	32812	32689	
1459	0	32800	32694	
1460	0	32776	32728	
1461	0	32712	32734	
1462	0	32822	32727	
1463	0	32706	32630	
1464	0	32732	32722	
1465	0	32784	32812	
1466	0	32696	32628	
1467	0	32776	32666	
1468	0	32786	32762	
1469	0	32832	32719	
1470	0	32836	32748	
1471	0	32728	32622	
1472	0	32800	32748	
1473	0	32762	32788	
1474	0	32797	32772	
1475	0	32816	32734	
1476	0	32832	32784	
1477	0	32852	32896	
1478	0	32832	32790	
1479	0	32888	32934	
1480	0	32908	32970	
1481	0	32968	32856	
1482	0	32908	32848	
1483	0	32978	32964	
1484	0	32920	32871	
1485	0	32940	32942	
1486	0	32892	32896	
1487	0	32918	32830	
1488	0	32892	32775	
1489	0	32892	32871	
1490	0	32840	32826	
1491	0	32814	32932	
1492	0	32862	32904	
1493	0	32848	32800	
1494	0	32928	32888	
1495	0	32898	32856	
1496	0	32900	32807	
1497	0	32760	32839	
1498	0	32760	32730	
1499	0	32765	32616	
1500	0	32776	32605	
1501	0	32742	32660	
1502	0	32750	32596	
1503	0	32756	32728	
1504	0	32764	32772	
1505	0	32764	32671	
1506	0	32720	32754	
1507	0	32788	32736	
1508	0	32800	32664	
1509	0	32764	32766	
1510	0	32728	32615	
1511	0	32810	32686	
1512	0	32788	32690	
1513	0	32828	32772	
1514	0	32772	32774	
1515	0	32840	32772	
1516	0	32828	32710	
1517	0	32874	32686	
1518	0	32828	32804	
1519	0	32748	32775	
1520	0	32828	32783	
1521	0	32756	32834	
1522	0	32796	32820	
1523	0	32832	32775	
1524	0	32740	32802	
1525	0	32854	32796	
1526	0	32840	32652	
1527	0	32784	32678	
1528	0	32826	32678	
1529	0	32784	32720	
1530	0	32808	32722	
1531	0	32832	32788	
1532	0	32852	32794	
1533	0	32772	32754	
1534	0	32728	32716	
1535	0	32752	32718	
1536	0	32848	32762	
1537	0	32742	32708	
1538	0	32824	32673	
1539	0	32804	32900	
1540	0	32848	32816	
1541	0	32756	32810	
1542	0	32849	32820	
1543	0	32840	32864	
1544	0	32780	32816	
1545	0	32784	32794	
1546	0	32788	32736	
1547	0	32858	32846	
1548	0	32840	32750	
1549	0	32798	32750	
1550	0	32780	32762	
1551	0	32816	32799	
1552	0	32888	32704	
1553	0	32830	32687	
1554	0	32800	32805	
1555	0	32752	32744	
1556	0	32816	32728	
1557	0	32818	32722	
1558	0	32848	32804	
1559	0	32798	32838	
1560	0	32776	32738	
1561	0	32852	32720	
1562	0	32868	32676	
1563	0	32806	32774	
1564	0	32798	32864	
1565	0	32824	32810	
1566	0	32866	32842	
1567	0	32814	32808	
1568	0	32778	32711	
1569	0	32772	32722	
1570	0	32792	32688	
1571	0	32870	32710	
1572	0	32816	32722	
1573	0	32796	32775	
1574	0	32794	32808	
1575	0	32768	32762	
1576	0	32832	32798	
1577	0	32768	32764	
1578	0	32828	32759	
1579	0	32852	32676	
1580	0	32802	32650	
1581	0	32820	32719	
1582	0	32824	32864	
1583	0	32810	32828	
1584	0	32780	32734	
1585	0	32812	32902	
1586	0	32754	32854	
1587	0	32760	32758	
1588	0	32848	32738	
1589	0	32832	32711	
1590	0	32838	32725	
1591	0	32836	32753	
1592	0	32790	32814	
1593	0	32804	32758	
1594	0	32832	32788	
1595	0	32750	32852	
1596	0	32784	32790	
1597	0	32800	32654	
1598	0	32828	32692	
1599	0	32796	32775	
1600	0	32820	32766	
1601	0	32856	32716	
1602	0	32844	32826	
1603	0	32824	32774	
1604	0	32832	32775	
1605	0	32832	32772	
1606	0	32824	32822	
1607	0	32824	32775	
1608	0	32808	32818	
1609	0	32778	32730	
1610	0	32806	32784	
1611	0	32836	32764	
1612	0	32792	32726	
1613	0	32840	32678	
1614	0	32876	32702	
1615	0	32764	32854	
1616	0	32772	32704	
1617	0	32788	32758	
1618	0	32812	32760	
1619	0	32792	32764	
1620	0	32844	32799	
1621	0	32770	32900	
1622	0	32844	32817	
1623	0	32828	32810	
1624	0	32824	32832	
1625	0	32812	32775	
1626	0	32866	32706	
1627	0	32774	32628	
1628	0	32766	32652	
1629	0	32786	32746	
1630	0	32858	32817	
1631	0	32820	32826	
1632	0	32832	32788	
1633	0	32780	32774	
1634	0	32816	32746	
1635	0	32786	32730	
1636	0	32836	32788	
1637	0	32876	32775	
1638	0	32776	32738	
1639	0	32848	32618	
1640	0	32848	32696	
1641	0	32832	32724	
1642	0	32770	32690	
1643	0	32820	32898	
1644	0	32804	32804	
1645	0	32770	32814	
1646	0	32792	32836	
1647	0	32792	32775	
1648	0	32844	32748	
1649	0	32848	32816	
1650	0	32816	32790	
1651	0	32752	32746	
1652	0	32830	32704	
1653	0	32776	32724	
1654	0	32768	32746	
1655	0	32814	32772	
1656	0	32824	32724	
1657	0	32816	32775	
1658	0	32762	32856	
1659	0	32746	32775	
1660	0	32852	32726	
1661	0	32866	32714	
1662	0	32842	32704	
1663	0	32804	32722	
1664	0	32764	32752	
1665	0	32764	32736	
1666	0	32800	32826	
1667	0	32882	32788	
1668	0	32820	32884	
1669	0	32802	32680	
1670	0	32792	32716	
1671	0	32804	32762	
1672	0	32788	32756	
1673	0	32792	32724	
1674	0	32900	32716	
1675	0	32864	32743	
1676	0	32832	32708	
1677	0	32800	32690	
1678	0	32798	32740	
1679	0	32856	32836	
1680	0	32768	32824	
1681	0	32814	32752	
1682	0	32824	32775	
1683	0	32760	32870	
1684	0	32832	32700	
1685	0	32792	32696	
1686	0	32756	32708	
1687	0	32748	32678	
1688	0	32736	32730	
1689	0	32852	32880	
1690	0	32784	32852	
1691	0	32852	32748	
1692	0	32852	32852	
1693	0	32872	32752	
1694	0	32786	32647	
1695	0	32792	32729	
1696	0	32792	32863	
1697	0	32808	32770	
1698	0	32886	32712	
1699	0	32808	32775	
1700	0	32834	32862	
1701	0	32752	32796	
1702	0	32776	32758	
1703	0	32756	32764	
1704	0	32794	32812	
1705	0	32812	32856	
1706	0	32824	32713	
1707	0	32784	32775	
1708	0	32788	32720	
1709	0	32798	32710	
1710	0	32900	32795	
1711	0	32816	32828	
1712	0	32788	32812	
1713	0	32810	32638	
1714	0	32832	32692	
1715	0	32872	32832	
1716	0	32802	32748	
1717	0	32774	32808	
1718	0	32736	32844	
1719	0	32836	32724	
1720	0	32852	32738	
1721	0	32816	32686	
1722	0	32822	32854	
1723	0	32874	32867	
1724	0	32796	32759	
1725	0	32794	32736	
1726	0	32808	32884	
1727	0	32836	32792	
1728	0	32804	32718	
1729	0	32840	32692	
1730	0	32826	32788	
1731	0	32776	32708	
1732	0	32868	32772	
1733	0	32800	32820	
1734	0	32860	32742	
1735	0	32868	32798	
1736	0	32814	32788	
1737	0	32824	32844	
1738	0	32780	32775	
1739	0	32842	32722	
1740	0	32832	32742	
1741	0	32836	32758	
1742	0	32788	32788	
1743	0	32837	32673	
1744	0	32806	32751	
1745	0	32732	32903	
1746	0	32794	32802	
1747	0	32772	32786	
1748	0	32832	32719	
1749	0	32816	32788	
1750	0	32796	32774	
1751	0	32836	32711	
1752	0	32764	32752	
1753	0	32900	32768	
1754	0	32808	32652	
1755	0	32872	32694	
1756	0	32816	32871	
1757	0	32798	32825	
1758	0	32830	32804	
1759	0	32770	32762	
1760	0	32776	32830	
1761	0	32820	32807	
1762	0	32846	32754	
1763	0	32846	32702	
1764	0	32768	32773	
1765	0	32772	32876	
1766	0	32804	32822	
1767	0	32804	32756	
1768	0	32830	32748	
1769	0	32770	32774	
1770	0	32736	32720	
1771	0	32780	32700	
1772	0	32804	32726	
1773	0	32840	32775	
1774	0	32776	32720	
1775	0	32804	32812	
1776	0	32770	32775	
1777	0	32834	32740	
1778	0	32858	32618	
1779	0	32790	32847	
1780	0	32862	32872	
1781	0	32784	32743	
1782	0	32732	32724	
1783	0	32834	32800	
1784	0	32848	32828	
1785	0	32876	32775	
1786	0	32772	32708	
1787	0	32802	32716	
1788	0	32808	32818	
1789	0	32860	32756	
1790	0	32804	32775	
1791	0	32768	32850	
1792	0	32836	32700	
1793	0	32848	32666	
1794	0	32800	32756	
1795	0	32798	32702	
1796	0	32808	32856	
1797	0	32828	32775	
1798	0	32792	32668	
1799	0	32820	32786	
1800	0	32776	32742	
1801	0	32804	32720	
1802	0	32820	32810	
1803	0	32820	32775	
1804	0	32848	32764	
1805	0	32808	32730	
1806	0	32796	32820	
1807	0	32796	32828	
1808	0	32772	32807	
1809	0	32780	32828	
1810	0	32816	32722	
1811	0	32760	32685	
1812	0	32788	32855	
1813	0	32798	32812	
1814	0	32964	32775	
1815	0	32912	32727	
1816	0	32770	32628	
1817	0	32803	32722	
1818	0	32788	32807	
1819	0	32824	32750	
1820	0	32824	32766	
1821	0	32860	32856	
1822	0	32772	32784	
1823	0	32772	32684	
1824	0	32756	32855	
1825	0	32856	32763	
1826	0	32852	32834	
1827	0	32768	32774	
1828	0	32758	32710	
1829	0	32796	32696	
1830	0	32828	32806	
1831	0	32784	32823	
1832	0	32804	32772	
1833	0	32849	32787	
1834	0	32828	32775	
1835	0	32832	32735	
1836	0	32844	32751	
1837	0	32860	32834	
1838	0	32804	32846	
1839	0	32784	32678	
1840	0	32776	32724	
1841	0	32776	32856	
1842	0	32930	32764	
1843	0	32782	32774	
1844	0	32754	32722	
1845	0	32824	32688	
1846	0	32788	32708	
1847	0	32784	32718	
1848	0	32896	32764	
1849	0	32854	32852	
1850	0	32880	32800	
1851	0	32772	32775	
1852	0	32828	32886	
1853	0	32796	32678	
1854	0	32780	32683	
1855	0	32802	32657	
1856	0	32812	32756	
1857	0	32882	32708	
1858	0	32850	32775	
1859	0	32780	32818	
1860	0	32814	32722	
1861	0	32820	32742	
1862	0	32830	32832	
1863	0	32848	32922	
1864	0	32800	32796	
1865	0	32800	32806	
1866	0	32760	32832	
1867	0	32732	32750	
1868	0	32800	32700	
1869	0	32816	32858	
1870	0	32864	32742	
1871	0	32788	32792	
1872	0	32834	32734	
1873	0	32872	32698	
1874	0	32804	32666	
1875	0	32796	32720	
1876	0	32810	32772	
1877	0	32842	32750	
1878	0	32771	32736	
1879	0	32788	32687	
1880	0	32784	32775	
1881	0	32780	32846	
1882	0	32808	32775	
1883	0	32750	32712	
1884	0	32836	32790	
1885	0	32788	32942	
1886	0	32772	32827	
1887	0	32864	32880	
1888	0	32816	32900	
1889	0	32804	32903	
1890	0	32824	32774	
1891	0	32804	32743	
1892	0	32782	32670	
1893	0	32864	32679	
1894	0	32824	32664	
1895	0	32808	32759	
1896	0	32808	32750	
1897	0	32828	32703	
1898	0	32856	32769	
1899	0	32792	32750	
1900	0	32810	32646	
1901	0	32824	32626	
1902	0	32768	32660	
1903	0	32784	32660	
1904	0	32790	32767	
1905	0	32788	32798	
1906	0	32816	32762	
1907	0	32854	32800	
1908	0	32848	32894	
1909	0	32832	32830	
1910	0	32744	32816	
1911	0	32836	32799	
1912	0	32768	32806	
1913	0	32936	32820	
1914	0	32852	32962	
1915	0	32824	32982	
1916	0	32744	32916	
1917	0	32768	32708	
1918	0	32832	32764	
1919	0	32852	32775	
1920	0	32822	32734	
1921	0	32924	32639	
1922	0	32848	32791	
1923	0	32866	32736	
1924	0	32820	32774	
1925	0	32768	32700	
1926	0	32832	32646	
1927	0	32828	32656	
1928	0	32734	32612	
1929	0	32770	32687	
1930	0	32784	32764	
1931	0	32860	32775	
1932	0	32752	32728	
1933	0	32772	32752	
1934	0	32832	32760	
1935	0	32812	32760	
1936	0	32786	32686	
1937	0	32792	32647	
1938	0	32828	32756	
1939	0	32780	32711	
1940	0	32780	32812	
1941	0	32880	32790	
1942	0	32906	32750	
1943	0	32996	32878	
1944	0	32916	32903	
1945	0	32784	32812	
1946	0	32832	32740	
1947	0	32744	32756	
1948	0	32770	32622	
1949	0	32848	32679	
1950	0	32832	32772	
1951	0	32860	32743	
1952	0	32730	32824	
1953	0	32780	32758	
1954	0	32896	32711	
1955	0	32808	32884	
1956	0	32804	32839	
1957	0	32796	32810	
1958	0	32838	32872	
1959	0	32826	32911	
1960	0	32794	32868	
1961	0	32850	32820	
1962	0	32808	32800	
1963	0	32812	32774	
1964	0	32792	32698	
1965	0	32792	32678	
1966	0	32832	32711	
1967	0	32832	32718	
1968	0	32864	32775	
1969	0	32812	32775	
1970	0	32802	32676	
1971	0	32818	32857	
1972	0	32890	32709	
1973	0	32832	32720	
1974	0	32844	32702	
1975	0	32868	32610	
1976	0	32832	32722	
1977	0	32724	32764	
1978	0	32822	32899	
1979	0	32828	32804	
1980	0	32854	32792	
1981	0	32832	32826	
1982	0	32828	32938	
1983	0	32832	32924	
1984	0	32884	32900	
1985	0	32828	32724	
1986	0	32820	32738	
1987	0	32788	32716	
1988	0	32780	32775	
1989	0	32906	32848	
1990	0	32780	32706	
1991	0	32802	32712	
1992	0	32774	32728	
1993	0	32784	32590	
1994	0	32820	32700	
1995	0	32778	32584	
1996	0	32804	32614	
1997	0	32786	32831	
1998	0	32844	32740	
1999	0	32736	32788	
2000	0	32800	32799	
2001	0	32764	32945	
2002	0	32748	32874	
2003	0	32844	32852	
2004	0	32874	32844	
2005	0	32894	32743	
2006	0	32824	32818	
2007	0	32828	32748	
2008	0	32864	32670	
2009	0	32856	32735	
2010	0	32834	32652	
2011	0	32852	32774	
2012	0	32750	32679	
2013	0	32848	32684	
2014	0	32832	32768	
2015	0	32762	32862	
2016	0	32760	32839	
2017	0	32744	32870	
2018	0	32744	32863	
2019	0	32776	32800	
2020	0	32784	32674	
2021	0	32758	32598	
2022	0	32736	32694	
2023	0	32768	32720	
2024	0	32804	32638	
2025	0	32812	32711	
2026	0	32844	32740	
2027	0	32824	32818	
2028	0	32808	32870	
2029	0	32864	32940	
2030	0	32790	32790	
2031	0	32862	32832	
2032	0	32864	32822	
2033	0	32792	32760	
2034	0	32812	32774	
2035	0	32788	32839	
2036	0	32821	32788	
2037	0	32936	32876	
2038	0	32948	32784	
2039	0	32864	32743	
2040	0	32776	32556	
2041	0	32810	32588	
2042	0	32772	32586	
2043	0	32760	32674	
2044	0	32808	32806	
2045	0	32766	32856	
2046	0	32816	32786	
2047	0	32884	32640	
2048	0	32866	32636	
2049	0	32748	32775	
2050	0	32762	32775	
2051	0	32680	32842	
2052	0	32744	32742	
2053	0	32812	32790	
2054	0	32808	32836	
2055	0	32852	32800	
2056	0	32840	32638	
2057	0	32828	32692	
2058	0	32784	32740	
2059	0	32812	32673	
2060	0	32812	32832	
2061	0	32840	32721	
2062	0	32888	32854	
2063	0	32806	32786	
2064	0	32840	32883	
2065	0	32806	32792	
2066	0	32852	32806	
2067	0	32774	32892	
2068	0	32788	32884	
2069	0	32796	32868	
2070	0	32790	33098	
2071	0	32832	33044	
2072	0	32820	32916	
2073	0	32832	32906	
2074	0	32864	32918	
2075	0	32872	32818	
2076	0	32846	32792	
2077	0	32864	32618	
2078	0	32854	32564	
2079	0	32800	32519	
2080	0	32762	32519	
2081	0	32744	32572	
2082	0	32836	32512	
2083	0	32772	32490	
2084	0	32788	32594	
2085	0	32822	32620	
2086	0	32794	32610	
2087	0	32776	32647	
2088	0	32776	32582	
2089	0	32836	32742	
2090	0	32848	32816	
2091	0	32806	32816	
2092	0	32780	32876	
2093	0	32790	32838	
2094	0	32812	32828	
2095	0	32776	32812	
2096	0	32814	32744	
2097	0	32784	32792	
2098	0	32852	32868	
2099	0	32832	32908	
2100	0	32828	32896	
2101	0	32820	32892	
2102	0	32784	32854	
2103	0	32868	32967	
2104	0	32800	32898	
2105	0	32760	32772	
2106	0	32800	32841	
2107	0	32832	32762	
2108	0	32774	32775	
2109	0	32812	32762	
2110	0	32830	32698	
2111	0	32796	32720	
2112	0	32730	32664	
2113	0	32846	32760	
2114	0	32824	32810	
2115	0	32900	32775	
2116	0	32812	32840	
2117	0	32812	32802	
2118	0	32848	32791	
2119	0	32882	32764	
2120	0	32784	32687	
2121	0	32812	32720	
2122	0	32856	32711	
2123	0	32897	32818	
2124	0	32822	32775	
2125	0	32756	32774	
2126	0	32688	32847	
2127	0	32748	32806	
2128	0	32732	32756	
2129	0	32812	32839	
2130	0	32908	32828	
2131	0	32820	32879	
2132	0	32812	32612	
2133	0	32796	32679	
2134	0	32794	32702	
2135	0	32836	32724	
2136	0	32826	32822	
2137	0	32784	32822	
2138	0	32780	32696	
2139	0	32796	32678	
2140	0	32766	32686	
2141	0	32784	32738	
2142	0	32806	32836	
2143	0	32858	32774	
2144	0	32784	32790	
2145	0	32796	32834	
2146	0	32780	32840	
2147	0	32775	32932	
2148	0	32844	32839	
2149	0	32808	32806	
2150	0	32764	32750	
2151	0	32828	32674	
2152	0	32786	32738	
2153	0	32824	32812	
2154	0	32870	32756	
2155	0	32752	32764	
2156	0	32788	32743	
2157	0	32824	32622	
2158	0	32870	32646	
2159	0	32762	32618	
2160	0	32798	32743	
2161	0	32860	32690	
2162	0	32753	32704	
2163	0	32828	32804	
2164	0	32824	32855	
2165	0	32790	32774	
2166	0	32852	32926	
2167	0	32828	32774	
2168	0	32808	32748	
2169	0	32800	32791	
2170	0	32804	32720	
2171	0	32760	32738	
2172	0	32804	32727	
2173	0	32856	32696	
2174	0	32788	32676	
2175	0	32806	32844	
2176	0	32804	32810	
2177	0	32862	32817	
2178	0	32856	32674	
2179	0	32772	32772	
2180	0	32756	32835	
2181	0	32764	32753	
2182	0	32820	32748	
2183	0	32848	32721	
2184	0	32814	32730	
2185	0	32812	32775	
2186	0	32798	32834	
2187	0	32836	32772	
2188	0	32834	32758	
2189	0	32852	32804	
2190	0	32804	32810	
2191	0	32854	32775	
2192	0	32840	32800	
2193	0	32816	32842	
2194	0	32740	32846	
2195	0	32756	32770	
2196	0	32772	32684	
2197	0	32892	32642	
2198	0	32852	32586	
2199	0	32866	32692	
2200	0	32852	32788	
2201	0	32892	32824	
2202	0	32844	32810	
2203	0	32756	32824	
2204	0	32768	32722	
2205	0	32745	32727	
2206	0	32776	32892	
2207	0	32816	32858	
2208	0	32740	32740	
2209	0	32730	32718	
2210	0	32816	32736	
2211	0	32876	32734	
2212	0	32996	32888	
2213	0	32764	32902	
2214	0	32764	32852	
2215	0	32852	32888	
2216	0	32848	32878	
2217	0	32756	32664	
2218	0	32768	32622	
2219	0	32759	32692	
2220	0	32776	32768	
2221	0	32766	32762	
2222	0	32698	32753	
2223	0	32776	32734	
2224	0	32838	32686	
2225	0	32790	32535	
2226	0	32844	32610	
2227	0	32760	32567	
2228	0	32860	32572	
2229	0	32834	32652	
2230	0	32850	32748	
2231	0	32840	32852	
2232	0	32834	32831	
2233	0	32826	32808	
2234	0	32784	32796	
2235	0	32830	32878	
2236	0	32844	32956	
2237	0	32820	32894	
2238	0	32868	32756	
2239	0	32908	32732	
2240	0	32836	32788	
2241	0	32834	32855	
2242	0	32864	32796	
2243	0	32880	32854	
2244	0	32898	32892	
2245	0	32756	32848	
2246	0	32752	32858	
2247	0	32776	32679	
2248	0	32780	32616	
2249	0	32728	32639	
2250	0	32732	32580	
2251	0	32796	32676	
2252	0	32836	32668	
2253	0	32792	32622	
2254	0	32760	32638	
2255	0	32824	32748	
2256	0	32732	32764	
2257	0	32740	32674	
2258	0	32824	32752	
2259	0	32784	32652	
2260	0	32754	32748	
2261	0	32714	32696	
2262	0	32738	32794	
2263	0	32798	32678	
2264	0	32740	32751	
2265	0	32774	32720	
2266	0	32746	32692	
2267	0	32748	32752	
2268	0	32762	32768	
2269	0	32704	32745	
2270	0	32716	32644	
2271	0	32696	32696	
2272	0	32840	32807	
2273	0	32884	32756	
2274	0	32860	32802	
2275	0	32806	32868	
2276	0	32852	32874	
2277	0	32968	32820	
2278	0	32828	32850	
2279	0	32884	32911	
2280	0	32936	32924	
2281	0	32908	32942	
2282	0	32904	32931	
2283	0	32946	33020	
2284	0	32956	32922	
2285	0	32928	32788	
2286	0	32924	32828	
2287	0	32876	32912	
2288	0	32888	32940	
2289	0	32852	32784	
2290	0	32864	32814	
2291	0	32904	32912	
2292	0	32972	32908	
2293	0	32870	32912	
2294	0	32913	32932	
2295	0	32782	32800	
2296	0	32714	32668	
2297	0	32796	32689	
2298	0	32794	32591	
2299	0	32764	32742	
2300	0	32768	32775	
2301	0	32708	32848	
2302	0	32792	32886	
2303	0	32782	32796	
2304	0	32688	32838	
2305	0	32702	32796	
2306	0	32756	32700	
2307	0	32788	32672	
2308	0	32786	32630	
2309	0	32890	32606	
2310	0	32792	32754	
2311	0	32792	32792	
2312	0	32780	32714	
2313	0	32858	32743	
2314	0	32858	32750	
2315	0	32828	32775	
2316	0	32760	32746	
2317	0	32840	32714	
2318	0	32736	32692	
2319	0	32676	32852	
2320	0	32776	32930	
2321	0	32864	32926	
2322	0	32940	32974	
2323	0	33024	32892	
2324	0	33120	32838	
2325	0	33080	32764	
2326	0	32900	32548	
2327	0	32666	32416	
2328	0	32465	32570	
2329	0	32382	32474	
2330	0	32488	32508	
2331	0	32614	32391	
2332	0	32546	32448	
2333	0	32728	32600	
2334	0	32688	32576	
2335	0	32916	32704	
2336	0	32918	32604	
2337	0	32850	32654	
2338	0	32854	32906	
2339	0	32854	32962	
2340	0	32900	32950	
2341	0	32874	32992	
2342	0	32816	32852	
2343	0	32860	32922	
2344	0	32892	32918	
2345	0	32824	32820	
2346	0	32800	32814	
2347	0	32830	32850	
2348	0	32836	32727	
2349	0	32812	32673	
2350	0	32808	32842	
2351	0	32852	32801	
2352	0	32846	32800	
2353	0	32840	32772	
2354	0	32854	32772	
2355	0	32828	32718	
2356	0	32848	32800	
2357	0	32788	32772	
2358	0	32854	32862	
2359	0	32832	32736	
2360	0	32836	32836	
2361	0	32822	32792	
2362	0	32804	32884	
2363	0	32832	32839	
2364	0	32832	32766	
2365	0	32802	32758	
2366	0	32844	32788	
2367	0	32826	32703	
2368	0	32872	32684	
2369	0	32792	32846	
2370	0	32798	32718	
2371	0	32814	32780	
2372	0	32750	32874	
2373	0	32848	32847	
2374	0	32784	32804	
2375	0	32824	32736	
2376	0	32808	32736	
2377	0	32848	32702	
2378	0	32828	32775	
2379	0	32808	32792	
2380	0	32856	32798	
2381	0	32804	32775	
2382	0	32788	32827	
2383	0	32872	32702	
2384	0	32808	32696	
2385	0	32761	32766	
2386	0	32760	32896	
2387	0	32784	32903	
2388	0	32808	32912	
2389	0	32798	32870	
2390	0	32776	32839	
2391	0	32792	32882	
2392	0	32876	32686	
2393	0	32764	32624	
2394	0	32836	32614	
2395	0	32836	32570	
2396	0	32840	32670	
2397	0	32816	32804	
2398	0	32832	32766	
2399	0	32780	32811	
2400	0	32820	32818	
2401	0	32816	32804	
2402	0	32828	32736	
2403	0	32788	32722	
2404	0	32834	32890	
2405	0	32700	32690	
2406	0	32758	32766	
2407	0	32808	32676	
2408	0	32816	32758	
2409	0	32868	32752	
2410	0	32836	32748	
2411	0	32776	32634	
2412	0	32817	32764	
2413	0	32856	32750	
2414	0	32810	32655	
2415	0	32832	32768	
2416	0	32814	32852	
2417	0	32808	32798	
2418	0	32828	32775	
2419	0	32826	32876	
2420	0	32828	32775	
2421	0	32822	32720	
2422	0	32784	32732	
2423	0	32768	32826	
2424	0	32868	32807	
2425	0	32820	32846	
2426	0	32834	32755	
2427	0	32806	32874	
2428	0	32776	32812	
2429	0	32822	32868	
2430	0	32898	32894	
2431	0	32856	32864	
2432	0	32800	32710	
2433	0	32800	32692	
2434	0	32792	32752	
2435	0	32766	32686	
2436	0	32792	32718	
2437	0	32792	32742	
2438	0	32808	32623	
2439	0	32742	32566	
2440	0	32784	32610	
2441	0	32712	32740	
2442	0	32794	32702	
2443	0	32856	32791	
2444	0	32860	32663	
2445	0	32772	32740	
2446	0	32836	32854	
2447	0	32832	32791	
2448	0	32812	32822	
2449	0	32838	32720	
2450	0	32870	32702	
2451	0	32894	32732	
2452	0	32864	32860	
2453	0	32832	32806	
2454	0	32832	32870	
2455	0	32800	32792	
2456	0	32864	32700	
2457	0	32812	32920	
2458	0	32774	32774	
2459	0	32928	32854	
2460	0	32792	32762	
2461	0	32796	32740	
2462	0	32776	32680	
2463	0	32776	32704	
2464	0	32800	32834	
2465	0	32764	32764	
2466	0	32890	32802	
2467	0	32768	32807	
2468	0	32740	32775	
2469	0	32828	32728	
2470	0	32828	32768	
2471	0	32812	32766	
2472	0	32802	32774	
2473	0	32824	32784	
2474	0	32792	32698	
2475	0	32810	32724	
2476	0	32774	32724	
2477	0	32858	32838	
2478	0	32808	32800	
2479	0	32854	32823	
2480	0	32826	32866	
2481	0	32828	32812	
2482	0	32852	32743	
2483	0	32766	32744	
2484	0	32822	32700	
2485	0	32764	32752	
2486	0	32828	32868	
2487	0	32812	32792	
2488	0	32776	32729	
2489	0	32774	32704	
2490	0	32818	32791	
2491	0	32844	32764	
2492	0	32860	32718	
2493	0	32792	32760	
2494	0	32852	32768	
2495	0	32810	32816	
2496	0	32800	32763	
2497	0	32768	32786	
2498	0	32842	32663	
2499	0	32872	32710	
2500	0	32820	32714	
2501	0	32792	32722	
2502	0	32780	32750	
2503	0	32819	32868	
2504	0	32812	32806	
2505	0	32808	32807	
2506	0	32772	32732	
2507	0	32780	32798	
2508	0	32756	32828	
2509	0	32820	32711	
2510	0	32808	32762	
2511	0	32852	32810	
2512	0	32756	32693	
2513	0	32836	32754	
2514	0	32808	32799	
2515	0	32832	32716	
2516	0	32864	32807	
2517	0	32828	32814	
2518	0	32814	32816	
2519	0	32808	32768	
2520	0	32744	32832	
2521	0	32836	32862	
2522	0	32774	32748	
2523	0	32772	32741	
2524	0	32842	32736	
2525	0	32814	32718	
2526	0	32840	32802	
2527	0	32878	32824	
2528	0	32824	32794	
2529	0	32812	32736	
2530	0	32830	32774	
2531	0	32788	32823	
2532	0	32800	32670	
2533	0	32800	32692	
2534	0	32784	32886	
2535	0	32892	32775	
2536	0	32836	32697	
2537	0	32872	32770	
2538	0	32824	32704	
2539	0	32756	32844	
2540	0	32777	32788	
2541	0	32846	32828	
2542	0	32800	32807	
2543	0	32734	32678	
2544	0	32864	32764	
2545	0	32744	32796	
2546	0	32812	32794	
2547	0	32904	32794	
2548	0	32774	32752	
2549	0	32826	32742	
2550	0	32832	32660	
2551	0	32840	32686	
2552	0	32772	32775	
2553	0	32828	32751	
2554	0	32768	32764	
2555	0	32772	32806	
2556	0	32838	32784	
2557	0	32834	32766	
2558	0	32816	32858	
2559	0	32818	32816	
2560	0	32800	32820	
2561	0	32788	32770	
2562	0	32730	32768	
2563	0	32736	32856	
2564	0	32842	32806	
2565	0	32796	32798	
2566	0	32824	32806	
2567	0	32824	32811	
2568	0	32716	32750	
2569	0	32812	32728	
2570	0	32834	32840	
2571	0	32796	32736	
2572	0	32788	32715	
2573	0	32824	32664	
2574	0	32836	32724	
2575	0	32828	32768	
2576	0	32800	32854	
2577	0	32864	32775	
2578	0	32832	32694	
2579	0	32858	32784	
2580	0	32808	32740	
2581	0	32756	32711	
2582	0	32732	32806	
2583	0	32862	32854	
2584	0	32865	32716	
2585	0	32812	32690	
2586	0	32856	32790	
2587	0	32856	32790	
2588	0	32748	32884	
2589	0	32744	32754	
2590	0	32800	32747	
2591	0	32832	32854	
2592	0	32836	32692	
2593	0	32852	32796	
2594	0	32804	32727	
2595	0	32780	32663	
2596	0	32832	32850	
2597	0	32824	32766	
2598	0	32808	32742	
2599	0	32736	32816	
2600	0	32828	32704	
2601	0	32874	32788	
2602	0	32772	32798	
2603	0	32774	32743	
2604	0	32830	32726	
2605	0	32748	32830	
2606	0	32736	32828	
2607	0	32810	32772	
2608	0	32840	32736	
2609	0	32760	32843	
2610	0	32872	32744	
2611	0	32854	32868	
2612	0	32820	32700	
2613	0	32828	32644	
2614	0	32856	32764	
2615	0	32801	32748	
2616	0	32880	32806	
2617	0	32820	32752	
2618	0	32784	32774	
2619	0	32836	32758	
2620	0	32810	32870	
2621	0	32800	32814	
2622	0	32824	32839	
2623	0	32848	32801	
2624	0	32768	32812	
2625	0	32814	32760	
2626	0	32788	32788	
2627	0	32821	32775	
2628	0	32786	32754	
2629	0	32864	32734	
2630	0	32764	32807	
2631	0	32820	32702	
2632	0	32828	32687	
2633	0	32880	32672	
2634	0	32842	32804	
2635	0	32822	32775	
2636	0	32808	32740	
2637	0	32848	32672	
2638	0	32802	32774	
2639	0	32812	32740	
2640	0	32788	32764	
2641	0	32852	32746	
2642	0	32778	32871	
2643	0	32828	32903	
2644	0	32792	32744	
2645	0	32804	32732	
2646	0	32818	32834	
2647	0	32772	32838	
2648	0	32820	32785	
2649	0	32778	32798	
2650	0	32852	32756	
2651	0	32810	32688	
2652	0	32780	32790	
2653	0	32824	32770	
2654	0	32812	32934	
2655	0	32820	32942	
2656	0	32810	32892	
2657	0	32852	32874	
2658	0	32772	32788	
2659	0	32824	32636	
2660	0	32832	32684	
2661	0	32848	32672	
2662	0	32748	32738	
2663	0	32728	32754	
2664	0	32788	32618	
2665	0	32832	32726	
2666	0	32848	32743	
2667	0	32844	32764	
2668	0	32816	32732	
2669	0	32800	32775	
2670	0	32800	32768	
2671	0	32744	32796	
2672	0	32836	32826	
2673	0	32844	32710	
2674	0	32828	32716	
2675	0	32880	32704	
2676	0	32812	32842	
2677	0	32808	32886	
2678	0	32768	32728	
2679	0	32788	32814	
2680	0	32862	32764	
2681	0	32798	32839	
2682	0	32838	32892	
2683	0	32784	32772	
2684	0	32796	32634	
2685	0	32702	32676	
2686	0	32772	32684	
2687	0	32840	32830	
2688	0	32780	32732	
2689	0	32824	32800	
2690	0	32834	32768	
2691	0	32826	32681	
2692	0	32840	32678	
2693	0	32826	32798	
2694	0	32880	32760	
2695	0	32816	32814	
2696	0	32782	32647	
2697	0	32816	32679	
2698	0	32836	32660	
2699	0	32748	32767	
2700	0	32816	32846	
2701	0	32772	32824	
2702	0	32810	32820	
2703	0	32816	32854	
2704	0	32768	32804	
2705	0	32812	32806	
2706	0	32892	32867	
2707	0	32796	32836	
2708	0	32808	32775	
2709	0	32790	32874	
2710	0	32830	32839	
2711	0	32818	32750	
2712	0	32836	32668	
2713	0	32840	32600	
2714	0	32804	32792	
2715	0	32804	32746	
2716	0	32764	32728	
2717	0	32800	32760	
2718	0	32792	32772	
2719	0	32846	32712	
2720	0	32760	32698	
2721	0	32812	32682	
2722	0	32792	32799	
2723	0	32804	32726	
2724	0	32842	32716	
2725	0	32772	32854	
2726	0	32904	32860	
2727	0	32864	32716	
2728	0	32876	32719	
2729	0	32796	32796	
2730	0	32830	32805	
2731	0	32808	32738	
2732	0	32768	32813	
2733	0	32788	32752	
2734	0	32586	32682	
2735	0	32688	32936	
2736	0	32760	32868	
2737	0	32764	32966	
2738	0	32716	32987	
2739	0	32854	32844	
2740	0	32840	32718	
2741	0	32836	32632	
2742	0	32796	32623	
2743	0	32752	32740	
2744	0	32752	32724	
2745	0	32754	32714	
2746	0	32776	32668	
2747	0	32872	32720	
2748	0	32938	32632	
2749	0	32856	32548	
2750	0	32810	32698	
2751	0	32876	32700	
2752	0	32804	32696	
2753	0	32832	32615	
2754	0	32820	32774	
2755	0	32772	32828	
2756	0	32816	32772	
2757	0	32704	32804	
2758	0	32822	32954	
2759	0	32816	32966	
2760	0	32774	32934	
2761	0	32776	32910	
2762	0	32800	33010	
2763	0	32780	32899	
2764	0	32848	32816	
2765	0	32760	32720	
2766	0	32752	32708	
2767	0	32800	32726	
2768	0	32844	32647	
2769	0	32834	32720	
2770	0	32864	32702	
2771	0	32788	32788	
2772	0	32804	32678	
2773	0	32750	32694	
2774	0	32800	32686	
2775	0	32852	32734	
2776	0	32800	32772	
2777	0	32844	32784	
2778	0	32846	32666	
2779	0	32830	32674	
2780	0	32736	32642	
2781	0	32896	32654	
2782	0	32874	32672	
2783	0	32812	32756	
2784	0	32804	32746	
2785	0	32824	32728	
2786	0	32814	32756	
2787	0	32788	32832	
2788	0	32792	32820	
2789	0	32820	32810	
2790	0	32772	32748	
2791	0	32800	32834	
2792	0	32760	32726	
2793	0	32830	32682	
2794	0	32780	32862	
2795	0	32720	32900	
2796	0	32838	32838	
2797	0	32808	32842	
2798	0	32836	32940	
2799	0	32852	32842	
2800	0	32806	32879	
2801	0	32812	32918	
2802	0	32848	32908	
2803	0	32852	32690	
2804	0	32758	32652	
2805	0	32794	32756	
2806	0	32780	32654	
2807	0	32760	32775	
2808	0	32856	32772	
2809	0	32804	32666	
2810	0	32808	32616	
2811	0	32748	32702	
2812	0	32828	32632	
2813	0	32824	32716	
2814	0	32800	32595	
2815	0	32824	32650	
2816	0	32812	32676	
2817	0	32810	32836	
2818	0	32848	32830	
2819	0	32840	32743	
2820	0	32820	32902	
2821	0	32740	32738	
2822	0	32884	32714	
2823	0	32846	32862	
2824	0	32802	32798	
2825	0	32740	32976	
2826	0	32848	32806	
2827	0	32868	32774	
2828	0	32732	32858	
2829	0	32780	32838	
2830	0	32800	32911	
2831	0	32837	32876	
2832	0	32758	32840	
2833	0	32828	32804	
2834	0	32792	32679	
2835	0	32800	32754	
2836	0	32788	32743	
2837	0	32858	32628	
2838	0	32772	32711	
2839	0	32912	32752	
2840	0	32868	32692	
2841	0	32812	32774	
2842	0	32850	32770	
2843	0	32772	32686	
2844	0	32834	32724	
2845	0	32816	32714	
2846	0	32744	32795	
2847	0	32798	32762	
2848	0	32860	32836	
2849	0	32780	32620	
2850	0	32800	32792	
2851	0	32848	32836	
2852	0	32830	32887	
2853	0	32750	32792	
2854	0	32774	32654	
2855	0	32804	32652	
2856	0	32798	32710	
2857	0	32812	32746	
2858	0	32800	32703	
2859	0	32813	32832	
2860	0	32798	32734	
2861	0	32828	32679	
2862	0	32740	32775	
2863	0	32812	32862	
2864	0	32805	32814	
2865	0	32812	32791	
2866	0	32812	32734	
2867	0	32836	32740	
2868	0	32740	32828	
2869	0	32772	32790	
2870	0	32804	32724	
2871	0	32812	32775	
2872	0	32800	32808	
2873	0	32856	32768	
2874	0	32884	32767	
2875	0	32858	32708	
2876	0	32780	32718	
2877	0	32872	32716	
2878	0	32800	32708	
2879	0	32832	32800	
2880	0	32852	32792	
2881	0	32824	32846	
2882	0	32810	32879	
2883	0	32820	32844	
2884	0	32764	32775	
2885	0	32792	32686	
2886	0	32852	32760	
2887	0	32788	32756	
2888	0	32858	32698	
2889	0	32796	32794	
2890	0	32788	32734	
2891	0	32876	32836	
2892	0	32788	32876	
2893	0	32816	32750	
2894	0	32854	32666	
2895	0	32798	32750	
2896	0	32810	32698	
2897	0	32762	32636	
2898	0	32834	32680	
2899	0	32820	32647	
2900	0	32772	32718	
2901	0	32852	32764	
2902	0	32732	32764	
2903	0	32820	32742	
2904	0	32832	32887	
2905	0	32810	32831	
2906	0	32798	32775	
2907	0	32814	32726	
2908	0	32734	32922	
2909	0	32836	32791	
2910	0	32832	32762	
2911	0	32884	32775	
2912	0	32802	32846	
2913	0	32838	32740	
2914	0	32860	32802	
2915	0	32832	32720	
2916	0	32820	32754	
2917	0	32814	32744	
2918	0	32766	32768	
2919	0	32896	32820	
2920	0	32834	32728	
2921	0	32776	32714	
2922	0	32836	32740	
2923	0	32880	32871	
2924	0	32752	32770	
2925	0	32828	32810	
2926	0	32780	32721	
2927	0	32840	32698	
2928	0	32842	32775	
2929	0	32768	32710	
2930	0	32786	32764	
2931	0	32780	32704	
2932	0	32844	32695	
2933	0	32808	32826	
2934	0	32836	32812	
2935	0	32800	32794	
2936	0	32776	32836	
2937	0	32798	32767	
2938	0	32856	32722	
2939	0	32804	32729	
2940	0	32846	32888	
2941	0	32842	32828	
2942	0	32816	32834	
2943	0	32798	32756	
2944	0	32772	32775	
2945	0	32788	32826	
2946	0	32804	32815	
2947	0	32794	32792	
2948	0	32786	32660	
2949	0	32838	32872	
2950	0	32811	32772	
2951	0	32800	32798	
2952	0	32840	32775	
2953	0	32858	32812	
2954	0	32800	32719	
2955	0	32804	32692	
2956	0	32870	32838	
2957	0	32824	32772	
2958	0	32800	32775	
2959	0	32784	32676	
2960	0	32784	32652	
2961	0	32860	32830	
2962	0	32932	32742	
2963	0	32796	32832	
2964	0	32798	32704	
2965	0	32736	32775	
2966	0	32804	32772	
2967	0	32776	32810	
2968	0	32820	32783	
2969	0	32830	32658	
2970	0	32830	32820	
2971	0	32804	32742	
2972	0	32874	32852	
2973	0	32824	32596	
2974	0	32836	32772	
2975	0	32864	32796	
2976	0	32764	32796	
2977	0	32686	32794	
2978	0	32808	32768	
2979	0	32780	32864	
2980	0	32834	32724	
2981	0	32836	32807	
2982	0	32920	32646	
2983	0	32778	32668	
2984	0	32780	32862	
2985	0	32866	32838	
2986	0	32828	32742	
2987	0	32898	32732	
2988	0	32862	32718	
2989	0	32862	32764	
2990	0	32804	32760	
2991	0	32792	32888	
2992	0	32824	32806	
2993	0	32864	32682	
2994	0	32822	32836	
2995	0	32796	32826	
2996	0	32756	32756	
2997	0	32848	32798	
2998	0	32764	32719	
2999	0	32868	32670	
3000	0	32808	32683	
3001	0	32836	32832	
3002	0	32776	32808	
3003	0	32792	32798	
3004	0	32826	32864	
3005	0	32834	32766	
3006	0	32812	32708	
3007	0	32779	32750	
3008	0	32782	32830	
3009	0	32844	32811	
3010	0	32742	32738	
3011	0	32746	32742	
3012	0	32880	32812	
3013	0	32756	32719	
3014	0	32768	32630	
3015	0	32860	32672	
3016	0	32840	32838	
3017	0	32804	32743	
3018	0	32824	32721	
3019	0	32800	32624	
3020	0	32774	32658	
3021	0	32768	32872	
3022	0	32798	32794	
3023	0	32692	32774	
3024	0	32722	32663	
3025	0	32844	32836	
3026	0	32780	32754	
3027	0	32788	32775	
3028	0	32766	32766	
3029	0	32772	32767	
3030	0	32720	32764	
3031	0	32776	32775	
3032	0	32716	32720	
3033	0	32756	32775	
3034	0	32780	32772	
3035	0	32762	32676	
3036	0	32834	32652	
3037	0	32848	32680	
3038	0	32847	32862	
3039	0	32824	32750	
3040	0	32878	32870	
3041	0	32876	32876	
3042	0	32884	32836	
3043	0	32908	32895	
3044	0	32920	32926	
3045	0	32848	32964	
3046	0	32976	32979	
3047	0	33064	32903	
3048	0	32912	32886	
3049	0	32888	32822	
3050	0	32928	33020	
3051	0	32888	32884	
3052	0	32868	32988	
3053	0	32832	32868	
3054	0	32881	32844	
3055	0	32918	32879	
3056	0	32884	32830	
3057	0	32820	32791	
3058	0	32776	32693	
3059	0	32868	32666	
3060	0	32775	32672	
3061	0	32798	32702	
3062	0	32796	32775	
3063	0	32784	32568	
3064	0	32784	32702	
3065	0	32752	32638	
3066	0	32724	32735	
3067	0	32748	32712	
3068	0	32756	32632	
3069	0	32692	32647	
3070	0	32764	32639	
3071	0	32778	32610	
3072	0	32780	32730	
3073	0	32740	32743	
3074	0	32744	32855	
3075	0	32764	32682	
3076	0	32848	32658	
3077	0	32810	32758	
3078	0	32832	32775	
3079	0	32920	32812	
3080	0	32817	32724	
3081	0	32802	32728	
3082	0	32780	32740	
3083	0	32788	32980	
3084	0	32828	32775	
3085	0	32874	32832	
3086	0	32804	32756	
3087	0	32904	32736	
3088	0	32884	32850	
3089	0	32888	32775	
3090	0	32818	32684	
3091	0	32800	32716	
3092	0	32880	32612	
3093	0	32828	32622	
3094	0	32810	32812	
3095	0	32756	32774	
3096	0	32756	32823	
3097	0	32804	32800	
3098	0	32800	32794	
3099	0	32775	32838	
3100	0	32802	32824	
3101	0	32724	32860	
3102	0	32808	32768	
3103	0	32795	32724	
3104	0	32812	32711	
3105	0	32749	32804	
3106	0	32828	32762	
3107	0	32844	32828	
3108	0	32780	32881	
3109	0	32856	32750	
3110	0	32852	32774	
3111	0	32810	32798	
3112	0	32856	32734	
3113	0	32854	32826	
3114	0	32788	32687	
3115	0	32842	32814	
3116	0	32828	32735	
3117	0	32772	32775	
3118	0	32772	32718	
3119	0	32800	32708	
3120	0	32772	32730	
3121	0	32801	32820	
3122	0	32766	32790	
3123	0	32848	32910	
3124	0	32762	32910	
3125	0	32782	32770	
3126	0	32796	32838	
3127	0	32792	32838	
3128	0	32812	32700	
3129	0	32852	32710	
3130	0	32756	32736	
3131	0	32820	32724	
3132	0	32732	32775	
3133	0	32812	32812	
3134	0	32764	32860	
3135	0	32820	32902	
3136	0	32852	32730	
3137	0	32820	32788	
3138	0	32816	32726	
3139	0	32764	32728	
3140	0	32830	32658	
3141	0	32812	32764	
3142	0	32806	32688	
3143	0	32804	32688	
3144	0	32808	32719	
3145	0	32812	32848	
3146	0	32804	32775	
3147	0	32848	32874	
3148	0	32884	32692	
3149	0	32862	32826	
3150	0	32816	32878	
3151	0	32856	32812	
3152	0	32804	32786	
3153	0	32852	32710	
3154	0	32862	32580	
3155	0	32796	32678	
3156	0	32834	32844	
3157	0	32764	32758	
3158	0	32776	32743	
3159	0	32742	32696	
3160	0	32742	32604	
3161	0	32772	32702	
3162	0	32746	32640	
3163	0	32736	32740	
3164	0	32780	32680	
3165	0	32744	32718	
3166	0	32808	32764	
3167	0	32864	32772	
3168	0	32870	32998	
3169	0	32846	33034	
3170	0	32872	32951	
3171	0	32800	32903	
3172	0	32832	32836	
3173	0	32824	33094	
3174	0	32946	32938	
3175	0	32840	32892	
3176	0	32832	32775	
3177	0	32788	32698	
3178	0	32800	32674	
3179	0	32802	32629	
3180	0	32760	32536	
3181	0	32780	32526	
3182	0	32788	32564	
3183	0	32792	32586	
3184	0	32808	32577	
3185	0	32874	32474	
3186	0	32828	32591	
3187	0	32888	32504	
3188	0	32680	32460	
3189	0	32796	32670	
3190	0	32756	32670	
3191	0	32712	32666	
3192	0	32824	32730	
3193	0	32760	32622	
3194	0	32832	32647	
3195	0	32804	32710	
3196	0	32800	32766	
3197	0	32824	32916	
3198	0	32808	32954	
3199	0	32880	33022	
3200	0	32804	32903	
3201	0	32793	32996	
3202	0	32852	32852	
3203	0	32848	32994	
3204	0	32900	32912	
3205	0	32904	32732	
3206	0	32952	32926	
3207	0	32932	33070	
3208	0	32988	33077	
3209	0	32804	32879	
3210	0	32788	32914	
3211	0	32828	32825	
3212	0	32668	32876	
3213	0	32650	32862	
3214	0	32650	32692	
3215	0	32672	32624	
3216	0	32732	32676	
3217	0	32624	32644	
3218	0	32684	32604	
3219	0	32756	32614	
3220	0	32772	32664	
3221	0	32872	32806	
3222	0	32868	32620	
3223	0	32880	32686	
3224	0	32884	32740	
3225	0	32912	32628	
3226	0	32772	32822	
3227	0	32784	32932	
3228	0	32838	32904	
3229	0	32792	32768	
3230	0	32860	32748	
3231	0	32812	32652	
3232	0	32714	32743	
3233	0	32740	32734	
3234	0	32844	32804	
3235	0	32936	32920	
3236	0	32732	32876	
3237	0	32864	32716	
3238	0	33204	32808	
3239	0	33136	32712	
3240	0	32964	32816	
3241	0	32864	32762	
3242	0	32960	32590	
3243	0	32848	32551	
3244	0	32704	32580	
3245	0	32692	32741	
3246	0	32792	32760	
3247	0	32656	32790	
3248	0	32632	32738	
3249	0	32602	32823	
3250	0	32646	32775	
3251	0	32662	32743	
3252	0	32756	32642	
3253	0	32854	32664	
3254	0	32732	32804	
3255	0	32832	32750	
3256	0	32764	32879	
3257	0	32775	32736	
3258	0	32850	32686	
3259	0	32856	32840	
3260	0	32856	32874	
3261	0	32884	32763	
3262	0	32856	32762	
3263	0	32822	32803	
3264	0	32770	32790	
3265	0	32848	32758	
3266	0	32912	32764	
3267	0	32852	32688	
3268	0	32862	32727	
3269	0	32912	32642	
3270	0	32864	32612	
3271	0	32842	32676	
3272	0	32772	32720	
3273	0	32784	32708	
3274	0	32768	32647	
3275	0	32840	32719	
3276	0	32868	32810	
3277	0	32836	32810	
3278	0	32817	32876	
3279	0	32800	32900	
3280	0	32872	32842	
3281	0	32796	32790	
3282	0	32802	32944	
3283	0	32774	32846	
3284	0	32798	32799	
3285	0	32804	32890	
3286	0	32834	32724	
3287	0	32834	32845	
3288	0	32820	32858	
3289	0	32828	32860	
3290	0	32868	32868	
3291	0	32872	32865	
3292	0	32780	32820	
3293	0	32812	32818	
3294	0	32864	32888	
3295	0	32846	32818	
3296	0	32852	32856	
3297	0	32812	32903	
3298	0	32826	33004	
3299	0	32768	33044	
3300	0	32853	32894	
3301	0	32713	32818	
3302	0	32754	32824	
3303	0	32796	32748	
3304	0	32758	32612	
3305	0	32774	32544	
3306	0	32862	32574	
3307	0	32816	32727	
3308	0	32764	32772	
3309	0	32810	32756	
3310	0	32924	32698	
3311	0	33004	32794	
3312	0	32922	32839	
3313	0	32831	33002	
3314	0	32775	33068	
3315	0	32772	33190	
3316	0	32718	32884	
3317	0	32876	32704	
3318	0	32724	32576	
3319	0	32688	32596	
3320	0	32648	32462	
3321	0	32704	32353	
3322	0	32746	32263	
3323	0	32644	32292	
3324	0	32784	32334	
3325	0	32830	32476	
3326	0	32776	32562	
3327	0	32900	32428	
3328	0	32888	32540	
3329	0	32824	32644	
3330	0	32826	32594	
3331	0	32794	32713	
3332	0	32732	32807	
3333	0	32820	32914	
3334	0	32844	32966	
3335	0	32912	33026	
3336	0	33156	32935	
3337	0	33084	33014	
3338	0	32868	33150	
3339	0	32782	32974	
3340	0	32742	33024	
3341	0	32738	32976	
3342	0	32794	32818	
3343	0	32800	32930	
3344	0	32714	32870	
3345	0	32724	32948	
3346	0	32688	32926	
3347	0	32608	32922	
3348	0	32932	32906	
3349	0	33044	32768	
3350	0	33024	32796	
3351	0	33080	32646	
3352	0	33168	32666	
3353	0	32902	32710	
3354	0	32624	32836	
3355	0	32456	32750	
3356	0	32688	32622	
3357	0	32764	32720	
3358	0	32568	32615	
3359	0	32670	32556	
3360	0	32688	32680	
3361	0	32746	32696	
3362	0	32618	32799	
3363	0	32672	32770	
3364	0	32716	32742	
3365	0	32700	32766	
3366	0	32724	32750	
3367	0	32824	32884	
3368	0	32908	32818	
3369	0	32852	32756	
3370	0	32924	32750	
3371	0	32900	32768	
3372	0	32946	32647	
3373	0	32868	32632	
3374	0	32892	32752	
3375	0	32874	32743	
3376	0	32890	32708	
3377	0	32946	32798	
3378	0	32880	32910	
3379	0	32846	32895	
3380	0	32818	33014	
3381	0	32706	32868	
3382	0	32754	33020	
3383	0	32732	32920	
3384	0	33102	32828	
3385	0	33122	32686	
3386	0	32928	32636	
3387	0	32834	32548	
3388	0	32704	32678	
3389	0	32840	32628	
3390	0	32812	32628	
3391	0	32626	32564	
3392	0	32580	32470	
3393	0	32664	32555	
3394	0	32710	32564	
3395	0	32754	32846	
3396	0	32654	32990	
3397	0	32682	32868	
3398	0	32680	32690	
3399	0	32760	32686	
3400	0	32800	32657	
3401	0	32784	32608	
3402	0	32910	32652	
3403	0	32850	32647	
3404	0	32728	32618	
3405	0	32816	32580	
3406	0	32864	32478	
3407	0	32852	32596	
3408	0	32808	32600	
3409	0	32574	32846	
3410	0	33114	32992	
3411	0	33118	32988	
3412	0	33052	33248	
3413	0	33312	33287	
3414	0	32880	33189	
3415	0	32692	33150	
3416	0	32728	32960	
3417	0	32678	32775	
3418	0	32904	32775	
3419	0	32960	32748	
3420	0	32882	32632	
3421	0	32882	32625	
3422	0	32702	32727	
3423	0	32770	32576	
3424	0	32650	32572	
3425	0	32544	32444	
3426	0	32596	32562	
3427	0	32572	32616	
3428	0	32626	32626	
3429	0	32730	32622	
3430	0	32692	32532	
3431	0	32640	32494	
3432	0	32810	32743	
3433	0	32884	32668	
3434	0	32844	32822	
3435	0	32908	32972	
3436	0	32890	33166	
3437	0	32972	33122	
3438	0	33088	33184	
3439	0	33025	33136	
3440	0	32992	33010	
3441	0	33000	32956	
3442	0	32932	32876	
3443	0	32664	32624	
3444	0	32580	32782	
3445	0	32868	32655	
3446	0	32940	32580	
3447	0	32928	32524	
3448	0	32870	32388	
3449	0	32806	32408	
3450	0	32656	32492	
3451	0	32644	32654	
3452	0	32572	32604	
3453	0	32654	32570	
3454	0	32584	32706	
3455	0	32652	32720	
3456	0	32690	32544	
3457	0	32738	32774	
3458	0	32854	32834	
3459	0	32940	32878	
3460	0	32852	33000	
3461	0	32884	33067	
3462	0	32960	33118	
3463	0	32860	33075	
3464	0	32872	33268	
3465	0	32836	33198	
3466	0	32924	33112	
3467	0	32775	33111	
3468	0	32784	33103	
3469	0	33152	33098	
3470	0	33204	32957	
3471	0	33234	32954	
3472	0	32884	32772	
3473	0	32860	32726	
3474	0	32772	32839	
3475	0	32780	32574	
3476	0	32774	32550	
3477	0	32636	32586	
3478	0	32708	32620	
3479	0	32658	32639	
3480	0	32664	32465	
3481	0	32616	32337	
3482	0	32566	32342	
3483	0	32588	32310	
3484	0	32694	32366	
3485	0	32776	32516	
3486	0	32904	32612	
3487	0	32830	32678	
3488	0	33024	32674	
3489	0	32968	32635	
3490	0	32772	32670	
3491	0	32820	32764	
3492	0	32804	32848	
3493	0	32808	32896	
3494	0	32856	33156	
3495	0	32948	33187	
3496	0	33026	33180	
3497	0	33044	33198	
3498	0	33264	33082	
3499	0	33314	32900	
3500	0	33048	32888	
3501	0	32620	32766	
3502	0	32448	32687	
3503	0	32220	32714	
3504	0	32680	32784	
3505	0	32920	32775	
3506	0	32562	32724	
3507	0	32422	32750	
3508	0	32368	32666	
3509	0	32426	32724	
3510	0	32470	32598	
3511	0	32528	32519	
3512	0	32804	32566	
3513	0	32932	32543	
3514	0	32836	32598	
3515	0	32884	32820	
3516	0	33018	32762	
3517	0	33128	32798	
3518	0	33040	32913	
3519	0	32784	32946	
3520	0	32942	33280	
3521	0	32856	33272	
3522	0	32836	33186	
3523	0	32868	32974	
3524	0	33008	32852	
3525	0	32976	32703	
3526	0	32960	32519	
3527	0	32874	32364	
3528	0	32712	32374	
3529	0	32964	32368	
3530	0	33004	32451	
3531	0	32852	32401	
3532	0	32812	32420	
3533	0	32696	32400	
3534	0	32936	32641	
3535	0	32828	32670	
3536	0	32824	32822	
3537	0	32690	32688	
3538	0	32616	32750	
3539	0	32642	32783	
3540	0	32654	32892	
3541	0	32706	32815	
3542	0	32804	32907	
3543	0	32852	32922	
3544	0	32824	33070	
3545	0	32796	32968	
3546	0	32866	33028	
3547	0	32788	33031	
3548	0	32836	32998	
3549	0	32844	33000	
3550	0	32810	32938	
3551	0	32810	32844	
3552	0	32658	32974	
3553	0	32616	32910	
3554	0	32784	32858	
3555	0	32740	32926	
3556	0	33058	32848	
3557	0	33156	32862	
3558	0	33228	32770	
3559	0	33204	32762	
3560	0	32996	32840	
3561	0	32840	32564	
3562	0	32704	32542	
3563	0	32588	32614	
3564	0	32504	32678	
3565	0	32760	32640	
3566	0	32720	32730	
3567	0	32640	32661	
3568	0	32708	32582	
3569	0	32840	32506	
3570	0	32876	32374	
3571	0	32908	32426	
3572	0	32920	32587	
3573	0	32788	32598	
3574	0	32732	32546	
3575	0	32808	32546	
3576	0	32730	32526	
3577	0	32830	32647	
3578	0	32768	32622	
3579	0	32692	32576	
3580	0	32716	32815	
3581	0	32466	32724	
3582	0	32534	32788	
3583	0	32858	33132	
3584	0	33042	33135	
3585	0	32872	33237	
3586	0	32828	33287	
3587	0	32742	33310	
3588	0	32950	33311	
3589	0	33324	33142	
3590	0	33168	33118	
3591	0	33108	32972	
3592	0	32894	32886	
3593	0	33018	32846	
3594	0	32650	32638	
3595	0	32494	32409	
3596	0	32544	32316	
3597	0	32480	32216	
3598	0	32790	32156	
3599	0	33176	32309	
3600	0	32873	32332	
3601	0	32800	32472	
3602	0	32604	32526	
3603	0	32644	32598	
3604	0	32868	32908	
3605	0	32788	32903	
3606	0	33150	32828	
3607	0	33102	32890	
3608	0	32864	32977	
3609	0	32716	33042	
3610	0	32628	32982	
3611	0	32564	32956	
3612	0	32520	32922	
3613	0	32418	33168	
3614	0	32668	33287	
3615	0	32686	32958	
3616	0	32736	32792	
3617	0	32852	32673	
3618	0	32912	32487	
3619	0	32804	32412	
3620	0	32816	32380	
3621	0	33536	32391	
3622	0	33410	32664	
3623	0	33124	32722	
3624	0	32900	32790	
3625	0	32720	33031	
3626	0	32364	32992	
3627	0	32182	32767	
3628	0	32268	32732	
3629	0	32486	32710	
3630	0	33040	32535	
3631	0	32976	32518	
3632	0	32944	32364	
3633	0	33172	32364	
3634	0	33166	32767	
3635	0	33016	32934	
3636	0	32868	33127	
3637	0	32822	33046	
3638	0	32752	33110	
3639	0	32724	33016	
3640	0	32654	33022	
3641	0	32588	33076	
3642	0	32644	33040	
3643	0	32644	32966	
3644	0	32700	32810	
3645	0	32692	32580	
3646	0	32999	32436	
3647	0	32798	32482	
3648	0	32880	32442	
3649	0	32935	32478	
3650	0	32888	32540	
3651	0	32792	32900	
3652	0	32780	32990	
3653	0	32792	32943	
3654	0	32924	32994	
3655	0	32600	33028	
3656	0	32668	32970	
3657	0	33050	33100	
3658	0	33322	33060	
3659	0	33140	32898	
3660	0	33342	33112	
3661	0	33148	32962	
3662	0	32660	32546	
3663	0	32520	32446	
3664	0	32528	32544	
3665	0	32284	32460	
3666	0	32368	32580	
3667	0	33244	32756	
3668	0	33144	32868	
3669	0	32560	32590	
3670	0	32400	32694	
3671	0	32292	32750	
3672	0	32644	32770	
3673	0	32942	32834	
3674	0	33242	32676	
3675	0	33024	32647	
3676	0	32708	32488	
3677	0	32422	32468	
3678	0	32672	32468	
3679	0	33440	32680	
3680	0	33208	32775	
3681	0	32596	32876	
3682	0	32326	32972	
3683	0	33704	32924	
3684	0	33356	32868	
3685	0	33008	32766	
3686	0	32622	32604	
3687	0	32694	32640	
3688	0	33038	32546	
3689	0	32910	32422	
3690	0	32480	32572	
3691	0	32684	32472	
3692	0	32736	32594	
3693	0	32676	32738	
3694	0	32588	32852	
3695	0	32676	32768	
3696	0	32530	32738	
3697	0	32588	33022	
3698	0	32608	32870	
3699	0	32844	32967	
3700	0	32738	33100	
3701	0	32720	33084	
3702	0	32696	33112	
3703	0	32640	32958	
3704	0	33112	33008	
3705	0	33072	32863	
3706	0	32852	32732	
3707	0	32924	32618	
3708	0	32960	32436	
3709	0	32800	32698	
3710	0	32876	32696	
3711	0	32744	32500	
3712	0	32432	32466	
3713	0	33212	32842	
3714	0	33706	32994	
3715	0	33508	33158	
3716	0	32976	32876	
3717	0	32352	32706	
3718	0	32646	32630	
3719	0	32632	32444	
3720	0	32244	32700	
3721	0	32584	32678	
3722	0	32640	32662	
3723	0	32708	32756	
3724	0	32604	32598	
3725	0	32800	32608	
3726	0	32810	32583	
3727	0	32712	32606	
3728	0	32648	32840	
3729	0	32784	32932	
3730	0	33028	32973	
3731	0	32934	33052	
3732	0	32874	32948	
3733	0	32782	32992	
3734	0	32852	32874	
3735	0	33060	32942	
3736	0	32922	32918	
3737	0	32788	32867	
3738	0	32868	33159	
3739	0	32918	33126	
3740	0	32774	33190	
3741	0	32650	33184	
3742	0	32930	33102	
3743	0	32916	32928	
3744	0	32874	32770	
3745	0	32972	32716	
3746	0	33280	32455	
3747	0	33448	32308	
3748	0	33212	32282	
3749	0	32780	32254	
3750	0	32554	32272	
3751	0	32430	32252	
3752	0	32320	32118	
3753	0	32380	32039	
3754	0	32423	31920	
3755	0	32332	32212	
3756	0	32472	32698	
3757	0	32778	32958	
3758	0	32752	33130	
3759	0	32828	33364	
3760	0	32865	33283	
3761	0	32716	33208	
3762	0	32860	33095	
3763	0	33266	33174	
3764	0	33284	33040	
3765	0	33156	33095	
3766	0	33032	33104	
3767	0	32956	32864	
3768	0	32586	32689	
3769	0	32854	32566	
3770	0	32664	32532	
3771	0	32524	32596	
3772	0	32609	32582	
3773	0	32788	32670	
3774	0	33242	32670	
3775	0	32682	32670	
3776	0	32448	32870	
3777	0	32984	32948	
3778	0	32840	32972	
3779	0	33114	33118	
3780	0	33600	32832	
3781	0	32764	32684	
3782	0	32572	32958	
3783	0	32604	32884	
3784	0	32996	32967	
3785	0	32724	32790	
3786	0	32366	32423	
3787	0	32240	32336	
3788	0	32356	32290	
3789	0	32524	32512	
3790	0	32508	32676	
3791	0	32424	32872	
3792	0	32656	32810	
3793	0	32932	32732	
3794	0	33000	32814	
3795	0	33036	32744	
3796	0	33268	32960	
3797	0	33376	33080	
3798	0	32940	33098	
3799	0	33536	33216	
3800	0	33932	32998	
3801	0	32992	32772	
3802	0	32768	32640	
3803	0	32354	32340	
3804	0	31936	32222	
3805	0	32216	31988	
3806	0	32428	31958	
3807	0	32328	32116	
3808	0	32616	32224	
3809	0	32872	32442	
3810	0	32860	32630	
3811	0	32976	32756	
3812	0	32904	32702	
3813	0	32774	32934	
3814	0	32672	33042	
3815	0	32616	33392	
3816	0	32512	33366	
3817	0	32622	33316	
3818	0	32852	33119	
3819	0	32844	33050	
3820	0	32700	32932	
3821	0	33528	32760	
3822	0	33688	32724	
3823	0	33114	32810	
3824	0	32860	33062	
3825	0	32670	32892	
3826	0	32580	32754	
3827	0	32648	32760	
3828	0	32516	32812	
3829	0	32628	33031	
3830	0	32478	33030	
3831	0	32752	32858	
3832	0	32976	32694	
3833	0	32576	32775	
3834	0	32644	32836	
3835	0	33272	32654	
3836	0	34282	32591	
3837	0	33824	32620	
3838	0	33226	32743	
3839	0	33008	32934	
3840	0	32618	32958	
3841	0	32522	32988	
3842	0	32396	32924	
3843	0	32396	32895	
3844	0	32648	32694	
3845	0	32624	32583	
3846	0	32842	32594	
3847	0	32769	32644	
3848	0	32980	32724	
3849	0	32774	32618	
3850	0	32492	32404	
3851	0	32614	32462	
3852	0	33122	32602	
3853	0	32988	32654	
3854	0	33030	32556	
3855	0	32808	32702	
3856	0	32700	32959	
3857	0	32452	32996	
3858	0	32672	32920	
3859	0	32576	32960	
3860	0	32202	33088	
3861	0	32926	33008	
3862	0	32798	33066	
3863	0	32988	33128	
3864	0	33348	32862	
3865	0	33680	32672	
3866	0	32948	32620	
3867	0	32970	32738	
3868	0	32572	32732	
3869	0	32512	32529	
3870	0	32280	32596	
3871	0	32436	32650	
3872	0	32582	32556	
3873	0	32756	32602	
3874	0	32836	32720	
3875	0	32704	32660	
3876	0	32928	32556	
3877	0	32884	32828	
3878	0	32508	33102	
3879	0	32650	32990	
3880	0	32869	32692	
3881	0	32712	32698	
3882	0	32596	32472	
3883	0	32554	32512	
3884	0	33152	32647	
3885	0	33160	32626	
3886	0	32968	32615	
3887	0	33164	32830	
3888	0	33160	32900	
3889	0	33112	32804	
3890	0	33108	32775	
3891	0	33172	32726	
3892	0	32860	32610	
3893	0	32416	32358	
3894	0	32364	32360	
3895	0	32400	32404	
3896	0	32004	32354	
3897	0	31836	32610	
3898	0	33250	32842	
3899	0	33664	32807	
3900	0	33456	33038	
3901	0	32764	33392	
3902	0	33496	33690	
3903	0	33286	33799	
3904	0	32808	33415	
3905	0	32804	32994	
3906	0	32300	32884	
3907	0	32238	32736	
3908	0	32212	32466	
3909	0	32220	32234	
3910	0	32202	32072	
3911	0	32424	31969	
3912	0	32688	32004	
3913	0	32868	32207	
3914	0	32936	32360	
3915	0	32996	32388	
3916	0	33008	32596	
3917	0	33018	32679	
3918	0	32936	32786	
3919	0	33046	32948	
3920	0	33044	33022	
3921	0	32508	33272	
3922	0	33028	33202	
3923	0	33236	33356	
3924	0	33320	33844	
3925	0	33952	33888	
3926	0	34168	33690	
3927	0	32422	33316	
3928	0	32016	32775	
3929	0	32988	32532	
3930	0	32542	32216	
3931	0	32194	32038	
3932	0	32612	32070	
3933	0	32542	31911	
3934	0	33196	31958	
3935	0	32698	32316	
3936	0	32070	32449	
3937	0	32324	32662	
3938	0	32462	32794	
3939	0	32648	33018	
3940	0	32752	33188	
3941	0	33061	33494	
3942	0	32936	33199	
3943	0	32720	33100	
3944	0	32518	33192	
3945	0	32516	32788	
3946	0	32696	32386	
3947	0	32736	32351	
3948	0	32636	32496	
3949	0	33120	32839	
3950	0	32980	33112	
3951	0	33135	33214	
3952	0	33092	33214	
3953	0	33066	32908	
3954	0	32858	32634	
3955	0	32918	32439	
3956	0	33100	32064	
3957	0	32646	32007	
3958	0	32954	32084	
3959	0	32642	32204	
3960	0	33332	32418	
3961	0	33712	32856	
3962	0	32908	33028	
3963	0	32488	33060	
3964	0	32186	33031	
3965	0	32076	32985	
3966	0	32810	32938	
3967	0	33204	32852	
3968	0	33070	33255	
3969	0	32968	33628	
3970	0	33092	33580	
3971	0	32938	33268	
3972	0	32468	32708	
3973	0	32640	32358	
3974	0	32798	32615	
3975	0	33025	32288	
3976	0	32780	32150	
3977	0	32428	32134	
3978	0	32094	31984	
3979	0	32220	31982	
3980	0	32414	32143	
3981	0	32640	32288	
3982	0	32834	32252	
3983	0	33068	32578	
3984	0	33008	32772	
3985	0	32860	32784	
3986	0	32874	33044	
3987	0	32484	33392	
3988	0	32738	33927	
3989	0	33092	34062	
3990	0	33020	33956	
3991	0	34672	33764	
3992	0	34705	33512	
3993	0	34018	33210	
3994	0	32852	32938	
3995	0	32288	32892	
3996	0	31944	32928	
3997	0	31692	32794	
3998	0	32480	32260	
3999	0	32290	31788	
4000	0	31499	31574	
4001	0	31436	31772	
4002	0	31894	31726	
4003	0	32440	31958	
4004	0	32710	32478	
4005	0	32776	32868	
4006	0	32824	33527	
4007	0	32958	33399	
4008	0	33040	32988	
4009	0	32994	32994	
4010	0	33460	33094	
4011	0	33694	32932	
4012	0	34148	32706	
4013	0	33792	32580	
4014	0	33516	32888	
4015	0	33292	33064	
4016	0	32866	32655	
4017	0	32404	32698	
4018	0	32458	32967	
4019	0	32356	32528	
4020	0	32398	32128	
4021	0	32208	32074	
4022	0	32140	31996	
4023	0	31952	32036	
4024	0	33544	32298	
4025	0	34004	32444	
4026	0	33278	32636	
4027	0	33144	32639	
4028	0	33058	32850	
4029	0	33038	33002	
4030	0	32620	33258	
4031	0	32156	33372	
4032	0	31092	33248	
4033	0	31412	33166	
4034	0	32476	33428	
4035	0	32680	33592	
4036	0	32930	33634	
4037	0	33088	33768	
4038	0	33184	33726	
4039	0	33164	33287	
4040	0	32992	32926	
4041	0	33040	32609	
4042	0	33288	32614	
4043	0	33694	32902	
4044	0	34016	32592	
4045	0	33170	32186	
4046	0	33094	32359	
4047	0	33034	32370	
4048	0	32404	32134	
4049	0	32202	31784	
4050	0	32298	31894	
4051	0	32204	31901	
4052	0	32356	31854	
4053	0	32138	32319	
4054	0	32678	32348	
4055	0	33352	32444	
4056	0	33084	32860	
4057	0	33592	33184	
4058	0	33732	33038	
4059	0	32900	32768	
4060	0	32248	32718	
4061	0	32704	33014	
4062	0	32692	32959	
4063	0	32276	33026	
4064	0	32522	32946	
4065	0	32574	32814	
4066	0	32376	32968	
4067	0	32200	32998	
4068	0	33440	33018	
4069	0	33224	33110	
4070	0	32872	33095	
4071	0	33640	33160	
4072	0	33780	33402	
4073	0	33920	33424	
4074	0	33440	33560	
4075	0	32834	33758	
4076	0	32306	33714	
4077	0	32148	33652	
4078	0	31496	33162	
4079	0	31896	32604	
4080	0	32752	32484	
4081	0	32580	32079	
4082	0	32918	31980	
4083	0	32858	32006	
4084	0	32712	31495	
4085	0	32484	31254	
4086	0	32628	31122	
4087	0	32648	31362	
4088	0	32876	31862	
4089	0	33190	32007	
4090	0	32866	32582	
4091	0	32804	32498	
4092	0	33044	32516	
4093	0	32752	32668	
4094	0	32784	32900	
4095	0	32980	33140	
4096	0	33456	33340	
4097	0	33034	33466	
4098	0	32576	33494	
4099	0	32332	33508	
4100	0	32746	33596	
4101	0	32588	33664	
4102	0	32752	33742	
4103	0	32814	33562	
4104	0	33406	33556	
4105	0	33226	33696	
4106	0	32788	33622	
4107	0	33412	33542	
4108	0	33522	33326	
4109	0	32610	32878	
4110	0	32668	32558	
4111	0	32712	32332	
4112	0	32994	32140	
4113	0	33224	32076	
4114	0	33222	31898	
4115	0	32876	31988	
4116	0	32136	31988	
4117	0	32374	31958	
4118	0	32076	31812	
4119	0	32296	31713	
4120	0	32100	32060	
4121	0	32174	32580	
4122	0	32430	32993	
4123	0	32664	33102	
4124	0	32398	33026	
4125	0	32868	32852	
4126	0	33128	32999	
4127	0	33380	32894	
4128	0	33240	32838	
4129	0	33348	33020	
4130	0	34106	33078	
4131	0	32968	33364	
4132	0	32400	33818	
4133	0	33180	33783	
4134	0	33952	33214	
4135	0	33204	32752	
4136	0	32666	32384	
4137	0	33272	32286	
4138	0	32804	31906	
4139	0	31664	31696	
4140	0	32404	31888	
4141	0	32344	31884	
4142	0	31610	31904	
4143	0	32344	32256	
4144	0	32232	32856	
4145	0	32542	33526	
4146	0	32836	33255	
4147	0	32976	33252	
4148	0	33096	33166	
4149	0	33124	33310	
4150	0	33264	33186	
4151	0	33002	33302	
4152	0	32944	33156	
4153	0	33262	33140	
4154	0	33376	33126	
4155	0	33214	33128	
4156	0	32724	33078	
4157	0	33112	32646	
4158	0	33176	32372	
4159	0	32552	32407	
4160	0	33348	32478	
4161	0	32802	32460	
4162	0	33018	32318	
4163	0	32676	32334	
4164	0	32432	32519	
4165	0	32006	32434	
4166	0	32284	32654	
4167	0	31756	32796	
4168	0	31526	33112	
4169	0	32572	33100	
4170	0	33030	33188	
4171	0	33046	33282	
4172	0	33774	33514	
4173	0	34192	33713	
4174	0	33464	33510	
4175	0	33116	33287	
4176	0	32796	32618	
4177	0	32364	32150	
4178	0	31954	31951	
4179	0	32236	32080	
4180	0	32832	32097	
4181	0	32608	32298	
4182	0	32816	32313	
4183	0	32900	32383	
4184	0	32986	32768	
4185	0	33044	33142	
4186	0	33188	33070	
4187	0	33898	33191	
4188	0	33480	33156	
4189	0	33356	32976	
4190	0	33316	32880	
4191	0	33638	32608	
4192	0	33724	32351	
4193	0	31306	32030	
4194	0	31502	31908	
4195	0	31992	32263	
4196	0	32106	32562	
4197	0	31386	32474	
4198	0	32316	32700	
4199	0	32244	32536	
4200	0	32312	32175	
4201	0	33174	32334	
4202	0	33180	32720	
4203	0	33280	32966	
4204	0	33598	33020	
4205	0	33413	33064	
4206	0	32832	33208	
4207	0	32436	33322	
4208	0	32502	33564	
4209	0	32696	34250	
4210	0	32766	34462	
4211	0	32684	33830	
4212	0	33068	33415	
4213	0	33400	32944	
4214	0	33380	32544	
4215	0	33374	32452	
4216	0	32624	32146	
4217	0	32424	31780	
4218	0	34214	31516	
4219	0	33764	31362	
4220	0	32848	31468	
4221	0	32524	31698	
4222	0	32852	31892	
4223	0	32079	32560	
4224	0	31225	32566	
4225	0	32012	32636	
4226	0	32344	32874	
4227	0	32432	33383	
4228	0	32024	33852	
4229	0	32632	33948	
4230	0	33248	33708	
4231	0	33188	33470	
4232	0	33022	33388	
4233	0	32866	33063	
4234	0	32942	33255	
4235	0	33798	32948	
4236	0	33370	33124	
4237	0	33144	33174	
4238	0	33580	33081	
4239	0	33200	32804	
4240	0	33012	32519	
4241	0	32768	32190	
4242	0	32134	31914	
4243	0	32104	31712	
4244	0	32496	31729	
4245	0	32392	31974	
4246	0	32648	32172	
4247	0	32988	32624	
4248	0	32728	32775	
4249	0	32996	32814	
4250	0	32754	32852	
4251	0	32530	32972	
4252	0	33020	33040	
4253	0	33352	33743	
4254	0	33340	34592	
4255	0	33116	35192	
4256	0	32590	34436	
4257	0	32916	33860	
4258	0	31848	32902	
4259	0	33338	32238	
4260	0	33108	31836	
4261	0	32968	31612	
4262	0	33198	31508	
4263	0	33060	31486	
4264	0	33004	31350	
4265	0	33086	31548	
4266	0	32694	31694	
4267	0	32064	31704	
4268	0	31756	32206	
4269	0	32120	32524	
4270	0	32180	32836	
4271	0	32256	32903	
4272	0	32444	33055	
4273	0	32916	33135	
4274	0	32810	33428	
4275	0	33036	33401	
4276	0	32952	33606	
4277	0	33092	33696	
4278	0	32628	33814	
4279	0	33220	33922	
4280	0	33268	34224	
4281	0	34190	34816	
4282	0	33728	34594	
4283	0	33576	33826	
4284	0	32780	32633	
4285	0	32924	31964	
4286	0	33264	31426	
4287	0	32708	31150	
4288	0	32436	31190	
4289	0	32864	31672	
4290	0	33392	31707	
4291	0	32208	31860	
4292	0	31442	32052	
4293	0	31362	32204	
4294	0	31564	32984	
4295	0	31604	32726	
4296	0	32298	32182	
4297	0	32746	31751	
4298	0	32656	31844	
4299	0	32730	31864	
4300	0	33948	32270	
4301	0	33840	32885	
4302	0	33710	33286	
4303	0	33508	33748	
4304	0	33296	34206	
4305	0	32798	34004	
4306	0	32700	33287	
4307	0	32322	32924	
4308	0	32712	32624	
4309	0	33048	32250	
4310	0	32656	31940	
4311	0	32548	31654	
4312	0	32628	31534	
4313	0	32860	31532	
4314	0	32916	31946	
4315	0	32958	32284	
4316	0	32820	32775	
4317	0	32742	32968	
4318	0	32396	33287	
4319	0	32716	33602	
4320	0	33876	33850	
4321	0	33760	34192	
4322	0	33192	34220	
4323	0	32580	34095	
4324	0	32218	33927	
4325	0	31804	33616	
4326	0	31780	33248	
4327	0	32128	32806	
4328	0	32412	32376	
4329	0	32964	32132	
4330	0	33368	32194	
4331	0	33208	32314	
4332	0	33368	32534	
4333	0	33308	32464	
4334	0	33514	32472	
4335	0	32512	32576	
4336	0	32808	32734	
4337	0	32976	32803	
4338	0	33170	32743	
4339	0	32908	32966	
4340	0	32708	32949	
4341	0	32600	32988	
4342	0	32522	32866	
4343	0	32532	32960	
4344	0	33008	33014	
4345	0	32772	32918	
4346	0	32884	32886	
4347	0	32818	32702	
4348	0	32568	32572	
4349	0	32916	32399	
4350	0	32636	32424	
4351	0	32854	32502	
4352	0	33256	32726	
4353	0	33054	33374	
4354	0	32820	33724	
4355	0	32756	33634	
4356	0	32948	33498	
4357	0	33376	33182	
4358	0	32544	33127	
4359	0	33260	33128	
4360	0	33952	32854	
4361	0	32992	32384	
4362	0	32532	32016	
4363	0	32320	31794	
4364	0	32612	31548	
4365	0	32604	31324	
4366	0	33284	31380	
4367	0	32492	31634	
4368	0	32000	32044	
4369	0	32056	32304	
4370	0	31832	32556	
4371	0	31820	32718	
4372	0	31702	32977	
4373	0	32866	33348	
4374	0	32852	33236	
4375	0	32860	33271	
4376	0	33260	33343	
4377	0	32608	33655	
4378	0	33576	34222	
4379	0	34158	34922	
4380	0	34010	35548	
4381	0	32950	35206	
4382	0	32908	33798	
4383	0	32422	32326	
4384	0	32856	30917	
4385	0	32644	29804	
4386	0	33040	28896	
4387	0	32864	29236	
4388	0	32788	29750	
4389	0	32992	30208	
4390	0	33704	31188	
4391	0	32892	32092	
4392	0	32800	32888	
4393	0	32576	33644	
4394	0	31860	34420	
4395	0	32070	34212	
4396	0	32174	34384	
4397	0	32404	34922	
4398	0	32360	34724	
4399	0	32724	33864	
4400	0	32302	33414	
4401	0	32964	32934	
4402	0	33268	32830	
4403	0	33210	32642	
4404	0	33276	32474	
4405	0	33952	32686	
4406	0	33348	32622	
4407	0	33232	32886	
4408	0	32976	33234	
4409	0	33652	33354	
4410	0	33382	33754	
4411	0	33136	33616	
4412	0	32772	33274	
4413	0	32074	33360	
4414	0	31452	33204	
4415	0	31510	33512	
4416	0	31616	33352	
4417	0	31604	32785	
4418	0	32208	32188	
4419	0	32572	31460	
4420	0	33872	31262	
4421	0	34212	30996	
4422	0	34048	30970	
4423	0	33696	31414	
4424	0	32846	32038	
4425	0	32880	32542	
4426	0	32284	32775	
4427	0	32386	33124	
4428	0	32160	33255	
4429	0	32184	33207	
4430	0	32730	33102	
4431	0	33164	32686	
4432	0	33082	32388	
4433	0	33524	32466	
4434	0	33052	32692	
4435	0	33252	32784	
4436	0	33120	33177	
4437	0	32936	33318	
4438	0	32930	33384	
4439	0	32904	33236	
4440	0	32458	33326	
4441	0	32360	33536	
4442	0	32428	33410	
4443	0	32354	33268	
4444	0	32479	33236	
4445	0	32620	32952	
4446	0	32752	33167	
4447	0	33462	33660	
4448	0	33576	33922	
4449	0	33822	33374	
4450	0	33610	32854	
4451	0	33032	32318	
4452	0	32700	32262	
4453	0	31984	32014	
4454	0	31700	31738	
4455	0	32074	31148	
4456	0	32330	31024	
4457	0	32656	31297	
4458	0	33232	31732	
4459	0	32872	32718	
4460	0	33114	33044	
4461	0	33080	32768	
4462	0	32306	32120	
4463	0	33428	32044	
4464	0	33356	32602	
4465	0	33082	33310	
4466	0	32290	33425	
4467	0	32958	33452	
4468	0	33074	33516	
4469	0	32318	33256	
4470	0	32228	32704	
4471	0	32320	32772	
4472	0	32202	33370	
4473	0	32326	34250	
4474	0	32312	34892	
4475	0	32520	34276	
4476	0	32468	33844	
4477	0	32578	33436	
4478	0	33652	32519	
4479	0	33566	31466	
4480	0	33028	30596	
4481	0	33040	30214	
4482	0	34650	30068	
4483	0	33908	30378	
4484	0	33388	31126	
4485	0	32704	32006	
4486	0	31296	32752	
4487	0	31232	33506	
4488	0	31296	33956	
4489	0	32446	33814	
4490	0	32864	33816	
4491	0	32850	33703	
4492	0	33876	33496	
4493	0	33746	33402	
4494	0	33368	33936	
4495	0	32930	34022	
4496	0	33058	34278	
4497	0	32716	33884	
4498	0	32568	33126	
4499	0	31692	31970	
4500	0	31833	31450	
4501	0	32540	31382	
4502	0	32958	31655	
4503	0	33164	31606	
4504	0	32842	32079	
4505	0	32950	32609	
4506	0	32548	32604	
4507	0	32362	32490	
4508	0	32900	32578	
4509	0	32660	32751	
4510	0	32832	32644	
4511	0	33296	32732	
4512	0	33102	32971	
4513	0	32972	33156	
4514	0	33930	33694	
4515	0	33873	33504	
4516	0	33128	33517	
4517	0	34008	33744	
4518	0	33752	33484	
4519	0	32618	33135	
4520	0	32320	32862	
4521	0	31914	32690	
4522	0	31976	32602	
4523	0	32396	32546	
4524	0	32816	32591	
4525	0	32892	32576	
4526	0	32852	32620	
4527	0	32414	32578	
4528	0	32456	32772	
4529	0	32198	33104	
4530	0	32194	33303	
4531	0	33200	33260	
4532	0	33236	33250	
4533	0	32868	33006	
4534	0	32978	33224	
4535	0	32976	33320	
4536	0	33520	33494	
4537	0	33120	32606	
4538	0	32962	31676	
4539	0	33190	31512	
4540	0	32684	31612	
4541	0	32072	31751	
4542	0	32188	31884	
4543	0	32488	32060	
4544	0	32210	32680	
4545	0	32264	32796	
4546	0	33070	32642	
4547	0	33476	32444	
4548	0	33068	32465	
4549	0	33205	32594	
4550	0	33016	32234	
4551	0	32200	32223	
4552	0	32558	32306	
4553	0	32588	32332	
4554	0	32612	32996	
4555	0	32312	33652	
4556	0	33072	33944	
4557	0	33088	34088	
4558	0	32808	33671	
4559	0	33664	33156	
4560	0	32604	32792	
4561	0	34186	32444	
4562	0	33332	33208	
4563	0	32520	33600	
4564	0	31940	33560	
4565	0	31760	33168	
4566	0	31918	32551	
4567	0	32108	32527	
4568	0	32648	32583	
4569	0	32882	32423	
4570	0	32904	32020	
4571	0	32878	31952	
4572	0	32636	31604	
4573	0	32602	31406	
4574	0	33092	31380	
4575	0	34044	31624	
4576	0	33514	32020	
4577	0	34096	32222	
4578	0	34492	33252	
4579	0	34544	34102	
4580	0	32932	34652	
4581	0	31148	34169	
4582	0	31260	33758	
4583	0	31416	33570	
4584	0	31266	33391	
4585	0	31822	32913	
4586	0	33000	32540	
4587	0	33712	32380	
4588	0	33452	32252	
4589	0	33836	32428	
4590	0	33120	32428	
4591	0	32636	32772	
4592	0	32522	32494	
4593	0	32576	32071	
4594	0	33244	31815	
4595	0	33180	31812	
4596	0	32552	31918	
4597	0	33058	32606	
4598	0	33048	33044	
4599	0	33440	32764	
4600	0	33040	32634	
4601	0	33488	32682	
4602	0	33660	33204	
4603	0	32582	33336	
4604	0	31664	33152	
4605	0	30728	33122	
4606	0	31306	33230	
4607	0	31990	33350	
4608	0	32460	33574	
4609	0	32620	33486	
4610	0	33154	32964	
4611	0	33188	32679	
4612	0	33480	32460	
4613	0	33714	32294	
4614	0	33160	32464	
4615	0	32932	32632	
4616	0	33780	32804	
4617	0	34236	33414	
4618	0	33576	33456	
4619	0	33265	33586	
4620	0	33136	33798	
4621	0	32412	33156	
4622	0	32910	32512	
4623	0	33368	32199	
4624	0	32444	32576	
4625	0	31350	33122	
4626	0	31133	32815	
4627	0	30376	32240	
4628	0	31116	31419	
4629	0	32010	30802	
4630	0	32408	30823	
4631	0	32436	30890	
4632	0	33068	31286	
4633	0	33210	31658	
4634	0	33624	31995	
4635	0	33296	32354	
4636	0	33384	32792	
4637	0	33756	33586	
4638	0	33704	34080	
4639	0	33324	34388	
4640	0	32998	34149	
4641	0	32756	34432	
4642	0	33096	34151	
4643	0	32484	33604	
4644	0	33104	33408	
4645	0	33056	33724	
4646	0	32976	34374	
4647	0	32988	34634	
4648	0	32880	34641	
4649	0	33080	33728	
4650	0	34024	33060	
4651	0	33042	32606	
4652	0	32552	31296	
4653	0	32288	30324	
4654	0	32208	30064	
4655	0	32102	30251	
4656	0	32468	30874	
4657	0	33040	31225	
4658	0	32412	31438	
4659	0	33268	31770	
4660	0	32500	31950	
4661	0	32520	32378	
4662	0	32444	32700	
4663	0	32440	33092	
4664	0	32528	33084	
4665	0	32656	32762	
4666	0	32770	33310	
4667	0	32864	34688	
4668	0	33000	35403	
4669	0	33204	35614	
4670	0	32612	35620	
4671	0	33212	36148	
4672	0	33532	35318	
4673	0	33474	32954	
4674	0	32836	31332	
4675	0	32612	30452	
4676	0	32436	30336	
4677	0	32608	31282	
4678	0	33116	32038	
4679	0	32944	32134	
4680	0	32668	31572	
4681	0	32968	31764	
4682	0	33124	31814	
4683	0	33260	31972	
4684	0	33182	31910	
4685	0	33359	31880	
4686	0	31794	32152	
4687	0	32348	32135	
4688	0	33066	32084	
4689	0	32184	32316	
4690	0	32344	32620	
4691	0	32492	33044	
4692	0	32634	33228	
4693	0	32876	33572	
4694	0	32876	33574	
4695	0	32628	33386	
4696	0	32900	33676	
4697	0	33624	33718	
4698	0	33530	33799	
4699	0	32902	33679	
4700	0	32608	33474	
4701	0	32496	33496	
4702	0	32260	33543	
4703	0	32378	33354	
4704	0	32672	33312	
4705	0	32626	33080	
4706	0	32792	32724	
4707	0	32800	32543	
4708	0	32922	32675	
4709	0	32836	32572	
4710	0	32800	32606	
4711	0	32852	32312	
4712	0	32910	32340	
4713	0	32994	32378	
4714	0	32904	32528	
4715	0	32882	32772	
4716	0	33022	33054	
4717	0	32998	33342	
4718	0	33124	33598	
4719	0	32960	33152	
4720	0	32904	32866	
4721	0	32592	32746	
4722	0	32708	32423	
4723	0	32284	32400	
4724	0	32320	32418	
4725	0	32810	32508	
4726	0	33160	33306	
4727	0	33216	33310	
4728	0	33516	33210	
4729	0	32990	32849	
4730	0	32752	32818	
4731	0	32588	32032	
4732	0	32822	30854	
4733	0	32520	30282	
4734	0	32484	30511	
4735	0	32666	30878	
4736	0	32768	31308	
4737	0	32612	32212	
4738	0	32574	32580	
4739	0	32660	33214	
4740	0	32812	33358	
4741	0	32828	33850	
4742	0	32944	34140	
4743	0	33082	34152	
4744	0	33010	33822	
4745	0	32724	33132	
4746	0	32492	32720	
4747	0	33472	33084	
4748	0	33736	33743	
4749	0	33168	33780	
4750	0	33012	33512	
4751	0	32208	33536	
4752	0	32488	33702	
4753	0	32396	33940	
4754	0	32296	33916	
4755	0	32386	32900	
4756	0	32522	32250	
4757	0	33248	31478	
4758	0	32400	30312	
4759	0	32540	29900	
4760	0	32974	30254	
4761	0	32816	31040	
4762	0	32826	31376	
4763	0	32774	31734	
4764	0	32744	32111	
4765	0	32718	32964	
4766	0	32848	33532	
4767	0	32848	33709	
4768	0	32948	33722	
4769	0	32980	33666	
4770	0	32912	34239	
4771	0	32848	34252	
4772	0	32916	34110	
4773	0	32616	34040	
4774	0	32676	34282	
4775	0	32954	34414	
4776	0	33194	34608	
4777	0	32644	33868	
4778	0	33264	32414	
4779	0	33128	31842	
4780	0	32840	31588	
4781	0	32632	31516	
4782	0	32764	31302	
4783	0	32824	31260	
4784	0	32816	31312	
4785	0	32844	31980	
4786	0	32892	32540	
4787	0	32846	32368	
4788	0	32824	32326	
4789	0	32884	32764	
4790	0	32676	32900	
4791	0	32718	32824	
4792	0	32580	33503	
4793	0	32484	33830	
4794	0	32618	33532	
4795	0	32704	33471	
4796	0	32816	33126	
4797	0	32836	32972	
4798	0	32988	32986	
4799	0	33000	32796	
4800	0	32960	32453	
4801	0	32746	32230	
4802	0	32778	32144	
4803	0	32838	32288	
4804	0	32800	32416	
4805	0	32792	32876	
4806	0	32774	33130	
4807	0	32940	33516	
4808	0	32960	33476	
4809	0	32918	32924	
4810	0	33172	32624	
4811	0	32814	32452	
4812	0	33024	32420	
4813	0	33068	32214	
4814	0	32560	32022	
4815	0	32624	32116	
4816	0	32544	32350	
4817	0	32422	32654	
4818	0	32660	32562	
4819	0	32744	32391	
4820	0	32836	32820	
4821	0	32804	33228	
4822	0	32754	33190	
4823	0	32802	33441	
4824	0	32868	33814	
4825	0	32888	33327	
4826	0	32882	32930	
4827	0	32906	32834	
4828	0	32932	33042	
4829	0	32898	32775	
4830	0	32852	32740	
4831	0	32892	32850	
4832	0	32900	33182	
4833	0	32904	34106	
4834	0	32840	34804	
4835	0	32900	34296	
4836	0	33028	33404	
4837	0	33004	32199	
4838	0	32958	31615	
4839	0	33004	31508	
4840	0	32490	30832	
4841	0	32428	30348	
4842	0	32536	30343	
4843	0	32508	30136	
4844	0	32412	30564	
4845	0	32486	30946	
4846	0	32532	31620	
4847	0	32528	32400	
4848	0	32452	33212	
4849	0	32708	33646	
4850	0	32950	34100	
4851	0	32984	34575	
4852	0	33062	34694	
4853	0	33216	35062	
4854	0	33236	35398	
4855	0	33164	35559	
4856	0	33162	34600	
4857	0	32870	33799	
4858	0	32804	33444	
4859	0	32768	33095	
4860	0	32824	32220	
4861	0	32884	31700	
4862	0	32932	31550	
4863	0	33008	31159	
4864	0	32824	30842	
4865	0	32816	30532	
4866	0	32724	30904	
4867	0	32586	31436	
4868	0	32592	31726	
4869	0	32672	32086	
4870	0	32600	32414	
4871	0	32565	32806	
4872	0	32728	32888	
4873	0	32876	33198	
4874	0	32892	33508	
4875	0	32808	33834	
4876	0	32838	33719	
4877	0	32816	33607	
4878	0	32866	33570	
4879	0	33081	33510	
4880	0	32916	33591	
4881	0	32908	33496	
4882	0	33180	33460	
4883	0	33116	33212	
4884	0	33108	33064	
4885	0	32880	32942	
4886	0	32632	32948	
4887	0	32698	32866	
4888	0	32672	32711	
4889	0	32820	32724	
4890	0	32840	32508	
4891	0	32820	32304	
4892	0	32834	32462	
4893	0	32822	32354	
4894	0	32792	32148	
4895	0	32846	32455	
4896	0	32834	32487	
4897	0	32852	32456	
4898	0	32838	32594	
4899	0	32818	32586	
4900	0	32772	32722	
4901	0	32816	33044	
4902	0	32736	33156	
4903	0	32804	32972	
4904	0	32764	33062	
4905	0	32683	33386	
4906	0	32714	33372	
4907	0	32704	33342	
4908	0	32756	33502	
4909	0	32772	33624	
4910	0	32880	33278	
4911	0	32980	32497	
4912	0	32868	32794	
4913	0	32879	32986	
4914	0	32806	32362	
4915	0	32940	32510	
4916	0	33060	32292	
4917	0	32870	32346	
4918	0	32816	32001	
4919	0	32676	31808	
4920	0	32720	31458	
4921	0	32776	31326	
4922	0	32664	30980	
4923	0	32708	31319	
4924	0	32726	32040	
4925	0	32608	32592	
4926	0	32614	33031	
4927	0	32678	32660	
4928	0	32580	32712	
4929	0	32656	32820	
4930	0	32596	33022	
4931	0	32632	33270	
4932	0	32780	33232	
4933	0	32908	33360	
4934	0	32974	33424	
4935	0	33077	33236	
4936	0	32982	33028	
4937	0	32952	33473	
4938	0	32996	33758	
4939	0	32984	33920	
4940	0	32816	33428	
4941	0	32926	33133	
4942	0	33112	33396	
4943	0	32838	33300	
4944	0	32746	32773	
4945	0	32836	32398	
4946	0	32802	31615	
4947	0	32868	31751	
4948	0	32800	32630	
4949	0	32808	32932	
4950	0	32828	32695	
4951	0	32736	32504	
4952	0	32608	32478	
4953	0	32872	32326	
4954	0	32724	32882	
4955	0	32774	32824	
4956	0	32852	32668	
4957	0	32836	32514	
4958	0	32804	32352	
4959	0	32694	32110	
4960	0	32678	32135	
4961	0	32706	32294	
4962	0	32696	32540	
4963	0	32706	32604	
4964	0	32728	32814	
4965	0	32744	32928	
4966	0	32742	33220	
4967	0	32770	33201	
4968	0	32852	33194	
4969	0	33008	33226	
4970	0	32832	33220	
4971	0	32902	33198	
4972	0	32852	33382	
4973	0	32724	33415	
4974	0	32916	33358	
4975	0	32924	33406	
4976	0	32864	33318	
4977	0	32936	33282	
4978	0	32864	32890	
4979	0	32880	32692	
4980	0	32757	32662	
4981	0	32650	32954	
4982	0	32666	33396	
4983	0	32708	33136	
4984	0	32694	32538	
4985	0	32622	32220	
4986	0	32696	31623	
4987	0	32612	31156	
4988	0	32726	30823	
4989	0	32784	31082	
4990	0	32796	31256	
4991	0	32994	31687	
4992	0	33076	32102	
4993	0	33062	32788	
4994	0	32938	32652	
4995	0	32934	32982	
4996	0	32766	32978	
4997	0	32742	33130	
4998	0	32814	33287	
4999	0	32816	33218	
5000	0	32836	33132	
5001	0	32792	33472	
5002	0	32796	33518	
5003	0	32784	33846	
5004	0	32824	33880	
5005	0	32812	33366	
5006	0	32664	33031	
5007	0	32708	33004	
5008	0	32710	33220	
5009	0	32828	33010	
5010	0	32808	32892	
5011	0	32788	32603	
5012	0	32868	32512	
5013	0	32788	32218	
5014	0	32744	32322	
5015	0	32762	32372	
5016	0	32804	32578	
5017	0	32894	32834	
5018	0	33028	32704	
5019	0	33044	32263	
5020	0	33002	31590	
5021	0	32900	31800	
5022	0	32888	32344	
5023	0	32896	32596	
5024	0	32748	33143	
5025	0	32780	33415	
5026	0	32872	33347	
5027	0	32824	33066	
5028	0	32798	32942	
5029	0	32794	33108	
5030	0	32860	32967	
5031	0	32784	32862	
5032	0	32776	33002	
5033	0	32682	33388	
5034	0	32584	33052	
5035	0	32556	32838	
5036	0	32630	33031	
5037	0	32672	32862	
5038	0	32748	32564	
5039	0	32794	32148	
5040	0	32784	31972	
5041	0	32780	31712	
5042	0	32716	32100	
5043	0	32756	32038	
5044	0	32806	32084	
5045	0	32960	32326	
5046	0	32968	32478	
5047	0	32984	32634	
5048	0	32970	33169	
5049	0	32800	33586	
5050	0	32908	33430	
5051	0	33026	33620	
5052	0	32968	33836	
5053	0	32916	33678	
5054	0	32824	33490	
5055	0	32990	33180	
5056	0	32921	32884	
5057	0	32588	32716	
5058	0	32568	32692	
5059	0	32550	32512	
5060	0	32746	32518	
5061	0	32692	32455	
5062	0	32740	32596	
5063	0	32816	32508	
5064	0	32912	32748	
5065	0	32844	32788	
5066	0	32794	32828	
5067	0	32720	32790	
5068	0	32752	32775	
5069	0	32580	32994	
5070	0	32624	32775	
5071	0	32660	32743	
5072	0	32644	32362	
5073	0	32684	32206	
5074	0	32704	32140	
5075	0	32908	32340	
5076	0	32928	32286	
5077	0	32972	32207	
5078	0	32910	32391	
5079	0	32962	32821	
5080	0	32920	33066	
5081	0	32972	33540	
5082	0	33030	33415	
5083	0	33096	33559	
5084	0	33112	33468	
5085	0	32942	33662	
5086	0	32876	34124	
5087	0	32904	34247	
5088	0	32796	33686	
5089	0	32720	33104	
5090	0	32592	32760	
5091	0	32632	32054	
5092	0	32748	31222	
5093	0	32762	30812	
5094	0	32692	30898	
5095	0	32756	31172	
5096	0	32784	31163	
5097	0	32748	31442	
5098	0	32728	32342	
5099	0	32640	32775	
5100	0	32612	32752	
5101	0	32540	32884	
5102	0	32612	33208	
5103	0	32707	33060	
5104	0	32852	33398	
5105	0	32904	33386	
5106	0	32918	33278	
5107	0	32970	33088	
5108	0	32884	32821	
5109	0	32938	33060	
5110	0	32952	33220	
5111	0	32932	33598	
5112	0	32860	33688	
5113	0	32838	33911	
5114	0	32804	33626	
5115	0	32910	33676	
5116	0	32916	33170	
5117	0	32708	32727	
5118	0	32792	32466	
5119	0	32828	32286	
5120	0	32890	31969	
5121	0	32820	31982	
5122	0	32784	31802	
5123	0	32796	31950	
5124	0	32804	31866	
5125	0	32926	31772	
5126	0	32852	32206	
5127	0	32840	32564	
5128	0	32834	32812	
5129	0	32810	33090	
5130	0	32812	33112	
5131	0	32746	33136	
5132	0	32708	32874	
5133	0	32694	32708	
5134	0	32880	32744	
5135	0	32804	33004	
5136	0	32832	33024	
5137	0	32844	33134	
5138	0	32824	33089	
5139	0	32764	33243	
5140	0	32848	33304	
5141	0	32848	33326	
5142	0	32788	33244	
5143	0	32848	33169	
5144	0	32978	32978	
5145	0	32884	32868	
5146	0	32810	32871	
5147	0	32936	32940	
5148	0	32798	33084	
5149	0	32748	33126	
5150	0	32632	33130	
5151	0	32624	33010	
5152	0	32618	32710	
5153	0	32708	32280	
5154	0	32716	32166	
5155	0	32820	32234	
5156	0	32788	32060	
5157	0	32740	31978	
5158	0	32734	32016	
5159	0	32700	31942	
5160	0	32840	32044	
5161	0	32808	32224	
5162	0	32872	32562	
5163	0	32808	32648	
5164	0	32764	32862	
5165	0	32712	33084	
5166	0	32746	33132	
5167	0	32816	33020	
5168	0	32934	32946	
5169	0	33000	33026	
5170	0	33044	33394	
5171	0	32970	33607	
5172	0	32968	33750	
5173	0	32858	33815	
5174	0	32906	32986	
5175	0	32960	32412	
5176	0	32938	32490	
5177	0	32912	32760	
5178	0	32884	33320	
5179	0	32758	33240	
5180	0	32702	33121	
5181	0	32760	33110	
5182	0	32628	32840	
5183	0	32574	32584	
5184	0	32648	31751	
5185	0	32750	31138	
5186	0	32820	30982	
5187	0	32804	31100	
5188	0	32718	31604	
5189	0	32800	32104	
5190	0	32890	32886	
5191	0	32874	33582	
5192	0	32860	33703	
5193	0	32954	33600	
5194	0	32916	33596	
5195	0	32972	33222	
5196	0	32972	32718	
5197	0	32942	32310	
5198	0	32881	32408	
5199	0	32902	32127	
5200	0	32856	32084	
5201	0	32889	32372	
5202	0	32784	32948	
5203	0	32712	33030	
5204	0	32720	33148	
5205	0	32738	33286	
5206	0	32728	33113	
5207	0	32692	33300	
5208	0	32676	33188	
5209	0	32664	33010	
5210	0	32680	32583	
5211	0	32708	32596	
5212	0	32680	32628	
5213	0	32712	32622	
5214	0	32708	32752	
5215	0	32640	32678	
5216	0	32708	32705	
5217	0	32850	32620	
5218	0	32898	32748	
5219	0	32812	32966	
5220	0	32956	33098	
5221	0	33076	33164	
5222	0	33052	33208	
5223	0	32792	33094	
5224	0	32716	32850	
5225	0	32788	32898	
5226	0	32780	32990	
5227	0	32774	32922	
5228	0	32816	32932	
5229	0	32880	32938	
5230	0	32962	32942	
5231	0	32936	32839	
5232	0	32878	32696	
5233	0	32782	32764	
5234	0	32784	32678	
5235	0	32728	32551	
5236	0	32730	32782	
5237	0	32754	32826	
5238	0	32816	32748	
5239	0	32904	32458	
5240	0	32786	32300	
5241	0	32784	32261	
5242	0	32734	32192	
5243	0	32740	32421	
5244	0	32816	32698	
5245	0	32810	32764	
5246	0	32742	32974	
5247	0	32828	32978	
5248	0	32808	33126	
5249	0	32746	33236	
5250	0	32716	33146	
5251	0	32810	33108	
5252	0	32808	33049	
5253	0	32846	33048	
5254	0	32780	32988	
5255	0	32848	32840	
5256	0	32934	32726	
5257	0	32796	32724	
5258	0	32828	32508	
5259	0	32852	32560	
5260	0	32740	32487	
5261	0	32720	32298	
5262	0	32678	32478	
5263	0	32788	32858	
5264	0	32756	32992	
5265	0	32848	33313	
5266	0	32924	33233	
5267	0	32914	33612	
5268	0	32916	33699	
5269	0	32932	33056	
5270	0	32956	32400	
5271	0	32880	32220	
5272	0	32824	32594	
5273	0	32784	32607	
5274	0	32782	32900	
5275	0	32782	32610	
5276	0	32784	32204	
5277	0	32748	32006	
5278	0	32760	32054	
5279	0	32728	31632	
5280	0	32610	31520	
5281	0	32694	31494	
5282	0	32624	31868	
5283	0	32724	31960	
5284	0	32680	32514	
5285	0	32592	32800	
5286	0	32604	33172	
5287	0	32622	33156	
5288	0	32868	33300	
5289	0	32940	33412	
5290	0	32972	33340	
5291	0	33012	33342	
5292	0	32940	33532	
5293	0	32942	33503	
5294	0	32896	33364	
5295	0	32992	33140	
5296	0	32960	33187	
5297	0	32918	33082	
5298	0	33038	32735	
5299	0	32976	32512	
5300	0	32832	32380	
5301	0	32738	32240	
5302	0	32708	32580	
5303	0	32812	32710	
5304	0	32876	32615	
5305	0	32916	32600	
5306	0	32848	32540	
5307	0	32706	32662	
5308	0	32692	32962	
5309	0	32708	32906	
5310	0	32680	32986	
5311	0	32632	33084	
5312	0	32660	32908	
5313	0	32708	32946	
5314	0	32800	33014	
5315	0	32856	33056	
5316	0	32956	32887	
5317	0	32960	32831	
5318	0	32828	32737	
5319	0	32842	32670	
5320	0	32740	32631	
5321	0	32732	32734	
5322	0	32614	32696	
5323	0	32704	32820	
5324	0	32728	32814	
5325	0	32741	32682	
5326	0	32825	32848	
5327	0	32798	32808	
5328	0	32928	33092	
5329	0	32896	33106	
5330	0	32992	32960	
5331	0	32968	32616	
5332	0	33096	32342	
5333	0	32964	32390	
5334	0	32932	32506	
5335	0	32814	32511	
5336	0	32688	32558	
5337	0	32802	32713	
5338	0	32735	32696	
5339	0	32776	32730	
5340	0	32712	32954	
5341	0	32622	32924	
5342	0	32744	32874	
5343	0	32768	32728	
5344	0	32852	32548	
5345	0	32928	32436	
5346	0	32868	32597	
5347	0	32768	32840	
5348	0	32826	32983	
5349	0	32798	32874	
5350	0	32780	32826	
5351	0	32660	32598	
5352	0	32724	32418	
5353	0	32834	32516	
5354	0	32708	32612	
5355	0	32724	32886	
5356	0	32784	33150	
5357	0	32692	33088	
5358	0	32710	33124	
5359	0	32720	33022	
5360	0	32810	32962	
5361	0	32812	32899	
5362	0	32820	32689	
5363	0	32756	33004	
5364	0	32880	33208	
5365	0	32792	33448	
5366	0	32840	33058	
5367	0	32988	33022	
5368	0	33000	33498	
5369	0	33036	33364	
5370	0	32970	32688	
5371	0	32962	31956	
5372	0	32948	31674	
5373	0	32884	31466	
5374	0	32900	31528	
5375	0	32760	31612	
5376	0	32586	31879	
5377	0	32608	32007	
5378	0	32692	32076	
5379	0	32810	32394	
5380	0	32844	32687	
5381	0	32853	32604	
5382	0	32868	32764	
5383	0	32792	32996	
5384	0	32764	33168	
5385	0	32774	33204	
5386	0	32868	33334	
5387	0	32868	33159	
5388	0	33076	33048	
5389	0	32938	33062	
5390	0	32906	33136	
5391	0	32924	33223	
5392	0	32912	33194	
5393	0	32742	33031	
5394	0	32722	33191	
5395	0	32888	33114	
5396	0	32824	32954	
5397	0	32760	32770	
5398	0	32816	32524	
5399	0	32654	32514	
5400	0	32680	32564	
5401	0	32688	32618	
5402	0	32740	32818	
5403	0	32816	32820	
5404	0	32708	32694	
5405	0	32654	32762	
5406	0	32652	32764	
5407	0	32718	32852	
5408	0	32872	32663	
5409	0	32948	32658	
5410	0	32934	32732	
5411	0	32844	32647	
5412	0	32942	32742	
5413	0	32868	32769	
5414	0	32792	32788	
5415	0	32824	32798	
5416	0	32888	32846	
5417	0	32926	32842	
5418	0	32940	32647	
5419	0	32876	32536	
5420	0	32946	32709	
5421	0	33018	32838	
5422	0	32982	33028	
5423	0	32944	33210	
5424	0	32840	32734	
5425	0	32724	32524	
5426	0	32616	32647	
5427	0	32670	32494	
5428	0	32762	32434	
5429	0	32846	32668	
5430	0	32680	32932	
5431	0	32688	33112	
5432	0	32724	33204	
5433	0	32792	32932	
5434	0	32848	32868	
5435	0	32888	32944	
5436	0	32906	32924	
5437	0	32932	32726	
5438	0	32874	32758	
5439	0	32856	32820	
5440	0	32628	32852	
5441	0	32792	32710	
5442	0	32812	32614	
5443	0	32774	32586	
5444	0	32824	32694	
5445	0	32864	32565	
5446	0	32772	32578	
5447	0	32712	32568	
5448	0	32736	32496	
5449	0	32788	32700	
5450	0	32822	32798	
5451	0	32816	32760	
5452	0	32780	33092	
5453	0	32630	32935	
5454	0	32760	32772	
5455	0	32676	32554	
5456	0	32802	32750	
5457	0	32838	32775	
5458	0	32798	32671	
5459	0	32906	32714	
5460	0	32840	32746	
5461	0	32780	32748	
5462	0	32774	32802	
5463	0	32838	32686	
5464	0	32834	32614	
5465	0	32840	32758	
5466	0	32910	32827	
5467	0	32864	32828	
5468	0	32876	33028	
5469	0	32956	33066	
5470	0	32960	32944	
5471	0	32952	32869	
5472	0	32820	32686	
5473	0	32782	32772	
5474	0	32824	32775	
5475	0	32772	32666	
5476	0	32784	32807	
5477	0	32904	32984	
5478	0	32840	33176	
5479	0	32776	32974	
5480	0	32830	32708	
5481	0	32856	32502	
5482	0	32834	32530	
5483	0	32804	32464	
5484	0	32888	32308	
5485	0	32888	32263	
5486	0	32858	32460	
5487	0	32864	32583	
5488	0	32836	32646	
5489	0	32770	32748	
5490	0	32752	32710	
5491	0	32706	32902	
5492	0	32692	32868	
5493	0	32652	32704	
5494	0	32664	32930	
5495	0	32642	33116	
5496	0	32724	33001	
5497	0	32841	33138	
5498	0	32852	32948	
5499	0	32904	33082	
5500	0	32964	33144	
5501	0	32896	32840	
5502	0	32836	32590	
5503	0	32844	32262	
5504	0	32848	32276	
5505	0	32876	32647	
5506	0	32960	32584	
5507	0	32894	32670	
5508	0	32740	32878	
5509	0	32842	33014	
5510	0	32896	32980	
5511	0	32810	32595	
5512	0	32748	32719	
5513	0	32678	32839	
5514	0	32752	32856	
5515	0	32824	32792	
5516	0	32804	32711	
5517	0	32770	32964	
5518	0	32764	33000	
5519	0	32806	32960	
5520	0	32784	32870	
5521	0	32928	32590	
5522	0	32838	32460	
5523	0	32796	32564	
5524	0	32796	32542	
5525	0	32908	32772	
5526	0	32834	32802	
5527	0	32820	32810	
5528	0	32884	32700	
5529	0	32736	32718	
5530	0	32684	32668	
5531	0	32666	32362	
5532	0	32748	32222	
5533	0	32778	32495	
5534	0	32644	32657	
5535	0	32764	32911	
5536	0	32876	32879	
5537	0	32790	32728	
5538	0	32768	32886	
5539	0	32772	32719	
5540	0	32744	32647	
5541	0	32820	32655	
5542	0	32844	32814	
5543	0	32828	32839	
5544	0	32814	32886	
5545	0	32802	32946	
5546	0	32716	32876	
5547	0	32848	33031	
5548	0	32900	32934	
5549	0	32928	32794	
5550	0	32910	32818	
5551	0	32790	32795	
5552	0	32714	32818	
5553	0	32814	32775	
5554	0	32824	32936	
5555	0	32764	32828	
5556	0	32748	32830	
5557	0	32764	32737	
5558	0	32692	32480	
5559	0	32634	32454	
5560	0	32774	32506	
5561	0	32812	32738	
5562	0	32758	32644	
5563	0	32708	32678	
5564	0	32698	33016	
5565	0	32720	33138	
5566	0	32722	33154	
5567	0	32782	33238	
5568	0	32900	33120	
5569	0	32876	32740	
5570	0	32852	32830	
5571	0	32868	32974	
5572	0	32846	32909	
5573	0	32798	32839	
5574	0	32882	32806	
5575	0	32788	32704	
5576	0	32764	32536	
5577	0	32840	32860	
5578	0	32736	32616	
5579	0	32820	32588	
5580	0	32828	32606	
5581	0	32836	32478	
5582	0	32806	32556	
5583	0	32740	32820	
5584	0	32760	32892	
5585	0	32736	32732	
5586	0	32752	32775	
5587	0	32792	32700	
5588	0	32692	32818	
5589	0	32776	33053	
5590	0	32906	32734	
5591	0	32784	32638	
5592	0	32800	32562	
5593	0	32748	32703	
5594	0	32844	32886	
5595	0	32827	32924	
5596	0	32762	32935	
5597	0	32820	32963	
5598	0	32864	32763	
5599	0	32874	32708	
5600	0	32796	32698	
5601	0	32714	32788	
5602	0	32738	32660	
5603	0	32732	32650	
5604	0	32790	32550	
5605	0	32740	32638	
5606	0	32860	32646	
5607	0	32872	32805	
5608	0	32860	32948	
5609	0	32760	32914	
5610	0	32808	32807	
5611	0	32896	32682	
5612	0	32878	32748	
5613	0	32756	32654	
5614	0	33004	32642	
5615	0	32828	32618	
5616	0	32720	32827	
5617	0	32822	32704	
5618	0	32854	32714	
5619	0	32788	32736	
5620	0	32836	32868	
5621	0	32676	32804	
5622	0	32710	32802	
5623	0	32756	32676	
5624	0	32760	32770	
5625	0	32798	32775	
5626	0	32780	32845	
5627	0	32740	32788	
5628	0	32714	32946	
5629	0	32842	32842	
5630	0	32900	32514	
5631	0	32878	32580	
5632	0	32784	32843	
5633	0	32650	32760	
5634	0	32712	32834	
5635	0	32728	32703	
5636	0	32836	32612	
5637	0	32832	32686	
5638	0	32848	32806	
5639	0	32862	32686	
5640	0	32872	32774	
5641	0	32836	32738	
5642	0	32824	32967	
5643	0	32778	32960	
5644	0	32780	32910	
5645	0	32720	32865	
5646	0	32816	32828	
5647	0	32892	32898	
5648	0	32868	32876	
5649	0	32928	32852	
5650	0	32920	32754	
5651	0	32922	32814	
5652	0	32672	32870	
5653	0	32746	32775	
5654	0	32856	32765	
5655	0	32864	32814	
5656	0	32982	32902	
5657	0	32994	32682	
5658	0	32888	32786	
5659	0	32704	32756	
5660	0	32772	32849	
5661	0	32836	32830	
5662	0	32770	32871	
5663	0	32784	32770	
5664	0	32782	32662	
5665	0	32898	32750	
5666	0	32896	32748	
5667	0	32800	32666	
5668	0	32802	32724	
5669	0	32880	32634	
5670	0	32876	32551	
5671	0	32826	32590	
5672	0	32742	32868	
5673	0	32798	32878	
5674	0	32830	32826	
5675	0	32748	32820	
5676	0	32812	32928	
5677	0	32812	32884	
5678	0	32830	32839	
5679	0	32804	32854	
5680	0	32860	32908	
5681	0	32844	32738	
5682	0	32820	32862	
5683	0	32880	32878	
5684	0	32818	32847	
5685	0	32836	32772	
5686	0	32812	32775	
5687	0	32870	32663	
5688	0	32888	32704	
5689	0	32884	32688	
5690	0	32792	32552	
5691	0	32828	32600	
5692	0	32736	32708	
5693	0	32876	32638	
5694	0	32870	32620	
5695	0	32772	32704	
5696	0	32826	32762	
5697	0	32812	32692	
5698	0	32724	32775	
5699	0	32764	32791	
5700	0	32836	32740	
5701	0	32878	32762	
5702	0	32892	32832	
5703	0	32820	32618	
5704	0	32864	32858	
5705	0	32816	33082	
5706	0	32906	32930	
5707	0	32748	32828	
5708	0	32772	32758	
5709	0	32774	32762	
5710	0	32848	32810	
5711	0	32882	32700	
5712	0	32880	32684	
5713	0	32752	32684	
5714	0	32868	32678	
5715	0	32808	32662	
5716	0	32848	32732	
5717	0	32668	32647	
5718	0	32768	32656	
5719	0	32808	32751	
5720	0	32832	32736	
5721	0	32658	32843	
5722	0	32716	32737	
5723	0	32792	32676	
5724	0	32842	32576	
5725	0	32888	32647	
5726	0	32904	32710	
5727	0	32740	32870	
5728	0	32742	32932	
5729	0	32964	32974	
5730	0	33020	33028	
5731	0	33066	33236	
5732	0	32998	33191	
5733	0	32846	33050	
5734	0	32816	32878	
5735	0	32760	32806	
5736	0	32792	32614	
5737	0	32720	32441	
5738	0	32706	32287	
5739	0	32784	32310	
5740	0	32854	32289	
5741	0	32886	32360	
5742	0	32872	32519	
5743	0	32660	32488	
5744	0	32656	32512	
5745	0	32702	32754	
5746	0	32750	32890	
5747	0	32820	32927	
5748	0	32836	33014	
5749	0	32890	33008	
5750	0	32932	32812	
5751	0	32908	32794	
5752	0	32900	32807	
5753	0	32900	32924	
5754	0	32816	32908	
5755	0	32798	32926	
5756	0	32772	32932	
5757	0	32792	33054	
5758	0	32696	32966	
5759	0	32794	32690	
5760	0	32734	32566	
5761	0	32788	32806	
5762	0	32756	32766	
5763	0	32788	32758	
5764	0	32796	32770	
5765	0	32706	32751	
5766	0	32844	32616	
5767	0	32814	32790	
5768	0	32832	32668	
5769	0	32872	32719	
5770	0	32828	32823	
5771	0	32748	32852	
5772	0	32814	32624	
5773	0	32860	32644	
5774	0	32816	32724	
5775	0	32860	32676	
5776	0	32816	32560	
5777	0	32804	32688	
5778	0	32800	32860	
5779	0	32818	32846	
5780	0	32810	32716	
5781	0	32706	32711	
5782	0	32758	32855	
5783	0	32778	32824	
5784	0	32852	32810	
5785	0	32816	32789	
5786	0	32848	32748	
5787	0	32896	32772	
5788	0	32856	32871	
5789	0	32824	32986	
5790	0	32908	33031	
5791	0	32862	32816	
5792	0	32866	32772	
5793	0	32774	32820	
5794	0	32788	32752	
5795	0	32880	32682	
5796	0	32836	32742	
5797	0	32792	32558	
5798	0	32748	32668	
5799	0	32796	32680	
5800	0	32772	32590	
5801	0	32738	32652	
5802	0	32836	32971	
5803	0	32850	32658	
5804	0	32776	32502	
5805	0	32796	32700	
5806	0	32832	32775	
5807	0	32744	32600	
5808	0	32806	32740	
5809	0	32878	32828	
5810	0	32782	32870	
5811	0	32696	32886	
5812	0	32700	32846	
5813	0	32806	32743	
5814	0	33120	32866	
5815	0	32954	32900	
5816	0	32780	32830	
5817	0	32912	32896	
5818	0	32828	32848	
5819	0	32824	32795	
5820	0	32820	32666	
5821	0	32752	32602	
5822	0	32690	32624	
5823	0	32716	32775	
5824	0	32710	32756	
5825	0	32852	32726	
5826	0	32808	32762	
5827	0	32888	32614	
5828	0	32932	32700	
5829	0	32868	32664	
5830	0	32866	32630	
5831	0	32776	32821	
5832	0	32800	32775	
5833	0	32796	32650	
5834	0	32920	32756	
5835	0	33084	32704	
5836	0	33146	32724	
5837	0	33060	32775	
5838	0	32784	32922	
5839	0	32706	33041	
5840	0	32592	33150	
5841	0	32609	32983	
5842	0	32700	32839	
5843	0	32736	32830	
5844	0	32762	32754	
5845	0	32788	32726	
5846	0	32824	32702	
5847	0	32934	32631	
5848	0	32912	32583	
5849	0	32852	32627	
5850	0	32788	32592	
5851	0	32786	32486	
5852	0	32736	32614	
5853	0	32684	32941	
5854	0	32694	32764	
5855	0	32848	32830	
5856	0	32820	32820	
5857	0	32830	32759	
5858	0	32800	32702	
5859	0	32860	32855	
5860	0	32832	32864	
5861	0	32740	32874	
5862	0	32860	32886	
5863	0	32836	32878	
5864	0	32852	32686	
5865	0	32812	32756	
5866	0	32764	32772	
5867	0	32804	32948	
5868	0	32820	32828	
5869	0	32820	32766	
5870	0	32856	32686	
5871	0	32796	32608	
5872	0	32856	32694	
5873	0	32852	32816	
5874	0	32788	32824	
5875	0	32740	32840	
5876	0	32792	32948	
5877	0	32856	32896	
5878	0	32800	32800	
5879	0	32772	32790	
5880	0	32844	32780	
5881	0	32784	32806	
5882	0	32772	32728	
5883	0	32801	32664	
5884	0	32788	32660	
5885	0	32776	32668	
5886	0	32848	32806	
5887	0	32868	32763	
5888	0	32856	32615	
5889	0	32828	32676	
5890	0	32800	32800	
5891	0	32858	32759	
5892	0	32838	32767	
5893	0	32768	32887	
5894	0	32844	32736	
5895	0	32749	32722	
5896	0	32784	32798	
5897	0	32736	32782	
5898	0	32792	32770	
5899	0	32822	32734	
5900	0	32796	32712	
5901	0	32788	32746	
5902	0	32820	32824	
5903	0	32852	32748	
5904	0	32872	32716	
5905	0	32772	32864	
5906	0	32692	32943	
5907	0	32748	32878	
5908	0	32832	32807	
5909	0	32902	32858	
5910	0	32960	32810	
5911	0	32840	32696	
5912	0	32848	32632	
5913	0	32820	32756	
5914	0	32694	32714	
5915	0	32730	32628	
5916	0	32682	32519	
5917	0	32764	32644	
5918	0	32800	32496	
5919	0	32864	32263	
5920	0	32892	32482	
5921	0	32944	32920	
5922	0	33016	32766	
5923	0	32954	32756	
5924	0	32764	32744	
5925	0	32748	32796	
5926	0	32684	32995	
5927	0	32740	33084	
5928	0	32696	32990	
5929	0	32814	32888	
5930	0	32832	32922	
5931	0	32802	32828	
5932	0	32756	32888	
5933	0	32820	32832	
5934	0	32804	32898	
5935	0	32798	32970	
5936	0	32920	33146	
5937	0	32708	32986	
5938	0	32724	32942	
5939	0	32784	32974	
5940	0	32960	32906	
5941	0	32856	32788	
5942	0	32814	32647	
5943	0	32676	32666	
5944	0	32650	32574	
5945	0	32862	32519	
5946	0	32862	32468	
5947	0	32828	32503	
5948	0	32790	32652	
5949	0	32828	32743	
5950	0	32817	32702	
5951	0	32748	32903	
5952	0	32672	32870	
5953	0	32808	32786	
5954	0	32804	32762	
5955	0	32828	32728	
5956	0	32780	32742	
5957	0	32744	32646	
5958	0	32748	32556	
5959	0	32792	32666	
5960	0	32788	32756	
5961	0	32836	32892	
5962	0	32884	32890	
5963	0	32938	32876	
5964	0	32950	32854	
5965	0	32888	32770	
5966	0	32926	32887	
5967	0	32934	32788	
5968	0	32912	32688	
5969	0	32872	32628	
5970	0	32780	32508	
5971	0	32718	32722	
5972	0	32652	32575	
5973	0	32622	32534	
5974	0	32644	32574	
5975	0	32676	32550	
5976	0	32766	32583	
5977	0	32784	32596	
5978	0	32888	32583	
5979	0	32880	32575	
5980	0	32864	32606	
5981	0	32826	32710	
5982	0	32704	32796	
5983	0	32770	32740	
5984	0	32702	32935	
5985	0	32676	32910	
5986	0	32752	32839	
5987	0	32868	32874	
5988	0	32880	32824	
5989	0	32904	32874	
5990	0	33016	32870	
5991	0	32996	32890	
5992	0	32864	32856	
5993	0	32922	32855	
5994	0	32956	32806	
5995	0	32844	32859	
5996	0	32816	32887	
5997	0	32740	32870	
5998	0	32734	32896	
5999	0	32706	32838	
6000	0	32844	32772	
6001	0	32884	32775	
6002	0	32825	32824	
6003	0	32808	32868	
6004	0	32798	32816	
6005	0	32832	32840	
6006	0	32768	32868	
6007	0	32750	32839	
6008	0	32764	32774	
6009	0	32774	32714	
6010	0	32684	32696	
6011	0	32860	32607	
6012	0	32880	32588	
