# OpenSignals Text File Format. Version 1
# {"00:07:80:8C:0A:39": {"position": 0, "device": "biosignalsplux", "device name": "00:07:80:8C:0A:39", "device connection": "BTH00:07:80:8C:0A:39", "sampling rate": 1000, "resolution": [16, 16], "firmware version": 776, "comments": "", "keywords": "", "mode": 0, "sync interval": 2, "date": "2023-3-10", "time": "12:55:51.58", "channels": [1, 2], "sensor": ["EMG", "EMG"], "label": ["CH1", "CH2"], "column": ["nSeq", "DI", "CH1", "CH2"], "special": [{"SpO2": [80, 40, 5, 4, 3, 3]}, {"SpO2": [80, 40, 5, 4, 3, 3]}, {"SpO2": [80, 40, 5, 4, 3, 3]}, {"SpO2": [80, 40, 5, 4, 3, 3]}, {"SpO2": [80, 40, 5, 4, 3, 3]}, {"SpO2": [80, 40, 5, 4, 3, 3]}, {"SpO2": [80, 40, 5, 4, 3, 3]}, {"SpO2": [80, 40, 5, 4, 3, 3]}], "digital IO": [0, 1], "sleeve color": ["gray", "yellow"], "convertedValues": 0}}
# EndOfHeader
0	0	32802	32796	
1	0	32760	32688	
2	0	32832	32768	
3	0	32852	32764	
4	0	32842	32836	
5	0	32792	32720	
6	0	32778	32732	
7	0	32802	32734	
8	0	32784	32806	
9	0	32804	32654	
10	0	32804	32728	
11	0	32794	32824	
12	0	32764	32737	
13	0	32792	32820	
14	0	32812	32712	
15	0	32864	32728	
16	0	32856	32736	
17	0	32820	32788	
18	0	32790	32648	
19	0	32840	32768	
20	0	32862	32772	
21	0	32808	32758	
22	0	32788	32900	
23	0	32828	32708	
24	0	32768	32724	
25	0	32834	32802	
26	0	32725	32816	
27	0	32802	32772	
28	0	32828	32672	
29	0	32836	32744	
30	0	32868	32728	
31	0	32864	32948	
32	0	32784	32676	
33	0	32804	32780	
34	0	32824	32768	
35	0	32776	32766	
36	0	32852	32800	
37	0	32784	32714	
38	0	32792	32874	
39	0	32824	32742	
40	0	32828	32832	
41	0	32844	32730	
42	0	32872	32848	
43	0	32770	32670	
44	0	32802	32788	
45	0	32772	32748	
46	0	32840	32752	
47	0	32824	32760	
48	0	32792	32712	
49	0	32824	32836	
50	0	32820	32860	
51	0	32864	32718	
52	0	32792	32844	
53	0	32888	32804	
54	0	32844	32740	
55	0	32804	32740	
56	0	32832	32748	
57	0	32864	32768	
58	0	32834	32696	
59	0	32816	32806	
60	0	32764	32786	
61	0	32908	32896	
62	0	32856	32698	
63	0	32788	32820	
64	0	32836	32774	
65	0	32816	32756	
66	0	32872	32788	
67	0	32844	32704	
68	0	32824	32828	
69	0	32836	32816	
70	0	32796	32826	
71	0	32756	32878	
72	0	32720	32660	
73	0	32820	32804	
74	0	32848	32725	
75	0	32808	32752	
76	0	32794	32732	
77	0	32824	32876	
78	0	32814	32788	
79	0	32882	32788	
80	0	32806	32764	
81	0	32844	32650	
82	0	32816	32716	
83	0	32768	32798	
84	0	32732	32820	
85	0	32784	32796	
86	0	32816	32832	
87	0	32828	32740	
88	0	32868	32704	
89	0	32800	32760	
90	0	32712	32704	
91	0	32794	32784	
92	0	32790	32758	
93	0	32784	32760	
94	0	32816	32806	
95	0	32872	32726	
96	0	32852	32808	
97	0	32816	32704	
98	0	32800	32720	
99	0	32788	32849	
100	0	32792	32812	
101	0	32788	32794	
102	0	32774	32718	
103	0	32804	32740	
104	0	32836	32838	
105	0	32748	32740	
106	0	32784	32754	
107	0	32808	32732	
108	0	32852	32704	
109	0	32824	32792	
110	0	32800	32720	
111	0	32802	32796	
112	0	32768	32844	
113	0	32740	32692	
114	0	32880	32758	
115	0	32802	32798	
116	0	32820	32678	
117	0	32812	32708	
118	0	32800	32760	
119	0	32860	32794	
120	0	32768	32796	
121	0	32788	32712	
122	0	32792	32782	
123	0	32810	32762	
124	0	32816	32652	
125	0	32808	32900	
126	0	32816	32788	
127	0	32788	32820	
128	0	32780	32712	
129	0	32824	32780	
130	0	32766	32816	
131	0	32832	32778	
132	0	32820	32748	
133	0	32816	32772	
134	0	32796	32748	
135	0	32796	32680	
136	0	32878	32706	
137	0	32844	32784	
138	0	32888	32808	
139	0	32772	32778	
140	0	32864	32816	
141	0	32824	32820	
142	0	32832	32708	
143	0	32832	32801	
144	0	32764	32810	
145	0	32800	32848	
146	0	32796	32680	
147	0	32846	32792	
148	0	32868	32844	
149	0	32848	32768	
150	0	32816	32772	
151	0	32824	32748	
152	0	32804	32708	
153	0	32794	32794	
154	0	32808	32736	
155	0	32844	32784	
156	0	32800	32712	
157	0	32788	32796	
158	0	32842	32878	
159	0	32768	32752	
160	0	32834	32794	
161	0	32872	32820	
162	0	32752	32722	
163	0	32792	32780	
164	0	32796	32820	
165	0	32744	32852	
166	0	32792	32828	
167	0	32826	32744	
168	0	32800	32708	
169	0	32872	32816	
170	0	32872	32810	
171	0	32816	32766	
172	0	32802	32668	
173	0	32796	32774	
174	0	32888	32736	
175	0	32816	32822	
176	0	32832	32680	
177	0	32936	32740	
178	0	32812	32775	
179	0	32838	32798	
180	0	32840	32768	
181	0	32796	32775	
182	0	32816	32852	
183	0	32816	32724	
184	0	32820	32708	
185	0	32868	32834	
186	0	32720	32744	
187	0	32810	32868	
188	0	32784	32724	
189	0	32896	32732	
190	0	32800	32828	
191	0	32828	32774	
192	0	32840	32794	
193	0	32804	32764	
194	0	32776	32700	
195	0	32792	32778	
196	0	32836	32782	
197	0	32822	32728	
198	0	32828	32720	
199	0	32824	32780	
200	0	32864	32820	
201	0	32800	32816	
202	0	32788	32832	
203	0	32816	32796	
204	0	32848	32856	
205	0	32754	32638	
206	0	32816	32712	
207	0	32754	32852	
208	0	32856	32880	
209	0	32864	32650	
210	0	32844	32736	
211	0	32766	32798	
212	0	32800	32768	
213	0	32840	32672	
214	0	32772	32696	
215	0	32804	32700	
216	0	32802	32794	
217	0	32820	32644	
218	0	32824	32724	
219	0	32840	32842	
220	0	32832	32802	
221	0	32848	32772	
222	0	32808	32850	
223	0	32754	32740	
224	0	32828	32644	
225	0	32752	32788	
226	0	32852	32820	
227	0	32772	32850	
228	0	32792	32704	
229	0	32836	32840	
230	0	32780	32784	
231	0	32820	32780	
232	0	32802	32770	
233	0	32784	32640	
234	0	32792	32808	
235	0	32816	32732	
236	0	32836	32696	
237	0	32864	32764	
238	0	32856	32752	
239	0	32820	32824	
240	0	32832	32686	
241	0	32808	32752	
242	0	32776	32732	
243	0	32784	32802	
244	0	32804	32818	
245	0	32872	32716	
246	0	32764	32840	
247	0	32828	32764	
248	0	32740	32856	
249	0	32848	32672	
250	0	32800	32748	
251	0	32826	32864	
252	0	32836	32740	
253	0	32840	32780	
254	0	32884	32820	
255	0	32828	32724	
256	0	32866	32712	
257	0	32784	32826	
258	0	32816	32718	
259	0	32800	32768	
260	0	32788	32744	
261	0	32792	32746	
262	0	32824	32752	
263	0	32788	32846	
264	0	32824	32724	
265	0	32792	32804	
266	0	32796	32796	
267	0	32796	32774	
268	0	32812	32744	
269	0	32802	32736	
270	0	32788	32770	
271	0	32858	32706	
272	0	32764	32788	
273	0	32822	32714	
274	0	32816	32804	
275	0	32820	32740	
276	0	32828	32804	
277	0	32830	32786	
278	0	32810	32752	
279	0	32832	32764	
280	0	32828	32760	
281	0	32792	32880	
282	0	32848	32792	
283	0	32824	32782	
284	0	32780	32820	
285	0	32752	32780	
286	0	32866	32708	
287	0	32844	32780	
288	0	32776	32761	
289	0	32840	32764	
290	0	32800	32820	
291	0	32836	32746	
292	0	32784	32820	
293	0	32828	32712	
294	0	32892	32716	
295	0	32800	32716	
296	0	32896	32680	
297	0	32860	32788	
298	0	32800	32800	
299	0	32752	32832	
300	0	32768	32792	
301	0	32808	32778	
302	0	32792	32730	
303	0	32780	32768	
304	0	32796	32880	
305	0	32860	32732	
306	0	32810	32744	
307	0	32798	32808	
308	0	32824	32758	
309	0	32808	32836	
310	0	32800	32712	
311	0	32830	32726	
312	0	32824	32724	
313	0	32848	32716	
314	0	32804	32808	
315	0	32802	32684	
316	0	32850	32848	
317	0	32756	32744	
318	0	32794	32696	
319	0	32808	32740	
320	0	32808	32804	
321	0	32828	32688	
322	0	32848	32832	
323	0	32838	32756	
324	0	32848	32752	
325	0	32852	32834	
326	0	32780	32838	
327	0	32824	32696	
328	0	32824	32802	
329	0	32792	32804	
330	0	32776	32744	
331	0	32782	32770	
332	0	32784	32780	
333	0	32828	32716	
334	0	32804	32775	
335	0	32832	32810	
336	0	32734	32712	
337	0	32792	32760	
338	0	32840	32828	
339	0	32832	32702	
340	0	32776	32772	
341	0	32812	32850	
342	0	32892	32816	
343	0	32872	32814	
344	0	32752	32844	
345	0	32780	32628	
346	0	32814	32756	
347	0	32812	32784	
348	0	32800	32736	
349	0	32800	32826	
350	0	32832	32728	
351	0	32842	32775	
352	0	32860	32692	
353	0	32824	32768	
354	0	32856	32808	
355	0	32800	32726	
356	0	32788	32688	
357	0	32846	32786	
358	0	32796	32864	
359	0	32812	32706	
360	0	32812	32872	
361	0	32816	32780	
362	0	32740	32712	
363	0	32804	32796	
364	0	32776	32836	
365	0	32816	32772	
366	0	32872	32752	
367	0	32810	32788	
368	0	32772	32858	
369	0	32792	32704	
370	0	32768	32680	
371	0	32836	32792	
372	0	32808	32808	
373	0	32858	32736	
374	0	32832	32752	
375	0	32836	32748	
376	0	32800	32812	
377	0	32856	32748	
378	0	32808	32702	
379	0	32792	32774	
380	0	32808	32806	
381	0	32818	32714	
382	0	32744	32680	
383	0	32796	32746	
384	0	32808	32840	
385	0	32804	32844	
386	0	32776	32666	
387	0	32858	32780	
388	0	32848	32718	
389	0	32786	32774	
390	0	32824	32664	
391	0	32800	32810	
392	0	32808	32740	
393	0	32848	32840	
394	0	32808	32822	
395	0	32756	32672	
396	0	32868	32748	
397	0	32864	32792	
398	0	32794	32742	
399	0	32834	32748	
400	0	32816	32836	
401	0	32756	32708	
402	0	32756	32784	
403	0	32802	32870	
404	0	32840	32696	
405	0	32798	32780	
406	0	32820	32714	
407	0	32788	32832	
408	0	32808	32784	
409	0	32788	32768	
410	0	32838	32756	
411	0	32828	32760	
412	0	32800	32718	
413	0	32820	32756	
414	0	32864	32820	
415	0	32804	32786	
416	0	32802	32702	
417	0	32860	32768	
418	0	32812	32798	
419	0	32786	32676	
420	0	32764	32758	
421	0	32780	32800	
422	0	32740	32784	
423	0	32816	32780	
424	0	32816	32775	
425	0	32852	32812	
426	0	32792	32796	
427	0	32788	32852	
428	0	32820	32668	
429	0	32822	32816	
430	0	32800	32736	
431	0	32756	32692	
432	0	32794	32716	
433	0	32804	32696	
434	0	32824	32832	
435	0	32872	32738	
436	0	32828	32840	
437	0	32816	32744	
438	0	32868	32704	
439	0	32832	32812	
440	0	32832	32724	
441	0	32792	32844	
442	0	32750	32842	
443	0	32864	32688	
444	0	32828	32700	
445	0	32762	32788	
446	0	32846	32858	
447	0	32792	32874	
448	0	32798	32704	
449	0	32794	32686	
450	0	32888	32856	
451	0	32826	32752	
452	0	32842	32772	
453	0	32822	32688	
454	0	32794	32744	
455	0	32784	32774	
456	0	32848	32756	
457	0	32812	32708	
458	0	32776	32776	
459	0	32800	32852	
460	0	32780	32672	
461	0	32832	32832	
462	0	32846	32832	
463	0	32798	32806	
464	0	32744	32664	
465	0	32816	32872	
466	0	32780	32840	
467	0	32768	32864	
468	0	32804	32716	
469	0	32834	32746	
470	0	32756	32796	
471	0	32752	32824	
472	0	32884	32702	
473	0	32864	32800	
474	0	32840	32750	
475	0	32826	32746	
476	0	32910	32756	
477	0	32840	32724	
478	0	32844	32798	
479	0	32804	32740	
480	0	32788	32828	
481	0	32804	32696	
482	0	32772	32780	
483	0	32816	32804	
484	0	32840	32804	
485	0	32760	32684	
486	0	32804	32786	
487	0	32764	32832	
488	0	32834	32838	
489	0	32812	32758	
490	0	32748	32688	
491	0	32752	32720	
492	0	32874	32824	
493	0	32834	32664	
494	0	32900	32784	
495	0	32784	32802	
496	0	32860	32828	
497	0	32886	32688	
498	0	32848	32694	
499	0	32856	32788	
500	0	32818	32848	
501	0	32804	32680	
502	0	32832	32732	
503	0	32804	32772	
504	0	32816	32808	
505	0	32782	32754	
506	0	32770	32668	
507	0	32794	32752	
508	0	32768	32832	
509	0	32800	32834	
510	0	32822	32724	
511	0	32784	32772	
512	0	32862	32792	
513	0	32776	32846	
514	0	32884	32720	
515	0	32796	32728	
516	0	32856	32798	
517	0	32872	32775	
518	0	32864	32860	
519	0	32846	32732	
520	0	32820	32708	
521	0	32792	32746	
522	0	32796	32756	
523	0	32810	32816	
524	0	32840	32732	
525	0	32780	32686	
526	0	32832	32764	
527	0	32728	32868	
528	0	32760	32742	
529	0	32832	32780	
530	0	32896	32720	
531	0	32746	32702	
532	0	32736	32824	
533	0	32884	32729	
534	0	32740	32798	
535	0	32864	32736	
536	0	32858	32740	
537	0	32800	32806	
538	0	32844	32808	
539	0	32784	32772	
540	0	32788	32724	
541	0	32776	32796	
542	0	32840	32744	
543	0	32856	32784	
544	0	32824	32734	
545	0	32808	32816	
546	0	32792	32724	
547	0	32848	32792	
548	0	32840	32748	
549	0	32764	32836	
550	0	32804	32790	
551	0	32804	32788	
552	0	32792	32676	
553	0	32868	32782	
554	0	32860	32788	
555	0	32796	32788	
556	0	32816	32711	
557	0	32816	32752	
558	0	32786	32806	
559	0	32836	32804	
560	0	32764	32750	
561	0	32784	32648	
562	0	32802	32828	
563	0	32828	32834	
564	0	32848	32692	
565	0	32756	32820	
566	0	32832	32740	
567	0	32828	32804	
568	0	32868	32678	
569	0	32846	32820	
570	0	32794	32780	
571	0	32800	32676	
572	0	32860	32676	
573	0	32814	32764	
574	0	32760	32764	
575	0	32856	32660	
576	0	32820	32774	
577	0	32828	32774	
578	0	32828	32756	
579	0	32820	32740	
580	0	32822	32784	
581	0	32796	32804	
582	0	32808	32730	
583	0	32752	32824	
584	0	32756	32772	
585	0	32804	32760	
586	0	32864	32736	
587	0	32876	32868	
588	0	32768	32800	
589	0	32816	32724	
590	0	32778	32688	
591	0	32808	32786	
592	0	32764	32828	
593	0	32804	32812	
594	0	32780	32688	
595	0	32804	32776	
596	0	32856	32800	
597	0	32884	32804	
598	0	32864	32618	
599	0	32836	32834	
600	0	32844	32740	
601	0	32848	32760	
602	0	32784	32792	
603	0	32868	32862	
604	0	32804	32792	
605	0	32776	32796	
606	0	32812	32742	
607	0	32842	32712	
608	0	32728	32884	
609	0	32804	32668	
610	0	32744	32852	
611	0	32784	32730	
612	0	32822	32782	
613	0	32708	32696	
614	0	32792	32784	
615	0	32814	32804	
616	0	32800	32796	
617	0	32888	32804	
618	0	32850	32792	
619	0	32804	32710	
620	0	32826	32692	
621	0	32812	32774	
622	0	32832	32776	
623	0	32840	32836	
624	0	32794	32720	
625	0	32856	32842	
626	0	32770	32784	
627	0	32794	32796	
628	0	32784	32842	
629	0	32780	32674	
630	0	32740	32820	
631	0	32804	32804	
632	0	32792	32834	
633	0	32754	32730	
634	0	32868	32628	
635	0	32864	32814	
636	0	32784	32784	
637	0	32848	32836	
638	0	32868	32775	
639	0	32792	32756	
640	0	32842	32730	
641	0	32802	32770	
642	0	32840	32810	
643	0	32842	32896	
644	0	32744	32656	
645	0	32804	32692	
646	0	32802	32792	
647	0	32800	32724	
648	0	32816	32806	
649	0	32881	32816	
650	0	32776	32774	
651	0	32796	32664	
652	0	32816	32774	
653	0	32848	32732	
654	0	32794	32828	
655	0	32800	32716	
656	0	32852	32740	
657	0	32820	32764	
658	0	32822	32734	
659	0	32808	32808	
660	0	32772	32740	
661	0	32804	32760	
662	0	32804	32780	
663	0	32756	32742	
664	0	32832	32820	
665	0	32796	32846	
666	0	32732	32724	
667	0	32772	32844	
668	0	32808	32687	
669	0	32818	32844	
670	0	32768	32712	
671	0	32788	32712	
672	0	32740	32728	
673	0	32804	32820	
674	0	32836	32796	
675	0	32900	32638	
676	0	32832	32784	
677	0	32864	32784	
678	0	32756	32720	
679	0	32832	32700	
680	0	32764	32828	
681	0	32820	32850	
682	0	32816	32824	
683	0	32820	32704	
684	0	32740	32820	
685	0	32844	32760	
686	0	32824	32810	
687	0	32820	32660	
688	0	32796	32740	
689	0	32776	32804	
690	0	32810	32824	
691	0	32784	32792	
692	0	32816	32728	
693	0	32780	32756	
694	0	32748	32826	
695	0	32794	32634	
696	0	32760	32856	
697	0	32808	32732	
698	0	32804	32798	
699	0	32856	32704	
700	0	32768	32732	
701	0	32860	32770	
702	0	32752	32794	
703	0	32812	32775	
704	0	32804	32884	
705	0	32776	32712	
706	0	32828	32836	
707	0	32792	32806	
708	0	32837	32760	
709	0	32748	32704	
710	0	32858	32800	
711	0	32812	32816	
712	0	32872	32804	
713	0	32762	32682	
714	0	32750	32824	
715	0	32764	32704	
716	0	32816	32682	
717	0	32836	32696	
718	0	32860	32775	
719	0	32800	32820	
720	0	32832	32700	
721	0	32824	32814	
722	0	32820	32754	
723	0	32820	32820	
724	0	32814	32680	
725	0	32794	32714	
726	0	32784	32776	
727	0	32836	32780	
728	0	32808	32744	
729	0	32768	32856	
730	0	32826	32804	
731	0	32760	32696	
732	0	32792	32798	
733	0	32796	32774	
734	0	32828	32820	
735	0	32816	32676	
736	0	32840	32842	
737	0	32792	32734	
738	0	32856	32720	
739	0	32840	32850	
740	0	32800	32784	
741	0	32764	32792	
742	0	32788	32872	
743	0	32824	32736	
744	0	32802	32710	
745	0	32848	32782	
746	0	32762	32768	
747	0	32840	32870	
748	0	32800	32740	
749	0	32822	32774	
750	0	32810	32790	
751	0	32816	32796	
752	0	32824	32704	
753	0	32690	32764	
754	0	32840	32758	
755	0	32874	32724	
756	0	32872	32752	
757	0	32806	32700	
758	0	32816	32788	
759	0	32852	32724	
760	0	32788	32902	
761	0	32834	32634	
762	0	32796	32710	
763	0	32782	32792	
764	0	32848	32810	
765	0	32732	32696	
766	0	32852	32748	
767	0	32730	32780	
768	0	32800	32815	
769	0	32768	32736	
770	0	32812	32856	
771	0	32836	32742	
772	0	32856	32754	
773	0	32782	32768	
774	0	32850	32804	
775	0	32884	32792	
776	0	32840	32820	
777	0	32816	32734	
778	0	32828	32680	
779	0	32760	32836	
780	0	32874	32736	
781	0	32764	32828	
782	0	32800	32788	
783	0	32762	32708	
784	0	32788	32704	
785	0	32800	32732	
786	0	32828	32852	
787	0	32844	32780	
788	0	32804	32782	
789	0	32784	32824	
790	0	32796	32864	
791	0	32896	32722	
792	0	32812	32696	
793	0	32780	32810	
794	0	32828	32708	
795	0	32832	32792	
796	0	32786	32724	
797	0	32792	32724	
798	0	32760	32748	
799	0	32744	32780	
800	0	32716	32688	
801	0	32776	32774	
802	0	32740	32692	
803	0	32696	32758	
804	0	32624	32740	
805	0	32724	32740	
806	0	32736	32608	
807	0	32768	32646	
808	0	32736	32714	
809	0	32680	32732	
810	0	32800	32670	
811	0	32704	32672	
812	0	32664	32696	
813	0	32730	32652	
814	0	32772	32636	
815	0	32828	32706	
816	0	32820	32814	
817	0	32852	32736	
818	0	32852	32854	
819	0	32856	32824	
820	0	32848	32748	
821	0	32808	32752	
822	0	32808	32788	
823	0	32864	32832	
824	0	32832	32716	
825	0	32878	32864	
826	0	32938	32852	
827	0	32952	32816	
828	0	32976	32916	
829	0	33048	32918	
830	0	32984	33126	
831	0	33076	32932	
832	0	33072	32928	
833	0	32996	32936	
834	0	32936	32792	
835	0	32928	32800	
836	0	32948	32868	
837	0	32944	32860	
838	0	32962	32774	
839	0	32846	32894	
840	0	32818	32740	
841	0	32760	32774	
842	0	32704	32596	
843	0	32696	32730	
844	0	32706	32684	
845	0	32712	32732	
846	0	32640	32640	
847	0	32716	32632	
848	0	32736	32860	
849	0	32740	32710	
850	0	32724	32744	
851	0	32768	32692	
852	0	32760	32618	
853	0	32812	32756	
854	0	32708	32730	
855	0	32850	32780	
856	0	32828	32716	
857	0	32720	32746	
858	0	32772	32838	
859	0	32834	32720	
860	0	32800	32808	
861	0	32832	32856	
862	0	32836	32812	
863	0	32832	32742	
864	0	32800	32672	
865	0	32784	32698	
866	0	32754	32794	
867	0	32800	32714	
868	0	32816	32852	
869	0	32728	32804	
870	0	32808	32778	
871	0	32834	32696	
872	0	32764	32838	
873	0	32804	32708	
874	0	32816	32788	
875	0	32768	32812	
876	0	32852	32812	
877	0	32760	32700	
878	0	32812	32744	
879	0	32752	32682	
880	0	32864	32830	
881	0	32772	32720	
882	0	32776	32784	
883	0	32824	32788	
884	0	32892	32692	
885	0	32844	32740	
886	0	32788	32820	
887	0	32826	32808	
888	0	32826	32820	
889	0	32788	32792	
890	0	32840	32820	
891	0	32820	32774	
892	0	32780	32736	
893	0	32824	32792	
894	0	32776	32804	
895	0	32830	32680	
896	0	32772	32800	
897	0	32844	32688	
898	0	32789	32696	
899	0	32820	32744	
900	0	32800	32816	
901	0	32784	32688	
902	0	32800	32828	
903	0	32816	32792	
904	0	32838	32826	
905	0	32820	32678	
906	0	32768	32688	
907	0	32802	32796	
908	0	32800	32794	
909	0	32844	32700	
910	0	32814	32730	
911	0	32760	32828	
912	0	32802	32768	
913	0	32824	32800	
914	0	32808	32768	
915	0	32832	32720	
916	0	32808	32736	
917	0	32840	32768	
918	0	32764	32836	
919	0	32772	32818	
920	0	32802	32736	
921	0	32796	32804	
922	0	32852	32788	
923	0	32810	32860	
924	0	32826	32646	
925	0	32796	32774	
926	0	32754	32812	
927	0	32830	32828	
928	0	32816	32678	
929	0	32852	32770	
930	0	32858	32754	
931	0	32796	32756	
932	0	32788	32676	
933	0	32808	32812	
934	0	32776	32770	
935	0	32772	32612	
936	0	32792	32768	
937	0	32794	32748	
938	0	32784	32822	
939	0	32820	32732	
940	0	32816	32734	
941	0	32750	32740	
942	0	32860	32862	
943	0	32812	32704	
944	0	32800	32836	
945	0	32834	32784	
946	0	32844	32724	
947	0	32748	32822	
948	0	32794	32788	
949	0	32808	32768	
950	0	32844	32666	
951	0	32794	32732	
952	0	32798	32762	
953	0	32824	32736	
954	0	32704	32752	
955	0	32804	32850	
956	0	32848	32688	
957	0	32832	32712	
958	0	32824	32774	
959	0	32784	32778	
960	0	32792	32775	
961	0	32776	32698	
962	0	32794	32760	
963	0	32796	32788	
964	0	32784	32796	
965	0	32848	32736	
966	0	32820	32728	
967	0	32776	32812	
968	0	32848	32808	
969	0	32844	32748	
970	0	32776	32732	
971	0	32808	32768	
972	0	32852	32796	
973	0	32800	32698	
974	0	32812	32736	
975	0	32812	32758	
976	0	32820	32738	
977	0	32840	32748	
978	0	32762	32752	
979	0	32804	32804	
980	0	32794	32672	
981	0	32740	32848	
982	0	32872	32812	
983	0	32842	32774	
984	0	32846	32694	
985	0	32824	32780	
986	0	32828	32780	
987	0	32800	32768	
988	0	32740	32756	
989	0	32798	32756	
990	0	32772	32816	
991	0	32790	32704	
992	0	32832	32842	
993	0	32844	32808	
994	0	32834	32836	
995	0	32826	32696	
996	0	32836	32724	
997	0	32842	32832	
998	0	32868	32662	
999	0	32760	32820	
1000	0	32752	32752	
1001	0	32808	32812	
1002	0	32790	32770	
1003	0	32852	32772	
1004	0	32828	32782	
1005	0	32776	32772	
1006	0	32764	32708	
1007	0	32784	32782	
1008	0	32746	32820	
1009	0	32824	32732	
1010	0	32804	32796	
1011	0	32730	32756	
1012	0	32750	32784	
1013	0	32798	32768	
1014	0	32852	32796	
1015	0	32832	32836	
1016	0	32812	32702	
1017	0	32892	32720	
1018	0	32792	32724	
1019	0	32804	32788	
1020	0	32816	32750	
1021	0	32836	32714	
1022	0	32794	32774	
1023	0	32780	32802	
1024	0	32778	32760	
1025	0	32756	32708	
1026	0	32788	32752	
1027	0	32800	32832	
1028	0	32844	32758	
1029	0	32804	32700	
1030	0	32756	32770	
1031	0	32784	32876	
1032	0	32816	32736	
1033	0	32808	32840	
1034	0	32832	32788	
1035	0	32840	32694	
1036	0	32808	32762	
1037	0	32800	32794	
1038	0	32846	32772	
1039	0	32850	32684	
1040	0	32898	32746	
1041	0	32836	32736	
1042	0	32824	32820	
1043	0	32778	32742	
1044	0	32788	32688	
1045	0	32844	32712	
1046	0	32820	32780	
1047	0	32744	32810	
1048	0	32832	32772	
1049	0	32798	32775	
1050	0	32784	32708	
1051	0	32864	32750	
1052	0	32800	32786	
1053	0	32836	32784	
1054	0	32772	32690	
1055	0	32824	32828	
1056	0	32860	32760	
1057	0	32860	32730	
1058	0	32856	32714	
1059	0	32798	32792	
1060	0	32848	32794	
1061	0	32850	32732	
1062	0	32840	32792	
1063	0	32776	32796	
1064	0	32764	32672	
1065	0	32800	32808	
1066	0	32868	32768	
1067	0	32764	32862	
1068	0	32796	32812	
1069	0	32852	32732	
1070	0	32856	32748	
1071	0	32832	32808	
1072	0	32824	32798	
1073	0	32782	32816	
1074	0	32780	32738	
1075	0	32824	32888	
1076	0	32864	32648	
1077	0	32884	32678	
1078	0	32836	32788	
1079	0	32808	32792	
1080	0	32788	32802	
1081	0	32788	32748	
1082	0	32752	32744	
1083	0	32760	32870	
1084	0	32762	32738	
1085	0	32864	32788	
1086	0	32802	32716	
1087	0	32836	32816	
1088	0	32808	32814	
1089	0	32794	32900	
1090	0	32824	32678	
1091	0	32856	32784	
1092	0	32764	32792	
1093	0	32794	32712	
1094	0	32816	32808	
1095	0	32752	32708	
1096	0	32874	32764	
1097	0	32808	32764	
1098	0	32802	32740	
1099	0	32804	32732	
1100	0	32784	32786	
1101	0	32848	32708	
1102	0	32762	32680	
1103	0	32780	32784	
1104	0	32872	32788	
1105	0	32768	32775	
1106	0	32834	32696	
1107	0	32790	32828	
1108	0	32808	32732	
1109	0	32860	32816	
1110	0	32826	32784	
1111	0	32780	32784	
1112	0	32808	32816	
1113	0	32820	32732	
1114	0	32818	32740	
1115	0	32840	32792	
1116	0	32764	32740	
1117	0	32800	32712	
1118	0	32852	32798	
1119	0	32834	32830	
1120	0	32824	32680	
1121	0	32820	32740	
1122	0	32820	32808	
1123	0	32784	32730	
1124	0	32760	32758	
1125	0	32774	32780	
1126	0	32802	32714	
1127	0	32780	32700	
1128	0	32828	32816	
1129	0	32824	32808	
1130	0	32756	32682	
1131	0	32808	32822	
1132	0	32846	32652	
1133	0	32836	32862	
1134	0	32816	32704	
1135	0	32808	32688	
1136	0	32842	32828	
1137	0	32798	32824	
1138	0	32808	32632	
1139	0	32796	32772	
1140	0	32788	32775	
1141	0	32764	32804	
1142	0	32774	32644	
1143	0	32780	32724	
1144	0	32796	32824	
1145	0	32818	32820	
1146	0	32808	32668	
1147	0	32820	32856	
1148	0	32808	32752	
1149	0	32804	32784	
1150	0	32804	32720	
1151	0	32850	32756	
1152	0	32820	32752	
1153	0	32748	32740	
1154	0	32816	32712	
1155	0	32852	32804	
1156	0	32820	32754	
1157	0	32848	32804	
1158	0	32778	32768	
1159	0	32764	32752	
1160	0	32820	32768	
1161	0	32756	32660	
1162	0	32802	32772	
1163	0	32892	32788	
1164	0	32844	32664	
1165	0	32832	32808	
1166	0	32864	32736	
1167	0	32744	32806	
1168	0	32772	32688	
1169	0	32772	32844	
1170	0	32778	32742	
1171	0	32852	32804	
1172	0	32844	32800	
1173	0	32748	32820	
1174	0	32812	32688	
1175	0	32784	32760	
1176	0	32810	32788	
1177	0	32800	32692	
1178	0	32856	32712	
1179	0	32832	32832	
1180	0	32812	32682	
1181	0	32852	32808	
1182	0	32826	32844	
1183	0	32786	32704	
1184	0	32828	32756	
1185	0	32848	32775	
1186	0	32792	32676	
1187	0	32808	32774	
1188	0	32796	32884	
1189	0	32786	32676	
1190	0	32812	32796	
1191	0	32800	32752	
1192	0	32788	32732	
1193	0	32804	32736	
1194	0	32800	32800	
1195	0	32838	32784	
1196	0	32764	32660	
1197	0	32784	32740	
1198	0	32804	32824	
1199	0	32836	32712	
1200	0	32756	32810	
1201	0	32844	32822	
1202	0	32852	32720	
1203	0	32816	32775	
1204	0	32820	32688	
1205	0	32776	32816	
1206	0	32798	32800	
1207	0	32852	32775	
1208	0	32810	32772	
1209	0	32758	32804	
1210	0	32788	32672	
1211	0	32848	32816	
1212	0	32866	32828	
1213	0	32756	32732	
1214	0	32804	32812	
1215	0	32760	32780	
1216	0	32824	32736	
1217	0	32808	32676	
1218	0	32868	32804	
1219	0	32862	32798	
1220	0	32776	32775	
1221	0	32868	32840	
1222	0	32792	32852	
1223	0	32872	32802	
1224	0	32800	32816	
1225	0	32720	32702	
1226	0	32848	32738	
1227	0	32772	32696	
1228	0	32820	32808	
1229	0	32852	32800	
1230	0	32828	32770	
1231	0	32824	32856	
1232	0	32812	32690	
1233	0	32860	32640	
1234	0	32786	32676	
1235	0	32794	32770	
1236	0	32760	32790	
1237	0	32792	32826	
1238	0	32852	32760	
1239	0	32842	32804	
1240	0	32804	32682	
1241	0	32816	32820	
1242	0	32878	32882	
1243	0	32820	32836	
1244	0	32872	32714	
1245	0	32818	32844	
1246	0	32832	32764	
1247	0	32728	32816	
1248	0	32768	32730	
1249	0	32776	32812	
1250	0	32772	32816	
1251	0	32776	32714	
1252	0	32818	32804	
1253	0	32806	32720	
1254	0	32804	32728	
1255	0	32776	32692	
1256	0	32804	32760	
1257	0	32832	32834	
1258	0	32820	32684	
1259	0	32834	32810	
1260	0	32824	32752	
1261	0	32784	32790	
1262	0	32816	32732	
1263	0	32832	32704	
1264	0	32786	32744	
1265	0	32824	32742	
1266	0	32860	32820	
1267	0	32876	32812	
1268	0	32818	32700	
1269	0	32810	32814	
1270	0	32790	32708	
1271	0	32776	32676	
1272	0	32792	32818	
1273	0	32784	32808	
1274	0	32852	32660	
1275	0	32824	32824	
1276	0	32760	32828	
1277	0	32824	32724	
1278	0	32788	32720	
1279	0	32836	32812	
1280	0	32792	32808	
1281	0	32812	32696	
1282	0	32848	32722	
1283	0	32832	32870	
1284	0	32818	32798	
1285	0	32840	32794	
1286	0	32880	32696	
1287	0	32896	32664	
1288	0	32816	32820	
1289	0	32764	32808	
1290	0	32816	32680	
1291	0	32752	32676	
1292	0	32792	32796	
1293	0	32816	32808	
1294	0	32804	32764	
1295	0	32808	32728	
1296	0	32840	32752	
1297	0	32768	32775	
1298	0	32796	32734	
1299	0	32848	32816	
1300	0	32832	32728	
1301	0	32772	32820	
1302	0	32848	32692	
1303	0	32784	32776	
1304	0	32814	32784	
1305	0	32904	32760	
1306	0	32782	32800	
1307	0	32804	32772	
1308	0	32776	32854	
1309	0	32772	32718	
1310	0	32804	32730	
1311	0	32808	32744	
1312	0	32828	32792	
1313	0	32756	32704	
1314	0	32788	32708	
1315	0	32828	32774	
1316	0	32800	32774	
1317	0	32837	32672	
1318	0	32810	32766	
1319	0	32788	32804	
1320	0	32888	32748	
1321	0	32776	32658	
1322	0	32800	32848	
1323	0	32832	32780	
1324	0	32908	32780	
1325	0	32792	32824	
1326	0	32760	32816	
1327	0	32848	32792	
1328	0	32800	32828	
1329	0	32814	32684	
1330	0	32832	32824	
1331	0	32784	32824	
1332	0	32808	32840	
1333	0	32814	32702	
1334	0	32776	32684	
1335	0	32836	32720	
1336	0	32828	32808	
1337	0	32768	32728	
1338	0	32758	32656	
1339	0	32796	32768	
1340	0	32840	32784	
1341	0	32814	32728	
1342	0	32846	32794	
1343	0	32844	32830	
1344	0	32820	32726	
1345	0	32820	32844	
1346	0	32848	32850	
1347	0	32808	32820	
1348	0	32760	32692	
1349	0	32800	32832	
1350	0	32832	32796	
1351	0	32828	32712	
1352	0	32828	32720	
1353	0	32788	32752	
1354	0	32768	32824	
1355	0	32752	32696	
1356	0	32856	32728	
1357	0	32790	32734	
1358	0	32792	32838	
1359	0	32816	32672	
1360	0	32824	32684	
1361	0	32824	32808	
1362	0	32832	32808	
1363	0	32808	32796	
1364	0	32786	32660	
1365	0	32800	32736	
1366	0	32872	32868	
1367	0	32836	32775	
1368	0	32764	32740	
1369	0	32860	32844	
1370	0	32772	32708	
1371	0	32820	32660	
1372	0	32828	32814	
1373	0	32792	32800	
1374	0	32800	32796	
1375	0	32776	32712	
1376	0	32832	32824	
1377	0	32840	32814	
1378	0	32820	32804	
1379	0	32790	32815	
1380	0	32836	32720	
1381	0	32820	32712	
1382	0	32800	32916	
1383	0	32836	32736	
1384	0	32820	32748	
1385	0	32836	32864	
1386	0	32756	32696	
1387	0	32800	32760	
1388	0	32786	32780	
1389	0	32816	32732	
1390	0	32740	32870	
1391	0	32772	32800	
1392	0	32800	32706	
1393	0	32860	32832	
1394	0	32816	32719	
1395	0	32760	32792	
1396	0	32812	32698	
1397	0	32804	32708	
1398	0	32864	32804	
1399	0	32800	32768	
1400	0	32852	32788	
1401	0	32864	32728	
1402	0	32792	32894	
1403	0	32768	32760	
1404	0	32820	32838	
1405	0	32764	32666	
1406	0	32802	32844	
1407	0	32840	32736	
1408	0	32834	32758	
1409	0	32780	32736	
1410	0	32784	32712	
1411	0	32784	32708	
1412	0	32840	32692	
1413	0	32796	32772	
1414	0	32828	32832	
1415	0	32724	32688	
1416	0	32852	32740	
1417	0	32856	32780	
1418	0	32772	32834	
1419	0	32832	32726	
1420	0	32800	32772	
1421	0	32828	32764	
1422	0	32866	32712	
1423	0	32862	32830	
1424	0	32774	32728	
1425	0	32826	32802	
1426	0	32818	32648	
1427	0	32806	32726	
1428	0	32816	32852	
1429	0	32784	32760	
1430	0	32770	32802	
1431	0	32842	32624	
1432	0	32810	32720	
1433	0	32788	32846	
1434	0	32768	32904	
1435	0	32778	32746	
1436	0	32848	32684	
1437	0	32868	32740	
1438	0	32800	32816	
1439	0	32800	32650	
1440	0	32816	32784	
1441	0	32776	32730	
1442	0	32800	32780	
1443	0	32856	32688	
1444	0	32848	32788	
1445	0	32844	32768	
1446	0	32868	32860	
1447	0	32792	32652	
1448	0	32764	32714	
1449	0	32756	32752	
1450	0	32764	32808	
1451	0	32788	32646	
1452	0	32864	32742	
1453	0	32836	32776	
1454	0	32768	32792	
1455	0	32812	32746	
1456	0	32754	32740	
1457	0	32808	32718	
1458	0	32812	32704	
1459	0	32868	32800	
1460	0	32850	32764	
1461	0	32840	32776	
1462	0	32834	32696	
1463	0	32810	32772	
1464	0	32832	32812	
1465	0	32778	32712	
1466	0	32824	32742	
1467	0	32800	32832	
1468	0	32760	32832	
1469	0	32752	32788	
1470	0	32796	32716	
1471	0	32800	32804	
1472	0	32792	32748	
1473	0	32792	32796	
1474	0	32808	32720	
1475	0	32794	32680	
1476	0	32824	32794	
1477	0	32842	32778	
1478	0	32788	32816	
1479	0	32872	32794	
1480	0	32832	32720	
1481	0	32764	32764	
1482	0	32724	32828	
1483	0	32828	32804	
1484	0	32756	32836	
1485	0	32848	32816	
1486	0	32786	32748	
1487	0	32782	32820	
1488	0	32808	32732	
1489	0	32808	32696	
1490	0	32816	32828	
1491	0	32808	32768	
1492	0	32816	32768	
1493	0	32816	32740	
1494	0	32824	32864	
1495	0	32862	32772	
1496	0	32832	32672	
1497	0	32808	32690	
1498	0	32808	32796	
1499	0	32826	32836	
1500	0	32824	32742	
1501	0	32752	32758	
1502	0	32768	32840	
1503	0	32862	32828	
1504	0	32824	32800	
1505	0	32752	32780	
1506	0	32796	32716	
1507	0	32792	32764	
1508	0	32708	32782	
1509	0	32836	32748	
1510	0	32802	32788	
1511	0	32784	32740	
1512	0	32792	32802	
1513	0	32840	32720	
1514	0	32840	32762	
1515	0	32832	32798	
1516	0	32834	32814	
1517	0	32812	32724	
1518	0	32800	32644	
1519	0	32832	32684	
1520	0	32794	32860	
1521	0	32796	32756	
1522	0	32800	32768	
1523	0	32828	32706	
1524	0	32768	32808	
1525	0	32792	32842	
1526	0	32860	32816	
1527	0	32852	32828	
1528	0	32834	32748	
1529	0	32782	32682	
1530	0	32824	32802	
1531	0	32794	32844	
1532	0	32820	32834	
1533	0	32796	32884	
1534	0	32824	32768	
1535	0	32800	32774	
1536	0	32760	32828	
1537	0	32866	32724	
1538	0	32860	32704	
1539	0	32800	32780	
1540	0	32872	32738	
1541	0	32828	32872	
1542	0	32816	32696	
1543	0	32788	32744	
1544	0	32776	32804	
1545	0	32782	32764	
1546	0	32824	32688	
1547	0	32814	32824	
1548	0	32792	32818	
1549	0	32810	32782	
1550	0	32824	32700	
1551	0	32878	32740	
1552	0	32808	32784	
1553	0	32752	32808	
1554	0	32760	32676	
1555	0	32736	32712	
1556	0	32864	32758	
1557	0	32826	32760	
1558	0	32788	32718	
1559	0	32856	32748	
1560	0	32874	32812	
1561	0	32862	32838	
1562	0	32886	32812	
1563	0	32820	32746	
1564	0	32800	32716	
1565	0	32828	32744	
1566	0	32804	32804	
1567	0	32836	32702	
1568	0	32808	32712	
1569	0	32768	32774	
1570	0	32796	32810	
1571	0	32778	32744	
1572	0	32800	32768	
1573	0	32744	32654	
1574	0	32760	32808	
1575	0	32804	32821	
1576	0	32812	32820	
1577	0	32862	32718	
1578	0	32864	32756	
1579	0	32816	32800	
1580	0	32808	32804	
1581	0	32824	32762	
1582	0	32808	32740	
1583	0	32820	32786	
1584	0	32816	32830	
1585	0	32776	32756	
1586	0	32832	32682	
1587	0	32832	32786	
1588	0	32860	32804	
1589	0	32810	32660	
1590	0	32810	32766	
1591	0	32792	32810	
1592	0	32752	32764	
1593	0	32802	32696	
1594	0	32872	32736	
1595	0	32828	32740	
1596	0	32792	32744	
1597	0	32864	32664	
1598	0	32800	32744	
1599	0	32772	32772	
1600	0	32792	32746	
1601	0	32798	32776	
1602	0	32884	32728	
1603	0	32792	32774	
1604	0	32786	32804	
1605	0	32848	32726	
1606	0	32744	32776	
1607	0	32852	32832	
1608	0	32792	32724	
1609	0	32796	32804	
1610	0	32820	32816	
1611	0	32820	32694	
1612	0	32844	32804	
1613	0	32816	32718	
1614	0	32808	32820	
1615	0	32808	32764	
1616	0	32828	32708	
1617	0	32864	32806	
1618	0	32788	32686	
1619	0	32820	32816	
1620	0	32876	32696	
1621	0	32868	32810	
1622	0	32842	32780	
1623	0	32792	32724	
1624	0	32826	32692	
1625	0	32788	32804	
1626	0	32808	32830	
1627	0	32778	32696	
1628	0	32758	32810	
1629	0	32752	32768	
1630	0	32796	32770	
1631	0	32760	32716	
1632	0	32800	32670	
1633	0	32820	32764	
1634	0	32768	32756	
1635	0	32832	32768	
1636	0	32834	32680	
1637	0	32824	32820	
1638	0	32872	32744	
1639	0	32808	32808	
1640	0	32844	32694	
1641	0	32872	32604	
1642	0	32890	32784	
1643	0	32864	32710	
1644	0	32856	32802	
1645	0	32792	32786	
1646	0	32772	32862	
1647	0	32788	32892	
1648	0	32858	32769	
1649	0	32764	32832	
1650	0	32744	32828	
1651	0	32816	32834	
1652	0	32878	32728	
1653	0	32825	32772	
1654	0	32812	32784	
1655	0	32784	32768	
1656	0	32832	32810	
1657	0	32832	32720	
1658	0	32820	32800	
1659	0	32812	32658	
1660	0	32868	32648	
1661	0	32836	32774	
1662	0	32836	32748	
1663	0	32794	32680	
1664	0	32816	32686	
1665	0	32792	32725	
1666	0	32800	32860	
1667	0	32824	32688	
1668	0	32730	32800	
1669	0	32816	32750	
1670	0	32794	32810	
1671	0	32804	32804	
1672	0	32760	32754	
1673	0	32782	32880	
1674	0	32780	32760	
1675	0	32772	32820	
1676	0	32816	32646	
1677	0	32780	32582	
1678	0	32868	32672	
1679	0	32828	32710	
1680	0	32752	32640	
1681	0	32804	32740	
1682	0	32846	32940	
1683	0	32792	32912	
1684	0	32808	32960	
1685	0	32798	32804	
1686	0	32828	32852	
1687	0	32808	32808	
1688	0	32780	32760	
1689	0	32900	32708	
1690	0	32798	32856	
1691	0	32776	32770	
1692	0	32854	32840	
1693	0	32840	32744	
1694	0	32826	32692	
1695	0	32768	32764	
1696	0	32840	32752	
1697	0	32796	32702	
1698	0	32780	32612	
1699	0	32796	32770	
1700	0	32816	32700	
1701	0	32836	32806	
1702	0	32828	32760	
1703	0	32780	32840	
1704	0	32830	32790	
1705	0	32736	32768	
1706	0	32840	32690	
1707	0	32810	32720	
1708	0	32888	32720	
1709	0	32804	32670	
1710	0	32759	32676	
1711	0	32800	32792	
1712	0	32800	32764	
1713	0	32872	32654	
1714	0	32872	32840	
1715	0	32746	32814	
1716	0	32842	32812	
1717	0	32868	32744	
1718	0	32848	32884	
1719	0	32840	32864	
1720	0	32816	32775	
1721	0	32814	32868	
1722	0	32784	32672	
1723	0	32808	32780	
1724	0	32776	32764	
1725	0	32732	32800	
1726	0	32782	32706	
1727	0	32790	32756	
1728	0	32828	32772	
1729	0	32862	32846	
1730	0	32780	32884	
1731	0	32828	32820	
1732	0	32784	32790	
1733	0	32780	32784	
1734	0	32768	32740	
1735	0	32804	32800	
1736	0	32772	32500	
1737	0	32840	32680	
1738	0	32944	32726	
1739	0	32828	32994	
1740	0	32848	32820	
1741	0	32792	32896	
1742	0	32772	32744	
1743	0	32808	32728	
1744	0	32784	32640	
1745	0	32792	32844	
1746	0	32816	32720	
1747	0	32764	32712	
1748	0	32756	32804	
1749	0	32736	32836	
1750	0	32750	32896	
1751	0	32836	32636	
1752	0	32888	32696	
1753	0	32776	32556	
1754	0	32858	32580	
1755	0	32852	32504	
1756	0	32868	32744	
1757	0	32828	32800	
1758	0	32814	32892	
1759	0	32784	32848	
1760	0	32732	32772	
1761	0	32824	32916	
1762	0	32896	32876	
1763	0	32852	32932	
1764	0	32788	32828	
1765	0	32828	32828	
1766	0	32832	32906	
1767	0	32852	32824	
1768	0	32868	32768	
1769	0	32808	32848	
1770	0	32816	32740	
1771	0	32756	32662	
1772	0	32808	32654	
1773	0	32772	32752	
1774	0	32808	32796	
1775	0	32838	32696	
1776	0	32800	32800	
1777	0	32750	32712	
1778	0	32846	32664	
1779	0	32780	32666	
1780	0	32748	32744	
1781	0	32832	32792	
1782	0	32754	32738	
1783	0	32868	32672	
1784	0	32858	32792	
1785	0	32752	32796	
1786	0	32748	32792	
1787	0	32900	32724	
1788	0	32848	32814	
1789	0	32844	32852	
1790	0	32756	32760	
1791	0	32736	32770	
1792	0	32784	32700	
1793	0	32772	32792	
1794	0	32800	32648	
1795	0	32852	32636	
1796	0	32776	32702	
1797	0	32806	32576	
1798	0	32872	32650	
1799	0	32812	32708	
1800	0	32824	32732	
1801	0	32848	32818	
1802	0	32880	32860	
1803	0	32780	32980	
1804	0	32832	32902	
1805	0	32816	32862	
1806	0	32802	32884	
1807	0	32738	32540	
1808	0	32760	32744	
1809	0	32818	32684	
1810	0	32800	32668	
1811	0	32856	33030	
1812	0	32890	33106	
1813	0	32824	32980	
1814	0	32834	32880	
1815	0	32768	32818	
1816	0	32796	32758	
1817	0	32776	32694	
1818	0	32812	32634	
1819	0	32832	32600	
1820	0	32788	32496	
1821	0	32810	32712	
1822	0	32784	32688	
1823	0	32812	32694	
1824	0	32816	32306	
1825	0	32804	32284	
1826	0	32776	32374	
1827	0	32844	32682	
1828	0	32680	32816	
1829	0	32750	33102	
1830	0	32812	33440	
1831	0	32868	33392	
1832	0	32872	33336	
1833	0	32834	33100	
1834	0	32828	32864	
1835	0	32864	32524	
1836	0	32884	32566	
1837	0	32848	32812	
1838	0	32856	32796	
1839	0	32828	32790	
1840	0	32816	32564	
1841	0	32778	32648	
1842	0	32816	32664	
1843	0	32732	32556	
1844	0	32820	32544	
1845	0	32788	32580	
1846	0	32810	32638	
1847	0	32746	32680	
1848	0	32796	32860	
1849	0	32876	32724	
1850	0	32908	32744	
1851	0	32784	32736	
1852	0	32832	32748	
1853	0	32844	32936	
1854	0	32760	32930	
1855	0	32892	33040	
1856	0	32864	32912	
1857	0	32808	32828	
1858	0	32744	32616	
1859	0	32760	32608	
1860	0	32800	32702	
1861	0	32828	32832	
1862	0	32720	32704	
1863	0	32673	32452	
1864	0	32668	32386	
1865	0	32716	32572	
1866	0	32698	32760	
1867	0	32772	32970	
1868	0	32694	32954	
1869	0	32704	32936	
1870	0	32776	32902	
1871	0	32688	32798	
1872	0	32676	32764	
1873	0	32696	32692	
1874	0	32768	32636	
1875	0	32840	32768	
1876	0	32802	32592	
1877	0	32876	32638	
1878	0	32860	32614	
1879	0	32828	32990	
1880	0	32868	33028	
1881	0	32852	32716	
1882	0	32962	32652	
1883	0	32904	32864	
1884	0	32908	32758	
1885	0	32890	32700	
1886	0	32920	32720	
1887	0	32916	32806	
1888	0	32872	33004	
1889	0	32952	32890	
1890	0	32948	32920	
1891	0	32956	32932	
1892	0	32994	32744	
1893	0	33058	32812	
1894	0	32972	32775	
1895	0	33036	33140	
1896	0	32904	32958	
1897	0	32900	32736	
1898	0	32912	32728	
1899	0	32864	32612	
1900	0	32724	32924	
1901	0	32634	32664	
1902	0	32608	32252	
1903	0	32656	32286	
1904	0	32872	32564	
1905	0	32852	32736	
1906	0	32860	32632	
1907	0	32868	32640	
1908	0	32844	33290	
1909	0	32848	33396	
1910	0	32904	33410	
1911	0	32896	33076	
1912	0	32764	32642	
1913	0	32688	32792	
1914	0	32648	32793	
1915	0	32760	32256	
1916	0	32752	32140	
1917	0	32868	32030	
1918	0	32992	32268	
1919	0	32932	32496	
1920	0	32856	32680	
1921	0	32820	32960	
1922	0	32880	33466	
1923	0	32892	33712	
1924	0	32832	33660	
1925	0	32716	33100	
1926	0	32622	32692	
1927	0	32308	32614	
1928	0	32264	32510	
1929	0	32432	32468	
1930	0	32608	32704	
1931	0	32768	32552	
1932	0	32880	32348	
1933	0	32896	32272	
1934	0	32876	31984	
1935	0	32800	32188	
1936	0	32824	32604	
1937	0	32764	33212	
1938	0	32792	33752	
1939	0	32814	33144	
1940	0	32888	32896	
1941	0	32772	32718	
1942	0	32816	32722	
1943	0	32878	32828	
1944	0	32916	32700	
1945	0	32940	32642	
1946	0	32924	32452	
1947	0	32916	32716	
1948	0	32810	32888	
1949	0	32816	33130	
1950	0	32888	33144	
1951	0	32804	32908	
1952	0	32764	32640	
1953	0	32768	32518	
1954	0	32842	32360	
1955	0	32788	32068	
1956	0	32720	32128	
1957	0	32906	32160	
1958	0	33002	32136	
1959	0	32892	32620	
1960	0	32932	33320	
1961	0	33002	33682	
1962	0	32824	33792	
1963	0	32652	33488	
1964	0	32556	33084	
1965	0	32620	32548	
1966	0	32748	32136	
1967	0	32908	32380	
1968	0	32884	33002	
1969	0	32876	33730	
1970	0	32780	33888	
1971	0	32860	33576	
1972	0	32904	33276	
1973	0	32768	32572	
1974	0	32600	32072	
1975	0	32656	31692	
1976	0	32652	31540	
1977	0	32686	32010	
1978	0	32680	32552	
1979	0	32740	32944	
1980	0	32736	33240	
1981	0	32824	33236	
1982	0	32864	32898	
1983	0	32896	32644	
1984	0	32892	32756	
1985	0	32920	32932	
1986	0	32820	33118	
1987	0	32904	33020	
1988	0	32954	32672	
1989	0	32592	31856	
1990	0	32268	32014	
1991	0	32145	32370	
1992	0	32406	32602	
1993	0	32672	32544	
1994	0	33020	32602	
1995	0	33256	33300	
1996	0	33448	33720	
1997	0	33336	33692	
1998	0	33124	33204	
1999	0	32980	32904	
2000	0	33016	32584	
2001	0	33272	32328	
2002	0	33272	32564	
2003	0	33176	32630	
2004	0	33068	32644	
2005	0	32936	32042	
2006	0	32916	31252	
2007	0	32792	31520	
2008	0	32664	32048	
2009	0	32508	32422	
2010	0	32484	33228	
2011	0	32338	34352	
2012	0	32194	35340	
2013	0	32120	35144	
2014	0	32290	34112	
2015	0	32388	33126	
2016	0	32508	32468	
2017	0	32626	32030	
2018	0	32648	31980	
2019	0	32816	32224	
2020	0	33084	32734	
2021	0	33136	32208	
2022	0	33090	31822	
2023	0	32968	31992	
2024	0	32878	32328	
2025	0	32974	32634	
2026	0	32712	32668	
2027	0	32720	32626	
2028	0	32728	33162	
2029	0	32816	33680	
2030	0	33084	33320	
2031	0	33376	33102	
2032	0	33280	33078	
2033	0	33338	32590	
2034	0	33384	32140	
2035	0	33116	32352	
2036	0	32920	32264	
2037	0	32584	32638	
2038	0	32368	33340	
2039	0	32424	33508	
2040	0	32504	32548	
2041	0	32572	32212	
2042	0	32606	32472	
2043	0	32650	32312	
2044	0	32656	32808	
2045	0	32648	32906	
2046	0	32800	33332	
2047	0	32844	32924	
2048	0	32744	33088	
2049	0	32560	32820	
2050	0	32836	32352	
2051	0	32872	32164	
2052	0	33002	32616	
2053	0	33036	33080	
2054	0	32884	33228	
2055	0	32844	33452	
2056	0	32720	33320	
2057	0	32734	33264	
2058	0	32656	32760	
2059	0	32632	32672	
2060	0	32684	32672	
2061	0	32830	32194	
2062	0	32956	32028	
2063	0	33072	32106	
2064	0	33070	32512	
2065	0	32828	32872	
2066	0	32708	32560	
2067	0	32756	32092	
2068	0	32598	31996	
2069	0	32532	32312	
2070	0	32638	32488	
2071	0	32016	32724	
2072	0	32012	32704	
2073	0	32190	33292	
2074	0	32716	32920	
2075	0	33552	32872	
2076	0	33664	33372	
2077	0	33732	33728	
2078	0	33818	33668	
2079	0	33372	32834	
2080	0	33429	32868	
2081	0	33364	33188	
2082	0	32764	33448	
2083	0	32018	33412	
2084	0	31360	32696	
2085	0	31886	32212	
2086	0	32292	32036	
2087	0	32860	32038	
2088	0	33388	32756	
2089	0	33782	33112	
2090	0	34112	32812	
2091	0	34020	32982	
2092	0	33718	33122	
2093	0	33260	33312	
2094	0	33060	32898	
2095	0	32824	32330	
2096	0	32756	31970	
2097	0	32600	32036	
2098	0	32324	31988	
2099	0	32182	32782	
2100	0	32140	33308	
2101	0	31622	33460	
2102	0	31140	32784	
2103	0	31128	32845	
2104	0	31818	33162	
2105	0	32512	32896	
2106	0	32898	33108	
2107	0	33660	32916	
2108	0	33826	32492	
2109	0	33786	32232	
2110	0	33328	32260	
2111	0	32420	32344	
2112	0	32024	32148	
2113	0	32354	31482	
2114	0	32324	31230	
2115	0	32348	31750	
2116	0	31856	31912	
2117	0	30716	32834	
2118	0	31600	33162	
2119	0	32144	34016	
2120	0	33210	34420	
2121	0	34684	33924	
2122	0	36264	33264	
2123	0	36712	33000	
2124	0	35058	32866	
2125	0	33832	33000	
2126	0	34124	34372	
2127	0	33760	34656	
2128	0	33768	34466	
2129	0	33458	33380	
2130	0	33012	32584	
2131	0	32224	32254	
2132	0	31356	32268	
2133	0	30960	32296	
2134	0	30788	31956	
2135	0	30796	31410	
2136	0	31076	31680	
2137	0	31626	32148	
2138	0	31984	32560	
2139	0	32236	32128	
2140	0	32028	31472	
2141	0	31772	32008	
2142	0	32164	31878	
2143	0	32774	32532	
2144	0	33192	33256	
2145	0	33264	32480	
2146	0	33324	32552	
2147	0	32992	32522	
2148	0	33480	33332	
2149	0	34538	35096	
2150	0	34860	34506	
2151	0	34832	33596	
2152	0	34240	33600	
2153	0	33592	33084	
2154	0	32826	32288	
2155	0	32474	31560	
2156	0	32212	31018	
2157	0	32056	31062	
2158	0	32024	33108	
2159	0	32096	34238	
2160	0	32334	33860	
2161	0	32368	32764	
2162	0	32596	31734	
2163	0	32600	32032	
2164	0	32584	33268	
2165	0	32820	33034	
2166	0	32738	33254	
2167	0	32676	33482	
2168	0	32732	33212	
2169	0	32810	33420	
2170	0	32860	33820	
2171	0	32726	32510	
2172	0	32680	31032	
2173	0	32760	30348	
2174	0	32632	30193	
2175	0	32260	31562	
2176	0	32428	32390	
2177	0	32840	33450	
2178	0	33064	34560	
2179	0	33360	35248	
2180	0	33080	35594	
2181	0	33364	34548	
2182	0	33680	33088	
2183	0	33300	31648	
2184	0	32892	31420	
2185	0	32344	31376	
2186	0	31842	31288	
2187	0	32480	30980	
2188	0	32260	31324	
2189	0	32784	33608	
2190	0	33458	34504	
2191	0	33556	34306	
2192	0	33348	32920	
2193	0	33036	32104	
2194	0	32820	31468	
2195	0	32614	31936	
2196	0	32324	33224	
2197	0	32244	34372	
2198	0	32608	33960	
2199	0	32760	32490	
2200	0	32544	32208	
2201	0	32828	32510	
2202	0	33008	33680	
2203	0	33020	33924	
2204	0	32802	33128	
2205	0	33336	33784	
2206	0	32914	33300	
2207	0	31944	32446	
2208	0	30556	33128	
2209	0	31012	32248	
2210	0	32932	31300	
2211	0	34728	31256	
2212	0	35530	31940	
2213	0	35212	32484	
2214	0	34680	33312	
2215	0	34084	32052	
2216	0	33768	30080	
2217	0	33184	29156	
2218	0	32464	30848	
2219	0	31530	34136	
2220	0	30456	35304	
2221	0	30526	35530	
2222	0	31346	34860	
2223	0	32064	34388	
2224	0	33132	33640	
2225	0	33448	32726	
2226	0	32324	33824	
2227	0	31856	34138	
2228	0	32212	33648	
2229	0	32864	32132	
2230	0	32940	31072	
2231	0	33280	31312	
2232	0	32578	32276	
2233	0	31732	33528	
2234	0	31976	33448	
2235	0	32048	33632	
2236	0	32628	31736	
2237	0	33760	30782	
2238	0	34444	30044	
2239	0	33508	30228	
2240	0	33456	32080	
2241	0	34152	33748	
2242	0	33632	33580	
2243	0	33296	33696	
2244	0	32764	33698	
2245	0	32384	33272	
2246	0	31600	32744	
2247	0	30728	33008	
2248	0	31648	33120	
2249	0	33340	33498	
2250	0	34812	32600	
2251	0	35576	32546	
2252	0	35216	34348	
2253	0	34448	34640	
2254	0	33598	34340	
2255	0	32660	33930	
2256	0	31968	33040	
2257	0	31520	32492	
2258	0	31424	32148	
2259	0	31524	31656	
2260	0	31734	31316	
2261	0	31428	30872	
2262	0	31240	30884	
2263	0	31664	32622	
2264	0	32456	33028	
2265	0	33196	32316	
2266	0	33268	30852	
2267	0	33520	30522	
2268	0	33156	32704	
2269	0	32572	36192	
2270	0	32784	34912	
2271	0	32241	33168	
2272	0	32460	32884	
2273	0	33800	32080	
2274	0	33678	31760	
2275	0	33550	32872	
2276	0	32872	32328	
2277	0	32936	32208	
2278	0	32960	32308	
2279	0	33064	32398	
2280	0	32852	33412	
2281	0	33064	33660	
2282	0	33436	34610	
2283	0	33730	34602	
2284	0	32912	32568	
2285	0	32784	32268	
2286	0	32312	32208	
2287	0	32316	32120	
2288	0	32872	30212	
2289	0	32840	31148	
2290	0	32576	33408	
2291	0	32376	33852	
2292	0	32196	34220	
2293	0	32584	32822	
2294	0	32360	33162	
2295	0	32372	33668	
2296	0	33372	33762	
2297	0	33248	33788	
2298	0	33436	34024	
2299	0	33336	33836	
2300	0	33250	33076	
2301	0	32648	32244	
2302	0	32488	31588	
2303	0	32569	31330	
2304	0	31874	30912	
2305	0	31856	30868	
2306	0	31632	31142	
2307	0	31476	30904	
2308	0	32782	30136	
2309	0	33434	30788	
2310	0	33568	31708	
2311	0	32544	35176	
2312	0	31424	35280	
2313	0	32796	36024	
2314	0	34044	34764	
2315	0	34632	36504	
2316	0	34114	34552	
2317	0	33676	32276	
2318	0	33134	28280	
2319	0	32508	29084	
2320	0	31524	32976	
2321	0	32312	34612	
2322	0	32476	35168	
2323	0	32190	36632	
2324	0	31936	34660	
2325	0	32750	33484	
2326	0	34104	33612	
2327	0	34652	32522	
2328	0	34496	32356	
2329	0	33676	31844	
2330	0	33044	31550	
2331	0	32344	31784	
2332	0	31570	31496	
2333	0	31148	31236	
2334	0	31446	31416	
2335	0	31864	31482	
2336	0	31880	32128	
2337	0	31528	32176	
2338	0	31964	32334	
2339	0	33504	32684	
2340	0	34178	33130	
2341	0	33992	33268	
2342	0	33508	32948	
2343	0	33272	32638	
2344	0	33468	32596	
2345	0	33548	32680	
2346	0	33560	33202	
2347	0	33300	32088	
2348	0	32718	31146	
2349	0	32712	32574	
2350	0	32824	33368	
2351	0	32818	34824	
2352	0	32516	34104	
2353	0	32528	33460	
2354	0	32598	32192	
2355	0	32064	31722	
2356	0	32276	33032	
2357	0	32608	33644	
2358	0	32956	33640	
2359	0	32552	33598	
2360	0	32184	33228	
2361	0	31872	32560	
2362	0	32152	30808	
2363	0	32176	29994	
2364	0	32578	31532	
2365	0	32938	33284	
2366	0	33112	33928	
2367	0	33188	34004	
2368	0	32880	35008	
2369	0	32400	34396	
2370	0	31228	32840	
2371	0	29948	33040	
2372	0	30104	32904	
2373	0	32344	31988	
2374	0	34572	31388	
2375	0	36152	32410	
2376	0	36916	32252	
2377	0	36904	32800	
2378	0	35956	31816	
2379	0	34464	31736	
2380	0	33360	31862	
2381	0	32104	33372	
2382	0	31588	33688	
2383	0	31940	33460	
2384	0	32240	33494	
2385	0	32512	32648	
2386	0	31916	31292	
2387	0	31596	31492	
2388	0	31820	32476	
2389	0	32352	32984	
2390	0	32304	34014	
2391	0	31808	32938	
2392	0	31812	33036	
2393	0	32452	31880	
2394	0	31604	32464	
2395	0	32428	34204	
2396	0	34056	32430	
2397	0	34628	33173	
2398	0	34568	31558	
2399	0	34310	32694	
2400	0	33788	35120	
2401	0	33952	34948	
2402	0	32352	34414	
2403	0	31464	33776	
2404	0	31524	32504	
2405	0	31776	32408	
2406	0	32110	32200	
2407	0	32216	32472	
2408	0	32124	31920	
2409	0	31800	31624	
2410	0	31688	31016	
2411	0	31936	30068	
2412	0	32788	31748	
2413	0	33928	31528	
2414	0	33870	32128	
2415	0	33180	32808	
2416	0	33924	32688	
2417	0	33504	32760	
2418	0	32736	33740	
2419	0	32288	36032	
2420	0	32048	35796	
2421	0	32252	33956	
2422	0	32536	33060	
2423	0	33054	32068	
2424	0	33508	31288	
2425	0	33672	30232	
2426	0	33276	30016	
2427	0	33032	33036	
2428	0	32132	32942	
2429	0	30392	33000	
2430	0	31500	33824	
2431	0	32932	34356	
2432	0	33976	34348	
2433	0	33068	32596	
2434	0	32032	32944	
2435	0	31798	32612	
2436	0	33276	33440	
2437	0	34392	33638	
2438	0	35036	31472	
2439	0	35084	31072	
2440	0	34716	31562	
2441	0	33552	32600	
2442	0	32556	33740	
2443	0	32076	34700	
2444	0	32604	34324	
2445	0	32776	33464	
2446	0	32728	33172	
2447	0	32616	33104	
2448	0	32432	31608	
2449	0	32104	30968	
2450	0	32064	30506	
2451	0	32220	31404	
2452	0	32472	32772	
2453	0	32788	32524	
2454	0	32754	32588	
2455	0	32284	33118	
2456	0	32224	34204	
2457	0	32388	34458	
2458	0	32616	33004	
2459	0	32800	32328	
2460	0	33188	33092	
2461	0	33084	33480	
2462	0	33064	32228	
2463	0	32576	32312	
2464	0	32488	32608	
2465	0	32292	32612	
2466	0	32192	32584	
2467	0	32318	32460	
2468	0	32416	32612	
2469	0	32692	32276	
2470	0	32892	32098	
2471	0	33184	32028	
2472	0	32982	32688	
2473	0	32872	33294	
2474	0	32896	32962	
2475	0	32986	32518	
2476	0	33340	32596	
2477	0	33520	33208	
2478	0	33346	32388	
2479	0	32360	32314	
2480	0	32282	33318	
2481	0	33188	33760	
2482	0	33076	33064	
2483	0	33824	33465	
2484	0	34412	34166	
2485	0	34176	33838	
2486	0	33768	33048	
2487	0	33196	32849	
2488	0	32300	32412	
2489	0	31640	32515	
2490	0	31368	32218	
2491	0	31598	31976	
2492	0	31892	31536	
2493	0	31882	31564	
2494	0	32084	31068	
2495	0	32696	31966	
2496	0	32904	33088	
2497	0	33220	33606	
2498	0	33196	34072	
2499	0	33380	34632	
2500	0	33432	33484	
2501	0	33196	31992	
2502	0	33152	31888	
2503	0	33040	32324	
2504	0	32948	32104	
2505	0	32740	33466	
2506	0	32136	33590	
2507	0	32104	34082	
2508	0	32362	33584	
2509	0	32788	32920	
2510	0	32438	32980	
2511	0	32668	32472	
2512	0	32960	32390	
2513	0	32924	32320	
2514	0	33108	32430	
2515	0	33328	32820	
2516	0	32760	32068	
2517	0	33056	31804	
2518	0	33356	30588	
2519	0	32976	31636	
2520	0	32576	32692	
2521	0	32804	33024	
2522	0	32544	34130	
2523	0	32912	34846	
2524	0	33432	33836	
2525	0	33532	32692	
2526	0	33290	33250	
2527	0	32828	33192	
2528	0	32754	33572	
2529	0	32696	33256	
2530	0	32692	32468	
2531	0	32232	32180	
2532	0	32012	32068	
2533	0	32520	31796	
2534	0	32660	32268	
2535	0	32352	32792	
2536	0	32392	31960	
2537	0	32504	32404	
2538	0	32516	33318	
2539	0	32482	33640	
2540	0	33084	33340	
2541	0	33056	32988	
2542	0	33100	32840	
2543	0	33140	32796	
2544	0	33052	32686	
2545	0	32904	32700	
2546	0	32788	32862	
2547	0	32816	32472	
2548	0	32898	32012	
2549	0	32896	32276	
2550	0	32858	33116	
2551	0	32844	32192	
2552	0	32832	32140	
2553	0	32772	32076	
2554	0	32392	33012	
2555	0	32756	33016	
2556	0	33072	33156	
2557	0	33400	33968	
2558	0	33358	33616	
2559	0	33246	32986	
2560	0	33162	31884	
2561	0	32994	32728	
2562	0	32736	33716	
2563	0	32470	32886	
2564	0	32246	32896	
2565	0	32300	32668	
2566	0	32240	32414	
2567	0	32416	32208	
2568	0	32624	32196	
2569	0	32768	32744	
2570	0	32754	32872	
2571	0	32916	32976	
2572	0	32994	32880	
2573	0	32862	32744	
2574	0	32808	32888	
2575	0	32870	32622	
2576	0	32900	32702	
2577	0	32988	32624	
2578	0	32944	32168	
2579	0	32856	31624	
2580	0	32968	31392	
2581	0	33112	31312	
2582	0	33348	33364	
2583	0	33240	34242	
2584	0	33264	31980	
2585	0	33128	32688	
2586	0	32840	34220	
2587	0	32542	34936	
2588	0	32516	34484	
2589	0	32570	32896	
2590	0	32524	32804	
2591	0	32564	33592	
2592	0	32360	33440	
2593	0	32348	33122	
2594	0	32534	32788	
2595	0	32512	32120	
2596	0	32736	31856	
2597	0	32764	31970	
2598	0	32774	31976	
2599	0	32832	32212	
2600	0	32852	32476	
2601	0	32984	32686	
2602	0	33020	32372	
2603	0	33064	32664	
2604	0	32946	33160	
2605	0	32832	31948	
2606	0	32864	31670	
2607	0	33024	32908	
2608	0	32972	33092	
2609	0	32772	33372	
2610	0	31960	33128	
2611	0	32212	33664	
2612	0	33016	33556	
2613	0	33676	32404	
2614	0	33940	31468	
2615	0	33780	31876	
2616	0	33696	32260	
2617	0	33168	31880	
2618	0	32336	33048	
2619	0	31932	34488	
2620	0	32162	34032	
2621	0	32276	33360	
2622	0	32218	33104	
2623	0	32272	32804	
2624	0	32456	32692	
2625	0	32432	32764	
2626	0	32568	32764	
2627	0	32740	32454	
2628	0	32908	32366	
2629	0	32912	32350	
2630	0	32872	32734	
2631	0	32880	32270	
2632	0	33076	32124	
2633	0	32992	33084	
2634	0	32938	32914	
2635	0	32932	32980	
2636	0	32996	32774	
2637	0	32932	33140	
2638	0	32992	33038	
2639	0	33124	32784	
2640	0	33060	32786	
2641	0	32948	32790	
2642	0	32804	32796	
2643	0	32634	32592	
2644	0	32660	32184	
2645	0	32752	32404	
2646	0	32840	32358	
2647	0	32636	31576	
2648	0	32768	32704	
2649	0	32736	32936	
2650	0	32732	33124	
2651	0	32676	34276	
2652	0	32812	33676	
2653	0	32804	32798	
2654	0	32778	32903	
2655	0	32888	33348	
2656	0	32904	33390	
2657	0	32726	32970	
2658	0	32592	32654	
2659	0	32836	32676	
2660	0	32864	32612	
2661	0	32944	32565	
2662	0	32929	32636	
2663	0	32932	32684	
2664	0	32992	32564	
2665	0	32850	32364	
2666	0	32780	32068	
2667	0	32752	32502	
2668	0	32780	32550	
2669	0	32760	31896	
2670	0	32636	32048	
2671	0	32660	33040	
2672	0	32668	33580	
2673	0	32658	33696	
2674	0	33040	32880	
2675	0	33200	32725	
2676	0	32656	32876	
2677	0	32244	32754	
2678	0	32524	32724	
2679	0	32662	32864	
2680	0	32872	32700	
2681	0	32940	32636	
2682	0	33072	32724	
2683	0	33096	32720	
2684	0	33016	32588	
2685	0	32924	32714	
2686	0	32848	32846	
2687	0	32616	32596	
2688	0	32708	32540	
2689	0	32696	32580	
2690	0	32680	32944	
2691	0	32624	32424	
2692	0	32736	32362	
2693	0	33070	32016	
2694	0	32952	33038	
2695	0	33074	33196	
2696	0	32876	33692	
2697	0	32756	33696	
2698	0	32338	32328	
2699	0	32246	32896	
2700	0	32372	32988	
2701	0	32760	32912	
2702	0	32872	33048	
2703	0	32964	32944	
2704	0	32922	32892	
2705	0	32872	32700	
2706	0	33040	32512	
2707	0	33128	32472	
2708	0	33040	32600	
2709	0	33148	32680	
2710	0	33052	32490	
2711	0	32792	32464	
2712	0	32578	32750	
2713	0	32496	32756	
2714	0	32624	32908	
2715	0	32776	32906	
2716	0	32780	32794	
2717	0	32912	32612	
2718	0	32828	32566	
2719	0	32844	32648	
2720	0	32590	32632	
2721	0	32616	32934	
2722	0	32650	32716	
2723	0	32658	32508	
2724	0	32912	32330	
2725	0	32908	32092	
2726	0	32720	32324	
2727	0	32696	33040	
2728	0	32596	33508	
2729	0	32808	33164	
2730	0	32780	33028	
2731	0	32772	32620	
2732	0	32842	32728	
2733	0	32780	32860	
2734	0	32868	32772	
2735	0	33056	32680	
2736	0	32936	32756	
2737	0	32932	32600	
2738	0	32930	32280	
2739	0	33088	31740	
2740	0	33224	31768	
2741	0	33084	32316	
2742	0	32888	32950	
2743	0	32732	33676	
2744	0	32600	33860	
2745	0	32534	33576	
2746	0	32488	33240	
2747	0	32504	32932	
2748	0	32524	32656	
2749	0	32552	32606	
2750	0	32672	32604	
2751	0	32652	32516	
2752	0	32680	32710	
2753	0	32704	32678	
2754	0	32768	32568	
2755	0	32848	32588	
2756	0	32912	32612	
2757	0	32904	32504	
2758	0	33000	32692	
2759	0	33128	32724	
2760	0	33036	32692	
2761	0	32824	32810	
2762	0	32756	32830	
2763	0	32896	32648	
2764	0	32872	32784	
2765	0	32900	32878	
2766	0	32910	32824	
2767	0	32894	32930	
2768	0	32868	32720	
2769	0	32860	32768	
2770	0	32884	32680	
2771	0	32897	32712	
2772	0	33010	33242	
2773	0	32910	32832	
2774	0	33030	32712	
2775	0	32980	32714	
2776	0	33112	32780	
2777	0	32852	32900	
2778	0	32868	33206	
2779	0	32936	33426	
2780	0	32924	33360	
2781	0	32976	33176	
2782	0	32976	32864	
2783	0	33036	32840	
2784	0	32700	32836	
2785	0	32624	32560	
2786	0	32650	32512	
2787	0	32812	32486	
2788	0	32776	32608	
2789	0	32618	32576	
2790	0	32556	32578	
2791	0	32618	32696	
2792	0	32668	32736	
2793	0	32816	32496	
2794	0	32860	32724	
2795	0	32804	32808	
2796	0	32776	32796	
2797	0	32772	32636	
2798	0	32830	32824	
2799	0	32844	32828	
2800	0	32844	32852	
2801	0	32744	32692	
2802	0	32788	32680	
2803	0	32694	32544	
2804	0	32800	32450	
2805	0	32776	32316	
2806	0	32784	32796	
2807	0	32868	33100	
2808	0	32772	33114	
2809	0	32750	32838	
2810	0	32812	33116	
2811	0	32808	33264	
2812	0	32848	33144	
2813	0	32808	32840	
2814	0	32800	32700	
2815	0	32856	32756	
2816	0	32782	32632	
2817	0	32744	32640	
2818	0	32712	32764	
2819	0	32836	32810	
2820	0	32764	32720	
2821	0	32792	32658	
2822	0	32834	32616	
2823	0	32894	32788	
2824	0	32864	32742	
2825	0	32768	32600	
2826	0	32772	32648	
2827	0	33080	32572	
2828	0	32950	32650	
2829	0	32724	32664	
2830	0	32676	32478	
2831	0	32776	32532	
2832	0	32720	32832	
2833	0	32696	33062	
2834	0	32848	32968	
2835	0	32796	32792	
2836	0	32800	32900	
2837	0	32836	32890	
2838	0	32768	32764	
2839	0	32780	32802	
2840	0	32784	32862	
2841	0	32696	32828	
2842	0	32716	32782	
2843	0	32730	32716	
2844	0	32720	32644	
2845	0	32764	32874	
2846	0	32872	32878	
2847	0	32952	32760	
2848	0	32864	32642	
2849	0	32808	32720	
2850	0	32988	32724	
2851	0	33008	32706	
2852	0	32908	32552	
2853	0	32852	32708	
2854	0	32810	32748	
2855	0	32792	32828	
2856	0	32752	32688	
2857	0	32748	32720	
2858	0	32948	32846	
2859	0	33000	32700	
2860	0	32813	32794	
2861	0	32664	32792	
2862	0	32708	32834	
2863	0	32616	32728	
2864	0	32274	32682	
2865	0	32384	32172	
2866	0	32324	31974	
2867	0	32264	32918	
2868	0	32412	33236	
2869	0	32666	32684	
2870	0	33184	33394	
2871	0	33608	33348	
2872	0	33722	32998	
2873	0	33552	33200	
2874	0	33414	32740	
2875	0	33320	32676	
2876	0	32624	32672	
2877	0	32576	32608	
2878	0	32900	32660	
2879	0	32740	32680	
2880	0	32620	32822	
2881	0	33020	32688	
2882	0	33240	32632	
2883	0	33178	32832	
2884	0	32872	32940	
2885	0	32648	32820	
2886	0	32720	32644	
2887	0	32716	32864	
2888	0	32572	32880	
2889	0	32472	32788	
2890	0	32476	32696	
2891	0	32380	32758	
2892	0	32404	32673	
2893	0	32430	32836	
2894	0	32496	32680	
2895	0	32636	32640	
2896	0	32790	32768	
2897	0	32880	32708	
2898	0	32848	32860	
2899	0	32882	32844	
2900	0	32952	32700	
2901	0	32894	32828	
2902	0	32816	32772	
2903	0	32820	32736	
2904	0	32876	32772	
2905	0	32968	32792	
2906	0	32842	32760	
2907	0	32872	32694	
2908	0	32830	32774	
2909	0	32932	32806	
2910	0	32784	32856	
2911	0	32772	32656	
2912	0	32744	32668	
2913	0	32744	32806	
2914	0	32904	32450	
2915	0	33008	32526	
2916	0	32918	32628	
2917	0	32858	32720	
2918	0	32794	32796	
2919	0	32776	32640	
2920	0	32840	32848	
2921	0	32848	33012	
2922	0	32752	32772	
2923	0	32848	33034	
2924	0	32916	32916	
2925	0	32592	33064	
2926	0	32586	32852	
2927	0	32880	32690	
2928	0	32902	32666	
2929	0	32740	32568	
2930	0	32680	32556	
2931	0	32652	32714	
2932	0	32816	32812	
2933	0	32948	32760	
2934	0	32926	32680	
2935	0	32864	32710	
2936	0	32876	32698	
2937	0	32738	32692	
2938	0	32608	32756	
2939	0	32480	32816	
2940	0	32640	32664	
2941	0	32696	32740	
2942	0	32756	32738	
2943	0	32972	32814	
2944	0	32772	32690	
2945	0	32600	32820	
2946	0	32718	32796	
2947	0	32744	32764	
2948	0	32544	32846	
2949	0	32718	32704	
2950	0	32924	32716	
2951	0	33224	32620	
2952	0	33328	32768	
2953	0	33366	32780	
2954	0	33200	32444	
2955	0	33100	32564	
2956	0	33092	32834	
2957	0	32860	32944	
2958	0	32784	32718	
2959	0	32788	32664	
2960	0	32760	32950	
2961	0	32682	32892	
2962	0	32676	32968	
2963	0	32640	32916	
2964	0	32648	32782	
2965	0	32606	32836	
2966	0	32734	32938	
2967	0	32734	32666	
2968	0	32752	32892	
2969	0	32780	32792	
2970	0	32748	32688	
2971	0	32864	32660	
2972	0	32822	32696	
2973	0	32688	32788	
2974	0	32744	32720	
2975	0	32766	32836	
2976	0	32704	32796	
2977	0	32812	32820	
2978	0	32944	32760	
2979	0	32688	32692	
2980	0	32640	32692	
2981	0	32832	32820	
2982	0	32788	32560	
2983	0	32850	32448	
2984	0	32826	32828	
2985	0	32780	32876	
2986	0	32772	32610	
2987	0	32784	32228	
2988	0	32816	32756	
2989	0	32832	33058	
2990	0	32840	32935	
2991	0	32864	32932	
2992	0	32788	32708	
2993	0	32832	32704	
2994	0	32860	32904	
2995	0	32830	33064	
2996	0	32832	32912	
2997	0	32824	32844	
2998	0	32866	32912	
2999	0	32828	32774	
3000	0	32810	32716	
3001	0	32860	32646	
3002	0	32832	32682	
3003	0	32776	32864	
3004	0	32880	32728	
3005	0	32832	32528	
3006	0	32744	32820	
3007	0	32880	32736	
3008	0	32840	32804	
3009	0	32848	32682	
3010	0	32832	32896	
3011	0	32868	32856	
3012	0	32840	32814	
3013	0	32868	32784	
3014	0	32704	32766	
3015	0	32812	32784	
3016	0	32756	32896	
3017	0	32720	32790	
3018	0	32676	32836	
3019	0	32856	32832	
3020	0	32852	32762	
3021	0	33008	32748	
3022	0	33052	32820	
3023	0	32772	32760	
3024	0	32812	32468	
3025	0	32718	32256	
3026	0	32768	32100	
3027	0	32888	32560	
3028	0	32776	33252	
3029	0	32896	32936	
3030	0	32992	32536	
3031	0	32788	32692	
3032	0	32860	33334	
3033	0	32900	33396	
3034	0	32880	33440	
3035	0	32912	33095	
3036	0	32808	32874	
3037	0	32804	32676	
3038	0	32780	32700	
3039	0	32864	32496	
3040	0	32812	32568	
3041	0	32780	32646	
3042	0	32800	32628	
3043	0	32776	32700	
3044	0	32832	32704	
3045	0	32832	32706	
3046	0	32732	32688	
3047	0	32744	32654	
3048	0	32860	32722	
3049	0	32780	32824	
3050	0	32776	32658	
3051	0	32796	32780	
3052	0	32764	32798	
3053	0	32804	32740	
3054	0	32900	32768	
3055	0	32908	32708	
3056	0	32920	32644	
3057	0	32888	32758	
3058	0	32802	32852	
3059	0	32768	32728	
3060	0	32674	32732	
3061	0	32632	32660	
3062	0	32666	32730	
3063	0	32688	32890	
3064	0	32640	32596	
3065	0	32636	32396	
3066	0	32796	32446	
3067	0	32984	32872	
3068	0	33140	32766	
3069	0	33064	32820	
3070	0	32956	32988	
3071	0	32908	32816	
3072	0	32788	33310	
3073	0	32736	32976	
3074	0	33024	32802	
3075	0	32976	32708	
3076	0	32746	32828	
3077	0	32772	32842	
3078	0	32698	32678	
3079	0	32672	32740	
3080	0	32612	32704	
3081	0	32684	32574	
3082	0	32822	32752	
3083	0	32778	32736	
3084	0	32818	32646	
3085	0	32892	32694	
3086	0	32840	32689	
3087	0	32780	32706	
3088	0	32830	32720	
3089	0	32800	32754	
3090	0	32820	32788	
3091	0	32752	32812	
3092	0	32628	32774	
3093	0	32700	32710	
3094	0	32682	32752	
3095	0	32708	32708	
3096	0	32720	32486	
3097	0	32824	32628	
3098	0	32922	32876	
3099	0	33120	32992	
3100	0	33128	32986	
3101	0	33008	32664	
3102	0	32916	32704	
3103	0	32848	32775	
3104	0	32812	32898	
3105	0	32844	32996	
3106	0	32808	32746	
3107	0	32848	32812	
3108	0	32832	32768	
3109	0	32772	32672	
3110	0	32864	32680	
3111	0	32782	32784	
3112	0	32812	32764	
3113	0	32756	32768	
3114	0	32706	32644	
3115	0	32736	32756	
3116	0	32752	32822	
3117	0	32808	32708	
3118	0	32812	32816	
3119	0	32904	32816	
3120	0	32892	32728	
3121	0	32788	32696	
3122	0	32712	32746	
3123	0	32872	32752	
3124	0	32472	32704	
3125	0	32640	32756	
3126	0	32976	32606	
3127	0	33124	32494	
3128	0	32896	32702	
3129	0	32770	32598	
3130	0	32576	32752	
3131	0	32712	32826	
3132	0	32778	32868	
3133	0	32852	33054	
3134	0	32840	33112	
3135	0	32880	32904	
3136	0	32856	32740	
3137	0	32904	32768	
3138	0	32848	32754	
3139	0	32868	32768	
3140	0	32766	32660	
3141	0	32796	32720	
3142	0	32794	32604	
3143	0	32792	32748	
3144	0	32804	32744	
3145	0	32826	32632	
3146	0	32896	32728	
3147	0	32674	32772	
3148	0	32642	32814	
3149	0	32676	32884	
3150	0	32680	32736	
3151	0	32804	32592	
3152	0	32808	32744	
3153	0	32856	32658	
3154	0	33046	32628	
3155	0	33140	32596	
3156	0	33000	32618	
3157	0	33076	32648	
3158	0	33078	32896	
3159	0	33026	32820	
3160	0	32884	32660	
3161	0	32792	32520	
3162	0	32618	32680	
3163	0	32670	33088	
3164	0	32666	33076	
3165	0	32692	32910	
3166	0	32836	32604	
3167	0	32884	32254	
3168	0	32808	32736	
3169	0	32780	33506	
3170	0	32784	33432	
3171	0	32812	32952	
3172	0	32828	32592	
3173	0	32756	33140	
3174	0	32772	33096	
3175	0	32680	32782	
3176	0	32698	32836	
3177	0	32832	32724	
3178	0	32900	32620	
3179	0	32792	32628	
3180	0	32684	32714	
3181	0	32676	32592	
3182	0	32786	32620	
3183	0	32842	32660	
3184	0	32828	32610	
3185	0	32792	32716	
3186	0	32840	32600	
3187	0	32808	32758	
3188	0	32808	32892	
3189	0	32832	32578	
3190	0	32852	32670	
3191	0	32796	32676	
3192	0	32812	32758	
3193	0	32802	32774	
3194	0	32784	32684	
3195	0	32808	32832	
3196	0	32768	32660	
3197	0	32888	32754	
3198	0	32890	32792	
3199	0	32836	32732	
3200	0	32860	32804	
3201	0	32896	32848	
3202	0	32920	32828	
3203	0	32816	32806	
3204	0	32884	32800	
3205	0	32828	32586	
3206	0	32812	32734	
3207	0	32820	32884	
3208	0	32792	32736	
3209	0	32828	32780	
3210	0	32832	32814	
3211	0	32800	32796	
3212	0	32760	32904	
3213	0	32728	32775	
3214	0	32800	32736	
3215	0	32824	32764	
3216	0	32788	32800	
3217	0	32834	32854	
3218	0	32926	32780	
3219	0	32930	32662	
3220	0	32684	32816	
3221	0	32608	32804	
3222	0	32808	32800	
3223	0	32664	32732	
3224	0	32698	32768	
3225	0	32792	32772	
3226	0	32956	32512	
3227	0	32836	32702	
3228	0	32824	32816	
3229	0	32928	32628	
3230	0	32768	32886	
3231	0	32800	32946	
3232	0	32730	32706	
3233	0	32772	32740	
3234	0	32804	32774	
3235	0	32828	32688	
3236	0	32900	32784	
3237	0	32784	32832	
3238	0	32806	32712	
3239	0	32820	32776	
3240	0	32814	32780	
3241	0	32816	32874	
3242	0	32834	32732	
3243	0	32820	32704	
3244	0	32960	32840	
3245	0	32856	32706	
3246	0	32848	32864	
3247	0	32744	32742	
3248	0	32768	32670	
3249	0	32826	32852	
3250	0	32782	32668	
3251	0	32824	32644	
3252	0	32882	32800	
3253	0	32860	32880	
3254	0	32884	32574	
3255	0	32804	32838	
3256	0	32888	32976	
3257	0	32906	32736	
3258	0	32840	32430	
3259	0	32776	32770	
3260	0	32796	32944	
3261	0	32836	32894	
3262	0	32780	32988	
3263	0	32756	32624	
3264	0	32746	32898	
3265	0	32660	32906	
3266	0	32684	32772	
3267	0	32812	32748	
3268	0	32876	32748	
3269	0	32828	32660	
3270	0	32904	32774	
3271	0	32880	32766	
3272	0	32892	32760	
3273	0	32840	32730	
3274	0	32784	32754	
3275	0	32720	32696	
3276	0	32716	32760	
3277	0	32792	32704	
3278	0	32692	32644	
3279	0	32768	32778	
3280	0	32844	32834	
3281	0	32816	32826	
3282	0	32812	32742	
3283	0	32896	32772	
3284	0	32854	32828	
3285	0	32832	32688	
3286	0	32792	32688	
3287	0	32808	32748	
3288	0	32768	32740	
3289	0	32784	32704	
3290	0	32816	32784	
3291	0	32788	32860	
3292	0	32820	32684	
3293	0	32840	32772	
3294	0	32793	32876	
3295	0	32766	32748	
3296	0	32760	32780	
3297	0	32788	32806	
3298	0	32828	32672	
3299	0	32878	32742	
3300	0	32800	32794	
3301	0	32816	32744	
3302	0	32768	32884	
3303	0	32804	32728	
3304	0	32840	32740	
3305	0	32884	32766	
3306	0	32906	32836	
3307	0	32844	32846	
3308	0	32788	32700	
3309	0	32624	32732	
3310	0	32624	32832	
3311	0	32968	32682	
3312	0	32800	32536	
3313	0	32676	32526	
3314	0	32794	32704	
3315	0	32746	32764	
3316	0	32762	32660	
3317	0	32740	32944	
3318	0	32792	33098	
3319	0	32860	32932	
3320	0	32858	32792	
3321	0	32936	32780	
3322	0	32884	32902	
3323	0	32772	32932	
3324	0	32728	32756	
3325	0	32832	32784	
3326	0	32896	32880	
3327	0	32788	32562	
3328	0	32840	32576	
3329	0	32896	32584	
3330	0	32808	32728	
3331	0	32832	32804	
3332	0	32828	32672	
3333	0	32810	32734	
3334	0	32834	32644	
3335	0	32852	32598	
3336	0	32793	32804	
3337	0	32840	32998	
3338	0	32804	32728	
3339	0	32832	32616	
3340	0	32720	32798	
3341	0	32804	32834	
3342	0	32784	32964	
3343	0	32866	32688	
3344	0	32764	32722	
3345	0	32860	32930	
3346	0	32782	32808	
3347	0	32836	32788	
3348	0	32884	32782	
3349	0	32848	32760	
3350	0	32820	32676	
3351	0	32768	32712	
3352	0	32718	32808	
3353	0	32732	32730	
3354	0	32872	32748	
3355	0	32766	32736	
3356	0	32796	32796	
3357	0	32866	32848	
3358	0	32792	32706	
3359	0	32832	32748	
3360	0	32808	32692	
3361	0	32788	32720	
3362	0	32810	32808	
3363	0	32836	32702	
3364	0	32758	32714	
3365	0	32816	32698	
3366	0	32896	32808	
3367	0	32832	32750	
3368	0	32824	32772	
3369	0	32856	32740	
3370	0	32878	32824	
3371	0	32821	32716	
3372	0	32732	32700	
3373	0	32730	32848	
3374	0	32752	32788	
3375	0	32762	32836	
3376	0	32816	32672	
3377	0	32848	32800	
3378	0	32816	32864	
3379	0	32748	32890	
3380	0	32744	32760	
3381	0	32888	32796	
3382	0	32872	32724	
3383	0	32840	32536	
3384	0	32778	32572	
3385	0	32864	32774	
3386	0	32832	32828	
3387	0	32828	32977	
3388	0	32792	32720	
3389	0	32812	32708	
3390	0	32804	32832	
3391	0	32800	32816	
3392	0	32776	32878	
3393	0	32756	32775	
3394	0	32816	32588	
3395	0	32882	32690	
3396	0	32816	32798	
3397	0	32780	32900	
3398	0	32814	32698	
3399	0	32856	32760	
3400	0	32804	32752	
3401	0	32732	32778	
3402	0	32696	32820	
3403	0	32730	32856	
3404	0	32820	32836	
3405	0	32808	32698	
3406	0	32880	32620	
3407	0	32790	32608	
3408	0	32870	32888	
3409	0	32824	32662	
3410	0	32904	32484	
3411	0	32772	32608	
3412	0	32752	32894	
3413	0	32772	32872	
3414	0	32866	32780	
3415	0	32768	32720	
3416	0	32776	32914	
3417	0	32816	32760	
3418	0	32784	32782	
3419	0	32768	32748	
3420	0	32864	32568	
3421	0	32864	32860	
3422	0	32784	32944	
3423	0	32780	32916	
3424	0	32804	32748	
3425	0	32800	32618	
3426	0	32828	32714	
3427	0	32836	32624	
3428	0	32832	32732	
3429	0	32872	32850	
3430	0	32868	32784	
3431	0	32858	32700	
3432	0	32832	32690	
3433	0	32764	32872	
3434	0	32704	32888	
3435	0	32724	32853	
3436	0	32784	32800	
3437	0	32808	32676	
3438	0	32816	32646	
3439	0	32844	32684	
3440	0	32800	32802	
3441	0	32848	32744	
3442	0	32832	32764	
3443	0	32896	32834	
3444	0	32860	32820	
3445	0	32842	32736	
3446	0	32792	32758	
3447	0	32808	32842	
3448	0	32844	32702	
3449	0	32860	32732	
3450	0	32840	32794	
3451	0	32802	32784	
3452	0	32800	32876	
3453	0	32824	32772	
3454	0	32832	32721	
3455	0	32760	32764	
3456	0	32798	32752	
3457	0	32788	32904	
3458	0	32848	32864	
3459	0	32802	32820	
3460	0	32880	32832	
3461	0	32784	32736	
3462	0	32792	32722	
3463	0	32824	32708	
3464	0	32836	32638	
3465	0	32798	32686	
3466	0	32840	32740	
3467	0	32864	32854	
3468	0	32856	32766	
3469	0	32708	32744	
3470	0	32740	32700	
3471	0	32742	32792	
3472	0	32704	32738	
3473	0	32824	32676	
3474	0	32900	32732	
3475	0	32820	32694	
3476	0	32776	32800	
3477	0	32792	32775	
3478	0	32828	32796	
3479	0	32802	32782	
3480	0	32896	32828	
3481	0	32940	32788	
3482	0	32972	32906	
3483	0	32936	32818	
3484	0	32820	32710	
3485	0	32682	32760	
3486	0	32624	32770	
3487	0	32780	32764	
3488	0	32732	32716	
3489	0	32834	32772	
3490	0	32798	32822	
3491	0	32818	32828	
3492	0	32772	32762	
3493	0	32772	32716	
3494	0	32868	32729	
3495	0	32820	32858	
3496	0	32792	32836	
3497	0	32738	32820	
3498	0	32726	32774	
3499	0	32874	32746	
3500	0	32796	32844	
3501	0	32840	32744	
3502	0	32928	32748	
3503	0	32848	32724	
3504	0	32792	32770	
3505	0	32812	32808	
3506	0	32776	32788	
3507	0	32800	32772	
3508	0	32808	32650	
3509	0	32846	32764	
3510	0	32720	32814	
3511	0	32780	32860	
3512	0	32774	32720	
3513	0	32824	32798	
3514	0	32778	32696	
3515	0	32872	32654	
3516	0	32860	32628	
3517	0	32804	32616	
3518	0	32778	32536	
3519	0	32780	32880	
3520	0	32912	32952	
3521	0	32784	32824	
3522	0	32764	32702	
3523	0	32828	32806	
3524	0	32796	32948	
3525	0	32780	32993	
3526	0	32832	32892	
3527	0	32798	32800	
3528	0	32804	32700	
3529	0	32808	32644	
3530	0	32856	32822	
3531	0	32824	32828	
3532	0	32860	32840	
3533	0	32752	32808	
3534	0	32864	32744	
3535	0	32784	32692	
3536	0	32864	32740	
3537	0	32772	32672	
3538	0	32808	32728	
3539	0	32784	32580	
3540	0	32716	32642	
3541	0	32836	32698	
3542	0	32828	32698	
3543	0	32828	32650	
3544	0	32848	32710	
3545	0	32828	32480	
3546	0	32848	32594	
3547	0	32836	32760	
3548	0	32836	32980	
3549	0	32772	32940	
3550	0	32784	32972	
3551	0	32884	32984	
3552	0	32868	32872	
3553	0	32892	32824	
3554	0	32856	32824	
3555	0	32900	32846	
3556	0	32708	32742	
3557	0	32698	32824	
3558	0	32696	32712	
3559	0	32776	32564	
3560	0	32800	32816	
3561	0	32876	32896	
3562	0	32884	32762	
3563	0	32892	32730	
3564	0	32868	32636	
3565	0	32804	32688	
3566	0	32788	32740	
3567	0	32832	32744	
3568	0	32874	32896	
3569	0	32816	32732	
3570	0	32872	32756	
3571	0	32776	32848	
3572	0	32716	32812	
3573	0	32792	32854	
3574	0	32752	32816	
3575	0	32740	32748	
3576	0	32872	32694	
3577	0	32904	32704	
3578	0	32932	32834	
3579	0	32984	32856	
3580	0	32952	32808	
3581	0	32812	32750	
3582	0	32696	32768	
3583	0	32674	32636	
3584	0	32700	32600	
3585	0	32776	32682	
3586	0	32808	32800	
3587	0	32832	32800	
3588	0	32794	32750	
3589	0	32780	32746	
3590	0	32748	32758	
3591	0	32672	32762	
3592	0	32590	32580	
3593	0	32604	32720	
3594	0	32656	32784	
3595	0	32592	32704	
3596	0	32744	32720	
3597	0	32688	32800	
3598	0	32676	32732	
3599	0	32688	32756	
3600	0	32740	32778	
3601	0	32712	32680	
3602	0	32712	32686	
3603	0	32776	32732	
3604	0	32844	32650	
3605	0	32832	32638	
3606	0	32788	32740	
3607	0	32812	32740	
3608	0	32866	32748	
3609	0	32828	32828	
3610	0	32788	32832	
3611	0	32776	32758	
3612	0	32852	32752	
3613	0	32880	32626	
3614	0	32888	32704	
3615	0	32932	32690	
3616	0	32944	32830	
3617	0	32976	32944	
3618	0	33014	32900	
3619	0	33068	32888	
3620	0	33020	33102	
3621	0	32952	33060	
3622	0	32936	33144	
3623	0	32996	33002	
3624	0	32996	32950	
3625	0	32964	32752	
3626	0	32972	33058	
3627	0	32906	32914	
3628	0	32828	32849	
3629	0	32734	32464	
3630	0	32672	32520	
3631	0	32672	32724	
3632	0	32656	32734	
3633	0	32696	32960	
3634	0	32768	32824	
3635	0	32760	32772	
3636	0	32740	32802	
3637	0	32776	32768	
3638	0	32704	32704	
3639	0	32736	32618	
3640	0	32696	32768	
3641	0	32800	32704	
3642	0	32740	32740	
3643	0	32852	32708	
3644	0	32816	32784	
3645	0	32844	32768	
3646	0	32800	32708	
3647	0	32832	32646	
3648	0	32802	32642	
3649	0	32876	32712	
3650	0	32840	32722	
3651	0	32824	32752	
3652	0	32812	32692	
3653	0	32784	32728	
3654	0	32844	32666	
3655	0	32816	32756	
3656	0	32816	32770	
3657	0	32780	32738	
3658	0	32798	32670	
3659	0	32760	32772	
3660	0	32804	32772	
3661	0	32826	32780	
3662	0	32780	32748	
3663	0	32740	32638	
3664	0	32824	32882	
3665	0	32912	32854	
3666	0	32840	32610	
3667	0	32880	32742	
3668	0	32800	32772	
3669	0	32856	32718	
3670	0	32796	32636	
3671	0	32832	32728	
3672	0	32796	32880	
3673	0	32816	32840	
3674	0	32790	32750	
3675	0	32868	32776	
3676	0	32872	32816	
3677	0	32828	32800	
3678	0	32802	32696	
3679	0	32718	32712	
3680	0	32792	32844	
3681	0	32760	32758	
3682	0	32832	32676	
3683	0	32808	32756	
3684	0	32790	32834	
3685	0	32824	32666	
3686	0	32784	32688	
3687	0	32788	32800	
3688	0	32840	32866	
3689	0	32806	32828	
3690	0	32826	32816	
3691	0	32804	32932	
3692	0	32784	32684	
3693	0	32784	32736	
3694	0	32822	32760	
3695	0	32804	32840	
3696	0	32816	32748	
3697	0	32760	32708	
3698	0	32800	32720	
3699	0	32780	32794	
3700	0	32768	32846	
3701	0	32820	32782	
3702	0	32800	32734	
3703	0	32816	32724	
3704	0	32818	32680	
3705	0	32824	32794	
3706	0	32822	32726	
3707	0	32848	32712	
3708	0	32828	32788	
3709	0	32826	32817	
3710	0	32862	32674	
3711	0	32884	32808	
3712	0	32840	32768	
3713	0	32740	32772	
3714	0	32792	32832	
3715	0	32776	32820	
3716	0	32778	32780	
3717	0	32816	32668	
3718	0	32820	32840	
3719	0	32768	32804	
3720	0	32768	32834	
3721	0	32908	32884	
3722	0	32876	32820	
3723	0	32848	32548	
3724	0	32832	32702	
3725	0	32816	32870	
3726	0	32820	32874	
3727	0	32862	32872	
3728	0	32824	32592	
3729	0	32852	32722	
3730	0	32804	32792	
3731	0	32784	32784	
3732	0	32768	32756	
3733	0	32812	32668	
3734	0	32872	32648	
3735	0	32826	32866	
3736	0	32812	32824	
3737	0	32820	32916	
3738	0	32792	32806	
3739	0	32776	32682	
3740	0	32736	32760	
3741	0	32810	32816	
3742	0	32816	32856	
3743	0	32840	32716	
3744	0	32874	32734	
3745	0	32872	32828	
3746	0	32840	32836	
3747	0	32876	32754	
3748	0	32796	32688	
3749	0	32812	32775	
3750	0	32834	32680	
3751	0	32868	32852	
3752	0	32776	32720	
3753	0	32810	32732	
3754	0	32792	32728	
3755	0	32820	32690	
3756	0	32796	32752	
3757	0	32800	32792	
3758	0	32810	32860	
3759	0	32822	32606	
3760	0	32836	32816	
3761	0	32764	32726	
3762	0	32732	32886	
3763	0	32812	32710	
3764	0	32702	32690	
3765	0	32748	32772	
3766	0	32808	32768	
3767	0	32848	32724	
3768	0	32868	32824	
3769	0	32816	32870	
3770	0	32808	32774	
3771	0	32830	32760	
3772	0	32840	32648	
3773	0	32864	32628	
3774	0	32796	32788	
3775	0	32826	32680	
3776	0	32776	32704	
3777	0	32800	32894	
3778	0	32792	32804	
3779	0	32772	32758	
3780	0	32802	32736	
3781	0	32798	32840	
3782	0	32836	32774	
3783	0	32820	32768	
3784	0	32832	32826	
3785	0	32804	32804	
3786	0	32776	32774	
3787	0	32684	32672	
3788	0	32744	32692	
3789	0	32752	32676	
3790	0	32830	32752	
3791	0	32872	32648	
3792	0	32828	32696	
3793	0	32832	32772	
3794	0	32856	32764	
3795	0	32844	32808	
3796	0	32856	32696	
3797	0	32768	32604	
3798	0	32820	32692	
3799	0	32784	32904	
3800	0	32768	32940	
3801	0	32870	32956	
3802	0	32824	32896	
3803	0	32828	32804	
3804	0	32808	32890	
3805	0	32838	32752	
3806	0	32790	32896	
3807	0	32766	32800	
3808	0	32850	32672	
3809	0	32810	32724	
3810	0	32812	32780	
3811	0	32774	32788	
3812	0	32772	32728	
3813	0	32776	32748	
3814	0	32800	32814	
3815	0	32812	32678	
3816	0	32824	32776	
3817	0	32816	32716	
3818	0	32788	32730	
3819	0	32828	32736	
3820	0	32784	32672	
3821	0	32768	32642	
3822	0	32852	32784	
3823	0	32840	32818	
3824	0	32840	32716	
3825	0	32776	32732	
3826	0	32832	32846	
3827	0	32872	32836	
3828	0	32800	32688	
3829	0	32796	32756	
3830	0	32788	32808	
3831	0	32800	32764	
3832	0	32798	32812	
3833	0	32832	32830	
3834	0	32804	32836	
3835	0	32768	32638	
3836	0	32796	32724	
3837	0	32836	32782	
3838	0	32816	32886	
3839	0	32828	32756	
3840	0	32798	32790	
3841	0	32748	32812	
3842	0	32776	32726	
3843	0	32800	32848	
3844	0	32860	32842	
3845	0	32872	32628	
3846	0	32878	32656	
3847	0	32852	32916	
3848	0	32792	32742	
3849	0	32816	32768	
3850	0	32820	32804	
3851	0	32792	32772	
3852	0	32820	32620	
3853	0	32832	32784	
3854	0	32782	32880	
3855	0	32840	32760	
3856	0	32778	32840	
3857	0	32804	32772	
3858	0	32852	32708	
3859	0	32800	32828	
3860	0	32780	32808	
3861	0	32820	32828	
3862	0	32852	32714	
3863	0	32842	32732	
3864	0	32768	32788	
3865	0	32864	32660	
3866	0	32820	32732	
3867	0	32808	32708	
3868	0	32820	32816	
3869	0	32804	32802	
3870	0	32874	32708	
3871	0	32872	32818	
3872	0	32864	32756	
3873	0	32784	32716	
3874	0	32840	32808	
3875	0	32784	32762	
3876	0	32798	32870	
3877	0	32772	32694	
3878	0	32840	32752	
3879	0	32844	32804	
3880	0	32824	32720	
3881	0	32804	32834	
3882	0	32836	32640	
3883	0	32868	32644	
3884	0	32784	32892	
3885	0	32672	32916	
3886	0	32804	32894	
3887	0	32840	32670	
3888	0	32800	32648	
3889	0	32848	32688	
3890	0	32814	32852	
3891	0	32816	32880	
3892	0	32808	32836	
3893	0	32844	32840	
3894	0	32796	32728	
3895	0	32816	32644	
3896	0	32834	32692	
3897	0	32816	32730	
3898	0	32712	32704	
3899	0	32792	32820	
3900	0	32794	32778	
3901	0	32892	32704	
3902	0	32826	32708	
3903	0	32836	32816	
3904	0	32840	32848	
3905	0	32772	32768	
3906	0	32802	32712	
3907	0	32772	32746	
3908	0	32748	32816	
3909	0	32846	32740	
3910	0	32890	32822	
3911	0	32844	32836	
3912	0	32792	32720	
3913	0	32808	32736	
3914	0	32880	32760	
3915	0	32824	32744	
3916	0	32804	32672	
3917	0	32812	32766	
3918	0	32800	32712	
3919	0	32792	32736	
3920	0	32760	32698	
3921	0	32824	32768	
3922	0	32776	32792	
3923	0	32848	32742	
3924	0	32864	32778	
3925	0	32784	32780	
3926	0	32874	32764	
3927	0	32820	32804	
3928	0	32768	32820	
3929	0	32776	32760	
3930	0	32808	32868	
3931	0	32832	32756	
3932	0	32812	32768	
3933	0	32820	32702	
3934	0	32816	32752	
3935	0	32812	32812	
3936	0	32800	32660	
3937	0	32820	32800	
3938	0	32800	32750	
3939	0	32780	32660	
3940	0	32784	32710	
3941	0	32816	32775	
3942	0	32806	32768	
3943	0	32748	32754	
3944	0	32896	32746	
3945	0	32856	32744	
3946	0	32832	32682	
3947	0	32848	32836	
3948	0	32836	32754	
3949	0	32788	32660	
3950	0	32728	32876	
3951	0	32820	32744	
3952	0	32780	32708	
3953	0	32900	32812	
3954	0	32820	32768	
3955	0	32796	32660	
3956	0	32824	32676	
3957	0	32788	32760	
3958	0	32768	32744	
3959	0	32816	32672	
3960	0	32832	32764	
3961	0	32840	32762	
3962	0	32824	32804	
3963	0	32828	32700	
3964	0	32874	32800	
3965	0	32820	32774	
3966	0	32860	32712	
3967	0	32768	32768	
3968	0	32888	32802	
3969	0	32804	32820	
3970	0	32802	32656	
3971	0	32788	32828	
3972	0	32844	32774	
3973	0	32836	32808	
3974	0	32826	32664	
3975	0	32860	32748	
3976	0	32762	32726	
3977	0	32796	32736	
3978	0	32724	32780	
3979	0	32752	32744	
3980	0	32856	32820	
3981	0	32760	32850	
3982	0	32808	32884	
3983	0	32828	32832	
3984	0	32854	32834	
3985	0	32856	32896	
3986	0	32852	32846	
3987	0	32880	32740	
3988	0	32804	32740	
3989	0	32836	32820	
3990	0	32872	32728	
3991	0	32800	32648	
3992	0	32834	32892	
3993	0	32888	32736	
3994	0	32832	32656	
3995	0	32768	32732	
3996	0	32788	32840	
3997	0	32764	32924	
3998	0	32736	32840	
3999	0	32800	32884	
4000	0	32808	32724	
4001	0	32800	32684	
4002	0	32876	32775	
4003	0	32760	32668	
4004	0	32856	32840	
4005	0	32748	32768	
4006	0	32844	32682	
4007	0	32796	32698	
4008	0	32792	32776	
4009	0	32836	32736	
4010	0	32816	32708	
4011	0	32780	32808	
4012	0	32944	32702	
4013	0	32832	32774	
4014	0	32816	32732	
4015	0	32744	32792	
4016	0	32806	32752	
4017	0	32820	32672	
4018	0	32824	32774	
4019	0	32874	32826	
4020	0	32788	32704	
4021	0	32788	32748	
4022	0	32818	32826	
4023	0	32804	32742	
4024	0	32830	32752	
4025	0	32728	32816	
4026	0	32896	32684	
4027	0	32826	32776	
4028	0	32828	32708	
4029	0	32876	32828	
4030	0	32846	32758	
4031	0	32760	32716	
4032	0	32792	32786	
4033	0	32884	32774	
4034	0	32772	32720	
4035	0	32864	32712	
4036	0	32816	32780	
4037	0	32808	32836	
4038	0	32772	32696	
4039	0	32772	32754	
4040	0	32788	32680	
4041	0	32864	32696	
4042	0	32880	32728	
4043	0	32748	32742	
4044	0	32840	32820	
4045	0	32820	32786	
4046	0	32816	32774	
4047	0	32832	32868	
4048	0	32844	32722	
4049	0	32810	32744	
4050	0	32752	32806	
4051	0	32792	32816	
4052	0	32822	32724	
4053	0	32804	32786	
4054	0	32834	32908	
4055	0	32802	32732	
4056	0	32768	32840	
4057	0	32778	32804	
4058	0	32804	32730	
4059	0	32804	32828	
4060	0	32808	32828	
4061	0	32816	32692	
4062	0	32800	32832	
4063	0	32792	32780	
4064	0	32874	32690	
4065	0	32804	32698	
4066	0	32744	32796	
4067	0	32836	32640	
4068	0	32812	32672	
4069	0	32880	32664	
4070	0	32800	32784	
4071	0	32788	32874	
4072	0	32860	32700	
4073	0	32776	32700	
4074	0	32778	32632	
4075	0	32868	32890	
4076	0	32856	32856	
4077	0	32796	32752	
4078	0	32832	32700	
4079	0	32796	32772	
4080	0	32800	32728	
4081	0	32746	32772	
4082	0	32798	32820	
4083	0	32844	32832	
4084	0	32820	32812	
4085	0	32824	32792	
4086	0	32788	32788	
4087	0	32832	32798	
4088	0	32872	32852	
4089	0	32820	32656	
4090	0	32766	32598	
4091	0	32828	32708	
4092	0	32824	32706	
4093	0	32753	32784	
4094	0	32764	32796	
4095	0	32772	32736	
4096	0	32716	32764	
4097	0	32752	32724	
4098	0	32852	32664	
4099	0	32776	32710	
4100	0	32776	32714	
4101	0	32834	32708	
4102	0	32792	32828	
4103	0	32828	32790	
4104	0	32848	32802	
4105	0	32764	32820	
4106	0	32768	32810	
4107	0	32832	32748	
4108	0	32820	32732	
4109	0	32824	32716	
4110	0	32824	32804	
4111	0	32804	32720	
4112	0	32784	32806	
4113	0	32820	32789	
4114	0	32844	32748	
4115	0	32786	32802	
4116	0	32884	32722	
4117	0	32780	32802	
4118	0	32788	32804	
4119	0	32746	32670	
4120	0	32778	32682	
4121	0	32868	32746	
4122	0	32872	32736	
4123	0	32758	32730	
4124	0	32804	32700	
4125	0	32768	32854	
4126	0	32822	32908	
4127	0	32848	32756	
4128	0	32730	32710	
4129	0	32784	32744	
4130	0	32812	32770	
4131	0	32776	32775	
4132	0	32860	32828	
4133	0	32768	32738	
4134	0	32816	32750	
4135	0	32816	32740	
4136	0	32824	32788	
4137	0	32788	32732	
4138	0	32792	32774	
4139	0	32784	32786	
4140	0	32788	32620	
4141	0	32794	32775	
4142	0	32784	32796	
4143	0	32788	32710	
4144	0	32782	32792	
4145	0	32832	32688	
4146	0	32854	32736	
4147	0	32820	32656	
4148	0	32826	32618	
4149	0	32748	32780	
4150	0	32796	32688	
4151	0	32864	32788	
4152	0	32856	32730	
4153	0	32780	32854	
4154	0	32770	32652	
4155	0	32746	32664	
4156	0	32822	32758	
4157	0	32800	32840	
4158	0	32780	32752	
4159	0	32776	32896	
4160	0	32818	32796	
4161	0	32828	32700	
4162	0	32824	32692	
4163	0	32768	32730	
4164	0	32834	32774	
4165	0	32776	32852	
4166	0	32892	32826	
4167	0	32736	32796	
4168	0	32804	32808	
4169	0	32796	32890	
4170	0	32892	32736	
4171	0	32836	32732	
4172	0	32792	32760	
4173	0	32866	32760	
4174	0	32798	32828	
4175	0	32786	32842	
4176	0	32820	32744	
4177	0	32828	32832	
4178	0	32730	32806	
4179	0	32820	32700	
4180	0	32820	32760	
4181	0	32740	32850	
4182	0	32818	32868	
4183	0	32840	32858	
4184	0	32744	32848	
4185	0	32836	32712	
4186	0	32788	32662	
4187	0	32832	32788	
4188	0	32788	32816	
4189	0	32836	32794	
4190	0	32852	32878	
4191	0	32764	32800	
4192	0	32854	32762	
4193	0	32816	32706	
4194	0	32848	32748	
4195	0	32772	32712	
4196	0	32756	32818	
4197	0	32812	32852	
4198	0	32764	32738	
4199	0	32852	32824	
4200	0	32744	32800	
4201	0	32840	32684	
4202	0	32820	32620	
4203	0	32836	32612	
4204	0	32856	32740	
4205	0	32788	32760	
4206	0	32852	32828	
4207	0	32780	32824	
4208	0	32854	32772	
4209	0	32810	32772	
4210	0	32816	32776	
4211	0	32792	32866	
4212	0	32880	32900	
4213	0	32760	32728	
4214	0	32840	32830	
4215	0	32808	32756	
4216	0	32808	32800	
4217	0	32836	32716	
4218	0	32768	32708	
4219	0	32866	32696	
4220	0	32744	32744	
4221	0	32810	32716	
4222	0	32860	32850	
4223	0	32808	32860	
4224	0	32764	32792	
4225	0	32786	32730	
4226	0	32834	32724	
4227	0	32760	32734	
4228	0	32848	32808	
4229	0	32896	32688	
4230	0	32804	32800	
4231	0	32768	32678	
4232	0	32810	32680	
4233	0	32776	32688	
4234	0	32800	32840	
4235	0	32768	32774	
4236	0	32768	32764	
4237	0	32788	32784	
4238	0	32878	32820	
4239	0	32732	32668	
4240	0	32776	32846	
4241	0	32801	32816	
4242	0	32860	32658	
4243	0	32764	32692	
4244	0	32844	32688	
4245	0	32822	32776	
4246	0	32792	32744	
4247	0	32820	32758	
4248	0	32856	32752	
4249	0	32808	32670	
4250	0	32872	32740	
4251	0	32780	32775	
4252	0	32764	32870	
4253	0	32794	32716	
4254	0	32800	32700	
4255	0	32820	32778	
4256	0	32848	32822	
4257	0	32760	32748	
4258	0	32800	32696	
4259	0	32772	32698	
4260	0	32800	32830	
4261	0	32776	32744	
4262	0	32836	32716	
4263	0	32868	32740	
4264	0	32836	32808	
4265	0	32792	32708	
4266	0	32752	32720	
4267	0	32792	32748	
4268	0	32736	32788	
4269	0	32860	32766	
4270	0	32820	32676	
4271	0	32802	32775	
4272	0	32824	32824	
4273	0	32756	32736	
4274	0	32856	32768	
4275	0	32840	32872	
4276	0	32766	32592	
4277	0	32822	32775	
4278	0	32792	32840	
4279	0	32844	32680	
4280	0	32776	32814	
4281	0	32820	32836	
4282	0	32792	32878	
4283	0	32776	32672	
4284	0	32828	32730	
4285	0	32832	32766	
4286	0	32790	32712	
4287	0	32798	32814	
4288	0	32796	32864	
4289	0	32780	32674	
4290	0	32820	32774	
4291	0	32772	32810	
4292	0	32856	32740	
4293	0	32800	32824	
4294	0	32824	32656	
4295	0	32850	32775	
4296	0	32788	32836	
4297	0	32824	32742	
4298	0	32800	32824	
4299	0	32796	32718	
4300	0	32832	32792	
4301	0	32828	32948	
4302	0	32798	32736	
4303	0	32752	32856	
4304	0	32828	32832	
4305	0	32796	32696	
4306	0	32848	32800	
4307	0	32812	32784	
4308	0	32804	32652	
4309	0	32810	32814	
4310	0	32808	32812	
4311	0	32808	32736	
4312	0	32824	32836	
4313	0	32900	32828	
4314	0	32856	32724	
4315	0	32834	32768	
4316	0	32816	32800	
4317	0	32828	32716	
4318	0	32808	32814	
4319	0	32788	32820	
4320	0	32796	32720	
4321	0	32832	32816	
4322	0	32832	32816	
4323	0	32836	32754	
4324	0	32872	32784	
4325	0	32840	32768	
4326	0	32768	32684	
4327	0	32764	32780	
4328	0	32864	32784	
4329	0	32852	32740	
4330	0	32768	32740	
4331	0	32884	32847	
4332	0	32808	32754	
4333	0	32770	32762	
4334	0	32780	32820	
4335	0	32772	32732	
4336	0	32832	32756	
4337	0	32744	32768	
4338	0	32812	32762	
4339	0	32786	32788	
4340	0	32824	32838	
4341	0	32820	32642	
4342	0	32788	32824	
4343	0	32792	32872	
4344	0	32720	32756	
4345	0	32832	32904	
4346	0	32828	32768	
4347	0	32776	32692	
4348	0	32814	32708	
4349	0	32792	32840	
4350	0	32820	32840	
4351	0	32836	32700	
4352	0	32900	32906	
4353	0	32800	32900	
4354	0	32860	32816	
4355	0	32794	32844	
4356	0	32804	32868	
4357	0	32804	32774	
4358	0	32792	32904	
4359	0	32808	32784	
4360	0	32804	32728	
4361	0	32808	32770	
4362	0	32826	32812	
4363	0	32800	32822	
4364	0	32794	32736	
4365	0	32834	32800	
4366	0	32810	32808	
4367	0	32780	32710	
4368	0	32848	32724	
4369	0	32852	32760	
4370	0	32800	32744	
4371	0	32824	32757	
4372	0	32830	32745	
4373	0	32848	32666	
4374	0	32836	32775	
4375	0	32780	32760	
4376	0	32800	32654	
4377	0	32792	32738	
4378	0	32820	32660	
4379	0	32858	32676	
4380	0	32696	32652	
4381	0	32844	32684	
4382	0	32800	32708	
4383	0	32900	32718	
4384	0	32824	32620	
4385	0	32840	32710	
4386	0	32840	32775	
4387	0	32800	32708	
4388	0	32740	32752	
4389	0	32808	32748	
4390	0	32810	32716	
4391	0	32768	32688	
4392	0	32812	32720	
4393	0	32816	32722	
4394	0	32788	32744	
4395	0	32840	32672	
4396	0	32844	32736	
4397	0	32792	32708	
4398	0	32772	32798	
4399	0	32788	32738	
4400	0	32770	32694	
4401	0	32748	32724	
4402	0	32824	32800	
4403	0	32828	32906	
4404	0	32892	32814	
4405	0	32856	32742	
4406	0	32732	32770	
4407	0	32764	32774	
4408	0	32832	32728	
4409	0	32800	32740	
4410	0	32780	32716	
4411	0	32848	32823	
4412	0	32860	32788	
4413	0	32892	32696	
4414	0	32880	32744	
4415	0	32848	32736	
4416	0	32750	32650	
4417	0	32836	32766	
4418	0	32834	32790	
4419	0	32826	32622	
4420	0	32800	32726	
4421	0	32812	32756	
4422	0	32792	32808	
4423	0	32784	32804	
4424	0	32828	32768	
4425	0	32824	32702	
4426	0	32800	32652	
4427	0	32780	32728	
4428	0	32800	32854	
4429	0	32788	32832	
4430	0	32800	32762	
4431	0	32836	32718	
4432	0	32830	32772	
4433	0	32796	32804	
4434	0	32896	32816	
4435	0	32852	32780	
4436	0	32808	32694	
4437	0	32832	32810	
4438	0	32848	32804	
4439	0	32848	32812	
4440	0	32826	32776	
4441	0	32778	32796	
4442	0	32832	32760	
4443	0	32748	32760	
4444	0	32804	32814	
4445	0	32816	32800	
4446	0	32826	32776	
4447	0	32792	32696	
4448	0	32638	32624	
4449	0	32666	32708	
4450	0	32672	32588	
4451	0	32704	32580	
4452	0	32668	32584	
4453	0	32616	32712	
4454	0	32736	32672	
4455	0	32672	32720	
4456	0	32648	32776	
4457	0	32696	32775	
4458	0	32702	32658	
4459	0	32686	32692	
4460	0	32700	32740	
4461	0	32800	32792	
4462	0	32842	32880	
4463	0	32856	32754	
4464	0	32784	32684	
4465	0	32818	32746	
4466	0	32856	32752	
4467	0	32828	32688	
4468	0	32778	32672	
4469	0	32866	32698	
4470	0	32866	32714	
4471	0	32896	32796	
4472	0	33008	32820	
4473	0	32944	32834	
4474	0	33048	32872	
4475	0	33008	32914	
4476	0	33130	33092	
4477	0	33112	33020	
4478	0	33104	32978	
4479	0	33076	33016	
4480	0	32960	32928	
4481	0	32912	32968	
4482	0	32935	32932	
4483	0	32960	32834	
4484	0	32912	32775	
4485	0	32842	32820	
4486	0	32800	32880	
4487	0	32716	32784	
4488	0	32720	32732	
4489	0	32684	32668	
4490	0	32672	32720	
4491	0	32696	32560	
4492	0	32728	32610	
4493	0	32696	32760	
4494	0	32688	32760	
4495	0	32708	32768	
4496	0	32704	32736	
4497	0	32800	32716	
4498	0	32790	32772	
4499	0	32746	32880	
4500	0	32712	32664	
4501	0	32780	32628	
4502	0	32800	32672	
4503	0	32778	32744	
4504	0	32792	32880	
4505	0	32816	32752	
4506	0	32780	32774	
4507	0	32804	32760	
4508	0	32796	32836	
4509	0	32836	32796	
4510	0	32828	32816	
4511	0	32816	32692	
4512	0	32786	32792	
4513	0	32834	32752	
4514	0	32860	32756	
4515	0	32804	32832	
4516	0	32796	32802	
4517	0	32780	32828	
4518	0	32784	32798	
4519	0	32800	32728	
4520	0	32788	32802	
4521	0	32812	32816	
4522	0	32832	32920	
4523	0	32824	32772	
4524	0	32820	32712	
4525	0	32856	32712	
4526	0	32840	32684	
4527	0	32792	32708	
4528	0	32808	32720	
4529	0	32792	32728	
4530	0	32770	32708	
4531	0	32850	32746	
4532	0	32780	32752	
4533	0	32808	32808	
4534	0	32760	32718	
4535	0	32852	32700	
4536	0	32762	32816	
4537	0	32816	32820	
4538	0	32796	32698	
4539	0	32810	32724	
4540	0	32816	32740	
4541	0	32876	32706	
4542	0	32820	32788	
4543	0	32838	32794	
4544	0	32752	32844	
4545	0	32792	32862	
4546	0	32776	32838	
4547	0	32856	32672	
4548	0	32800	32726	
4549	0	32866	32656	
4550	0	32780	32670	
4551	0	32810	32752	
4552	0	32812	32752	
4553	0	32790	32706	
4554	0	32808	32772	
4555	0	32826	32828	
4556	0	32796	32700	
4557	0	32844	32640	
4558	0	32846	32696	
4559	0	32752	32704	
4560	0	32836	32634	
4561	0	32808	32676	
4562	0	32736	32728	
4563	0	32804	32750	
4564	0	32796	32810	
4565	0	32836	32784	
4566	0	32788	32864	
4567	0	32880	32792	
4568	0	32768	32640	
4569	0	32820	32687	
4570	0	32768	32746	
4571	0	32752	32784	
4572	0	32820	32710	
4573	0	32768	32780	
4574	0	32876	32752	
4575	0	32804	32856	
4576	0	32792	32692	
4577	0	32792	32684	
4578	0	32840	32772	
4579	0	32832	32742	
4580	0	32824	32804	
4581	0	32834	32792	
4582	0	32788	32782	
4583	0	32788	32792	
4584	0	32808	32648	
4585	0	32824	32780	
4586	0	32760	32806	
4587	0	32840	32868	
4588	0	32848	32826	
4589	0	32840	32786	
4590	0	32836	32852	
4591	0	32808	32878	
4592	0	32858	32772	
4593	0	32852	32688	
4594	0	32762	32860	
4595	0	32792	32772	
4596	0	32788	32788	
4597	0	32782	32758	
4598	0	32794	32775	
4599	0	32832	32786	
4600	0	32864	32814	
4601	0	32826	32796	
4602	0	32762	32740	
4603	0	32798	32752	
4604	0	32740	32746	
4605	0	32800	32810	
4606	0	32796	32784	
4607	0	32900	32686	
4608	0	32816	32848	
4609	0	32784	32788	
4610	0	32824	32796	
4611	0	32812	32734	
4612	0	32848	32798	
4613	0	32794	32712	
4614	0	32808	32820	
4615	0	32768	32664	
4616	0	32832	32812	
4617	0	32788	32836	
4618	0	32800	32804	
4619	0	32792	32812	
4620	0	32796	32812	
4621	0	32816	32812	
4622	0	32772	32744	
4623	0	32784	32732	
4624	0	32904	32792	
4625	0	32788	32650	
4626	0	32820	32646	
4627	0	32808	32678	
4628	0	32828	32772	
4629	0	32828	32797	
4630	0	32768	32766	
4631	0	32762	32704	
4632	0	32818	32808	
4633	0	32802	32766	
4634	0	32816	32740	
4635	0	32762	32780	
4636	0	32740	32832	
4637	0	32824	32804	
4638	0	32792	32740	
4639	0	32800	32616	
4640	0	32784	32760	
4641	0	32828	32804	
4642	0	32820	32710	
4643	0	32812	32820	
4644	0	32768	32734	
4645	0	32816	32804	
4646	0	32804	32728	
4647	0	32824	32740	
4648	0	32780	32768	
4649	0	32826	32816	
4650	0	32788	32686	
4651	0	32808	32764	
4652	0	32860	32822	
4653	0	32818	32736	
4654	0	32776	32840	
4655	0	32824	32786	
4656	0	32808	32768	
4657	0	32796	32728	
4658	0	32768	32738	
4659	0	32788	32712	
4660	0	32780	32738	
4661	0	32836	32760	
4662	0	32808	32760	
4663	0	32808	32726	
4664	0	32796	32780	
4665	0	32802	32798	
4666	0	32784	32688	
4667	0	32836	32770	
4668	0	32784	32844	
4669	0	32768	32632	
4670	0	32776	32764	
4671	0	32768	32840	
4672	0	32802	32672	
4673	0	32750	32800	
4674	0	32862	32778	
4675	0	32812	32866	
4676	0	32808	32644	
4677	0	32832	32948	
4678	0	32894	32888	
4679	0	32792	32688	
4680	0	32796	32852	
4681	0	32800	32838	
4682	0	32800	32768	
4683	0	32752	32660	
4684	0	32776	32736	
4685	0	32788	32812	
4686	0	32828	32744	
4687	0	32776	32732	
4688	0	32772	32832	
4689	0	32810	32870	
4690	0	32812	32874	
4691	0	32764	32802	
4692	0	32884	32808	
4693	0	32816	32712	
4694	0	32784	32844	
4695	0	32836	32708	
4696	0	32780	32692	
4697	0	32856	32832	
4698	0	32868	32816	
4699	0	32796	32774	
4700	0	32840	32792	
4701	0	32808	32748	
4702	0	32752	32742	
4703	0	32834	32776	
4704	0	32788	32736	
4705	0	32824	32800	
4706	0	32784	32748	
4707	0	32760	32704	
4708	0	32920	32828	
4709	0	32856	32728	
4710	0	32804	32746	
4711	0	32852	32748	
4712	0	32880	32728	
4713	0	32772	32832	
4714	0	32800	32772	
4715	0	32832	32820	
4716	0	32786	32736	
4717	0	32792	32768	
4718	0	32904	32728	
4719	0	32810	32844	
4720	0	32840	32808	
4721	0	32784	32736	
4722	0	32780	32794	
4723	0	32872	32810	
4724	0	32864	32820	
4725	0	32824	32708	
4726	0	32816	32768	
4727	0	32812	32780	
4728	0	32880	32774	
4729	0	32824	32704	
4730	0	32784	32748	
4731	0	32798	32838	
4732	0	32844	32764	
4733	0	32822	32768	
4734	0	32810	32766	
4735	0	32778	32840	
4736	0	32736	32724	
4737	0	32760	32744	
4738	0	32784	32738	
4739	0	32836	32796	
4740	0	32852	32724	
4741	0	32792	32732	
4742	0	32820	32644	
4743	0	32812	32788	
4744	0	32792	32775	
4745	0	32816	32698	
4746	0	32852	32860	
4747	0	32808	32764	
4748	0	32804	32650	
4749	0	32792	32676	
4750	0	32810	32720	
4751	0	32836	32768	
4752	0	32804	32678	
4753	0	32778	32760	
4754	0	32778	32856	
4755	0	32824	32706	
4756	0	32800	32804	
4757	0	32812	32784	
4758	0	32832	32688	
4759	0	32820	32746	
4760	0	32788	32614	
4761	0	32808	32692	
4762	0	32772	32848	
4763	0	32736	32792	
4764	0	32820	32868	
4765	0	32802	32868	
4766	0	32808	32730	
4767	0	32816	32768	
4768	0	32834	32828	
4769	0	32804	32710	
4770	0	32816	32788	
4771	0	32776	32748	
4772	0	32804	32716	
4773	0	32848	32788	
4774	0	32820	32764	
4775	0	32832	32784	
4776	0	32800	32736	
4777	0	32788	32840	
4778	0	32856	32804	
4779	0	32792	32732	
4780	0	32820	32780	
4781	0	32774	32742	
4782	0	32768	32814	
4783	0	32776	32676	
4784	0	32812	32718	
4785	0	32808	32836	
4786	0	32844	32670	
4787	0	32858	32824	
4788	0	32818	32772	
4789	0	32800	32884	
4790	0	32792	32684	
4791	0	32820	32712	
4792	0	32840	32730	
4793	0	32808	32792	
4794	0	32768	32728	
4795	0	32834	32848	
4796	0	32828	32775	
4797	0	32842	32810	
4798	0	32868	32790	
4799	0	32820	32704	
4800	0	32778	32774	
4801	0	32752	32656	
4802	0	32800	32660	
4803	0	32842	32768	
4804	0	32808	32866	
4805	0	32780	32774	
4806	0	32780	32792	
4807	0	32840	32768	
4808	0	32858	32778	
4809	0	32756	32816	
4810	0	32812	32732	
4811	0	32772	32708	
4812	0	32832	32784	
4813	0	32820	32788	
4814	0	32844	32660	
4815	0	32800	32800	
4816	0	32844	32788	
4817	0	32824	32712	
4818	0	32748	32680	
4819	0	32836	32772	
4820	0	32820	32780	
4821	0	32748	32826	
4822	0	32872	32932	
4823	0	32772	32782	
4824	0	32804	32848	
4825	0	32852	32824	
4826	0	32780	32636	
4827	0	32812	32748	
4828	0	32792	32734	
4829	0	32824	32732	
4830	0	32812	32838	
4831	0	32874	32774	
4832	0	32758	32620	
4833	0	32792	32762	
4834	0	32900	32848	
4835	0	32844	32758	
4836	0	32852	32752	
4837	0	32760	32746	
4838	0	32764	32756	
4839	0	32700	32746	
4840	0	32808	32716	
4841	0	32768	32760	
4842	0	32848	32796	
4843	0	32810	32788	
4844	0	32808	32784	
4845	0	32804	32772	
4846	0	32784	32628	
4847	0	32856	32758	
4848	0	32832	32720	
4849	0	32818	32808	
4850	0	32820	32838	
4851	0	32832	32836	
4852	0	32796	32836	
4853	0	32802	32740	
4854	0	32768	32672	
4855	0	32858	32768	
4856	0	32800	32756	
4857	0	32778	32754	
4858	0	32884	32856	
4859	0	32776	32826	
4860	0	32768	32688	
4861	0	32784	32848	
4862	0	32836	32810	
4863	0	32820	32688	
4864	0	32784	32748	
4865	0	32828	32770	
4866	0	32816	32682	
4867	0	32820	32804	
4868	0	32820	32872	
4869	0	32804	32700	
4870	0	32804	32768	
4871	0	32792	32804	
4872	0	32810	32656	
4873	0	32800	32774	
4874	0	32754	32798	
4875	0	32740	32672	
4876	0	32824	32828	
4877	0	32804	32866	
4878	0	32856	32752	
4879	0	32764	32812	
4880	0	32772	32800	
4881	0	32784	32662	
4882	0	32844	32840	
4883	0	32798	32774	
4884	0	32824	32692	
4885	0	32812	32726	
4886	0	32788	32768	
4887	0	32804	32778	
4888	0	32808	32772	
4889	0	32856	32828	
4890	0	32908	32816	
4891	0	32800	32696	
4892	0	32818	32686	
4893	0	32756	32802	
4894	0	32810	32836	
4895	0	32756	32726	
4896	0	32842	32692	
4897	0	32816	32740	
4898	0	32844	32906	
4899	0	32836	32696	
4900	0	32876	32772	
4901	0	32756	32774	
4902	0	32772	32844	
4903	0	32836	32676	
4904	0	32772	32810	
4905	0	32864	32810	
4906	0	32872	32836	
4907	0	32778	32720	
4908	0	32768	32728	
4909	0	32832	32782	
4910	0	32856	32752	
4911	0	32860	32790	
4912	0	32832	32792	
4913	0	32784	32746	
4914	0	32756	32728	
4915	0	32844	32796	
4916	0	32826	32706	
4917	0	32804	32830	
4918	0	32804	32706	
4919	0	32776	32810	
4920	0	32836	32858	
4921	0	32804	32716	
4922	0	32816	32844	
4923	0	32764	32804	
4924	0	32768	32716	
4925	0	32818	32836	
4926	0	32852	32828	
4927	0	32862	32746	
4928	0	32804	32676	
4929	0	32854	32764	
4930	0	32840	32820	
4931	0	32896	32632	
4932	0	32784	32784	
4933	0	32824	32772	
4934	0	32808	32790	
4935	0	32832	32720	
4936	0	32802	32868	
4937	0	32832	32806	
4938	0	32808	32736	
4939	0	32764	32678	
4940	0	32816	32698	
4941	0	32824	32790	
4942	0	32848	32732	
4943	0	32848	32812	
4944	0	32776	32748	
4945	0	32778	32684	
4946	0	32776	32762	
4947	0	32800	32888	
4948	0	32802	32758	
4949	0	32808	32636	
4950	0	32810	32752	
4951	0	32832	32782	
4952	0	32904	32706	
4953	0	32808	32724	
4954	0	32808	32738	
4955	0	32796	32808	
4956	0	32836	32768	
4957	0	32810	32692	
4958	0	32856	32772	
4959	0	32824	32766	
4960	0	32788	32676	
4961	0	32800	32808	
4962	0	32776	32775	
4963	0	32870	32728	
4964	0	32810	32792	
4965	0	32738	32828	
4966	0	32832	32800	
4967	0	32784	32740	
4968	0	32868	32772	
4969	0	32850	32778	
4970	0	32808	32692	
4971	0	32808	32754	
4972	0	32792	32760	
4973	0	32852	32720	
4974	0	32844	32752	
4975	0	32792	32874	
4976	0	32792	32724	
4977	0	32776	32746	
4978	0	32832	32704	
4979	0	32808	32704	
4980	0	32760	32704	
4981	0	32780	32740	
4982	0	32824	32800	
4983	0	32816	32836	
4984	0	32836	32740	
4985	0	32772	32842	
4986	0	32832	32752	
4987	0	32820	32696	
4988	0	32792	32775	
4989	0	32836	32856	
4990	0	32824	32708	
4991	0	32780	32908	
4992	0	32816	32808	
4993	0	32820	32862	
4994	0	32840	32680	
4995	0	32744	32770	
4996	0	32844	32728	
4997	0	32804	32676	
4998	0	32792	32680	
4999	0	32778	32756	
5000	0	32808	32858	
5001	0	32808	32730	
5002	0	32804	32900	
5003	0	32772	32862	
5004	0	32816	32714	
5005	0	32832	32672	
5006	0	32808	32792	
5007	0	32856	32872	
5008	0	32802	32678	
5009	0	32802	32774	
5010	0	32772	32812	
5011	0	32772	32736	
5012	0	32764	32832	
5013	0	32876	32708	
5014	0	32752	32800	
5015	0	32816	32692	
5016	0	32856	32708	
5017	0	32848	32732	
5018	0	32818	32724	
5019	0	32820	32770	
5020	0	32800	32786	
5021	0	32838	32696	
5022	0	32764	32704	
5023	0	32828	32804	
5024	0	32788	32838	
5025	0	32836	32775	
5026	0	32824	32750	
5027	0	32852	32812	
5028	0	32768	32718	
5029	0	32784	32736	
5030	0	32848	32704	
5031	0	32804	32690	
5032	0	32812	32828	
5033	0	32808	32774	
5034	0	32812	32858	
5035	0	32816	32696	
5036	0	32824	32892	
5037	0	32872	32816	
5038	0	32780	32792	
5039	0	32796	32732	
5040	0	32738	32788	
5041	0	32834	32836	
5042	0	32804	32688	
5043	0	32770	32792	
5044	0	32860	32840	
5045	0	32796	32750	
5046	0	32780	32728	
5047	0	32880	32784	
5048	0	32788	32775	
5049	0	32816	32668	
5050	0	32816	32812	
5051	0	32852	32818	
5052	0	32796	32688	
5053	0	32854	32772	
5054	0	32816	32774	
5055	0	32816	32670	
5056	0	32830	32836	
5057	0	32776	32846	
5058	0	32828	32756	
5059	0	32816	32770	
5060	0	32800	32740	
5061	0	32778	32792	
5062	0	32818	32792	
5063	0	32712	32838	
5064	0	32848	32718	
5065	0	32776	32804	
5066	0	32800	32775	
5067	0	32800	32668	
5068	0	32800	32752	
5069	0	32804	32740	
5070	0	32792	32716	
5071	0	32840	32842	
5072	0	32804	32784	
5073	0	32812	32816	
5074	0	32834	32712	
5075	0	32816	32708	
5076	0	32816	32688	
5077	0	32788	32728	
5078	0	32828	32820	
5079	0	32808	32724	
5080	0	32828	32874	
5081	0	32864	32890	
5082	0	32734	32748	
5083	0	32820	32748	
5084	0	32776	32764	
5085	0	32836	32774	
5086	0	32852	32708	
5087	0	32828	32628	
5088	0	32812	32828	
5089	0	32800	32788	
5090	0	32724	32696	
5091	0	32856	32770	
5092	0	32824	32644	
5093	0	32834	32846	
5094	0	32816	32844	
5095	0	32784	32732	
5096	0	32820	32820	
5097	0	32832	32708	
5098	0	32862	32860	
5099	0	32816	32772	
5100	0	32802	32650	
5101	0	32828	32772	
5102	0	32756	32740	
5103	0	32812	32786	
5104	0	32772	32764	
5105	0	32814	32816	
5106	0	32832	32768	
5107	0	32834	32794	
5108	0	32776	32788	
5109	0	32828	32596	
5110	0	32840	32832	
5111	0	32812	32804	
5112	0	32758	32838	
5113	0	32868	32679	
5114	0	32824	32804	
5115	0	32808	32846	
5116	0	32780	32700	
5117	0	32888	32836	
5118	0	32800	32696	
5119	0	32832	32762	
5120	0	32832	32676	
5121	0	32800	32736	
5122	0	32798	32742	
5123	0	32812	32820	
5124	0	32740	32808	
5125	0	32824	32884	
5126	0	32852	32748	
5127	0	32780	32775	
5128	0	32842	32836	
5129	0	32760	32676	
5130	0	32828	32846	
5131	0	32834	32742	
5132	0	32826	32660	
5133	0	32792	32762	
5134	0	32822	32722	
5135	0	32820	32720	
5136	0	32794	32780	
5137	0	32800	32800	
5138	0	32760	32828	
5139	0	32748	32738	
5140	0	32868	32676	
5141	0	32772	32720	
5142	0	32840	32648	
5143	0	32740	32732	
5144	0	32808	32652	
5145	0	32880	32778	
5146	0	32824	32732	
5147	0	32816	32828	
5148	0	32860	32830	
5149	0	32738	32748	
5150	0	32824	32756	
5151	0	32764	32775	
5152	0	32804	32748	
5153	0	32844	32830	
5154	0	32892	32764	
5155	0	32888	32764	
5156	0	32788	32746	
5157	0	32892	32770	
5158	0	32788	32684	
5159	0	32740	32738	
5160	0	32784	32742	
5161	0	32808	32684	
5162	0	32760	32838	
5163	0	32800	32880	
5164	0	32732	32752	
5165	0	32802	32800	
5166	0	32900	32844	
5167	0	32816	32660	
5168	0	32780	32816	
5169	0	32784	32916	
5170	0	32810	32720	
5171	0	32844	32760	
5172	0	32776	32716	
5173	0	32788	32746	
5174	0	32825	32782	
5175	0	32840	32852	
5176	0	32848	32672	
5177	0	32876	32776	
5178	0	32772	32700	
5179	0	32760	32752	
5180	0	32746	32772	
5181	0	32818	32770	
5182	0	32772	32680	
5183	0	32812	32770	
5184	0	32776	32844	
5185	0	32808	32682	
5186	0	32796	32764	
5187	0	32808	32812	
5188	0	32772	32746	
5189	0	32820	32692	
5190	0	32832	32874	
5191	0	32844	32810	
5192	0	32758	32808	
5193	0	32800	32784	
5194	0	32840	32784	
5195	0	32832	32886	
5196	0	32792	32712	
5197	0	32766	32832	
5198	0	32808	32756	
5199	0	32768	32720	
5200	0	32800	32804	
5201	0	32788	32754	
5202	0	32816	32810	
5203	0	32864	32857	
5204	0	32824	32856	
5205	0	32768	32768	
5206	0	32828	32732	
5207	0	32812	32746	
5208	0	32802	32698	
5209	0	32816	32756	
5210	0	32830	32852	
5211	0	32834	32724	
5212	0	32796	32716	
5213	0	32824	32770	
5214	0	32804	32810	
5215	0	32776	32720	
5216	0	32804	32804	
5217	0	32804	32752	
5218	0	32798	32740	
5219	0	32780	32828	
5220	0	32776	32774	
5221	0	32760	32774	
5222	0	32796	32774	
5223	0	32760	32724	
5224	0	32788	32780	
5225	0	32816	32768	
5226	0	32800	32670	
5227	0	32826	32804	
5228	0	32776	32788	
5229	0	32796	32680	
5230	0	32896	32808	
5231	0	32844	32756	
5232	0	32836	32754	
5233	0	32768	32796	
5234	0	32792	32816	
5235	0	32836	32800	
5236	0	32820	32840	
5237	0	32772	32848	
5238	0	32820	32716	
5239	0	32822	32752	
5240	0	32752	32740	
5241	0	32776	32728	
5242	0	32752	32676	
5243	0	32816	32742	
5244	0	32794	32788	
5245	0	32840	32720	
5246	0	32860	32708	
5247	0	32744	32836	
5248	0	32866	32780	
5249	0	32804	32872	
5250	0	32776	32824	
5251	0	32798	32804	
5252	0	32844	32714	
5253	0	32864	32728	
5254	0	32832	32700	
5255	0	32832	32720	
5256	0	32824	32876	
5257	0	32808	32816	
5258	0	32780	32798	
5259	0	32820	32734	
5260	0	32816	32781	
5261	0	32794	32762	
5262	0	32732	32734	
5263	0	32786	32896	
5264	0	32896	32864	
5265	0	32784	32776	
5266	0	32800	32864	
5267	0	32780	32800	
5268	0	32804	32608	
5269	0	32856	32854	
5270	0	32836	32772	
5271	0	32810	32736	
5272	0	32800	32716	
5273	0	32800	32832	
5274	0	32820	32736	
5275	0	32804	32820	
5276	0	32764	32704	
5277	0	32844	32782	
5278	0	32792	32816	
5279	0	32798	32712	
5280	0	32784	32836	
5281	0	32768	32828	
5282	0	32776	32632	
5283	0	32852	32708	
5284	0	32808	32800	
5285	0	32816	32648	
5286	0	32772	32704	
5287	0	32804	32760	
5288	0	32842	32758	
5289	0	32856	32848	
5290	0	32808	32916	
5291	0	32832	32712	
5292	0	32832	32864	
5293	0	32780	32814	
5294	0	32872	32828	
5295	0	32848	32884	
5296	0	32840	32810	
5297	0	32880	32774	
5298	0	32874	32793	
5299	0	32812	32806	
5300	0	32784	32720	
5301	0	32868	32724	
5302	0	32790	32724	
5303	0	32812	32775	
5304	0	32814	32775	
5305	0	32772	32702	
5306	0	32744	32740	
5307	0	32788	32696	
5308	0	32758	32784	
5309	0	32694	32756	
5310	0	32692	32620	
5311	0	32684	32762	
5312	0	32708	32792	
5313	0	32716	32624	
5314	0	32732	32722	
5315	0	32732	32766	
5316	0	32690	32590	
5317	0	32666	32724	
5318	0	32660	32664	
5319	0	32748	32756	
5320	0	32704	32728	
5321	0	32796	32634	
5322	0	32740	32836	
5323	0	32832	32850	
5324	0	32860	32760	
5325	0	32804	32844	
5326	0	32812	32736	
5327	0	32878	32638	
5328	0	32802	32770	
5329	0	32776	32816	
5330	0	32884	32748	
5331	0	32852	32808	
5332	0	32936	32860	
5333	0	32942	32868	
5334	0	33032	32834	
5335	0	33068	32920	
5336	0	33096	32940	
5337	0	33096	32920	
5338	0	33068	32984	
5339	0	33100	32952	
5340	0	33070	33024	
5341	0	32932	32936	
5342	0	32960	32864	
5343	0	32978	32936	
5344	0	32912	32764	
5345	0	32904	32769	
5346	0	32864	32784	
5347	0	32788	32736	
5348	0	32744	32698	
5349	0	32768	32716	
5350	0	32664	32708	
5351	0	32680	32706	
5352	0	32620	32628	
5353	0	32692	32608	
5354	0	32810	32760	
5355	0	32748	32728	
5356	0	32728	32775	
5357	0	32780	32744	
5358	0	32772	32772	
5359	0	32744	32754	
5360	0	32760	32726	
5361	0	32768	32790	
5362	0	32744	32826	
5363	0	32792	32720	
5364	0	32760	32638	
5365	0	32848	32676	
5366	0	32792	32856	
5367	0	32768	32772	
5368	0	32824	32832	
5369	0	32820	32656	
5370	0	32784	32762	
5371	0	32801	32736	
5372	0	32816	32836	
5373	0	32794	32828	
5374	0	32772	32808	
5375	0	32792	32880	
5376	0	32832	32868	
5377	0	32776	32682	
5378	0	32796	32682	
5379	0	32754	32644	
5380	0	32840	32680	
5381	0	32808	32798	
5382	0	32824	32852	
5383	0	32946	32740	
5384	0	32798	32804	
5385	0	32792	32852	
5386	0	32804	32734	
5387	0	32824	32704	
5388	0	32802	32808	
5389	0	32756	32800	
5390	0	32872	32746	
5391	0	32806	32692	
5392	0	32768	32768	
5393	0	32800	32780	
5394	0	32808	32740	
5395	0	32760	32754	
5396	0	32818	32792	
5397	0	32816	32762	
5398	0	32802	32792	
5399	0	32842	32712	
5400	0	32712	32806	
5401	0	32808	32868	
5402	0	32778	32698	
5403	0	32802	32628	
5404	0	32804	32668	
5405	0	32756	32836	
5406	0	32860	32764	
5407	0	32826	32836	
5408	0	32778	32775	
5409	0	32820	32678	
5410	0	32810	32732	
5411	0	32824	32672	
5412	0	32804	32746	
5413	0	32764	32842	
5414	0	32794	32844	
5415	0	32756	32776	
5416	0	32824	32756	
5417	0	32772	32804	
5418	0	32800	32824	
5419	0	32776	32752	
5420	0	32852	32820	
5421	0	32768	32804	
5422	0	32814	32680	
5423	0	32828	32780	
5424	0	32788	32808	
5425	0	32798	32734	
5426	0	32900	32804	
5427	0	32772	32760	
5428	0	32788	32658	
5429	0	32808	32736	
5430	0	32776	32832	
5431	0	32852	32774	
5432	0	32796	32775	
5433	0	32840	32772	
5434	0	32794	32682	
5435	0	32820	32820	
5436	0	32768	32824	
5437	0	32740	32684	
5438	0	32828	32798	
5439	0	32812	32788	
5440	0	32820	32696	
5441	0	32844	32775	
5442	0	32812	32800	
5443	0	32800	32668	
5444	0	32728	32808	
5445	0	32806	32738	
5446	0	32732	32798	
5447	0	32848	32764	
5448	0	32820	32740	
5449	0	32820	32700	
5450	0	32800	32756	
5451	0	32792	32796	
5452	0	32748	32822	
5453	0	32864	32680	
5454	0	32792	32740	
5455	0	32778	32748	
5456	0	32780	32740	
5457	0	32804	32872	
5458	0	32804	32920	
5459	0	32814	32870	
5460	0	32798	32750	
5461	0	32832	32734	
5462	0	32816	32672	
5463	0	32784	32752	
5464	0	32764	32772	
5465	0	32808	32716	
5466	0	32862	32772	
5467	0	32800	32774	
5468	0	32810	32728	
5469	0	32790	32800	
5470	0	32832	32738	
5471	0	32820	32650	
5472	0	32784	32656	
5473	0	32812	32814	
5474	0	32790	32810	
5475	0	32804	32792	
5476	0	32852	32756	
5477	0	32792	32820	
5478	0	32808	32856	
5479	0	32784	32832	
5480	0	32804	32648	
5481	0	32820	32652	
5482	0	32820	32775	
5483	0	32862	32724	
5484	0	32760	32762	
5485	0	32772	32744	
5486	0	32816	32775	
5487	0	32888	32749	
5488	0	32830	32788	
5489	0	32880	32768	
5490	0	32810	32760	
5491	0	32840	32724	
5492	0	32784	32740	
5493	0	32778	32764	
5494	0	32788	32748	
5495	0	32832	32752	
5496	0	32798	32742	
5497	0	32824	32700	
5498	0	32776	32828	
5499	0	32800	32840	
5500	0	32832	32782	
5501	0	32760	32738	
5502	0	32800	32860	
5503	0	32810	32762	
5504	0	32776	32732	
5505	0	32768	32652	
5506	0	32794	32700	
5507	0	32814	32822	
5508	0	32786	32808	
5509	0	32792	32764	
5510	0	32804	32732	
5511	0	32796	32768	
5512	0	32776	32710	
5513	0	32816	32656	
5514	0	32808	32768	
5515	0	32836	32856	
5516	0	32820	32790	
5517	0	32776	32752	
5518	0	32836	32820	
5519	0	32832	32628	
5520	0	32728	32692	
5521	0	32780	32800	
5522	0	32864	32812	
5523	0	32884	32848	
5524	0	32884	32784	
5525	0	32786	32852	
5526	0	32784	32812	
5527	0	32748	32810	
5528	0	32848	32728	
5529	0	32804	32732	
5530	0	32908	32844	
5531	0	32760	32748	
5532	0	32812	32760	
5533	0	32822	32756	
5534	0	32804	32749	
5535	0	32796	32740	
5536	0	32848	32756	
5537	0	32808	32696	
5538	0	32828	32760	
5539	0	32760	32772	
5540	0	32816	32756	
5541	0	32776	32800	
5542	0	32832	32846	
5543	0	32826	32816	
5544	0	32788	32852	
5545	0	32864	32854	
5546	0	32844	32742	
5547	0	32816	32716	
5548	0	32762	32830	
5549	0	32836	32854	
5550	0	32820	32854	
5551	0	32796	32744	
5552	0	32840	32682	
5553	0	32848	32704	
5554	0	32824	32736	
5555	0	32746	32682	
5556	0	32804	32696	
5557	0	32844	32788	
5558	0	32780	32780	
5559	0	32776	32752	
5560	0	32868	32838	
5561	0	32816	32800	
5562	0	32846	32808	
5563	0	32804	32798	
5564	0	32864	32760	
5565	0	32801	32834	
5566	0	32776	32798	
5567	0	32872	32708	
5568	0	32812	32712	
5569	0	32840	32708	
5570	0	32800	32784	
5571	0	32796	32704	
5572	0	32824	32778	
5573	0	32832	32848	
5574	0	32832	32806	
5575	0	32848	32848	
5576	0	32820	32660	
5577	0	32828	32742	
5578	0	32796	32775	
5579	0	32876	32806	
5580	0	32834	32730	
5581	0	32784	32772	
5582	0	32748	32690	
5583	0	32814	32752	
5584	0	32834	32752	
5585	0	32848	32740	
5586	0	32772	32894	
5587	0	32792	32814	
5588	0	32808	32834	
5589	0	32756	32832	
5590	0	32884	32812	
5591	0	32848	32752	
5592	0	32804	32806	
5593	0	32828	32700	
5594	0	32784	32702	
5595	0	32794	32678	
5596	0	32812	32750	
5597	0	32792	32836	
5598	0	32802	32784	
5599	0	32812	32716	
5600	0	32772	32775	
5601	0	32820	32774	
5602	0	32714	32716	
5603	0	32848	32732	
5604	0	32736	32800	
5605	0	32836	32816	
5606	0	32816	32796	
5607	0	32752	32748	
5608	0	32892	32692	
5609	0	32792	32684	
5610	0	32836	32760	
5611	0	32792	32784	
5612	0	32760	32798	
5613	0	32796	32880	
5614	0	32816	32708	
5615	0	32852	32676	
5616	0	32744	32822	
5617	0	32820	32778	
5618	0	32838	32806	
5619	0	32748	32752	
5620	0	32832	32768	
5621	0	32872	32724	
5622	0	32876	32848	
5623	0	32740	32796	
5624	0	32744	32654	
5625	0	32820	32856	
5626	0	32832	32842	
5627	0	32786	32722	
5628	0	32820	32792	
5629	0	32816	32804	
5630	0	32856	32672	
5631	0	32888	32832	
5632	0	32834	32700	
5633	0	32804	32644	
5634	0	32816	32794	
5635	0	32850	32782	
5636	0	32802	32794	
5637	0	32804	32768	
5638	0	32822	32930	
5639	0	32804	32716	
5640	0	32724	32674	
5641	0	32760	32784	
5642	0	32846	32754	
5643	0	32748	32784	
5644	0	32780	32706	
5645	0	32828	32775	
5646	0	32816	32750	
5647	0	32856	32708	
5648	0	32772	32756	
5649	0	32858	32766	
5650	0	32804	32758	
5651	0	32816	32832	
5652	0	32816	32784	
5653	0	32792	32832	
5654	0	32798	32760	
5655	0	32808	32700	
5656	0	32818	32734	
5657	0	32826	32736	
5658	0	32844	32788	
5659	0	32868	32828	
5660	0	32788	32680	
5661	0	32776	32816	
5662	0	32772	32814	
5663	0	32738	32704	
5664	0	32796	32746	
5665	0	32806	32748	
5666	0	32812	32732	
5667	0	32820	32726	
5668	0	32828	32673	
5669	0	32808	32794	
5670	0	32824	32714	
5671	0	32792	32832	
5672	0	32838	32854	
5673	0	32808	32772	
5674	0	32848	32775	
5675	0	32842	32736	
5676	0	32832	32678	
5677	0	32824	32808	
5678	0	32848	32772	
5679	0	32816	32752	
5680	0	32804	32756	
5681	0	32780	32714	
5682	0	32816	32758	
5683	0	32768	32842	
5684	0	32740	32704	
5685	0	32772	32792	
5686	0	32844	32770	
5687	0	32768	32814	
5688	0	32896	32884	
5689	0	32754	32798	
5690	0	32854	32748	
5691	0	32812	32848	
5692	0	32798	32840	
5693	0	32800	32744	
5694	0	32807	32862	
5695	0	32812	32772	
5696	0	32760	32760	
5697	0	32820	32646	
5698	0	32842	32720	
5699	0	32804	32840	
5700	0	32860	32698	
5701	0	32810	32704	
5702	0	32768	32704	
5703	0	32788	32732	
5704	0	32780	32746	
5705	0	32804	32824	
5706	0	32896	32900	
5707	0	32728	32680	
5708	0	32800	32812	
5709	0	32820	32736	
5710	0	32860	32618	
5711	0	32872	32776	
5712	0	32796	32912	
5713	0	32800	32786	
5714	0	32810	32798	
5715	0	32812	32800	
5716	0	32792	32708	
5717	0	32806	32782	
5718	0	32796	32630	
5719	0	32844	32788	
5720	0	32816	32864	
5721	0	32804	32696	
5722	0	32814	32772	
5723	0	32816	32756	
5724	0	32818	32666	
5725	0	32810	32848	
5726	0	32830	32884	
5727	0	32760	32672	
5728	0	32800	32808	
5729	0	32900	32758	
5730	0	32736	32700	
5731	0	32792	32664	
5732	0	32810	32798	
5733	0	32788	32788	
5734	0	32864	32778	
5735	0	32810	32756	
5736	0	32818	32746	
5737	0	32836	32796	
5738	0	32860	32692	
5739	0	32782	32784	
5740	0	32780	32738	
5741	0	32820	32692	
5742	0	32788	32824	
5743	0	32776	32788	
5744	0	32804	32688	
5745	0	32812	32774	
5746	0	32834	32764	
5747	0	32860	32724	
5748	0	32800	32766	
5749	0	32776	32744	
5750	0	32820	32728	
5751	0	32796	32832	
5752	0	32824	32692	
5753	0	32824	32764	
5754	0	32844	32812	
5755	0	32820	32728	
5756	0	32788	32728	
5757	0	32816	32794	
5758	0	32824	32818	
5759	0	32780	32783	
5760	0	32832	32716	
5761	0	32772	32768	
5762	0	32848	32760	
5763	0	32762	32656	
5764	0	32828	32772	
5765	0	32784	32842	
5766	0	32782	32648	
5767	0	32844	32806	
5768	0	32802	32816	
5769	0	32792	32724	
5770	0	32852	32920	
5771	0	32821	32808	
5772	0	32844	32668	
5773	0	32776	32806	
5774	0	32882	32810	
5775	0	32880	32684	
5776	0	32802	32812	
5777	0	32868	32775	
5778	0	32816	32738	
5779	0	32824	32784	
5780	0	32800	32840	
5781	0	32778	32682	
5782	0	32840	32678	
5783	0	32888	32740	
5784	0	32848	32738	
5785	0	32784	32742	
5786	0	32776	32780	
5787	0	32828	32676	
5788	0	32796	32784	
5789	0	32824	32732	
5790	0	32816	32678	
5791	0	32816	32740	
5792	0	32784	32820	
5793	0	32848	32780	
5794	0	32810	32714	
5795	0	32780	32768	
5796	0	32728	32788	
5797	0	32856	32738	
5798	0	32764	32752	
5799	0	32832	32734	
5800	0	32808	32624	
5801	0	32812	32820	
5802	0	32812	32894	
5803	0	32812	32759	
5804	0	32848	32792	
5805	0	32792	32812	
5806	0	32826	32692	
5807	0	32772	32790	
5808	0	32792	32930	
5809	0	32842	32852	
5810	0	32816	32756	
5811	0	32812	32736	
5812	0	32880	32696	
5813	0	32820	32764	
5814	0	32856	32772	
5815	0	32788	32742	
5816	0	32752	32804	
5817	0	32836	32724	
5818	0	32820	32756	
5819	0	32740	32756	
5820	0	32748	32710	
5821	0	32816	32784	
5822	0	32820	32792	
5823	0	32830	32734	
5824	0	32740	32814	
5825	0	32816	32794	
5826	0	32796	32652	
5827	0	32820	32650	
5828	0	32834	32700	
5829	0	32856	32724	
5830	0	32790	32814	
5831	0	32844	32810	
5832	0	32792	32740	
5833	0	32836	32744	
5834	0	32828	32752	
5835	0	32820	32676	
5836	0	32788	32775	
5837	0	32752	32818	
5838	0	32834	32820	
5839	0	32804	32710	
5840	0	32808	32780	
5841	0	32868	32796	
5842	0	32840	32864	
5843	0	32816	32676	
5844	0	32764	32772	
5845	0	32816	32764	
5846	0	32874	32738	
5847	0	32824	32734	
5848	0	32736	32768	
5849	0	32784	32804	
5850	0	32852	32724	
5851	0	32856	32832	
5852	0	32840	32756	
5853	0	32828	32648	
5854	0	32772	32744	
5855	0	32776	32728	
5856	0	32854	32792	
5857	0	32772	32668	
5858	0	32772	32908	
5859	0	32760	32814	
5860	0	32808	32808	
5861	0	32812	32716	
5862	0	32756	32836	
5863	0	32725	32720	
5864	0	32784	32760	
5865	0	32780	32666	
5866	0	32796	32808	
5867	0	32736	32828	
5868	0	32856	32752	
5869	0	32866	32718	
5870	0	32868	32758	
5871	0	32860	32774	
5872	0	32820	32764	
5873	0	32840	32736	
5874	0	32792	32614	
5875	0	32840	32672	
5876	0	32828	32768	
5877	0	32796	32772	
5878	0	32740	32714	
5879	0	32832	32896	
5880	0	32772	32998	
5881	0	32792	32830	
5882	0	32816	32840	
5883	0	32836	32738	
5884	0	32768	32694	
5885	0	32804	32688	
5886	0	32788	32674	
5887	0	32820	32748	
5888	0	32800	32818	
5889	0	32904	32852	
5890	0	32798	32768	
5891	0	32840	32752	
5892	0	32804	32652	
5893	0	32804	32764	
5894	0	32800	32806	
5895	0	32816	32652	
5896	0	32832	32775	
5897	0	32764	32750	
5898	0	32772	32770	
5899	0	32844	32752	
5900	0	32812	32820	
5901	0	32760	32760	
5902	0	32816	32896	
5903	0	32810	32872	
5904	0	32874	32900	
5905	0	32824	32784	
5906	0	32816	32704	
5907	0	32824	32764	
5908	0	32744	32772	
5909	0	32784	32730	
5910	0	32796	32830	
5911	0	32788	32808	
5912	0	32784	32718	
5913	0	32840	32740	
5914	0	32864	32640	
5915	0	32776	32786	
5916	0	32794	32784	
5917	0	32872	32716	
5918	0	32804	32668	
5919	0	32772	32830	
5920	0	32834	32756	
5921	0	32792	32729	
5922	0	32832	32838	
5923	0	32776	32744	
5924	0	32836	32716	
5925	0	32764	32716	
5926	0	32788	32880	
5927	0	32868	32960	
5928	0	32798	32792	
5929	0	32864	32796	
5930	0	32788	32642	
5931	0	32780	32756	
5932	0	32808	32854	
5933	0	32748	32742	
5934	0	32874	32836	
5935	0	32808	32764	
5936	0	32720	32812	
5937	0	32796	32846	
5938	0	32804	32652	
5939	0	32846	32804	
5940	0	32832	32808	
5941	0	32840	32648	
5942	0	32786	32746	
5943	0	32746	32786	
5944	0	32808	32680	
5945	0	32854	32860	
5946	0	32800	32800	
5947	0	32816	32704	
5948	0	32780	32752	
5949	0	32828	32788	
5950	0	32796	32712	
5951	0	32808	32706	
5952	0	32808	32712	
5953	0	32872	32786	
5954	0	32808	32762	
5955	0	32772	32700	
5956	0	32816	32749	
5957	0	32808	32840	
5958	0	32832	32910	
5959	0	32816	32780	
5960	0	32768	32732	
5961	0	32832	32817	
5962	0	32794	32838	
5963	0	32820	32768	
5964	0	32836	32756	
5965	0	32716	32728	
5966	0	32742	32772	
5967	0	32756	32680	
5968	0	32820	32708	
5969	0	32816	32636	
5970	0	32780	32706	
5971	0	32772	32756	
5972	0	32802	32788	
5973	0	32772	32700	
5974	0	32852	32676	
5975	0	32810	32712	
5976	0	32808	32796	
5977	0	32868	32692	
5978	0	32840	32768	
5979	0	32728	32772	
5980	0	32804	32692	
5981	0	32764	32652	
5982	0	32808	32680	
5983	0	32860	32666	
5984	0	32850	32742	
5985	0	32852	32798	
5986	0	32826	32728	
5987	0	32772	32740	
5988	0	32848	32764	
5989	0	32800	32828	
5990	0	32828	32790	
5991	0	32732	32912	
5992	0	32792	32774	
5993	0	32760	32822	
5994	0	32846	32688	
5995	0	32916	32682	
5996	0	32808	32662	
5997	0	32804	32666	
5998	0	32772	32824	
5999	0	32752	32780	
6000	0	32762	32822	
6001	0	32760	32842	
6002	0	32800	32728	
6003	0	32852	32716	
6004	0	32772	32826	
6005	0	32856	32824	
6006	0	32816	32768	
6007	0	32860	32704	
6008	0	32856	32668	
6009	0	32766	32812	
6010	0	32864	32792	
6011	0	32814	32726	
6012	0	32880	32768	
