# OpenSignals Text File Format. Version 1
# {"00:07:80:8C:0A:39": {"position": 0, "device": "biosignalsplux", "device name": "00:07:80:8C:0A:39", "device connection": "BTH00:07:80:8C:0A:39", "sampling rate": 1000, "resolution": [16, 16], "firmware version": 776, "comments": "", "keywords": "", "mode": 0, "sync interval": 2, "date": "2023-3-20", "time": "19:46:26.55", "channels": [1, 2], "sensor": ["EMG", "EMG"], "label": ["CH1", "CH2"], "column": ["nSeq", "DI", "CH1", "CH2"], "special": [{"SpO2": [80, 40, 5, 4, 3, 3]}, {"SpO2": [80, 40, 5, 4, 3, 3]}, {"SpO2": [80, 40, 5, 4, 3, 3]}, {"SpO2": [80, 40, 5, 4, 3, 3]}, {"SpO2": [80, 40, 5, 4, 3, 3]}, {"SpO2": [80, 40, 5, 4, 3, 3]}, {"SpO2": [80, 40, 5, 4, 3, 3]}, {"SpO2": [80, 40, 5, 4, 3, 3]}], "digital IO": [0, 1], "sleeve color": ["gray", "yellow"], "convertedValues": 0}}
# EndOfHeader
0	0	32874	32761	
1	0	32814	32835	
2	0	32842	32752	
3	0	32820	32775	
4	0	32788	32764	
5	0	32846	32714	
6	0	32794	32775	
7	0	32852	32672	
8	0	32784	32743	
9	0	32856	32798	
10	0	32756	32816	
11	0	32804	32756	
12	0	32904	32704	
13	0	32826	32748	
14	0	32850	32736	
15	0	32816	32806	
16	0	32828	32798	
17	0	32790	32708	
18	0	32888	32792	
19	0	32860	32724	
20	0	32780	32815	
21	0	32762	32694	
22	0	32744	32666	
23	0	32756	32753	
24	0	32802	32706	
25	0	32844	32862	
26	0	32798	32680	
27	0	32812	32820	
28	0	32744	32796	
29	0	32852	32794	
30	0	32820	32854	
31	0	32826	32706	
32	0	32808	32754	
33	0	32842	32738	
34	0	32770	32814	
35	0	32786	32860	
36	0	32824	32824	
37	0	32824	32782	
38	0	32820	32738	
39	0	32786	32750	
40	0	32776	32744	
41	0	32814	32712	
42	0	32836	32708	
43	0	32818	32832	
44	0	32840	32760	
45	0	32832	32831	
46	0	32928	32834	
47	0	32764	32758	
48	0	32860	32704	
49	0	32804	32878	
50	0	32748	32800	
51	0	32808	32678	
52	0	32832	32766	
53	0	32744	32754	
54	0	32756	32752	
55	0	32804	32798	
56	0	32804	32775	
57	0	32792	32768	
58	0	32793	32668	
59	0	32812	32816	
60	0	32820	32816	
61	0	32812	32698	
62	0	32802	32856	
63	0	32840	32746	
64	0	32792	32856	
65	0	32800	32684	
66	0	32816	32692	
67	0	32848	32876	
68	0	32852	32679	
69	0	32822	32724	
70	0	32832	32740	
71	0	32846	32746	
72	0	32832	32746	
73	0	32822	32746	
74	0	32852	32706	
75	0	32800	32764	
76	0	32756	32804	
77	0	32748	32766	
78	0	32844	32724	
79	0	32868	32844	
80	0	32794	32804	
81	0	32782	32740	
82	0	32836	32815	
83	0	32754	32713	
84	0	32848	32769	
85	0	32756	32812	
86	0	32820	32662	
87	0	32820	32799	
88	0	32778	32774	
89	0	32828	32670	
90	0	32832	32738	
91	0	32784	32836	
92	0	32808	32884	
93	0	32840	32824	
94	0	32794	32820	
95	0	32793	32668	
96	0	32856	32767	
97	0	32868	32748	
98	0	32836	32775	
99	0	32784	32736	
100	0	32792	32784	
101	0	32836	32810	
102	0	32894	32660	
103	0	32862	32836	
104	0	32816	32767	
105	0	32770	32726	
106	0	32754	32706	
107	0	32816	32852	
108	0	32798	32822	
109	0	32844	32837	
110	0	32792	32664	
111	0	32792	32791	
112	0	32852	32816	
113	0	32812	32714	
114	0	32774	32872	
115	0	32750	32750	
116	0	32768	32747	
117	0	32820	32756	
118	0	32800	32708	
119	0	32852	32720	
120	0	32832	32670	
121	0	32836	32735	
122	0	32838	32844	
123	0	32884	32764	
124	0	32766	32764	
125	0	32800	32801	
126	0	32756	32804	
127	0	32784	32692	
128	0	32814	32822	
129	0	32836	32750	
130	0	32818	32732	
131	0	32844	32656	
132	0	32824	32799	
133	0	32872	32768	
134	0	32830	32807	
135	0	32858	32748	
136	0	32788	32790	
137	0	32804	32815	
138	0	32780	32772	
139	0	32742	32805	
140	0	32812	32868	
141	0	32840	32736	
142	0	32868	32814	
143	0	32858	32698	
144	0	32808	32645	
145	0	32810	32758	
146	0	32830	32798	
147	0	32704	32724	
148	0	32784	32804	
149	0	32808	32810	
150	0	32798	32809	
151	0	32832	32718	
152	0	32800	32848	
153	0	32864	32764	
154	0	32764	32810	
155	0	32808	32674	
156	0	32864	32768	
157	0	32804	32814	
158	0	32839	32792	
159	0	32804	32730	
160	0	32776	32811	
161	0	32782	32740	
162	0	32840	32762	
163	0	32826	32862	
164	0	32862	32718	
165	0	32796	32788	
166	0	32850	32695	
167	0	32836	32775	
168	0	32744	32743	
169	0	32832	32730	
170	0	32836	32711	
171	0	32852	32758	
172	0	32822	32676	
173	0	32752	32808	
174	0	32776	32823	
175	0	32846	32714	
176	0	32796	32820	
177	0	32804	32766	
178	0	32724	32798	
179	0	32880	32708	
180	0	32858	32748	
181	0	32824	32762	
182	0	32868	32708	
183	0	32889	32714	
184	0	32806	32884	
185	0	32848	32764	
186	0	32872	32823	
187	0	32768	32762	
188	0	32848	32796	
189	0	32772	32856	
190	0	32852	32699	
191	0	32830	32748	
192	0	32798	32696	
193	0	32788	32846	
194	0	32724	32741	
195	0	32712	32714	
196	0	32772	32796	
197	0	32792	32822	
198	0	32788	32711	
199	0	32818	32689	
200	0	32860	32744	
201	0	32807	32844	
202	0	32824	32620	
203	0	32778	32814	
204	0	32798	32804	
205	0	32794	32694	
206	0	32818	32727	
207	0	32830	32775	
208	0	32836	32858	
209	0	32948	32693	
210	0	32834	32790	
211	0	32848	32788	
212	0	32792	32696	
213	0	32860	32759	
214	0	32786	32760	
215	0	32852	32796	
216	0	32836	32703	
217	0	32776	32790	
218	0	32834	32714	
219	0	32824	32799	
220	0	32800	32722	
221	0	32812	32816	
222	0	32844	32748	
223	0	32836	32800	
224	0	32852	32770	
225	0	32781	32832	
226	0	32848	32774	
227	0	32820	32711	
228	0	32792	32708	
229	0	32800	32814	
230	0	32770	32810	
231	0	32828	32724	
232	0	32820	32718	
233	0	32832	32794	
234	0	32760	32752	
235	0	32788	32696	
236	0	32764	32690	
237	0	32820	32846	
238	0	32848	32772	
239	0	32804	32830	
240	0	32808	32703	
241	0	32764	32688	
242	0	32748	32774	
243	0	32812	32794	
244	0	32820	32679	
245	0	32762	32700	
246	0	32756	32775	
247	0	32752	32764	
248	0	32826	32750	
249	0	32824	32775	
250	0	32836	32872	
251	0	32876	32736	
252	0	32818	32722	
253	0	32780	32808	
254	0	32876	32804	
255	0	32810	32756	
256	0	32756	32697	
257	0	32780	32738	
258	0	32841	32839	
259	0	32806	32756	
260	0	32844	32704	
261	0	32816	32726	
262	0	32818	32856	
263	0	32768	32760	
264	0	32772	32690	
265	0	32798	32716	
266	0	32800	32852	
267	0	32814	32810	
268	0	32808	32715	
269	0	32794	32682	
270	0	32866	32719	
271	0	32736	32816	
272	0	32822	32796	
273	0	32802	32666	
274	0	32842	32756	
275	0	32814	32810	
276	0	32814	32676	
277	0	32820	32800	
278	0	32764	32799	
279	0	32848	32800	
280	0	32812	32714	
281	0	32804	32880	
282	0	32830	32760	
283	0	32806	32738	
284	0	32784	32768	
285	0	32792	32800	
286	0	32772	32823	
287	0	32884	32732	
288	0	32798	32844	
289	0	32878	32748	
290	0	32822	32740	
291	0	32850	32727	
292	0	32740	32858	
293	0	32870	32775	
294	0	32848	32788	
295	0	32784	32668	
296	0	32792	32786	
297	0	32808	32758	
298	0	32860	32814	
299	0	32816	32756	
300	0	32766	32815	
301	0	32818	32806	
302	0	32804	32679	
303	0	32804	32736	
304	0	32802	32768	
305	0	32840	32792	
306	0	32854	32652	
307	0	32856	32726	
308	0	32808	32738	
309	0	32800	32702	
310	0	32816	32927	
311	0	32752	32807	
312	0	32824	32711	
313	0	32839	32856	
314	0	32832	32770	
315	0	32808	32840	
316	0	32824	32690	
317	0	32800	32874	
318	0	32880	32860	
319	0	32792	32732	
320	0	32816	32786	
321	0	32775	32830	
322	0	32760	32782	
323	0	32800	32647	
324	0	32736	32732	
325	0	32760	32700	
326	0	32746	32642	
327	0	32752	32728	
328	0	32774	32594	
329	0	32688	32615	
330	0	32732	32622	
331	0	32716	32704	
332	0	32704	32623	
333	0	32716	32510	
334	0	32752	32742	
335	0	32706	32775	
336	0	32830	32652	
337	0	32716	32738	
338	0	32768	32716	
339	0	32756	32598	
340	0	32752	32794	
341	0	32772	32688	
342	0	32832	32774	
343	0	32860	32746	
344	0	32808	32667	
345	0	32888	32738	
346	0	32902	32721	
347	0	32960	32775	
348	0	33120	32756	
349	0	33128	32936	
350	0	33072	33076	
351	0	33014	33168	
352	0	33100	33268	
353	0	33117	33166	
354	0	33108	33206	
355	0	32946	33200	
356	0	32916	33095	
357	0	32816	33092	
358	0	32768	32880	
359	0	32770	32938	
360	0	32822	32789	
361	0	32816	32613	
362	0	32798	32593	
363	0	32772	32638	
364	0	32664	32508	
365	0	32696	32614	
366	0	32704	32550	
367	0	32636	32623	
368	0	32676	32546	
369	0	32656	32695	
370	0	32712	32758	
371	0	32696	32645	
372	0	32708	32768	
373	0	32668	32786	
374	0	32768	32640	
375	0	32752	32736	
376	0	32828	32679	
377	0	32874	32740	
378	0	32802	32674	
379	0	32816	32770	
380	0	32804	32754	
381	0	32760	32708	
382	0	32808	32788	
383	0	32812	32764	
384	0	32780	32647	
385	0	32790	32728	
386	0	32820	32752	
387	0	32924	32798	
388	0	32836	32775	
389	0	32876	32790	
390	0	32880	32810	
391	0	32850	32660	
392	0	32836	32820	
393	0	32792	32775	
394	0	32796	32714	
395	0	32828	32878	
396	0	32744	32766	
397	0	32810	32804	
398	0	32810	32816	
399	0	32776	32773	
400	0	32766	32774	
401	0	32822	32686	
402	0	32872	32750	
403	0	32836	32716	
404	0	32828	32766	
405	0	32821	32730	
406	0	32792	32820	
407	0	32836	32750	
408	0	32824	32668	
409	0	32832	32736	
410	0	32802	32711	
411	0	32856	32804	
412	0	32793	32686	
413	0	32784	32738	
414	0	32849	32824	
415	0	32786	32775	
416	0	32826	32810	
417	0	32824	32702	
418	0	32856	32708	
419	0	32842	32864	
420	0	32776	32772	
421	0	32800	32750	
422	0	32834	32742	
423	0	32784	32734	
424	0	32810	32719	
425	0	32826	32806	
426	0	32808	32793	
427	0	32820	32727	
428	0	32790	32846	
429	0	32816	32894	
430	0	32848	32654	
431	0	32816	32832	
432	0	32800	32708	
433	0	32832	32818	
434	0	32788	32759	
435	0	32768	32836	
436	0	32792	32799	
437	0	32783	32758	
438	0	32756	32648	
439	0	32818	32804	
440	0	32852	32766	
441	0	32845	32744	
442	0	32878	32676	
443	0	32768	32820	
444	0	32864	32792	
445	0	32753	32692	
446	0	32840	32800	
447	0	32816	32775	
448	0	32786	32752	
449	0	32858	32826	
450	0	32864	32811	
451	0	32784	32775	
452	0	32802	32810	
453	0	32786	32724	
454	0	32780	32807	
455	0	32762	32757	
456	0	32780	32791	
457	0	32858	32680	
458	0	32878	32766	
459	0	32818	32770	
460	0	32892	32775	
461	0	32808	32711	
462	0	32800	32702	
463	0	32800	32737	
464	0	32816	32798	
465	0	32840	32760	
466	0	32796	32742	
467	0	32860	32820	
468	0	32830	32730	
469	0	32788	32768	
470	0	32808	32717	
471	0	32822	32846	
472	0	32788	32830	
473	0	32760	32756	
474	0	32764	32704	
475	0	32790	32775	
476	0	32762	32762	
477	0	32900	32678	
478	0	32832	32844	
479	0	32844	32724	
480	0	32808	32808	
481	0	32804	32712	
482	0	32778	32820	
483	0	32848	32756	
484	0	32836	32720	
485	0	32796	32824	
486	0	32852	32746	
487	0	32820	32720	
488	0	32740	32724	
489	0	32806	32743	
490	0	32828	32807	
491	0	32808	32727	
492	0	32804	32735	
493	0	32828	32743	
494	0	32804	32748	
495	0	32798	32681	
496	0	32784	32800	
497	0	32794	32775	
498	0	32800	32790	
499	0	32804	32753	
500	0	32796	32766	
501	0	32840	32792	
502	0	32796	32751	
503	0	32890	32804	
504	0	32814	32708	
505	0	32768	32772	
506	0	32732	32755	
507	0	32831	32788	
508	0	32868	32736	
509	0	32814	32834	
510	0	32828	32770	
511	0	32798	32714	
512	0	32752	32786	
513	0	32776	32712	
514	0	32826	32775	
515	0	32838	32766	
516	0	32793	32772	
517	0	32826	32732	
518	0	32770	32752	
519	0	32786	32805	
520	0	32864	32696	
521	0	32804	32763	
522	0	32822	32666	
523	0	32828	32936	
524	0	32836	32828	
525	0	32768	32700	
526	0	32818	32896	
527	0	32784	32814	
528	0	32852	32720	
529	0	32776	32821	
530	0	32880	32763	
531	0	32852	32698	
532	0	32768	32724	
533	0	32744	32784	
534	0	32848	32746	
535	0	32830	32744	
536	0	32852	32732	
537	0	32832	32832	
538	0	32804	32739	
539	0	32790	32700	
540	0	32792	32836	
541	0	32872	32828	
542	0	32784	32668	
543	0	32788	32807	
544	0	32788	32790	
545	0	32816	32834	
546	0	32764	32636	
547	0	32828	32818	
548	0	32804	32804	
549	0	32794	32679	
550	0	32800	32814	
551	0	32856	32775	
552	0	32816	32798	
553	0	32808	32665	
554	0	32828	32788	
555	0	32800	32836	
556	0	32764	32740	
557	0	32858	32786	
558	0	32796	32710	
559	0	32796	32770	
560	0	32753	32702	
561	0	32796	32775	
562	0	32836	32740	
563	0	32828	32716	
564	0	32817	32870	
565	0	32816	32740	
566	0	32808	32787	
567	0	32808	32638	
568	0	32840	32764	
569	0	32820	32775	
570	0	32834	32718	
571	0	32812	32854	
572	0	32864	32764	
573	0	32788	32724	
574	0	32856	32838	
575	0	32796	32848	
576	0	32804	32716	
577	0	32746	32832	
578	0	32862	32806	
579	0	32842	32679	
580	0	32848	32700	
581	0	32808	32718	
582	0	32822	32870	
583	0	32768	32752	
584	0	32840	32764	
585	0	32812	32818	
586	0	32794	32758	
587	0	32808	32772	
588	0	32836	32826	
589	0	32832	32624	
590	0	32856	32823	
591	0	32804	32822	
592	0	32808	32708	
593	0	32839	32734	
594	0	32832	32756	
595	0	32824	32802	
596	0	32788	32775	
597	0	32796	32838	
598	0	32876	32754	
599	0	32778	32675	
600	0	32770	32826	
601	0	32776	32672	
602	0	32849	32802	
603	0	32790	32662	
604	0	32808	32826	
605	0	32836	32784	
606	0	32890	32743	
607	0	32874	32849	
608	0	32790	32830	
609	0	32796	32820	
610	0	32886	32652	
611	0	32738	32712	
612	0	32796	32855	
613	0	32804	32775	
614	0	32784	32775	
615	0	32776	32764	
616	0	32812	32812	
617	0	32878	32694	
618	0	32812	32735	
619	0	32864	32758	
620	0	32812	32662	
621	0	32756	32766	
622	0	32797	32784	
623	0	32834	32702	
624	0	32804	32756	
625	0	32788	32775	
626	0	32834	32736	
627	0	32834	32775	
628	0	32826	32775	
629	0	32844	32766	
630	0	32806	32804	
631	0	32764	32836	
632	0	32769	32846	
633	0	32768	32696	
634	0	32764	32738	
635	0	32800	32842	
636	0	32776	32736	
637	0	32812	32774	
638	0	32912	32724	
639	0	32846	32748	
640	0	32808	32842	
641	0	32748	32770	
642	0	32778	32726	
643	0	32822	32843	
644	0	32784	32752	
645	0	32804	32679	
646	0	32862	32849	
647	0	32804	32750	
648	0	32888	32775	
649	0	32828	32742	
650	0	32748	32768	
651	0	32880	32816	
652	0	32872	32711	
653	0	32792	32796	
654	0	32752	32769	
655	0	32801	32732	
656	0	32768	32835	
657	0	32772	32740	
658	0	32852	32790	
659	0	32804	32620	
660	0	32812	32748	
661	0	32852	32775	
662	0	32748	32805	
663	0	32830	32748	
664	0	32822	32740	
665	0	32812	32860	
666	0	32816	32761	
667	0	32826	32722	
668	0	32778	32726	
669	0	32820	32858	
670	0	32849	32792	
671	0	32818	32688	
672	0	32824	32890	
673	0	32788	32823	
674	0	32824	32724	
675	0	32814	32806	
676	0	32808	32794	
677	0	32756	32700	
678	0	32800	32794	
679	0	32844	32768	
680	0	32800	32792	
681	0	32740	32716	
682	0	32860	32767	
683	0	32764	32804	
684	0	32850	32784	
685	0	32854	32716	
686	0	32836	32826	
687	0	32769	32794	
688	0	32820	32646	
689	0	32788	32836	
690	0	32826	32818	
691	0	32872	32712	
692	0	32824	32760	
693	0	32780	32808	
694	0	32840	32608	
695	0	32800	32856	
696	0	32802	32764	
697	0	32782	32644	
698	0	32800	32828	
699	0	32876	32764	
700	0	32760	32730	
701	0	32800	32742	
702	0	32820	32735	
703	0	32890	32820	
704	0	32836	32724	
705	0	32758	32734	
706	0	32808	32796	
707	0	32870	32808	
708	0	32816	32710	
709	0	32768	32732	
710	0	32844	32766	
711	0	32780	32744	
712	0	32878	32699	
713	0	32842	32786	
714	0	32758	32764	
715	0	32816	32694	
716	0	32800	32815	
717	0	32828	32798	
718	0	32836	32842	
719	0	32812	32660	
720	0	32772	32704	
721	0	32854	32790	
722	0	32912	32864	
723	0	32766	32676	
724	0	32808	32806	
725	0	32776	32742	
726	0	32774	32682	
727	0	32816	32740	
728	0	32814	32828	
729	0	32794	32810	
730	0	32864	32740	
731	0	32848	32806	
732	0	32853	32802	
733	0	32832	32742	
734	0	32820	32858	
735	0	32816	32774	
736	0	32840	32700	
737	0	32752	32810	
738	0	32856	32791	
739	0	32852	32815	
740	0	32868	32652	
741	0	32760	32820	
742	0	32856	32736	
743	0	32828	32676	
744	0	32844	32678	
745	0	32848	32738	
746	0	32741	32839	
747	0	32820	32730	
748	0	32800	32772	
749	0	32804	32762	
750	0	32820	32676	
751	0	32824	32815	
752	0	32820	32778	
753	0	32812	32814	
754	0	32821	32726	
755	0	32792	32766	
756	0	32812	32852	
757	0	32848	32715	
758	0	32812	32914	
759	0	32817	32808	
760	0	32784	32736	
761	0	32784	32846	
762	0	32830	32724	
763	0	32826	32750	
764	0	32820	32712	
765	0	32848	32746	
766	0	32836	32718	
767	0	32820	32798	
768	0	32784	32759	
769	0	32860	32838	
770	0	32816	32708	
771	0	32800	32812	
772	0	32784	32750	
773	0	32790	32716	
774	0	32804	32748	
775	0	32880	32824	
776	0	32798	32661	
777	0	32808	32886	
778	0	32764	32814	
779	0	32816	32674	
780	0	32842	32760	
781	0	32780	32832	
782	0	32860	32711	
783	0	32824	32775	
784	0	32784	32762	
785	0	32824	32658	
786	0	32796	32769	
787	0	32750	32830	
788	0	32764	32623	
789	0	32836	32802	
790	0	32848	32848	
791	0	32786	32825	
792	0	32840	32824	
793	0	32746	32840	
794	0	32788	32884	
795	0	32828	32686	
796	0	32836	32737	
797	0	32800	32775	
798	0	32732	32646	
799	0	32848	32871	
800	0	32836	32812	
801	0	32776	32626	
802	0	32768	32804	
803	0	32804	32772	
804	0	32816	32774	
805	0	32804	32751	
806	0	32744	32807	
807	0	32840	32822	
808	0	32852	32672	
809	0	32832	32794	
810	0	32844	32912	
811	0	32728	32823	
812	0	32846	32670	
813	0	32780	32734	
814	0	32736	32804	
815	0	32724	32584	
816	0	32774	32806	
817	0	32896	32711	
818	0	32824	32775	
819	0	32784	32792	
820	0	32854	32790	
821	0	32780	32824	
822	0	32784	32788	
823	0	32872	32775	
824	0	32814	32799	
825	0	32784	32786	
826	0	32864	32775	
827	0	32822	32816	
828	0	32776	32766	
829	0	32868	32728	
830	0	32796	32823	
831	0	32816	32689	
832	0	32814	32788	
833	0	32856	32775	
834	0	32816	32732	
835	0	32776	32804	
836	0	32764	32784	
837	0	32776	32775	
838	0	32800	32734	
839	0	32851	32774	
840	0	32804	32770	
841	0	32752	32775	
842	0	32746	32686	
843	0	32790	32790	
844	0	32860	32828	
845	0	32924	32708	
846	0	32820	32788	
847	0	32740	32807	
848	0	32848	32796	
849	0	32808	32724	
850	0	32792	32824	
851	0	32826	32775	
852	0	32828	32722	
853	0	32784	32788	
854	0	32838	32842	
855	0	32808	32815	
856	0	32758	32724	
857	0	32812	32692	
858	0	32824	32798	
859	0	32830	32770	
860	0	32814	32656	
861	0	32858	32826	
862	0	32832	32799	
863	0	32858	32844	
864	0	32796	32775	
865	0	32812	32794	
866	0	32848	32750	
867	0	32802	32751	
868	0	32788	32698	
869	0	32856	32710	
870	0	32782	32784	
871	0	32764	32707	
872	0	32764	32760	
873	0	32804	32816	
874	0	32808	32668	
875	0	32782	32775	
876	0	32813	32796	
877	0	32818	32852	
878	0	32810	32826	
879	0	32824	32796	
880	0	32796	32796	
881	0	32848	32711	
882	0	32860	32708	
883	0	32780	32788	
884	0	32853	32772	
885	0	32764	32768	
886	0	32800	32834	
887	0	32804	32775	
888	0	32774	32724	
889	0	32804	32775	
890	0	32780	32775	
891	0	32800	32806	
892	0	32848	32710	
893	0	32780	32754	
894	0	32808	32836	
895	0	32840	32838	
896	0	32816	32759	
897	0	32824	32823	
898	0	32784	32714	
899	0	32824	32652	
900	0	32888	32790	
901	0	32780	32775	
902	0	32784	32748	
903	0	32786	32852	
904	0	32862	32768	
905	0	32838	32657	
906	0	32848	32758	
907	0	32752	32791	
908	0	32860	32687	
909	0	32832	32740	
910	0	32772	32740	
911	0	32792	32786	
912	0	32780	32708	
913	0	32796	32758	
914	0	32848	32903	
915	0	32702	32696	
916	0	32812	32737	
917	0	32856	32758	
918	0	32740	32762	
919	0	32768	32724	
920	0	32784	32762	
921	0	32852	32718	
922	0	32792	32796	
923	0	32848	32768	
924	0	32878	32710	
925	0	32852	32746	
926	0	32856	32706	
927	0	32881	32791	
928	0	32804	32768	
929	0	32840	32766	
930	0	32936	32754	
931	0	32820	32754	
932	0	32848	32816	
933	0	32808	32724	
934	0	32772	32808	
935	0	32784	32812	
936	0	32784	32676	
937	0	32804	32815	
938	0	32742	32772	
939	0	32806	32684	
940	0	32847	32852	
941	0	32884	32831	
942	0	32804	32678	
943	0	32812	32724	
944	0	32810	32759	
945	0	32756	32736	
946	0	32808	32791	
947	0	32812	32752	
948	0	32796	32769	
949	0	32736	32770	
950	0	32912	32770	
951	0	32772	32868	
952	0	32838	32724	
953	0	32824	32714	
954	0	32800	32764	
955	0	32781	32801	
956	0	32796	32730	
957	0	32836	32698	
958	0	32836	32696	
959	0	32874	32767	
960	0	32796	32783	
961	0	32756	32740	
962	0	32764	32758	
963	0	32790	32722	
964	0	32800	32804	
965	0	32776	32748	
966	0	32784	32816	
967	0	32800	32768	
968	0	32790	32710	
969	0	32848	32785	
970	0	32868	32800	
971	0	32816	32752	
972	0	32778	32746	
973	0	32828	32838	
974	0	32830	32687	
975	0	32834	32756	
976	0	32760	32816	
977	0	32874	32748	
978	0	32884	32668	
979	0	32790	32811	
980	0	32804	32742	
981	0	32824	32768	
982	0	32820	32820	
983	0	32832	32735	
984	0	32820	32707	
985	0	32792	32839	
986	0	32824	32658	
987	0	32776	32826	
988	0	32876	32771	
989	0	32872	32846	
990	0	32804	32723	
991	0	32832	32800	
992	0	32790	32834	
993	0	32886	32735	
994	0	32796	32752	
995	0	32812	32716	
996	0	32768	32718	
997	0	32816	32772	
998	0	32820	32741	
999	0	32764	32686	
1000	0	32817	32775	
1001	0	32864	32707	
1002	0	32864	32775	
1003	0	32804	32725	
1004	0	32784	32828	
1005	0	32800	32903	
1006	0	32758	32822	
1007	0	32836	32820	
1008	0	32812	32758	
1009	0	32860	32884	
1010	0	32824	32728	
1011	0	32808	32728	
1012	0	32772	32674	
1013	0	32776	32690	
1014	0	32828	32775	
1015	0	32789	32708	
1016	0	32844	32759	
1017	0	32860	32775	
1018	0	32868	32652	
1019	0	32808	32694	
1020	0	32756	32825	
1021	0	32772	32816	
1022	0	32796	32804	
1023	0	32774	32792	
1024	0	32832	32663	
1025	0	32832	32724	
1026	0	32734	32842	
1027	0	32790	32856	
1028	0	32732	32810	
1029	0	32874	32790	
1030	0	32870	32876	
1031	0	32802	32825	
1032	0	32860	32804	
1033	0	32716	32738	
1034	0	32744	32711	
1035	0	32804	32852	
1036	0	32820	32854	
1037	0	32810	32775	
1038	0	32774	32756	
1039	0	32746	32754	
1040	0	32740	32663	
1041	0	32798	32796	
1042	0	32764	32791	
1043	0	32804	32775	
1044	0	32716	32686	
1045	0	32722	32572	
1046	0	32786	32684	
1047	0	32752	32600	
1048	0	32800	32678	
1049	0	32724	32547	
1050	0	32792	32580	
1051	0	32754	32607	
1052	0	32752	32628	
1053	0	32816	32682	
1054	0	32740	32692	
1055	0	32698	32604	
1056	0	32776	32760	
1057	0	32732	32775	
1058	0	32760	32734	
1059	0	32776	32800	
1060	0	32916	32753	
1061	0	32788	32676	
1062	0	32842	32622	
1063	0	32868	32758	
1064	0	32956	32812	
1065	0	33104	32876	
1066	0	33134	32965	
1067	0	33064	33031	
1068	0	33160	33248	
1069	0	33090	33280	
1070	0	33092	33278	
1071	0	33020	33244	
1072	0	32984	33068	
1073	0	32862	33026	
1074	0	32824	33031	
1075	0	32820	32968	
1076	0	32796	32908	
1077	0	32728	32742	
1078	0	32660	32730	
1079	0	32657	32598	
1080	0	32646	32542	
1081	0	32720	32663	
1082	0	32698	32542	
1083	0	32688	32580	
1084	0	32760	32502	
1085	0	32708	32560	
1086	0	32752	32614	
1087	0	32688	32712	
1088	0	32732	32596	
1089	0	32804	32663	
1090	0	32762	32748	
1091	0	32772	32730	
1092	0	32744	32756	
1093	0	32744	32750	
1094	0	32816	32664	
1095	0	32764	32788	
1096	0	32780	32728	
1097	0	32820	32815	
1098	0	32790	32684	
1099	0	32826	32667	
1100	0	32840	32852	
1101	0	32856	32790	
1102	0	32836	32826	
1103	0	32792	32704	
1104	0	32798	32860	
1105	0	32860	32824	
1106	0	32856	32743	
1107	0	32838	32728	
1108	0	32858	32678	
1109	0	32892	32784	
1110	0	32872	32666	
1111	0	32834	32816	
1112	0	32788	32629	
1113	0	32830	32772	
1114	0	32816	32768	
1115	0	32796	32790	
1116	0	32844	32856	
1117	0	32798	32618	
1118	0	32862	32775	
1119	0	32852	32812	
1120	0	32808	32774	
1121	0	32852	32767	
1122	0	32842	32724	
1123	0	32756	32889	
1124	0	32792	32752	
1125	0	32832	32720	
1126	0	32834	32712	
1127	0	32816	32708	
1128	0	32800	32903	
1129	0	32770	32912	
1130	0	32854	32746	
1131	0	32740	32864	
1132	0	32784	32847	
1133	0	32830	32674	
1134	0	32952	32718	
1135	0	32812	32726	
1136	0	32736	32775	
1137	0	32932	32788	
1138	0	32860	32712	
1139	0	32810	32877	
1140	0	32808	32770	
1141	0	32824	32808	
1142	0	32820	32678	
1143	0	32840	32711	
1144	0	32790	32786	
1145	0	32760	32868	
1146	0	32776	32756	
1147	0	32804	32676	
1148	0	32844	32848	
1149	0	32890	32752	
1150	0	32888	32926	
1151	0	32816	32714	
1152	0	32802	32824	
1153	0	32794	32750	
1154	0	32848	32698	
1155	0	32780	32786	
1156	0	32748	32892	
1157	0	32842	32799	
1158	0	32786	32798	
1159	0	32768	32666	
1160	0	32832	32775	
1161	0	32864	32825	
1162	0	32812	32686	
1163	0	32800	32734	
1164	0	32822	32792	
1165	0	32820	32748	
1166	0	32804	32750	
1167	0	32745	32670	
1168	0	32784	32775	
1169	0	32758	32775	
1170	0	32820	32809	
1171	0	32836	32699	
1172	0	32792	32844	
1173	0	32800	32724	
1174	0	32838	32700	
1175	0	32808	32818	
1176	0	32792	32758	
1177	0	32832	32815	
1178	0	32820	32784	
1179	0	32824	32751	
1180	0	32736	32775	
1181	0	32900	32740	
1182	0	32846	32762	
1183	0	32842	32791	
1184	0	32780	32782	
1185	0	32800	32752	
1186	0	32756	32694	
1187	0	32816	32838	
1188	0	32816	32730	
1189	0	32872	32768	
1190	0	32804	32816	
1191	0	32804	32867	
1192	0	32836	32616	
1193	0	32772	32870	
1194	0	32770	32859	
1195	0	32756	32676	
1196	0	32784	32790	
1197	0	32826	32804	
1198	0	32806	32684	
1199	0	32792	32775	
1200	0	32800	32848	
1201	0	32844	32678	
1202	0	32832	32806	
1203	0	32728	32770	
1204	0	32812	32756	
1205	0	32788	32806	
1206	0	32788	32816	
1207	0	32780	32679	
1208	0	32793	32830	
1209	0	32800	32718	
1210	0	32816	32767	
1211	0	32772	32708	
1212	0	32810	32768	
1213	0	32760	32822	
1214	0	32808	32692	
1215	0	32842	32790	
1216	0	32840	32799	
1217	0	32854	32775	
1218	0	32842	32753	
1219	0	32740	32828	
1220	0	32864	32814	
1221	0	32832	32720	
1222	0	32858	32788	
1223	0	32832	32766	
1224	0	32828	32664	
1225	0	32822	32728	
1226	0	32828	32706	
1227	0	32792	32868	
1228	0	32784	32684	
1229	0	32774	32775	
1230	0	32804	32871	
1231	0	32808	32663	
1232	0	32748	32766	
1233	0	32752	32804	
1234	0	32788	32672	
1235	0	32816	32864	
1236	0	32868	32823	
1237	0	32808	32679	
1238	0	32798	32916	
1239	0	32775	32848	
1240	0	32816	32722	
1241	0	32780	32750	
1242	0	32836	32772	
1243	0	32840	32728	
1244	0	32824	32790	
1245	0	32854	32844	
1246	0	32828	32719	
1247	0	32792	32842	
1248	0	32796	32806	
1249	0	32866	32830	
1250	0	32876	32660	
1251	0	32874	32752	
1252	0	32796	32727	
1253	0	32820	32852	
1254	0	32796	32736	
1255	0	32844	32732	
1256	0	32808	32775	
1257	0	32798	32708	
1258	0	32772	32866	
1259	0	32832	32732	
1260	0	32838	32806	
1261	0	32808	32775	
1262	0	32800	32822	
1263	0	32774	32694	
1264	0	32808	32682	
1265	0	32800	32762	
1266	0	32726	32694	
1267	0	32885	32823	
1268	0	32810	32743	
1269	0	32854	32772	
1270	0	32856	32726	
1271	0	32904	32862	
1272	0	32768	32712	
1273	0	32744	32775	
1274	0	32764	32615	
1275	0	32844	32810	
1276	0	32846	32798	
1277	0	32878	32794	
1278	0	32824	32736	
1279	0	32800	32868	
1280	0	32852	32798	
1281	0	32818	32830	
1282	0	32786	32687	
1283	0	32800	32814	
1284	0	32864	32750	
1285	0	32872	32722	
1286	0	32872	32794	
1287	0	32790	32794	
1288	0	32824	32740	
1289	0	32778	32705	
1290	0	32782	32814	
1291	0	32816	32759	
1292	0	32880	32775	
1293	0	32768	32671	
1294	0	32830	32857	
1295	0	32748	32738	
1296	0	32832	32859	
1297	0	32824	32722	
1298	0	32780	32774	
1299	0	32784	32790	
1300	0	32854	32679	
1301	0	32832	32705	
1302	0	32828	32748	
1303	0	32838	32784	
1304	0	32772	32792	
1305	0	32800	32810	
1306	0	32840	32724	
1307	0	32834	32724	
1308	0	32852	32690	
1309	0	32904	32656	
1310	0	32772	32900	
1311	0	32810	32748	
1312	0	32806	32764	
1313	0	32782	32714	
1314	0	32840	32750	
1315	0	32852	32802	
1316	0	32780	32548	
1317	0	32868	32806	
1318	0	32852	32839	
1319	0	32800	32718	
1320	0	32824	32808	
1321	0	32800	32794	
1322	0	32808	32742	
1323	0	32832	32694	
1324	0	32780	32775	
1325	0	32800	32833	
1326	0	32808	32714	
1327	0	32802	32716	
1328	0	32794	32656	
1329	0	32806	32876	
1330	0	32788	32720	
1331	0	32830	32846	
1332	0	32828	32798	
1333	0	32792	32728	
1334	0	32776	32775	
1335	0	32782	32772	
1336	0	32810	32824	
1337	0	32868	32694	
1338	0	32788	32760	
1339	0	32836	32801	
1340	0	32772	32742	
1341	0	32890	32818	
1342	0	32789	32764	
1343	0	32890	32670	
1344	0	32784	32764	
1345	0	32794	32850	
1346	0	32776	32716	
1347	0	32818	32792	
1348	0	32720	32807	
1349	0	32828	32719	
1350	0	32804	32796	
1351	0	32772	32794	
1352	0	32772	32738	
1353	0	32808	32698	
1354	0	32764	32743	
1355	0	32762	32742	
1356	0	32774	32714	
1357	0	32798	32696	
1358	0	32812	32736	
1359	0	32828	32719	
1360	0	32842	32676	
1361	0	32824	32817	
1362	0	32760	32874	
1363	0	32832	32799	
1364	0	32810	32767	
1365	0	32785	32623	
1366	0	32756	32792	
1367	0	32764	32816	
1368	0	32848	32775	
1369	0	32778	32788	
1370	0	32838	32704	
1371	0	32840	32832	
1372	0	32802	32743	
1373	0	32832	32806	
1374	0	32776	32766	
1375	0	32846	32759	
1376	0	32772	32852	
1377	0	32892	32822	
1378	0	32780	32834	
1379	0	32806	32792	
1380	0	32784	32698	
1381	0	32800	32798	
1382	0	32692	32732	
1383	0	32816	32780	
1384	0	32832	32618	
1385	0	32844	32790	
1386	0	32810	32704	
1387	0	32820	32758	
1388	0	32836	32676	
1389	0	32870	32868	
1390	0	32852	32843	
1391	0	32852	32748	
1392	0	32828	32752	
1393	0	32756	32775	
1394	0	32740	32774	
1395	0	32782	32840	
1396	0	32778	32775	
1397	0	32848	32662	
1398	0	32832	32711	
1399	0	32802	32828	
1400	0	32808	32770	
1401	0	32836	32868	
1402	0	32770	32696	
1403	0	32800	32734	
1404	0	32872	32775	
1405	0	32794	32814	
1406	0	32808	32800	
1407	0	32784	32708	
1408	0	32804	32772	
1409	0	32802	32836	
1410	0	32746	32775	
1411	0	32820	32775	
1412	0	32866	32647	
1413	0	32752	32724	
1414	0	32784	32766	
1415	0	32864	32762	
1416	0	32788	32647	
1417	0	32792	32814	
1418	0	32796	32840	
1419	0	32824	32754	
1420	0	32770	32774	
1421	0	32802	32766	
1422	0	32762	32668	
1423	0	32812	32838	
1424	0	32856	32796	
1425	0	32792	32870	
1426	0	32852	32752	
1427	0	32775	32903	
1428	0	32752	32743	
1429	0	32828	32775	
1430	0	32784	32758	
1431	0	32848	32748	
1432	0	32816	32836	
1433	0	32772	32858	
1434	0	32764	32736	
1435	0	32780	32839	
1436	0	32874	32775	
1437	0	32862	32738	
1438	0	32804	32689	
1439	0	32817	32818	
1440	0	32816	32782	
1441	0	32882	32711	
1442	0	32856	32876	
1443	0	32788	32752	
1444	0	32832	32898	
1445	0	32832	32744	
1446	0	32760	32742	
1447	0	32784	32772	
1448	0	32780	32743	
1449	0	32784	32864	
1450	0	32821	32704	
1451	0	32740	32752	
1452	0	32756	32656	
1453	0	32780	32801	
1454	0	32808	32756	
1455	0	32818	32775	
1456	0	32812	32724	
1457	0	32772	32871	
1458	0	32804	32852	
1459	0	32824	32784	
1460	0	32826	32626	
1461	0	32858	32796	
1462	0	32888	32839	
1463	0	32940	32870	
1464	0	32736	32702	
1465	0	32816	32768	
1466	0	32804	32764	
1467	0	32788	32775	
1468	0	32798	32866	
1469	0	32824	32772	
1470	0	32772	32746	
1471	0	32820	32806	
1472	0	32804	32803	
1473	0	32796	32691	
1474	0	32880	32804	
1475	0	32808	32724	
1476	0	32848	32722	
1477	0	32816	32759	
1478	0	32768	32743	
1479	0	32784	32823	
1480	0	32831	32708	
1481	0	32828	32807	
1482	0	32852	32826	
1483	0	32860	32735	
1484	0	32772	32788	
1485	0	32812	32772	
1486	0	32857	32775	
1487	0	32856	32789	
1488	0	32788	32748	
1489	0	32808	32838	
1490	0	32772	32727	
1491	0	32802	32836	
1492	0	32832	32770	
1493	0	32804	32828	
1494	0	32850	32640	
1495	0	32824	32696	
1496	0	32804	32758	
1497	0	32820	32756	
1498	0	32744	32782	
1499	0	32836	32775	
1500	0	32820	32846	
1501	0	32772	32737	
1502	0	32816	32796	
1503	0	32822	32760	
1504	0	32804	32658	
1505	0	32852	32760	
1506	0	32804	32874	
1507	0	32820	32700	
1508	0	32764	32826	
1509	0	32824	32759	
1510	0	32836	32832	
1511	0	32784	32722	
1512	0	32872	32898	
1513	0	32756	32720	
1514	0	32820	32763	
1515	0	32820	32775	
1516	0	32792	32642	
1517	0	32792	32844	
1518	0	32836	32866	
1519	0	32876	32706	
1520	0	32788	32824	
1521	0	32848	32774	
1522	0	32848	32763	
1523	0	32788	32725	
1524	0	32846	32791	
1525	0	32774	32880	
1526	0	32834	32685	
1527	0	32808	32688	
1528	0	32840	32711	
1529	0	32812	32798	
1530	0	32840	32654	
1531	0	32858	32832	
1532	0	32804	32756	
1533	0	32786	32692	
1534	0	32814	32722	
1535	0	32772	32755	
1536	0	32866	32798	
1537	0	32776	32743	
1538	0	32816	32652	
1539	0	32806	32881	
1540	0	32820	32818	
1541	0	32764	32703	
1542	0	32918	32838	
1543	0	32842	32740	
1544	0	32808	32775	
1545	0	32908	32692	
1546	0	32752	32758	
1547	0	32792	32814	
1548	0	32762	32704	
1549	0	32844	32844	
1550	0	32834	32828	
1551	0	32798	32759	
1552	0	32804	32796	
1553	0	32818	32766	
1554	0	32772	32838	
1555	0	32860	32702	
1556	0	32762	32775	
1557	0	32770	32724	
1558	0	32792	32774	
1559	0	32792	32696	
1560	0	32844	32716	
1561	0	32876	32758	
1562	0	32794	32713	
1563	0	32792	32756	
1564	0	32798	32804	
1565	0	32848	32678	
1566	0	32784	32804	
1567	0	32780	32772	
1568	0	32759	32792	
1569	0	32804	32680	
1570	0	32824	32784	
1571	0	32832	32736	
1572	0	32844	32806	
1573	0	32708	32764	
1574	0	32776	32724	
1575	0	32820	32754	
1576	0	32814	32828	
1577	0	32904	32700	
1578	0	32824	32743	
1579	0	32800	32815	
1580	0	32850	32760	
1581	0	32826	32775	
1582	0	32866	32827	
1583	0	32764	32660	
1584	0	32820	32850	
1585	0	32820	32790	
1586	0	32844	32670	
1587	0	32792	32868	
1588	0	32812	32740	
1589	0	32836	32820	
1590	0	32784	32788	
1591	0	32800	32711	
1592	0	32838	32791	
1593	0	32808	32742	
1594	0	32824	32694	
1595	0	32822	32856	
1596	0	32844	32732	
1597	0	32826	32886	
1598	0	32852	32706	
1599	0	32824	32775	
1600	0	32820	32760	
1601	0	32798	32744	
1602	0	32792	32853	
1603	0	32792	32857	
1604	0	32744	32756	
1605	0	32804	32710	
1606	0	32944	32825	
1607	0	32848	32836	
1608	0	32788	32676	
1609	0	32818	32690	
1610	0	32724	32758	
1611	0	32812	32775	
1612	0	32810	32770	
1613	0	32822	32720	
1614	0	32785	32825	
1615	0	32776	32863	
1616	0	32816	32724	
1617	0	32836	32660	
1618	0	32794	32775	
1619	0	32764	32774	
1620	0	32832	32743	
1621	0	32844	32743	
1622	0	32828	32806	
1623	0	32784	32775	
1624	0	32800	32618	
1625	0	32816	32775	
1626	0	32824	32844	
1627	0	32880	32690	
1628	0	32766	32796	
1629	0	32868	32752	
1630	0	32792	32703	
1631	0	32798	32788	
1632	0	32756	32836	
1633	0	32804	32743	
1634	0	32768	32752	
1635	0	32786	32792	
1636	0	32794	32884	
1637	0	32804	32654	
1638	0	32860	32796	
1639	0	32804	32748	
1640	0	32852	32704	
1641	0	32858	32700	
1642	0	32792	32839	
1643	0	32816	32828	
1644	0	32768	32830	
1645	0	32844	32828	
1646	0	32798	32732	
1647	0	32868	32832	
1648	0	32828	32812	
1649	0	32804	32794	
1650	0	32852	32692	
1651	0	32800	32732	
1652	0	32816	32775	
1653	0	32798	32676	
1654	0	32808	32788	
1655	0	32828	32796	
1656	0	32836	32760	
1657	0	32804	32720	
1658	0	32792	32788	
1659	0	32876	32822	
1660	0	32816	32839	
1661	0	32788	32692	
1662	0	32798	32828	
1663	0	32804	32738	
1664	0	32812	32822	
1665	0	32808	32716	
1666	0	32716	32816	
1667	0	32820	32793	
1668	0	32832	32620	
1669	0	32796	32814	
1670	0	32792	32846	
1671	0	32772	32678	
1672	0	32806	32796	
1673	0	32876	32806	
1674	0	32896	32728	
1675	0	32760	32775	
1676	0	32856	32824	
1677	0	32819	32746	
1678	0	32856	32694	
1679	0	32808	32849	
1680	0	32860	32756	
1681	0	32764	32722	
1682	0	32778	32786	
1683	0	32816	32810	
1684	0	32766	32696	
1685	0	32832	32748	
1686	0	32840	32775	
1687	0	32808	32708	
1688	0	32804	32772	
1689	0	32839	32750	
1690	0	32736	32702	
1691	0	32764	32682	
1692	0	32816	32846	
1693	0	32784	32812	
1694	0	32798	32809	
1695	0	32810	32762	
1696	0	32828	32775	
1697	0	32808	32770	
1698	0	32826	32682	
1699	0	32836	32738	
1700	0	32800	32770	
1701	0	32848	32727	
1702	0	32828	32790	
1703	0	32800	32732	
1704	0	32748	32707	
1705	0	32808	32647	
1706	0	32896	32692	
1707	0	32802	32810	
1708	0	32824	32724	
1709	0	32796	32754	
1710	0	32780	32814	
1711	0	32820	32724	
1712	0	32848	32852	
1713	0	32836	32769	
1714	0	32772	32730	
1715	0	32768	32806	
1716	0	32786	32794	
1717	0	32796	32670	
1718	0	32860	32838	
1719	0	32804	32806	
1720	0	32892	32687	
1721	0	32860	32796	
1722	0	32746	32764	
1723	0	32780	32690	
1724	0	32752	32846	
1725	0	32780	32772	
1726	0	32856	32647	
1727	0	32840	32743	
1728	0	32816	32822	
1729	0	32786	32707	
1730	0	32822	32696	
1731	0	32824	32788	
1732	0	32834	32702	
1733	0	32800	32748	
1734	0	32756	32852	
1735	0	32792	32732	
1736	0	32834	32706	
1737	0	32804	32762	
1738	0	32788	32849	
1739	0	32820	32806	
1740	0	32870	32766	
1741	0	32800	32712	
1742	0	32842	32788	
1743	0	32784	32790	
1744	0	32794	32820	
1745	0	32810	32706	
1746	0	32824	32794	
1747	0	32732	32708	
1748	0	32808	32743	
1749	0	32822	32900	
1750	0	32836	32708	
1751	0	32784	32775	
1752	0	32824	32911	
1753	0	32812	32839	
1754	0	32832	32742	
1755	0	32804	32875	
1756	0	32826	32858	
1757	0	32776	32826	
1758	0	32892	32740	
1759	0	32824	32810	
1760	0	32804	32766	
1761	0	32836	32804	
1762	0	32780	32835	
1763	0	32886	32775	
1764	0	32830	32852	
1765	0	32756	32751	
1766	0	32812	32698	
1767	0	32824	32772	
1768	0	32772	32706	
1769	0	32782	32702	
1770	0	32764	32612	
1771	0	32734	32648	
1772	0	32784	32700	
1773	0	32744	32567	
1774	0	32812	32698	
1775	0	32738	32663	
1776	0	32728	32576	
1777	0	32720	32680	
1778	0	32722	32688	
1779	0	32728	32578	
1780	0	32644	32707	
1781	0	32748	32710	
1782	0	32752	32620	
1783	0	32760	32708	
1784	0	32676	32735	
1785	0	32740	32792	
1786	0	32842	32646	
1787	0	32808	32775	
1788	0	32833	32764	
1789	0	32823	32700	
1790	0	32874	32695	
1791	0	32892	32745	
1792	0	32960	32772	
1793	0	33040	32724	
1794	0	33064	32961	
1795	0	33092	32903	
1796	0	33156	33206	
1797	0	33132	33100	
1798	0	33124	33287	
1799	0	33016	33152	
1800	0	33016	33156	
1801	0	32886	33028	
1802	0	32872	33031	
1803	0	32784	33038	
1804	0	32814	32874	
1805	0	32690	32842	
1806	0	32696	32722	
1807	0	32724	32594	
1808	0	32732	32504	
1809	0	32757	32577	
1810	0	32752	32544	
1811	0	32725	32594	
1812	0	32702	32631	
1813	0	32640	32640	
1814	0	32652	32550	
1815	0	32652	32734	
1816	0	32708	32648	
1817	0	32716	32748	
1818	0	32736	32783	
1819	0	32720	32740	
1820	0	32836	32694	
1821	0	32746	32678	
1822	0	32782	32678	
1823	0	32784	32802	
1824	0	32766	32668	
1825	0	32846	32814	
1826	0	32748	32782	
1827	0	32736	32756	
1828	0	32796	32772	
1829	0	32804	32865	
1830	0	32816	32694	
1831	0	32826	32750	
1832	0	32810	32775	
1833	0	32888	32838	
1834	0	32824	32775	
1835	0	32844	32740	
1836	0	32828	32748	
1837	0	32782	32838	
1838	0	32800	32720	
1839	0	32772	32706	
1840	0	32844	32774	
1841	0	32796	32756	
1842	0	32844	32738	
1843	0	32820	32738	
1844	0	32840	32807	
1845	0	32902	32836	
1846	0	32876	32750	
1847	0	32784	32708	
1848	0	32860	32852	
1849	0	32808	32820	
1850	0	32784	32798	
1851	0	32796	32812	
1852	0	32856	32822	
1853	0	32824	32711	
1854	0	32800	32818	
1855	0	32754	32786	
1856	0	32820	32692	
1857	0	32864	32828	
1858	0	32788	32680	
1859	0	32808	32817	
1860	0	32776	32654	
1861	0	32742	32786	
1862	0	32796	32842	
1863	0	32800	32670	
1864	0	32848	32805	
1865	0	32904	32752	
1866	0	32812	32828	
1867	0	32816	32740	
1868	0	32780	32814	
1869	0	32814	32806	
1870	0	32840	32710	
1871	0	32784	32720	
1872	0	32864	32790	
1873	0	32816	32828	
1874	0	32802	32740	
1875	0	32760	32802	
1876	0	32804	32766	
1877	0	32800	32808	
1878	0	32806	32752	
1879	0	32844	32722	
1880	0	32782	32748	
1881	0	32834	32832	
1882	0	32806	32732	
1883	0	32768	32920	
1884	0	32749	32775	
1885	0	32865	32814	
1886	0	32786	32737	
1887	0	32864	32747	
1888	0	32834	32858	
1889	0	32856	32798	
1890	0	32840	32750	
1891	0	32775	32775	
1892	0	32842	32732	
1893	0	32796	32810	
1894	0	32776	32789	
1895	0	32828	32870	
1896	0	32950	32684	
1897	0	32794	32736	
1898	0	32810	32774	
1899	0	32848	32759	
1900	0	32786	32830	
1901	0	32782	32668	
1902	0	32836	32770	
1903	0	32820	32752	
1904	0	32800	32751	
1905	0	32842	32658	
1906	0	32744	32806	
1907	0	32812	32788	
1908	0	32774	32775	
1909	0	32818	32710	
1910	0	32876	32694	
1911	0	32860	32839	
1912	0	32768	32775	
1913	0	32776	32710	
1914	0	32804	32794	
1915	0	32808	32810	
1916	0	32812	32817	
1917	0	32774	32672	
1918	0	32868	32788	
1919	0	32812	32814	
1920	0	32784	32703	
1921	0	32792	32758	
1922	0	32792	32823	
1923	0	32792	32792	
1924	0	32777	32743	
1925	0	32800	32743	
1926	0	32862	32782	
1927	0	32872	32775	
1928	0	32804	32697	
1929	0	32830	32714	
1930	0	32852	32728	
1931	0	32766	32860	
1932	0	32848	32769	
1933	0	32784	32753	
1934	0	32808	32720	
1935	0	32832	32736	
1936	0	32796	32817	
1937	0	32836	32708	
1938	0	32852	32771	
1939	0	32816	32688	
1940	0	32846	32764	
1941	0	32816	32814	
1942	0	32764	32750	
1943	0	32856	32812	
1944	0	32848	32766	
1945	0	32836	32830	
1946	0	32834	32758	
1947	0	32760	32764	
1948	0	32768	32704	
1949	0	32804	32824	
1950	0	32824	32846	
1951	0	32830	32703	
1952	0	32736	32810	
1953	0	32898	32796	
1954	0	32806	32702	
1955	0	32798	32796	
1956	0	32856	32876	
1957	0	32782	32679	
1958	0	32784	32725	
1959	0	32896	32716	
1960	0	32752	32702	
1961	0	32820	32844	
1962	0	32840	32790	
1963	0	32764	32671	
1964	0	32776	32804	
1965	0	32784	32790	
1966	0	32816	32816	
1967	0	32868	32670	
1968	0	32824	32874	
1969	0	32848	32764	
1970	0	32820	32808	
1971	0	32754	32713	
1972	0	32852	32884	
1973	0	32808	32764	
1974	0	32838	32848	
1975	0	32828	32692	
1976	0	32870	32720	
1977	0	32874	32775	
1978	0	32796	32742	
1979	0	32776	32638	
1980	0	32800	32806	
1981	0	32838	32768	
1982	0	32774	32775	
1983	0	32794	32642	
1984	0	32792	32832	
1985	0	32846	32775	
1986	0	32836	32743	
1987	0	32814	32742	
1988	0	32824	32836	
1989	0	32832	32791	
1990	0	32804	32772	
1991	0	32837	32720	
1992	0	32826	32774	
1993	0	32848	32862	
1994	0	32848	32743	
1995	0	32782	32812	
1996	0	32826	32774	
1997	0	32832	32772	
1998	0	32848	32679	
1999	0	32840	32763	
2000	0	32840	32775	
2001	0	32778	32774	
2002	0	32836	32860	
2003	0	32824	32730	
2004	0	32720	32736	
2005	0	32812	32806	
2006	0	32792	32804	
2007	0	32894	32659	
2008	0	32833	32804	
2009	0	32830	32839	
2010	0	32838	32791	
2011	0	32768	32796	
2012	0	32840	32748	
2013	0	32764	32838	
2014	0	32794	32796	
2015	0	32832	32711	
2016	0	32800	32725	
2017	0	32772	32760	
2018	0	32756	32820	
2019	0	32816	32647	
2020	0	32862	32815	
2021	0	32856	32791	
2022	0	32840	32775	
2023	0	32836	32640	
2024	0	32740	32847	
2025	0	32780	32746	
2026	0	32792	32822	
2027	0	32861	32711	
2028	0	32830	32863	
2029	0	32860	32820	
2030	0	32788	32852	
2031	0	32829	32657	
2032	0	32754	32712	
2033	0	32816	32768	
2034	0	32868	32802	
2035	0	32792	32762	
2036	0	32848	32750	
2037	0	32848	32775	
2038	0	32834	32782	
2039	0	32782	32773	
2040	0	32800	32764	
2041	0	32794	32836	
2042	0	32836	32760	
2043	0	32808	32708	
2044	0	32832	32696	
2045	0	32796	32874	
2046	0	32790	32758	
2047	0	32788	32788	
2048	0	32840	32795	
2049	0	32908	32772	
2050	0	32872	32748	
2051	0	32748	32810	
2052	0	32812	32775	
2053	0	32752	32822	
2054	0	32798	32749	
2055	0	32868	32756	
2056	0	32852	32720	
2057	0	32817	32764	
2058	0	32832	32797	
2059	0	32828	32756	
2060	0	32792	32844	
2061	0	32818	32840	
2062	0	32852	32800	
2063	0	32808	32740	
2064	0	32788	32775	
2065	0	32868	32838	
2066	0	32804	32764	
2067	0	32768	32722	
2068	0	32808	32758	
2069	0	32836	32775	
2070	0	32800	32775	
2071	0	32804	32829	
2072	0	32826	32724	
2073	0	32856	32762	
2074	0	32774	32728	
2075	0	32768	32775	
2076	0	32748	32775	
2077	0	32864	32724	
2078	0	32780	32712	
2079	0	32794	32816	
2080	0	32762	32703	
2081	0	32806	32738	
2082	0	32816	32788	
2083	0	32820	32790	
2084	0	32824	32775	
2085	0	32824	32728	
2086	0	32852	32808	
2087	0	32850	32752	
2088	0	32820	32832	
2089	0	32816	32647	
2090	0	32782	32813	
2091	0	32836	32748	
2092	0	32846	32728	
2093	0	32896	32850	
2094	0	32860	32924	
2095	0	32792	32910	
2096	0	32794	32692	
2097	0	32804	32832	
2098	0	32840	32742	
2099	0	32810	32774	
2100	0	32804	32724	
2101	0	32804	32629	
2102	0	32846	32764	
2103	0	32830	32863	
2104	0	32760	32718	
2105	0	32775	32838	
2106	0	32872	32836	
2107	0	32808	32730	
2108	0	32796	32772	
2109	0	32848	32796	
2110	0	32832	32799	
2111	0	32852	32618	
2112	0	32812	32836	
2113	0	32772	32775	
2114	0	32812	32838	
2115	0	32776	32762	
2116	0	32808	32855	
2117	0	32772	32812	
2118	0	32788	32775	
2119	0	32836	32657	
2120	0	32848	32770	
2121	0	32758	32746	
2122	0	32800	32774	
2123	0	32844	32710	
2124	0	32824	32790	
2125	0	32792	32732	
2126	0	32832	32798	
2127	0	32812	32698	
2128	0	32832	32821	
2129	0	32800	32743	
2130	0	32820	32810	
2131	0	32864	32706	
2132	0	32808	32850	
2133	0	32820	32754	
2134	0	32862	32714	
2135	0	32852	32803	
2136	0	32786	32796	
2137	0	32761	32900	
2138	0	32836	32696	
2139	0	32800	32879	
2140	0	32814	32775	
2141	0	32892	32783	
2142	0	32830	32647	
2143	0	32820	32788	
2144	0	32896	32768	
2145	0	32825	32842	
2146	0	32838	32726	
2147	0	32830	32740	
2148	0	32816	32801	
2149	0	32896	32624	
2150	0	32832	32800	
2151	0	32792	32726	
2152	0	32782	32730	
2153	0	32856	32704	
2154	0	32792	32775	
2155	0	32818	32839	
2156	0	32760	32647	
2157	0	32808	32752	
2158	0	32758	32796	
2159	0	32802	32792	
2160	0	32836	32698	
2161	0	32842	32726	
2162	0	32840	32803	
2163	0	32820	32659	
2164	0	32800	32868	
2165	0	32804	32804	
2166	0	32832	32798	
2167	0	32778	32724	
2168	0	32796	32802	
2169	0	32764	32836	
2170	0	32872	32733	
2171	0	32842	32742	
2172	0	32782	32690	
2173	0	32764	32708	
2174	0	32816	32790	
2175	0	32812	32768	
2176	0	32840	32773	
2177	0	32794	32748	
2178	0	32800	32671	
2179	0	32828	32775	
2180	0	32788	32832	
2181	0	32772	32702	
2182	0	32834	32853	
2183	0	32816	32770	
2184	0	32788	32722	
2185	0	32810	32789	
2186	0	32792	32858	
2187	0	32742	32860	
2188	0	32770	32632	
2189	0	32738	32672	
2190	0	32836	32799	
2191	0	32824	32736	
2192	0	32848	32871	
2193	0	32830	32726	
2194	0	32800	32796	
2195	0	32868	32818	
2196	0	32800	32828	
2197	0	32852	32724	
2198	0	32798	32748	
2199	0	32804	32800	
2200	0	32812	32706	
2201	0	32778	32756	
2202	0	32800	32751	
2203	0	32768	32774	
2204	0	32812	32695	
2205	0	32872	32768	
2206	0	32780	32814	
2207	0	32780	32726	
2208	0	32808	32830	
2209	0	32884	32801	
2210	0	32768	32706	
2211	0	32868	32828	
2212	0	32816	32836	
2213	0	32732	32788	
2214	0	32832	32748	
2215	0	32846	32838	
2216	0	32788	32775	
2217	0	32866	32708	
2218	0	32848	32680	
2219	0	32812	32704	
2220	0	32824	32858	
2221	0	32832	32744	
2222	0	32804	32790	
2223	0	32816	32768	
2224	0	32762	32766	
2225	0	32806	32714	
2226	0	32804	32714	
2227	0	32816	32687	
2228	0	32864	32775	
2229	0	32840	32834	
2230	0	32788	32726	
2231	0	32804	32710	
2232	0	32820	32738	
2233	0	32841	32724	
2234	0	32804	32712	
2235	0	32832	32732	
2236	0	32852	32876	
2237	0	32800	32726	
2238	0	32812	32942	
2239	0	32824	32864	
2240	0	32752	32860	
2241	0	32768	32734	
2242	0	32820	32774	
2243	0	32856	32870	
2244	0	32768	32654	
2245	0	32796	32753	
2246	0	32822	32889	
2247	0	32840	32646	
2248	0	32838	32812	
2249	0	32732	32842	
2250	0	32792	32708	
2251	0	32776	32775	
2252	0	32806	32759	
2253	0	32816	32682	
2254	0	32834	32720	
2255	0	32796	32794	
2256	0	32860	32714	
2257	0	32802	32793	
2258	0	32806	32846	
2259	0	32840	32711	
2260	0	32836	32868	
2261	0	32924	32710	
2262	0	32872	32775	
2263	0	32740	32726	
2264	0	32764	32743	
2265	0	32818	32754	
2266	0	32841	32806	
2267	0	32800	32765	
2268	0	32780	32750	
2269	0	32784	32838	
2270	0	32798	32772	
2271	0	32828	32668	
2272	0	32856	32720	
2273	0	32836	32712	
2274	0	32820	32724	
2275	0	32804	32791	
2276	0	32804	32766	
2277	0	32748	32806	
2278	0	32834	32734	
2279	0	32792	32695	
2280	0	32816	32834	
2281	0	32784	32770	
2282	0	32844	32710	
2283	0	32786	32728	
2284	0	32766	32817	
2285	0	32768	32676	
2286	0	32820	32684	
2287	0	32832	32796	
2288	0	32862	32814	
2289	0	32828	32800	
2290	0	32788	32775	
2291	0	32740	32775	
2292	0	32836	32758	
2293	0	32776	32830	
2294	0	32860	32796	
2295	0	32780	32794	
2296	0	32766	32764	
2297	0	32762	32726	
2298	0	32812	32662	
2299	0	32868	32775	
2300	0	32890	32818	
2301	0	32816	32768	
2302	0	32824	32775	
2303	0	32872	32788	
2304	0	32790	32657	
2305	0	32812	32801	
2306	0	32824	32828	
2307	0	32800	32724	
2308	0	32880	32847	
2309	0	32788	32844	
2310	0	32864	32644	
2311	0	32868	32854	
2312	0	32756	32814	
2313	0	32796	32738	
2314	0	32792	32836	
2315	0	32761	32712	
2316	0	32784	32800	
2317	0	32820	32724	
2318	0	32884	32722	
2319	0	32852	32820	
2320	0	32744	32679	
2321	0	32860	32760	
2322	0	32784	32742	
2323	0	32860	32838	
2324	0	32836	32678	
2325	0	32856	32718	
2326	0	32804	32756	
2327	0	32836	32764	
2328	0	32869	32874	
2329	0	32808	32805	
2330	0	32852	32678	
2331	0	32812	32774	
2332	0	32740	32802	
2333	0	32770	32758	
2334	0	32824	32871	
2335	0	32828	32732	
2336	0	32778	32742	
2337	0	32860	32756	
2338	0	32826	32758	
2339	0	32760	32734	
2340	0	32844	32807	
2341	0	32784	32708	
2342	0	32852	32774	
2343	0	32738	32832	
2344	0	32812	32742	
2345	0	32768	32834	
2346	0	32846	32789	
2347	0	32816	32768	
2348	0	32874	32750	
2349	0	32804	32812	
2350	0	32834	32792	
2351	0	32788	32652	
2352	0	32820	32804	
2353	0	32788	32716	
2354	0	32824	32761	
2355	0	32826	32716	
2356	0	32808	32798	
2357	0	32824	32711	
2358	0	32820	32824	
2359	0	32784	32828	
2360	0	32832	32775	
2361	0	32744	32788	
2362	0	32796	32756	
2363	0	32780	32753	
2364	0	32841	32752	
2365	0	32780	32868	
2366	0	32868	32808	
2367	0	32810	32652	
2368	0	32792	32747	
2369	0	32820	32692	
2370	0	32878	32760	
2371	0	32822	32798	
2372	0	32852	32790	
2373	0	32844	32768	
2374	0	32784	32687	
2375	0	32804	32892	
2376	0	32786	32806	
2377	0	32804	32717	
2378	0	32786	32762	
2379	0	32816	32706	
2380	0	32836	32820	
2381	0	32928	32767	
2382	0	32836	32785	
2383	0	32820	32798	
2384	0	32760	32830	
2385	0	32774	32740	
2386	0	32764	32804	
2387	0	32828	32710	
2388	0	32820	32808	
2389	0	32820	32768	
2390	0	32820	32775	
2391	0	32772	32768	
2392	0	32794	32725	
2393	0	32860	32790	
2394	0	32832	32730	
2395	0	32784	32769	
2396	0	32804	32846	
2397	0	32768	32846	
2398	0	32824	32788	
2399	0	32824	32775	
2400	0	32816	32756	
2401	0	32760	32800	
2402	0	32804	32752	
2403	0	32766	32800	
2404	0	32808	32818	
2405	0	32810	32792	
2406	0	32818	32732	
2407	0	32864	32753	
2408	0	32775	32718	
2409	0	32820	32836	
2410	0	32876	32775	
2411	0	32836	32714	
2412	0	32784	32715	
2413	0	32796	32700	
2414	0	32782	32656	
2415	0	32832	32726	
2416	0	32774	32838	
2417	0	32800	32860	
2418	0	32856	32730	
2419	0	32815	32772	
2420	0	32824	32793	
2421	0	32828	32895	
2422	0	32826	32852	
2423	0	32846	32708	
2424	0	32752	32711	
2425	0	32808	32714	
2426	0	32820	32866	
2427	0	32820	32812	
2428	0	32818	32747	
2429	0	32832	32720	
2430	0	32848	32704	
2431	0	32870	32822	
2432	0	32786	32798	
2433	0	32848	32768	
2434	0	32810	32680	
2435	0	32791	32697	
2436	0	32768	32732	
2437	0	32822	32878	
2438	0	32774	32775	
2439	0	32852	32732	
2440	0	32812	32822	
2441	0	32832	32806	
2442	0	32812	32732	
2443	0	32804	32738	
2444	0	32848	32743	
2445	0	32792	32799	
2446	0	32825	32746	
2447	0	32810	32708	
2448	0	32808	32775	
2449	0	32810	32775	
2450	0	32864	32768	
2451	0	32818	32702	
2452	0	32780	32714	
2453	0	32822	32670	
2454	0	32748	32704	
2455	0	32864	32744	
2456	0	32820	32796	
2457	0	32756	32794	
2458	0	32788	32753	
2459	0	32814	32686	
2460	0	32832	32718	
2461	0	32756	32788	
2462	0	32782	32868	
2463	0	32820	32798	
2464	0	32772	32743	
2465	0	32809	32844	
2466	0	32872	32828	
2467	0	32826	32792	
2468	0	32832	32676	
2469	0	32756	32708	
2470	0	32820	32775	
2471	0	32828	32804	
2472	0	32836	32720	
2473	0	32788	32811	
2474	0	32764	32700	
2475	0	32860	32688	
2476	0	32792	32856	
2477	0	32820	32790	
2478	0	32828	32790	
2479	0	32828	32767	
2480	0	32880	32870	
2481	0	32840	32759	
2482	0	32775	32775	
2483	0	32744	32740	
2484	0	32812	32719	
2485	0	32788	32871	
2486	0	32832	32775	
2487	0	32756	32751	
2488	0	32752	32686	
2489	0	32768	32708	
2490	0	32798	32772	
2491	0	32696	32727	
2492	0	32706	32575	
2493	0	32728	32642	
2494	0	32768	32654	
2495	0	32736	32620	
2496	0	32748	32676	
2497	0	32736	32626	
2498	0	32736	32667	
2499	0	32704	32615	
2500	0	32702	32668	
2501	0	32828	32700	
2502	0	32740	32660	
2503	0	32734	32746	
2504	0	32766	32707	
2505	0	32780	32764	
2506	0	32828	32748	
2507	0	32812	32828	
2508	0	32836	32744	
2509	0	32800	32660	
2510	0	32868	32566	
2511	0	32974	32734	
2512	0	33000	32834	
2513	0	33096	32892	
2514	0	33104	33098	
2515	0	33098	33230	
2516	0	33128	33242	
2517	0	33120	33206	
2518	0	33080	33190	
2519	0	33000	33076	
2520	0	32900	33012	
2521	0	32856	33100	
2522	0	32824	32986	
2523	0	32840	32856	
2524	0	32732	32840	
2525	0	32648	32695	
2526	0	32714	32647	
2527	0	32688	32586	
2528	0	32668	32556	
2529	0	32724	32508	
2530	0	32706	32492	
2531	0	32708	32446	
2532	0	32672	32660	
2533	0	32692	32664	
2534	0	32748	32646	
2535	0	32732	32700	
2536	0	32724	32652	
2537	0	32742	32761	
2538	0	32756	32666	
2539	0	32766	32694	
2540	0	32736	32722	
2541	0	32758	32764	
2542	0	32780	32902	
2543	0	32812	32774	
2544	0	32762	32786	
2545	0	32792	32758	
2546	0	32806	32775	
2547	0	32864	32804	
2548	0	32808	32871	
2549	0	32840	32867	
2550	0	32852	32803	
2551	0	32845	32728	
2552	0	32886	32648	
2553	0	32848	32710	
2554	0	32810	32662	
2555	0	32834	32703	
2556	0	32864	32831	
2557	0	32856	32812	
2558	0	32840	32742	
2559	0	32832	32799	
2560	0	32828	32839	
2561	0	32924	32895	
2562	0	32784	32775	
2563	0	32860	32810	
2564	0	32804	32894	
2565	0	32788	32788	
2566	0	32770	32774	
2567	0	32722	32732	
2568	0	32778	32828	
2569	0	32844	32804	
2570	0	32748	32828	
2571	0	32844	32746	
2572	0	32804	32622	
2573	0	32824	32686	
2574	0	32792	32752	
2575	0	32788	32688	
2576	0	32854	32802	
2577	0	32798	32768	
2578	0	32880	32692	
2579	0	32844	32758	
2580	0	32796	32754	
2581	0	32804	32854	
2582	0	32806	32752	
2583	0	32808	32738	
2584	0	32720	32745	
2585	0	32856	32692	
2586	0	32852	32719	
2587	0	32804	32702	
2588	0	32796	32736	
2589	0	32816	32774	
2590	0	32804	32830	
2591	0	32784	32775	
2592	0	32772	32794	
2593	0	32776	32819	
2594	0	32780	32816	
2595	0	32820	32775	
2596	0	32881	32688	
2597	0	32884	32732	
2598	0	32824	32818	
2599	0	32828	32775	
2600	0	32858	32764	
2601	0	32748	32712	
2602	0	32838	32668	
2603	0	32790	32704	
2604	0	32832	32655	
2605	0	32844	32704	
2606	0	32824	32839	
2607	0	32784	32842	
2608	0	32810	32833	
2609	0	32836	32832	
2610	0	32832	32836	
2611	0	32780	32820	
2612	0	32762	32904	
2613	0	32796	32807	
2614	0	32786	32784	
2615	0	32712	32790	
2616	0	32816	32786	
2617	0	32800	32804	
2618	0	32844	32788	
2619	0	32860	32752	
2620	0	32844	32812	
2621	0	32764	32838	
2622	0	32808	32844	
2623	0	32776	32810	
2624	0	32828	32808	
2625	0	32848	32608	
2626	0	32840	32660	
2627	0	32794	32710	
2628	0	32836	32822	
2629	0	32852	32816	
2630	0	32822	32770	
2631	0	32836	32750	
2632	0	32856	32860	
2633	0	32778	32820	
2634	0	32798	32692	
2635	0	32774	32832	
2636	0	32756	32775	
2637	0	32834	32814	
2638	0	32796	32772	
2639	0	32822	32718	
2640	0	32873	32764	
2641	0	32864	32730	
2642	0	32770	32663	
2643	0	32800	32730	
2644	0	32788	32823	
2645	0	32800	32794	
2646	0	32796	32842	
2647	0	32852	32804	
2648	0	32836	32774	
2649	0	32810	32788	
2650	0	32864	32764	
2651	0	32824	32678	
2652	0	32776	32695	
2653	0	32852	32694	
2654	0	32808	32798	
2655	0	32792	32744	
2656	0	32766	32832	
2657	0	32828	32782	
2658	0	32832	32806	
2659	0	32824	32810	
2660	0	32786	32886	
2661	0	32768	32682	
2662	0	32882	32732	
2663	0	32756	32706	
2664	0	32810	32754	
2665	0	32716	32738	
2666	0	32758	32864	
2667	0	32832	32754	
2668	0	32864	32759	
2669	0	32854	32788	
2670	0	32822	32807	
2671	0	32840	32694	
2672	0	32772	32715	
2673	0	32858	32636	
2674	0	32820	32730	
2675	0	32796	32876	
2676	0	32778	32766	
2677	0	32817	32791	
2678	0	32854	32792	
2679	0	32836	32739	
2680	0	32864	32800	
2681	0	32834	32796	
2682	0	32804	32748	
2683	0	32812	32815	
2684	0	32872	32744	
2685	0	32802	32860	
2686	0	32804	32750	
2687	0	32812	32751	
2688	0	32774	32706	
2689	0	32792	32800	
2690	0	32752	32706	
2691	0	32760	32750	
2692	0	32828	32758	
2693	0	32788	32736	
2694	0	32740	32840	
2695	0	32818	32784	
2696	0	32800	32854	
2697	0	32752	32806	
2698	0	32818	32836	
2699	0	32776	32854	
2700	0	32788	32758	
2701	0	32834	32748	
2702	0	32800	32794	
2703	0	32804	32838	
2704	0	32858	32750	
2705	0	32824	32762	
2706	0	32880	32775	
2707	0	32864	32762	
2708	0	32778	32768	
2709	0	32844	32775	
2710	0	32838	32798	
2711	0	32796	32774	
2712	0	32834	32792	
2713	0	32724	32610	
2714	0	32792	32666	
2715	0	32836	32660	
2716	0	32818	32722	
2717	0	32752	32830	
2718	0	32816	32820	
2719	0	32836	32784	
2720	0	32820	32804	
2721	0	32840	32814	
2722	0	32812	32812	
2723	0	32824	32898	
2724	0	32780	32852	
2725	0	32750	32806	
2726	0	32780	32775	
2727	0	32852	32754	
2728	0	32900	32663	
2729	0	32872	32676	
2730	0	32876	32678	
2731	0	32828	32751	
2732	0	32794	32734	
2733	0	32794	32847	
2734	0	32824	32826	
2735	0	32788	32840	
2736	0	32810	32719	
2737	0	32824	32752	
2738	0	32864	32752	
2739	0	32794	32798	
2740	0	32878	32740	
2741	0	32790	32866	
2742	0	32812	32874	
2743	0	32876	32836	
2744	0	32799	32772	
2745	0	32836	32729	
2746	0	32832	32646	
2747	0	32816	32732	
2748	0	32852	32640	
2749	0	32880	32746	
2750	0	32810	32775	
2751	0	32712	32721	
2752	0	32830	32654	
2753	0	32764	32704	
2754	0	32784	32700	
2755	0	32838	32870	
2756	0	32766	32844	
2757	0	32840	32788	
2758	0	32868	32858	
2759	0	32818	32774	
2760	0	32844	32750	
2761	0	32864	32823	
2762	0	32816	32802	
2763	0	32788	32806	
2764	0	32840	32807	
2765	0	32808	32822	
2766	0	32886	32863	
2767	0	32746	32824	
2768	0	32822	32760	
2769	0	32794	32775	
2770	0	32802	32892	
2771	0	32772	32762	
2772	0	32768	32774	
2773	0	32816	32638	
2774	0	32776	32660	
2775	0	32772	32732	
2776	0	32820	32676	
2777	0	32728	32828	
2778	0	32808	32802	
2779	0	32792	32824	
2780	0	32918	32792	
2781	0	32892	32722	
2782	0	32868	32708	
2783	0	32864	32798	
2784	0	32780	32764	
2785	0	32736	32870	
2786	0	32833	32796	
2787	0	32824	32676	
2788	0	32817	32775	
2789	0	32794	32672	
2790	0	32808	32711	
2791	0	32800	32688	
2792	0	32836	32744	
2793	0	32763	32820	
2794	0	32784	32832	
2795	0	32828	32868	
2796	0	32756	32791	
2797	0	32836	32804	
2798	0	32804	32836	
2799	0	32821	32810	
2800	0	32796	32775	
2801	0	32856	32808	
2802	0	32830	32708	
2803	0	32764	32864	
2804	0	32776	32732	
2805	0	32820	32722	
2806	0	32864	32642	
2807	0	32810	32652	
2808	0	32824	32736	
2809	0	32832	32766	
2810	0	32736	32814	
2811	0	32744	32708	
2812	0	32772	32756	
2813	0	32756	32750	
2814	0	32884	32847	
2815	0	32748	32871	
2816	0	32766	32794	
2817	0	32760	32840	
2818	0	32816	32724	
2819	0	32800	32714	
2820	0	32792	32684	
2821	0	32840	32700	
2822	0	32828	32774	
2823	0	32812	32710	
2824	0	32816	32789	
2825	0	32852	32710	
2826	0	32824	32673	
2827	0	32718	32754	
2828	0	32789	32760	
2829	0	32856	32704	
2830	0	32836	32774	
2831	0	32812	32661	
2832	0	32846	32714	
2833	0	32880	32724	
2834	0	32822	32596	
2835	0	32853	32700	
2836	0	32846	32629	
2837	0	32792	32757	
2838	0	32774	32788	
2839	0	32772	32760	
2840	0	32824	32807	
2841	0	32852	32966	
2842	0	32880	32576	
2843	0	32860	32832	
2844	0	32786	32839	
2845	0	32778	32846	
2846	0	32808	32876	
2847	0	32792	32844	
2848	0	32852	32775	
2849	0	32858	32584	
2850	0	32800	32720	
2851	0	32830	32704	
2852	0	32848	32798	
2853	0	32792	32700	
2854	0	32796	32736	
2855	0	32724	32743	
2856	0	32748	32720	
2857	0	32834	32746	
2858	0	32826	32692	
2859	0	32764	32764	
2860	0	32817	32832	
2861	0	32776	32826	
2862	0	32784	32836	
2863	0	32794	32863	
2864	0	32800	32724	
2865	0	32750	32750	
2866	0	32840	32715	
2867	0	32836	32726	
2868	0	32762	32874	
2869	0	32820	32826	
2870	0	32832	32762	
2871	0	32832	32839	
2872	0	32834	32775	
2873	0	32821	32759	
2874	0	32808	32832	
2875	0	32740	32839	
2876	0	32792	32716	
2877	0	32816	32736	
2878	0	32764	32810	
2879	0	32800	32800	
2880	0	32748	32839	
2881	0	32782	32816	
2882	0	32842	32732	
2883	0	32876	32854	
2884	0	32908	32828	
2885	0	32864	32852	
2886	0	32812	32711	
2887	0	32824	32742	
2888	0	32826	32904	
2889	0	32825	32770	
2890	0	32840	32788	
2891	0	32834	32748	
2892	0	32796	32738	
2893	0	32792	32679	
2894	0	32828	32854	
2895	0	32894	32772	
2896	0	32810	32771	
2897	0	32824	32828	
2898	0	32824	32836	
2899	0	32776	32724	
2900	0	32832	32710	
2901	0	32876	32705	
2902	0	32856	32718	
2903	0	32876	32906	
2904	0	32848	32815	
2905	0	32772	32732	
2906	0	32768	32831	
2907	0	32742	32690	
2908	0	32700	32702	
2909	0	32778	32748	
2910	0	32846	32748	
2911	0	32706	32728	
2912	0	32776	32806	
2913	0	32784	32844	
2914	0	32816	32738	
2915	0	32804	32830	
2916	0	32836	32878	
2917	0	32852	32825	
2918	0	32848	32854	
2919	0	32820	32772	
2920	0	32868	32822	
2921	0	32836	32727	
2922	0	32788	32847	
2923	0	32856	32794	
2924	0	32810	32824	
2925	0	32856	32948	
2926	0	32852	32918	
2927	0	32912	32848	
2928	0	32908	32704	
2929	0	32698	32730	
2930	0	32608	32660	
2931	0	32656	32676	
2932	0	32663	32775	
2933	0	32673	32570	
2934	0	32678	32549	
2935	0	32664	32666	
2936	0	32841	32530	
2937	0	32792	32468	
2938	0	32800	32640	
2939	0	32884	32756	
2940	0	32856	32820	
2941	0	32889	32858	
2942	0	32775	32901	
2943	0	32974	32860	
2944	0	33054	32865	
2945	0	33000	32820	
2946	0	33021	32891	
2947	0	32948	32780	
2948	0	32846	32689	
2949	0	32752	32752	
2950	0	32798	32890	
2951	0	32764	32896	
2952	0	32544	32792	
2953	0	32632	32884	
2954	0	32600	32622	
2955	0	32632	32740	
2956	0	32734	32772	
2957	0	32724	32638	
2958	0	32778	32668	
2959	0	32872	32740	
2960	0	32740	32775	
2961	0	32608	32710	
2962	0	32664	32620	
2963	0	32726	32750	
2964	0	32816	32852	
2965	0	32806	32978	
2966	0	32972	32936	
2967	0	32984	32864	
2968	0	32946	33058	
2969	0	33024	32940	
2970	0	33060	32646	
2971	0	33044	32554	
2972	0	32936	32630	
2973	0	32970	32743	
2974	0	32908	32807	
2975	0	32780	32740	
2976	0	32824	32647	
2977	0	32680	32788	
2978	0	32520	32874	
2979	0	32550	32902	
2980	0	32772	32868	
2981	0	32704	32746	
2982	0	32794	32820	
2983	0	32840	32775	
2984	0	33080	32614	
2985	0	33134	32490	
2986	0	33026	32618	
2987	0	32924	32884	
2988	0	32732	32690	
2989	0	32804	32920	
2990	0	32920	32742	
2991	0	32838	32510	
2992	0	32706	32614	
2993	0	32720	32636	
2994	0	32712	32652	
2995	0	32788	32743	
2996	0	32706	32728	
2997	0	32742	32706	
2998	0	32822	32887	
2999	0	32788	32917	
3000	0	32824	32868	
3001	0	32800	33014	
3002	0	32876	33018	
3003	0	32756	32775	
3004	0	32752	32758	
3005	0	32710	32760	
3006	0	32688	32794	
3007	0	32620	32694	
3008	0	32532	32714	
3009	0	32525	32834	
3010	0	32528	32638	
3011	0	32712	32731	
3012	0	32836	32858	
3013	0	32980	32818	
3014	0	33050	32922	
3015	0	32944	32948	
3016	0	32872	32775	
3017	0	32832	32844	
3018	0	32844	32766	
3019	0	32876	32807	
3020	0	32880	32766	
3021	0	32852	32576	
3022	0	32878	32592	
3023	0	32852	32708	
3024	0	32858	32652	
3025	0	32840	32722	
3026	0	32806	32600	
3027	0	32804	32788	
3028	0	32888	32841	
3029	0	32810	32775	
3030	0	32838	32601	
3031	0	32892	32908	
3032	0	32816	32922	
3033	0	32736	32796	
3034	0	32810	32752	
3035	0	32840	32750	
3036	0	32816	32700	
3037	0	32848	32647	
3038	0	32776	32757	
3039	0	32828	32839	
3040	0	32776	32814	
3041	0	32772	32892	
3042	0	32753	32866	
3043	0	32776	32836	
3044	0	32796	32818	
3045	0	32754	32715	
3046	0	32780	32767	
3047	0	32686	32844	
3048	0	32712	32775	
3049	0	32668	32734	
3050	0	32752	32720	
3051	0	32816	32654	
3052	0	32844	32686	
3053	0	32914	32759	
3054	0	32828	32944	
3055	0	32736	33150	
3056	0	32696	32990	
3057	0	32564	32856	
3058	0	32586	32802	
3059	0	32564	32743	
3060	0	32650	32391	
3061	0	32736	32316	
3062	0	32754	32464	
3063	0	32928	32548	
3064	0	33220	32654	
3065	0	33201	32693	
3066	0	33300	32914	
3067	0	33096	32972	
3068	0	33028	32743	
3069	0	32948	32819	
3070	0	32928	32752	
3071	0	32884	32834	
3072	0	32896	32880	
3073	0	32900	32732	
3074	0	32912	32647	
3075	0	33008	32558	
3076	0	32904	32770	
3077	0	32806	32697	
3078	0	32672	32706	
3079	0	32702	32775	
3080	0	32608	32852	
3081	0	32680	32702	
3082	0	32760	32751	
3083	0	32820	32762	
3084	0	32674	32798	
3085	0	32624	32978	
3086	0	32776	32887	
3087	0	32918	32654	
3088	0	32924	32668	
3089	0	32836	32862	
3090	0	32796	32866	
3091	0	32850	32838	
3092	0	32736	32834	
3093	0	32744	32698	
3094	0	32698	32826	
3095	0	32746	32775	
3096	0	32736	32853	
3097	0	32738	32772	
3098	0	32876	32775	
3099	0	32964	32654	
3100	0	32902	32674	
3101	0	32904	32657	
3102	0	32756	32696	
3103	0	32744	32984	
3104	0	32740	32758	
3105	0	32680	32864	
3106	0	32704	32888	
3107	0	32728	32770	
3108	0	32795	33055	
3109	0	32776	32788	
3110	0	32866	32528	
3111	0	32926	32754	
3112	0	32880	32792	
3113	0	32884	32856	
3114	0	32960	32808	
3115	0	32876	32762	
3116	0	32672	32706	
3117	0	32612	32576	
3118	0	32656	32642	
3119	0	32706	32575	
3120	0	32742	32583	
3121	0	32748	32583	
3122	0	32670	32966	
3123	0	32612	32938	
3124	0	32682	32859	
3125	0	32694	32796	
3126	0	32724	32604	
3127	0	32768	32663	
3128	0	32881	32871	
3129	0	32824	32996	
3130	0	32780	32807	
3131	0	32996	32614	
3132	0	33044	32592	
3133	0	33212	32775	
3134	0	33264	32838	
3135	0	33220	32862	
3136	0	33092	32590	
3137	0	32960	32630	
3138	0	33008	32684	
3139	0	33104	32856	
3140	0	33076	32874	
3141	0	32816	32712	
3142	0	32632	32599	
3143	0	32660	32644	
3144	0	32462	32751	
3145	0	32276	32828	
3146	0	32392	32890	
3147	0	32498	32630	
3148	0	32580	32682	
3149	0	32636	33156	
3150	0	32912	33342	
3151	0	32872	33238	
3152	0	32822	32519	
3153	0	32656	32820	
3154	0	32664	32719	
3155	0	32800	32850	
3156	0	32768	32743	
3157	0	32892	32614	
3158	0	32952	32710	
3159	0	32837	32928	
3160	0	32476	32724	
3161	0	32544	32839	
3162	0	32658	32573	
3163	0	32708	32452	
3164	0	32784	32464	
3165	0	32892	32488	
3166	0	32988	32592	
3167	0	32976	32695	
3168	0	32970	32536	
3169	0	32938	32854	
3170	0	33232	32634	
3171	0	33172	32666	
3172	0	33160	32956	
3173	0	33336	32900	
3174	0	33328	32775	
3175	0	33385	32862	
3176	0	33252	32870	
3177	0	33296	32802	
3178	0	33048	32900	
3179	0	32916	32878	
3180	0	32776	33076	
3181	0	32872	32881	
3182	0	32804	32752	
3183	0	32696	32932	
3184	0	32412	32876	
3185	0	32332	32775	
3186	0	32308	33014	
3187	0	32192	32702	
3188	0	32420	32543	
3189	0	32344	32702	
3190	0	32424	32860	
3191	0	32624	33070	
3192	0	32654	33054	
3193	0	32712	32918	
3194	0	32716	32796	
3195	0	32741	32918	
3196	0	32876	32575	
3197	0	32896	32708	
3198	0	32916	32678	
3199	0	32908	32280	
3200	0	32944	32294	
3201	0	32868	32629	
3202	0	32713	32580	
3203	0	32588	32618	
3204	0	32604	32918	
3205	0	32490	32546	
3206	0	32604	32758	
3207	0	32661	32988	
3208	0	32532	32814	
3209	0	32328	32406	
3210	0	32436	32254	
3211	0	32744	32616	
3212	0	32788	33026	
3213	0	32790	32616	
3214	0	32820	32486	
3215	0	32962	32754	
3216	0	33260	32928	
3217	0	33336	32214	
3218	0	33348	32714	
3219	0	33370	32762	
3220	0	33524	32924	
3221	0	33288	33062	
3222	0	33260	32614	
3223	0	33200	32662	
3224	0	32792	32960	
3225	0	32680	32992	
3226	0	32610	32816	
3227	0	32796	33068	
3228	0	33002	33164	
3229	0	32880	33055	
3230	0	32880	33031	
3231	0	32862	32908	
3232	0	33148	33111	
3233	0	33124	33392	
3234	0	33056	33096	
3235	0	32664	32990	
3236	0	32438	32592	
3237	0	32384	32618	
3238	0	32456	32538	
3239	0	32604	32700	
3240	0	32828	32527	
3241	0	32916	32455	
3242	0	32848	32775	
3243	0	32598	32742	
3244	0	32576	32998	
3245	0	32816	32704	
3246	0	32856	32820	
3247	0	32792	32542	
3248	0	32774	32226	
3249	0	32924	32566	
3250	0	33164	32676	
3251	0	33252	32692	
3252	0	33156	32647	
3253	0	32712	32857	
3254	0	32468	32836	
3255	0	32610	33016	
3256	0	32728	32852	
3257	0	32704	32682	
3258	0	32792	32645	
3259	0	32778	32732	
3260	0	32764	32832	
3261	0	32800	32830	
3262	0	32802	32978	
3263	0	32960	33042	
3264	0	32724	32764	
3265	0	32768	32810	
3266	0	32684	32734	
3267	0	32688	32814	
3268	0	32728	33113	
3269	0	32972	32956	
3270	0	33210	32508	
3271	0	32982	32530	
3272	0	32820	32598	
3273	0	32708	32458	
3274	0	32480	32696	
3275	0	32452	32814	
3276	0	32496	32610	
3277	0	32464	32622	
3278	0	32614	32564	
3279	0	32646	32758	
3280	0	32648	32674	
3281	0	32676	32958	
3282	0	32600	32974	
3283	0	32548	33108	
3284	0	32708	32871	
3285	0	32948	32738	
3286	0	32932	32508	
3287	0	32464	32279	
3288	0	32213	32534	
3289	0	32688	32672	
3290	0	33204	32892	
3291	0	33348	33216	
3292	0	33356	32987	
3293	0	33243	32849	
3294	0	33364	32742	
3295	0	33312	33014	
3296	0	33178	33239	
3297	0	32725	33008	
3298	0	32624	32766	
3299	0	32708	32423	
3300	0	33012	32802	
3301	0	33194	32839	
3302	0	33188	32662	
3303	0	32916	32750	
3304	0	32788	32868	
3305	0	32876	33152	
3306	0	32936	32610	
3307	0	32984	32704	
3308	0	32968	32040	
3309	0	32890	32400	
3310	0	32760	32655	
3311	0	32521	32440	
3312	0	32416	32418	
3313	0	32320	32680	
3314	0	32350	32743	
3315	0	32468	32287	
3316	0	32436	32822	
3317	0	32366	33206	
3318	0	32256	33018	
3319	0	32296	32946	
3320	0	32600	33108	
3321	0	32786	33148	
3322	0	32928	32519	
3323	0	32932	32692	
3324	0	33077	32928	
3325	0	33270	32664	
3326	0	33416	32534	
3327	0	33422	32606	
3328	0	33340	32775	
3329	0	33098	32932	
3330	0	33144	32660	
3331	0	32956	32972	
3332	0	33042	33151	
3333	0	32994	32812	
3334	0	32960	32231	
3335	0	32882	32652	
3336	0	32481	32988	
3337	0	32202	33012	
3338	0	32164	33062	
3339	0	32212	32700	
3340	0	32120	32000	
3341	0	32132	32344	
3342	0	32752	32946	
3343	0	33182	32914	
3344	0	33424	33064	
3345	0	33472	32992	
3346	0	33472	32772	
3347	0	33344	32687	
3348	0	33244	32719	
3349	0	33124	32628	
3350	0	32974	33008	
3351	0	32812	33281	
3352	0	32490	32796	
3353	0	32348	32542	
3354	0	32276	32478	
3355	0	32433	32615	
3356	0	32446	32992	
3357	0	32480	33265	
3358	0	32388	32958	
3359	0	32228	32798	
3360	0	32616	32584	
3361	0	33038	32614	
3362	0	33032	32327	
3363	0	33190	32440	
3364	0	33084	32870	
3365	0	32892	32926	
3366	0	32537	32912	
3367	0	32114	32706	
3368	0	32146	32858	
3369	0	32336	32738	
3370	0	32580	32654	
3371	0	32800	32252	
3372	0	32864	31924	
3373	0	33080	33136	
3374	0	33186	33340	
3375	0	33056	33340	
3376	0	33184	32862	
3377	0	33424	32162	
3378	0	33408	32696	
3379	0	33346	33426	
3380	0	33436	32930	
3381	0	33164	32838	
3382	0	32968	32423	
3383	0	32824	32428	
3384	0	32908	32426	
3385	0	32420	32503	
3386	0	32462	32736	
3387	0	32576	32694	
3388	0	32762	32542	
3389	0	33110	32804	
3390	0	33160	33006	
3391	0	33146	32492	
3392	0	33304	32682	
3393	0	33102	32976	
3394	0	33032	33143	
3395	0	32964	32608	
3396	0	32520	32842	
3397	0	32254	33070	
3398	0	32428	33248	
3399	0	32560	33287	
3400	0	32616	33040	
3401	0	32654	32756	
3402	0	32584	32181	
3403	0	32508	32679	
3404	0	32384	32394	
3405	0	32406	32537	
3406	0	32664	32756	
3407	0	32746	33280	
3408	0	32708	33556	
3409	0	32564	32770	
3410	0	32484	32420	
3411	0	32688	32673	
3412	0	32624	32860	
3413	0	32730	32364	
3414	0	32886	32548	
3415	0	33084	32695	
3416	0	32786	32592	
3417	0	32602	32404	
3418	0	32726	33042	
3419	0	32924	33116	
3420	0	33124	33118	
3421	0	33220	32636	
3422	0	33316	32918	
3423	0	33250	32976	
3424	0	33257	32514	
3425	0	33224	32816	
3426	0	32780	33226	
3427	0	32652	32604	
3428	0	33004	32564	
3429	0	33177	32647	
3430	0	33152	32518	
3431	0	33244	32992	
3432	0	33336	33194	
3433	0	33054	32263	
3434	0	32720	32648	
3435	0	32356	32974	
3436	0	32338	32930	
3437	0	32248	32810	
3438	0	32308	32856	
3439	0	32460	32642	
3440	0	32556	32493	
3441	0	32354	32602	
3442	0	32114	32868	
3443	0	32212	32803	
3444	0	32668	32942	
3445	0	33076	32572	
3446	0	33066	32654	
3447	0	32600	33272	
3448	0	32720	33488	
3449	0	33024	32615	
3450	0	32922	32346	
3451	0	32880	32856	
3452	0	33094	32522	
3453	0	33068	32638	
3454	0	33020	32298	
3455	0	32748	32298	
3456	0	32764	32596	
3457	0	33210	32646	
3458	0	33336	32894	
3459	0	32442	33236	
3460	0	32286	33338	
3461	0	32528	33104	
3462	0	32832	32708	
3463	0	33172	32583	
3464	0	33498	32488	
3465	0	33564	32900	
3466	0	33464	33188	
3467	0	33520	32942	
3468	0	33200	32856	
3469	0	32752	32924	
3470	0	32204	32716	
3471	0	32550	33038	
3472	0	32900	32476	
3473	0	32948	32658	
3474	0	32944	32144	
3475	0	32728	32455	
3476	0	32794	32752	
3477	0	32598	33054	
3478	0	32580	33497	
3479	0	32816	33463	
3480	0	32944	33026	
3481	0	32444	32566	
3482	0	32480	32633	
3483	0	32552	32406	
3484	0	32800	32263	
3485	0	32631	31804	
3486	0	32360	32196	
3487	0	32576	32978	
3488	0	32780	33326	
3489	0	32676	33115	
3490	0	32772	32656	
3491	0	32816	32722	
3492	0	32750	32576	
3493	0	32662	32902	
3494	0	32860	32990	
3495	0	32644	32902	
3496	0	32660	33176	
3497	0	32920	32705	
3498	0	33056	32194	
3499	0	33248	32003	
3500	0	32900	32492	
3501	0	32620	33388	
3502	0	32552	33460	
3503	0	32722	32577	
3504	0	33098	32760	
3505	0	33212	32942	
3506	0	33142	32820	
3507	0	33088	32842	
3508	0	33040	33016	
3509	0	33076	32228	
3510	0	33024	32630	
3511	0	33096	33092	
3512	0	33036	32678	
3513	0	32698	32820	
3514	0	32408	33287	
3515	0	31936	33140	
3516	0	31584	32893	
3517	0	31762	33122	
3518	0	32052	31809	
3519	0	32428	32272	
3520	0	32456	31792	
3521	0	32652	32652	
3522	0	33024	33508	
3523	0	33224	33150	
3524	0	33304	32114	
3525	0	33752	32224	
3526	0	33884	32500	
3527	0	33926	32636	
3528	0	34009	32924	
3529	0	33720	33463	
3530	0	33142	33220	
3531	0	32868	33604	
3532	0	32673	32924	
3533	0	32218	32798	
3534	0	32148	32572	
3535	0	32192	32152	
3536	0	32122	32616	
3537	0	31996	33927	
3538	0	31472	33394	
3539	0	31616	32244	
3540	0	31838	32484	
3541	0	32904	31950	
3542	0	33568	32052	
3543	0	33800	32540	
3544	0	33268	32775	
3545	0	33268	32902	
3546	0	33104	32647	
3547	0	32992	32687	
3548	0	33414	32508	
3549	0	33576	32789	
3550	0	33236	33266	
3551	0	32996	32788	
3552	0	32872	33175	
3553	0	32724	32835	
3554	0	32220	32580	
3555	0	31748	32392	
3556	0	32008	31936	
3557	0	32328	33024	
3558	0	32780	32756	
3559	0	32960	33488	
3560	0	32696	33244	
3561	0	32340	32694	
3562	0	32814	32574	
3563	0	33164	32170	
3564	0	32808	32754	
3565	0	32806	33094	
3566	0	33370	32935	
3567	0	33662	32892	
3568	0	33606	33452	
3569	0	33698	33066	
3570	0	33548	33388	
3571	0	33316	32968	
3572	0	32612	32016	
3573	0	31888	31684	
3574	0	32124	31932	
3575	0	32460	32344	
3576	0	33024	33066	
3577	0	33322	32992	
3578	0	33212	33738	
3579	0	32980	33416	
3580	0	32894	32684	
3581	0	32632	32172	
3582	0	32522	31570	
3583	0	32460	32558	
3584	0	32366	32492	
3585	0	32246	32911	
3586	0	32156	33226	
3587	0	32438	33460	
3588	0	32247	33712	
3589	0	32250	33366	
3590	0	32508	31966	
3591	0	32464	32148	
3592	0	32510	33318	
3593	0	32350	32758	
3594	0	32768	32914	
3595	0	33344	33706	
3596	0	33416	32550	
3597	0	33608	32566	
3598	0	33900	33496	
3599	0	33564	32738	
3600	0	33364	31750	
3601	0	33252	32206	
3602	0	32894	31751	
3603	0	32376	32038	
3604	0	32488	32244	
3605	0	32904	32660	
3606	0	33082	33532	
3607	0	33152	33310	
3608	0	32966	33110	
3609	0	33124	33346	
3610	0	33120	33652	
3611	0	32224	33006	
3612	0	32076	32775	
3613	0	31868	32404	
3614	0	32112	31608	
3615	0	32066	32292	
3616	0	32684	32158	
3617	0	33172	32110	
3618	0	33548	33830	
3619	0	33256	33934	
3620	0	32738	33886	
3621	0	32780	32535	
3622	0	32828	32263	
3623	0	33034	31495	
3624	0	32796	31862	
3625	0	32496	32774	
3626	0	32604	33060	
3627	0	32744	32994	
3628	0	32480	33830	
3629	0	32432	33138	
3630	0	32732	33206	
3631	0	33362	32714	
3632	0	34026	33006	
3633	0	33910	32636	
3634	0	33218	31332	
3635	0	32976	32614	
3636	0	32496	33590	
3637	0	32220	32644	
3638	0	31992	32356	
3639	0	31968	32014	
3640	0	32140	33520	
3641	0	32408	33166	
3642	0	32738	32295	
3643	0	33056	32982	
3644	0	32788	33270	
3645	0	32472	33302	
3646	0	32657	32508	
3647	0	32912	32872	
3648	0	32908	32746	
3649	0	33256	31926	
3650	0	33736	32198	
3651	0	33692	31815	
3652	0	33820	32317	
3653	0	33848	32636	
3654	0	33792	34476	
3655	0	33150	34632	
3656	0	32466	33151	
3657	0	31722	32066	
3658	0	31410	32038	
3659	0	30818	32474	
3660	0	30848	33760	
3661	0	31358	32788	
3662	0	31942	31847	
3663	0	32448	31918	
3664	0	32912	32840	
3665	0	33684	34130	
3666	0	33860	32965	
3667	0	33652	32999	
3668	0	33660	32222	
3669	0	33362	31548	
3670	0	33314	31702	
3671	0	33077	32916	
3672	0	33438	33342	
3673	0	33756	33316	
3674	0	33786	32764	
3675	0	33764	33884	
3676	0	33556	32215	
3677	0	33416	32636	
3678	0	33120	32072	
3679	0	32940	32306	
3680	0	33388	32000	
3681	0	33160	32672	
3682	0	32440	32806	
3683	0	31946	32804	
3684	0	31458	32560	
3685	0	31236	33012	
3686	0	31208	33460	
3687	0	31466	33600	
3688	0	32048	33306	
3689	0	32544	33140	
3690	0	32772	32886	
3691	0	32448	33633	
3692	0	32668	33460	
3693	0	33188	33040	
3694	0	33076	32726	
3695	0	32756	31742	
3696	0	32654	30884	
3697	0	32240	31253	
3698	0	32720	32148	
3699	0	32924	32618	
3700	0	33188	32998	
3701	0	33768	33132	
3702	0	34100	33006	
3703	0	33956	32840	
3704	0	33720	32775	
3705	0	33844	33408	
3706	0	33706	33590	
3707	0	32964	33799	
3708	0	32428	33639	
3709	0	32364	32871	
3710	0	32376	32630	
3711	0	32298	32519	
3712	0	32808	32624	
3713	0	33280	32726	
3714	0	32968	32593	
3715	0	32818	32263	
3716	0	32050	32235	
3717	0	32328	32116	
3718	0	32376	33518	
3719	0	32132	33760	
3720	0	32120	33216	
3721	0	32516	31872	
3722	0	31898	31258	
3723	0	31482	31408	
3724	0	31956	32672	
3725	0	32952	33142	
3726	0	33096	33180	
3727	0	33748	34388	
3728	0	34154	32872	
3729	0	33540	32986	
3730	0	33236	32190	
3731	0	32980	32658	
3732	0	33096	32502	
3733	0	33237	31969	
3734	0	33617	32080	
3735	0	33752	32528	
3736	0	33632	33024	
3737	0	33306	33282	
3738	0	33088	32718	
3739	0	32846	33130	
3740	0	32506	33782	
3741	0	32540	34890	
3742	0	32620	32794	
3743	0	32312	32326	
3744	0	32132	32175	
3745	0	31863	32450	
3746	0	31732	31366	
3747	0	31466	32718	
3748	0	30780	33492	
3749	0	30904	32510	
3750	0	31852	32014	
3751	0	32752	31785	
3752	0	33728	32079	
3753	0	34016	32060	
3754	0	34101	32942	
3755	0	34016	33642	
3756	0	33848	34210	
3757	0	33504	33844	
3758	0	33062	32956	
3759	0	33012	32614	
3760	0	32612	32682	
3761	0	32868	32596	
3762	0	33430	32891	
3763	0	33404	32328	
3764	0	32900	33926	
3765	0	32952	33536	
3766	0	33230	33714	
3767	0	33004	32218	
3768	0	33106	32096	
3769	0	33228	31734	
3770	0	33032	31142	
3771	0	32510	32060	
3772	0	31868	32422	
3773	0	31684	32620	
3774	0	32076	32620	
3775	0	31998	32889	
3776	0	32296	32914	
3777	0	32356	32993	
3778	0	32268	32774	
3779	0	32242	32943	
3780	0	32162	33252	
3781	0	32080	33036	
3782	0	33062	33679	
3783	0	33460	33414	
3784	0	33380	33270	
3785	0	33562	32248	
3786	0	33770	32708	
3787	0	33754	32248	
3788	0	32956	34588	
3789	0	33114	32880	
3790	0	33258	32696	
3791	0	33086	32220	
3792	0	32792	31924	
3793	0	33032	32716	
3794	0	32644	32230	
3795	0	32564	31838	
3796	0	32744	32161	
3797	0	32976	31540	
3798	0	33004	32084	
3799	0	32708	33622	
3800	0	32756	34324	
3801	0	32694	32536	
3802	0	31768	33200	
3803	0	31052	32720	
3804	0	31688	32876	
3805	0	31504	33578	
3806	0	31352	32590	
3807	0	32252	32767	
3808	0	34088	33962	
3809	0	34588	33722	
3810	0	34570	31871	
3811	0	34540	31642	
3812	0	34440	31676	
3813	0	34256	31604	
3814	0	33982	32403	
3815	0	33296	33146	
3816	0	33188	33345	
3817	0	32392	33046	
3818	0	32032	32898	
3819	0	31629	33079	
3820	0	31324	32516	
3821	0	31590	32708	
3822	0	31929	33076	
3823	0	31540	32964	
3824	0	31912	33830	
3825	0	32296	32900	
3826	0	32612	32460	
3827	0	33090	32199	
3828	0	33256	32227	
3829	0	33316	32900	
3830	0	33346	32678	
3831	0	33376	31896	
3832	0	33664	32895	
3833	0	33556	32570	
3834	0	33368	32682	
3835	0	33358	33082	
3836	0	32976	32998	
3837	0	32608	33572	
3838	0	32818	32884	
3839	0	32876	32085	
3840	0	33144	32456	
3841	0	33232	33022	
3842	0	32572	33740	
3843	0	32176	33567	
3844	0	32168	33342	
3845	0	32152	32614	
3846	0	32378	31996	
3847	0	32786	31502	
3848	0	32302	31898	
3849	0	31754	31816	
3850	0	31318	33674	
3851	0	31188	33908	
3852	0	31914	33476	
3853	0	32372	31934	
3854	0	32372	31388	
3855	0	32468	31783	
3856	0	32560	32630	
3857	0	32848	33088	
3858	0	33218	32732	
3859	0	33000	32878	
3860	0	33592	32868	
3861	0	33194	33316	
3862	0	32890	32911	
3863	0	33336	32838	
3864	0	34654	32586	
3865	0	35540	32750	
3866	0	35137	32647	
3867	0	34780	32653	
3868	0	34329	33046	
3869	0	33512	33241	
3870	0	33146	33263	
3871	0	32880	33280	
3872	0	32284	32462	
3873	0	31956	32304	
3874	0	32236	32256	
3875	0	32244	33352	
3876	0	32132	33222	
3877	0	31758	32940	
3878	0	31452	33190	
3879	0	30692	31921	
3880	0	31108	31536	
3881	0	31908	34026	
3882	0	32352	33900	
3883	0	32760	32295	
3884	0	32716	32028	
3885	0	32192	31478	
3886	0	31724	33270	
3887	0	32036	33428	
3888	0	33080	31910	
3889	0	34117	32026	
3890	0	34224	32500	
3891	0	33272	32455	
3892	0	32932	32788	
3893	0	32602	33514	
3894	0	33210	33588	
3895	0	33276	33648	
3896	0	33028	33000	
3897	0	32928	32113	
3898	0	33052	32580	
3899	0	33440	32143	
3900	0	33708	31591	
3901	0	33748	32020	
3902	0	33360	32876	
3903	0	32274	32348	
3904	0	31464	32815	
3905	0	31416	32886	
3906	0	31960	32948	
3907	0	32714	32820	
3908	0	33696	32390	
3909	0	34092	32794	
3910	0	34320	33877	
3911	0	33896	33132	
3912	0	32971	32742	
3913	0	32142	32500	
3914	0	31416	31944	
3915	0	31292	32214	
3916	0	30856	31512	
3917	0	30780	31637	
3918	0	31296	32535	
3919	0	32134	33598	
3920	0	32364	33650	
3921	0	33980	32912	
3922	0	35320	32526	
3923	0	35568	32650	
3924	0	35108	33856	
3925	0	35264	33500	
3926	0	35040	34228	
3927	0	33640	34032	
3928	0	32980	33346	
3929	0	32222	33869	
3930	0	31806	33130	
3931	0	31568	33202	
3932	0	31748	32995	
3933	0	31728	32652	
3934	0	32240	33110	
3935	0	32056	32944	
3936	0	32134	31352	
3937	0	32620	31262	
3938	0	32407	31046	
3939	0	31612	31206	
3940	0	30968	32836	
3941	0	31144	33406	
3942	0	31750	33022	
3943	0	32100	32644	
3944	0	31926	32604	
3945	0	32204	32996	
3946	0	32270	32431	
3947	0	32598	32650	
3948	0	33656	32839	
3949	0	34052	34439	
3950	0	34064	33958	
3951	0	34710	32252	
3952	0	35160	32103	
3953	0	35172	32116	
3954	0	34918	32288	
3955	0	33714	33799	
3956	0	32860	34055	
3957	0	32488	32232	
3958	0	32836	31968	
3959	0	32580	31023	
3960	0	32588	31334	
3961	0	32912	31680	
3962	0	32856	32300	
3963	0	33212	32714	
3964	0	32956	34120	
3965	0	32248	33804	
3966	0	31513	32761	
3967	0	30936	33674	
3968	0	29844	33254	
3969	0	29742	33258	
3970	0	31410	33294	
3971	0	32856	32748	
3972	0	33460	33111	
3973	0	33872	31938	
3974	0	34676	32454	
3975	0	34764	32902	
3976	0	34072	32524	
3977	0	33288	31452	
3978	0	32028	32688	
3979	0	31480	32442	
3980	0	32020	32492	
3981	0	32790	30958	
3982	0	33480	32244	
3983	0	33508	33863	
3984	0	33225	33830	
3985	0	32926	34266	
3986	0	32820	33046	
3987	0	33088	32364	
3988	0	33348	31781	
3989	0	32918	32594	
3990	0	32652	32552	
3991	0	32348	32222	
3992	0	32194	32934	
3993	0	31584	33128	
3994	0	32168	33454	
3995	0	32782	32860	
3996	0	32900	32446	
3997	0	32688	32454	
3998	0	33008	32546	
3999	0	33456	32326	
4000	0	33868	33644	
4001	0	33952	32549	
4002	0	33652	33846	
4003	0	33574	33326	
4004	0	32858	33854	
4005	0	31780	32868	
4006	0	30876	32437	
4007	0	31450	31814	
4008	0	32246	30868	
4009	0	32192	31712	
4010	0	31216	32327	
4011	0	30396	32000	
4012	0	30792	32900	
4013	0	32226	33480	
4014	0	33556	34087	
4015	0	33428	33908	
4016	0	33670	33348	
4017	0	34018	31960	
4018	0	34596	32559	
4019	0	35224	32496	
4020	0	35460	32820	
4021	0	35160	33630	
4022	0	34248	33594	
4023	0	33452	32152	
4024	0	33300	32138	
4025	0	32880	31668	
4026	0	32600	31374	
4027	0	32212	32996	
4028	0	31942	33488	
4029	0	31893	32936	
4030	0	31400	32972	
4031	0	31764	33216	
4032	0	32460	33304	
4033	0	32616	32382	
4034	0	32494	33064	
4035	0	32294	33094	
4036	0	32672	32263	
4037	0	32326	33316	
4038	0	31668	31906	
4039	0	31530	32272	
4040	0	30496	32968	
4041	0	29976	32712	
4042	0	30940	33604	
4043	0	32012	33182	
4044	0	32334	31778	
4045	0	32160	32340	
4046	0	33082	31574	
4047	0	34440	32456	
4048	0	36164	32628	
4049	0	36404	33064	
4050	0	35836	33330	
4051	0	35364	32968	
4052	0	34784	32712	
4053	0	34072	32366	
4054	0	33752	32716	
4055	0	33268	32865	
4056	0	32980	32622	
4057	0	32828	32974	
4058	0	32136	33264	
4059	0	31278	32930	
4060	0	29966	32360	
4061	0	29994	32420	
4062	0	30716	32614	
4063	0	31740	33380	
4064	0	32554	33470	
4065	0	33346	32608	
4066	0	33764	32534	
4067	0	33772	32615	
4068	0	33860	32486	
4069	0	33472	32158	
4070	0	32810	32580	
4071	0	32230	33716	
4072	0	31488	32338	
4073	0	30740	33398	
4074	0	30744	34020	
4075	0	31240	33899	
4076	0	33028	33276	
4077	0	33656	31246	
4078	0	33092	31492	
4079	0	32344	32326	
4080	0	32964	33112	
4081	0	33836	33786	
4082	0	33736	32990	
4083	0	33606	32344	
4084	0	33812	31566	
4085	0	33512	32436	
4086	0	33472	31702	
4087	0	33264	33048	
4088	0	33210	33900	
4089	0	33444	33366	
4090	0	33428	32742	
4091	0	32632	32376	
4092	0	32436	32406	
4093	0	32488	32244	
4094	0	31802	32824	
4095	0	31832	32876	
4096	0	32132	32310	
4097	0	32120	32938	
4098	0	32334	33916	
4099	0	32576	32976	
4100	0	32946	32668	
4101	0	33380	31927	
4102	0	33346	33014	
4103	0	33538	32820	
4104	0	33540	32334	
4105	0	33220	31932	
4106	0	32610	33394	
4107	0	32108	33663	
4108	0	31960	32626	
4109	0	32262	32600	
4110	0	31856	32356	
4111	0	31778	32017	
4112	0	32112	32311	
4113	0	31904	32848	
4114	0	32223	32796	
4115	0	33002	33226	
4116	0	33696	33278	
4117	0	33880	32674	
4118	0	34056	33186	
4119	0	34056	32894	
4120	0	34000	32864	
4121	0	33344	33415	
4122	0	33350	32252	
4123	0	33312	31702	
4124	0	33034	31996	
4125	0	32272	32298	
4126	0	32016	32744	
4127	0	32544	33030	
4128	0	33252	32968	
4129	0	33348	33604	
4130	0	33660	33937	
4131	0	33364	32566	
4132	0	33578	33196	
4133	0	33456	33118	
4134	0	32812	32023	
4135	0	32474	32276	
4136	0	32236	33590	
4137	0	32492	33618	
4138	0	32376	33096	
4139	0	31964	30904	
4140	0	32068	32176	
4141	0	31836	32162	
4142	0	31720	33320	
4143	0	31868	33031	
4144	0	32436	32110	
4145	0	32832	33342	
4146	0	32948	32236	
4147	0	32546	31998	
4148	0	32154	33194	
4149	0	32372	33138	
4150	0	32512	33198	
4151	0	32276	32660	
4152	0	31906	32466	
4153	0	32096	32968	
4154	0	32040	32748	
4155	0	32148	32615	
4156	0	32978	32728	
4157	0	33864	32954	
4158	0	34320	32810	
4159	0	34886	32480	
4160	0	34756	33164	
4161	0	34808	32646	
4162	0	34638	33070	
4163	0	34408	32996	
4164	0	33528	32744	
4165	0	32580	32980	
4166	0	32545	33066	
4167	0	32304	32615	
4168	0	31928	33084	
4169	0	31396	32494	
4170	0	31492	33194	
4171	0	31546	33137	
4172	0	31894	31815	
4173	0	32564	32366	
4174	0	33016	32450	
4175	0	33160	32256	
4176	0	33316	32770	
4177	0	33140	33030	
4178	0	32852	32788	
4179	0	32600	32602	
4180	0	32172	32860	
4181	0	31880	33003	
4182	0	31812	33018	
4183	0	32026	33703	
4184	0	32460	33726	
4185	0	32468	32492	
4186	0	32660	33830	
4187	0	32513	31942	
4188	0	32184	30810	
4189	0	31992	32013	
4190	0	31672	31690	
4191	0	32580	32672	
4192	0	33828	32710	
4193	0	33548	32939	
4194	0	33530	33050	
4195	0	34060	32732	
4196	0	33950	33150	
4197	0	33834	32382	
4198	0	34088	32764	
4199	0	34076	33708	
4200	0	34070	32852	
4201	0	34240	32356	
4202	0	33876	33182	
4203	0	33736	33618	
4204	0	33504	33294	
4205	0	32478	33572	
4206	0	32452	32576	
4207	0	32576	31774	
4208	0	32548	32916	
4209	0	32228	32308	
4210	0	31938	31932	
4211	0	32036	32624	
4212	0	32104	33038	
4213	0	31964	32695	
4214	0	32164	33056	
4215	0	31848	32938	
4216	0	32336	32614	
4217	0	32702	32130	
4218	0	32856	32942	
4219	0	32864	33892	
4220	0	32772	33630	
4221	0	32938	33209	
4222	0	32708	32770	
4223	0	32424	31766	
4224	0	32364	31430	
4225	0	32288	31778	
4226	0	32216	32084	
4227	0	32236	32418	
4228	0	31918	32752	
4229	0	32572	33536	
4230	0	33800	33300	
4231	0	33932	33580	
4232	0	33952	34032	
4233	0	33660	33181	
4234	0	33396	32746	
4235	0	33270	33200	
4236	0	33168	33204	
4237	0	32858	33142	
4238	0	33040	32791	
4239	0	32868	31884	
4240	0	32502	31998	
4241	0	32440	32230	
4242	0	32484	32303	
4243	0	32336	32679	
4244	0	32360	32446	
4245	0	32596	32468	
4246	0	32706	32704	
4247	0	32652	32882	
4248	0	32688	33012	
4249	0	32714	32640	
4250	0	32838	32241	
4251	0	32905	32480	
4252	0	32804	34284	
4253	0	32624	34148	
4254	0	32624	34244	
4255	0	32720	33052	
4256	0	32476	32247	
4257	0	32188	32772	
4258	0	32064	32174	
4259	0	32308	31586	
4260	0	32922	31190	
4261	0	33064	32910	
4262	0	32664	33519	
4263	0	32096	33164	
4264	0	31864	32157	
4265	0	32072	32126	
4266	0	32452	32772	
4267	0	32140	33348	
4268	0	32078	33022	
4269	0	33144	33031	
4270	0	34040	32812	
4271	0	34798	32566	
4272	0	35392	32810	
4273	0	35560	32700	
4274	0	35584	32684	
4275	0	35016	32726	
4276	0	34532	32726	
4277	0	33680	32823	
4278	0	33320	33062	
4279	0	33068	32998	
4280	0	32560	33301	
4281	0	32144	32892	
4282	0	31764	32682	
4283	0	31450	32789	
4284	0	31554	32912	
4285	0	31876	33318	
4286	0	31704	33180	
4287	0	31345	33012	
4288	0	31156	31784	
4289	0	31208	32970	
4290	0	31532	32066	
4291	0	31620	33534	
4292	0	31216	32340	
4293	0	31242	31172	
4294	0	31664	31072	
4295	0	32624	32427	
4296	0	33358	32800	
4297	0	34052	33338	
4298	0	34370	33346	
4299	0	34392	33383	
4300	0	34432	33400	
4301	0	34488	33182	
4302	0	34372	32874	
4303	0	34392	32872	
4304	0	34254	32596	
4305	0	33780	32478	
4306	0	33498	32590	
4307	0	33196	32416	
4308	0	32950	33108	
4309	0	33024	33204	
4310	0	32394	33296	
4311	0	31880	33628	
4312	0	31954	32660	
4313	0	31796	32310	
4314	0	31758	32721	
4315	0	31812	32470	
4316	0	31768	32593	
4317	0	32032	32326	
4318	0	32356	32570	
4319	0	32598	33111	
4320	0	32866	32870	
4321	0	33040	33514	
4322	0	32864	33024	
4323	0	33118	33934	
4324	0	32968	32752	
4325	0	32524	32890	
4326	0	32360	32864	
4327	0	32708	33206	
4328	0	32852	31300	
4329	0	32856	30902	
4330	0	32852	32158	
4331	0	32616	32407	
4332	0	32460	32832	
4333	0	32462	32604	
4334	0	32744	32682	
4335	0	32780	32682	
4336	0	32909	32615	
4337	0	33408	33146	
4338	0	33564	33346	
4339	0	33418	33198	
4340	0	33224	33088	
4341	0	33200	32950	
4342	0	33357	33159	
4343	0	33146	33070	
4344	0	33072	33142	
4345	0	32930	33044	
4346	0	32832	32966	
4347	0	32800	32564	
4348	0	32748	32500	
4349	0	32808	32606	
4350	0	32660	32788	
4351	0	32520	32982	
4352	0	32600	32774	
4353	0	32494	32616	
4354	0	32296	31940	
4355	0	32308	32214	
4356	0	32384	33103	
4357	0	32712	33156	
4358	0	32936	33760	
4359	0	32668	33220	
4360	0	32232	32620	
4361	0	32150	31911	
4362	0	32104	32114	
4363	0	32074	32440	
4364	0	32604	32390	
4365	0	33004	32880	
4366	0	33040	32415	
4367	0	33344	32509	
4368	0	33572	32903	
4369	0	33872	33191	
4370	0	33952	33012	
4371	0	34176	32924	
4372	0	33928	32920	
4373	0	33678	33130	
4374	0	33840	32522	
4375	0	33506	32679	
4376	0	32976	32972	
4377	0	32690	33116	
4378	0	32264	33124	
4379	0	32178	32913	
4380	0	32238	32449	
4381	0	32250	32449	
4382	0	32076	32888	
4383	0	32284	32516	
4384	0	32276	32252	
4385	0	32336	32638	
4386	0	32192	32562	
4387	0	32276	32922	
4388	0	32348	32900	
4389	0	32464	32898	
4390	0	32636	33492	
4391	0	32736	32468	
4392	0	33066	33108	
4393	0	33188	33356	
4394	0	33316	33130	
4395	0	33176	32852	
4396	0	33182	33316	
4397	0	32968	32736	
4398	0	32956	32396	
4399	0	32828	31399	
4400	0	33156	31858	
4401	0	33054	32271	
4402	0	32868	32811	
4403	0	32496	32758	
4404	0	32336	32718	
4405	0	32520	33008	
4406	0	32540	32834	
4407	0	32690	32898	
4408	0	32776	32804	
4409	0	32936	32504	
4410	0	33068	32975	
4411	0	33189	32933	
4412	0	33210	33284	
4413	0	33032	33190	
4414	0	33120	33118	
4415	0	33246	32979	
4416	0	33184	32044	
4417	0	32800	32259	
4418	0	32712	32274	
4419	0	32660	33204	
4420	0	32640	33818	
4421	0	32629	33170	
4422	0	32584	33218	
4423	0	32730	32350	
4424	0	32512	31896	
4425	0	32528	31906	
4426	0	32376	32931	
4427	0	32412	32838	
4428	0	32644	32772	
4429	0	32708	33050	
4430	0	32656	32972	
4431	0	32760	32942	
4432	0	32772	32818	
4433	0	32608	32896	
4434	0	32804	32772	
4435	0	33076	32479	
4436	0	33090	32816	
4437	0	33232	33150	
4438	0	33232	32724	
4439	0	33018	32263	
4440	0	32844	32618	
4441	0	32681	33222	
4442	0	32634	33240	
4443	0	33056	32396	
4444	0	33188	32660	
4445	0	32910	32750	
4446	0	32922	32759	
4447	0	33020	32714	
4448	0	33346	32548	
4449	0	32820	33135	
4450	0	32388	33312	
4451	0	32534	32798	
4452	0	32584	32508	
4453	0	32060	32270	
4454	0	31644	32780	
4455	0	31716	33959	
4456	0	32160	33068	
4457	0	32424	31815	
4458	0	33092	32988	
4459	0	33592	32168	
4460	0	33780	32293	
4461	0	33544	32728	
4462	0	33101	32615	
4463	0	32956	32644	
4464	0	32504	32716	
4465	0	32076	32450	
4466	0	32798	32544	
4467	0	33448	32684	
4468	0	33512	32964	
4469	0	33444	32908	
4470	0	33504	32756	
4471	0	33352	32999	
4472	0	33068	33470	
4473	0	33112	32728	
4474	0	33096	32458	
4475	0	32788	32711	
4476	0	32832	32724	
4477	0	32832	32728	
4478	0	32956	32800	
4479	0	32736	32762	
4480	0	32592	32618	
4481	0	32382	32998	
4482	0	32424	32742	
4483	0	32418	32574	
4484	0	32480	32710	
4485	0	32600	32740	
4486	0	32250	32636	
4487	0	32506	32968	
4488	0	32784	33030	
4489	0	32613	32686	
4490	0	32630	32444	
4491	0	32836	32868	
4492	0	32660	32842	
4493	0	32636	32750	
4494	0	32772	32884	
4495	0	32864	32228	
4496	0	32828	32686	
4497	0	32712	33104	
4498	0	32774	32862	
4499	0	33072	32998	
4500	0	32896	32862	
4501	0	32704	33100	
4502	0	32908	32952	
4503	0	33060	32992	
4504	0	32952	32644	
4505	0	32900	32588	
4506	0	32740	33168	
4507	0	32768	32911	
4508	0	32868	32430	
4509	0	32892	32756	
4510	0	32760	32935	
4511	0	32624	32268	
4512	0	32796	32295	
4513	0	32854	32346	
4514	0	32856	32519	
4515	0	32894	32962	
4516	0	33072	32647	
4517	0	33060	32932	
4518	0	33073	33014	
4519	0	32852	32795	
4520	0	32742	32602	
4521	0	32892	32596	
4522	0	32672	32862	
4523	0	32516	33024	
4524	0	32730	32774	
4525	0	32886	32738	
4526	0	32766	32674	
4527	0	32744	32929	
4528	0	32750	33048	
4529	0	32812	33124	
4530	0	32812	32628	
4531	0	32768	33031	
4532	0	33010	32614	
4533	0	32844	32876	
4534	0	32668	32796	
4535	0	32728	32548	
4536	0	32462	32807	
4537	0	32654	32599	
4538	0	32444	32474	
4539	0	32576	32609	
4540	0	32840	32868	
4541	0	33028	32688	
4542	0	33098	32794	
4543	0	33376	33010	
4544	0	33240	32754	
4545	0	32862	32644	
4546	0	32900	32574	
4547	0	32636	32764	
4548	0	32624	32834	
4549	0	32710	33018	
4550	0	32676	33068	
4551	0	32784	32638	
4552	0	32962	32638	
4553	0	33188	32838	
4554	0	33156	32858	
4555	0	32976	32840	
4556	0	32936	32976	
4557	0	32948	33031	
4558	0	32688	32844	
4559	0	32436	32679	
4560	0	32448	33092	
4561	0	32742	33040	
4562	0	32804	32578	
4563	0	32778	32732	
4564	0	32876	32564	
4565	0	33056	32318	
4566	0	32996	32403	
4567	0	32932	32519	
4568	0	32840	32895	
4569	0	32700	32636	
4570	0	32544	33127	
4571	0	32494	33062	
4572	0	32736	32826	
4573	0	32918	32966	
4574	0	33032	32984	
4575	0	32808	32913	
4576	0	32672	32976	
4577	0	32736	32830	
4578	0	32594	32533	
4579	0	32518	32725	
4580	0	32600	32772	
4581	0	32700	32786	
4582	0	32850	32448	
4583	0	32776	32466	
4584	0	32856	32463	
4585	0	32788	32438	
4586	0	32824	32615	
4587	0	32680	32282	
4588	0	32764	32566	
4589	0	32714	32516	
4590	0	32728	32312	
4591	0	32792	32634	
4592	0	32865	32992	
4593	0	32828	32658	
4594	0	32808	32468	
4595	0	32868	32896	
4596	0	32888	32903	
4597	0	32980	32710	
4598	0	33010	32712	
4599	0	32962	32657	
4600	0	32994	32639	
4601	0	33026	32486	
4602	0	32962	32614	
4603	0	32724	32734	
4604	0	32954	33074	
4605	0	33020	33063	
4606	0	33164	33284	
4607	0	33232	33478	
4608	0	33154	33782	
4609	0	33104	33766	
4610	0	32996	33798	
4611	0	32868	33840	
4612	0	32846	33582	
4613	0	32924	33334	
4614	0	32808	33302	
4615	0	32740	33166	
4616	0	32656	32806	
4617	0	32426	32492	
4618	0	32364	32386	
4619	0	32496	32342	
4620	0	32568	32054	
4621	0	32766	32058	
4622	0	32824	32170	
4623	0	32692	32206	
4624	0	32764	32186	
4625	0	32880	32230	
4626	0	32716	32328	
4627	0	32794	32532	
4628	0	32780	32592	
4629	0	32752	32554	
4630	0	32848	32658	
4631	0	32896	32722	
4632	0	32696	32915	
4633	0	32692	32894	
4634	0	32832	32752	
4635	0	32820	32554	
4636	0	32824	32654	
4637	0	32768	32702	
4638	0	32700	32506	
4639	0	32662	32903	
4640	0	32694	33287	
4641	0	32724	33380	
4642	0	32874	33124	
4643	0	32984	32976	
4644	0	33056	32803	
4645	0	33056	32674	
4646	0	33124	32605	
4647	0	33024	32612	
4648	0	32896	32597	
4649	0	32950	32716	
4650	0	32992	32662	
4651	0	32756	32700	
4652	0	32832	32935	
4653	0	32760	32886	
4654	0	32680	32876	
4655	0	32634	32938	
4656	0	32580	33142	
4657	0	32567	33206	
4658	0	32584	33246	
4659	0	32636	33081	
4660	0	32626	33002	
4661	0	32740	32938	
4662	0	32906	32754	
4663	0	32888	32879	
4664	0	32884	32652	
4665	0	32756	32540	
4666	0	32870	32390	
4667	0	33082	32290	
4668	0	33092	32316	
4669	0	32996	32311	
4670	0	32976	32250	
4671	0	32868	32548	
4672	0	32792	32394	
4673	0	32836	32550	
4674	0	32736	32711	
4675	0	32828	32638	
4676	0	32836	32724	
4677	0	32776	32686	
4678	0	32974	32660	
4679	0	32844	32680	
4680	0	32864	32802	
4681	0	33004	32954	
4682	0	32788	32960	
4683	0	32812	32902	
4684	0	32672	32940	
4685	0	32696	32840	
4686	0	32800	32775	
4687	0	32673	33030	
4688	0	32672	32892	
4689	0	32806	32940	
4690	0	32858	32688	
4691	0	32885	32516	
4692	0	32816	32856	
4693	0	32876	32738	
4694	0	32870	32930	
4695	0	32956	33159	
4696	0	33002	33000	
4697	0	32894	32996	
4698	0	32696	32980	
4699	0	32770	33164	
4700	0	32708	32889	
4701	0	32772	32775	
4702	0	32842	32954	
4703	0	32652	32696	
4704	0	32681	32672	
4705	0	32826	32679	
4706	0	32980	32562	
4707	0	32890	32566	
4708	0	32986	32519	
4709	0	32868	32558	
4710	0	32884	32668	
4711	0	32932	32672	
4712	0	32834	32748	
4713	0	32868	32546	
4714	0	32774	32647	
4715	0	32810	32687	
4716	0	32822	32596	
4717	0	32756	32817	
4718	0	32748	32824	
4719	0	32856	32775	
4720	0	32808	32600	
4721	0	32924	32664	
4722	0	32918	32788	
4723	0	32800	32696	
4724	0	32712	32591	
4725	0	32756	32772	
4726	0	32804	32756	
4727	0	32788	32911	
4728	0	32864	32872	
4729	0	32664	33060	
4730	0	32628	33128	
4731	0	32488	33094	
4732	0	32465	33092	
4733	0	32842	32908	
4734	0	32927	32822	
4735	0	32940	32882	
4736	0	32900	32694	
4737	0	32864	32660	
4738	0	32860	32610	
4739	0	32892	32558	
4740	0	33080	32636	
4741	0	33120	32638	
4742	0	33152	32768	
4743	0	33022	32580	
4744	0	32884	32612	
4745	0	32728	32578	
4746	0	32812	32542	
4747	0	32560	32738	
4748	0	32682	32650	
4749	0	32792	32974	
4750	0	32682	32954	
4751	0	32832	32807	
4752	0	32928	32647	
4753	0	32816	32759	
4754	0	32802	32718	
4755	0	32958	32834	
4756	0	33052	32810	
4757	0	32668	32718	
4758	0	32744	32826	
4759	0	32760	32922	
4760	0	32752	32844	
4761	0	32710	32583	
4762	0	32678	32618	
4763	0	32728	32620	
4764	0	32829	32712	
4765	0	32788	32542	
4766	0	32684	32925	
4767	0	32752	32748	
4768	0	32864	32772	
4769	0	32812	32769	
4770	0	32778	32775	
4771	0	32964	32812	
4772	0	32996	32870	
4773	0	33024	32890	
4774	0	33078	32764	
4775	0	32970	32747	
4776	0	32878	32903	
4777	0	32840	33014	
4778	0	32784	32700	
4779	0	32664	32766	
4780	0	32806	32865	
4781	0	32768	32639	
4782	0	32716	32596	
4783	0	32824	32588	
4784	0	32796	32739	
4785	0	32774	32614	
4786	0	32837	32502	
4787	0	32794	32471	
4788	0	32636	32634	
4789	0	32634	32713	
4790	0	32708	32676	
4791	0	32828	32934	
4792	0	32750	32944	
4793	0	32828	32888	
4794	0	33092	32598	
4795	0	32880	32690	
4796	0	32632	32786	
4797	0	32768	32738	
4798	0	33044	32775	
4799	0	32952	32737	
4800	0	32900	32750	
4801	0	32868	32782	
4802	0	32964	32794	
4803	0	32890	32922	
4804	0	32660	32990	
4805	0	32608	32847	
4806	0	32792	32878	
4807	0	32912	32770	
4808	0	32980	32788	
4809	0	32776	32886	
4810	0	32806	32775	
4811	0	32980	32838	
4812	0	32964	33063	
4813	0	32884	33078	
4814	0	32936	33020	
4815	0	33002	32858	
4816	0	32854	32830	
4817	0	32864	32672	
4818	0	32672	32732	
4819	0	32788	32920	
4820	0	32666	32620	
4821	0	32828	32668	
4822	0	32808	32540	
4823	0	32826	32548	
4824	0	32856	32628	
4825	0	32972	32647	
4826	0	32928	32612	
4827	0	32672	32718	
4828	0	32618	32862	
4829	0	32692	32680	
4830	0	32904	32572	
4831	0	32836	32786	
4832	0	32714	32910	
4833	0	32832	32910	
4834	0	32860	32828	
4835	0	32980	33006	
4836	0	32834	32818	
4837	0	32842	32872	
4838	0	32772	33063	
4839	0	32872	33136	
4840	0	32814	33060	
4841	0	32728	33194	
4842	0	32536	33108	
4843	0	32584	33058	
4844	0	32784	32892	
4845	0	32944	32775	
4846	0	32804	32740	
4847	0	33002	32428	
4848	0	33048	32359	
4849	0	33028	32478	
4850	0	33008	32547	
4851	0	33196	32364	
4852	0	33136	32428	
4853	0	32772	32470	
4854	0	32712	32519	
4855	0	32778	32614	
4856	0	32872	32789	
4857	0	32993	32686	
4858	0	32922	32794	
4859	0	32846	33058	
4860	0	32784	33098	
4861	0	32768	32752	
4862	0	32740	32722	
4863	0	32572	32792	
4864	0	32664	32796	
4865	0	32880	32692	
4866	0	32746	32590	
4867	0	32728	32746	
4868	0	32794	32750	
4869	0	32732	33027	
4870	0	32732	32775	
4871	0	32870	32876	
4872	0	32824	32807	
4873	0	32852	33052	
4874	0	32844	32852	
4875	0	32868	32913	
4876	0	32902	32856	
4877	0	32824	32983	
4878	0	32738	32686	
4879	0	32686	32860	
4880	0	32754	32903	
4881	0	32628	32839	
4882	0	32746	32790	
4883	0	32930	32943	
4884	0	32844	32864	
4885	0	32874	32938	
4886	0	32828	32929	
4887	0	32528	32902	
4888	0	32388	32710	
4889	0	32496	32800	
4890	0	32816	32853	
4891	0	32888	32852	
4892	0	32996	32820	
4893	0	32892	32716	
4894	0	32956	32639	
4895	0	32997	32596	
4896	0	33148	32614	
4897	0	33196	32673	
4898	0	33322	32772	
4899	0	33136	32719	
4900	0	32780	32614	
4901	0	32888	32630	
4902	0	32896	32704	
4903	0	32768	32582	
4904	0	32808	32692	
4905	0	32804	32920	
4906	0	32724	32847	
4907	0	32632	32874	
4908	0	32668	32714	
4909	0	32708	32628	
4910	0	32790	32850	
4911	0	32818	32838	
4912	0	32832	32828	
4913	0	32856	32846	
4914	0	32674	32836	
4915	0	32732	32856	
4916	0	32804	32956	
4917	0	32848	32980	
4918	0	32794	32816	
4919	0	32776	32756	
4920	0	32744	32760	
4921	0	32852	32742	
4922	0	32864	32879	
4923	0	32772	32775	
4924	0	32852	32892	
4925	0	32820	32836	
4926	0	32768	32806	
4927	0	32660	32892	
4928	0	32780	32754	
4929	0	32860	32726	
4930	0	32858	32828	
4931	0	32788	32878	
4932	0	32888	32804	
4933	0	32932	32831	
4934	0	32954	32868	
4935	0	32886	32702	
4936	0	32792	32720	
4937	0	33004	32806	
4938	0	32820	32758	
4939	0	32680	32700	
4940	0	32672	32694	
4941	0	32772	32646	
4942	0	32880	32660	
4943	0	32958	32660	
4944	0	32896	32715	
4945	0	32820	32684	
4946	0	32868	32578	
4947	0	32868	32775	
4948	0	32820	32871	
4949	0	32808	32727	
4950	0	32690	32792	
4951	0	32808	32728	
4952	0	32760	32980	
4953	0	32586	32772	
4954	0	32760	32852	
4955	0	32936	32682	
4956	0	32981	32856	
4957	0	32972	32959	
4958	0	32952	32922	
4959	0	32852	32796	
4960	0	32580	32807	
4961	0	32380	32922	
4962	0	32529	32848	
4963	0	32558	32820	
4964	0	32640	32735	
4965	0	32700	32698	
4966	0	32760	32728	
4967	0	32718	32734	
4968	0	32908	32922	
4969	0	33120	32862	
4970	0	32990	32935	
4971	0	33000	32874	
4972	0	33020	32764	
4973	0	32992	32706	
4974	0	33056	32728	
4975	0	32980	32868	
4976	0	32904	32771	
4977	0	33092	32558	
4978	0	33060	32550	
4979	0	33056	32444	
4980	0	32872	32738	
4981	0	32852	32798	
4982	0	32876	32842	
4983	0	32705	32564	
4984	0	32545	32638	
4985	0	32704	32656	
4986	0	32730	32638	
4987	0	32664	32596	
4988	0	32832	32638	
4989	0	32748	32598	
4990	0	32639	32646	
4991	0	32816	32708	
4992	0	32844	32849	
4993	0	32860	32724	
4994	0	32684	32876	
4995	0	32640	33076	
4996	0	32630	32968	
4997	0	32736	32910	
4998	0	32832	32812	
4999	0	32804	32768	
5000	0	32759	32814	
5001	0	32852	32674	
5002	0	32704	32732	
5003	0	32664	32689	
5004	0	32676	32734	
5005	0	32780	32862	
5006	0	32872	32858	
5007	0	32872	32868	
5008	0	32752	32775	
5009	0	32756	32775	
5010	0	32788	32832	
5011	0	32808	32824	
5012	0	32860	32766	
5013	0	32836	32852	
5014	0	32865	32658	
5015	0	32976	32758	
5016	0	32784	32894	
5017	0	32820	32836	
5018	0	32816	32775	
5019	0	32796	32666	
5020	0	32676	32736	
5021	0	32596	32671	
5022	0	32760	32884	
5023	0	32874	32644	
5024	0	32888	32682	
5025	0	32968	32794	
5026	0	32884	32710	
5027	0	32988	32772	
5028	0	32776	32702	
5029	0	32696	32788	
5030	0	32740	32768	
5031	0	32708	32850	
5032	0	32624	32616	
5033	0	32668	32726	
5034	0	32712	32671	
5035	0	32804	32942	
5036	0	32912	32663	
5037	0	32872	32751	
5038	0	32884	32886	
5039	0	32842	32752	
5040	0	32868	32796	
5041	0	32860	32746	
5042	0	32792	32668	
5043	0	32760	32759	
5044	0	32750	32740	
5045	0	32768	32743	
5046	0	32782	32826	
5047	0	32844	32735	
5048	0	32732	32566	
5049	0	32758	32603	
5050	0	32796	32810	
5051	0	32776	32814	
5052	0	32804	32722	
5053	0	32858	32774	
5054	0	32796	32858	
5055	0	32812	32800	
5056	0	32860	32884	
5057	0	32814	32866	
5058	0	32880	32827	
5059	0	32836	32694	
5060	0	32796	32723	
5061	0	32728	32644	
5062	0	32796	32647	
5063	0	32856	32766	
5064	0	32732	32754	
5065	0	32750	32738	
5066	0	32840	32775	
5067	0	32657	32618	
5068	0	32704	32660	
5069	0	32712	32807	
5070	0	32886	32764	
5071	0	32834	32788	
5072	0	32686	32751	
5073	0	32816	32790	
5074	0	32920	32895	
5075	0	32868	32800	
5076	0	32894	32775	
5077	0	32924	32807	
5078	0	32756	32686	
5079	0	32713	32696	
5080	0	32632	32774	
5081	0	32704	32706	
5082	0	32630	32775	
5083	0	32772	32654	
5084	0	32738	32580	
5085	0	32744	32652	
5086	0	32712	32775	
5087	0	32758	32766	
5088	0	32768	32732	
5089	0	32760	32774	
5090	0	32824	32840	
5091	0	32868	32798	
5092	0	32834	32840	
5093	0	32616	32756	
5094	0	32748	32868	
5095	0	32782	32775	
5096	0	32758	32922	
5097	0	32892	32775	
5098	0	32844	32597	
5099	0	32888	32558	
5100	0	32932	32655	
5101	0	32980	32582	
5102	0	33000	32796	
5103	0	32996	32839	
5104	0	32962	32922	
5105	0	32800	32748	
5106	0	32844	32728	
5107	0	32758	32708	
5108	0	32802	32800	
5109	0	32760	32564	
5110	0	32792	32712	
5111	0	32870	32646	
5112	0	32784	32614	
5113	0	32708	32633	
5114	0	32832	32612	
5115	0	32722	32700	
5116	0	32692	32727	
5117	0	32748	32635	
5118	0	32706	32828	
5119	0	32764	32774	
5120	0	32720	32748	
5121	0	32744	32868	
5122	0	32764	32766	
5123	0	32800	32774	
5124	0	32712	32839	
5125	0	32814	32774	
5126	0	32876	32766	
5127	0	32808	32760	
5128	0	32672	32746	
5129	0	32700	32762	
5130	0	32842	32892	
5131	0	32844	32828	
5132	0	32740	32775	
5133	0	32676	32775	
5134	0	32704	32788	
5135	0	32784	32858	
5136	0	32768	32844	
5137	0	32746	32736	
5138	0	32886	32766	
5139	0	32880	32679	
5140	0	32872	32775	
5141	0	32816	32742	
5142	0	32816	32729	
5143	0	32776	32864	
5144	0	32784	32730	
5145	0	32769	32743	
5146	0	32868	32876	
5147	0	32856	32748	
5148	0	32684	32694	
5149	0	32614	32774	
5150	0	32748	32709	
5151	0	32892	32724	
5152	0	32800	32916	
5153	0	32768	32814	
5154	0	32768	32738	
5155	0	32824	32846	
5156	0	32816	32768	
5157	0	32854	32690	
5158	0	32784	32836	
5159	0	32804	32766	
5160	0	32848	32583	
5161	0	32874	32679	
5162	0	32880	32673	
5163	0	32928	32744	
5164	0	32822	32699	
5165	0	32796	32710	
5166	0	32760	32807	
5167	0	32752	32818	
5168	0	32840	32849	
5169	0	32742	32855	
5170	0	32680	32788	
5171	0	32760	32831	
5172	0	32856	32876	
5173	0	32776	32686	
5174	0	32814	32706	
5175	0	32772	32682	
5176	0	32828	32775	
5177	0	32820	32628	
5178	0	32796	32710	
5179	0	32753	32694	
5180	0	32778	32638	
5181	0	32738	32640	
5182	0	32676	32746	
5183	0	32764	32878	
5184	0	32826	32878	
5185	0	32970	32732	
5186	0	32860	32784	
5187	0	32726	32800	
5188	0	32872	32831	
5189	0	32740	32743	
5190	0	32656	32820	
5191	0	32894	32768	
5192	0	32908	32675	
5193	0	32824	32586	
5194	0	32868	32802	
5195	0	32894	32818	
5196	0	32832	32804	
5197	0	32820	32718	
5198	0	32860	32864	
5199	0	32916	32807	
5200	0	32820	32740	
5201	0	32836	32697	
5202	0	32722	32684	
5203	0	32688	32764	
5204	0	32816	32765	
5205	0	32757	32708	
5206	0	32734	32754	
5207	0	32812	32749	
5208	0	32804	32726	
5209	0	32728	32722	
5210	0	32672	32752	
5211	0	32736	32712	
5212	0	32804	32811	
5213	0	32784	32868	
5214	0	32828	32748	
5215	0	32748	32744	
5216	0	32842	32767	
5217	0	32704	32623	
5218	0	32736	32746	
5219	0	32716	32724	
5220	0	32826	32724	
5221	0	32820	32622	
5222	0	32708	32732	
5223	0	32812	33060	
5224	0	32788	32736	
5225	0	32980	32772	
5226	0	32984	32860	
5227	0	32992	32807	
5228	0	32912	32762	
5229	0	32906	32887	
5230	0	32756	32802	
5231	0	32890	32775	
5232	0	32944	32718	
5233	0	32874	32668	
5234	0	32788	32614	
5235	0	32672	32602	
5236	0	32616	32512	
5237	0	32716	32689	
5238	0	32958	32704	
5239	0	32976	32720	
5240	0	32842	32519	
5241	0	32740	32586	
5242	0	32848	32479	
5243	0	32844	32574	
5244	0	32652	32923	
5245	0	32526	32846	
5246	0	32596	32880	
5247	0	32700	32940	
5248	0	32811	32942	
5249	0	32680	32746	
5250	0	32776	32801	
5251	0	32740	32742	
5252	0	32742	32764	
5253	0	32780	32846	
5254	0	32948	32741	
5255	0	32892	32761	
5256	0	32837	32792	
5257	0	32740	32964	
5258	0	32792	32860	
5259	0	32762	32784	
5260	0	32774	32896	
5261	0	32854	32775	
5262	0	32868	32726	
5263	0	32848	32684	
5264	0	32848	32732	
5265	0	32806	32658	
5266	0	32700	32719	
5267	0	32584	32798	
5268	0	32736	32760	
5269	0	32786	32810	
5270	0	32988	32868	
5271	0	32868	32818	
5272	0	32796	32864	
5273	0	32820	32820	
5274	0	32862	32935	
5275	0	32830	32860	
5276	0	32938	32592	
5277	0	32852	32636	
5278	0	32704	32775	
5279	0	32596	32734	
5280	0	32638	32647	
5281	0	32664	32632	
5282	0	32772	32583	
5283	0	32768	32516	
5284	0	32690	32476	
5285	0	32740	32491	
5286	0	32762	32580	
5287	0	32642	32528	
5288	0	32672	32519	
5289	0	32712	32610	
5290	0	32684	32574	
5291	0	32676	32559	
5292	0	32524	32524	
5293	0	32728	32711	
5294	0	32682	32774	
5295	0	32704	32674	
5296	0	32844	32692	
5297	0	32824	32836	
5298	0	32800	32823	
5299	0	32868	32882	
5300	0	32860	32844	
5301	0	32948	32822	
5302	0	33038	33076	
5303	0	33104	32998	
5304	0	33252	32994	
5305	0	33388	33142	
5306	0	33324	33272	
5307	0	33188	33284	
5308	0	33130	33272	
5309	0	33084	33238	
5310	0	32936	33231	
5311	0	32786	33238	
5312	0	32696	33064	
5313	0	32774	32938	
5314	0	32696	32830	
5315	0	32544	32646	
5316	0	32646	32586	
5317	0	32666	32519	
5318	0	32636	32602	
5319	0	32606	32532	
5320	0	32666	32490	
5321	0	32828	32391	
5322	0	32734	32348	
5323	0	32664	32306	
5324	0	32608	32488	
5325	0	32672	32599	
5326	0	32721	32702	
5327	0	32770	32716	
5328	0	32816	32732	
5329	0	32756	32652	
5330	0	32714	32570	
5331	0	32792	32574	
5332	0	32660	32646	
5333	0	32654	32758	
5334	0	32736	32769	
5335	0	32868	32720	
5336	0	32894	32822	
5337	0	32888	32772	
5338	0	32822	32796	
5339	0	32842	32816	
5340	0	32874	32934	
5341	0	32816	32791	
5342	0	32868	32788	
5343	0	32816	32820	
5344	0	32688	32819	
5345	0	32736	32838	
5346	0	32720	32820	
5347	0	32736	32655	
5348	0	32888	32850	
5349	0	32872	32868	
5350	0	32880	32764	
5351	0	32814	32844	
5352	0	32808	32775	
5353	0	32808	32745	
5354	0	32890	32794	
5355	0	32772	32622	
5356	0	32836	32711	
5357	0	32924	32614	
5358	0	32984	32790	
5359	0	32890	32774	
5360	0	32846	32751	
5361	0	32816	32884	
5362	0	32710	32911	
5363	0	32732	32786	
5364	0	32720	32679	
5365	0	32768	32820	
5366	0	32646	32808	
5367	0	32784	32807	
5368	0	32852	32711	
5369	0	32876	32676	
5370	0	32844	32808	
5371	0	32888	32742	
5372	0	32872	32804	
5373	0	32816	32912	
5374	0	32768	32934	
5375	0	32724	32766	
5376	0	32776	32810	
5377	0	32808	32718	
5378	0	32792	32578	
5379	0	32790	32519	
5380	0	32800	32646	
5381	0	32792	32615	
5382	0	32862	32740	
5383	0	32804	32788	
5384	0	32778	32774	
5385	0	32844	32642	
5386	0	32868	32753	
5387	0	32686	32858	
5388	0	32680	32860	
5389	0	32764	32775	
5390	0	32908	32839	
5391	0	32838	32774	
5392	0	32856	32802	
5393	0	32804	32846	
5394	0	32848	32785	
5395	0	32914	32704	
5396	0	32792	32664	
5397	0	32808	32756	
5398	0	32780	32794	
5399	0	32714	32708	
5400	0	32732	32806	
5401	0	32698	32738	
5402	0	32748	32775	
5403	0	32746	32793	
5404	0	32852	32892	
5405	0	32700	32846	
5406	0	32752	32845	
5407	0	32764	32816	
5408	0	32774	32879	
5409	0	32760	32775	
5410	0	32943	32856	
5411	0	32936	32798	
5412	0	32920	32798	
5413	0	32806	32913	
5414	0	32852	32644	
5415	0	33024	32698	
5416	0	32984	32766	
5417	0	32814	32690	
5418	0	32834	32568	
5419	0	32936	32496	
5420	0	32878	32546	
5421	0	32558	32638	
5422	0	32408	32496	
5423	0	32648	32518	
5424	0	32736	32794	
5425	0	32812	32735	
5426	0	32744	32764	
5427	0	32814	32810	
5428	0	32764	32869	
5429	0	32788	33246	
5430	0	32780	33248	
5431	0	32900	33028	
5432	0	32858	32975	
5433	0	32816	32992	
5434	0	32813	32814	
5435	0	32776	32832	
5436	0	32922	32562	
5437	0	32832	32544	
5438	0	32816	32404	
5439	0	32864	32500	
5440	0	32893	32424	
5441	0	32874	32420	
5442	0	32836	32447	
5443	0	32804	32370	
5444	0	32780	32382	
5445	0	32836	32442	
5446	0	32785	32615	
5447	0	32750	32750	
5448	0	32852	32638	
5449	0	32832	32638	
5450	0	32904	32766	
5451	0	32776	32788	
5452	0	32682	32826	
5453	0	32692	32926	
5454	0	32754	32954	
5455	0	32852	32974	
5456	0	32880	32946	
5457	0	32772	32903	
5458	0	32808	33086	
5459	0	32808	33191	
5460	0	32868	33010	
5461	0	32852	32901	
5462	0	32758	32759	
5463	0	32768	32738	
5464	0	32708	32634	
5465	0	32824	32796	
5466	0	32792	32732	
5467	0	32828	32718	
5468	0	32736	32870	
5469	0	32812	32707	
5470	0	32848	32670	
5471	0	32884	32684	
5472	0	32812	32584	
5473	0	32832	32704	
5474	0	32840	32814	
5475	0	32760	32698	
5476	0	32744	32644	
5477	0	32800	32740	
5478	0	32796	32775	
5479	0	32886	32945	
5480	0	32884	32910	
5481	0	32884	32808	
5482	0	32858	32745	
5483	0	32836	32775	
5484	0	32920	32838	
5485	0	32802	32820	
5486	0	32802	32890	
5487	0	32768	32724	
5488	0	32756	32720	
5489	0	32782	32822	
5490	0	32814	32702	
5491	0	32924	32808	
5492	0	32948	32732	
5493	0	32932	32764	
5494	0	32824	32876	
5495	0	32836	32824	
5496	0	32812	32708	
5497	0	32804	32775	
5498	0	32768	32774	
5499	0	32728	32712	
5500	0	32812	32786	
5501	0	32796	32735	
5502	0	32764	32880	
5503	0	32768	32764	
5504	0	32792	32770	
5505	0	32768	32671	
5506	0	32832	32654	
5507	0	32762	32691	
5508	0	32672	32828	
5509	0	32816	32800	
5510	0	32836	32746	
5511	0	32760	32838	
5512	0	32820	32775	
5513	0	32832	32678	
5514	0	32944	32838	
5515	0	32928	32774	
5516	0	32860	32844	
5517	0	32866	32800	
5518	0	32768	32865	
5519	0	32720	32792	
5520	0	32752	32775	
5521	0	32822	32806	
5522	0	32904	32775	
5523	0	32776	32808	
5524	0	32804	32858	
5525	0	32796	32842	
5526	0	32868	32698	
5527	0	32860	32740	
5528	0	32808	32704	
5529	0	32680	32647	
5530	0	32744	32702	
5531	0	32792	32684	
5532	0	32840	32775	
5533	0	32860	32820	
5534	0	32832	32846	
5535	0	32884	32826	
5536	0	32870	32900	
5537	0	32762	32835	
5538	0	32760	32836	
5539	0	32852	32764	
5540	0	32838	32775	
5541	0	32816	32696	
5542	0	32770	32760	
5543	0	32824	32838	
5544	0	32836	32754	
5545	0	32840	32766	
5546	0	32862	32704	
5547	0	32880	32775	
5548	0	32836	32774	
5549	0	32764	32689	
5550	0	32672	32855	
5551	0	32772	32856	
5552	0	32866	32920	
5553	0	32828	32930	
5554	0	32836	32888	
5555	0	32789	32714	
5556	0	32862	32726	
5557	0	32768	32700	
5558	0	32694	32622	
5559	0	32740	32558	
5560	0	32764	32544	
5561	0	32792	32543	
5562	0	32840	32378	
5563	0	32872	32604	
5564	0	32916	32496	
5565	0	32868	32660	
5566	0	32890	32615	
5567	0	32768	32668	
5568	0	32816	32744	
5569	0	32792	32888	
5570	0	32848	32838	
5571	0	32874	32916	
5572	0	32842	32892	
5573	0	32824	32943	
5574	0	32838	32900	
5575	0	32772	32871	
5576	0	32758	32822	
5577	0	32748	32856	
5578	0	32742	32839	
5579	0	32750	32910	
5580	0	32792	32874	
5581	0	32724	32754	
5582	0	32796	32894	
5583	0	32820	32860	
5584	0	32776	32847	
5585	0	32788	32846	
5586	0	32837	32704	
5587	0	32854	32775	
5588	0	32788	32838	
5589	0	32798	32812	
5590	0	32852	32743	
5591	0	32764	32724	
5592	0	32836	32647	
5593	0	32884	32702	
5594	0	32848	32834	
5595	0	32840	32725	
5596	0	32724	32746	
5597	0	32788	32847	
5598	0	32792	32844	
5599	0	32752	32665	
5600	0	32804	32750	
5601	0	32810	32844	
5602	0	32788	32772	
5603	0	32854	32772	
5604	0	32824	32742	
5605	0	32840	32782	
5606	0	32796	32724	
5607	0	32776	32761	
5608	0	32816	32756	
5609	0	32838	32720	
5610	0	32728	32662	
5611	0	32848	32694	
5612	0	32768	32634	
5613	0	32744	32770	
5614	0	32856	32890	
5615	0	32822	32839	
5616	0	32800	32759	
5617	0	32774	32684	
5618	0	32864	32652	
5619	0	32840	32736	
5620	0	32772	32772	
5621	0	32798	32775	
5622	0	32772	32743	
5623	0	32740	32764	
5624	0	32900	32644	
5625	0	32814	32700	
5626	0	32810	32794	
5627	0	32780	32752	
5628	0	32812	32824	
5629	0	32736	32820	
5630	0	32828	32838	
5631	0	32826	32807	
5632	0	32836	32792	
5633	0	32844	32743	
5634	0	32858	32702	
5635	0	32806	32638	
5636	0	32816	32822	
5637	0	32790	32740	
5638	0	32784	32711	
5639	0	32828	32688	
5640	0	32788	32815	
5641	0	32816	32736	
5642	0	32876	32794	
5643	0	32868	32784	
5644	0	32768	32658	
5645	0	32804	32786	
5646	0	32794	32831	
5647	0	32788	32775	
5648	0	32820	32820	
5649	0	32800	32775	
5650	0	32758	32624	
5651	0	32840	32658	
5652	0	32810	32775	
5653	0	32788	32844	
5654	0	32852	32818	
5655	0	32788	32775	
5656	0	32744	32712	
5657	0	32742	32810	
5658	0	32780	32731	
5659	0	32780	32853	
5660	0	32780	32830	
5661	0	32836	32752	
5662	0	32774	32854	
5663	0	32776	32764	
5664	0	32896	32762	
5665	0	32856	32775	
5666	0	32898	32806	
5667	0	32800	32802	
5668	0	32840	32700	
5669	0	32806	32810	
5670	0	32792	32880	
5671	0	32824	32828	
5672	0	32832	32788	
5673	0	32872	32854	
5674	0	32814	32720	
5675	0	32864	32692	
5676	0	32816	32647	
5677	0	32840	32702	
5678	0	32758	32590	
5679	0	32756	32720	
5680	0	32804	32708	
5681	0	32864	32670	
5682	0	32810	32724	
5683	0	32808	32743	
5684	0	32820	32794	
5685	0	32784	32874	
5686	0	32782	32880	
5687	0	32808	32726	
5688	0	32764	32807	
5689	0	32832	32855	
5690	0	32810	32752	
5691	0	32832	32854	
5692	0	32740	32788	
5693	0	32830	32672	
5694	0	32912	32566	
5695	0	32852	32638	
5696	0	32784	32826	
5697	0	32840	32814	
5698	0	32832	32898	
5699	0	32710	32706	
5700	0	32778	32722	
5701	0	32868	32884	
5702	0	32860	32796	
5703	0	32852	32836	
5704	0	32796	32858	
5705	0	32808	32794	
5706	0	32852	32720	
5707	0	32762	32839	
5708	0	32826	32750	
5709	0	32852	32724	
5710	0	32840	32724	
5711	0	32880	32712	
5712	0	32820	32671	
5713	0	32808	32700	
5714	0	32876	32688	
5715	0	32836	32768	
5716	0	32880	32794	
5717	0	32866	32816	
5718	0	32800	32734	
5719	0	32716	32666	
5720	0	32724	32839	
5721	0	32816	32824	
5722	0	32796	32770	
5723	0	32810	32822	
5724	0	32792	32746	
5725	0	32768	32772	
5726	0	32836	32791	
5727	0	32802	32782	
5728	0	32832	32702	
5729	0	32896	32854	
5730	0	32784	32764	
5731	0	32736	32876	
5732	0	32740	32818	
5733	0	32818	32632	
5734	0	32868	32641	
5735	0	32776	32752	
5736	0	32856	32754	
5737	0	32949	32756	
5738	0	32872	32846	
5739	0	32912	32675	
5740	0	32825	32823	
5741	0	32820	32834	
5742	0	32796	32786	
5743	0	32916	32692	
5744	0	32868	32854	
5745	0	32930	32742	
5746	0	32876	32838	
5747	0	32822	32742	
5748	0	32720	32772	
5749	0	32740	32712	
5750	0	32790	32872	
5751	0	32748	32822	
5752	0	32830	32734	
5753	0	32804	32804	
5754	0	32832	32714	
5755	0	32750	32862	
5756	0	32804	32750	
5757	0	32801	32751	
5758	0	32804	32768	
5759	0	32834	32690	
5760	0	32828	32696	
5761	0	32800	32802	
5762	0	32788	32775	
5763	0	32836	32775	
5764	0	32846	32718	
5765	0	32780	32862	
5766	0	32778	32764	
5767	0	32840	32800	
5768	0	32796	32743	
5769	0	32940	32769	
5770	0	32842	32823	
5771	0	32784	32743	
5772	0	32852	32816	
5773	0	32834	32820	
5774	0	32812	32764	
5775	0	32864	32658	
5776	0	32837	32663	
5777	0	32792	32658	
5778	0	32790	32836	
5779	0	32810	32740	
5780	0	32834	32791	
5781	0	32832	32808	
5782	0	32836	32636	
5783	0	32792	32814	
5784	0	32752	32774	
5785	0	32848	32760	
5786	0	32840	32838	
5787	0	32824	32794	
5788	0	32830	32724	
5789	0	32872	32751	
5790	0	32902	32775	
5791	0	32754	32820	
5792	0	32844	32839	
5793	0	32868	32864	
5794	0	32824	32748	
5795	0	32868	32756	
5796	0	32816	32956	
5797	0	32788	32911	
5798	0	32772	32735	
5799	0	32782	32798	
5800	0	32828	32769	
5801	0	32740	32652	
5802	0	32756	32620	
5803	0	32852	32568	
5804	0	32792	32688	
5805	0	32776	32849	
5806	0	32802	32806	
5807	0	32772	32794	
5808	0	32778	32826	
5809	0	32832	32727	
5810	0	32848	32748	
5811	0	32872	32832	
5812	0	32848	32939	
5813	0	32852	32824	
5814	0	32768	33006	
5815	0	32796	32994	
5816	0	32754	32914	
5817	0	32812	32802	
5818	0	32856	32828	
5819	0	32908	32630	
5820	0	32800	32602	
5821	0	32785	32692	
5822	0	32852	32704	
5823	0	32800	32750	
5824	0	32800	32630	
5825	0	32832	32615	
5826	0	32778	32721	
5827	0	32796	32680	
5828	0	32876	32668	
5829	0	32776	32656	
5830	0	32820	32576	
5831	0	32760	32630	
5832	0	32702	32718	
5833	0	32820	32762	
5834	0	32892	32784	
5835	0	32808	32818	
5836	0	32856	32730	
5837	0	32808	32756	
5838	0	32798	32900	
5839	0	32794	32922	
5840	0	32854	32940	
5841	0	32864	32920	
5842	0	32832	32756	
5843	0	32772	32756	
5844	0	32766	32820	
5845	0	32800	32798	
5846	0	32814	32830	
5847	0	32802	32745	
5848	0	32782	32754	
5849	0	32812	32724	
5850	0	32864	32807	
5851	0	32813	32768	
5852	0	32866	32790	
5853	0	32818	32740	
5854	0	32884	32694	
5855	0	32794	32770	
5856	0	32860	32868	
5857	0	32810	32727	
5858	0	32828	32740	
5859	0	32784	32726	
5860	0	32792	32676	
5861	0	32808	32622	
5862	0	32762	32808	
5863	0	32780	32842	
5864	0	32808	32902	
5865	0	32840	32866	
5866	0	32790	32854	
5867	0	32808	32756	
5868	0	32724	32750	
5869	0	32804	32847	
5870	0	32816	32844	
5871	0	32872	32922	
5872	0	32848	32808	
5873	0	32808	32794	
5874	0	32900	32742	
5875	0	32782	32586	
5876	0	32880	32762	
5877	0	32808	32775	
5878	0	32882	32870	
5879	0	32860	32766	
5880	0	32816	32798	
5881	0	32772	32646	
5882	0	32786	32768	
5883	0	32816	32628	
5884	0	32852	32635	
5885	0	32880	32636	
5886	0	32830	32775	
5887	0	32756	32741	
5888	0	32700	32752	
5889	0	32810	32839	
5890	0	32776	32767	
5891	0	32784	32836	
5892	0	32796	32772	
5893	0	32806	32822	
5894	0	32756	32910	
5895	0	32824	32743	
5896	0	32874	32734	
5897	0	32824	32736	
5898	0	32812	32898	
5899	0	32794	32728	
5900	0	32818	32868	
5901	0	32870	32754	
5902	0	32856	32696	
5903	0	32826	32798	
5904	0	32850	32785	
5905	0	32856	32864	
5906	0	32836	32858	
5907	0	32892	32762	
5908	0	32792	32855	
5909	0	32792	32832	
5910	0	32816	32798	
5911	0	32777	32684	
5912	0	32816	32700	
5913	0	32820	32798	
5914	0	32832	32743	
5915	0	32796	32952	
5916	0	32868	32838	
5917	0	32828	32908	
5918	0	32804	33004	
5919	0	32830	32966	
5920	0	32788	32954	
5921	0	32740	32986	
5922	0	32800	32839	
5923	0	32800	32663	
5924	0	32802	32528	
5925	0	32776	32684	
5926	0	32870	32710	
5927	0	32800	32678	
5928	0	32728	32660	
5929	0	32692	32534	
5930	0	32776	32418	
5931	0	32780	32504	
5932	0	32860	32662	
5933	0	32856	32567	
5934	0	32828	32537	
5935	0	32844	32518	
5936	0	32796	32600	
5937	0	32828	32727	
5938	0	32856	32826	
5939	0	32802	32740	
5940	0	32800	32752	
5941	0	32862	32823	
5942	0	32860	32816	
5943	0	32784	32756	
5944	0	32868	33000	
5945	0	32760	32943	
5946	0	32782	33116	
5947	0	32734	32952	
5948	0	32852	32956	
5949	0	32776	33018	
5950	0	32828	32890	
5951	0	32804	32768	
5952	0	32840	32726	
5953	0	32832	32744	
5954	0	32880	32676	
5955	0	32920	32528	
5956	0	32876	32547	
5957	0	32806	32548	
5958	0	32860	32564	
5959	0	32772	32416	
5960	0	32740	32455	
5961	0	32796	32586	
5962	0	32844	32766	
5963	0	32848	32860	
5964	0	32756	32732	
5965	0	32792	32996	
5966	0	32838	32856	
5967	0	32720	32856	
5968	0	32772	32804	
5969	0	32764	32871	
5970	0	32728	32848	
5971	0	32724	32842	
5972	0	32762	32826	
5973	0	32774	32750	
5974	0	32700	32764	
5975	0	32792	32774	
5976	0	32666	32752	
5977	0	32811	32684	
5978	0	32724	32600	
5979	0	32740	32548	
5980	0	32738	32616	
5981	0	32766	32724	
5982	0	32686	32676	
5983	0	32704	32638	
5984	0	32724	32710	
5985	0	32796	32574	
5986	0	32786	32598	
5987	0	32856	32604	
5988	0	32908	32686	
5989	0	32872	32756	
5990	0	32894	32678	
5991	0	32862	32775	
5992	0	32938	32903	
5993	0	32964	32884	
5994	0	33129	33012	
5995	0	33124	33095	
5996	0	33158	33340	
5997	0	33160	33249	
5998	0	33108	33456	
5999	0	33104	33383	
6000	0	32976	33330	
6001	0	32929	33144	
6002	0	32868	33071	
6003	0	32786	32980	
6004	0	32826	32920	
6005	0	32688	32879	
6006	0	32740	32647	
6007	0	32716	32518	
6008	0	32796	32556	
6009	0	32660	32450	
6010	0	32660	32542	
6011	0	32738	32519	
6012	0	32770	32508	
