# OpenSignals Text File Format. Version 1
# {"00:07:80:8C:0A:39": {"position": 0, "device": "biosignalsplux", "device name": "00:07:80:8C:0A:39", "device connection": "BTH00:07:80:8C:0A:39", "sampling rate": 1000, "resolution": [16, 16], "firmware version": 776, "comments": "", "keywords": "", "mode": 0, "sync interval": 2, "date": "2023-3-20", "time": "19:41:8.945", "channels": [1, 2], "sensor": ["EMG", "EMG"], "label": ["CH1", "CH2"], "column": ["nSeq", "DI", "CH1", "CH2"], "special": [{"SpO2": [80, 40, 5, 4, 3, 3]}, {"SpO2": [80, 40, 5, 4, 3, 3]}, {"SpO2": [80, 40, 5, 4, 3, 3]}, {"SpO2": [80, 40, 5, 4, 3, 3]}, {"SpO2": [80, 40, 5, 4, 3, 3]}, {"SpO2": [80, 40, 5, 4, 3, 3]}, {"SpO2": [80, 40, 5, 4, 3, 3]}, {"SpO2": [80, 40, 5, 4, 3, 3]}], "digital IO": [0, 1], "sleeve color": ["gray", "yellow"], "convertedValues": 0}}
# EndOfHeader
0	0	32888	32754	
1	0	32828	32759	
2	0	32822	32818	
3	0	32868	32746	
4	0	32818	32730	
5	0	32864	32766	
6	0	32879	32697	
7	0	32800	32743	
8	0	32768	32790	
9	0	32828	32654	
10	0	32768	32802	
11	0	32874	32736	
12	0	32816	32816	
13	0	32806	32712	
14	0	32788	32799	
15	0	32816	32734	
16	0	32820	32692	
17	0	32852	32698	
18	0	32821	32768	
19	0	32821	32785	
20	0	32876	32711	
21	0	32844	32710	
22	0	32858	32756	
23	0	32796	32742	
24	0	32744	32864	
25	0	32790	32844	
26	0	32759	32772	
27	0	32824	32692	
28	0	32780	32755	
29	0	32784	32766	
30	0	32784	32814	
31	0	32764	32774	
32	0	32824	32901	
33	0	32828	32698	
34	0	32944	32727	
35	0	32840	32806	
36	0	32864	32754	
37	0	32876	32807	
38	0	32852	32744	
39	0	32849	32766	
40	0	32878	32807	
41	0	32810	32711	
42	0	32786	32636	
43	0	32778	32775	
44	0	32700	32740	
45	0	32796	32727	
46	0	32668	32750	
47	0	32770	32694	
48	0	32764	32695	
49	0	32740	32742	
50	0	32826	32762	
51	0	32896	32798	
52	0	32860	32806	
53	0	32852	32732	
54	0	32828	32790	
55	0	32844	32742	
56	0	32796	32682	
57	0	32884	32743	
58	0	32836	32806	
59	0	32788	32724	
60	0	32870	32684	
61	0	32840	32761	
62	0	32804	32768	
63	0	32788	32743	
64	0	32782	32838	
65	0	32840	32733	
66	0	32788	32750	
67	0	32780	32736	
68	0	32784	32762	
69	0	32756	32744	
70	0	32804	32746	
71	0	32956	32732	
72	0	32824	32775	
73	0	32768	32749	
74	0	32750	32679	
75	0	32816	32775	
76	0	32752	32874	
77	0	32746	32762	
78	0	32780	32870	
79	0	32748	32798	
80	0	32860	32734	
81	0	32816	32766	
82	0	32838	32628	
83	0	32840	32838	
84	0	32848	32775	
85	0	32818	32820	
86	0	32864	32746	
87	0	32868	32712	
88	0	32880	32852	
89	0	32876	32802	
90	0	32854	32926	
91	0	32820	32638	
92	0	32800	32620	
93	0	32804	32795	
94	0	32798	32775	
95	0	32800	32773	
96	0	32784	32635	
97	0	32800	32836	
98	0	32796	32744	
99	0	32866	32788	
100	0	32854	32736	
101	0	32830	32724	
102	0	32800	32838	
103	0	32788	32764	
104	0	32770	32844	
105	0	32796	32758	
106	0	32806	32892	
107	0	32744	32798	
108	0	32780	32854	
109	0	32772	32854	
110	0	32856	32784	
111	0	32830	32736	
112	0	32784	32673	
113	0	32876	32786	
114	0	32878	32718	
115	0	32800	32729	
116	0	32860	32794	
117	0	32888	32816	
118	0	32864	32647	
119	0	32770	32910	
120	0	32802	32742	
121	0	32872	32775	
122	0	32744	32728	
123	0	32808	32864	
124	0	32774	32742	
125	0	32781	32745	
126	0	32783	32689	
127	0	32858	32768	
128	0	32876	32670	
129	0	32848	32839	
130	0	32828	32695	
131	0	32857	32798	
132	0	32820	32774	
133	0	32772	32737	
134	0	32800	32852	
135	0	32768	32743	
136	0	32820	32775	
137	0	32784	32730	
138	0	32806	32754	
139	0	32772	32790	
140	0	32804	32698	
141	0	32838	32804	
142	0	32798	32815	
143	0	32748	32752	
144	0	32832	32852	
145	0	32864	32822	
146	0	32872	32765	
147	0	32796	32716	
148	0	32798	32631	
149	0	32808	32798	
150	0	32844	32796	
151	0	32760	32708	
152	0	32794	32717	
153	0	32830	32750	
154	0	32828	32807	
155	0	32836	32886	
156	0	32824	32839	
157	0	32876	32892	
158	0	32799	32722	
159	0	32856	32775	
160	0	32804	32711	
161	0	32814	32816	
162	0	32790	32820	
163	0	32816	32759	
164	0	32824	32710	
165	0	32732	32666	
166	0	32784	32844	
167	0	32856	32710	
168	0	32828	32695	
169	0	32872	32710	
170	0	32838	32775	
171	0	32792	32713	
172	0	32784	32868	
173	0	32788	32853	
174	0	32812	32732	
175	0	32826	32834	
176	0	32772	32730	
177	0	32764	32820	
178	0	32848	32796	
179	0	32820	32804	
180	0	32828	32808	
181	0	32824	32800	
182	0	32778	32646	
183	0	32766	32852	
184	0	32894	32711	
185	0	32818	32628	
186	0	32832	32768	
187	0	32818	32732	
188	0	32792	32663	
189	0	32808	32741	
190	0	32832	32760	
191	0	32848	32608	
192	0	32740	32702	
193	0	32858	32824	
194	0	32800	32768	
195	0	32800	32768	
196	0	32804	32728	
197	0	32852	32768	
198	0	32872	32824	
199	0	32842	32748	
200	0	32896	32740	
201	0	32786	32788	
202	0	32746	32775	
203	0	32840	32702	
204	0	32714	32878	
205	0	32724	32804	
206	0	32840	32786	
207	0	32824	32822	
208	0	32857	32775	
209	0	32824	32706	
210	0	32868	32752	
211	0	32816	32766	
212	0	32808	32680	
213	0	32810	32722	
214	0	32906	32804	
215	0	32864	32764	
216	0	32844	32815	
217	0	32836	32882	
218	0	32852	32734	
219	0	32824	32766	
220	0	32784	32894	
221	0	32785	32748	
222	0	32744	32726	
223	0	32792	32692	
224	0	32772	32725	
225	0	32760	32756	
226	0	32800	32775	
227	0	32828	32756	
228	0	32804	32830	
229	0	32840	32706	
230	0	32854	32738	
231	0	32806	32788	
232	0	32900	32822	
233	0	32832	32676	
234	0	32796	32648	
235	0	32756	32764	
236	0	32810	32804	
237	0	32824	32732	
238	0	32800	32714	
239	0	32774	32772	
240	0	32756	32728	
241	0	32788	32767	
242	0	32844	32708	
243	0	32868	32674	
244	0	32836	32743	
245	0	32832	32794	
246	0	32856	32810	
247	0	32840	32743	
248	0	32868	32847	
249	0	32828	32836	
250	0	32892	32808	
251	0	32804	32804	
252	0	32770	32721	
253	0	32848	32692	
254	0	32774	32823	
255	0	32789	32734	
256	0	32856	32788	
257	0	32852	32770	
258	0	32772	32684	
259	0	32880	32796	
260	0	32768	32718	
261	0	32836	32801	
262	0	32802	32706	
263	0	32796	32766	
264	0	32804	32724	
265	0	32802	32807	
266	0	32760	32614	
267	0	32768	32721	
268	0	32808	32798	
269	0	32740	32850	
270	0	32800	32697	
271	0	32788	32864	
272	0	32824	32775	
273	0	32774	32775	
274	0	32776	32754	
275	0	32832	32688	
276	0	32872	32805	
277	0	32816	32738	
278	0	32832	32814	
279	0	32848	32764	
280	0	32872	32791	
281	0	32829	32750	
282	0	32830	32788	
283	0	32813	32734	
284	0	32824	32826	
285	0	32808	32806	
286	0	32804	32801	
287	0	32748	32736	
288	0	32756	32758	
289	0	32802	32678	
290	0	32770	32698	
291	0	32772	32769	
292	0	32782	32752	
293	0	32836	32668	
294	0	32764	32720	
295	0	32748	32832	
296	0	32828	32880	
297	0	32880	32770	
298	0	32832	32716	
299	0	32876	32790	
300	0	32908	32792	
301	0	32844	32730	
302	0	32768	32790	
303	0	32756	32798	
304	0	32756	32796	
305	0	32840	32788	
306	0	32824	32700	
307	0	32792	32798	
308	0	32760	32708	
309	0	32868	32772	
310	0	32784	32727	
311	0	32800	32775	
312	0	32806	32795	
313	0	32784	32775	
314	0	32850	32720	
315	0	32832	32766	
316	0	32778	32806	
317	0	32804	32707	
318	0	32812	32782	
319	0	32848	32736	
320	0	32836	32807	
321	0	32764	32759	
322	0	32808	32818	
323	0	32740	32716	
324	0	32796	32754	
325	0	32828	32718	
326	0	32820	32836	
327	0	32834	32808	
328	0	32810	32664	
329	0	32838	32842	
330	0	32824	32734	
331	0	32892	32804	
332	0	32790	32823	
333	0	32808	32725	
334	0	32836	32834	
335	0	32792	32804	
336	0	32796	32676	
337	0	32800	32826	
338	0	32872	32828	
339	0	32856	32822	
340	0	32876	32743	
341	0	32740	32740	
342	0	32784	32798	
343	0	32760	32748	
344	0	32832	32798	
345	0	32796	32784	
346	0	32764	32660	
347	0	32740	32694	
348	0	32794	32742	
349	0	32748	32772	
350	0	32840	32740	
351	0	32844	32698	
352	0	32808	32695	
353	0	32862	32841	
354	0	32878	32708	
355	0	32838	32768	
356	0	32872	32748	
357	0	32802	32775	
358	0	32817	32818	
359	0	32814	32724	
360	0	32762	32718	
361	0	32775	32838	
362	0	32834	32822	
363	0	32792	32821	
364	0	32860	32676	
365	0	32808	32772	
366	0	32772	32798	
367	0	32748	32804	
368	0	32752	32632	
369	0	32790	32702	
370	0	32802	32824	
371	0	32820	32775	
372	0	32836	32838	
373	0	32816	32682	
374	0	32868	32766	
375	0	32852	32806	
376	0	32780	32752	
377	0	32804	32766	
378	0	32836	32732	
379	0	32800	32698	
380	0	32816	32775	
381	0	32858	32754	
382	0	32804	32860	
383	0	32792	32702	
384	0	32852	32830	
385	0	32874	32740	
386	0	32778	32868	
387	0	32852	32756	
388	0	32788	32822	
389	0	32808	32806	
390	0	32840	32712	
391	0	32780	32855	
392	0	32840	32672	
393	0	32858	32844	
394	0	32760	32802	
395	0	32812	32756	
396	0	32784	32726	
397	0	32860	32732	
398	0	32840	32775	
399	0	32802	32768	
400	0	32844	32846	
401	0	32826	32695	
402	0	32816	32832	
403	0	32820	32746	
404	0	32820	32838	
405	0	32776	32608	
406	0	32824	32636	
407	0	32816	32804	
408	0	32769	32759	
409	0	32820	32766	
410	0	32758	32668	
411	0	32792	32711	
412	0	32826	32752	
413	0	32804	32700	
414	0	32802	32838	
415	0	32888	32672	
416	0	32896	32662	
417	0	32824	32769	
418	0	32828	32746	
419	0	32840	32857	
420	0	32860	32647	
421	0	32812	32679	
422	0	32824	32828	
423	0	32760	32946	
424	0	32796	32764	
425	0	32830	32732	
426	0	32772	32794	
427	0	32838	32804	
428	0	32802	32775	
429	0	32814	32727	
430	0	32820	32720	
431	0	32800	32814	
432	0	32816	32772	
433	0	32780	32696	
434	0	32774	32786	
435	0	32808	32796	
436	0	32808	32844	
437	0	32884	32762	
438	0	32832	32692	
439	0	32820	32664	
440	0	32848	32811	
441	0	32856	32727	
442	0	32956	32836	
443	0	32860	32751	
444	0	32856	32650	
445	0	32761	32873	
446	0	32694	32720	
447	0	32756	32726	
448	0	32858	32740	
449	0	32792	32736	
450	0	32810	32760	
451	0	32838	32742	
452	0	32764	32706	
453	0	32824	32774	
454	0	32828	32788	
455	0	32844	32688	
456	0	32808	32810	
457	0	32872	32721	
458	0	32840	32750	
459	0	32820	32874	
460	0	32824	32740	
461	0	32820	32661	
462	0	32791	32792	
463	0	32718	32757	
464	0	32798	32834	
465	0	32834	32753	
466	0	32796	32730	
467	0	32760	32738	
468	0	32788	32852	
469	0	32796	32769	
470	0	32864	32707	
471	0	32832	32738	
472	0	32872	32768	
473	0	32828	32807	
474	0	32790	32698	
475	0	32792	32736	
476	0	32784	32732	
477	0	32774	32799	
478	0	32868	32794	
479	0	32836	32708	
480	0	32794	32788	
481	0	32840	32791	
482	0	32768	32911	
483	0	32740	32748	
484	0	32800	32740	
485	0	32852	32772	
486	0	32784	32790	
487	0	32838	32774	
488	0	32856	32796	
489	0	32788	32775	
490	0	32834	32844	
491	0	32860	32775	
492	0	32806	32688	
493	0	32847	32750	
494	0	32826	32775	
495	0	32828	32720	
496	0	32816	32718	
497	0	32828	32666	
498	0	32824	32744	
499	0	32786	32775	
500	0	32832	32775	
501	0	32770	32680	
502	0	32840	32730	
503	0	32836	32751	
504	0	32768	32807	
505	0	32785	32720	
506	0	32769	32822	
507	0	32806	32802	
508	0	32828	32646	
509	0	32782	32747	
510	0	32810	32794	
511	0	32800	32772	
512	0	32824	32852	
513	0	32878	32742	
514	0	32860	32770	
515	0	32800	32807	
516	0	32756	32734	
517	0	32748	32775	
518	0	32730	32711	
519	0	32716	32878	
520	0	32766	32736	
521	0	32804	32732	
522	0	32808	32684	
523	0	32852	32770	
524	0	32824	32847	
525	0	32830	32700	
526	0	32816	32770	
527	0	32845	32804	
528	0	32838	32732	
529	0	32772	32804	
530	0	32864	32772	
531	0	32816	32746	
532	0	32846	32714	
533	0	32764	32773	
534	0	32784	32686	
535	0	32814	32775	
536	0	32816	32830	
537	0	32772	32775	
538	0	32788	32804	
539	0	32780	32820	
540	0	32828	32745	
541	0	32832	32944	
542	0	32860	32815	
543	0	32876	32716	
544	0	32860	32848	
545	0	32844	32837	
546	0	32756	32710	
547	0	32808	32680	
548	0	32802	32772	
549	0	32750	32640	
550	0	32728	32644	
551	0	32730	32632	
552	0	32756	32478	
553	0	32720	32615	
554	0	32764	32602	
555	0	32744	32519	
556	0	32746	32714	
557	0	32662	32687	
558	0	32720	32590	
559	0	32700	32647	
560	0	32712	32760	
561	0	32712	32644	
562	0	32740	32694	
563	0	32844	32676	
564	0	32908	32878	
565	0	32796	32775	
566	0	32904	32716	
567	0	32864	32750	
568	0	32960	32775	
569	0	32976	32720	
570	0	33060	32984	
571	0	33056	32968	
572	0	33142	32960	
573	0	33104	33252	
574	0	33192	33287	
575	0	33100	33194	
576	0	33024	33252	
577	0	32944	33159	
578	0	32862	32992	
579	0	32908	33074	
580	0	32864	32902	
581	0	32776	32839	
582	0	32758	32704	
583	0	32752	32680	
584	0	32764	32652	
585	0	32764	32486	
586	0	32688	32550	
587	0	32746	32505	
588	0	32720	32604	
589	0	32632	32511	
590	0	32644	32646	
591	0	32676	32714	
592	0	32699	32663	
593	0	32696	32724	
594	0	32698	32752	
595	0	32658	32828	
596	0	32724	32687	
597	0	32689	32775	
598	0	32764	32708	
599	0	32820	32744	
600	0	32790	32650	
601	0	32752	32775	
602	0	32832	32718	
603	0	32832	32794	
604	0	32774	32670	
605	0	32834	32874	
606	0	32840	32769	
607	0	32748	32696	
608	0	32868	32812	
609	0	32868	32796	
610	0	32800	32788	
611	0	32764	32822	
612	0	32780	32775	
613	0	32832	32848	
614	0	32888	32654	
615	0	32806	32772	
616	0	32768	32792	
617	0	32868	32830	
618	0	32872	32632	
619	0	32832	32764	
620	0	32856	32772	
621	0	32874	32733	
622	0	32830	32716	
623	0	32840	32788	
624	0	32810	32836	
625	0	32848	32743	
626	0	32818	32836	
627	0	32800	32753	
628	0	32816	32718	
629	0	32832	32798	
630	0	32812	32667	
631	0	32812	32792	
632	0	32796	32854	
633	0	32820	32801	
634	0	32812	32750	
635	0	32822	32692	
636	0	32856	32764	
637	0	32828	32756	
638	0	32816	32692	
639	0	32820	32732	
640	0	32804	32767	
641	0	32832	32822	
642	0	32788	32757	
643	0	32812	32783	
644	0	32760	32711	
645	0	32714	32749	
646	0	32774	32816	
647	0	32704	32774	
648	0	32840	32724	
649	0	32836	32764	
650	0	32832	32841	
651	0	32806	32752	
652	0	32876	32660	
653	0	32820	32799	
654	0	32824	32760	
655	0	32858	32871	
656	0	32808	32718	
657	0	32798	32842	
658	0	32904	32806	
659	0	32828	32790	
660	0	32802	32831	
661	0	32888	32692	
662	0	32872	32711	
663	0	32824	32844	
664	0	32824	32788	
665	0	32804	32834	
666	0	32800	32820	
667	0	32796	32639	
668	0	32836	32807	
669	0	32816	32812	
670	0	32684	32734	
671	0	32768	32734	
672	0	32776	32720	
673	0	32798	32740	
674	0	32806	32792	
675	0	32832	32798	
676	0	32762	32798	
677	0	32766	32679	
678	0	32852	32807	
679	0	32852	32784	
680	0	32894	32734	
681	0	32832	32716	
682	0	32832	32834	
683	0	32844	32696	
684	0	32836	32827	
685	0	32804	32711	
686	0	32728	32677	
687	0	32852	32775	
688	0	32782	32792	
689	0	32852	32756	
690	0	32872	32820	
691	0	32808	32734	
692	0	32712	32825	
693	0	32768	32762	
694	0	32752	32674	
695	0	32744	32775	
696	0	32762	32738	
697	0	32804	32711	
698	0	32828	32660	
699	0	32828	32860	
700	0	32820	32797	
701	0	32766	32802	
702	0	32752	32724	
703	0	32876	32760	
704	0	32796	32919	
705	0	32796	32784	
706	0	32804	32774	
707	0	32872	32846	
708	0	32852	32806	
709	0	32878	32752	
710	0	32776	32768	
711	0	32680	32800	
712	0	32858	32634	
713	0	32778	32738	
714	0	32800	32696	
715	0	32816	32732	
716	0	32866	32775	
717	0	32838	32850	
718	0	32808	32724	
719	0	32834	32876	
720	0	32852	32822	
721	0	32784	32714	
722	0	32780	32756	
723	0	32764	32864	
724	0	32824	32706	
725	0	32784	32804	
726	0	32824	32816	
727	0	32776	32767	
728	0	32816	32850	
729	0	32806	32736	
730	0	32860	32714	
731	0	32842	32711	
732	0	32824	32764	
733	0	32832	32759	
734	0	32808	32817	
735	0	32780	32682	
736	0	32868	32798	
737	0	32792	32775	
738	0	32784	32664	
739	0	32774	32712	
740	0	32808	32825	
741	0	32752	32805	
742	0	32782	32751	
743	0	32820	32770	
744	0	32896	32754	
745	0	32756	32772	
746	0	32895	32750	
747	0	32832	32860	
748	0	32812	32732	
749	0	32842	32854	
750	0	32808	32724	
751	0	32726	32751	
752	0	32756	32722	
753	0	32870	32822	
754	0	32780	32698	
755	0	32792	32798	
756	0	32808	32771	
757	0	32802	32749	
758	0	32820	32775	
759	0	32764	32836	
760	0	32770	32887	
761	0	32772	32730	
762	0	32808	32775	
763	0	32800	32742	
764	0	32826	32726	
765	0	32804	32762	
766	0	32716	32740	
767	0	32744	32772	
768	0	32800	32798	
769	0	32804	32750	
770	0	32860	32766	
771	0	32846	32775	
772	0	32864	32682	
773	0	32900	32764	
774	0	32818	32833	
775	0	32880	32753	
776	0	32828	32775	
777	0	32872	32686	
778	0	32786	32802	
779	0	32800	32838	
780	0	32852	32640	
781	0	32928	32743	
782	0	32846	32702	
783	0	32742	32753	
784	0	32752	32740	
785	0	32806	32890	
786	0	32764	32700	
787	0	32836	32790	
788	0	32860	32810	
789	0	32852	32724	
790	0	32740	32775	
791	0	32760	32852	
792	0	32760	32664	
793	0	32836	32828	
794	0	32808	32822	
795	0	32794	32720	
796	0	32820	32799	
797	0	32816	32770	
798	0	32818	32650	
799	0	32776	32770	
800	0	32788	32772	
801	0	32804	32742	
802	0	32828	32810	
803	0	32884	32680	
804	0	32822	32875	
805	0	32912	32775	
806	0	32948	32836	
807	0	32802	32810	
808	0	32794	32742	
809	0	32838	32752	
810	0	32768	32820	
811	0	32784	32806	
812	0	32840	32750	
813	0	32848	32838	
814	0	32854	32824	
815	0	32808	32729	
816	0	32860	32690	
817	0	32800	32890	
818	0	32784	32752	
819	0	32812	32834	
820	0	32820	32748	
821	0	32802	32692	
822	0	32790	32652	
823	0	32814	32864	
824	0	32821	32830	
825	0	32774	32750	
826	0	32798	32790	
827	0	32768	32798	
828	0	32816	32744	
829	0	32856	32846	
830	0	32830	32775	
831	0	32744	32750	
832	0	32796	32719	
833	0	32842	32788	
834	0	32910	32732	
835	0	32770	32784	
836	0	32774	32710	
837	0	32800	32668	
838	0	32824	32758	
839	0	32864	32788	
840	0	32786	32796	
841	0	32880	32788	
842	0	32784	32780	
843	0	32814	32688	
844	0	32772	32711	
845	0	32842	32823	
846	0	32765	32838	
847	0	32756	32732	
848	0	32876	32768	
849	0	32778	32804	
850	0	32784	32679	
851	0	32720	32814	
852	0	32788	32724	
853	0	32840	32720	
854	0	32804	32756	
855	0	32788	32856	
856	0	32828	32764	
857	0	32810	32727	
858	0	32764	32844	
859	0	32824	32766	
860	0	32821	32882	
861	0	32844	32722	
862	0	32746	32703	
863	0	32808	32832	
864	0	32812	32758	
865	0	32864	32772	
866	0	32846	32760	
867	0	32824	32738	
868	0	32804	32678	
869	0	32796	32847	
870	0	32808	32770	
871	0	32840	32788	
872	0	32806	32666	
873	0	32814	32744	
874	0	32808	32855	
875	0	32748	32830	
876	0	32828	32714	
877	0	32790	32838	
878	0	32824	32750	
879	0	32836	32708	
880	0	32862	32788	
881	0	32824	32686	
882	0	32780	32710	
883	0	32766	32814	
884	0	32834	32746	
885	0	32824	32775	
886	0	32820	32786	
887	0	32764	32658	
888	0	32742	32740	
889	0	32836	32756	
890	0	32836	32724	
891	0	32816	32866	
892	0	32775	32656	
893	0	32808	32724	
894	0	32800	32806	
895	0	32856	32739	
896	0	32810	32839	
897	0	32834	32720	
898	0	32740	32692	
899	0	32832	32718	
900	0	32894	32775	
901	0	32796	32829	
902	0	32848	32900	
903	0	32824	32736	
904	0	32836	32784	
905	0	32824	32840	
906	0	32790	32774	
907	0	32789	32791	
908	0	32808	32704	
909	0	32804	32795	
910	0	32800	32774	
911	0	32782	32660	
912	0	32760	32718	
913	0	32792	32812	
914	0	32860	32752	
915	0	32792	32868	
916	0	32824	32706	
917	0	32844	32639	
918	0	32840	32834	
919	0	32778	32786	
920	0	32804	32824	
921	0	32812	32796	
922	0	32762	32743	
923	0	32780	32814	
924	0	32794	32734	
925	0	32736	32860	
926	0	32804	32682	
927	0	32808	32727	
928	0	32792	32846	
929	0	32816	32801	
930	0	32840	32795	
931	0	32836	32723	
932	0	32850	32847	
933	0	32820	32740	
934	0	32896	32775	
935	0	32826	32652	
936	0	32808	32686	
937	0	32844	32838	
938	0	32830	32856	
939	0	32762	32718	
940	0	32764	32768	
941	0	32796	32752	
942	0	32852	32692	
943	0	32864	32878	
944	0	32792	32738	
945	0	32768	32736	
946	0	32826	32847	
947	0	32852	32746	
948	0	32821	32679	
949	0	32768	32816	
950	0	32816	32756	
951	0	32784	32804	
952	0	32718	32764	
953	0	32853	32804	
954	0	32816	32775	
955	0	32858	32672	
956	0	32784	32860	
957	0	32862	32726	
958	0	32852	32815	
959	0	32838	32758	
960	0	32784	32768	
961	0	32766	32775	
962	0	32744	32692	
963	0	32836	32804	
964	0	32792	32805	
965	0	32794	32792	
966	0	32860	32738	
967	0	32834	32768	
968	0	32778	32638	
969	0	32804	32774	
970	0	32780	32775	
971	0	32808	32750	
972	0	32856	32748	
973	0	32800	32694	
974	0	32828	32754	
975	0	32780	32792	
976	0	32796	32710	
977	0	32816	32863	
978	0	32785	32794	
979	0	32850	32806	
980	0	32840	32750	
981	0	32864	32764	
982	0	32776	32734	
983	0	32820	32712	
984	0	32884	32753	
985	0	32818	32775	
986	0	32752	32722	
987	0	32800	32711	
988	0	32784	32710	
989	0	32798	32757	
990	0	32800	32775	
991	0	32824	32688	
992	0	32822	32738	
993	0	32804	32836	
994	0	32788	32786	
995	0	32842	32716	
996	0	32780	32742	
997	0	32774	32775	
998	0	32740	32846	
999	0	32772	32742	
1000	0	32900	32754	
1001	0	32868	32714	
1002	0	32842	32746	
1003	0	32804	32770	
1004	0	32822	32863	
1005	0	32820	32700	
1006	0	32852	32863	
1007	0	32816	32730	
1008	0	32804	32844	
1009	0	32776	32716	
1010	0	32832	32832	
1011	0	32833	32660	
1012	0	32806	32728	
1013	0	32800	32824	
1014	0	32820	32765	
1015	0	32796	32732	
1016	0	32772	32694	
1017	0	32824	32802	
1018	0	32800	32774	
1019	0	32808	32755	
1020	0	32776	32668	
1021	0	32796	32844	
1022	0	32804	32839	
1023	0	32836	32770	
1024	0	32912	32706	
1025	0	32882	32744	
1026	0	32800	32821	
1027	0	32818	32775	
1028	0	32832	32679	
1029	0	32828	32744	
1030	0	32888	32822	
1031	0	32820	32624	
1032	0	32798	32718	
1033	0	32800	32704	
1034	0	32816	32852	
1035	0	32832	32802	
1036	0	32820	32792	
1037	0	32792	32832	
1038	0	32808	32838	
1039	0	32765	32664	
1040	0	32784	32847	
1041	0	32824	32732	
1042	0	32812	32748	
1043	0	32812	32830	
1044	0	32802	32724	
1045	0	32834	32800	
1046	0	32828	32740	
1047	0	32818	32656	
1048	0	32848	32806	
1049	0	32736	32775	
1050	0	32836	32744	
1051	0	32824	32704	
1052	0	32780	32722	
1053	0	32834	32751	
1054	0	32810	32788	
1055	0	32775	32676	
1056	0	32814	32706	
1057	0	32764	32750	
1058	0	32792	32892	
1059	0	32828	32697	
1060	0	32852	32707	
1061	0	32804	32716	
1062	0	32796	32819	
1063	0	32806	32706	
1064	0	32876	32775	
1065	0	32832	32686	
1066	0	32824	32766	
1067	0	32774	32773	
1068	0	32764	32815	
1069	0	32900	32744	
1070	0	32810	32835	
1071	0	32814	32738	
1072	0	32816	32814	
1073	0	32766	32692	
1074	0	32772	32812	
1075	0	32746	32794	
1076	0	32800	32847	
1077	0	32780	32714	
1078	0	32872	32838	
1079	0	32814	32824	
1080	0	32860	32814	
1081	0	32808	32588	
1082	0	32804	32842	
1083	0	32804	32711	
1084	0	32852	32775	
1085	0	32800	32720	
1086	0	32844	32785	
1087	0	32782	32820	
1088	0	32800	32756	
1089	0	32744	32756	
1090	0	32708	32703	
1091	0	32792	32672	
1092	0	32804	32766	
1093	0	32836	32802	
1094	0	32808	32708	
1095	0	32782	32839	
1096	0	32812	32808	
1097	0	32846	32772	
1098	0	32754	32761	
1099	0	32796	32790	
1100	0	32858	32690	
1101	0	32824	32788	
1102	0	32814	32700	
1103	0	32824	32746	
1104	0	32775	32772	
1105	0	32808	32728	
1106	0	32784	32676	
1107	0	32826	32775	
1108	0	32828	32750	
1109	0	32874	32711	
1110	0	32890	32762	
1111	0	32876	32650	
1112	0	32844	32788	
1113	0	32792	32866	
1114	0	32832	32703	
1115	0	32820	32750	
1116	0	32792	32885	
1117	0	32828	32832	
1118	0	32761	32696	
1119	0	32782	32805	
1120	0	32812	32748	
1121	0	32834	32647	
1122	0	32834	32750	
1123	0	32800	32762	
1124	0	32774	32712	
1125	0	32830	32764	
1126	0	32740	32754	
1127	0	32854	32694	
1128	0	32814	32798	
1129	0	32832	32804	
1130	0	32774	32746	
1131	0	32792	32822	
1132	0	32820	32762	
1133	0	32772	32644	
1134	0	32788	32728	
1135	0	32818	32830	
1136	0	32784	32634	
1137	0	32804	32790	
1138	0	32856	32820	
1139	0	32852	32760	
1140	0	32756	32688	
1141	0	32821	32792	
1142	0	32880	32814	
1143	0	32800	32775	
1144	0	32860	32750	
1145	0	32752	32870	
1146	0	32768	32710	
1147	0	32768	32902	
1148	0	32752	32734	
1149	0	32832	32794	
1150	0	32844	32702	
1151	0	32812	32810	
1152	0	32792	32798	
1153	0	32858	32636	
1154	0	32836	32714	
1155	0	32820	32838	
1156	0	32832	32775	
1157	0	32800	32739	
1158	0	32830	32660	
1159	0	32854	32759	
1160	0	32872	32734	
1161	0	32816	32832	
1162	0	32792	32690	
1163	0	32786	32846	
1164	0	32842	32798	
1165	0	32792	32818	
1166	0	32713	32647	
1167	0	32768	32775	
1168	0	32728	32820	
1169	0	32756	32676	
1170	0	32784	32847	
1171	0	32800	32756	
1172	0	32812	32742	
1173	0	32854	32762	
1174	0	32800	32802	
1175	0	32768	32861	
1176	0	32842	32838	
1177	0	32822	32775	
1178	0	32860	32830	
1179	0	32836	32762	
1180	0	32892	32739	
1181	0	32816	32710	
1182	0	32796	32766	
1183	0	32842	32730	
1184	0	32784	32684	
1185	0	32860	32830	
1186	0	32758	32696	
1187	0	32840	32786	
1188	0	32820	32679	
1189	0	32836	32797	
1190	0	32816	32775	
1191	0	32782	32846	
1192	0	32804	32713	
1193	0	32824	32702	
1194	0	32748	32870	
1195	0	32744	32772	
1196	0	32746	32775	
1197	0	32780	32690	
1198	0	32750	32740	
1199	0	32820	32775	
1200	0	32864	32720	
1201	0	32880	32716	
1202	0	32800	32812	
1203	0	32788	32796	
1204	0	32844	32810	
1205	0	32816	32710	
1206	0	32764	32888	
1207	0	32820	32808	
1208	0	32782	32884	
1209	0	32832	32646	
1210	0	32824	32644	
1211	0	32818	32834	
1212	0	32846	32796	
1213	0	32844	32688	
1214	0	32780	32739	
1215	0	32796	32764	
1216	0	32824	32762	
1217	0	32808	32724	
1218	0	32804	32775	
1219	0	32824	32846	
1220	0	32860	32735	
1221	0	32836	32796	
1222	0	32856	32719	
1223	0	32762	32824	
1224	0	32768	32730	
1225	0	32798	32807	
1226	0	32828	32690	
1227	0	32852	32736	
1228	0	32832	32768	
1229	0	32856	32746	
1230	0	32754	32788	
1231	0	32836	32846	
1232	0	32824	32700	
1233	0	32756	32755	
1234	0	32809	32734	
1235	0	32860	32892	
1236	0	32912	32720	
1237	0	32824	32792	
1238	0	32790	32750	
1239	0	32812	32756	
1240	0	32728	32775	
1241	0	32804	32824	
1242	0	32772	32696	
1243	0	32828	32738	
1244	0	32804	32879	
1245	0	32820	32775	
1246	0	32790	32808	
1247	0	32808	32732	
1248	0	32852	32856	
1249	0	32864	32814	
1250	0	32820	32838	
1251	0	32804	32712	
1252	0	32824	32852	
1253	0	32732	32730	
1254	0	32840	32743	
1255	0	32776	32612	
1256	0	32770	32734	
1257	0	32772	32695	
1258	0	32790	32647	
1259	0	32806	32616	
1260	0	32768	32558	
1261	0	32746	32590	
1262	0	32660	32671	
1263	0	32776	32560	
1264	0	32744	32501	
1265	0	32684	32636	
1266	0	32724	32666	
1267	0	32696	32684	
1268	0	32720	32604	
1269	0	32752	32766	
1270	0	32772	32814	
1271	0	32792	32748	
1272	0	32828	32816	
1273	0	32864	32750	
1274	0	32848	32758	
1275	0	32880	32628	
1276	0	32884	32748	
1277	0	32948	32788	
1278	0	33024	32908	
1279	0	33016	32828	
1280	0	33052	33045	
1281	0	33076	33092	
1282	0	33130	33306	
1283	0	33088	33150	
1284	0	33084	33249	
1285	0	32948	33118	
1286	0	32908	33159	
1287	0	32872	32954	
1288	0	32888	33020	
1289	0	32844	32922	
1290	0	32784	32860	
1291	0	32764	32628	
1292	0	32696	32668	
1293	0	32708	32612	
1294	0	32682	32577	
1295	0	32684	32544	
1296	0	32618	32562	
1297	0	32632	32594	
1298	0	32724	32592	
1299	0	32728	32602	
1300	0	32668	32625	
1301	0	32676	32718	
1302	0	32680	32700	
1303	0	32748	32672	
1304	0	32750	32698	
1305	0	32804	32715	
1306	0	32820	32736	
1307	0	32744	32764	
1308	0	32728	32788	
1309	0	32800	32775	
1310	0	32828	32732	
1311	0	32836	32808	
1312	0	32788	32767	
1313	0	32806	32812	
1314	0	32824	32750	
1315	0	32732	32708	
1316	0	32812	32790	
1317	0	32856	32810	
1318	0	32902	32730	
1319	0	32824	32670	
1320	0	32780	32775	
1321	0	32848	32790	
1322	0	32896	32767	
1323	0	32832	32711	
1324	0	32752	32828	
1325	0	32764	32775	
1326	0	32840	32653	
1327	0	32810	32880	
1328	0	32804	32762	
1329	0	32788	32700	
1330	0	32768	32750	
1331	0	32784	32810	
1332	0	32794	32668	
1333	0	32840	32804	
1334	0	32834	32802	
1335	0	32840	32767	
1336	0	32874	32849	
1337	0	32852	32798	
1338	0	32800	32664	
1339	0	32778	32846	
1340	0	32824	32774	
1341	0	32844	32708	
1342	0	32792	32775	
1343	0	32772	32748	
1344	0	32814	32768	
1345	0	32810	32790	
1346	0	32770	32810	
1347	0	32784	32788	
1348	0	32785	32832	
1349	0	32764	32714	
1350	0	32780	32792	
1351	0	32870	32828	
1352	0	32865	32752	
1353	0	32860	32804	
1354	0	32812	32814	
1355	0	32814	32826	
1356	0	32836	32823	
1357	0	32814	32752	
1358	0	32756	32682	
1359	0	32804	32676	
1360	0	32804	32841	
1361	0	32780	32794	
1362	0	32792	32727	
1363	0	32736	32720	
1364	0	32788	32798	
1365	0	32852	32798	
1366	0	32784	32766	
1367	0	32836	32642	
1368	0	32784	32794	
1369	0	32840	32860	
1370	0	32872	32775	
1371	0	32856	32775	
1372	0	32844	32678	
1373	0	32816	32760	
1374	0	32880	32855	
1375	0	32844	32688	
1376	0	32792	32786	
1377	0	32844	32703	
1378	0	32736	32806	
1379	0	32808	32791	
1380	0	32832	32708	
1381	0	32764	32790	
1382	0	32752	32740	
1383	0	32792	32858	
1384	0	32808	32775	
1385	0	32800	32711	
1386	0	32804	32756	
1387	0	32800	32800	
1388	0	32836	32782	
1389	0	32808	32772	
1390	0	32840	32718	
1391	0	32796	32826	
1392	0	32832	32745	
1393	0	32784	32650	
1394	0	32780	32816	
1395	0	32860	32772	
1396	0	32798	32764	
1397	0	32784	32742	
1398	0	32841	32700	
1399	0	32860	32788	
1400	0	32796	32852	
1401	0	32828	32725	
1402	0	32828	32760	
1403	0	32822	32688	
1404	0	32832	32726	
1405	0	32800	32719	
1406	0	32810	32764	
1407	0	32794	32818	
1408	0	32804	32621	
1409	0	32828	32804	
1410	0	32810	32702	
1411	0	32776	32882	
1412	0	32760	32697	
1413	0	32834	32754	
1414	0	32860	32828	
1415	0	32792	32775	
1416	0	32778	32794	
1417	0	32796	32737	
1418	0	32764	32674	
1419	0	32876	32864	
1420	0	32856	32742	
1421	0	32802	32682	
1422	0	32800	32757	
1423	0	32764	32644	
1424	0	32886	32832	
1425	0	32800	32775	
1426	0	32800	32815	
1427	0	32832	32790	
1428	0	32836	32752	
1429	0	32844	32716	
1430	0	32836	32831	
1431	0	32804	32775	
1432	0	32734	32818	
1433	0	32780	32720	
1434	0	32786	32775	
1435	0	32742	32839	
1436	0	32820	32775	
1437	0	32808	32730	
1438	0	32864	32714	
1439	0	32880	32700	
1440	0	32840	32759	
1441	0	32860	32759	
1442	0	32890	32696	
1443	0	32792	32811	
1444	0	32863	32811	
1445	0	32872	32832	
1446	0	32734	32679	
1447	0	32824	32814	
1448	0	32735	32849	
1449	0	32816	32716	
1450	0	32810	32775	
1451	0	32898	32788	
1452	0	32808	32728	
1453	0	32790	32748	
1454	0	32840	32748	
1455	0	32753	32711	
1456	0	32798	32761	
1457	0	32774	32830	
1458	0	32800	32818	
1459	0	32800	32944	
1460	0	32772	32730	
1461	0	32838	32687	
1462	0	32913	32702	
1463	0	32800	32862	
1464	0	32760	32724	
1465	0	32784	32775	
1466	0	32780	32708	
1467	0	32824	32775	
1468	0	32814	32826	
1469	0	32848	32696	
1470	0	32808	32734	
1471	0	32812	32711	
1472	0	32784	32800	
1473	0	32820	32734	
1474	0	32828	32826	
1475	0	32846	32786	
1476	0	32798	32832	
1477	0	32836	32660	
1478	0	32789	32806	
1479	0	32792	32782	
1480	0	32752	32758	
1481	0	32826	32711	
1482	0	32824	32730	
1483	0	32814	32847	
1484	0	32788	32711	
1485	0	32826	32730	
1486	0	32784	32802	
1487	0	32816	32790	
1488	0	32836	32664	
1489	0	32817	32719	
1490	0	32825	32822	
1491	0	32816	32774	
1492	0	32828	32748	
1493	0	32834	32808	
1494	0	32812	32743	
1495	0	32794	32714	
1496	0	32844	32814	
1497	0	32837	32696	
1498	0	32796	32836	
1499	0	32822	32662	
1500	0	32774	32678	
1501	0	32772	32831	
1502	0	32860	32826	
1503	0	32740	32722	
1504	0	32768	32740	
1505	0	32822	32752	
1506	0	32782	32829	
1507	0	32785	32715	
1508	0	32802	32775	
1509	0	32784	32726	
1510	0	32844	32856	
1511	0	32788	32775	
1512	0	32896	32687	
1513	0	32770	32828	
1514	0	32840	32746	
1515	0	32832	32754	
1516	0	32832	32676	
1517	0	32768	32794	
1518	0	32840	32807	
1519	0	32832	32790	
1520	0	32878	32742	
1521	0	32884	32711	
1522	0	32836	32708	
1523	0	32816	32791	
1524	0	32837	32785	
1525	0	32822	32836	
1526	0	32876	32748	
1527	0	32840	32692	
1528	0	32804	32868	
1529	0	32770	32806	
1530	0	32788	32812	
1531	0	32824	32679	
1532	0	32792	32800	
1533	0	32828	32769	
1534	0	32740	32806	
1535	0	32852	32668	
1536	0	32759	32832	
1537	0	32820	32793	
1538	0	32832	32743	
1539	0	32848	32698	
1540	0	32740	32820	
1541	0	32718	32708	
1542	0	32836	32772	
1543	0	32796	32711	
1544	0	32774	32738	
1545	0	32784	32807	
1546	0	32868	32839	
1547	0	32800	32807	
1548	0	32712	32759	
1549	0	32768	32756	
1550	0	32840	32764	
1551	0	32864	32745	
1552	0	32800	32674	
1553	0	32841	32820	
1554	0	32844	32710	
1555	0	32896	32856	
1556	0	32840	32802	
1557	0	32840	32800	
1558	0	32772	32754	
1559	0	32784	32712	
1560	0	32752	32914	
1561	0	32772	32754	
1562	0	32808	32732	
1563	0	32876	32742	
1564	0	32834	32708	
1565	0	32760	32751	
1566	0	32862	32812	
1567	0	32840	32812	
1568	0	32840	32762	
1569	0	32788	32676	
1570	0	32796	32867	
1571	0	32820	32748	
1572	0	32808	32790	
1573	0	32788	32796	
1574	0	32724	32660	
1575	0	32776	32726	
1576	0	32828	32768	
1577	0	32868	32832	
1578	0	32737	32726	
1579	0	32816	32759	
1580	0	32776	32793	
1581	0	32846	32862	
1582	0	32768	32700	
1583	0	32808	32738	
1584	0	32866	32703	
1585	0	32828	32775	
1586	0	32824	32768	
1587	0	32872	32794	
1588	0	32794	32839	
1589	0	32812	32675	
1590	0	32828	32830	
1591	0	32821	32855	
1592	0	32804	32807	
1593	0	32832	32640	
1594	0	32742	32736	
1595	0	32776	32752	
1596	0	32792	32812	
1597	0	32784	32719	
1598	0	32844	32886	
1599	0	32832	32764	
1600	0	32812	32704	
1601	0	32832	32775	
1602	0	32824	32692	
1603	0	32824	32666	
1604	0	32832	32772	
1605	0	32820	32774	
1606	0	32852	32682	
1607	0	32856	32752	
1608	0	32836	32847	
1609	0	32810	32676	
1610	0	32828	32723	
1611	0	32804	32672	
1612	0	32840	32798	
1613	0	32822	32804	
1614	0	32822	32647	
1615	0	32800	32865	
1616	0	32784	32858	
1617	0	32756	32811	
1618	0	32862	32797	
1619	0	32756	32810	
1620	0	32824	32722	
1621	0	32824	32820	
1622	0	32794	32767	
1623	0	32762	32790	
1624	0	32792	32662	
1625	0	32772	32711	
1626	0	32826	32769	
1627	0	32805	32714	
1628	0	32836	32841	
1629	0	32816	32799	
1630	0	32744	32853	
1631	0	32809	32747	
1632	0	32792	32792	
1633	0	32800	32678	
1634	0	32886	32692	
1635	0	32908	32862	
1636	0	32784	32788	
1637	0	32776	32775	
1638	0	32836	32764	
1639	0	32728	32726	
1640	0	32844	32856	
1641	0	32876	32764	
1642	0	32832	32868	
1643	0	32868	32815	
1644	0	32881	32812	
1645	0	32858	32740	
1646	0	32726	32814	
1647	0	32792	32748	
1648	0	32772	32746	
1649	0	32774	32772	
1650	0	32828	32692	
1651	0	32718	32846	
1652	0	32840	32780	
1653	0	32856	32705	
1654	0	32844	32751	
1655	0	32844	32699	
1656	0	32860	32733	
1657	0	32775	32700	
1658	0	32772	32807	
1659	0	32816	32748	
1660	0	32814	32732	
1661	0	32804	32775	
1662	0	32824	32847	
1663	0	32880	32808	
1664	0	32796	32815	
1665	0	32760	32706	
1666	0	32796	32732	
1667	0	32816	32702	
1668	0	32752	32743	
1669	0	32798	32802	
1670	0	32812	32750	
1671	0	32820	32718	
1672	0	32776	32698	
1673	0	32752	32836	
1674	0	32776	32770	
1675	0	32816	32836	
1676	0	32844	32820	
1677	0	32848	32704	
1678	0	32872	32748	
1679	0	32766	32766	
1680	0	32766	32870	
1681	0	32760	32772	
1682	0	32782	32862	
1683	0	32878	32862	
1684	0	32852	32892	
1685	0	32820	32810	
1686	0	32812	32672	
1687	0	32796	32769	
1688	0	32756	32720	
1689	0	32844	32794	
1690	0	32916	32752	
1691	0	32870	32804	
1692	0	32840	32756	
1693	0	32812	32698	
1694	0	32794	32815	
1695	0	32762	32624	
1696	0	32754	32738	
1697	0	32876	32668	
1698	0	32756	32716	
1699	0	32766	32694	
1700	0	32822	32750	
1701	0	32886	32719	
1702	0	32796	32747	
1703	0	32828	32785	
1704	0	32888	32762	
1705	0	32812	32672	
1706	0	32858	32708	
1707	0	32839	32746	
1708	0	32816	32806	
1709	0	32860	32942	
1710	0	32860	32692	
1711	0	32788	32706	
1712	0	32744	32715	
1713	0	32764	32768	
1714	0	32804	32760	
1715	0	32766	32807	
1716	0	32810	32758	
1717	0	32832	32758	
1718	0	32798	32768	
1719	0	32824	32768	
1720	0	32792	32878	
1721	0	32820	32834	
1722	0	32808	32702	
1723	0	32836	32800	
1724	0	32812	32738	
1725	0	32806	32788	
1726	0	32824	32810	
1727	0	32782	32775	
1728	0	32912	32775	
1729	0	32736	32860	
1730	0	32828	32791	
1731	0	32894	32692	
1732	0	32804	32790	
1733	0	32844	32774	
1734	0	32762	32640	
1735	0	32788	32690	
1736	0	32816	32758	
1737	0	32720	32828	
1738	0	32840	32807	
1739	0	32796	32756	
1740	0	32780	32786	
1741	0	32836	32797	
1742	0	32826	32820	
1743	0	32810	32716	
1744	0	32848	32759	
1745	0	32832	32726	
1746	0	32772	32852	
1747	0	32834	32869	
1748	0	32846	32734	
1749	0	32906	32788	
1750	0	32846	32788	
1751	0	32828	32764	
1752	0	32780	32788	
1753	0	32782	32706	
1754	0	32778	32676	
1755	0	32784	32775	
1756	0	32800	32703	
1757	0	32756	32743	
1758	0	32796	32772	
1759	0	32773	32702	
1760	0	32862	32812	
1761	0	32872	32704	
1762	0	32766	32792	
1763	0	32868	32827	
1764	0	32788	32822	
1765	0	32890	32816	
1766	0	32824	32760	
1767	0	32840	32720	
1768	0	32844	32736	
1769	0	32817	32752	
1770	0	32860	32814	
1771	0	32780	32702	
1772	0	32784	32850	
1773	0	32848	32834	
1774	0	32828	32716	
1775	0	32774	32740	
1776	0	32804	32692	
1777	0	32804	32884	
1778	0	32840	32721	
1779	0	32788	32724	
1780	0	32824	32896	
1781	0	32832	32862	
1782	0	32838	32754	
1783	0	32806	32903	
1784	0	32836	32770	
1785	0	32768	32738	
1786	0	32832	32774	
1787	0	32774	32788	
1788	0	32900	32684	
1789	0	32816	32735	
1790	0	32800	32784	
1791	0	32800	32682	
1792	0	32828	32750	
1793	0	32756	32636	
1794	0	32808	32796	
1795	0	32794	32772	
1796	0	32784	32721	
1797	0	32836	32790	
1798	0	32796	32760	
1799	0	32832	32628	
1800	0	32792	32892	
1801	0	32756	32772	
1802	0	32816	32804	
1803	0	32772	32784	
1804	0	32858	32790	
1805	0	32896	32864	
1806	0	32817	32844	
1807	0	32784	32702	
1808	0	32828	32792	
1809	0	32834	32794	
1810	0	32788	32732	
1811	0	32820	32854	
1812	0	32846	32756	
1813	0	32790	32736	
1814	0	32826	32790	
1815	0	32788	32839	
1816	0	32796	32692	
1817	0	32764	32822	
1818	0	32812	32775	
1819	0	32812	32752	
1820	0	32763	32679	
1821	0	32777	32752	
1822	0	32745	32838	
1823	0	32790	32660	
1824	0	32800	32721	
1825	0	32832	32800	
1826	0	32850	32682	
1827	0	32836	32775	
1828	0	32784	32767	
1829	0	32838	32794	
1830	0	32856	32822	
1831	0	32876	32751	
1832	0	32852	32836	
1833	0	32808	32704	
1834	0	32760	32724	
1835	0	32792	32672	
1836	0	32804	32775	
1837	0	32796	32800	
1838	0	32756	32719	
1839	0	32752	32766	
1840	0	32820	32790	
1841	0	32802	32736	
1842	0	32824	32811	
1843	0	32840	32792	
1844	0	32840	32700	
1845	0	32842	32838	
1846	0	32834	32749	
1847	0	32822	32821	
1848	0	32828	32795	
1849	0	32788	32678	
1850	0	32812	32805	
1851	0	32782	32724	
1852	0	32842	32810	
1853	0	32824	32758	
1854	0	32836	32764	
1855	0	32796	32830	
1856	0	32808	32812	
1857	0	32830	32692	
1858	0	32772	32759	
1859	0	32794	32792	
1860	0	32720	32678	
1861	0	32756	32748	
1862	0	32834	32775	
1863	0	32784	32714	
1864	0	32768	32686	
1865	0	32804	32752	
1866	0	32824	32748	
1867	0	32842	32846	
1868	0	32864	32756	
1869	0	32820	32646	
1870	0	32872	32724	
1871	0	32800	32759	
1872	0	32912	32676	
1873	0	32856	32799	
1874	0	32896	32742	
1875	0	32828	32839	
1876	0	32926	32772	
1877	0	32772	32636	
1878	0	32780	32770	
1879	0	32828	32768	
1880	0	32700	32716	
1881	0	32798	32734	
1882	0	32752	32660	
1883	0	32786	32775	
1884	0	32820	32772	
1885	0	32726	32780	
1886	0	32704	32732	
1887	0	32846	32771	
1888	0	32764	32802	
1889	0	32766	32756	
1890	0	32784	32734	
1891	0	32829	32836	
1892	0	32808	32638	
1893	0	32848	32752	
1894	0	32880	32726	
1895	0	32864	32734	
1896	0	32824	32734	
1897	0	32728	32848	
1898	0	32826	32839	
1899	0	32780	32750	
1900	0	32848	32820	
1901	0	32804	32741	
1902	0	32872	32816	
1903	0	32854	32761	
1904	0	32806	32839	
1905	0	32786	32753	
1906	0	32832	32628	
1907	0	32828	32775	
1908	0	32784	32802	
1909	0	32804	32715	
1910	0	32848	32814	
1911	0	32800	32815	
1912	0	32820	32710	
1913	0	32780	32706	
1914	0	32788	32756	
1915	0	32828	32688	
1916	0	32788	32796	
1917	0	32742	32830	
1918	0	32788	32806	
1919	0	32876	32818	
1920	0	32772	32820	
1921	0	32806	32752	
1922	0	32872	32714	
1923	0	32792	32766	
1924	0	32856	32638	
1925	0	32848	32726	
1926	0	32764	32764	
1927	0	32734	32768	
1928	0	32836	32722	
1929	0	32804	32732	
1930	0	32796	32727	
1931	0	32860	32828	
1932	0	32864	32706	
1933	0	32796	32775	
1934	0	32856	32840	
1935	0	32804	32728	
1936	0	32848	32775	
1937	0	32828	32801	
1938	0	32849	32718	
1939	0	32848	32903	
1940	0	32810	32828	
1941	0	32848	32804	
1942	0	32848	32742	
1943	0	32824	32800	
1944	0	32788	32664	
1945	0	32736	32806	
1946	0	32782	32775	
1947	0	32796	32622	
1948	0	32768	32705	
1949	0	32748	32632	
1950	0	32676	32720	
1951	0	32704	32734	
1952	0	32676	32551	
1953	0	32738	32647	
1954	0	32736	32582	
1955	0	32772	32618	
1956	0	32812	32574	
1957	0	32784	32707	
1958	0	32740	32598	
1959	0	32748	32638	
1960	0	32689	32578	
1961	0	32780	32786	
1962	0	32744	32644	
1963	0	32816	32703	
1964	0	32862	32768	
1965	0	32846	32732	
1966	0	32832	32718	
1967	0	32890	32720	
1968	0	32900	32702	
1969	0	32960	32666	
1970	0	33034	32848	
1971	0	33076	32938	
1972	0	33140	33131	
1973	0	33124	33311	
1974	0	33168	33298	
1975	0	33096	33262	
1976	0	33114	33208	
1977	0	33000	33172	
1978	0	32942	33041	
1979	0	32828	33095	
1980	0	32752	32959	
1981	0	32752	32900	
1982	0	32746	32740	
1983	0	32732	32698	
1984	0	32676	32604	
1985	0	32684	32564	
1986	0	32708	32575	
1987	0	32688	32491	
1988	0	32732	32598	
1989	0	32704	32518	
1990	0	32772	32614	
1991	0	32720	32565	
1992	0	32716	32556	
1993	0	32724	32588	
1994	0	32744	32636	
1995	0	32720	32628	
1996	0	32760	32764	
1997	0	32796	32680	
1998	0	32764	32775	
1999	0	32775	32752	
2000	0	32776	32870	
2001	0	32804	32800	
2002	0	32738	32770	
2003	0	32738	32814	
2004	0	32848	32728	
2005	0	32780	32866	
2006	0	32788	32766	
2007	0	32798	32740	
2008	0	32816	32745	
2009	0	32780	32616	
2010	0	32864	32816	
2011	0	32821	32736	
2012	0	32839	32916	
2013	0	32856	32838	
2014	0	32832	32698	
2015	0	32880	32884	
2016	0	32864	32660	
2017	0	32788	32718	
2018	0	32816	32652	
2019	0	32770	32696	
2020	0	32792	32647	
2021	0	32862	32758	
2022	0	32840	32770	
2023	0	32868	32756	
2024	0	32794	32789	
2025	0	32816	32736	
2026	0	32838	32775	
2027	0	32748	32654	
2028	0	32740	32772	
2029	0	32800	32775	
2030	0	32770	32804	
2031	0	32806	32815	
2032	0	32804	32775	
2033	0	32775	32775	
2034	0	32834	32670	
2035	0	32804	32768	
2036	0	32876	32810	
2037	0	32800	32820	
2038	0	32882	32807	
2039	0	32808	32896	
2040	0	32892	32735	
2041	0	32828	32720	
2042	0	32828	32796	
2043	0	32850	32742	
2044	0	32794	32798	
2045	0	32810	32804	
2046	0	32760	32706	
2047	0	32804	32769	
2048	0	32780	32775	
2049	0	32832	32758	
2050	0	32764	32692	
2051	0	32788	32734	
2052	0	32820	32846	
2053	0	32836	32732	
2054	0	32832	32771	
2055	0	32792	32738	
2056	0	32744	32812	
2057	0	32840	32802	
2058	0	32808	32843	
2059	0	32792	32752	
2060	0	32784	32668	
2061	0	32800	32748	
2062	0	32837	32737	
2063	0	32904	32768	
2064	0	32864	32706	
2065	0	32836	32666	
2066	0	32824	32692	
2067	0	32760	32744	
2068	0	32756	32712	
2069	0	32828	32742	
2070	0	32742	32672	
2071	0	32770	32786	
2072	0	32756	32739	
2073	0	32843	32832	
2074	0	32744	32855	
2075	0	32874	32880	
2076	0	32788	32887	
2077	0	32785	32854	
2078	0	32796	32822	
2079	0	32788	32680	
2080	0	32892	32760	
2081	0	32820	32709	
2082	0	32926	32830	
2083	0	32900	32640	
2084	0	32900	32774	
2085	0	32760	32764	
2086	0	32830	32802	
2087	0	32836	32773	
2088	0	32776	32762	
2089	0	32796	32740	
2090	0	32828	32665	
2091	0	32760	32734	
2092	0	32780	32692	
2093	0	32772	32792	
2094	0	32804	32678	
2095	0	32860	32746	
2096	0	32762	32768	
2097	0	32760	32802	
2098	0	32740	32824	
2099	0	32804	32879	
2100	0	32768	32812	
2101	0	32796	32790	
2102	0	32828	32804	
2103	0	32818	32850	
2104	0	32832	32773	
2105	0	32820	32790	
2106	0	32816	32775	
2107	0	32820	32749	
2108	0	32880	32802	
2109	0	32780	32699	
2110	0	32828	32766	
2111	0	32824	32676	
2112	0	32820	32796	
2113	0	32846	32622	
2114	0	32778	32799	
2115	0	32784	32848	
2116	0	32824	32732	
2117	0	32747	32756	
2118	0	32868	32748	
2119	0	32848	32704	
2120	0	32810	32722	
2121	0	32810	32775	
2122	0	32728	32828	
2123	0	32816	32833	
2124	0	32852	32775	
2125	0	32822	32796	
2126	0	32816	32767	
2127	0	32868	32806	
2128	0	32824	32838	
2129	0	32816	32692	
2130	0	32750	32775	
2131	0	32788	32775	
2132	0	32836	32832	
2133	0	32700	32666	
2134	0	32824	32792	
2135	0	32752	32775	
2136	0	32788	32702	
2137	0	32796	32832	
2138	0	32816	32775	
2139	0	32770	32753	
2140	0	32746	32810	
2141	0	32844	32775	
2142	0	32736	32711	
2143	0	32841	32824	
2144	0	32852	32775	
2145	0	32806	32716	
2146	0	32784	32758	
2147	0	32782	32726	
2148	0	32836	32788	
2149	0	32896	32788	
2150	0	32842	32704	
2151	0	32878	32654	
2152	0	32828	32732	
2153	0	32828	32700	
2154	0	32820	32700	
2155	0	32802	32740	
2156	0	32900	32860	
2157	0	32868	32762	
2158	0	32800	32800	
2159	0	32774	32710	
2160	0	32840	32742	
2161	0	32684	32796	
2162	0	32776	32775	
2163	0	32754	32740	
2164	0	32800	32798	
2165	0	32812	32784	
2166	0	32828	32820	
2167	0	32860	32806	
2168	0	32836	32748	
2169	0	32808	32892	
2170	0	32826	32798	
2171	0	32764	32763	
2172	0	32821	32728	
2173	0	32832	32783	
2174	0	32812	32848	
2175	0	32886	32751	
2176	0	32838	32712	
2177	0	32848	32762	
2178	0	32764	32692	
2179	0	32794	32815	
2180	0	32820	32772	
2181	0	32836	32790	
2182	0	32788	32722	
2183	0	32788	32678	
2184	0	32884	32846	
2185	0	32842	32714	
2186	0	32824	32786	
2187	0	32826	32702	
2188	0	32778	32775	
2189	0	32774	32844	
2190	0	32824	32670	
2191	0	32778	32804	
2192	0	32920	32775	
2193	0	32857	32784	
2194	0	32860	32810	
2195	0	32853	32646	
2196	0	32870	32798	
2197	0	32812	32796	
2198	0	32824	32714	
2199	0	32860	32796	
2200	0	32832	32788	
2201	0	32780	32775	
2202	0	32824	32756	
2203	0	32790	32869	
2204	0	32774	32802	
2205	0	32728	32660	
2206	0	32812	32834	
2207	0	32840	32834	
2208	0	32824	32714	
2209	0	32768	32748	
2210	0	32910	32810	
2211	0	32820	32732	
2212	0	32832	32770	
2213	0	32884	32678	
2214	0	32864	32800	
2215	0	32820	32820	
2216	0	32832	32740	
2217	0	32804	32768	
2218	0	32840	32742	
2219	0	32781	32791	
2220	0	32792	32712	
2221	0	32770	32748	
2222	0	32805	32732	
2223	0	32834	32788	
2224	0	32752	32838	
2225	0	32732	32798	
2226	0	32800	32804	
2227	0	32848	32700	
2228	0	32840	32886	
2229	0	32878	32708	
2230	0	32804	32764	
2231	0	32832	32711	
2232	0	32792	32807	
2233	0	32816	32790	
2234	0	32800	32846	
2235	0	32784	32736	
2236	0	32844	32744	
2237	0	32804	32763	
2238	0	32812	32742	
2239	0	32804	32884	
2240	0	32770	32818	
2241	0	32758	32722	
2242	0	32748	32763	
2243	0	32810	32728	
2244	0	32804	32798	
2245	0	32786	32830	
2246	0	32796	32711	
2247	0	32794	32798	
2248	0	32828	32766	
2249	0	32849	32791	
2250	0	32864	32852	
2251	0	32838	32692	
2252	0	32792	32770	
2253	0	32802	32790	
2254	0	32768	32879	
2255	0	32822	32744	
2256	0	32860	32618	
2257	0	32847	32710	
2258	0	32836	32839	
2259	0	32820	32678	
2260	0	32870	32756	
2261	0	32868	32812	
2262	0	32812	32694	
2263	0	32900	32856	
2264	0	32816	32852	
2265	0	32810	32729	
2266	0	32744	32810	
2267	0	32778	32752	
2268	0	32716	32676	
2269	0	32804	32842	
2270	0	32808	32775	
2271	0	32849	32692	
2272	0	32828	32774	
2273	0	32860	32724	
2274	0	32772	32837	
2275	0	32816	32720	
2276	0	32802	32828	
2277	0	32780	32870	
2278	0	32800	32679	
2279	0	32808	32764	
2280	0	32852	32828	
2281	0	32838	32786	
2282	0	32776	32844	
2283	0	32836	32796	
2284	0	32830	32704	
2285	0	32788	32746	
2286	0	32748	32678	
2287	0	32828	32770	
2288	0	32740	32714	
2289	0	32808	32828	
2290	0	32780	32809	
2291	0	32812	32704	
2292	0	32862	32770	
2293	0	32774	32788	
2294	0	32804	32847	
2295	0	32814	32855	
2296	0	32865	32726	
2297	0	32776	32791	
2298	0	32804	32839	
2299	0	32782	32852	
2300	0	32856	32902	
2301	0	32792	32676	
2302	0	32744	32788	
2303	0	32848	32680	
2304	0	32792	32804	
2305	0	32768	32788	
2306	0	32808	32775	
2307	0	32767	32775	
2308	0	32842	32746	
2309	0	32824	32754	
2310	0	32844	32775	
2311	0	32800	32760	
2312	0	32838	32788	
2313	0	32844	32646	
2314	0	32824	32775	
2315	0	32856	32722	
2316	0	32836	32660	
2317	0	32816	32750	
2318	0	32840	32759	
2319	0	32856	32726	
2320	0	32776	32807	
2321	0	32816	32893	
2322	0	32868	32775	
2323	0	32788	32865	
2324	0	32752	32750	
2325	0	32781	32775	
2326	0	32756	32858	
2327	0	32712	32728	
2328	0	32776	32795	
2329	0	32816	32642	
2330	0	32844	32718	
2331	0	32870	32816	
2332	0	32852	32706	
2333	0	32744	32806	
2334	0	32768	32682	
2335	0	32817	32788	
2336	0	32824	32811	
2337	0	32876	32760	
2338	0	32856	32801	
2339	0	32832	32671	
2340	0	32868	32838	
2341	0	32800	32802	
2342	0	32800	32816	
2343	0	32792	32895	
2344	0	32852	32745	
2345	0	32840	32725	
2346	0	32900	32714	
2347	0	32830	32808	
2348	0	32852	32768	
2349	0	32764	32816	
2350	0	32810	32836	
2351	0	32836	32730	
2352	0	32800	32766	
2353	0	32846	32660	
2354	0	32742	32767	
2355	0	32774	32692	
2356	0	32756	32871	
2357	0	32828	32775	
2358	0	32814	32644	
2359	0	32822	32804	
2360	0	32822	32746	
2361	0	32848	32836	
2362	0	32764	32852	
2363	0	32788	32742	
2364	0	32760	32718	
2365	0	32792	32742	
2366	0	32804	32774	
2367	0	32778	32772	
2368	0	32912	32724	
2369	0	32840	32840	
2370	0	32856	32788	
2371	0	32834	32730	
2372	0	32760	32810	
2373	0	32824	32737	
2374	0	32828	32704	
2375	0	32820	32774	
2376	0	32788	32671	
2377	0	32760	32775	
2378	0	32848	32868	
2379	0	32852	32830	
2380	0	32760	32892	
2381	0	32784	32666	
2382	0	32820	32796	
2383	0	32742	32774	
2384	0	32816	32860	
2385	0	32854	32775	
2386	0	32884	32738	
2387	0	32830	32770	
2388	0	32816	32738	
2389	0	32852	32790	
2390	0	32808	32720	
2391	0	32834	32714	
2392	0	32822	32750	
2393	0	32824	32738	
2394	0	32812	32775	
2395	0	32772	32751	
2396	0	32764	32704	
2397	0	32824	32757	
2398	0	32774	32673	
2399	0	32816	32792	
2400	0	32782	32786	
2401	0	32776	32820	
2402	0	32696	32807	
2403	0	32760	32771	
2404	0	32770	32734	
2405	0	32774	32680	
2406	0	32804	32736	
2407	0	32828	32762	
2408	0	32838	32832	
2409	0	32818	32800	
2410	0	32780	32740	
2411	0	32840	32858	
2412	0	32836	32874	
2413	0	32808	32720	
2414	0	32852	32798	
2415	0	32858	32732	
2416	0	32789	32816	
2417	0	32868	32766	
2418	0	32840	32732	
2419	0	32800	32790	
2420	0	32848	32743	
2421	0	32872	32772	
2422	0	32912	32790	
2423	0	32850	32655	
2424	0	32748	32748	
2425	0	32872	32686	
2426	0	32796	32734	
2427	0	32724	32741	
2428	0	32752	32898	
2429	0	32768	32792	
2430	0	32844	32766	
2431	0	32784	32704	
2432	0	32752	32718	
2433	0	32820	32775	
2434	0	32848	32700	
2435	0	32864	32794	
2436	0	32812	32768	
2437	0	32816	32698	
2438	0	32876	32740	
2439	0	32836	32738	
2440	0	32848	32838	
2441	0	32820	32850	
2442	0	32868	32754	
2443	0	32870	32836	
2444	0	32856	32775	
2445	0	32832	32714	
2446	0	32864	32742	
2447	0	32850	32679	
2448	0	32812	32864	
2449	0	32766	32788	
2450	0	32904	32742	
2451	0	32772	32846	
2452	0	32808	32807	
2453	0	32772	32736	
2454	0	32786	32746	
2455	0	32744	32807	
2456	0	32760	32678	
2457	0	32832	32775	
2458	0	32852	32816	
2459	0	32780	32655	
2460	0	32794	32759	
2461	0	32788	32748	
2462	0	32748	32842	
2463	0	32760	32793	
2464	0	32736	32703	
2465	0	32784	32766	
2466	0	32790	32740	
2467	0	32804	32876	
2468	0	32774	32826	
2469	0	32910	32684	
2470	0	32964	32821	
2471	0	32962	32801	
2472	0	32873	32817	
2473	0	32864	32766	
2474	0	32808	32636	
2475	0	32720	32870	
2476	0	32752	32858	
2477	0	32810	32647	
2478	0	32750	32696	
2479	0	32725	32718	
2480	0	32720	32720	
2481	0	32796	32775	
2482	0	32772	32686	
2483	0	32834	32775	
2484	0	32828	32688	
2485	0	32814	32817	
2486	0	32845	32686	
2487	0	32832	32758	
2488	0	32812	32742	
2489	0	32860	32654	
2490	0	32912	32808	
2491	0	32914	32762	
2492	0	32868	32818	
2493	0	32876	32702	
2494	0	32822	32746	
2495	0	32828	32791	
2496	0	32796	32820	
2497	0	32794	32792	
2498	0	32776	32770	
2499	0	32780	32823	
2500	0	32704	32800	
2501	0	32772	32814	
2502	0	32740	32719	
2503	0	32732	32636	
2504	0	32728	32714	
2505	0	32764	32868	
2506	0	32698	32746	
2507	0	32784	32808	
2508	0	32816	32792	
2509	0	32804	32676	
2510	0	32845	32750	
2511	0	32854	32748	
2512	0	32846	32888	
2513	0	32868	32772	
2514	0	32864	32709	
2515	0	32844	32831	
2516	0	32878	32806	
2517	0	32826	32854	
2518	0	32868	32748	
2519	0	32826	32726	
2520	0	32856	32900	
2521	0	32784	32714	
2522	0	32808	32894	
2523	0	32806	32775	
2524	0	32868	32638	
2525	0	32858	32732	
2526	0	32852	32764	
2527	0	32796	32775	
2528	0	32892	32712	
2529	0	32836	32800	
2530	0	32772	32754	
2531	0	32804	32758	
2532	0	32812	32702	
2533	0	32830	32884	
2534	0	32832	32770	
2535	0	32784	32652	
2536	0	32828	32814	
2537	0	32806	32746	
2538	0	32816	32820	
2539	0	32836	32804	
2540	0	32804	32724	
2541	0	32828	32774	
2542	0	32792	32714	
2543	0	32838	32704	
2544	0	32812	32899	
2545	0	32815	32766	
2546	0	32882	32730	
2547	0	32832	32630	
2548	0	32830	32762	
2549	0	32846	32784	
2550	0	32802	32775	
2551	0	32844	32770	
2552	0	32852	32736	
2553	0	32824	32775	
2554	0	32792	32758	
2555	0	32804	32814	
2556	0	32868	32792	
2557	0	32865	32828	
2558	0	32812	32879	
2559	0	32740	32692	
2560	0	32760	32826	
2561	0	32740	32756	
2562	0	32794	32848	
2563	0	32748	32618	
2564	0	32768	32668	
2565	0	32792	32756	
2566	0	32764	32878	
2567	0	32810	32730	
2568	0	32800	32684	
2569	0	32797	32786	
2570	0	32808	32868	
2571	0	32780	32794	
2572	0	32874	32668	
2573	0	32808	32716	
2574	0	32868	32844	
2575	0	32824	32774	
2576	0	32840	32732	
2577	0	32806	32714	
2578	0	32840	32788	
2579	0	32804	32775	
2580	0	32828	32814	
2581	0	32804	32743	
2582	0	32790	32810	
2583	0	32884	32850	
2584	0	32908	32628	
2585	0	32828	32839	
2586	0	32836	32772	
2587	0	32840	32775	
2588	0	32848	32826	
2589	0	32812	32711	
2590	0	32804	32819	
2591	0	32800	32760	
2592	0	32852	32762	
2593	0	32800	32694	
2594	0	32768	32774	
2595	0	32826	32820	
2596	0	32782	32744	
2597	0	32808	32785	
2598	0	32736	32764	
2599	0	32718	32656	
2600	0	32817	32728	
2601	0	32780	32748	
2602	0	32792	32803	
2603	0	32816	32712	
2604	0	32848	32775	
2605	0	32832	32785	
2606	0	32806	32736	
2607	0	32858	32743	
2608	0	32752	32788	
2609	0	32846	32842	
2610	0	32824	32700	
2611	0	32828	32842	
2612	0	32818	32822	
2613	0	32702	32694	
2614	0	32780	32818	
2615	0	32704	32816	
2616	0	32796	32698	
2617	0	32756	32799	
2618	0	32824	32862	
2619	0	32848	32789	
2620	0	32806	32812	
2621	0	32844	32793	
2622	0	32904	32816	
2623	0	32860	32820	
2624	0	32846	32686	
2625	0	32816	32752	
2626	0	32848	32797	
2627	0	32764	32674	
2628	0	32760	32686	
2629	0	32716	32615	
2630	0	32784	32711	
2631	0	32740	32585	
2632	0	32766	32647	
2633	0	32776	32694	
2634	0	32728	32634	
2635	0	32688	32678	
2636	0	32718	32590	
2637	0	32752	32662	
2638	0	32692	32700	
2639	0	32644	32647	
2640	0	32724	32550	
2641	0	32688	32702	
2642	0	32736	32703	
2643	0	32826	32644	
2644	0	32872	32816	
2645	0	32772	32732	
2646	0	32884	32748	
2647	0	32830	32631	
2648	0	32860	32756	
2649	0	32836	32598	
2650	0	32896	32732	
2651	0	33084	32738	
2652	0	33096	33018	
2653	0	33120	32997	
2654	0	33162	33124	
2655	0	33188	33111	
2656	0	33064	33317	
2657	0	33016	33344	
2658	0	32984	33146	
2659	0	32896	33168	
2660	0	32887	33120	
2661	0	32856	32978	
2662	0	32872	32900	
2663	0	32808	32916	
2664	0	32684	32727	
2665	0	32722	32489	
2666	0	32666	32622	
2667	0	32688	32604	
2668	0	32664	32478	
2669	0	32678	32596	
2670	0	32696	32604	
2671	0	32660	32580	
2672	0	32740	32612	
2673	0	32698	32654	
2674	0	32688	32657	
2675	0	32726	32660	
2676	0	32710	32788	
2677	0	32720	32804	
2678	0	32706	32692	
2679	0	32656	32748	
2680	0	32720	32746	
2681	0	32776	32722	
2682	0	32824	32654	
2683	0	32906	32756	
2684	0	32864	32711	
2685	0	32864	32708	
2686	0	32814	32738	
2687	0	32786	32732	
2688	0	32836	32804	
2689	0	32912	32688	
2690	0	32984	32900	
2691	0	32868	32732	
2692	0	32944	32832	
2693	0	32876	32714	
2694	0	32832	32766	
2695	0	32852	32768	
2696	0	32730	32770	
2697	0	32832	32730	
2698	0	32758	32829	
2699	0	32762	32756	
2700	0	32822	32742	
2701	0	32862	32896	
2702	0	32812	32762	
2703	0	32830	32719	
2704	0	32828	32828	
2705	0	32800	32732	
2706	0	32776	32730	
2707	0	32742	32806	
2708	0	32744	32710	
2709	0	32804	32728	
2710	0	32836	32710	
2711	0	32732	32687	
2712	0	32864	32629	
2713	0	32820	32774	
2714	0	32846	32743	
2715	0	32904	32798	
2716	0	32878	32688	
2717	0	32840	32758	
2718	0	32788	32812	
2719	0	32844	32734	
2720	0	32820	32824	
2721	0	32800	32748	
2722	0	32772	32738	
2723	0	32790	32852	
2724	0	32822	32772	
2725	0	32868	32711	
2726	0	32846	32828	
2727	0	32812	32772	
2728	0	32772	32788	
2729	0	32822	32692	
2730	0	32744	32774	
2731	0	32804	32760	
2732	0	32788	32686	
2733	0	32814	32764	
2734	0	32772	32871	
2735	0	32764	32727	
2736	0	32804	32830	
2737	0	32832	32806	
2738	0	32826	32872	
2739	0	32916	32770	
2740	0	32860	32806	
2741	0	32756	32798	
2742	0	32828	32718	
2743	0	32760	32775	
2744	0	32772	32722	
2745	0	32774	32713	
2746	0	32768	32642	
2747	0	32792	32689	
2748	0	32744	32836	
2749	0	32768	32647	
2750	0	32762	32838	
2751	0	32764	32834	
2752	0	32808	32716	
2753	0	32810	32810	
2754	0	32740	32874	
2755	0	32820	32663	
2756	0	32820	32871	
2757	0	32880	32732	
2758	0	32906	32784	
2759	0	32854	32686	
2760	0	32868	32751	
2761	0	32880	32796	
2762	0	32892	32740	
2763	0	32756	32804	
2764	0	32796	32767	
2765	0	32808	32724	
2766	0	32778	32726	
2767	0	32828	32796	
2768	0	32832	32775	
2769	0	32778	32818	
2770	0	32790	32839	
2771	0	32792	32754	
2772	0	32838	32817	
2773	0	32758	32760	
2774	0	32804	32708	
2775	0	32826	32822	
2776	0	32804	32768	
2777	0	32760	32708	
2778	0	32762	32808	
2779	0	32808	32746	
2780	0	32832	32730	
2781	0	32828	32802	
2782	0	32844	32806	
2783	0	32832	32640	
2784	0	32830	32799	
2785	0	32854	32804	
2786	0	32884	32758	
2787	0	32812	32710	
2788	0	32860	32768	
2789	0	32862	32708	
2790	0	32784	32775	
2791	0	32752	32888	
2792	0	32808	32710	
2793	0	32806	32806	
2794	0	32716	32831	
2795	0	32740	32730	
2796	0	32736	32804	
2797	0	32732	32802	
2798	0	32854	32679	
2799	0	32804	32796	
2800	0	32808	32798	
2801	0	32850	32694	
2802	0	32848	32810	
2803	0	32880	32750	
2804	0	32896	32751	
2805	0	32812	32826	
2806	0	32744	32680	
2807	0	32780	32794	
2808	0	32808	32620	
2809	0	32784	32802	
2810	0	32858	32800	
2811	0	32852	32789	
2812	0	32824	32825	
2813	0	32868	32790	
2814	0	32812	32861	
2815	0	32766	32698	
2816	0	32720	32725	
2817	0	32820	32832	
2818	0	32792	32647	
2819	0	32860	32748	
2820	0	32760	32742	
2821	0	32832	32810	
2822	0	32768	32751	
2823	0	32816	32876	
2824	0	32821	32808	
2825	0	32854	32704	
2826	0	32840	32788	
2827	0	32860	32802	
2828	0	32834	32704	
2829	0	32856	32722	
2830	0	32814	32718	
2831	0	32810	32766	
2832	0	32796	32788	
2833	0	32806	32724	
2834	0	32808	32800	
2835	0	32836	32796	
2836	0	32778	32694	
2837	0	32814	32824	
2838	0	32820	32788	
2839	0	32832	32796	
2840	0	32752	32740	
2841	0	32736	32770	
2842	0	32796	32775	
2843	0	32808	32692	
2844	0	32780	32759	
2845	0	32852	32828	
2846	0	32801	32700	
2847	0	32876	32814	
2848	0	32868	32814	
2849	0	32866	32660	
2850	0	32885	32761	
2851	0	32832	32756	
2852	0	32768	32699	
2853	0	32764	32820	
2854	0	32826	32848	
2855	0	32828	32714	
2856	0	32876	32828	
2857	0	32804	32816	
2858	0	32817	32662	
2859	0	32788	32790	
2860	0	32784	32850	
2861	0	32868	32775	
2862	0	32788	32695	
2863	0	32876	32740	
2864	0	32864	32722	
2865	0	32844	32754	
2866	0	32788	32791	
2867	0	32844	32898	
2868	0	32808	32707	
2869	0	32794	32726	
2870	0	32836	32840	
2871	0	32848	32716	
2872	0	32798	32772	
2873	0	32775	32725	
2874	0	32752	32757	
2875	0	32872	32730	
2876	0	32750	32804	
2877	0	32778	32696	
2878	0	32744	32836	
2879	0	32784	32788	
2880	0	32808	32638	
2881	0	32862	32780	
2882	0	32852	32676	
2883	0	32840	32680	
2884	0	32832	32862	
2885	0	32816	32764	
2886	0	32860	32708	
2887	0	32856	32862	
2888	0	32796	32775	
2889	0	32800	32682	
2890	0	32752	32847	
2891	0	32764	32824	
2892	0	32804	32743	
2893	0	32775	32742	
2894	0	32816	32764	
2895	0	32816	32842	
2896	0	32792	32756	
2897	0	32828	32820	
2898	0	32736	32766	
2899	0	32760	32736	
2900	0	32834	32712	
2901	0	32816	32748	
2902	0	32858	32720	
2903	0	32936	32702	
2904	0	32853	32740	
2905	0	32836	32768	
2906	0	32920	32762	
2907	0	32828	32871	
2908	0	32848	32751	
2909	0	32798	32858	
2910	0	32836	32760	
2911	0	32812	32818	
2912	0	32762	32746	
2913	0	32756	32804	
2914	0	32768	32669	
2915	0	32952	32784	
2916	0	32844	32719	
2917	0	32802	32738	
2918	0	32772	32686	
2919	0	32804	32718	
2920	0	32804	32666	
2921	0	32820	32804	
2922	0	32728	32775	
2923	0	32816	32800	
2924	0	32808	32674	
2925	0	32812	32732	
2926	0	32852	32774	
2927	0	32782	32652	
2928	0	32864	32721	
2929	0	32830	32810	
2930	0	32832	32680	
2931	0	32808	32790	
2932	0	32796	32754	
2933	0	32784	32730	
2934	0	32768	32761	
2935	0	32742	32728	
2936	0	32820	32730	
2937	0	32760	32858	
2938	0	32828	32856	
2939	0	32818	32839	
2940	0	32808	32792	
2941	0	32828	32742	
2942	0	32812	32816	
2943	0	32812	32750	
2944	0	32792	32706	
2945	0	32778	32706	
2946	0	32778	32825	
2947	0	32840	32678	
2948	0	32850	32848	
2949	0	32834	32748	
2950	0	32856	32775	
2951	0	32856	32748	
2952	0	32788	32836	
2953	0	32788	32807	
2954	0	32820	32784	
2955	0	32784	32775	
2956	0	32870	32732	
2957	0	32824	32819	
2958	0	32858	32736	
2959	0	32816	32703	
2960	0	32760	32748	
2961	0	32744	32858	
2962	0	32812	32732	
2963	0	32800	32737	
2964	0	32768	32751	
2965	0	32776	32935	
2966	0	32806	32775	
2967	0	32824	32706	
2968	0	32848	32700	
2969	0	32818	32794	
2970	0	32796	32796	
2971	0	32784	32774	
2972	0	32802	32708	
2973	0	32752	32780	
2974	0	32754	32768	
2975	0	32792	32760	
2976	0	32816	32760	
2977	0	32806	32814	
2978	0	32864	32684	
2979	0	32792	32772	
2980	0	32864	32871	
2981	0	32844	32756	
2982	0	32856	32766	
2983	0	32856	32828	
2984	0	32828	32672	
2985	0	32768	32804	
2986	0	32860	32834	
2987	0	32838	32718	
2988	0	32868	32734	
2989	0	32832	32702	
2990	0	32846	32740	
2991	0	32836	32766	
2992	0	32838	32694	
2993	0	32800	32769	
2994	0	32784	32842	
2995	0	32724	32714	
2996	0	32712	32774	
2997	0	32748	32702	
2998	0	32772	32768	
2999	0	32840	32804	
3000	0	32900	32712	
3001	0	32836	32810	
3002	0	32890	32770	
3003	0	32856	32676	
3004	0	32816	32775	
3005	0	32800	32818	
3006	0	32848	32756	
3007	0	32814	32775	
3008	0	32864	32806	
3009	0	32868	32870	
3010	0	32836	32872	
3011	0	32700	32679	
3012	0	32662	32821	
3013	0	32786	32784	
3014	0	32744	32743	
3015	0	32658	32734	
3016	0	32676	32718	
3017	0	32738	32792	
3018	0	32810	32744	
3019	0	32884	32744	
3020	0	32862	32775	
3021	0	32790	32798	
3022	0	32820	32647	
3023	0	32964	32774	
3024	0	32888	32818	
3025	0	32864	32740	
3026	0	32940	32804	
3027	0	32862	32836	
3028	0	32844	32773	
3029	0	32738	32772	
3030	0	32852	32775	
3031	0	32890	32768	
3032	0	32826	32774	
3033	0	32860	32708	
3034	0	32852	32775	
3035	0	32848	32748	
3036	0	32766	32726	
3037	0	32864	32775	
3038	0	32788	32838	
3039	0	32832	32740	
3040	0	32778	32752	
3041	0	32812	32766	
3042	0	32784	32738	
3043	0	32758	32796	
3044	0	32764	32642	
3045	0	32784	32775	
3046	0	32762	32816	
3047	0	32804	32750	
3048	0	32754	32660	
3049	0	32772	32714	
3050	0	32734	32672	
3051	0	32780	32832	
3052	0	32776	32788	
3053	0	32784	32750	
3054	0	32809	32819	
3055	0	32830	32766	
3056	0	32858	32760	
3057	0	32804	32858	
3058	0	32904	32762	
3059	0	32824	32758	
3060	0	32816	32756	
3061	0	32804	32764	
3062	0	32808	32746	
3063	0	32834	32732	
3064	0	32836	32755	
3065	0	32868	32806	
3066	0	32836	32710	
3067	0	32812	32775	
3068	0	32816	32770	
3069	0	32756	32704	
3070	0	32800	32810	
3071	0	32768	32726	
3072	0	32798	32785	
3073	0	32810	32743	
3074	0	32808	32802	
3075	0	32781	32932	
3076	0	32808	32682	
3077	0	32818	32823	
3078	0	32788	32830	
3079	0	32808	32653	
3080	0	32816	32811	
3081	0	32772	32788	
3082	0	32772	32672	
3083	0	32816	32809	
3084	0	32724	32828	
3085	0	32752	32679	
3086	0	32856	32832	
3087	0	32864	32751	
3088	0	32832	32668	
3089	0	32768	32784	
3090	0	32768	32764	
3091	0	32768	32720	
3092	0	32836	32789	
3093	0	32888	32752	
3094	0	32848	32692	
3095	0	32814	32793	
3096	0	32804	32719	
3097	0	32816	32676	
3098	0	32832	32762	
3099	0	32800	32750	
3100	0	32868	32775	
3101	0	32828	32732	
3102	0	32782	32756	
3103	0	32802	32764	
3104	0	32817	32758	
3105	0	32894	32775	
3106	0	32846	32750	
3107	0	32860	32806	
3108	0	32836	32724	
3109	0	32817	32739	
3110	0	32804	32724	
3111	0	32740	32868	
3112	0	32784	32655	
3113	0	32817	32724	
3114	0	32880	32718	
3115	0	32860	32753	
3116	0	32872	32729	
3117	0	32814	32664	
3118	0	32794	32807	
3119	0	32808	32807	
3120	0	32744	32908	
3121	0	32706	32848	
3122	0	32824	32870	
3123	0	32774	32760	
3124	0	32864	32775	
3125	0	32836	32775	
3126	0	32800	32789	
3127	0	32880	32722	
3128	0	32844	32710	
3129	0	32890	32705	
3130	0	32886	32894	
3131	0	32840	32714	
3132	0	32800	32832	
3133	0	32828	32772	
3134	0	32730	32694	
3135	0	32768	32748	
3136	0	32808	32756	
3137	0	32772	32775	
3138	0	32788	32720	
3139	0	32744	32870	
3140	0	32720	32762	
3141	0	32810	32710	
3142	0	32840	32743	
3143	0	32800	32908	
3144	0	32784	32873	
3145	0	32900	32740	
3146	0	32908	32734	
3147	0	32708	32839	
3148	0	32804	32713	
3149	0	32774	32818	
3150	0	32820	32712	
3151	0	32886	32762	
3152	0	32842	32764	
3153	0	32826	32748	
3154	0	32878	32681	
3155	0	32822	32828	
3156	0	32856	32686	
3157	0	32872	32616	
3158	0	32752	32674	
3159	0	32704	32788	
3160	0	32780	32884	
3161	0	32748	32844	
3162	0	32764	32702	
3163	0	32820	32743	
3164	0	32734	32711	
3165	0	32856	32839	
3166	0	32804	32903	
3167	0	32748	32760	
3168	0	32820	32935	
3169	0	32824	32864	
3170	0	32816	32735	
3171	0	32776	32844	
3172	0	32818	32735	
3173	0	32797	32590	
3174	0	32876	32770	
3175	0	32888	32802	
3176	0	32904	32682	
3177	0	32884	32788	
3178	0	32834	32756	
3179	0	32760	32702	
3180	0	32816	32760	
3181	0	32772	32813	
3182	0	32800	32775	
3183	0	32864	32718	
3184	0	32856	32807	
3185	0	32836	32762	
3186	0	32826	32820	
3187	0	32788	32700	
3188	0	32804	32799	
3189	0	32818	32812	
3190	0	32842	32632	
3191	0	32776	32766	
3192	0	32764	32700	
3193	0	32784	32753	
3194	0	32860	32798	
3195	0	32868	32678	
3196	0	32762	32647	
3197	0	32756	32852	
3198	0	32748	32775	
3199	0	32838	32722	
3200	0	32792	32810	
3201	0	32756	32820	
3202	0	32810	32884	
3203	0	32804	32820	
3204	0	32880	32744	
3205	0	32874	32750	
3206	0	32768	32825	
3207	0	32716	32844	
3208	0	32748	32736	
3209	0	32856	32807	
3210	0	32860	32794	
3211	0	32938	32822	
3212	0	32918	32876	
3213	0	32862	32790	
3214	0	32914	32719	
3215	0	32830	32775	
3216	0	32714	32830	
3217	0	32802	32615	
3218	0	32888	32730	
3219	0	32938	32743	
3220	0	32906	32708	
3221	0	32784	32822	
3222	0	32874	32712	
3223	0	32860	32688	
3224	0	32772	32678	
3225	0	32764	32764	
3226	0	32696	32844	
3227	0	32776	32698	
3228	0	32810	32870	
3229	0	32830	32772	
3230	0	32856	32852	
3231	0	32816	32820	
3232	0	32816	32856	
3233	0	32756	32858	
3234	0	32718	32774	
3235	0	32752	32850	
3236	0	32776	32726	
3237	0	32724	32766	
3238	0	32844	32758	
3239	0	32890	32748	
3240	0	32764	32740	
3241	0	32704	32696	
3242	0	32752	32706	
3243	0	32778	32678	
3244	0	32862	32644	
3245	0	32880	32850	
3246	0	32808	32773	
3247	0	32832	32734	
3248	0	32828	32667	
3249	0	32857	32814	
3250	0	32838	32816	
3251	0	32884	32748	
3252	0	32880	32832	
3253	0	32792	32759	
3254	0	32820	32572	
3255	0	32808	32880	
3256	0	32880	32751	
3257	0	32808	32694	
3258	0	32792	32830	
3259	0	32846	32916	
3260	0	32808	32698	
3261	0	32836	32912	
3262	0	32676	32824	
3263	0	32672	32884	
3264	0	32824	32756	
3265	0	32800	32843	
3266	0	32784	32836	
3267	0	32828	32738	
3268	0	32852	32817	
3269	0	32796	32718	
3270	0	32810	32764	
3271	0	32840	32704	
3272	0	32804	32808	
3273	0	32852	32766	
3274	0	32924	32796	
3275	0	32888	32660	
3276	0	32900	32774	
3277	0	32900	32816	
3278	0	32844	32660	
3279	0	32856	32844	
3280	0	32801	32879	
3281	0	32766	32798	
3282	0	32800	32810	
3283	0	32816	32816	
3284	0	32808	32678	
3285	0	32852	32822	
3286	0	32836	32748	
3287	0	32782	32748	
3288	0	32634	32800	
3289	0	32808	32760	
3290	0	32800	32796	
3291	0	32768	32676	
3292	0	32776	32766	
3293	0	32804	32790	
3294	0	32774	32930	
3295	0	32784	32872	
3296	0	32752	32736	
3297	0	32840	32854	
3298	0	32812	32714	
3299	0	32888	32792	
3300	0	32844	32743	
3301	0	32860	32718	
3302	0	32798	32706	
3303	0	32844	32679	
3304	0	32852	32770	
3305	0	32844	32598	
3306	0	32870	32802	
3307	0	32864	32807	
3308	0	32724	32736	
3309	0	32772	32844	
3310	0	32714	32658	
3311	0	32756	32812	
3312	0	32641	32822	
3313	0	32694	32674	
3314	0	32674	32760	
3315	0	32804	32713	
3316	0	32714	32548	
3317	0	32761	32644	
3318	0	32740	32696	
3319	0	32750	32625	
3320	0	32856	32680	
3321	0	32848	32652	
3322	0	32844	32728	
3323	0	32942	32650	
3324	0	32816	32642	
3325	0	32832	32734	
3326	0	32678	32726	
3327	0	32732	32605	
3328	0	32752	32638	
3329	0	32720	32756	
3330	0	32746	32767	
3331	0	32792	32664	
3332	0	32812	32647	
3333	0	32834	32660	
3334	0	32852	32692	
3335	0	32916	32735	
3336	0	33016	32880	
3337	0	33052	32852	
3338	0	33058	33018	
3339	0	33164	33050	
3340	0	33164	33278	
3341	0	33232	33344	
3342	0	33128	33166	
3343	0	33090	33102	
3344	0	33002	33180	
3345	0	32826	33058	
3346	0	32786	32916	
3347	0	32788	32999	
3348	0	32836	32800	
3349	0	32762	32748	
3350	0	32728	32567	
3351	0	32756	32624	
3352	0	32632	32679	
3353	0	32668	32544	
3354	0	32594	32673	
3355	0	32620	32640	
3356	0	32708	32492	
3357	0	32732	32631	
3358	0	32700	32712	
3359	0	32648	32608	
3360	0	32728	32674	
3361	0	32756	32710	
3362	0	32702	32872	
3363	0	32702	32672	
3364	0	32748	32628	
3365	0	32716	32734	
3366	0	32770	32764	
3367	0	32808	32724	
3368	0	32816	32852	
3369	0	32752	32814	
3370	0	32764	32763	
3371	0	32810	32760	
3372	0	32868	32775	
3373	0	32802	32698	
3374	0	32788	32726	
3375	0	32868	32800	
3376	0	32764	32644	
3377	0	32740	32664	
3378	0	32944	32716	
3379	0	33004	32647	
3380	0	32832	32790	
3381	0	32748	32750	
3382	0	32826	32758	
3383	0	32876	32812	
3384	0	32840	32830	
3385	0	32904	32702	
3386	0	32764	32730	
3387	0	32760	32888	
3388	0	32804	32759	
3389	0	32754	32830	
3390	0	32788	32922	
3391	0	32800	32744	
3392	0	32800	32834	
3393	0	32868	32835	
3394	0	32952	32678	
3395	0	32908	32724	
3396	0	32832	32775	
3397	0	32804	32732	
3398	0	32798	32616	
3399	0	32804	32800	
3400	0	32708	32774	
3401	0	32736	32716	
3402	0	32770	32743	
3403	0	32804	32704	
3404	0	32764	32728	
3405	0	32880	32750	
3406	0	32888	32892	
3407	0	32824	32870	
3408	0	32828	32852	
3409	0	32810	32735	
3410	0	32760	32660	
3411	0	32700	32775	
3412	0	32640	32850	
3413	0	32706	32764	
3414	0	32764	32784	
3415	0	32916	32740	
3416	0	32824	32740	
3417	0	32844	32788	
3418	0	32896	32758	
3419	0	32888	32630	
3420	0	32886	32804	
3421	0	32828	32752	
3422	0	32924	32711	
3423	0	32828	32816	
3424	0	32852	32892	
3425	0	32836	32732	
3426	0	32836	32790	
3427	0	32820	32891	
3428	0	32796	32720	
3429	0	32794	32750	
3430	0	32824	32804	
3431	0	32776	32690	
3432	0	32844	32746	
3433	0	32804	32714	
3434	0	32762	32678	
3435	0	32800	32760	
3436	0	32740	32831	
3437	0	32638	32775	
3438	0	32760	32847	
3439	0	32820	32746	
3440	0	32876	32802	
3441	0	32828	32756	
3442	0	32848	32673	
3443	0	32832	32774	
3444	0	32800	32847	
3445	0	32885	32712	
3446	0	32904	32796	
3447	0	32880	32596	
3448	0	32820	32658	
3449	0	32804	32658	
3450	0	32772	32648	
3451	0	32712	32775	
3452	0	32788	32678	
3453	0	32772	32838	
3454	0	32790	32863	
3455	0	32734	32694	
3456	0	32796	32806	
3457	0	32820	32671	
3458	0	32836	32760	
3459	0	32808	32806	
3460	0	32836	32832	
3461	0	32804	32816	
3462	0	32792	32692	
3463	0	32854	32839	
3464	0	32752	32804	
3465	0	32792	32816	
3466	0	32970	32822	
3467	0	32888	32805	
3468	0	32712	32830	
3469	0	32765	32800	
3470	0	32792	32802	
3471	0	32828	32804	
3472	0	32820	32804	
3473	0	32767	32878	
3474	0	32754	32772	
3475	0	32816	32792	
3476	0	32812	32660	
3477	0	32936	32784	
3478	0	32904	32694	
3479	0	32870	32772	
3480	0	32840	32804	
3481	0	32832	32818	
3482	0	32772	32708	
3483	0	32764	32674	
3484	0	32788	32706	
3485	0	32852	32738	
3486	0	32832	32718	
3487	0	32840	32650	
3488	0	32852	32702	
3489	0	32732	32728	
3490	0	32828	32824	
3491	0	32834	32886	
3492	0	32772	32898	
3493	0	32788	32844	
3494	0	32741	32636	
3495	0	32804	32764	
3496	0	32700	32754	
3497	0	32762	32820	
3498	0	32752	32766	
3499	0	32726	32758	
3500	0	32698	32711	
3501	0	32880	32742	
3502	0	32868	32734	
3503	0	32928	32694	
3504	0	32903	32858	
3505	0	32920	32928	
3506	0	32936	32730	
3507	0	32918	32775	
3508	0	32780	32775	
3509	0	32776	32633	
3510	0	32824	32806	
3511	0	32748	32775	
3512	0	32756	32711	
3513	0	32764	32810	
3514	0	32742	32788	
3515	0	32672	32578	
3516	0	32780	32866	
3517	0	32821	32920	
3518	0	32774	32702	
3519	0	32834	32775	
3520	0	32796	32769	
3521	0	32844	32839	
3522	0	32876	32750	
3523	0	32888	32791	
3524	0	32818	32748	
3525	0	32768	32647	
3526	0	32832	32803	
3527	0	32820	32720	
3528	0	32808	32748	
3529	0	32848	32807	
3530	0	32792	32756	
3531	0	32776	32710	
3532	0	32849	32762	
3533	0	32964	32766	
3534	0	32804	32810	
3535	0	32696	32799	
3536	0	32688	32684	
3537	0	32804	32775	
3538	0	32820	32717	
3539	0	32774	32670	
3540	0	32780	32750	
3541	0	32876	32823	
3542	0	32888	32639	
3543	0	32912	32727	
3544	0	32872	32828	
3545	0	32886	32682	
3546	0	32880	32839	
3547	0	32780	32914	
3548	0	32712	32706	
3549	0	32758	32902	
3550	0	32744	32835	
3551	0	32824	32694	
3552	0	32868	32814	
3553	0	32784	32804	
3554	0	32706	32696	
3555	0	32772	32820	
3556	0	32682	32842	
3557	0	32712	32774	
3558	0	32760	32822	
3559	0	32800	32844	
3560	0	32800	32854	
3561	0	32770	32802	
3562	0	32826	32881	
3563	0	32934	32824	
3564	0	32834	32708	
3565	0	32844	32646	
3566	0	32900	32706	
3567	0	32900	32634	
3568	0	32794	32848	
3569	0	32704	32812	
3570	0	32772	32710	
3571	0	32836	32900	
3572	0	32892	32922	
3573	0	32960	32751	
3574	0	32736	32740	
3575	0	32912	32799	
3576	0	32926	32670	
3577	0	32926	32711	
3578	0	32878	32716	
3579	0	32804	32599	
3580	0	32904	32654	
3581	0	33012	32736	
3582	0	32958	32670	
3583	0	32866	32676	
3584	0	32754	32735	
3585	0	32808	32663	
3586	0	32716	32826	
3587	0	32724	32836	
3588	0	32638	32790	
3589	0	32676	32841	
3590	0	32708	32754	
3591	0	32736	32661	
3592	0	32660	32836	
3593	0	32840	32828	
3594	0	32900	32807	
3595	0	32890	32956	
3596	0	32968	32861	
3597	0	33000	32758	
3598	0	32912	32788	
3599	0	32892	32775	
3600	0	32844	32652	
3601	0	32737	32762	
3602	0	32648	32694	
3603	0	32670	32748	
3604	0	32804	32694	
3605	0	32784	32800	
3606	0	32708	32916	
3607	0	32672	32762	
3608	0	32724	32679	
3609	0	32756	32690	
3610	0	32756	32793	
3611	0	32730	32824	
3612	0	32912	32774	
3613	0	32856	32838	
3614	0	32852	32760	
3615	0	32954	32688	
3616	0	32854	32839	
3617	0	32798	32766	
3618	0	32744	32852	
3619	0	32858	32764	
3620	0	32832	32714	
3621	0	32784	32756	
3622	0	32840	32695	
3623	0	32954	32740	
3624	0	33020	32786	
3625	0	32920	32763	
3626	0	32924	32646	
3627	0	32846	32724	
3628	0	32872	32700	
3629	0	32778	32670	
3630	0	32740	32793	
3631	0	32682	32768	
3632	0	32684	32724	
3633	0	32736	32775	
3634	0	32698	32788	
3635	0	32706	32844	
3636	0	32788	32816	
3637	0	32712	32736	
3638	0	32760	32748	
3639	0	32766	32742	
3640	0	32660	32899	
3641	0	32648	32855	
3642	0	32744	32775	
3643	0	32960	32804	
3644	0	32920	32721	
3645	0	32778	32854	
3646	0	32882	32815	
3647	0	32812	32799	
3648	0	32800	32768	
3649	0	32804	32816	
3650	0	32853	32788	
3651	0	32916	32720	
3652	0	32897	32623	
3653	0	32868	32712	
3654	0	32940	32711	
3655	0	32842	32732	
3656	0	32746	32732	
3657	0	32722	32728	
3658	0	32784	32756	
3659	0	32796	32684	
3660	0	32662	32679	
3661	0	32608	32758	
3662	0	32710	32689	
3663	0	32700	32890	
3664	0	32704	32886	
3665	0	32784	32732	
3666	0	32858	32864	
3667	0	32824	32820	
3668	0	32908	32724	
3669	0	32972	32799	
3670	0	32980	32775	
3671	0	32998	32708	
3672	0	33124	32772	
3673	0	32884	32772	
3674	0	32820	32658	
3675	0	32864	32818	
3676	0	32844	32718	
3677	0	32776	32684	
3678	0	32796	32822	
3679	0	32752	32854	
3680	0	32748	32798	
3681	0	32752	32795	
3682	0	32700	32842	
3683	0	32656	32775	
3684	0	32762	32872	
3685	0	32746	32836	
3686	0	32768	32705	
3687	0	32748	32964	
3688	0	32662	32882	
3689	0	32701	32920	
3690	0	32778	32872	
3691	0	32744	32840	
3692	0	32730	32690	
3693	0	32716	32644	
3694	0	32808	32580	
3695	0	32936	32544	
3696	0	32970	32548	
3697	0	32948	32702	
3698	0	32932	32754	
3699	0	32952	32684	
3700	0	32728	32814	
3701	0	32904	32712	
3702	0	32820	32835	
3703	0	32668	32868	
3704	0	32904	32775	
3705	0	32804	32930	
3706	0	32812	32966	
3707	0	32960	32847	
3708	0	32956	32775	
3709	0	32732	32748	
3710	0	32632	32695	
3711	0	32680	32769	
3712	0	32964	32647	
3713	0	32808	32734	
3714	0	32738	32802	
3715	0	32740	32620	
3716	0	32868	32642	
3717	0	32916	32594	
3718	0	32880	32634	
3719	0	32832	32806	
3720	0	32712	32625	
3721	0	32744	32641	
3722	0	32620	32890	
3723	0	32632	32898	
3724	0	32740	32962	
3725	0	32902	32863	
3726	0	32888	32884	
3727	0	32920	32954	
3728	0	32936	32679	
3729	0	32940	32664	
3730	0	32988	32652	
3731	0	32944	32480	
3732	0	32890	32558	
3733	0	32828	32446	
3734	0	32844	32276	
3735	0	32720	32556	
3736	0	32736	32748	
3737	0	32736	32804	
3738	0	32756	32850	
3739	0	32704	32816	
3740	0	32800	32898	
3741	0	32940	32742	
3742	0	32732	32821	
3743	0	32744	32999	
3744	0	32708	33127	
3745	0	32670	32983	
3746	0	32704	32903	
3747	0	32688	32827	
3748	0	32826	32775	
3749	0	32892	32848	
3750	0	32996	32846	
3751	0	32900	32900	
3752	0	32848	32816	
3753	0	32932	32816	
3754	0	32952	32799	
3755	0	32996	32694	
3756	0	32820	32807	
3757	0	32768	32679	
3758	0	32748	32654	
3759	0	32704	32660	
3760	0	32772	32622	
3761	0	33084	32742	
3762	0	32852	32636	
3763	0	32748	32742	
3764	0	33024	32708	
3765	0	32898	32612	
3766	0	32672	32839	
3767	0	32640	32850	
3768	0	32806	32964	
3769	0	32524	32967	
3770	0	32600	32932	
3771	0	32736	32956	
3772	0	32756	33098	
3773	0	32660	33136	
3774	0	32782	33010	
3775	0	32900	32758	
3776	0	32900	32655	
3777	0	32896	32564	
3778	0	32796	32772	
3779	0	32852	32514	
3780	0	32806	32340	
3781	0	32772	32296	
3782	0	32916	32290	
3783	0	33060	32409	
3784	0	33118	32272	
3785	0	33012	32196	
3786	0	32892	32396	
3787	0	32840	32630	
3788	0	32702	32688	
3789	0	32570	32908	
3790	0	32496	32840	
3791	0	32568	32880	
3792	0	32672	32971	
3793	0	32804	33042	
3794	0	32680	32950	
3795	0	32981	32822	
3796	0	33012	32870	
3797	0	33040	32892	
3798	0	33000	33071	
3799	0	32840	32889	
3800	0	32832	32958	
3801	0	32902	32932	
3802	0	32716	32854	
3803	0	32794	32890	
3804	0	32844	32916	
3805	0	32886	32816	
3806	0	32800	32850	
3807	0	33000	32876	
3808	0	32966	32910	
3809	0	32838	32754	
3810	0	32788	32858	
3811	0	32832	32846	
3812	0	32824	32887	
3813	0	32672	32683	
3814	0	32770	32864	
3815	0	32716	32740	
3816	0	32608	32910	
3817	0	32836	32879	
3818	0	32784	32846	
3819	0	32724	32742	
3820	0	32602	32726	
3821	0	32682	32596	
3822	0	32682	32636	
3823	0	32568	32518	
3824	0	32694	32512	
3825	0	32970	32648	
3826	0	32974	32694	
3827	0	33068	32634	
3828	0	33128	32620	
3829	0	33160	32740	
3830	0	32984	32934	
3831	0	32858	32775	
3832	0	32816	32910	
3833	0	32928	32892	
3834	0	33032	32862	
3835	0	32892	32824	
3836	0	32778	32671	
3837	0	32768	32666	
3838	0	32740	32752	
3839	0	32580	32754	
3840	0	32516	32654	
3841	0	32628	32660	
3842	0	32724	32838	
3843	0	32752	33022	
3844	0	32900	33062	
3845	0	32884	32935	
3846	0	32912	32758	
3847	0	32790	32590	
3848	0	32756	32662	
3849	0	32732	32775	
3850	0	32506	32580	
3851	0	32488	32724	
3852	0	32816	32704	
3853	0	32832	32688	
3854	0	32766	32914	
3855	0	32879	33054	
3856	0	32924	32944	
3857	0	33169	32888	
3858	0	32972	32724	
3859	0	32704	32694	
3860	0	32780	32572	
3861	0	32892	32550	
3862	0	32782	32572	
3863	0	32536	32724	
3864	0	32756	32836	
3865	0	32900	32916	
3866	0	32964	32839	
3867	0	33028	32862	
3868	0	33066	32836	
3869	0	32948	32852	
3870	0	32856	32714	
3871	0	32820	32726	
3872	0	32808	32568	
3873	0	32968	32662	
3874	0	32864	32566	
3875	0	32628	32524	
3876	0	32648	32480	
3877	0	32336	32680	
3878	0	32250	32582	
3879	0	32908	32638	
3880	0	32688	32634	
3881	0	32530	32767	
3882	0	32799	32759	
3883	0	32848	32862	
3884	0	32862	32880	
3885	0	33034	32775	
3886	0	33276	32990	
3887	0	33172	33194	
3888	0	33204	32898	
3889	0	33160	32942	
3890	0	32994	33036	
3891	0	32872	32850	
3892	0	32808	32908	
3893	0	32584	32966	
3894	0	32396	32750	
3895	0	32520	32562	
3896	0	32388	32634	
3897	0	32494	32574	
3898	0	32652	32749	
3899	0	32802	32574	
3900	0	32865	32572	
3901	0	32986	32880	
3902	0	33100	32711	
3903	0	33164	32618	
3904	0	33152	32932	
3905	0	32988	32756	
3906	0	32772	32760	
3907	0	32756	32716	
3908	0	32728	32884	
3909	0	32928	33095	
3910	0	32710	32998	
3911	0	32372	33004	
3912	0	32614	32888	
3913	0	32642	32640	
3914	0	32892	32510	
3915	0	32824	32684	
3916	0	32906	32606	
3917	0	32825	32614	
3918	0	32876	32654	
3919	0	32912	32806	
3920	0	32836	32772	
3921	0	32892	32782	
3922	0	32872	32591	
3923	0	32818	32583	
3924	0	32728	32762	
3925	0	32724	32956	
3926	0	32566	32836	
3927	0	32732	32774	
3928	0	32928	32610	
3929	0	32800	32454	
3930	0	32870	32754	
3931	0	32756	32760	
3932	0	32742	32645	
3933	0	32648	32689	
3934	0	32950	32578	
3935	0	32712	32774	
3936	0	32430	32798	
3937	0	32872	32884	
3938	0	32976	32790	
3939	0	32772	32790	
3940	0	32849	32774	
3941	0	33056	32679	
3942	0	33280	32744	
3943	0	33016	32750	
3944	0	32780	32684	
3945	0	32908	32722	
3946	0	33084	32838	
3947	0	33036	33246	
3948	0	32922	32999	
3949	0	32772	33018	
3950	0	32732	32942	
3951	0	32564	32943	
3952	0	32478	32664	
3953	0	32568	32729	
3954	0	32516	32598	
3955	0	32454	32672	
3956	0	32356	32774	
3957	0	32766	32664	
3958	0	32748	32932	
3959	0	32840	32942	
3960	0	32870	32972	
3961	0	33008	32950	
3962	0	32804	32936	
3963	0	33096	32656	
3964	0	32902	32536	
3965	0	32844	32567	
3966	0	33070	32627	
3967	0	32984	32775	
3968	0	32804	32647	
3969	0	32788	32328	
3970	0	32584	32568	
3971	0	33028	32930	
3972	0	32636	32830	
3973	0	32620	32536	
3974	0	32908	32647	
3975	0	32984	32775	
3976	0	33082	32668	
3977	0	32984	32659	
3978	0	32900	32606	
3979	0	33002	32719	
3980	0	32920	32769	
3981	0	32880	32634	
3982	0	32796	32784	
3983	0	32924	32912	
3984	0	32702	32917	
3985	0	32562	32742	
3986	0	32636	32886	
3987	0	32454	33008	
3988	0	32528	33071	
3989	0	32544	32775	
3990	0	32604	32600	
3991	0	32754	32730	
3992	0	32608	32868	
3993	0	32682	32788	
3994	0	32836	32750	
3995	0	32868	32788	
3996	0	32924	32759	
3997	0	33054	32498	
3998	0	33080	32668	
3999	0	33128	32852	
4000	0	33144	32620	
4001	0	33064	32862	
4002	0	33056	32902	
4003	0	32912	32775	
4004	0	32930	32626	
4005	0	32654	32666	
4006	0	32648	32692	
4007	0	32701	32614	
4008	0	32548	32572	
4009	0	32468	32704	
4010	0	32504	32642	
4011	0	32482	32592	
4012	0	32508	32519	
4013	0	32318	32610	
4014	0	32300	32702	
4015	0	32644	32798	
4016	0	32692	32788	
4017	0	32444	32792	
4018	0	32660	32812	
4019	0	32986	32744	
4020	0	33232	32732	
4021	0	33588	32612	
4022	0	33497	32606	
4023	0	33440	32775	
4024	0	33524	32836	
4025	0	33310	32914	
4026	0	33236	33194	
4027	0	33320	33166	
4028	0	33084	33233	
4029	0	32968	33206	
4030	0	32956	33252	
4031	0	32888	33159	
4032	0	32636	33169	
4033	0	32636	32943	
4034	0	32484	32940	
4035	0	32332	32802	
4036	0	32540	32608	
4037	0	32700	32678	
4038	0	32446	32596	
4039	0	32542	32558	
4040	0	32446	32506	
4041	0	32536	32610	
4042	0	32640	32746	
4043	0	32878	32700	
4044	0	33120	32821	
4045	0	33128	32908	
4046	0	33096	32824	
4047	0	32842	32577	
4048	0	32844	32890	
4049	0	32769	32775	
4050	0	33022	32591	
4051	0	32792	32578	
4052	0	32506	32468	
4053	0	32324	32524	
4054	0	32440	32824	
4055	0	32628	32687	
4056	0	32740	32730	
4057	0	32916	32998	
4058	0	33232	32940	
4059	0	33436	32678	
4060	0	33182	32636	
4061	0	32916	32564	
4062	0	32708	32542	
4063	0	32524	32630	
4064	0	32796	32601	
4065	0	32836	32807	
4066	0	32676	32879	
4067	0	32452	32762	
4068	0	32742	32684	
4069	0	32644	32641	
4070	0	32686	32768	
4071	0	32972	32849	
4072	0	33172	32812	
4073	0	32980	32835	
4074	0	32880	32926	
4075	0	32638	32746	
4076	0	32356	32734	
4077	0	32528	32830	
4078	0	32680	32708	
4079	0	32888	32848	
4080	0	32788	32696	
4081	0	32892	32656	
4082	0	33304	32806	
4083	0	33430	32950	
4084	0	33074	32878	
4085	0	32938	32804	
4086	0	32788	32903	
4087	0	32848	32794	
4088	0	32820	32896	
4089	0	32526	32700	
4090	0	32316	32730	
4091	0	32316	32715	
4092	0	32576	32618	
4093	0	32496	32509	
4094	0	32954	32496	
4095	0	32984	32718	
4096	0	33092	32756	
4097	0	33244	32642	
4098	0	33298	32783	
4099	0	32964	33014	
4100	0	32828	32999	
4101	0	32820	32878	
4102	0	32832	32612	
4103	0	32693	32798	
4104	0	32484	32855	
4105	0	32490	32833	
4106	0	32792	32652	
4107	0	32896	32647	
4108	0	33044	32734	
4109	0	32920	32726	
4110	0	33070	32746	
4111	0	32786	32846	
4112	0	32212	33018	
4113	0	32744	33028	
4114	0	32736	32823	
4115	0	32802	32866	
4116	0	32898	32916	
4117	0	32772	32900	
4118	0	33044	32764	
4119	0	32980	32929	
4120	0	32920	32992	
4121	0	32852	32756	
4122	0	32704	32788	
4123	0	32684	32966	
4124	0	32642	32839	
4125	0	32580	32519	
4126	0	32702	32592	
4127	0	33104	32712	
4128	0	32988	32642	
4129	0	32964	32758	
4130	0	33070	32546	
4131	0	33092	32436	
4132	0	32720	32602	
4133	0	32382	32626	
4134	0	32196	32502	
4135	0	32572	32531	
4136	0	32400	32743	
4137	0	32546	32702	
4138	0	32592	32566	
4139	0	33128	32572	
4140	0	32866	32462	
4141	0	33336	32620	
4142	0	33732	32903	
4143	0	33428	32750	
4144	0	33312	32924	
4145	0	32976	32935	
4146	0	32778	33016	
4147	0	32744	32983	
4148	0	32532	32990	
4149	0	32764	32950	
4150	0	32604	33010	
4151	0	32080	33040	
4152	0	32436	32960	
4153	0	32516	32886	
4154	0	32844	32800	
4155	0	32960	32748	
4156	0	32868	32727	
4157	0	32664	32730	
4158	0	32720	32876	
4159	0	32692	32700	
4160	0	32616	32682	
4161	0	32648	32970	
4162	0	32724	32728	
4163	0	32624	32756	
4164	0	32928	32996	
4165	0	33376	32820	
4166	0	33027	32696	
4167	0	33224	32712	
4168	0	33112	32604	
4169	0	32560	32476	
4170	0	32834	32578	
4171	0	32720	32644	
4172	0	32552	32917	
4173	0	32805	32738	
4174	0	33208	32764	
4175	0	33300	32718	
4176	0	32968	32772	
4177	0	32684	32775	
4178	0	32678	32903	
4179	0	32794	32857	
4180	0	32832	32734	
4181	0	32436	32682	
4182	0	32570	32711	
4183	0	33148	32724	
4184	0	32626	32745	
4185	0	32448	32772	
4186	0	32472	32673	
4187	0	32576	32610	
4188	0	32516	32678	
4189	0	32589	32702	
4190	0	32857	32712	
4191	0	33630	32862	
4192	0	33216	32660	
4193	0	32876	32739	
4194	0	32565	32662	
4195	0	32734	32786	
4196	0	32720	32862	
4197	0	32738	32888	
4198	0	33068	32830	
4199	0	33120	32951	
4200	0	32982	33012	
4201	0	32772	33098	
4202	0	32948	32798	
4203	0	32640	32775	
4204	0	32350	32720	
4205	0	32408	32824	
4206	0	32746	32536	
4207	0	33444	32494	
4208	0	33248	32671	
4209	0	32828	32631	
4210	0	32548	32576	
4211	0	32322	32574	
4212	0	32232	32829	
4213	0	33040	32796	
4214	0	33198	32794	
4215	0	32892	32687	
4216	0	32904	32946	
4217	0	32612	32790	
4218	0	32588	32752	
4219	0	33158	32775	
4220	0	32868	32962	
4221	0	32804	32938	
4222	0	32832	32966	
4223	0	32624	32924	
4224	0	32992	33112	
4225	0	32714	32902	
4226	0	32620	32596	
4227	0	32953	32775	
4228	0	33306	32551	
4229	0	33248	32540	
4230	0	32920	32334	
4231	0	33080	32482	
4232	0	32884	32474	
4233	0	32608	32743	
4234	0	32632	32900	
4235	0	32636	32808	
4236	0	32758	32882	
4237	0	32148	32826	
4238	0	32640	32708	
4239	0	32776	32700	
4240	0	32796	32660	
4241	0	33138	32932	
4242	0	32970	32900	
4243	0	33259	32903	
4244	0	32923	33024	
4245	0	32476	32903	
4246	0	31944	32767	
4247	0	32398	32720	
4248	0	33184	32994	
4249	0	33492	33294	
4250	0	33648	32852	
4251	0	33286	32884	
4252	0	32972	32656	
4253	0	32588	32472	
4254	0	32654	32500	
4255	0	32804	32389	
4256	0	32946	32335	
4257	0	33256	32436	
4258	0	32872	32626	
4259	0	32668	32670	
4260	0	32304	32750	
4261	0	32296	33118	
4262	0	32160	33221	
4263	0	31960	32932	
4264	0	32234	33020	
4265	0	33424	32926	
4266	0	32670	32952	
4267	0	32558	32821	
4268	0	32728	33024	
4269	0	32912	32852	
4270	0	32470	32796	
4271	0	33608	32862	
4272	0	34436	32706	
4273	0	34102	32726	
4274	0	33544	32620	
4275	0	32862	32657	
4276	0	32488	33004	
4277	0	32740	32962	
4278	0	32316	32836	
4279	0	32078	32738	
4280	0	32338	32814	
4281	0	32268	32533	
4282	0	31928	32604	
4283	0	32418	32544	
4284	0	32704	32472	
4285	0	32072	32540	
4286	0	32372	32672	
4287	0	32620	32544	
4288	0	33322	32660	
4289	0	34178	32787	
4290	0	34100	32708	
4291	0	33788	32775	
4292	0	33140	32588	
4293	0	33094	32662	
4294	0	33334	32866	
4295	0	32584	32694	
4296	0	32148	32503	
4297	0	32092	32812	
4298	0	32378	32860	
4299	0	32564	32884	
4300	0	32604	33016	
4301	0	33050	33026	
4302	0	33636	32722	
4303	0	33516	32696	
4304	0	33076	32794	
4305	0	32780	32806	
4306	0	32566	32586	
4307	0	32334	32716	
4308	0	32128	32928	
4309	0	32444	32960	
4310	0	32504	32824	
4311	0	31728	32839	
4312	0	33540	32990	
4313	0	32702	32924	
4314	0	32580	33086	
4315	0	32410	33160	
4316	0	31992	32924	
4317	0	32200	32964	
4318	0	32488	32676	
4319	0	32308	32636	
4320	0	33540	32928	
4321	0	33628	32828	
4322	0	34552	32711	
4323	0	33652	32692	
4324	0	33120	32666	
4325	0	33268	32604	
4326	0	33528	32512	
4327	0	33528	32632	
4328	0	33234	32662	
4329	0	32606	32312	
4330	0	32276	32646	
4331	0	32726	32652	
4332	0	32913	32788	
4333	0	32400	32810	
4334	0	31846	32855	
4335	0	32298	32732	
4336	0	31968	32630	
4337	0	32202	32710	
4338	0	33076	32620	
4339	0	32676	32236	
4340	0	32470	32334	
4341	0	32514	32734	
4342	0	33280	33092	
4343	0	32744	33166	
4344	0	32488	33031	
4345	0	32396	33056	
4346	0	33166	32942	
4347	0	33376	32753	
4348	0	33096	32746	
4349	0	33462	32654	
4350	0	33668	32864	
4351	0	32832	32714	
4352	0	31576	32570	
4353	0	31548	32684	
4354	0	32644	32686	
4355	0	33746	32796	
4356	0	33580	32852	
4357	0	33724	32676	
4358	0	33208	32712	
4359	0	32844	32740	
4360	0	32176	32814	
4361	0	32616	32687	
4362	0	32713	32656	
4363	0	31964	32740	
4364	0	32132	32668	
4365	0	32536	32710	
4366	0	32008	32736	
4367	0	32473	32850	
4368	0	33372	33004	
4369	0	33924	32844	
4370	0	32200	32844	
4371	0	32732	32848	
4372	0	33200	32798	
4373	0	33556	32960	
4374	0	33976	33031	
4375	0	33918	32924	
4376	0	33220	32856	
4377	0	32860	32892	
4378	0	31946	32748	
4379	0	32288	32812	
4380	0	32552	32592	
4381	0	32240	32514	
4382	0	31436	32684	
4383	0	32344	32700	
4384	0	33376	32762	
4385	0	33534	32688	
4386	0	32774	32926	
4387	0	31744	33082	
4388	0	32840	32799	
4389	0	33476	32818	
4390	0	33552	32812	
4391	0	33104	32716	
4392	0	32796	32759	
4393	0	32356	32606	
4394	0	32292	32580	
4395	0	33512	32600	
4396	0	33392	32364	
4397	0	33636	32492	
4398	0	33240	32426	
4399	0	33476	32328	
4400	0	33248	32584	
4401	0	32516	32775	
4402	0	31924	32958	
4403	0	32322	33242	
4404	0	32296	33206	
4405	0	32592	33319	
4406	0	32218	33318	
4407	0	31936	32956	
4408	0	32978	32812	
4409	0	33220	32263	
4410	0	33220	31980	
4411	0	33496	32346	
4412	0	33632	32294	
4413	0	33356	32453	
4414	0	32484	32628	
4415	0	32180	32706	
4416	0	31930	33116	
4417	0	31760	33026	
4418	0	33286	32920	
4419	0	33156	32666	
4420	0	32216	32842	
4421	0	32852	32980	
4422	0	33394	33016	
4423	0	31972	33176	
4424	0	33112	33094	
4425	0	32342	32782	
4426	0	33264	32976	
4427	0	33948	32758	
4428	0	33398	32630	
4429	0	34140	32628	
4430	0	32884	32409	
4431	0	32792	32436	
4432	0	32456	32538	
4433	0	32120	32638	
4434	0	32228	32924	
4435	0	32280	32698	
4436	0	33640	32801	
4437	0	33602	32671	
4438	0	32880	32606	
4439	0	32260	32668	
4440	0	32924	32653	
4441	0	32798	33070	
4442	0	32328	33404	
4443	0	31448	32958	
4444	0	31502	32866	
4445	0	32100	33068	
4446	0	34376	32908	
4447	0	34924	32806	
4448	0	34248	32692	
4449	0	33516	32622	
4450	0	32132	32838	
4451	0	32492	32540	
4452	0	32432	32608	
4453	0	32574	32535	
4454	0	31556	32478	
4455	0	33516	32748	
4456	0	33592	32844	
4457	0	32272	32870	
4458	0	32192	32794	
4459	0	31664	32601	
4460	0	31678	32840	
4461	0	31276	32700	
4462	0	32998	32656	
4463	0	34088	32620	
4464	0	33448	32812	
4465	0	33554	32840	
4466	0	34676	33028	
4467	0	34008	33237	
4468	0	32284	33308	
4469	0	31852	33266	
4470	0	31872	33131	
4471	0	31888	32810	
4472	0	32906	32484	
4473	0	33904	32440	
4474	0	34104	32454	
4475	0	33420	32367	
4476	0	32920	32390	
4477	0	32982	32388	
4478	0	32520	32572	
4479	0	31486	32576	
4480	0	31076	32764	
4481	0	32628	32930	
4482	0	34112	32766	
4483	0	33738	32966	
4484	0	32064	32946	
4485	0	31106	33190	
4486	0	31822	33050	
4487	0	32134	32846	
4488	0	32750	32680	
4489	0	33978	32614	
4490	0	34388	32602	
4491	0	35836	32591	
4492	0	33864	32448	
4493	0	31920	32500	
4494	0	32122	32912	
4495	0	32472	32736	
4496	0	32716	32636	
4497	0	32968	32674	
4498	0	32624	32775	
4499	0	33014	32689	
4500	0	33092	32812	
4501	0	32064	32848	
4502	0	31828	32838	
4503	0	32528	32801	
4504	0	33360	32972	
4505	0	33304	32772	
4506	0	33676	32940	
4507	0	32780	33062	
4508	0	32148	32984	
4509	0	31868	32942	
4510	0	32650	32628	
4511	0	32727	32455	
4512	0	32868	32672	
4513	0	32372	32775	
4514	0	33012	32540	
4515	0	32930	32596	
4516	0	33100	32775	
4517	0	32886	32772	
4518	0	32944	32818	
4519	0	33022	32958	
4520	0	32992	32796	
4521	0	32664	32702	
4522	0	32708	32774	
4523	0	33034	32775	
4524	0	33338	32916	
4525	0	32964	32864	
4526	0	32644	33024	
4527	0	32308	32968	
4528	0	31452	33024	
4529	0	32104	32784	
4530	0	32532	32916	
4531	0	32400	32854	
4532	0	33296	32728	
4533	0	34228	32634	
4534	0	33056	32694	
4535	0	32544	32390	
4536	0	33296	32244	
4537	0	33818	32724	
4538	0	33140	32775	
4539	0	32538	32686	
4540	0	33100	32564	
4541	0	32810	32734	
4542	0	32344	32748	
4543	0	33720	32694	
4544	0	33376	32808	
4545	0	32390	32472	
4546	0	33066	32697	
4547	0	32272	32768	
4548	0	32697	33006	
4549	0	32412	32704	
4550	0	32098	32296	
4551	0	33100	32534	
4552	0	32312	32692	
4553	0	32654	32856	
4554	0	32736	32950	
4555	0	32588	33232	
4556	0	32488	33464	
4557	0	33286	33300	
4558	0	33408	33104	
4559	0	32814	32789	
4560	0	32982	32894	
4561	0	33602	32803	
4562	0	32692	32612	
4563	0	32524	32526	
4564	0	32978	32546	
4565	0	32912	32379	
4566	0	33594	32572	
4567	0	32864	32740	
4568	0	32114	32592	
4569	0	32212	32791	
4570	0	32588	32873	
4571	0	32162	32918	
4572	0	32412	33028	
4573	0	31948	32732	
4574	0	33844	32744	
4575	0	33012	32711	
4576	0	33020	32711	
4577	0	32720	32628	
4578	0	32736	32689	
4579	0	32996	32594	
4580	0	33388	32572	
4581	0	33442	32636	
4582	0	33474	32743	
4583	0	33316	32700	
4584	0	33040	33017	
4585	0	32496	32934	
4586	0	32036	33111	
4587	0	32672	32935	
4588	0	32644	32664	
4589	0	32676	32800	
4590	0	32812	32862	
4591	0	32796	32945	
4592	0	32836	33004	
4593	0	32704	32874	
4594	0	32778	32796	
4595	0	32660	32711	
4596	0	32712	32532	
4597	0	32776	32364	
4598	0	32882	32455	
4599	0	32840	32548	
4600	0	32834	32743	
4601	0	32832	32772	
4602	0	32824	32554	
4603	0	32824	32572	
4604	0	32792	32641	
4605	0	33056	32884	
4606	0	32900	33156	
4607	0	32352	32980	
4608	0	32708	32977	
4609	0	32756	32924	
4610	0	32796	32772	
4611	0	32336	32807	
4612	0	32472	32842	
4613	0	31108	32844	
4614	0	33134	32752	
4615	0	33402	32680	
4616	0	33624	32746	
4617	0	33024	33128	
4618	0	32824	33031	
4619	0	33354	32567	
4620	0	33012	32407	
4621	0	33112	32616	
4622	0	33536	32398	
4623	0	33232	32519	
4624	0	32804	32683	
4625	0	32786	32750	
4626	0	32806	32807	
4627	0	32586	32790	
4628	0	32608	32692	
4629	0	33528	32876	
4630	0	32718	33055	
4631	0	31848	32832	
4632	0	32032	33027	
4633	0	32670	32836	
4634	0	32769	32832	
4635	0	33072	32807	
4636	0	32656	32687	
4637	0	32744	32496	
4638	0	32800	32330	
4639	0	32580	32551	
4640	0	32530	32647	
4641	0	32992	32550	
4642	0	32952	32759	
4643	0	33044	32920	
4644	0	33244	32808	
4645	0	33106	32980	
4646	0	32908	33203	
4647	0	33044	32968	
4648	0	32724	32724	
4649	0	32566	32647	
4650	0	32689	32672	
4651	0	32860	32692	
4652	0	32590	32766	
4653	0	32516	32676	
4654	0	33012	32726	
4655	0	32684	32826	
4656	0	32376	32903	
4657	0	32606	32746	
4658	0	32352	32868	
4659	0	32516	33004	
4660	0	32796	32918	
4661	0	32800	32762	
4662	0	32964	32728	
4663	0	33128	33031	
4664	0	33240	32808	
4665	0	33204	32743	
4666	0	32932	32518	
4667	0	32816	32450	
4668	0	32892	32798	
4669	0	33208	32930	
4670	0	32980	32480	
4671	0	33230	32426	
4672	0	32920	32511	
4673	0	32488	32600	
4674	0	32420	33014	
4675	0	32836	32878	
4676	0	32936	32822	
4677	0	32614	32764	
4678	0	32544	32913	
4679	0	32664	33142	
4680	0	32810	33224	
4681	0	32658	32892	
4682	0	32444	32582	
4683	0	32520	32388	
4684	0	32641	32279	
4685	0	33092	32544	
4686	0	33350	32928	
4687	0	32972	33016	
4688	0	32686	32990	
4689	0	32172	32751	
4690	0	32552	32655	
4691	0	32996	32474	
4692	0	33188	32686	
4693	0	33534	32466	
4694	0	32768	32615	
4695	0	33226	32583	
4696	0	32900	32608	
4697	0	32684	32670	
4698	0	32180	32725	
4699	0	32348	32822	
4700	0	32552	33348	
4701	0	32600	33002	
4702	0	32700	33214	
4703	0	32774	33070	
4704	0	33056	32820	
4705	0	33040	32894	
4706	0	33188	32836	
4707	0	33066	32546	
4708	0	33088	32342	
4709	0	33140	32598	
4710	0	32596	32580	
4711	0	32478	32575	
4712	0	32292	32652	
4713	0	32348	32732	
4714	0	32205	32583	
4715	0	32440	32462	
4716	0	32780	32487	
4717	0	33224	32614	
4718	0	33258	32903	
4719	0	33264	33085	
4720	0	33528	33124	
4721	0	32920	32791	
4722	0	32260	32490	
4723	0	32264	32353	
4724	0	32466	32391	
4725	0	32324	32444	
4726	0	32142	32529	
4727	0	32426	32642	
4728	0	33020	32580	
4729	0	33326	32596	
4730	0	33096	32718	
4731	0	33558	32936	
4732	0	33538	33220	
4733	0	33224	33466	
4734	0	33390	33628	
4735	0	33231	33510	
4736	0	33262	33274	
4737	0	32780	33015	
4738	0	32160	33208	
4739	0	32648	33020	
4740	0	33046	32974	
4741	0	32910	32752	
4742	0	33186	32424	
4743	0	33356	32442	
4744	0	32744	32426	
4745	0	32524	32407	
4746	0	32212	32420	
4747	0	32104	32488	
4748	0	32332	32612	
4749	0	32912	32574	
4750	0	32766	32436	
4751	0	32724	32798	
4752	0	32576	32826	
4753	0	32932	32668	
4754	0	33098	32958	
4755	0	32952	33100	
4756	0	33000	32992	
4757	0	32744	32916	
4758	0	32389	32775	
4759	0	32090	32828	
4760	0	32600	32692	
4761	0	32728	32852	
4762	0	33088	32798	
4763	0	32692	32743	
4764	0	32877	32616	
4765	0	33020	32586	
4766	0	33172	32654	
4767	0	33296	32574	
4768	0	33144	32638	
4769	0	33228	32580	
4770	0	32776	32674	
4771	0	32584	32930	
4772	0	32492	32903	
4773	0	32784	32926	
4774	0	32854	32736	
4775	0	32768	32512	
4776	0	32720	32462	
4777	0	32760	32583	
4778	0	32170	32550	
4779	0	32570	32610	
4780	0	32960	32820	
4781	0	32874	32824	
4782	0	33140	32732	
4783	0	33160	32736	
4784	0	33132	32862	
4785	0	32728	33188	
4786	0	32888	33062	
4787	0	32892	32804	
4788	0	32772	32599	
4789	0	32894	32444	
4790	0	32895	32847	
4791	0	32868	33138	
4792	0	33033	32871	
4793	0	32848	32704	
4794	0	32328	32729	
4795	0	32036	32764	
4796	0	32236	32721	
4797	0	32628	32736	
4798	0	32948	32740	
4799	0	32836	32628	
4800	0	32892	32712	
4801	0	32812	32820	
4802	0	32860	32906	
4803	0	32850	32730	
4804	0	33090	32408	
4805	0	33024	32496	
4806	0	33116	32518	
4807	0	33112	32750	
4808	0	33108	33004	
4809	0	32730	32970	
4810	0	32428	32959	
4811	0	32540	33024	
4812	0	32648	32977	
4813	0	32263	32832	
4814	0	32472	32510	
4815	0	33040	32695	
4816	0	33352	32666	
4817	0	33312	32615	
4818	0	33006	32838	
4819	0	32532	32948	
4820	0	32578	32903	
4821	0	32448	32860	
4822	0	32272	32757	
4823	0	32292	32810	
4824	0	32502	32608	
4825	0	32744	32696	
4826	0	32744	32866	
4827	0	33148	32774	
4828	0	33450	32554	
4829	0	33492	32790	
4830	0	33408	32734	
4831	0	33286	32871	
4832	0	33150	32807	
4833	0	32944	32711	
4834	0	32832	32836	
4835	0	32944	32722	
4836	0	32848	32914	
4837	0	32800	32710	
4838	0	32640	32876	
4839	0	32608	32728	
4840	0	32550	32578	
4841	0	32344	32879	
4842	0	32596	32620	
4843	0	32704	32488	
4844	0	32456	32688	
4845	0	32846	32812	
4846	0	32554	32790	
4847	0	32808	32623	
4848	0	33116	32636	
4849	0	32994	32798	
4850	0	33024	32935	
4851	0	32590	32816	
4852	0	32996	32464	
4853	0	32932	32807	
4854	0	32736	32847	
4855	0	32960	32714	
4856	0	32942	32768	
4857	0	33056	32696	
4858	0	32724	32631	
4859	0	32746	32882	
4860	0	32567	32932	
4861	0	32716	32903	
4862	0	33024	32604	
4863	0	32936	32828	
4864	0	32420	32875	
4865	0	32468	32800	
4866	0	32504	32930	
4867	0	32572	32992	
4868	0	32588	32839	
4869	0	32994	32758	
4870	0	32952	32663	
4871	0	33020	32734	
4872	0	33252	32599	
4873	0	33264	32718	
4874	0	33220	32542	
4875	0	32812	32450	
4876	0	32748	32634	
4877	0	32570	32948	
4878	0	32804	32902	
4879	0	33062	32852	
4880	0	32860	33082	
4881	0	32840	33046	
4882	0	32632	32757	
4883	0	32808	32734	
4884	0	32942	32618	
4885	0	32900	32728	
4886	0	31952	32598	
4887	0	32140	32702	
4888	0	32602	32728	
4889	0	32804	32612	
4890	0	33168	32871	
4891	0	33170	32878	
4892	0	32808	33094	
4893	0	32672	33100	
4894	0	32692	32694	
4895	0	32804	32734	
4896	0	32942	32606	
4897	0	32852	32812	
4898	0	32898	32757	
4899	0	32968	32670	
4900	0	33040	32661	
4901	0	33060	32935	
4902	0	32924	32716	
4903	0	32850	32641	
4904	0	32876	32719	
4905	0	32584	32804	
4906	0	32580	32858	
4907	0	33028	32926	
4908	0	33128	32767	
4909	0	32706	33240	
4910	0	32744	33536	
4911	0	32752	33471	
4912	0	32736	32466	
4913	0	32656	32368	
4914	0	32868	32638	
4915	0	33124	32455	
4916	0	33228	32038	
4917	0	32272	32372	
4918	0	32148	32322	
4919	0	32340	32588	
4920	0	32800	32678	
4921	0	32940	32662	
4922	0	32678	32724	
4923	0	32704	32585	
4924	0	32500	32687	
4925	0	32852	32631	
4926	0	32870	33002	
4927	0	32896	32610	
4928	0	32697	32735	
4929	0	33144	32730	
4930	0	32838	32919	
4931	0	32760	33006	
4932	0	32992	33058	
4933	0	33152	33054	
4934	0	33066	32935	
4935	0	33052	32823	
4936	0	32934	32974	
4937	0	33168	32903	
4938	0	33076	32949	
4939	0	32664	32834	
4940	0	32543	32498	
4941	0	32860	32772	
4942	0	32896	32958	
4943	0	32742	32820	
4944	0	32672	32609	
4945	0	32692	32646	
4946	0	32840	32620	
4947	0	32562	32720	
4948	0	32586	32788	
4949	0	32952	33018	
4950	0	32996	32618	
4951	0	33166	32814	
4952	0	32757	32636	
4953	0	32428	32548	
4954	0	32758	32832	
4955	0	32656	32804	
4956	0	32634	32593	
4957	0	32620	32978	
4958	0	32756	32828	
4959	0	32876	32806	
4960	0	32752	32909	
4961	0	33046	32962	
4962	0	32948	32800	
4963	0	32968	32517	
4964	0	32804	32564	
4965	0	33088	32641	
4966	0	33004	32588	
4967	0	32768	32670	
4968	0	32804	32644	
4969	0	32964	32756	
4970	0	32824	32826	
4971	0	32632	32804	
4972	0	32782	32996	
4973	0	32984	33073	
4974	0	32680	32938	
4975	0	32614	32903	
4976	0	32484	32866	
4977	0	32564	32431	
4978	0	32554	32586	
4979	0	32296	32608	
4980	0	33048	32542	
4981	0	33220	32714	
4982	0	33004	32761	
4983	0	33060	32878	
4984	0	32936	32944	
4985	0	32872	32757	
4986	0	32796	32820	
4987	0	32888	32924	
4988	0	32940	32976	
4989	0	32808	33096	
4990	0	32756	32794	
4991	0	32746	32418	
4992	0	32774	32550	
4993	0	32664	32832	
4994	0	32824	32772	
4995	0	32734	32636	
4996	0	33032	32601	
4997	0	33228	32684	
4998	0	33088	32798	
4999	0	32732	32664	
5000	0	32356	32500	
5001	0	32366	32702	
5002	0	32724	32666	
5003	0	33080	32862	
5004	0	32888	32642	
5005	0	32642	32649	
5006	0	32696	32710	
5007	0	32762	32892	
5008	0	32932	33515	
5009	0	32824	33262	
5010	0	32570	32894	
5011	0	32586	32984	
5012	0	32824	32708	
5013	0	32704	32584	
5014	0	32610	32450	
5015	0	32696	32556	
5016	0	32708	33052	
5017	0	32998	33048	
5018	0	33050	32739	
5019	0	33000	32775	
5020	0	33100	32536	
5021	0	33106	32454	
5022	0	33092	32374	
5023	0	32796	32810	
5024	0	33020	32743	
5025	0	32930	32628	
5026	0	32844	32685	
5027	0	32916	32831	
5028	0	32884	32772	
5029	0	32804	32844	
5030	0	32718	32580	
5031	0	32604	32679	
5032	0	32278	32852	
5033	0	32360	32726	
5034	0	32712	32678	
5035	0	33020	32670	
5036	0	32892	32718	
5037	0	32900	32903	
5038	0	32942	32932	
5039	0	32820	32900	
5040	0	32632	32970	
5041	0	32708	33266	
5042	0	32516	32884	
5043	0	32600	32508	
5044	0	32536	32608	
5045	0	32908	32972	
5046	0	33122	33022	
5047	0	33126	32841	
5048	0	32910	32647	
5049	0	32766	32884	
5050	0	32772	32586	
5051	0	33104	32654	
5052	0	32796	32625	
5053	0	32770	32440	
5054	0	32836	32556	
5055	0	32884	32544	
5056	0	32808	32788	
5057	0	32858	32940	
5058	0	32392	33080	
5059	0	32493	32918	
5060	0	32854	32738	
5061	0	32852	32864	
5062	0	33020	32720	
5063	0	32616	32562	
5064	0	32580	32576	
5065	0	32812	32612	
5066	0	32880	32652	
5067	0	32810	32870	
5068	0	32604	32902	
5069	0	33010	32764	
5070	0	33512	32656	
5071	0	32710	32828	
5072	0	32446	32538	
5073	0	32700	32622	
5074	0	32590	33012	
5075	0	32732	33268	
5076	0	33120	33450	
5077	0	33328	32976	
5078	0	33240	32928	
5079	0	32904	32930	
5080	0	32674	32775	
5081	0	32768	32846	
5082	0	32928	32775	
5083	0	33164	32544	
5084	0	32772	32464	
5085	0	32712	32322	
5086	0	32746	32436	
5087	0	32776	32674	
5088	0	32888	32540	
5089	0	32896	32767	
5090	0	32656	32990	
5091	0	32544	32854	
5092	0	32538	32886	
5093	0	32648	32890	
5094	0	32584	32664	
5095	0	32772	32744	
5096	0	32668	32769	
5097	0	32724	32775	
5098	0	32652	32852	
5099	0	32816	32660	
5100	0	32896	32707	
5101	0	33054	32887	
5102	0	33082	32942	
5103	0	33024	33054	
5104	0	32832	33044	
5105	0	32630	32842	
5106	0	32744	33022	
5107	0	32792	32695	
5108	0	32608	32636	
5109	0	32906	32554	
5110	0	32976	32396	
5111	0	33134	32246	
5112	0	33064	32754	
5113	0	33072	33344	
5114	0	33156	32839	
5115	0	33096	32592	
5116	0	32652	32566	
5117	0	32644	32530	
5118	0	32592	32518	
5119	0	32592	32596	
5120	0	32316	32834	
5121	0	32184	32731	
5122	0	32628	32882	
5123	0	32988	33008	
5124	0	33184	32924	
5125	0	33152	32850	
5126	0	32836	32871	
5127	0	32652	32804	
5128	0	32537	33128	
5129	0	32820	32934	
5130	0	33012	32956	
5131	0	32904	32866	
5132	0	32748	32412	
5133	0	32732	32488	
5134	0	32658	32452	
5135	0	33064	32558	
5136	0	33040	32982	
5137	0	32938	32919	
5138	0	32904	33047	
5139	0	33056	32692	
5140	0	32960	32864	
5141	0	32818	32892	
5142	0	32664	32658	
5143	0	32836	32631	
5144	0	33140	32670	
5145	0	33136	32582	
5146	0	33176	32962	
5147	0	32776	32856	
5148	0	32056	32812	
5149	0	32222	32644	
5150	0	32750	32876	
5151	0	32702	32918	
5152	0	32804	32551	
5153	0	32404	32952	
5154	0	32676	32516	
5155	0	32910	32668	
5156	0	32728	32830	
5157	0	32992	32871	
5158	0	32970	32736	
5159	0	32926	32954	
5160	0	32948	32896	
5161	0	33052	32552	
5162	0	32732	32710	
5163	0	32804	32918	
5164	0	32884	32830	
5165	0	32912	32836	
5166	0	32744	32768	
5167	0	32848	32832	
5168	0	32928	32424	
5169	0	32690	32415	
5170	0	32690	32903	
5171	0	32788	32678	
5172	0	32922	32456	
5173	0	32890	32546	
5174	0	33218	32874	
5175	0	32642	32938	
5176	0	32274	32750	
5177	0	32512	33068	
5178	0	32884	33128	
5179	0	32774	33108	
5180	0	32780	32930	
5181	0	32664	32703	
5182	0	32938	32464	
5183	0	33068	32422	
5184	0	32828	32592	
5185	0	32814	32676	
5186	0	33034	32650	
5187	0	33044	32690	
5188	0	32942	32913	
5189	0	32644	32903	
5190	0	32530	32775	
5191	0	32622	32890	
5192	0	32826	32928	
5193	0	32860	32728	
5194	0	32836	32964	
5195	0	32768	32808	
5196	0	32772	32772	
5197	0	32944	32697	
5198	0	32968	32644	
5199	0	32894	32954	
5200	0	32902	33064	
5201	0	32756	32669	
5202	0	32792	32550	
5203	0	32628	32766	
5204	0	32748	32769	
5205	0	32844	32791	
5206	0	32904	32836	
5207	0	32936	32944	
5208	0	33024	32534	
5209	0	33058	32558	
5210	0	32904	32620	
5211	0	32868	32638	
5212	0	32840	32856	
5213	0	32414	32716	
5214	0	32554	32736	
5215	0	32382	32732	
5216	0	32252	32740	
5217	0	32536	32732	
5218	0	33080	32650	
5219	0	33130	32720	
5220	0	32872	32866	
5221	0	32952	32951	
5222	0	32784	32852	
5223	0	32978	32942	
5224	0	32868	32660	
5225	0	32796	32711	
5226	0	32902	32806	
5227	0	32952	32822	
5228	0	32984	32804	
5229	0	33018	32998	
5230	0	32848	32960	
5231	0	32600	32922	
5232	0	32719	32408	
5233	0	32884	32452	
5234	0	33022	32727	
5235	0	32874	32702	
5236	0	32938	32935	
5237	0	32924	32726	
5238	0	32852	32528	
5239	0	32864	32766	
5240	0	32616	32896	
5241	0	32580	32832	
5242	0	32724	32774	
5243	0	32520	32972	
5244	0	32608	32884	
5245	0	33050	32636	
5246	0	32934	32844	
5247	0	32692	32786	
5248	0	32696	32666	
5249	0	32588	33046	
5250	0	32808	32932	
5251	0	32892	32734	
5252	0	32994	32746	
5253	0	33082	32572	
5254	0	33131	32666	
5255	0	33136	32502	
5256	0	32776	32630	
5257	0	32736	32748	
5258	0	32540	32788	
5259	0	32370	32998	
5260	0	32516	33064	
5261	0	32616	32727	
5262	0	32644	32814	
5263	0	32878	32860	
5264	0	33002	32652	
5265	0	32816	32720	
5266	0	32958	32566	
5267	0	32948	32742	
5268	0	32808	32760	
5269	0	32828	32764	
5270	0	32854	32670	
5271	0	32846	32788	
5272	0	32648	32864	
5273	0	32720	32922	
5274	0	32852	32794	
5275	0	32740	32575	
5276	0	32834	32895	
5277	0	33024	32764	
5278	0	32832	32618	
5279	0	32766	32414	
5280	0	32988	32458	
5281	0	32724	32794	
5282	0	32764	32946	
5283	0	32876	32851	
5284	0	32890	32775	
5285	0	32776	33031	
5286	0	32930	33060	
5287	0	32948	32956	
5288	0	33090	32605	
5289	0	33168	32586	
5290	0	32872	32487	
5291	0	32620	32696	
5292	0	32606	32898	
5293	0	32732	32956	
5294	0	32712	32737	
5295	0	32636	32722	
5296	0	32442	32820	
5297	0	32648	32922	
5298	0	32762	32752	
5299	0	32936	32856	
5300	0	32944	32775	
5301	0	33106	32692	
5302	0	33244	32456	
5303	0	32956	32446	
5304	0	32600	32432	
5305	0	32818	32608	
5306	0	32932	32724	
5307	0	32996	32734	
5308	0	32876	33095	
5309	0	32550	33036	
5310	0	32660	32843	
5311	0	32784	32812	
5312	0	32756	32910	
5313	0	32432	32924	
5314	0	32348	32775	
5315	0	32548	32634	
5316	0	32812	32762	
5317	0	32917	32802	
5318	0	32748	32820	
5319	0	32968	32846	
5320	0	32922	32802	
5321	0	32920	32830	
5322	0	33008	32637	
5323	0	33044	32628	
5324	0	32960	32898	
5325	0	32896	32775	
5326	0	32794	32860	
5327	0	32752	32572	
5328	0	32810	32668	
5329	0	32820	32903	
5330	0	32794	32810	
5331	0	32710	32750	
5332	0	32932	32607	
5333	0	32880	32619	
5334	0	32728	32823	
5335	0	32906	32864	
5336	0	32668	32861	
5337	0	32334	32964	
5338	0	32526	33012	
5339	0	32668	32359	
5340	0	32784	32658	
5341	0	32700	32764	
5342	0	32632	32670	
5343	0	32664	32408	
5344	0	32860	32576	
5345	0	32948	32763	
5346	0	33128	32756	
5347	0	33120	32855	
5348	0	33172	32820	
5349	0	33006	32871	
5350	0	32988	32678	
5351	0	32864	32844	
5352	0	32784	32884	
5353	0	32688	33058	
5354	0	32614	32958	
5355	0	32710	32721	
5356	0	32826	32542	
5357	0	32889	32902	
5358	0	32840	32775	
5359	0	33008	32690	
5360	0	32956	32588	
5361	0	32944	32556	
5362	0	32808	32764	
5363	0	32548	32935	
5364	0	32440	32858	
5365	0	32396	32872	
5366	0	32593	32794	
5367	0	32648	32632	
5368	0	32932	32775	
5369	0	32887	32752	
5370	0	32809	32624	
5371	0	33064	32673	
5372	0	33116	32655	
5373	0	32842	32852	
5374	0	32738	32775	
5375	0	33146	32708	
5376	0	32948	32824	
5377	0	32650	32911	
5378	0	32840	32654	
5379	0	33192	32612	
5380	0	32726	32775	
5381	0	32364	32822	
5382	0	32514	32692	
5383	0	32608	32847	
5384	0	32620	32802	
5385	0	32976	32746	
5386	0	33144	32696	
5387	0	32952	32984	
5388	0	32888	32730	
5389	0	32712	32757	
5390	0	32800	32948	
5391	0	32796	32986	
5392	0	32820	32684	
5393	0	32926	32762	
5394	0	32780	32924	
5395	0	32860	32903	
5396	0	32600	32630	
5397	0	32608	32537	
5398	0	32716	32550	
5399	0	32820	32490	
5400	0	32940	32582	
5401	0	32812	32703	
5402	0	32928	32746	
5403	0	32640	32622	
5404	0	32745	32612	
5405	0	32764	32678	
5406	0	32794	32774	
5407	0	32538	32710	
5408	0	32766	32638	
5409	0	32646	32694	
5410	0	32720	32582	
5411	0	32894	32543	
5412	0	32698	32622	
5413	0	32560	32538	
5414	0	32716	32612	
5415	0	32720	32640	
5416	0	32914	32822	
5417	0	32884	32838	
5418	0	32854	32679	
5419	0	32828	32720	
5420	0	32730	32698	
5421	0	32928	32743	
5422	0	33048	32890	
5423	0	33172	33008	
5424	0	33180	32976	
5425	0	33000	33196	
5426	0	33060	33172	
5427	0	33216	33440	
5428	0	33136	33270	
5429	0	33082	33214	
5430	0	32970	33118	
5431	0	32908	33256	
5432	0	32880	33368	
5433	0	32864	33062	
5434	0	32858	32910	
5435	0	32848	32828	
5436	0	32782	32633	
5437	0	32700	32460	
5438	0	32596	32618	
5439	0	32672	32558	
5440	0	32592	32358	
5441	0	32516	32340	
5442	0	32500	32320	
5443	0	32652	32318	
5444	0	32696	32390	
5445	0	32716	32466	
5446	0	32528	32665	
5447	0	32632	32560	
5448	0	32822	32610	
5449	0	32824	32666	
5450	0	32908	32796	
5451	0	32902	32868	
5452	0	32988	32718	
5453	0	32809	32940	
5454	0	32760	32775	
5455	0	32608	32830	
5456	0	32536	32947	
5457	0	32832	32930	
5458	0	32843	32960	
5459	0	32952	32854	
5460	0	32960	32919	
5461	0	32888	32966	
5462	0	32690	32556	
5463	0	32724	32639	
5464	0	32754	32460	
5465	0	33016	32476	
5466	0	32928	32598	
5467	0	32708	32618	
5468	0	32644	32630	
5469	0	32792	32859	
5470	0	32938	32903	
5471	0	32754	32844	
5472	0	32718	32827	
5473	0	33064	32998	
5474	0	32760	32970	
5475	0	32660	32946	
5476	0	32524	32846	
5477	0	32680	32755	
5478	0	33166	32790	
5479	0	33018	32490	
5480	0	33012	32647	
5481	0	32970	32596	
5482	0	32984	32519	
5483	0	33145	32679	
5484	0	32902	32834	
5485	0	32622	32869	
5486	0	32796	32680	
5487	0	32680	32558	
5488	0	32616	32849	
5489	0	32724	32908	
5490	0	32712	32898	
5491	0	32798	32762	
5492	0	32862	32738	
5493	0	32888	32908	
5494	0	32912	32797	
5495	0	32832	32708	
5496	0	32798	32864	
5497	0	32808	32796	
5498	0	32872	32672	
5499	0	32806	32856	
5500	0	32760	32636	
5501	0	32644	32714	
5502	0	32720	32815	
5503	0	32588	32928	
5504	0	32700	32940	
5505	0	32704	32954	
5506	0	32794	32980	
5507	0	32988	32600	
5508	0	33104	32404	
5509	0	32812	32462	
5510	0	32744	32542	
5511	0	32890	32732	
5512	0	32928	32593	
5513	0	32976	32696	
5514	0	32644	32855	
5515	0	32922	32900	
5516	0	32768	32967	
5517	0	32672	32852	
5518	0	32772	32935	
5519	0	32902	32804	
5520	0	32900	32814	
5521	0	33044	32716	
5522	0	32868	32748	
5523	0	32652	32720	
5524	0	32868	32673	
5525	0	32624	32978	
5526	0	32718	32656	
5527	0	32692	32732	
5528	0	32662	32788	
5529	0	32800	32686	
5530	0	32706	32788	
5531	0	32588	32967	
5532	0	32572	32937	
5533	0	32776	32712	
5534	0	32836	32757	
5535	0	33036	32808	
5536	0	33068	32792	
5537	0	33128	32735	
5538	0	32968	32880	
5539	0	32832	32820	
5540	0	32854	32870	
5541	0	32770	32774	
5542	0	32766	32724	
5543	0	32898	32614	
5544	0	32684	32546	
5545	0	32680	32722	
5546	0	32754	32622	
5547	0	32960	32559	
5548	0	32942	32919	
5549	0	32624	32868	
5550	0	32740	32860	
5551	0	32912	32775	
5552	0	32824	32839	
5553	0	32872	32724	
5554	0	32834	32775	
5555	0	32796	32689	
5556	0	32820	32660	
5557	0	32908	32718	
5558	0	32832	32767	
5559	0	32713	32764	
5560	0	32804	32724	
5561	0	32784	32839	
5562	0	32696	32871	
5563	0	32756	32838	
5564	0	32696	32730	
5565	0	32598	32836	
5566	0	32744	32898	
5567	0	32754	32820	
5568	0	32800	32836	
5569	0	33040	32646	
5570	0	32640	32348	
5571	0	32538	32748	
5572	0	32784	32844	
5573	0	33000	32519	
5574	0	32992	32548	
5575	0	32914	32758	
5576	0	32778	32688	
5577	0	32878	32743	
5578	0	32894	32734	
5579	0	32724	32963	
5580	0	32706	32642	
5581	0	32700	32632	
5582	0	32988	32842	
5583	0	32948	33220	
5584	0	32988	33193	
5585	0	32792	32903	
5586	0	32740	32742	
5587	0	32808	32764	
5588	0	32824	32696	
5589	0	32926	32694	
5590	0	32894	32870	
5591	0	32940	32548	
5592	0	32752	32532	
5593	0	32768	32935	
5594	0	32736	32967	
5595	0	32566	32754	
5596	0	32712	32660	
5597	0	32860	32366	
5598	0	32881	32590	
5599	0	32752	32600	
5600	0	32654	32718	
5601	0	32902	32703	
5602	0	32836	32838	
5603	0	32844	32852	
5604	0	32896	33122	
5605	0	32820	33058	
5606	0	32836	33082	
5607	0	32984	32926	
5608	0	32940	32742	
5609	0	32886	32612	
5610	0	32912	32374	
5611	0	32868	32380	
5612	0	32584	32352	
5613	0	32764	32821	
5614	0	32642	32880	
5615	0	32792	32694	
5616	0	32664	32907	
5617	0	32788	32822	
5618	0	32924	32798	
5619	0	32980	32928	
5620	0	32710	32743	
5621	0	32606	32903	
5622	0	32736	32673	
5623	0	32664	32720	
5624	0	32834	32767	
5625	0	32932	32686	
5626	0	32960	32686	
5627	0	32776	32828	
5628	0	32746	32790	
5629	0	32784	32808	
5630	0	32960	32913	
5631	0	32880	32652	
5632	0	32784	32850	
5633	0	32880	32868	
5634	0	32808	32906	
5635	0	32700	32748	
5636	0	32728	33014	
5637	0	32960	32732	
5638	0	32864	32655	
5639	0	32868	32742	
5640	0	32712	32698	
5641	0	32692	32736	
5642	0	32828	32790	
5643	0	32868	32500	
5644	0	32916	32624	
5645	0	32910	32592	
5646	0	32924	32508	
5647	0	32716	32859	
5648	0	32680	32832	
5649	0	32728	32828	
5650	0	32736	32768	
5651	0	32756	32930	
5652	0	32788	32964	
5653	0	32996	32692	
5654	0	32940	32672	
5655	0	33016	32935	
5656	0	32980	32750	
5657	0	32924	32846	
5658	0	32840	32887	
5659	0	32796	32888	
5660	0	32808	32710	
5661	0	32768	32760	
5662	0	32620	32754	
5663	0	32520	32562	
5664	0	32492	32686	
5665	0	32626	32702	
5666	0	32764	32666	
5667	0	32788	32711	
5668	0	32822	32856	
5669	0	32968	32800	
5670	0	33072	32903	
5671	0	32980	32974	
5672	0	32926	32968	
5673	0	32744	32788	
5674	0	32734	32775	
5675	0	32756	32654	
5676	0	32678	32566	
5677	0	32816	32671	
5678	0	32956	32756	
5679	0	33024	32857	
5680	0	32676	32938	
5681	0	32810	32634	
5682	0	32864	32702	
5683	0	32812	32680	
5684	0	32752	32634	
5685	0	32856	32647	
5686	0	32736	32696	
5687	0	32794	32550	
5688	0	32716	32618	
5689	0	32840	32846	
5690	0	32800	32928	
5691	0	32868	32766	
5692	0	32990	32834	
5693	0	32868	32728	
5694	0	32752	32736	
5695	0	32824	32732	
5696	0	32714	32938	
5697	0	32752	32828	
5698	0	32792	32768	
5699	0	32786	32911	
5700	0	32800	32802	
5701	0	32788	32638	
5702	0	32864	32720	
5703	0	32810	32802	
5704	0	32850	32700	
5705	0	32864	32734	
5706	0	32730	32928	
5707	0	32882	32804	
5708	0	32748	32770	
5709	0	32538	32732	
5710	0	32744	32784	
5711	0	32768	32758	
5712	0	32740	32578	
5713	0	32828	32612	
5714	0	32872	32540	
5715	0	32840	32607	
5716	0	32842	32612	
5717	0	32824	32820	
5718	0	32804	32775	
5719	0	32884	32912	
5720	0	32842	32950	
5721	0	32874	32813	
5722	0	32774	32874	
5723	0	32874	32820	
5724	0	32812	32612	
5725	0	32780	32560	
5726	0	32928	32629	
5727	0	32742	32732	
5728	0	32832	32878	
5729	0	32776	32838	
5730	0	32660	32852	
5731	0	32760	32807	
5732	0	32672	32894	
5733	0	32766	32812	
5734	0	32756	32676	
5735	0	32826	32850	
5736	0	32744	32775	
5737	0	32730	32700	
5738	0	32857	32687	
5739	0	32836	32513	
5740	0	32856	32820	
5741	0	32784	32814	
5742	0	32880	32656	
5743	0	32918	32647	
5744	0	32816	32748	
5745	0	32886	32758	
5746	0	32900	32886	
5747	0	32837	32844	
5748	0	32797	32738	
5749	0	32802	32812	
5750	0	32736	32730	
5751	0	32812	32944	
5752	0	32752	32822	
5753	0	32792	32714	
5754	0	32788	32834	
5755	0	32774	32742	
5756	0	32728	32816	
5757	0	32693	32796	
5758	0	32752	32708	
5759	0	32870	32808	
5760	0	32820	32847	
5761	0	32756	32796	
5762	0	32792	32784	
5763	0	32864	32823	
5764	0	32844	32638	
5765	0	32826	32644	
5766	0	32840	32692	
5767	0	32952	32628	
5768	0	32912	32624	
5769	0	32768	32752	
5770	0	32772	32660	
5771	0	32876	32724	
5772	0	32742	32716	
5773	0	32612	32743	
5774	0	32624	32830	
5775	0	32696	32914	
5776	0	32692	32817	
5777	0	32794	32879	
5778	0	32864	32810	
5779	0	32898	32844	
5780	0	32906	32878	
5781	0	32860	32769	
5782	0	32916	32842	
5783	0	32894	32820	
5784	0	32904	32825	
5785	0	32916	32722	
5786	0	32788	32744	
5787	0	32736	32408	
5788	0	32748	32378	
5789	0	32772	32662	
5790	0	32660	32548	
5791	0	32732	32700	
5792	0	32684	32724	
5793	0	32744	32895	
5794	0	32828	33018	
5795	0	32852	32836	
5796	0	32740	32980	
5797	0	32792	32912	
5798	0	32922	32932	
5799	0	32908	32670	
5800	0	32836	32714	
5801	0	32704	32830	
5802	0	32740	32743	
5803	0	32712	32766	
5804	0	32704	32814	
5805	0	32804	32633	
5806	0	32824	32789	
5807	0	32878	32798	
5808	0	32866	32646	
5809	0	32772	32704	
5810	0	32786	32700	
5811	0	32844	32569	
5812	0	32912	32839	
5813	0	32896	32852	
5814	0	32828	32856	
5815	0	32774	32894	
5816	0	32768	32821	
5817	0	32844	32726	
5818	0	32876	32746	
5819	0	32842	32732	
5820	0	32826	32552	
5821	0	32770	32724	
5822	0	32800	32788	
5823	0	32776	32794	
5824	0	32746	32898	
5825	0	32764	32898	
5826	0	32836	32660	
5827	0	32792	32712	
5828	0	32824	32679	
5829	0	32764	32775	
5830	0	32724	32710	
5831	0	32884	32888	
5832	0	32836	32893	
5833	0	32718	32808	
5834	0	32812	32768	
5835	0	32840	32734	
5836	0	32790	32770	
5837	0	32948	32754	
5838	0	32906	32786	
5839	0	32948	32830	
5840	0	32828	32788	
5841	0	32800	32768	
5842	0	32728	32708	
5843	0	32645	32655	
5844	0	32716	32897	
5845	0	32816	32822	
5846	0	32740	32832	
5847	0	32786	32844	
5848	0	32780	32808	
5849	0	32792	32935	
5850	0	32842	32916	
5851	0	32756	32854	
5852	0	32794	32568	
5853	0	32844	32686	
5854	0	32816	32690	
5855	0	32816	32646	
5856	0	32956	32736	
5857	0	32792	32702	
5858	0	32828	32604	
5859	0	32812	32774	
5860	0	32876	32832	
5861	0	32864	32664	
5862	0	32876	32870	
5863	0	32876	32892	
5864	0	32810	32710	
5865	0	32832	32808	
5866	0	32828	32775	
5867	0	32871	32647	
5868	0	32916	32692	
5869	0	32770	32722	
5870	0	32644	32682	
5871	0	32748	32775	
5872	0	32734	32820	
5873	0	32774	32900	
5874	0	32740	32775	
5875	0	32690	32794	
5876	0	32752	32771	
5877	0	32778	32774	
5878	0	32812	32762	
5879	0	32808	32894	
5880	0	32820	32734	
5881	0	32866	32804	
5882	0	32858	32786	
5883	0	32904	32660	
5884	0	32676	32702	
5885	0	32778	32723	
5886	0	32940	32724	
5887	0	32796	32817	
5888	0	32852	32766	
5889	0	32936	32820	
5890	0	32860	32679	
5891	0	32812	32846	
5892	0	32818	32866	
5893	0	32832	32838	
5894	0	32860	32807	
5895	0	32704	33020	
5896	0	32798	32916	
5897	0	32824	32896	
5898	0	32784	32838	
5899	0	32772	32606	
5900	0	32832	32692	
5901	0	32892	32618	
5902	0	32884	32580	
5903	0	32818	32734	
5904	0	32872	32686	
5905	0	32840	32756	
5906	0	32776	32664	
5907	0	32688	32748	
5908	0	32706	32729	
5909	0	32808	32766	
5910	0	32704	32735	
5911	0	32784	32964	
5912	0	32728	32863	
5913	0	32672	32742	
5914	0	32780	32740	
5915	0	32864	32798	
5916	0	32782	32888	
5917	0	32842	32871	
5918	0	32772	32830	
5919	0	32885	32710	
5920	0	32876	32542	
5921	0	32840	32678	
5922	0	32848	32732	
5923	0	32784	32801	
5924	0	32812	32863	
5925	0	32800	32911	
5926	0	32788	32868	
5927	0	32832	32734	
5928	0	32846	32738	
5929	0	32820	32606	
5930	0	32852	32674	
5931	0	32880	32624	
5932	0	32868	32642	
5933	0	32864	32856	
5934	0	32772	32726	
5935	0	32724	32767	
5936	0	32752	32644	
5937	0	32788	32668	
5938	0	32788	32664	
5939	0	32772	32794	
5940	0	32860	32698	
5941	0	32832	32839	
5942	0	32850	32734	
5943	0	32832	32620	
5944	0	32840	32747	
5945	0	32826	32634	
5946	0	32809	32804	
5947	0	32788	32768	
5948	0	32738	32790	
5949	0	32864	32674	
5950	0	32872	32822	
5951	0	32804	32700	
5952	0	32756	32762	
5953	0	32810	32706	
5954	0	32842	32796	
5955	0	32804	32752	
5956	0	32884	32814	
5957	0	32704	32724	
5958	0	32768	32792	
5959	0	32770	32860	
5960	0	32814	32839	
5961	0	32804	32804	
5962	0	32841	32704	
5963	0	32804	32822	
5964	0	32908	32682	
5965	0	32920	32828	
5966	0	32898	32690	
5967	0	32884	32714	
5968	0	32836	32736	
5969	0	32800	32902	
5970	0	32756	32820	
5971	0	32704	32856	
5972	0	32766	32862	
5973	0	32664	32889	
5974	0	32762	32769	
5975	0	32728	32580	
5976	0	32896	32518	
5977	0	32860	32550	
5978	0	32984	32724	
5979	0	32898	32721	
5980	0	32808	32640	
5981	0	32774	32708	
5982	0	32864	32838	
5983	0	32880	32720	
5984	0	32792	32838	
5985	0	32816	32796	
5986	0	32792	32900	
5987	0	32816	32756	
5988	0	32738	32804	
5989	0	32844	32807	
5990	0	32832	32859	
5991	0	32840	32876	
5992	0	32764	32692	
5993	0	32740	32766	
5994	0	32776	32688	
5995	0	32848	32724	
5996	0	32912	32741	
5997	0	32870	32694	
5998	0	32832	32916	
5999	0	32828	32954	
6000	0	32848	32800	
6001	0	32766	32775	
6002	0	32752	32839	
6003	0	32804	32752	
6004	0	32704	32748	
6005	0	32738	32796	
6006	0	32788	32668	
6007	0	32792	32702	
6008	0	32796	32736	
6009	0	32872	32724	
6010	0	32808	32854	
6011	0	32790	32702	
6012	0	32810	32792	
