# OpenSignals Text File Format. Version 1
# {"00:07:80:8C:0A:39": {"position": 0, "device": "biosignalsplux", "device name": "00:07:80:8C:0A:39", "device connection": "BTH00:07:80:8C:0A:39", "sampling rate": 1000, "resolution": [16, 16], "firmware version": 776, "comments": "", "keywords": "", "mode": 0, "sync interval": 2, "date": "2023-3-20", "time": "20:13:59.131", "channels": [1, 2], "sensor": ["EMG", "EMG"], "label": ["CH1", "CH2"], "column": ["nSeq", "DI", "CH1", "CH2"], "special": [{"SpO2": [80, 40, 5, 4, 3, 3]}, {"SpO2": [80, 40, 5, 4, 3, 3]}, {"SpO2": [80, 40, 5, 4, 3, 3]}, {"SpO2": [80, 40, 5, 4, 3, 3]}, {"SpO2": [80, 40, 5, 4, 3, 3]}, {"SpO2": [80, 40, 5, 4, 3, 3]}, {"SpO2": [80, 40, 5, 4, 3, 3]}, {"SpO2": [80, 40, 5, 4, 3, 3]}], "digital IO": [0, 1], "sleeve color": ["gray", "yellow"], "convertedValues": 0}}
# EndOfHeader
0	0	32860	32694	
1	0	32834	32743	
2	0	32800	32796	
3	0	32782	32746	
4	0	32838	32700	
5	0	32792	32798	
6	0	32832	32814	
7	0	32721	32699	
8	0	32764	32894	
9	0	32796	32732	
10	0	32804	32696	
11	0	32828	32804	
12	0	32838	32756	
13	0	32796	32852	
14	0	32820	32805	
15	0	32790	32740	
16	0	32804	32798	
17	0	32764	32816	
18	0	32836	32716	
19	0	32764	32724	
20	0	32808	32782	
21	0	32784	32702	
22	0	32916	32775	
23	0	32804	32748	
24	0	32820	32846	
25	0	32796	32756	
26	0	32778	32772	
27	0	32832	32812	
28	0	32794	32736	
29	0	32836	32760	
30	0	32768	32871	
31	0	32812	32754	
32	0	32828	32740	
33	0	32828	32878	
34	0	32804	32725	
35	0	32820	32798	
36	0	32788	32724	
37	0	32784	32750	
38	0	32743	32734	
39	0	32796	32792	
40	0	32832	32834	
41	0	32848	32770	
42	0	32868	32775	
43	0	32738	32742	
44	0	32852	32782	
45	0	32800	32847	
46	0	32836	32752	
47	0	32862	32704	
48	0	32862	32810	
49	0	32804	32826	
50	0	32780	32815	
51	0	32836	32632	
52	0	32780	32660	
53	0	32750	32775	
54	0	32844	32752	
55	0	32840	32820	
56	0	32836	32718	
57	0	32892	32761	
58	0	32802	32807	
59	0	32772	32887	
60	0	32832	32684	
61	0	32764	32821	
62	0	32808	32732	
63	0	32892	32764	
64	0	32822	32711	
65	0	32774	32704	
66	0	32792	32775	
67	0	32728	32774	
68	0	32824	32663	
69	0	32832	32794	
70	0	32800	32748	
71	0	32824	32752	
72	0	32756	32814	
73	0	32872	32712	
74	0	32730	32696	
75	0	32806	32775	
76	0	32804	32862	
77	0	32800	32788	
78	0	32792	32775	
79	0	32768	32876	
80	0	32824	32792	
81	0	32888	32814	
82	0	32838	32702	
83	0	32776	32702	
84	0	32844	32792	
85	0	32848	32800	
86	0	32832	32736	
87	0	32788	32799	
88	0	32768	32807	
89	0	32802	32686	
90	0	32820	32838	
91	0	32764	32700	
92	0	32798	32808	
93	0	32752	32662	
94	0	32840	32711	
95	0	32760	32804	
96	0	32760	32728	
97	0	32772	32712	
98	0	32776	32775	
99	0	32804	32770	
100	0	32836	32862	
101	0	32832	32724	
102	0	32744	32770	
103	0	32826	32816	
104	0	32844	32716	
105	0	32840	32782	
106	0	32810	32768	
107	0	32840	32775	
108	0	32800	32675	
109	0	32856	32761	
110	0	32778	32734	
111	0	32832	32705	
112	0	32844	32740	
113	0	32808	32794	
114	0	32774	32758	
115	0	32876	32890	
116	0	32880	32812	
117	0	32806	32772	
118	0	32810	32711	
119	0	32840	32790	
120	0	32740	32774	
121	0	32800	32633	
122	0	32830	32774	
123	0	32752	32714	
124	0	32780	32812	
125	0	32844	32686	
126	0	32816	32732	
127	0	32788	32760	
128	0	32825	32762	
129	0	32836	32807	
130	0	32886	32687	
131	0	32848	32826	
132	0	32800	32679	
133	0	32836	32719	
134	0	32860	32754	
135	0	32808	32820	
136	0	32772	32772	
137	0	32830	32678	
138	0	32838	32824	
139	0	32808	32775	
140	0	32820	32710	
141	0	32790	32842	
142	0	32806	32796	
143	0	32840	32695	
144	0	32874	32775	
145	0	32720	32816	
146	0	32790	32744	
147	0	32796	32822	
148	0	32870	32830	
149	0	32832	32662	
150	0	32808	32814	
151	0	32754	32808	
152	0	32912	32791	
153	0	32884	32704	
154	0	32796	32728	
155	0	32832	32719	
156	0	32860	32700	
157	0	32780	32824	
158	0	32790	32792	
159	0	32800	32882	
160	0	32866	32768	
161	0	32840	32868	
162	0	32800	32758	
163	0	32762	32806	
164	0	32844	32642	
165	0	32828	32896	
166	0	32814	32884	
167	0	32868	32807	
168	0	32808	32740	
169	0	32806	32830	
170	0	32856	32834	
171	0	32804	32826	
172	0	32748	32704	
173	0	32828	32766	
174	0	32784	32856	
175	0	32832	32740	
176	0	32854	32804	
177	0	32892	32734	
178	0	32868	32775	
179	0	32832	32740	
180	0	32824	32710	
181	0	32804	32764	
182	0	32772	32810	
183	0	32856	32736	
184	0	32832	32800	
185	0	32780	32839	
186	0	32902	32806	
187	0	32836	32808	
188	0	32764	32852	
189	0	32824	32860	
190	0	32800	32814	
191	0	32848	32732	
192	0	32830	32788	
193	0	32834	32812	
194	0	32846	32792	
195	0	32844	32694	
196	0	32810	32688	
197	0	32730	32708	
198	0	32734	32788	
199	0	32852	32628	
200	0	32816	32764	
201	0	32852	32740	
202	0	32796	32764	
203	0	32754	32820	
204	0	32768	32724	
205	0	32806	32853	
206	0	32848	32775	
207	0	32786	32688	
208	0	32838	32683	
209	0	32732	32828	
210	0	32816	32817	
211	0	32848	32760	
212	0	32784	32667	
213	0	32804	32767	
214	0	32876	32808	
215	0	32860	32710	
216	0	32764	32815	
217	0	32775	32756	
218	0	32846	32680	
219	0	32842	32746	
220	0	32810	32716	
221	0	32828	32752	
222	0	32816	32618	
223	0	32808	32756	
224	0	32872	32798	
225	0	32820	32808	
226	0	32800	32750	
227	0	32802	32808	
228	0	32796	32839	
229	0	32820	32794	
230	0	32768	32804	
231	0	32772	32716	
232	0	32776	32754	
233	0	32870	32840	
234	0	32760	32702	
235	0	32812	32802	
236	0	32756	32766	
237	0	32836	32832	
238	0	32892	32724	
239	0	32828	32754	
240	0	32832	32766	
241	0	32814	32804	
242	0	32768	32734	
243	0	32798	32794	
244	0	32776	32858	
245	0	32802	32678	
246	0	32872	32762	
247	0	32772	32788	
248	0	32856	32812	
249	0	32848	32653	
250	0	32856	32724	
251	0	32824	32816	
252	0	32828	32772	
253	0	32792	32830	
254	0	32720	32727	
255	0	32804	32878	
256	0	32852	32746	
257	0	32752	32724	
258	0	32897	32666	
259	0	32780	32769	
260	0	32808	32711	
261	0	32784	32820	
262	0	32784	32775	
263	0	32792	32870	
264	0	32812	32796	
265	0	32814	32884	
266	0	32821	32770	
267	0	32800	32775	
268	0	32836	32839	
269	0	32836	32775	
270	0	32832	32752	
271	0	32844	32766	
272	0	32828	32746	
273	0	32830	32800	
274	0	32828	32614	
275	0	32736	32830	
276	0	32798	32808	
277	0	32824	32872	
278	0	32764	32764	
279	0	32800	32684	
280	0	32816	32814	
281	0	32928	32831	
282	0	32816	32756	
283	0	32812	32738	
284	0	32836	32815	
285	0	32756	32775	
286	0	32820	32852	
287	0	32808	32804	
288	0	32752	32800	
289	0	32840	32771	
290	0	32762	32788	
291	0	32804	32646	
292	0	32810	32817	
293	0	32792	32752	
294	0	32760	32710	
295	0	32844	32759	
296	0	32864	32794	
297	0	32804	32775	
298	0	32816	32609	
299	0	32850	32770	
300	0	32792	32872	
301	0	32800	32716	
302	0	32772	32730	
303	0	32816	32758	
304	0	32856	32838	
305	0	32784	32668	
306	0	32808	32898	
307	0	32858	32810	
308	0	32868	32756	
309	0	32820	32630	
310	0	32794	32848	
311	0	32816	32762	
312	0	32788	32874	
313	0	32806	32729	
314	0	32784	32842	
315	0	32804	32838	
316	0	32850	32696	
317	0	32848	32846	
318	0	32826	32774	
319	0	32820	32838	
320	0	32792	32658	
321	0	32800	32744	
322	0	32800	32743	
323	0	32892	32726	
324	0	32792	32813	
325	0	32854	32758	
326	0	32782	32696	
327	0	32768	32819	
328	0	32762	32758	
329	0	32836	32844	
330	0	32784	32768	
331	0	32764	32830	
332	0	32816	32822	
333	0	32880	32796	
334	0	32872	32666	
335	0	32816	32775	
336	0	32832	32804	
337	0	32824	32742	
338	0	32844	32790	
339	0	32756	32806	
340	0	32832	32764	
341	0	32830	32775	
342	0	32804	32742	
343	0	32804	32775	
344	0	32860	32770	
345	0	32804	32854	
346	0	32775	32828	
347	0	32780	32775	
348	0	32806	32711	
349	0	32762	32804	
350	0	32720	32862	
351	0	32788	32790	
352	0	32808	32766	
353	0	32784	32708	
354	0	32854	32756	
355	0	32796	32796	
356	0	32812	32812	
357	0	32762	32714	
358	0	32848	32694	
359	0	32772	32756	
360	0	32812	32743	
361	0	32860	32770	
362	0	32804	32714	
363	0	32808	32746	
364	0	32730	32758	
365	0	32810	32775	
366	0	32888	32790	
367	0	32816	32766	
368	0	32864	32666	
369	0	32756	32834	
370	0	32792	32775	
371	0	32810	32757	
372	0	32788	32714	
373	0	32828	32786	
374	0	32854	32879	
375	0	32774	32700	
376	0	32812	32632	
377	0	32852	32812	
378	0	32832	32792	
379	0	32804	32740	
380	0	32764	32767	
381	0	32832	32690	
382	0	32852	32830	
383	0	32766	32750	
384	0	32820	32834	
385	0	32850	32670	
386	0	32784	32774	
387	0	32784	32815	
388	0	32772	32860	
389	0	32816	32830	
390	0	32824	32618	
391	0	32792	32795	
392	0	32806	32775	
393	0	32802	32758	
394	0	32823	32716	
395	0	32852	32849	
396	0	32816	32756	
397	0	32804	32812	
398	0	32820	32664	
399	0	32836	32719	
400	0	32810	32726	
401	0	32704	32744	
402	0	32800	32672	
403	0	32842	32839	
404	0	32856	32720	
405	0	32848	32836	
406	0	32784	32807	
407	0	32780	32796	
408	0	32856	32852	
409	0	32782	32708	
410	0	32816	32768	
411	0	32852	32842	
412	0	32824	32658	
413	0	32900	32879	
414	0	32838	32736	
415	0	32788	32676	
416	0	32800	32722	
417	0	32847	32690	
418	0	32810	32716	
419	0	32844	32788	
420	0	32888	32752	
421	0	32812	32768	
422	0	32852	32816	
423	0	32776	32752	
424	0	32808	32882	
425	0	32800	32824	
426	0	32780	32696	
427	0	32832	32892	
428	0	32748	32694	
429	0	32820	32726	
430	0	32768	32816	
431	0	32824	32788	
432	0	32800	32775	
433	0	32808	32761	
434	0	32842	32706	
435	0	32824	32824	
436	0	32826	32807	
437	0	32828	32766	
438	0	32872	32726	
439	0	32840	32660	
440	0	32740	32662	
441	0	32796	32724	
442	0	32776	32748	
443	0	32778	32832	
444	0	32772	32688	
445	0	32794	32840	
446	0	32830	32807	
447	0	32766	32772	
448	0	32822	32639	
449	0	32832	32870	
450	0	32828	32871	
451	0	32868	32703	
452	0	32796	32908	
453	0	32792	32720	
454	0	32760	32774	
455	0	32764	32680	
456	0	32777	32804	
457	0	32776	32842	
458	0	32804	32822	
459	0	32800	32775	
460	0	32816	32826	
461	0	32832	32794	
462	0	32808	32775	
463	0	32846	32726	
464	0	32828	32772	
465	0	32756	32726	
466	0	32780	32746	
467	0	32784	32714	
468	0	32800	32730	
469	0	32828	32714	
470	0	32776	32874	
471	0	32786	32698	
472	0	32852	32802	
473	0	32828	32770	
474	0	32832	32696	
475	0	32834	32864	
476	0	32792	32730	
477	0	32724	32892	
478	0	32828	32720	
479	0	32836	32740	
480	0	32782	32762	
481	0	32857	32742	
482	0	32840	32698	
483	0	32800	32774	
484	0	32811	32800	
485	0	32800	32710	
486	0	32804	32772	
487	0	32868	32808	
488	0	32840	32788	
489	0	32868	32822	
490	0	32802	32728	
491	0	32820	32724	
492	0	32740	32854	
493	0	32762	32792	
494	0	32764	32764	
495	0	32852	32743	
496	0	32840	32698	
497	0	32816	32774	
498	0	32762	32794	
499	0	32832	32666	
500	0	32792	32812	
501	0	32816	32722	
502	0	32884	32798	
503	0	32812	32804	
504	0	32824	32676	
505	0	32852	32775	
506	0	32824	32754	
507	0	32820	32798	
508	0	32800	32764	
509	0	32834	32845	
510	0	32784	32817	
511	0	32820	32728	
512	0	32748	32839	
513	0	32792	32774	
514	0	32832	32743	
515	0	32788	32716	
516	0	32756	32775	
517	0	32808	32768	
518	0	32842	32724	
519	0	32794	32814	
520	0	32848	32774	
521	0	32836	32734	
522	0	32828	32856	
523	0	32852	32712	
524	0	32822	32771	
525	0	32830	32742	
526	0	32800	32848	
527	0	32772	32848	
528	0	32852	32710	
529	0	32832	32746	
530	0	32788	32816	
531	0	32806	32756	
532	0	32844	32724	
533	0	32886	32772	
534	0	32810	32746	
535	0	32906	32666	
536	0	32808	32842	
537	0	32758	32798	
538	0	32820	32704	
539	0	32832	32714	
540	0	32768	32823	
541	0	32800	32812	
542	0	32784	32696	
543	0	32784	32858	
544	0	32820	32752	
545	0	32824	32762	
546	0	32768	32732	
547	0	32764	32820	
548	0	32772	32752	
549	0	32784	32650	
550	0	32758	32732	
551	0	32846	32730	
552	0	32842	32791	
553	0	32772	32722	
554	0	32844	32754	
555	0	32786	32833	
556	0	32824	32716	
557	0	32846	32775	
558	0	32856	32838	
559	0	32834	32636	
560	0	32840	32775	
561	0	32768	32798	
562	0	32798	32679	
563	0	32844	32856	
564	0	32788	32774	
565	0	32744	32751	
566	0	32788	32770	
567	0	32860	32830	
568	0	32804	32772	
569	0	32834	32716	
570	0	32856	32806	
571	0	32814	32881	
572	0	32808	32692	
573	0	32808	32876	
574	0	32852	32719	
575	0	32800	32710	
576	0	32824	32744	
577	0	32802	32764	
578	0	32848	32694	
579	0	32816	32732	
580	0	32770	32754	
581	0	32798	32774	
582	0	32762	32743	
583	0	32778	32660	
584	0	32876	32810	
585	0	32810	32804	
586	0	32788	32734	
587	0	32824	32770	
588	0	32804	32758	
589	0	32860	32798	
590	0	32802	32728	
591	0	32760	32772	
592	0	32704	32746	
593	0	32760	32732	
594	0	32804	32897	
595	0	32792	32807	
596	0	32832	32814	
597	0	32796	32711	
598	0	32776	32820	
599	0	32802	32775	
600	0	32808	32774	
601	0	32796	32818	
602	0	32860	32828	
603	0	32860	32829	
604	0	32848	32694	
605	0	32844	32775	
606	0	32784	32724	
607	0	32792	32890	
608	0	32804	32718	
609	0	32840	32754	
610	0	32834	32814	
611	0	32820	32702	
612	0	32828	32764	
613	0	32844	32808	
614	0	32826	32706	
615	0	32844	32903	
616	0	32824	32801	
617	0	32848	32686	
618	0	32816	32756	
619	0	32810	32806	
620	0	32824	32775	
621	0	32798	32714	
622	0	32772	32806	
623	0	32788	32820	
624	0	32820	32775	
625	0	32820	32722	
626	0	32802	32758	
627	0	32776	32810	
628	0	32834	32728	
629	0	32870	32679	
630	0	32770	32775	
631	0	32856	32801	
632	0	32772	32696	
633	0	32736	32768	
634	0	32852	32834	
635	0	32804	32782	
636	0	32832	32674	
637	0	32792	32812	
638	0	32862	32775	
639	0	32816	32764	
640	0	32808	32711	
641	0	32842	32815	
642	0	32780	32750	
643	0	32792	32886	
644	0	32800	32742	
645	0	32784	32701	
646	0	32760	32814	
647	0	32800	32809	
648	0	32778	32708	
649	0	32832	32800	
650	0	32836	32760	
651	0	32816	32855	
652	0	32726	32708	
653	0	32790	32755	
654	0	32860	32846	
655	0	32810	32764	
656	0	32770	32775	
657	0	32822	32718	
658	0	32836	32822	
659	0	32860	32788	
660	0	32780	32756	
661	0	32792	32718	
662	0	32866	32750	
663	0	32926	32804	
664	0	32825	32816	
665	0	32792	32754	
666	0	32865	32772	
667	0	32780	32804	
668	0	32836	32758	
669	0	32800	32701	
670	0	32794	32603	
671	0	32758	32801	
672	0	32788	32704	
673	0	32856	32808	
674	0	32840	32796	
675	0	32816	32907	
676	0	32782	32824	
677	0	32808	32800	
678	0	32856	32640	
679	0	32900	32828	
680	0	32764	32775	
681	0	32800	32696	
682	0	32774	32710	
683	0	32816	32775	
684	0	32780	32743	
685	0	32776	32714	
686	0	32824	32762	
687	0	32796	32788	
688	0	32816	32758	
689	0	32848	32775	
690	0	32808	32771	
691	0	32800	32738	
692	0	32794	32692	
693	0	32872	32868	
694	0	32828	32842	
695	0	32776	32766	
696	0	32812	32735	
697	0	32812	32817	
698	0	32816	32838	
699	0	32874	32714	
700	0	32880	32788	
701	0	32806	32820	
702	0	32768	32710	
703	0	32858	32816	
704	0	32840	32754	
705	0	32800	32844	
706	0	32776	32804	
707	0	32780	32775	
708	0	32705	32743	
709	0	32832	32826	
710	0	32848	32734	
711	0	32850	32725	
712	0	32756	32796	
713	0	32740	32612	
714	0	32842	32680	
715	0	32748	32775	
716	0	32772	32668	
717	0	32760	32634	
718	0	32738	32609	
719	0	32736	32692	
720	0	32724	32688	
721	0	32708	32542	
722	0	32778	32684	
723	0	32692	32679	
724	0	32760	32686	
725	0	32778	32746	
726	0	32752	32732	
727	0	32732	32732	
728	0	32742	32644	
729	0	32758	32720	
730	0	32744	32775	
731	0	32764	32700	
732	0	32834	32830	
733	0	32870	32798	
734	0	32816	32696	
735	0	32865	32690	
736	0	32938	32800	
737	0	32992	32872	
738	0	32992	32816	
739	0	33028	32919	
740	0	33096	32968	
741	0	33108	33044	
742	0	33072	33107	
743	0	33092	33164	
744	0	33042	33279	
745	0	32948	33084	
746	0	32912	33158	
747	0	32876	33004	
748	0	32832	32934	
749	0	32828	32964	
750	0	32682	32744	
751	0	32770	32679	
752	0	32748	32560	
753	0	32714	32622	
754	0	32736	32554	
755	0	32678	32479	
756	0	32720	32592	
757	0	32712	32687	
758	0	32620	32529	
759	0	32756	32680	
760	0	32784	32699	
761	0	32688	32632	
762	0	32642	32740	
763	0	32782	32718	
764	0	32708	32724	
765	0	32766	32702	
766	0	32756	32736	
767	0	32814	32748	
768	0	32832	32746	
769	0	32828	32688	
770	0	32796	32816	
771	0	32808	32892	
772	0	32752	32724	
773	0	32848	32764	
774	0	32836	32746	
775	0	32820	32740	
776	0	32840	32716	
777	0	32844	32758	
778	0	32852	32794	
779	0	32804	32791	
780	0	32806	32708	
781	0	32856	32820	
782	0	32894	32744	
783	0	32816	32729	
784	0	32804	32730	
785	0	32776	32700	
786	0	32766	32812	
787	0	32824	32775	
788	0	32796	32884	
789	0	32820	32730	
790	0	32848	32774	
791	0	32816	32735	
792	0	32850	32648	
793	0	32840	32835	
794	0	32786	32775	
795	0	32744	32702	
796	0	32824	32826	
797	0	32868	32694	
798	0	32806	32814	
799	0	32832	32710	
800	0	32756	32804	
801	0	32868	32820	
802	0	32764	32682	
803	0	32816	32786	
804	0	32824	32844	
805	0	32764	32720	
806	0	32832	32790	
807	0	32852	32734	
808	0	32820	32719	
809	0	32836	32822	
810	0	32776	32839	
811	0	32798	32636	
812	0	32816	32770	
813	0	32808	32736	
814	0	32826	32722	
815	0	32818	32756	
816	0	32808	32839	
817	0	32794	32766	
818	0	32790	32640	
819	0	32850	32840	
820	0	32836	32788	
821	0	32852	32718	
822	0	32768	32734	
823	0	32832	32836	
824	0	32796	32792	
825	0	32900	32750	
826	0	32812	32888	
827	0	32824	32810	
828	0	32774	32751	
829	0	32756	32774	
830	0	32732	32839	
831	0	32796	32728	
832	0	32820	32775	
833	0	32788	32768	
834	0	32796	32859	
835	0	32852	32758	
836	0	32834	32742	
837	0	32752	32702	
838	0	32828	32768	
839	0	32800	32646	
840	0	32832	32826	
841	0	32844	32775	
842	0	32744	32658	
843	0	32772	32790	
844	0	32868	32850	
845	0	32832	32743	
846	0	32848	32887	
847	0	32808	32832	
848	0	32812	32771	
849	0	32832	32732	
850	0	32828	32775	
851	0	32824	32830	
852	0	32798	32756	
853	0	32826	32788	
854	0	32778	32878	
855	0	32812	32686	
856	0	32782	32824	
857	0	32828	32788	
858	0	32864	32704	
859	0	32852	32712	
860	0	32772	32743	
861	0	32720	32822	
862	0	32854	32756	
863	0	32792	32760	
864	0	32840	32814	
865	0	32776	32791	
866	0	32808	32714	
867	0	32788	32810	
868	0	32890	32732	
869	0	32760	32798	
870	0	32792	32674	
871	0	32852	32810	
872	0	32824	32758	
873	0	32772	32852	
874	0	32796	32760	
875	0	32802	32868	
876	0	32796	32748	
877	0	32812	32692	
878	0	32801	32726	
879	0	32852	32806	
880	0	32832	32790	
881	0	32762	32664	
882	0	32864	32830	
883	0	32796	32690	
884	0	32812	32692	
885	0	32813	32660	
886	0	32812	32903	
887	0	32816	32812	
888	0	32816	32807	
889	0	32790	32702	
890	0	32824	32830	
891	0	32820	32806	
892	0	32762	32836	
893	0	32852	32694	
894	0	32748	32752	
895	0	32792	32842	
896	0	32812	32838	
897	0	32796	32746	
898	0	32860	32888	
899	0	32828	32794	
900	0	32816	32812	
901	0	32856	32696	
902	0	32794	32824	
903	0	32828	32720	
904	0	32804	32819	
905	0	32780	32698	
906	0	32796	32720	
907	0	32870	32732	
908	0	32868	32788	
909	0	32802	32737	
910	0	32844	32708	
911	0	32758	32836	
912	0	32804	32768	
913	0	32852	32816	
914	0	32850	32711	
915	0	32770	32816	
916	0	32808	32705	
917	0	32842	32666	
918	0	32788	32730	
919	0	32776	32758	
920	0	32800	32766	
921	0	32792	32784	
922	0	32744	32736	
923	0	32840	32768	
924	0	32856	32694	
925	0	32800	32838	
926	0	32858	32844	
927	0	32756	32870	
928	0	32821	32679	
929	0	32738	32767	
930	0	32845	32790	
931	0	32816	32714	
932	0	32775	32684	
933	0	32824	32815	
934	0	32820	32801	
935	0	32856	32759	
936	0	32808	32740	
937	0	32870	32760	
938	0	32808	32808	
939	0	32814	32684	
940	0	32852	32698	
941	0	32798	32743	
942	0	32864	32887	
943	0	32880	32730	
944	0	32836	32832	
945	0	32816	32766	
946	0	32796	32775	
947	0	32832	32710	
948	0	32772	32775	
949	0	32822	32810	
950	0	32800	32775	
951	0	32824	32834	
952	0	32808	32746	
953	0	32720	32764	
954	0	32836	32696	
955	0	32760	32750	
956	0	32804	32891	
957	0	32796	32716	
958	0	32852	32786	
959	0	32802	32819	
960	0	32792	32810	
961	0	32800	32652	
962	0	32796	32769	
963	0	32884	32786	
964	0	32772	32736	
965	0	32800	32775	
966	0	32876	32636	
967	0	32868	32808	
968	0	32858	32858	
969	0	32840	32672	
970	0	32756	32796	
971	0	32774	32824	
972	0	32818	32678	
973	0	32860	32860	
974	0	32796	32796	
975	0	32772	32672	
976	0	32844	32743	
977	0	32794	32806	
978	0	32848	32762	
979	0	32808	32764	
980	0	32856	32807	
981	0	32852	32734	
982	0	32748	32807	
983	0	32868	32814	
984	0	32836	32676	
985	0	32808	32838	
986	0	32774	32816	
987	0	32808	32736	
988	0	32792	32815	
989	0	32848	32796	
990	0	32844	32748	
991	0	32824	32734	
992	0	32772	32700	
993	0	32868	32679	
994	0	32810	32774	
995	0	32754	32864	
996	0	32778	32750	
997	0	32804	32767	
998	0	32828	32896	
999	0	32800	32679	
1000	0	32800	32756	
1001	0	32865	32688	
1002	0	32884	32816	
1003	0	32804	32760	
1004	0	32766	32676	
1005	0	32792	32814	
1006	0	32804	32808	
1007	0	32798	32716	
1008	0	32776	32832	
1009	0	32792	32812	
1010	0	32774	32736	
1011	0	32864	32820	
1012	0	32700	32775	
1013	0	32796	32732	
1014	0	32844	32771	
1015	0	32772	32775	
1016	0	32736	32618	
1017	0	32844	32796	
1018	0	32752	32836	
1019	0	32808	32712	
1020	0	32836	32872	
1021	0	32864	32775	
1022	0	32816	32678	
1023	0	32788	32727	
1024	0	32804	32849	
1025	0	32840	32720	
1026	0	32922	32774	
1027	0	32792	32726	
1028	0	32762	32839	
1029	0	32772	32775	
1030	0	32768	32727	
1031	0	32792	32798	
1032	0	32808	32850	
1033	0	32840	32737	
1034	0	32816	32706	
1035	0	32816	32686	
1036	0	32904	32698	
1037	0	32808	32782	
1038	0	32856	32790	
1039	0	32768	32723	
1040	0	32810	32738	
1041	0	32820	32764	
1042	0	32784	32744	
1043	0	32772	32758	
1044	0	32828	32764	
1045	0	32788	32696	
1046	0	32768	32732	
1047	0	32826	32774	
1048	0	32848	32763	
1049	0	32816	32799	
1050	0	32714	32700	
1051	0	32752	32807	
1052	0	32842	32764	
1053	0	32808	32664	
1054	0	32778	32867	
1055	0	32884	32800	
1056	0	32788	32738	
1057	0	32768	32804	
1058	0	32820	32666	
1059	0	32798	32821	
1060	0	32820	32789	
1061	0	32808	32708	
1062	0	32776	32743	
1063	0	32780	32764	
1064	0	32812	32775	
1065	0	32740	32820	
1066	0	32854	32756	
1067	0	32790	32838	
1068	0	32784	32871	
1069	0	32840	32740	
1070	0	32786	32726	
1071	0	32852	32758	
1072	0	32848	32751	
1073	0	32808	32798	
1074	0	32800	32670	
1075	0	32816	32854	
1076	0	32905	32788	
1077	0	32816	32790	
1078	0	32772	32679	
1079	0	32832	32700	
1080	0	32778	32772	
1081	0	32872	32663	
1082	0	32794	32794	
1083	0	32766	32698	
1084	0	32856	32820	
1085	0	32808	32801	
1086	0	32764	32708	
1087	0	32804	32794	
1088	0	32766	32807	
1089	0	32854	32832	
1090	0	32830	32736	
1091	0	32864	32806	
1092	0	32788	32844	
1093	0	32800	32807	
1094	0	32801	32772	
1095	0	32794	32810	
1096	0	32806	32740	
1097	0	32900	32750	
1098	0	32858	32820	
1099	0	32774	32644	
1100	0	32816	32804	
1101	0	32844	32808	
1102	0	32868	32714	
1103	0	32810	32732	
1104	0	32766	32836	
1105	0	32776	32672	
1106	0	32804	32738	
1107	0	32748	32788	
1108	0	32804	32775	
1109	0	32848	32687	
1110	0	32772	32684	
1111	0	32772	32798	
1112	0	32816	32820	
1113	0	32848	32798	
1114	0	32840	32826	
1115	0	32808	32705	
1116	0	32844	32792	
1117	0	32832	32738	
1118	0	32788	32822	
1119	0	32784	32775	
1120	0	32864	32772	
1121	0	32775	32792	
1122	0	32872	32689	
1123	0	32886	32740	
1124	0	32848	32840	
1125	0	32840	32855	
1126	0	32736	32782	
1127	0	32840	32647	
1128	0	32836	32812	
1129	0	32832	32756	
1130	0	32852	32858	
1131	0	32738	32734	
1132	0	32860	32798	
1133	0	32772	32796	
1134	0	32872	32664	
1135	0	32853	32718	
1136	0	32816	32800	
1137	0	32808	32752	
1138	0	32792	32786	
1139	0	32748	32742	
1140	0	32844	32660	
1141	0	32816	32892	
1142	0	32790	32800	
1143	0	32788	32775	
1144	0	32800	32690	
1145	0	32824	32866	
1146	0	32844	32781	
1147	0	32808	32664	
1148	0	32788	32838	
1149	0	32766	32768	
1150	0	32824	32810	
1151	0	32832	32661	
1152	0	32804	32772	
1153	0	32840	32775	
1154	0	32782	32696	
1155	0	32896	32842	
1156	0	32838	32774	
1157	0	32770	32738	
1158	0	32828	32854	
1159	0	32820	32839	
1160	0	32792	32832	
1161	0	32828	32700	
1162	0	32784	32732	
1163	0	32714	32810	
1164	0	32776	32659	
1165	0	32860	32845	
1166	0	32821	32874	
1167	0	32832	32668	
1168	0	32812	32768	
1169	0	32784	32775	
1170	0	32818	32664	
1171	0	32804	32804	
1172	0	32780	32850	
1173	0	32814	32760	
1174	0	32832	32750	
1175	0	32852	32814	
1176	0	32872	32792	
1177	0	32744	32684	
1178	0	32764	32796	
1179	0	32828	32820	
1180	0	32860	32686	
1181	0	32798	32801	
1182	0	32836	32736	
1183	0	32772	32838	
1184	0	32856	32734	
1185	0	32730	32862	
1186	0	32740	32782	
1187	0	32754	32652	
1188	0	32824	32848	
1189	0	32783	32714	
1190	0	32800	32798	
1191	0	32842	32660	
1192	0	32840	32860	
1193	0	32828	32788	
1194	0	32780	32712	
1195	0	32840	32758	
1196	0	32844	32796	
1197	0	32860	32808	
1198	0	32804	32670	
1199	0	32874	32708	
1200	0	32872	32798	
1201	0	32756	32834	
1202	0	32800	32756	
1203	0	32856	32794	
1204	0	32832	32768	
1205	0	32832	32712	
1206	0	32788	32800	
1207	0	32798	32742	
1208	0	32796	32775	
1209	0	32828	32726	
1210	0	32848	32810	
1211	0	32832	32844	
1212	0	32844	32716	
1213	0	32828	32692	
1214	0	32824	32864	
1215	0	32810	32735	
1216	0	32816	32775	
1217	0	32852	32744	
1218	0	32817	32730	
1219	0	32882	32802	
1220	0	32808	32770	
1221	0	32804	32761	
1222	0	32816	32694	
1223	0	32696	32758	
1224	0	32816	32810	
1225	0	32820	32746	
1226	0	32812	32712	
1227	0	32816	32770	
1228	0	32778	32835	
1229	0	32812	32612	
1230	0	32834	32807	
1231	0	32824	32754	
1232	0	32812	32722	
1233	0	32856	32804	
1234	0	32812	32847	
1235	0	32808	32644	
1236	0	32802	32775	
1237	0	32766	32824	
1238	0	32864	32744	
1239	0	32820	32808	
1240	0	32888	32854	
1241	0	32784	32718	
1242	0	32796	32720	
1243	0	32820	32871	
1244	0	32746	32682	
1245	0	32788	32834	
1246	0	32788	32772	
1247	0	32816	32742	
1248	0	32842	32834	
1249	0	32792	32746	
1250	0	32878	32896	
1251	0	32820	32679	
1252	0	32816	32800	
1253	0	32836	32798	
1254	0	32804	32730	
1255	0	32894	32668	
1256	0	32736	32808	
1257	0	32790	32806	
1258	0	32878	32774	
1259	0	32768	32854	
1260	0	32892	32802	
1261	0	32806	32702	
1262	0	32828	32782	
1263	0	32794	32824	
1264	0	32854	32724	
1265	0	32816	32820	
1266	0	32786	32743	
1267	0	32748	32694	
1268	0	32760	32868	
1269	0	32884	32716	
1270	0	32828	32772	
1271	0	32812	32852	
1272	0	32820	32790	
1273	0	32812	32760	
1274	0	32762	32750	
1275	0	32864	32732	
1276	0	32792	32720	
1277	0	32858	32736	
1278	0	32840	32752	
1279	0	32832	32772	
1280	0	32768	32684	
1281	0	32860	32864	
1282	0	32789	32751	
1283	0	32820	32871	
1284	0	32782	32710	
1285	0	32794	32932	
1286	0	32788	32810	
1287	0	32844	32772	
1288	0	32848	32854	
1289	0	32772	32831	
1290	0	32792	32720	
1291	0	32804	32816	
1292	0	32760	32810	
1293	0	32878	32736	
1294	0	32904	32775	
1295	0	32784	32839	
1296	0	32894	32638	
1297	0	32784	32818	
1298	0	32838	32868	
1299	0	32766	32618	
1300	0	32780	32792	
1301	0	32804	32742	
1302	0	32788	32680	
1303	0	32785	32760	
1304	0	32834	32772	
1305	0	32820	32666	
1306	0	32824	32834	
1307	0	32820	32770	
1308	0	32768	32842	
1309	0	32792	32734	
1310	0	32836	32818	
1311	0	32840	32830	
1312	0	32832	32736	
1313	0	32775	32740	
1314	0	32837	32736	
1315	0	32784	32852	
1316	0	32832	32665	
1317	0	32876	32839	
1318	0	32830	32885	
1319	0	32780	32746	
1320	0	32808	32814	
1321	0	32792	32825	
1322	0	32836	32751	
1323	0	32804	32824	
1324	0	32840	32815	
1325	0	32848	32686	
1326	0	32770	32818	
1327	0	32852	32793	
1328	0	32700	32670	
1329	0	32804	32816	
1330	0	32848	32726	
1331	0	32808	32696	
1332	0	32792	32884	
1333	0	32772	32775	
1334	0	32812	32679	
1335	0	32788	32664	
1336	0	32868	32772	
1337	0	32792	32766	
1338	0	32784	32814	
1339	0	32816	32716	
1340	0	32868	32768	
1341	0	32810	32748	
1342	0	32752	32790	
1343	0	32774	32711	
1344	0	32798	32703	
1345	0	32788	32812	
1346	0	32886	32800	
1347	0	32842	32678	
1348	0	32750	32889	
1349	0	32868	32728	
1350	0	32864	32759	
1351	0	32802	32716	
1352	0	32804	32650	
1353	0	32826	32828	
1354	0	32714	32756	
1355	0	32842	32774	
1356	0	32768	32807	
1357	0	32836	32858	
1358	0	32838	32852	
1359	0	32824	32882	
1360	0	32770	32724	
1361	0	32818	32724	
1362	0	32840	32807	
1363	0	32776	32804	
1364	0	32804	32805	
1365	0	32784	32692	
1366	0	32848	32764	
1367	0	32816	32834	
1368	0	32724	32706	
1369	0	32824	32794	
1370	0	32860	32750	
1371	0	32802	32816	
1372	0	32836	32716	
1373	0	32794	32765	
1374	0	32800	32870	
1375	0	32800	32752	
1376	0	32828	32795	
1377	0	32804	32756	
1378	0	32880	32807	
1379	0	32816	32895	
1380	0	32760	32838	
1381	0	32848	32807	
1382	0	32824	32668	
1383	0	32788	32775	
1384	0	32828	32753	
1385	0	32776	32806	
1386	0	32810	32734	
1387	0	32768	32678	
1388	0	32758	32815	
1389	0	32832	32775	
1390	0	32800	32743	
1391	0	32764	32775	
1392	0	32849	32700	
1393	0	32840	32854	
1394	0	32808	32740	
1395	0	32820	32804	
1396	0	32832	32696	
1397	0	32788	32804	
1398	0	32840	32767	
1399	0	32788	32839	
1400	0	32808	32732	
1401	0	32782	32758	
1402	0	32764	32800	
1403	0	32840	32720	
1404	0	32828	32857	
1405	0	32792	32680	
1406	0	32752	32832	
1407	0	32780	32772	
1408	0	32820	32838	
1409	0	32818	32762	
1410	0	32860	32672	
1411	0	32816	32724	
1412	0	32780	32764	
1413	0	32856	32800	
1414	0	32828	32682	
1415	0	32780	32720	
1416	0	32820	32787	
1417	0	32784	32824	
1418	0	32796	32852	
1419	0	32836	32790	
1420	0	32876	32720	
1421	0	32836	32820	
1422	0	32904	32838	
1423	0	32818	32775	
1424	0	32816	32750	
1425	0	32808	32828	
1426	0	32788	32804	
1427	0	32798	32788	
1428	0	32820	32762	
1429	0	32852	32774	
1430	0	32846	32750	
1431	0	32844	32684	
1432	0	32848	32814	
1433	0	32832	32746	
1434	0	32860	32680	
1435	0	32748	32822	
1436	0	32792	32706	
1437	0	32820	32748	
1438	0	32788	32740	
1439	0	32828	32798	
1440	0	32808	32775	
1441	0	32788	32838	
1442	0	32772	32708	
1443	0	32816	32736	
1444	0	32764	32764	
1445	0	32808	32746	
1446	0	32802	32775	
1447	0	32814	32818	
1448	0	32736	32758	
1449	0	32802	32770	
1450	0	32824	32804	
1451	0	32872	32758	
1452	0	32816	32719	
1453	0	32760	32804	
1454	0	32896	32754	
1455	0	32788	32724	
1456	0	32770	32760	
1457	0	32840	32874	
1458	0	32788	32862	
1459	0	32800	32796	
1460	0	32788	32743	
1461	0	32846	32850	
1462	0	32832	32790	
1463	0	32770	32794	
1464	0	32796	32838	
1465	0	32782	32849	
1466	0	32782	32676	
1467	0	32772	32842	
1468	0	32824	32775	
1469	0	32860	32646	
1470	0	32760	32746	
1471	0	32770	32686	
1472	0	32738	32718	
1473	0	32704	32654	
1474	0	32752	32686	
1475	0	32740	32654	
1476	0	32756	32618	
1477	0	32776	32718	
1478	0	32780	32614	
1479	0	32760	32647	
1480	0	32754	32614	
1481	0	32704	32736	
1482	0	32700	32670	
1483	0	32712	32630	
1484	0	32740	32714	
1485	0	32800	32756	
1486	0	32834	32784	
1487	0	32844	32698	
1488	0	32852	32788	
1489	0	32926	32769	
1490	0	32913	32610	
1491	0	32936	32836	
1492	0	32996	32838	
1493	0	33032	32906	
1494	0	33064	33108	
1495	0	33146	33002	
1496	0	33116	33199	
1497	0	33034	33126	
1498	0	33036	33192	
1499	0	33032	33202	
1500	0	32966	33031	
1501	0	32848	33022	
1502	0	32816	32988	
1503	0	32768	32794	
1504	0	32774	32836	
1505	0	32664	32756	
1506	0	32708	32577	
1507	0	32698	32654	
1508	0	32728	32564	
1509	0	32684	32620	
1510	0	32784	32576	
1511	0	32640	32596	
1512	0	32726	32676	
1513	0	32724	32750	
1514	0	32724	32652	
1515	0	32718	32618	
1516	0	32754	32710	
1517	0	32724	32710	
1518	0	32824	32630	
1519	0	32756	32728	
1520	0	32758	32826	
1521	0	32836	32804	
1522	0	32760	32638	
1523	0	32760	32892	
1524	0	32766	32759	
1525	0	32880	32684	
1526	0	32804	32866	
1527	0	32782	32720	
1528	0	32853	32846	
1529	0	32820	32692	
1530	0	32788	32820	
1531	0	32868	32830	
1532	0	32844	32728	
1533	0	32834	32802	
1534	0	32842	32739	
1535	0	32816	32783	
1536	0	32804	32742	
1537	0	32840	32820	
1538	0	32780	32724	
1539	0	32848	32835	
1540	0	32788	32705	
1541	0	32846	32775	
1542	0	32834	32712	
1543	0	32800	32806	
1544	0	32830	32688	
1545	0	32804	32762	
1546	0	32862	32814	
1547	0	32764	32775	
1548	0	32840	32878	
1549	0	32790	32774	
1550	0	32760	32712	
1551	0	32784	32772	
1552	0	32834	32746	
1553	0	32792	32839	
1554	0	32896	32696	
1555	0	32862	32726	
1556	0	32804	32808	
1557	0	32786	32751	
1558	0	32816	32804	
1559	0	32792	32708	
1560	0	32780	32798	
1561	0	32772	32768	
1562	0	32780	32718	
1563	0	32828	32844	
1564	0	32868	32760	
1565	0	32858	32724	
1566	0	32836	32692	
1567	0	32828	32718	
1568	0	32800	32794	
1569	0	32784	32679	
1570	0	32810	32692	
1571	0	32836	32774	
1572	0	32768	32796	
1573	0	32788	32743	
1574	0	32840	32736	
1575	0	32792	32846	
1576	0	32840	32800	
1577	0	32834	32696	
1578	0	32840	32844	
1579	0	32792	32774	
1580	0	32784	32818	
1581	0	32824	32764	
1582	0	32832	32791	
1583	0	32814	32775	
1584	0	32784	32764	
1585	0	32816	32684	
1586	0	32808	32847	
1587	0	32824	32818	
1588	0	32804	32775	
1589	0	32808	32748	
1590	0	32778	32768	
1591	0	32828	32739	
1592	0	32832	32807	
1593	0	32828	32716	
1594	0	32796	32760	
1595	0	32814	32802	
1596	0	32772	32767	
1597	0	32846	32708	
1598	0	32817	32836	
1599	0	32740	32775	
1600	0	32860	32800	
1601	0	32792	32702	
1602	0	32856	32714	
1603	0	32784	32796	
1604	0	32836	32762	
1605	0	32804	32784	
1606	0	32744	32690	
1607	0	32812	32752	
1608	0	32836	32768	
1609	0	32762	32695	
1610	0	32774	32790	
1611	0	32796	32676	
1612	0	32841	32775	
1613	0	32836	32838	
1614	0	32808	32770	
1615	0	32784	32722	
1616	0	32812	32867	
1617	0	32840	32719	
1618	0	32820	32820	
1619	0	32816	32708	
1620	0	32836	32807	
1621	0	32866	32740	
1622	0	32796	32798	
1623	0	32810	32758	
1624	0	32775	32718	
1625	0	32804	32825	
1626	0	32836	32837	
1627	0	32852	32775	
1628	0	32824	32746	
1629	0	32788	32702	
1630	0	32732	32805	
1631	0	32844	32834	
1632	0	32832	32858	
1633	0	32846	32746	
1634	0	32804	32828	
1635	0	32812	32770	
1636	0	32806	32836	
1637	0	32880	32728	
1638	0	32832	32718	
1639	0	32756	32812	
1640	0	32848	32734	
1641	0	32868	32810	
1642	0	32832	32719	
1643	0	32750	32757	
1644	0	32792	32708	
1645	0	32800	32812	
1646	0	32772	32702	
1647	0	32830	32807	
1648	0	32886	32756	
1649	0	32774	32726	
1650	0	32838	32829	
1651	0	32760	32601	
1652	0	32828	32792	
1653	0	32806	32744	
1654	0	32890	32803	
1655	0	32724	32700	
1656	0	32812	32775	
1657	0	32786	32814	
1658	0	32752	32652	
1659	0	32772	32854	
1660	0	32816	32822	
1661	0	32844	32690	
1662	0	32824	32764	
1663	0	32842	32800	
1664	0	32804	32674	
1665	0	32804	32824	
1666	0	32812	32805	
1667	0	32780	32738	
1668	0	32872	32798	
1669	0	32814	32844	
1670	0	32856	32708	
1671	0	32829	32743	
1672	0	32712	32664	
1673	0	32882	32842	
1674	0	32808	32824	
1675	0	32774	32698	
1676	0	32800	32728	
1677	0	32830	32798	
1678	0	32868	32724	
1679	0	32796	32775	
1680	0	32804	32756	
1681	0	32784	32700	
1682	0	32768	32722	
1683	0	32784	32770	
1684	0	32832	32785	
1685	0	32852	32668	
1686	0	32781	32743	
1687	0	32816	32734	
1688	0	32790	32699	
1689	0	32824	32732	
1690	0	32852	32814	
1691	0	32798	32740	
1692	0	32838	32839	
1693	0	32864	32834	
1694	0	32784	32748	
1695	0	32796	32736	
1696	0	32802	32798	
1697	0	32782	32720	
1698	0	32844	32744	
1699	0	32832	32732	
1700	0	32852	32732	
1701	0	32764	32840	
1702	0	32836	32796	
1703	0	32776	32724	
1704	0	32792	32768	
1705	0	32850	32790	
1706	0	32838	32721	
1707	0	32784	32762	
1708	0	32824	32806	
1709	0	32868	32718	
1710	0	32802	32812	
1711	0	32760	32812	
1712	0	32830	32703	
1713	0	32824	32824	
1714	0	32820	32770	
1715	0	32808	32743	
1716	0	32816	32772	
1717	0	32768	32712	
1718	0	32836	32817	
1719	0	32816	32678	
1720	0	32830	32775	
1721	0	32858	32708	
1722	0	32796	32732	
1723	0	32820	32722	
1724	0	32776	32828	
1725	0	32824	32826	
1726	0	32794	32698	
1727	0	32834	32846	
1728	0	32914	32800	
1729	0	32804	32758	
1730	0	32824	32842	
1731	0	32816	32807	
1732	0	32804	32750	
1733	0	32748	32834	
1734	0	32768	32839	
1735	0	32828	32660	
1736	0	32834	32834	
1737	0	32868	32826	
1738	0	32852	32688	
1739	0	32836	32895	
1740	0	32824	32814	
1741	0	32820	32666	
1742	0	32800	32736	
1743	0	32790	32832	
1744	0	32780	32750	
1745	0	32788	32710	
1746	0	32820	32764	
1747	0	32808	32816	
1748	0	32834	32800	
1749	0	32840	32762	
1750	0	32832	32858	
1751	0	32800	32828	
1752	0	32846	32845	
1753	0	32808	32674	
1754	0	32860	32772	
1755	0	32790	32838	
1756	0	32832	32722	
1757	0	32852	32708	
1758	0	32798	32699	
1759	0	32732	32698	
1760	0	32752	32796	
1761	0	32802	32866	
1762	0	32768	32726	
1763	0	32804	32832	
1764	0	32808	32784	
1765	0	32842	32720	
1766	0	32828	32722	
1767	0	32812	32832	
1768	0	32852	32790	
1769	0	32752	32732	
1770	0	32832	32871	
1771	0	32842	32794	
1772	0	32848	32764	
1773	0	32816	32724	
1774	0	32858	32810	
1775	0	32840	32801	
1776	0	32841	32714	
1777	0	32786	32732	
1778	0	32898	32790	
1779	0	32774	32740	
1780	0	32810	32806	
1781	0	32832	32775	
1782	0	32784	32786	
1783	0	32804	32832	
1784	0	32836	32678	
1785	0	32774	32663	
1786	0	32804	32775	
1787	0	32864	32759	
1788	0	32820	32752	
1789	0	32802	32720	
1790	0	32756	32710	
1791	0	32764	32762	
1792	0	32830	32814	
1793	0	32775	32709	
1794	0	32792	32854	
1795	0	32816	32900	
1796	0	32880	32868	
1797	0	32772	32775	
1798	0	32778	32696	
1799	0	32814	32808	
1800	0	32800	32820	
1801	0	32860	32802	
1802	0	32862	32844	
1803	0	32836	32874	
1804	0	32816	32804	
1805	0	32772	32730	
1806	0	32812	32846	
1807	0	32808	32740	
1808	0	32812	32804	
1809	0	32864	32704	
1810	0	32750	32668	
1811	0	32810	32700	
1812	0	32774	32738	
1813	0	32800	32784	
1814	0	32832	32887	
1815	0	32836	32826	
1816	0	32850	32816	
1817	0	32812	32806	
1818	0	32760	32716	
1819	0	32904	32844	
1820	0	32842	32908	
1821	0	32792	32788	
1822	0	32798	32760	
1823	0	32798	32722	
1824	0	32716	32824	
1825	0	32802	32853	
1826	0	32788	32708	
1827	0	32784	32758	
1828	0	32786	32736	
1829	0	32864	32774	
1830	0	32754	32770	
1831	0	32878	32710	
1832	0	32736	32688	
1833	0	32804	32832	
1834	0	32876	32734	
1835	0	32816	32754	
1836	0	32778	32825	
1837	0	32876	32824	
1838	0	32866	32730	
1839	0	32828	32808	
1840	0	32850	32772	
1841	0	32800	32708	
1842	0	32800	32768	
1843	0	32862	32760	
1844	0	32830	32702	
1845	0	32868	32804	
1846	0	32768	32791	
1847	0	32826	32796	
1848	0	32742	32686	
1849	0	32800	32744	
1850	0	32802	32748	
1851	0	32870	32710	
1852	0	32816	32744	
1853	0	32848	32738	
1854	0	32832	32860	
1855	0	32798	32775	
1856	0	32812	32654	
1857	0	32800	32818	
1858	0	32852	32792	
1859	0	32780	32700	
1860	0	32776	32742	
1861	0	32842	32818	
1862	0	32808	32696	
1863	0	32800	32812	
1864	0	32860	32746	
1865	0	32836	32862	
1866	0	32796	32724	
1867	0	32822	32813	
1868	0	32798	32761	
1869	0	32828	32734	
1870	0	32808	32859	
1871	0	32832	32880	
1872	0	32820	32772	
1873	0	32872	32775	
1874	0	32804	32668	
1875	0	32764	32644	
1876	0	32720	32838	
1877	0	32800	32743	
1878	0	32810	32820	
1879	0	32848	32658	
1880	0	32880	32770	
1881	0	32812	32775	
1882	0	32872	32664	
1883	0	32814	32774	
1884	0	32794	32804	
1885	0	32788	32792	
1886	0	32760	32839	
1887	0	32788	32804	
1888	0	32776	32910	
1889	0	32794	32762	
1890	0	32838	32768	
1891	0	32842	32792	
1892	0	32818	32715	
1893	0	32804	32689	
1894	0	32840	32732	
1895	0	32848	32772	
1896	0	32738	32671	
1897	0	32802	32646	
1898	0	32792	32805	
1899	0	32804	32727	
1900	0	32888	32674	
1901	0	32740	32752	
1902	0	32784	32742	
1903	0	32836	32740	
1904	0	32832	32836	
1905	0	32812	32752	
1906	0	32832	32799	
1907	0	32876	32847	
1908	0	32836	32752	
1909	0	32808	32768	
1910	0	32748	32788	
1911	0	32794	32748	
1912	0	32820	32822	
1913	0	32744	32696	
1914	0	32856	32759	
1915	0	32832	32812	
1916	0	32816	32718	
1917	0	32776	32816	
1918	0	32794	32766	
1919	0	32868	32812	
1920	0	32848	32688	
1921	0	32788	32734	
1922	0	32882	32710	
1923	0	32788	32846	
1924	0	32892	32790	
1925	0	32820	32736	
1926	0	32796	32903	
1927	0	32780	32810	
1928	0	32776	32700	
1929	0	32760	32820	
1930	0	32894	32760	
1931	0	32808	32730	
1932	0	32812	32674	
1933	0	32874	32720	
1934	0	32798	32831	
1935	0	32814	32739	
1936	0	32780	32806	
1937	0	32836	32839	
1938	0	32828	32706	
1939	0	32840	32770	
1940	0	32848	32898	
1941	0	32820	32786	
1942	0	32814	32826	
1943	0	32756	32708	
1944	0	32746	32730	
1945	0	32806	32807	
1946	0	32824	32752	
1947	0	32758	32772	
1948	0	32856	32671	
1949	0	32806	32788	
1950	0	32852	32775	
1951	0	32828	32716	
1952	0	32778	32831	
1953	0	32756	32858	
1954	0	32806	32736	
1955	0	32768	32791	
1956	0	32800	32764	
1957	0	32800	32764	
1958	0	32812	32870	
1959	0	32824	32874	
1960	0	32810	32724	
1961	0	32830	32764	
1962	0	32804	32772	
1963	0	32792	32736	
1964	0	32812	32750	
1965	0	32808	32704	
1966	0	32868	32828	
1967	0	32764	32902	
1968	0	32840	32658	
1969	0	32772	32752	
1970	0	32824	32775	
1971	0	32800	32660	
1972	0	32810	32788	
1973	0	32808	32822	
1974	0	32916	32736	
1975	0	32880	32804	
1976	0	32780	32796	
1977	0	32808	32702	
1978	0	32802	32722	
1979	0	32824	32846	
1980	0	32834	32759	
1981	0	32844	32842	
1982	0	32826	32775	
1983	0	32798	32800	
1984	0	32836	32798	
1985	0	32852	32901	
1986	0	32784	32774	
1987	0	32752	32756	
1988	0	32828	32650	
1989	0	32796	32796	
1990	0	32868	32830	
1991	0	32866	32670	
1992	0	32800	32858	
1993	0	32820	32720	
1994	0	32840	32756	
1995	0	32800	32838	
1996	0	32812	32767	
1997	0	32792	32742	
1998	0	32820	32718	
1999	0	32810	32840	
2000	0	32860	32796	
2001	0	32812	32740	
2002	0	32736	32654	
2003	0	32796	32798	
2004	0	32782	32870	
2005	0	32788	32755	
2006	0	32822	32686	
2007	0	32800	32807	
2008	0	32768	32682	
2009	0	32780	32726	
2010	0	32776	32748	
2011	0	32856	32775	
2012	0	32792	32806	
2013	0	32840	32800	
2014	0	32880	32734	
2015	0	32848	32734	
2016	0	32824	32807	
2017	0	32800	32736	
2018	0	32856	32796	
2019	0	32860	32880	
2020	0	32792	32772	
2021	0	32788	32842	
2022	0	32737	32796	
2023	0	32752	32716	
2024	0	32836	32822	
2025	0	32810	32775	
2026	0	32798	32786	
2027	0	32836	32774	
2028	0	32804	32660	
2029	0	32804	32775	
2030	0	32808	32668	
2031	0	32820	32678	
2032	0	32788	32775	
2033	0	32832	32810	
2034	0	32844	32732	
2035	0	32828	32870	
2036	0	32836	32828	
2037	0	32812	32842	
2038	0	32782	32694	
2039	0	32848	32801	
2040	0	32804	32814	
2041	0	32832	32751	
2042	0	32836	32775	
2043	0	32860	32862	
2044	0	32756	32838	
2045	0	32824	32812	
2046	0	32768	32616	
2047	0	32814	32760	
2048	0	32800	32775	
2049	0	32764	32732	
2050	0	32804	32704	
2051	0	32758	32772	
2052	0	32836	32782	
2053	0	32784	32664	
2054	0	32820	32646	
2055	0	32760	32726	
2056	0	32790	32849	
2057	0	32832	32726	
2058	0	32842	32768	
2059	0	32780	32692	
2060	0	32796	32839	
2061	0	32848	32743	
2062	0	32804	32822	
2063	0	32808	32679	
2064	0	32772	32692	
2065	0	32824	32888	
2066	0	32836	32807	
2067	0	32856	32711	
2068	0	32814	32812	
2069	0	32860	32716	
2070	0	32814	32747	
2071	0	32784	32837	
2072	0	32774	32754	
2073	0	32846	32742	
2074	0	32874	32656	
2075	0	32788	32822	
2076	0	32800	32764	
2077	0	32760	32900	
2078	0	32804	32744	
2079	0	32834	32775	
2080	0	32844	32764	
2081	0	32868	32775	
2082	0	32868	32674	
2083	0	32802	32814	
2084	0	32792	32850	
2085	0	32832	32678	
2086	0	32746	32838	
2087	0	32813	32794	
2088	0	32814	32792	
2089	0	32808	32798	
2090	0	32818	32682	
2091	0	32832	32796	
2092	0	32832	32788	
2093	0	32782	32719	
2094	0	32824	32742	
2095	0	32802	32769	
2096	0	32786	32656	
2097	0	32784	32866	
2098	0	32852	32726	
2099	0	32780	32724	
2100	0	32780	32766	
2101	0	32856	32818	
2102	0	32900	32830	
2103	0	32826	32826	
2104	0	32800	32662	
2105	0	32856	32748	
2106	0	32796	32872	
2107	0	32822	32775	
2108	0	32808	32630	
2109	0	32780	32801	
2110	0	32800	32740	
2111	0	32820	32828	
2112	0	32754	32786	
2113	0	32744	32647	
2114	0	32864	32822	
2115	0	32804	32826	
2116	0	32760	32856	
2117	0	32846	32673	
2118	0	32816	32817	
2119	0	32808	32748	
2120	0	32864	32796	
2121	0	32818	32703	
2122	0	32828	32708	
2123	0	32830	32870	
2124	0	32832	32795	
2125	0	32778	32928	
2126	0	32792	32731	
2127	0	32832	32740	
2128	0	32840	32858	
2129	0	32868	32748	
2130	0	32812	32796	
2131	0	32784	32689	
2132	0	32824	32710	
2133	0	32874	32862	
2134	0	32792	32714	
2135	0	32800	32743	
2136	0	32862	32816	
2137	0	32816	32703	
2138	0	32844	32719	
2139	0	32792	32756	
2140	0	32818	32798	
2141	0	32844	32810	
2142	0	32760	32866	
2143	0	32792	32682	
2144	0	32812	32742	
2145	0	32770	32834	
2146	0	32818	32800	
2147	0	32788	32775	
2148	0	32878	32822	
2149	0	32872	32814	
2150	0	32788	32732	
2151	0	32760	32796	
2152	0	32768	32796	
2153	0	32828	32693	
2154	0	32834	32807	
2155	0	32780	32769	
2156	0	32780	32814	
2157	0	32844	32710	
2158	0	32788	32810	
2159	0	32876	32807	
2160	0	32810	32683	
2161	0	32800	32775	
2162	0	32792	32814	
2163	0	32844	32714	
2164	0	32828	32807	
2165	0	32816	32739	
2166	0	32824	32775	
2167	0	32842	32815	
2168	0	32838	32744	
2169	0	32812	32752	
2170	0	32816	32798	
2171	0	32840	32786	
2172	0	32774	32774	
2173	0	32724	32672	
2174	0	32760	32775	
2175	0	32800	32868	
2176	0	32864	32628	
2177	0	32808	32794	
2178	0	32704	32742	
2179	0	32820	32774	
2180	0	32852	32688	
2181	0	32854	32738	
2182	0	32772	32856	
2183	0	32796	32744	
2184	0	32784	32743	
2185	0	32832	32760	
2186	0	32838	32811	
2187	0	32862	32758	
2188	0	32824	32748	
2189	0	32791	32762	
2190	0	32782	32860	
2191	0	32796	32740	
2192	0	32826	32842	
2193	0	32806	32800	
2194	0	32856	32742	
2195	0	32888	32868	
2196	0	32814	32772	
2197	0	32752	32692	
2198	0	32834	32678	
2199	0	32852	32760	
2200	0	32840	32756	
2201	0	32800	32676	
2202	0	32874	32801	
2203	0	32826	32862	
2204	0	32775	32684	
2205	0	32776	32761	
2206	0	32824	32766	
2207	0	32832	32838	
2208	0	32804	32791	
2209	0	32808	32758	
2210	0	32792	32714	
2211	0	32784	32763	
2212	0	32808	32758	
2213	0	32790	32758	
2214	0	32820	32728	
2215	0	32800	32839	
2216	0	32836	32766	
2217	0	32824	32719	
2218	0	32768	32834	
2219	0	32792	32762	
2220	0	32852	32816	
2221	0	32832	32710	
2222	0	32796	32870	
2223	0	32888	32802	
2224	0	32776	32818	
2225	0	32762	32764	
2226	0	32740	32810	
2227	0	32818	32838	
2228	0	32856	32774	
2229	0	32832	32848	
2230	0	32848	32811	
2231	0	32830	32844	
2232	0	32832	32732	
2233	0	32775	32636	
2234	0	32808	32806	
2235	0	32804	32782	
2236	0	32776	32682	
2237	0	32800	32702	
2238	0	32764	32696	
2239	0	32700	32726	
2240	0	32736	32552	
2241	0	32760	32694	
2242	0	32768	32603	
2243	0	32728	32564	
2244	0	32720	32710	
2245	0	32688	32654	
2246	0	32740	32648	
2247	0	32742	32642	
2248	0	32740	32775	
2249	0	32644	32740	
2250	0	32740	32685	
2251	0	32798	32640	
2252	0	32804	32775	
2253	0	32830	32720	
2254	0	32852	32714	
2255	0	32868	32658	
2256	0	32832	32742	
2257	0	32870	32678	
2258	0	32928	32748	
2259	0	33040	32775	
2260	0	33136	32882	
2261	0	33036	32910	
2262	0	33104	33122	
2263	0	33076	33124	
2264	0	33112	33186	
2265	0	33076	33226	
2266	0	32984	33217	
2267	0	32954	33072	
2268	0	32868	33014	
2269	0	32912	33036	
2270	0	32868	32849	
2271	0	32768	32842	
2272	0	32718	32644	
2273	0	32718	32647	
2274	0	32720	32628	
2275	0	32730	32590	
2276	0	32636	32615	
2277	0	32656	32620	
2278	0	32660	32510	
2279	0	32668	32612	
2280	0	32688	32718	
2281	0	32710	32730	
2282	0	32756	32615	
2283	0	32636	32646	
2284	0	32734	32775	
2285	0	32764	32768	
2286	0	32784	32820	
2287	0	32804	32692	
2288	0	32780	32658	
2289	0	32736	32834	
2290	0	32760	32700	
2291	0	32836	32864	
2292	0	32800	32705	
2293	0	32808	32722	
2294	0	32808	32841	
2295	0	32820	32710	
2296	0	32836	32802	
2297	0	32836	32784	
2298	0	32728	32656	
2299	0	32848	32834	
2300	0	32792	32752	
2301	0	32862	32738	
2302	0	32828	32692	
2303	0	32804	32824	
2304	0	32856	32775	
2305	0	32826	32844	
2306	0	32832	32616	
2307	0	32816	32759	
2308	0	32821	32766	
2309	0	32804	32816	
2310	0	32834	32748	
2311	0	32766	32720	
2312	0	32808	32838	
2313	0	32828	32838	
2314	0	32812	32840	
2315	0	32786	32757	
2316	0	32798	32839	
2317	0	32826	32726	
2318	0	32828	32750	
2319	0	32848	32874	
2320	0	32840	32684	
2321	0	32864	32775	
2322	0	32788	32752	
2323	0	32844	32767	
2324	0	32752	32807	
2325	0	32804	32668	
2326	0	32828	32817	
2327	0	32784	32744	
2328	0	32800	32772	
2329	0	32824	32724	
2330	0	32800	32743	
2331	0	32816	32826	
2332	0	32828	32796	
2333	0	32884	32808	
2334	0	32818	32784	
2335	0	32808	32748	
2336	0	32758	32881	
2337	0	32816	32796	
2338	0	32773	32816	
2339	0	32876	32750	
2340	0	32800	32678	
2341	0	32828	32884	
2342	0	32832	32724	
2343	0	32800	32766	
2344	0	32792	32650	
2345	0	32754	32830	
2346	0	32860	32814	
2347	0	32792	32692	
2348	0	32804	32828	
2349	0	32830	32839	
2350	0	32816	32680	
2351	0	32800	32834	
2352	0	32812	32775	
2353	0	32852	32775	
2354	0	32788	32666	
2355	0	32812	32822	
2356	0	32834	32862	
2357	0	32816	32796	
2358	0	32784	32775	
2359	0	32848	32747	
2360	0	32836	32740	
2361	0	32820	32832	
2362	0	32888	32775	
2363	0	32764	32770	
2364	0	32802	32724	
2365	0	32772	32838	
2366	0	32748	32786	
2367	0	32856	32823	
2368	0	32804	32742	
2369	0	32800	32728	
2370	0	32818	32816	
2371	0	32788	32711	
2372	0	32868	32796	
2373	0	32756	32719	
2374	0	32792	32734	
2375	0	32838	32844	
2376	0	32868	32744	
2377	0	32800	32900	
2378	0	32742	32720	
2379	0	32868	32735	
2380	0	32813	32714	
2381	0	32744	32736	
2382	0	32892	32694	
2383	0	32832	32714	
2384	0	32808	32839	
2385	0	32823	32768	
2386	0	32756	32772	
2387	0	32778	32675	
2388	0	32788	32806	
2389	0	32816	32798	
2390	0	32800	32716	
2391	0	32828	32825	
2392	0	32832	32816	
2393	0	32780	32662	
2394	0	32896	32828	
2395	0	32868	32740	
2396	0	32782	32858	
2397	0	32858	32734	
2398	0	32864	32818	
2399	0	32800	32838	
2400	0	32808	32646	
2401	0	32816	32810	
2402	0	32826	32775	
2403	0	32720	32775	
2404	0	32784	32742	
2405	0	32754	32834	
2406	0	32868	32775	
2407	0	32800	32758	
2408	0	32824	32700	
2409	0	32804	32817	
2410	0	32818	32838	
2411	0	32788	32814	
2412	0	32818	32594	
2413	0	32852	32800	
2414	0	32804	32710	
2415	0	32836	32832	
2416	0	32858	32718	
2417	0	32744	32812	
2418	0	32784	32764	
2419	0	32792	32826	
2420	0	32824	32609	
2421	0	32808	32825	
2422	0	32836	32775	
2423	0	32770	32848	
2424	0	32804	32668	
2425	0	32840	32827	
2426	0	32794	32826	
2427	0	32848	32716	
2428	0	32853	32732	
2429	0	32844	32724	
2430	0	32834	32820	
2431	0	32796	32796	
2432	0	32838	32708	
2433	0	32818	32772	
2434	0	32846	32807	
2435	0	32828	32722	
2436	0	32768	32724	
2437	0	32822	32838	
2438	0	32808	32834	
2439	0	32770	32684	
2440	0	32798	32692	
2441	0	32832	32708	
2442	0	32780	32836	
2443	0	32792	32794	
2444	0	32756	32903	
2445	0	32840	32802	
2446	0	32798	32758	
2447	0	32800	32740	
2448	0	32752	32660	
2449	0	32838	32724	
2450	0	32788	32775	
2451	0	32842	32913	
2452	0	32828	32792	
2453	0	32810	32848	
2454	0	32770	32764	
2455	0	32768	32816	
2456	0	32844	32775	
2457	0	32818	32718	
2458	0	32820	32852	
2459	0	32860	32788	
2460	0	32818	32775	
2461	0	32856	32786	
2462	0	32792	32713	
2463	0	32776	32668	
2464	0	32828	32858	
2465	0	32788	32783	
2466	0	32832	32660	
2467	0	32772	32860	
2468	0	32808	32775	
2469	0	32844	32748	
2470	0	32752	32704	
2471	0	32800	32866	
2472	0	32820	32752	
2473	0	32810	32871	
2474	0	32840	32742	
2475	0	32856	32876	
2476	0	32834	32816	
2477	0	32800	32614	
2478	0	32826	32814	
2479	0	32780	32799	
2480	0	32804	32760	
2481	0	32812	32873	
2482	0	32884	32790	
2483	0	32754	32775	
2484	0	32840	32647	
2485	0	32818	32870	
2486	0	32804	32718	
2487	0	32826	32812	
2488	0	32788	32794	
2489	0	32856	32746	
2490	0	32840	32748	
2491	0	32794	32654	
2492	0	32788	32852	
2493	0	32816	32788	
2494	0	32836	32632	
2495	0	32864	32950	
2496	0	32820	32770	
2497	0	32804	32768	
2498	0	32788	32800	
2499	0	32848	32748	
2500	0	32848	32886	
2501	0	32844	32710	
2502	0	32804	32836	
2503	0	32820	32754	
2504	0	32802	32682	
2505	0	32820	32764	
2506	0	32820	32768	
2507	0	32844	32814	
2508	0	32812	32655	
2509	0	32870	32824	
2510	0	32888	32775	
2511	0	32788	32748	
2512	0	32826	32762	
2513	0	32852	32806	
2514	0	32784	32722	
2515	0	32788	32772	
2516	0	32744	32711	
2517	0	32828	32725	
2518	0	32844	32727	
2519	0	32840	32706	
2520	0	32794	32775	
2521	0	32788	32689	
2522	0	32752	32740	
2523	0	32864	32750	
2524	0	32816	32854	
2525	0	32784	32748	
2526	0	32862	32744	
2527	0	32784	32814	
2528	0	32856	32838	
2529	0	32824	32774	
2530	0	32876	32875	
2531	0	32808	32748	
2532	0	32860	32775	
2533	0	32826	32732	
2534	0	32792	32881	
2535	0	32788	32720	
2536	0	32796	32798	
2537	0	32768	32657	
2538	0	32848	32732	
2539	0	32852	32812	
2540	0	32792	32794	
2541	0	32800	32812	
2542	0	32760	32714	
2543	0	32784	32726	
2544	0	32804	32652	
2545	0	32836	32790	
2546	0	32828	32834	
2547	0	32848	32647	
2548	0	32804	32831	
2549	0	32844	32735	
2550	0	32784	32825	
2551	0	32784	32734	
2552	0	32792	32852	
2553	0	32862	32742	
2554	0	32878	32700	
2555	0	32816	32796	
2556	0	32786	32686	
2557	0	32768	32764	
2558	0	32806	32706	
2559	0	32836	32758	
2560	0	32726	32808	
2561	0	32816	32762	
2562	0	32792	32842	
2563	0	32780	32768	
2564	0	32784	32718	
2565	0	32884	32824	
2566	0	32868	32815	
2567	0	32820	32756	
2568	0	32810	32750	
2569	0	32840	32798	
2570	0	32862	32716	
2571	0	32808	32814	
2572	0	32808	32828	
2573	0	32786	32647	
2574	0	32828	32694	
2575	0	32812	32808	
2576	0	32808	32786	
2577	0	32854	32775	
2578	0	32784	32895	
2579	0	32778	32774	
2580	0	32832	32808	
2581	0	32868	32686	
2582	0	32792	32950	
2583	0	32834	32748	
2584	0	32794	32832	
2585	0	32800	32708	
2586	0	32852	32724	
2587	0	32752	32820	
2588	0	32776	32704	
2589	0	32812	32855	
2590	0	32812	32705	
2591	0	32780	32736	
2592	0	32756	32680	
2593	0	32782	32726	
2594	0	32796	32782	
2595	0	32808	32678	
2596	0	32860	32830	
2597	0	32824	32839	
2598	0	32826	32672	
2599	0	32834	32802	
2600	0	32840	32772	
2601	0	32816	32775	
2602	0	32848	32700	
2603	0	32844	32770	
2604	0	32780	32772	
2605	0	32738	32694	
2606	0	32824	32792	
2607	0	32800	32774	
2608	0	32772	32700	
2609	0	32804	32816	
2610	0	32784	32806	
2611	0	32806	32822	
2612	0	32806	32732	
2613	0	32784	32805	
2614	0	32768	32814	
2615	0	32790	32714	
2616	0	32790	32836	
2617	0	32816	32788	
2618	0	32816	32756	
2619	0	32816	32836	
2620	0	32888	32836	
2621	0	32724	32710	
2622	0	32826	32848	
2623	0	32826	32870	
2624	0	32826	32772	
2625	0	32764	32812	
2626	0	32772	32768	
2627	0	32772	32738	
2628	0	32748	32742	
2629	0	32828	32742	
2630	0	32844	32734	
2631	0	32892	32662	
2632	0	32768	32796	
2633	0	32860	32743	
2634	0	32844	32702	
2635	0	32800	32775	
2636	0	32796	32752	
2637	0	32848	32812	
2638	0	32792	32612	
2639	0	32844	32788	
2640	0	32806	32826	
2641	0	32802	32706	
2642	0	32844	32870	
2643	0	32836	32796	
2644	0	32822	32756	
2645	0	32768	32703	
2646	0	32776	32678	
2647	0	32840	32743	
2648	0	32812	32816	
2649	0	32786	32732	
2650	0	32776	32869	
2651	0	32796	32740	
2652	0	32836	32766	
2653	0	32834	32770	
2654	0	32876	32740	
2655	0	32824	32775	
2656	0	32808	32728	
2657	0	32808	32807	
2658	0	32826	32738	
2659	0	32850	32775	
2660	0	32776	32710	
2661	0	32836	32742	
2662	0	32788	32758	
2663	0	32844	32820	
2664	0	32840	32682	
2665	0	32816	32686	
2666	0	32800	32836	
2667	0	32812	32775	
2668	0	32852	32802	
2669	0	32860	32726	
2670	0	32856	32807	
2671	0	32808	32784	
2672	0	32801	32702	
2673	0	32780	32726	
2674	0	32778	32836	
2675	0	32790	32844	
2676	0	32852	32738	
2677	0	32828	32751	
2678	0	32788	32722	
2679	0	32804	32804	
2680	0	32732	32716	
2681	0	32792	32762	
2682	0	32882	32775	
2683	0	32788	32732	
2684	0	32804	32821	
2685	0	32836	32708	
2686	0	32844	32650	
2687	0	32812	32804	
2688	0	32764	32854	
2689	0	32770	32754	
2690	0	32790	32842	
2691	0	32860	32692	
2692	0	32832	32748	
2693	0	32828	32724	
2694	0	32832	32802	
2695	0	32780	32876	
2696	0	32848	32657	
2697	0	32862	32768	
2698	0	32806	32740	
2699	0	32800	32672	
2700	0	32836	32804	
2701	0	32860	32844	
2702	0	32824	32622	
2703	0	32832	32874	
2704	0	32776	32794	
2705	0	32874	32727	
2706	0	32842	32748	
2707	0	32804	32871	
2708	0	32802	32796	
2709	0	32768	32746	
2710	0	32728	32748	
2711	0	32756	32848	
2712	0	32838	32750	
2713	0	32840	32720	
2714	0	32768	32698	
2715	0	32794	32742	
2716	0	32904	32774	
2717	0	32842	32828	
2718	0	32818	32676	
2719	0	32752	32667	
2720	0	32820	32750	
2721	0	32832	32855	
2722	0	32825	32700	
2723	0	32782	32796	
2724	0	32796	32794	
2725	0	32740	32706	
2726	0	32816	32756	
2727	0	32776	32842	
2728	0	32738	32718	
2729	0	32778	32754	
2730	0	32856	32807	
2731	0	32832	32804	
2732	0	32828	32678	
2733	0	32840	32774	
2734	0	32816	32814	
2735	0	32820	32894	
2736	0	32808	32646	
2737	0	32766	32856	
2738	0	32836	32804	
2739	0	32804	32760	
2740	0	32825	32775	
2741	0	32866	32743	
2742	0	32850	32914	
2743	0	32832	32720	
2744	0	32800	32710	
2745	0	32828	32810	
2746	0	32784	32710	
2747	0	32784	32766	
2748	0	32820	32666	
2749	0	32808	32801	
2750	0	32784	32758	
2751	0	32804	32676	
2752	0	32820	32739	
2753	0	32816	32812	
2754	0	32838	32750	
2755	0	32792	32692	
2756	0	32822	32824	
2757	0	32824	32802	
2758	0	32866	32756	
2759	0	32772	32732	
2760	0	32800	32814	
2761	0	32780	32775	
2762	0	32854	32748	
2763	0	32790	32774	
2764	0	32776	32842	
2765	0	32776	32752	
2766	0	32816	32833	
2767	0	32780	32775	
2768	0	32776	32753	
2769	0	32816	32684	
2770	0	32738	32796	
2771	0	32860	32775	
2772	0	32884	32646	
2773	0	32756	32752	
2774	0	32846	32692	
2775	0	32824	32678	
2776	0	32880	32814	
2777	0	32832	32816	
2778	0	32816	32743	
2779	0	32802	32694	
2780	0	32794	32796	
2781	0	32856	32894	
2782	0	32776	32716	
2783	0	32824	32868	
2784	0	32828	32696	
2785	0	32848	32900	
2786	0	32796	32679	
2787	0	32804	32750	
2788	0	32796	32800	
2789	0	32756	32810	
2790	0	32832	32712	
2791	0	32812	32832	
2792	0	32772	32706	
2793	0	32808	32775	
2794	0	32816	32695	
2795	0	32808	32814	
2796	0	32780	32784	
2797	0	32716	32866	
2798	0	32876	32710	
2799	0	32738	32676	
2800	0	32746	32754	
2801	0	32856	32890	
2802	0	32864	32794	
2803	0	32764	32716	
2804	0	32792	32808	
2805	0	32804	32786	
2806	0	32816	32775	
2807	0	32836	32720	
2808	0	32820	32653	
2809	0	32834	32775	
2810	0	32802	32836	
2811	0	32786	32656	
2812	0	32817	32708	
2813	0	32864	32790	
2814	0	32880	32820	
2815	0	32850	32704	
2816	0	32830	32858	
2817	0	32788	32847	
2818	0	32792	32706	
2819	0	32800	32814	
2820	0	32836	32775	
2821	0	32798	32834	
2822	0	32822	32744	
2823	0	32872	32774	
2824	0	32820	32835	
2825	0	32836	32714	
2826	0	32816	32820	
2827	0	32784	32836	
2828	0	32780	32716	
2829	0	32876	32654	
2830	0	32838	32774	
2831	0	32828	32720	
2832	0	32834	32710	
2833	0	32768	32710	
2834	0	32804	32732	
2835	0	32860	32719	
2836	0	32822	32772	
2837	0	32748	32820	
2838	0	32774	32804	
2839	0	32804	32752	
2840	0	32848	32744	
2841	0	32772	32868	
2842	0	32798	32775	
2843	0	32844	32656	
2844	0	32860	32934	
2845	0	32750	32756	
2846	0	32818	32852	
2847	0	32812	32772	
2848	0	32808	32775	
2849	0	32860	32756	
2850	0	32772	32656	
2851	0	32796	32734	
2852	0	32800	32838	
2853	0	32884	32775	
2854	0	32852	32748	
2855	0	32852	32796	
2856	0	32876	32764	
2857	0	32784	32768	
2858	0	32896	32686	
2859	0	32804	32758	
2860	0	32794	32774	
2861	0	32792	32802	
2862	0	32820	32850	
2863	0	32860	32823	
2864	0	32798	32775	
2865	0	32776	32837	
2866	0	32776	32768	
2867	0	32802	32775	
2868	0	32828	32720	
2869	0	32790	32740	
2870	0	32772	32838	
2871	0	32846	32762	
2872	0	32808	32812	
2873	0	32854	32750	
2874	0	32884	32828	
2875	0	32796	32625	
2876	0	32768	32736	
2877	0	32836	32775	
2878	0	32768	32774	
2879	0	32834	32852	
2880	0	32816	32717	
2881	0	32814	32756	
2882	0	32808	32764	
2883	0	32846	32770	
2884	0	32868	32732	
2885	0	32828	32708	
2886	0	32842	32764	
2887	0	32796	32792	
2888	0	32818	32752	
2889	0	32794	32775	
2890	0	32756	32712	
2891	0	32816	32687	
2892	0	32792	32752	
2893	0	32804	32791	
2894	0	32816	32750	
2895	0	32834	32758	
2896	0	32818	32672	
2897	0	32776	32711	
2898	0	32770	32808	
2899	0	32826	32800	
2900	0	32844	32716	
2901	0	32852	32814	
2902	0	32784	32792	
2903	0	32788	32798	
2904	0	32820	32708	
2905	0	32832	32758	
2906	0	32866	32760	
2907	0	32748	32800	
2908	0	32776	32775	
2909	0	32796	32840	
2910	0	32840	32730	
2911	0	32800	32824	
2912	0	32820	32712	
2913	0	32804	32718	
2914	0	32832	32824	
2915	0	32790	32744	
2916	0	32816	32791	
2917	0	32868	32680	
2918	0	32832	32767	
2919	0	32796	32754	
2920	0	32796	32718	
2921	0	32746	32674	
2922	0	32744	32756	
2923	0	32840	32764	
2924	0	32856	32736	
2925	0	32824	32732	
2926	0	32828	32794	
2927	0	32840	32818	
2928	0	32826	32769	
2929	0	32824	32740	
2930	0	32808	32871	
2931	0	32804	32834	
2932	0	32864	32788	
2933	0	32782	32661	
2934	0	32826	32736	
2935	0	32908	32814	
2936	0	32788	32728	
2937	0	32784	32856	
2938	0	32816	32682	
2939	0	32880	32660	
2940	0	32782	32882	
2941	0	32786	32743	
2942	0	32790	32792	
2943	0	32794	32856	
2944	0	32834	32679	
2945	0	32800	32822	
2946	0	32784	32768	
2947	0	32760	32711	
2948	0	32824	32757	
2949	0	32808	32662	
2950	0	32840	32842	
2951	0	32824	32796	
2952	0	32800	32856	
2953	0	32816	32678	
2954	0	32826	32826	
2955	0	32804	32773	
2956	0	32788	32815	
2957	0	32844	32836	
2958	0	32846	32748	
2959	0	32826	32894	
2960	0	32916	32798	
2961	0	32804	32807	
2962	0	32810	32839	
2963	0	32782	32743	
2964	0	32806	32775	
2965	0	32846	32806	
2966	0	32846	32788	
2967	0	32826	32890	
2968	0	32810	32743	
2969	0	32792	32752	
2970	0	32840	32838	
2971	0	32778	32816	
2972	0	32792	32834	
2973	0	32764	32772	
2974	0	32804	32727	
2975	0	32714	32725	
2976	0	32790	32647	
2977	0	32792	32684	
2978	0	32776	32606	
2979	0	32740	32662	
2980	0	32680	32634	
2981	0	32780	32631	
2982	0	32682	32668	
2983	0	32726	32711	
2984	0	32720	32510	
2985	0	32728	32678	
2986	0	32712	32624	
2987	0	32768	32562	
2988	0	32816	32840	
2989	0	32712	32716	
2990	0	32786	32668	
2991	0	32730	32750	
2992	0	32704	32647	
2993	0	32706	32823	
2994	0	32772	32709	
2995	0	32874	32704	
2996	0	32896	32832	
2997	0	32864	32638	
2998	0	32892	32650	
2999	0	32950	32845	
3000	0	33046	32744	
3001	0	33048	32928	
3002	0	33058	32939	
3003	0	33058	32962	
3004	0	33004	33223	
3005	0	33120	33238	
3006	0	33024	33270	
3007	0	33036	33128	
3008	0	32996	33118	
3009	0	32956	33048	
3010	0	32806	33002	
3011	0	32830	32878	
3012	0	32764	32918	
3013	0	32672	32736	
3014	0	32696	32690	
3015	0	32768	32564	
3016	0	32768	32613	
3017	0	32768	32576	
3018	0	32714	32638	
3019	0	32648	32592	
3020	0	32728	32676	
3021	0	32736	32636	
3022	0	32700	32610	
3023	0	32678	32628	
3024	0	32748	32694	
3025	0	32724	32772	
3026	0	32712	32718	
3027	0	32834	32758	
3028	0	32744	32734	
3029	0	32752	32852	
3030	0	32828	32679	
3031	0	32840	32830	
3032	0	32878	32712	
3033	0	32788	32814	
3034	0	32834	32724	
3035	0	32820	32680	
3036	0	32836	32788	
3037	0	32828	32838	
3038	0	32824	32656	
3039	0	32764	32769	
3040	0	32776	32714	
3041	0	32828	32712	
3042	0	32808	32675	
3043	0	32820	32887	
3044	0	32868	32775	
3045	0	32808	32812	
3046	0	32828	32804	
3047	0	32780	32710	
3048	0	32834	32784	
3049	0	32742	32775	
3050	0	32854	32740	
3051	0	32890	32818	
3052	0	32844	32736	
3053	0	32828	32698	
3054	0	32832	32788	
3055	0	32798	32762	
3056	0	32844	32775	
3057	0	32754	32644	
3058	0	32836	32788	
3059	0	32824	32775	
3060	0	32770	32821	
3061	0	32768	32818	
3062	0	32760	32714	
3063	0	32830	32834	
3064	0	32816	32730	
3065	0	32812	32802	
3066	0	32862	32662	
3067	0	32834	32701	
3068	0	32800	32800	
3069	0	32836	32775	
3070	0	32848	32790	
3071	0	32832	32710	
3072	0	32780	32839	
3073	0	32800	32769	
3074	0	32850	32788	
3075	0	32840	32636	
3076	0	32790	32808	
3077	0	32776	32750	
3078	0	32776	32784	
3079	0	32784	32800	
3080	0	32804	32758	
3081	0	32752	32808	
3082	0	32828	32860	
3083	0	32880	32666	
3084	0	32848	32808	
3085	0	32820	32756	
3086	0	32862	32810	
3087	0	32882	32770	
3088	0	32794	32709	
3089	0	32820	32774	
3090	0	32762	32826	
3091	0	32832	32670	
3092	0	32856	32724	
3093	0	32878	32774	
3094	0	32832	32764	
3095	0	32814	32775	
3096	0	32788	32807	
3097	0	32760	32788	
3098	0	32754	32688	
3099	0	32794	32769	
3100	0	32752	32770	
3101	0	32760	32856	
3102	0	32784	32786	
3103	0	32832	32830	
3104	0	32740	32657	
3105	0	32818	32768	
3106	0	32836	32728	
3107	0	32794	32686	
3108	0	32812	32775	
3109	0	32772	32740	
3110	0	32852	32754	
3111	0	32886	32732	
3112	0	32868	32775	
3113	0	32872	32874	
3114	0	32858	32750	
3115	0	32816	32906	
3116	0	32788	32814	
3117	0	32792	32860	
3118	0	32828	32700	
3119	0	32838	32672	
3120	0	32814	32696	
3121	0	32842	32750	
3122	0	32816	32860	
3123	0	32756	32746	
3124	0	32788	32775	
3125	0	32788	32742	
3126	0	32764	32790	
3127	0	32764	32746	
3128	0	32830	32786	
3129	0	32804	32868	
3130	0	32844	32682	
3131	0	32732	32826	
3132	0	32856	32716	
3133	0	32798	32834	
3134	0	32830	32678	
3135	0	32846	32787	
3136	0	32816	32748	
3137	0	32800	32710	
3138	0	32822	32766	
3139	0	32816	32848	
3140	0	32818	32792	
3141	0	32864	32743	
3142	0	32828	32764	
3143	0	32812	32798	
3144	0	32788	32823	
3145	0	32740	32725	
3146	0	32710	32775	
3147	0	32746	32774	
3148	0	32796	32668	
3149	0	32810	32838	
3150	0	32818	32806	
3151	0	32832	32754	
3152	0	32759	32684	
3153	0	32812	32832	
3154	0	32848	32754	
3155	0	32728	32934	
3156	0	32796	32774	
3157	0	32760	32672	
3158	0	32810	32759	
3159	0	32784	32802	
3160	0	32754	32692	
3161	0	32804	32674	
3162	0	32886	32790	
3163	0	32856	32804	
3164	0	32876	32762	
3165	0	32854	32760	
3166	0	32872	32722	
3167	0	32816	32758	
3168	0	32780	32775	
3169	0	32832	32784	
3170	0	32756	32864	
3171	0	32766	32768	
3172	0	32790	32842	
3173	0	32764	32856	
3174	0	32808	32692	
3175	0	32790	32684	
3176	0	32852	32760	
3177	0	32864	32666	
3178	0	32832	32721	
3179	0	32800	32806	
3180	0	32905	32756	
3181	0	32850	32816	
3182	0	32804	32791	
3183	0	32838	32734	
3184	0	32748	32816	
3185	0	32698	32830	
3186	0	32833	32718	
3187	0	32756	32652	
3188	0	32816	32632	
3189	0	32768	32792	
3190	0	32848	32817	
3191	0	32828	32798	
3192	0	32772	32823	
3193	0	32798	32686	
3194	0	32784	32666	
3195	0	32882	32734	
3196	0	32804	32775	
3197	0	32832	32724	
3198	0	32804	32672	
3199	0	32784	32762	
3200	0	32712	32811	
3201	0	32780	32768	
3202	0	32816	32718	
3203	0	32788	32840	
3204	0	32822	32764	
3205	0	32784	32884	
3206	0	32778	32775	
3207	0	32766	32756	
3208	0	32808	32784	
3209	0	32712	32812	
3210	0	32924	32679	
3211	0	32896	32818	
3212	0	32834	32804	
3213	0	32788	32735	
3214	0	32850	32655	
3215	0	32868	32738	
3216	0	32844	32670	
3217	0	32856	32742	
3218	0	32847	32824	
3219	0	32800	32918	
3220	0	32772	32847	
3221	0	32752	32772	
3222	0	32788	32711	
3223	0	32736	32792	
3224	0	32708	32738	
3225	0	32688	32704	
3226	0	32856	32692	
3227	0	32898	32664	
3228	0	32896	32874	
3229	0	32880	32682	
3230	0	32900	32698	
3231	0	32956	32756	
3232	0	32986	32874	
3233	0	32884	32926	
3234	0	32816	32792	
3235	0	32864	32750	
3236	0	32816	32852	
3237	0	32734	32715	
3238	0	32736	32828	
3239	0	32752	32752	
3240	0	32808	32770	
3241	0	32822	32887	
3242	0	32768	32750	
3243	0	32742	32814	
3244	0	32884	32708	
3245	0	32828	32634	
3246	0	32802	32740	
3247	0	32804	32726	
3248	0	32860	32876	
3249	0	32756	32832	
3250	0	32784	32836	
3251	0	32800	32802	
3252	0	32796	32772	
3253	0	32798	32768	
3254	0	32832	32742	
3255	0	32808	32825	
3256	0	32800	32706	
3257	0	32844	32684	
3258	0	32844	32752	
3259	0	32812	32742	
3260	0	32776	32730	
3261	0	32810	32823	
3262	0	32764	32696	
3263	0	32768	32722	
3264	0	32788	32683	
3265	0	32844	32670	
3266	0	32912	32647	
3267	0	32836	32786	
3268	0	32786	32747	
3269	0	32904	32886	
3270	0	32790	32794	
3271	0	32776	32772	
3272	0	32832	32762	
3273	0	32744	32804	
3274	0	32750	32734	
3275	0	32864	32788	
3276	0	32788	32802	
3277	0	32826	32742	
3278	0	32796	32771	
3279	0	32776	32788	
3280	0	32886	32775	
3281	0	32864	32840	
3282	0	32892	32758	
3283	0	32820	32698	
3284	0	32796	32828	
3285	0	32756	32774	
3286	0	32728	32724	
3287	0	32812	32828	
3288	0	32788	32775	
3289	0	32800	32698	
3290	0	32748	32774	
3291	0	32760	32782	
3292	0	32900	32836	
3293	0	32768	32706	
3294	0	32796	32866	
3295	0	32884	32695	
3296	0	32862	32818	
3297	0	32792	32679	
3298	0	32814	32726	
3299	0	32852	32788	
3300	0	32874	32798	
3301	0	32908	32748	
3302	0	32862	32664	
3303	0	32832	32759	
3304	0	32788	32820	
3305	0	32756	32769	
3306	0	32768	32734	
3307	0	32800	32704	
3308	0	32804	32720	
3309	0	32786	32774	
3310	0	32768	32720	
3311	0	32876	32788	
3312	0	32826	32852	
3313	0	32810	32820	
3314	0	32780	32950	
3315	0	32828	32820	
3316	0	32814	32596	
3317	0	32892	32770	
3318	0	32848	32718	
3319	0	32808	32631	
3320	0	32764	32775	
3321	0	32752	32761	
3322	0	32734	32810	
3323	0	32844	32733	
3324	0	32740	32775	
3325	0	32772	32794	
3326	0	32750	32690	
3327	0	32768	32743	
3328	0	32816	32775	
3329	0	32812	32740	
3330	0	32864	32818	
3331	0	32996	32806	
3332	0	32960	32847	
3333	0	32874	32744	
3334	0	32888	32814	
3335	0	32834	32832	
3336	0	32808	32801	
3337	0	32840	32812	
3338	0	32780	32750	
3339	0	32816	32724	
3340	0	32828	32742	
3341	0	32808	32680	
3342	0	32820	32708	
3343	0	32794	32647	
3344	0	32748	32663	
3345	0	32744	32804	
3346	0	32796	32664	
3347	0	32860	32711	
3348	0	32704	32852	
3349	0	32716	32836	
3350	0	32804	32890	
3351	0	32832	32716	
3352	0	32816	32792	
3353	0	32804	32732	
3354	0	32790	32900	
3355	0	32764	32774	
3356	0	32764	32784	
3357	0	32738	32816	
3358	0	32762	32682	
3359	0	32858	32846	
3360	0	32864	32710	
3361	0	32810	32768	
3362	0	32764	32775	
3363	0	32720	32839	
3364	0	32760	32764	
3365	0	32852	32839	
3366	0	32840	32692	
3367	0	32936	32689	
3368	0	32844	32830	
3369	0	32784	32866	
3370	0	32888	32900	
3371	0	33000	32679	
3372	0	32968	32790	
3373	0	32932	32784	
3374	0	32940	32720	
3375	0	32878	32774	
3376	0	32888	32775	
3377	0	32856	32737	
3378	0	32894	32816	
3379	0	32756	32825	
3380	0	32824	32806	
3381	0	32808	32716	
3382	0	32664	32694	
3383	0	32704	32775	
3384	0	32652	32742	
3385	0	32640	32652	
3386	0	32752	32578	
3387	0	32760	32688	
3388	0	32832	32684	
3389	0	32776	32658	
3390	0	32748	32908	
3391	0	32728	32866	
3392	0	32716	32956	
3393	0	32770	32964	
3394	0	32904	33022	
3395	0	33050	32862	
3396	0	32978	32852	
3397	0	32822	32656	
3398	0	32854	32546	
3399	0	32872	32495	
3400	0	32772	32568	
3401	0	32840	32623	
3402	0	32784	32502	
3403	0	32754	32678	
3404	0	32698	32672	
3405	0	32852	32814	
3406	0	32816	32750	
3407	0	32766	32707	
3408	0	32770	32852	
3409	0	32808	32798	
3410	0	32744	32641	
3411	0	32798	32698	
3412	0	32844	32828	
3413	0	32704	32868	
3414	0	32736	32822	
3415	0	32743	32692	
3416	0	32826	32807	
3417	0	32816	32903	
3418	0	32812	32982	
3419	0	32778	32830	
3420	0	32676	32768	
3421	0	32666	32847	
3422	0	32884	32702	
3423	0	32872	32706	
3424	0	32866	32708	
3425	0	32800	32639	
3426	0	32844	32756	
3427	0	32898	32713	
3428	0	32904	32718	
3429	0	32972	32871	
3430	0	32960	32832	
3431	0	32896	32806	
3432	0	32838	32884	
3433	0	32764	32798	
3434	0	32798	32814	
3435	0	32728	32918	
3436	0	32748	32722	
3437	0	32792	32706	
3438	0	32792	32868	
3439	0	32844	32948	
3440	0	32864	32958	
3441	0	32712	32920	
3442	0	32800	32718	
3443	0	32868	32732	
3444	0	32804	32636	
3445	0	32684	32740	
3446	0	32624	32618	
3447	0	32902	32680	
3448	0	32892	32788	
3449	0	32878	32604	
3450	0	32920	32640	
3451	0	32844	32711	
3452	0	32796	32684	
3453	0	32884	32727	
3454	0	32920	32830	
3455	0	33002	32716	
3456	0	32984	32891	
3457	0	32792	32852	
3458	0	32690	32839	
3459	0	32538	32686	
3460	0	32576	32838	
3461	0	32666	32675	
3462	0	32710	32740	
3463	0	32744	32720	
3464	0	32908	32714	
3465	0	32924	32842	
3466	0	32758	32718	
3467	0	32784	32794	
3468	0	32724	32870	
3469	0	32624	32775	
3470	0	32710	32752	
3471	0	32812	32719	
3472	0	32680	32740	
3473	0	32728	32706	
3474	0	32856	32802	
3475	0	32860	32796	
3476	0	32872	32864	
3477	0	33024	32828	
3478	0	33148	32700	
3479	0	33164	32775	
3480	0	33008	32822	
3481	0	33012	32708	
3482	0	33116	32792	
3483	0	33060	32923	
3484	0	33012	32948	
3485	0	32948	32821	
3486	0	32889	32652	
3487	0	32712	32760	
3488	0	32548	32708	
3489	0	32606	32742	
3490	0	32680	32788	
3491	0	32676	32820	
3492	0	32656	32846	
3493	0	32554	32790	
3494	0	32588	32944	
3495	0	32560	32818	
3496	0	32394	32754	
3497	0	32400	32616	
3498	0	32596	32692	
3499	0	32927	32694	
3500	0	33422	32702	
3501	0	33278	32742	
3502	0	33200	32679	
3503	0	32962	32828	
3504	0	32970	32784	
3505	0	32740	32788	
3506	0	32676	32775	
3507	0	32642	32715	
3508	0	32616	32816	
3509	0	32556	32686	
3510	0	32428	32791	
3511	0	32600	32745	
3512	0	32818	32612	
3513	0	33004	32429	
3514	0	33088	32583	
3515	0	33088	32696	
3516	0	32952	32707	
3517	0	32806	32668	
3518	0	32828	32720	
3519	0	32762	32682	
3520	0	32596	32775	
3521	0	32352	32710	
3522	0	32548	32980	
3523	0	32834	32950	
3524	0	32960	33008	
3525	0	33144	32700	
3526	0	33344	32746	
3527	0	33304	32670	
3528	0	33112	32775	
3529	0	32968	32639	
3530	0	32872	32774	
3531	0	32876	32844	
3532	0	32690	32924	
3533	0	32570	32759	
3534	0	32536	32870	
3535	0	32604	32871	
3536	0	32644	32856	
3537	0	32460	32982	
3538	0	32592	32772	
3539	0	32748	32840	
3540	0	32838	32740	
3541	0	32856	32788	
3542	0	32816	32770	
3543	0	32788	32769	
3544	0	32832	32530	
3545	0	32784	32580	
3546	0	32876	32757	
3547	0	32876	32695	
3548	0	32892	32664	
3549	0	32928	32644	
3550	0	32788	32807	
3551	0	33016	32740	
3552	0	32828	32860	
3553	0	32704	32858	
3554	0	32716	32684	
3555	0	32856	32684	
3556	0	32712	32674	
3557	0	32700	32755	
3558	0	32690	32728	
3559	0	32802	32572	
3560	0	33020	32716	
3561	0	32704	32807	
3562	0	32480	33006	
3563	0	32316	32948	
3564	0	32412	33095	
3565	0	33080	33068	
3566	0	33136	32914	
3567	0	33216	32738	
3568	0	33188	32945	
3569	0	33220	32775	
3570	0	33412	32724	
3571	0	33280	32692	
3572	0	32901	32640	
3573	0	32656	32862	
3574	0	32602	32857	
3575	0	32464	32888	
3576	0	32484	32796	
3577	0	32576	32474	
3578	0	32686	32500	
3579	0	32576	32671	
3580	0	32516	32712	
3581	0	32748	32611	
3582	0	32858	32596	
3583	0	32912	32708	
3584	0	32998	32754	
3585	0	32788	32680	
3586	0	32862	32788	
3587	0	32812	32820	
3588	0	32644	32798	
3589	0	32776	32795	
3590	0	32903	32660	
3591	0	32864	32775	
3592	0	32938	32724	
3593	0	32930	32820	
3594	0	32890	32858	
3595	0	32878	32750	
3596	0	32926	32824	
3597	0	32804	32764	
3598	0	32860	32759	
3599	0	32892	32682	
3600	0	32816	32748	
3601	0	32577	32804	
3602	0	32576	32928	
3603	0	32630	32854	
3604	0	32764	32948	
3605	0	32868	32858	
3606	0	32812	32990	
3607	0	32602	32828	
3608	0	32672	32943	
3609	0	32752	32775	
3610	0	32688	32775	
3611	0	32724	32652	
3612	0	33048	32604	
3613	0	33080	32586	
3614	0	32976	32796	
3615	0	32982	32536	
3616	0	32978	32610	
3617	0	32870	32798	
3618	0	32760	32704	
3619	0	32732	32598	
3620	0	32676	32636	
3621	0	32588	32660	
3622	0	32540	32686	
3623	0	32704	32658	
3624	0	32896	32736	
3625	0	32936	32826	
3626	0	32878	32966	
3627	0	32962	32822	
3628	0	32944	32848	
3629	0	32816	32872	
3630	0	32900	32844	
3631	0	32980	32950	
3632	0	32748	32816	
3633	0	32628	32952	
3634	0	32936	32814	
3635	0	33044	32940	
3636	0	32956	32682	
3637	0	32808	32730	
3638	0	32872	32801	
3639	0	32774	32858	
3640	0	32700	32705	
3641	0	32508	32688	
3642	0	32608	32872	
3643	0	32612	32894	
3644	0	32906	32932	
3645	0	32860	32714	
3646	0	32684	32758	
3647	0	32780	32736	
3648	0	32876	32672	
3649	0	33012	32662	
3650	0	33080	32736	
3651	0	32892	32864	
3652	0	32674	33024	
3653	0	32677	32903	
3654	0	32772	32868	
3655	0	32718	32647	
3656	0	32880	32678	
3657	0	32730	32706	
3658	0	32580	32496	
3659	0	32778	32446	
3660	0	32912	32391	
3661	0	32840	32464	
3662	0	32868	32492	
3663	0	32914	32743	
3664	0	32816	32928	
3665	0	32726	32794	
3666	0	32974	32810	
3667	0	33094	32996	
3668	0	32902	32896	
3669	0	32698	32859	
3670	0	32740	32800	
3671	0	32760	32838	
3672	0	32768	32726	
3673	0	32720	32775	
3674	0	32704	32666	
3675	0	32848	32796	
3676	0	32954	32737	
3677	0	32814	32804	
3678	0	32696	32624	
3679	0	32662	32959	
3680	0	32698	32862	
3681	0	32804	32890	
3682	0	32892	32828	
3683	0	32812	32694	
3684	0	32832	32903	
3685	0	32652	32860	
3686	0	32528	32872	
3687	0	32640	32762	
3688	0	33072	32750	
3689	0	32836	32800	
3690	0	32740	32832	
3691	0	32732	32706	
3692	0	32950	32801	
3693	0	32890	32790	
3694	0	32956	32948	
3695	0	32900	32700	
3696	0	32932	32612	
3697	0	33022	32612	
3698	0	32920	32558	
3699	0	32812	32794	
3700	0	32802	32746	
3701	0	32708	32775	
3702	0	32868	32732	
3703	0	32832	32804	
3704	0	32788	32742	
3705	0	32860	32788	
3706	0	32726	32680	
3707	0	32808	32760	
3708	0	32612	32678	
3709	0	32568	32768	
3710	0	32768	32900	
3711	0	32760	33016	
3712	0	32782	32912	
3713	0	32872	32815	
3714	0	32900	32852	
3715	0	32714	32660	
3716	0	32768	32622	
3717	0	32748	32430	
3718	0	32638	32544	
3719	0	32760	32839	
3720	0	32938	32691	
3721	0	32784	32712	
3722	0	32816	32646	
3723	0	32772	32740	
3724	0	32816	32871	
3725	0	32848	32903	
3726	0	32900	32844	
3727	0	32876	32775	
3728	0	32816	32894	
3729	0	32704	32916	
3730	0	32800	32800	
3731	0	32738	32792	
3732	0	32772	32823	
3733	0	32902	32730	
3734	0	33000	32624	
3735	0	32796	32634	
3736	0	32836	32754	
3737	0	32904	32700	
3738	0	32742	32710	
3739	0	32868	32623	
3740	0	32928	32774	
3741	0	32870	32862	
3742	0	32742	32900	
3743	0	32880	32792	
3744	0	32820	32775	
3745	0	32712	32816	
3746	0	32728	32842	
3747	0	32680	32952	
3748	0	32714	32770	
3749	0	32696	32676	
3750	0	32728	32838	
3751	0	32870	32692	
3752	0	33000	32706	
3753	0	32929	32736	
3754	0	32820	32679	
3755	0	32782	32798	
3756	0	32744	32841	
3757	0	32782	32788	
3758	0	32768	32834	
3759	0	32852	32913	
3760	0	32942	32816	
3761	0	32932	32758	
3762	0	32868	32838	
3763	0	32873	32812	
3764	0	32716	32798	
3765	0	32770	32742	
3766	0	32672	32674	
3767	0	32740	32756	
3768	0	32732	32676	
3769	0	32776	32772	
3770	0	32834	32775	
3771	0	32992	32713	
3772	0	32932	32775	
3773	0	32696	32744	
3774	0	32776	32860	
3775	0	32784	32628	
3776	0	32868	32824	
3777	0	32890	32774	
3778	0	32896	32812	
3779	0	32752	32740	
3780	0	32832	32768	
3781	0	32772	32660	
3782	0	32736	32736	
3783	0	32720	32710	
3784	0	32892	32844	
3785	0	32828	32720	
3786	0	32810	32769	
3787	0	32816	32618	
3788	0	32706	32796	
3789	0	32728	32960	
3790	0	32712	32911	
3791	0	32906	32850	
3792	0	33180	32932	
3793	0	33000	32855	
3794	0	32846	32836	
3795	0	32596	32692	
3796	0	32688	32642	
3797	0	32766	32696	
3798	0	32816	32666	
3799	0	32828	32730	
3800	0	32736	32660	
3801	0	32688	32604	
3802	0	32668	32647	
3803	0	32664	32679	
3804	0	32624	32632	
3805	0	32616	32630	
3806	0	32666	32660	
3807	0	32668	32689	
3808	0	32742	32660	
3809	0	32836	32591	
3810	0	32764	32786	
3811	0	32692	32700	
3812	0	32712	32742	
3813	0	32764	32679	
3814	0	32812	32732	
3815	0	32802	32772	
3816	0	32856	32628	
3817	0	32824	32582	
3818	0	32748	32790	
3819	0	33016	32788	
3820	0	33098	32839	
3821	0	33116	32756	
3822	0	33056	32934	
3823	0	33144	32972	
3824	0	33222	33112	
3825	0	33086	33272	
3826	0	33166	33086	
3827	0	33032	33007	
3828	0	32904	33228	
3829	0	32796	33092	
3830	0	33002	33102	
3831	0	32960	32884	
3832	0	32774	32794	
3833	0	32700	32896	
3834	0	32632	32758	
3835	0	32768	32708	
3836	0	32852	32830	
3837	0	32682	32560	
3838	0	32588	32567	
3839	0	32576	32658	
3840	0	32648	32584	
3841	0	32624	32548	
3842	0	32660	32604	
3843	0	32636	32673	
3844	0	32700	32756	
3845	0	32700	32728	
3846	0	32768	32724	
3847	0	32782	32744	
3848	0	32800	32825	
3849	0	32912	32821	
3850	0	32896	32678	
3851	0	32826	32744	
3852	0	32656	32822	
3853	0	32692	32868	
3854	0	32760	32716	
3855	0	32774	32820	
3856	0	32800	32810	
3857	0	32864	32775	
3858	0	32952	32834	
3859	0	33080	32704	
3860	0	32888	32798	
3861	0	32856	32902	
3862	0	32824	32836	
3863	0	32824	32682	
3864	0	32768	32864	
3865	0	32836	32734	
3866	0	32750	32656	
3867	0	32800	32764	
3868	0	32704	32630	
3869	0	32728	32573	
3870	0	32736	32722	
3871	0	32784	32862	
3872	0	32906	32917	
3873	0	32864	32796	
3874	0	32820	32752	
3875	0	32880	32868	
3876	0	32996	32854	
3877	0	32848	32646	
3878	0	32752	32529	
3879	0	32804	32566	
3880	0	32776	32620	
3881	0	32856	32870	
3882	0	32780	32766	
3883	0	32856	32672	
3884	0	32804	32730	
3885	0	32844	32855	
3886	0	32792	32734	
3887	0	32846	32764	
3888	0	32774	32903	
3889	0	32692	32898	
3890	0	32724	32868	
3891	0	32876	32788	
3892	0	32762	32876	
3893	0	32808	32852	
3894	0	32744	32881	
3895	0	32860	32740	
3896	0	32846	32647	
3897	0	32906	32556	
3898	0	32820	32734	
3899	0	32796	32708	
3900	0	32984	32762	
3901	0	32904	32734	
3902	0	32818	32708	
3903	0	32684	32880	
3904	0	32672	32750	
3905	0	32602	32742	
3906	0	32692	32878	
3907	0	32754	32730	
3908	0	32866	32676	
3909	0	32864	32568	
3910	0	32736	32714	
3911	0	32818	32608	
3912	0	32902	32796	
3913	0	32906	32738	
3914	0	32816	32772	
3915	0	32758	32834	
3916	0	32824	32716	
3917	0	32832	32732	
3918	0	32828	32710	
3919	0	32816	32892	
3920	0	32716	32900	
3921	0	32882	32840	
3922	0	32904	32630	
3923	0	32876	32943	
3924	0	32884	32871	
3925	0	32856	32766	
3926	0	32926	32774	
3927	0	32824	32807	
3928	0	32732	32892	
3929	0	32784	32850	
3930	0	32892	32620	
3931	0	32948	32614	
3932	0	32764	32652	
3933	0	32760	32656	
3934	0	32860	32496	
3935	0	32912	32578	
3936	0	32770	32504	
3937	0	32744	32608	
3938	0	32700	32624	
3939	0	32712	32671	
3940	0	32536	32806	
3941	0	32616	32940	
3942	0	32738	32866	
3943	0	32956	32918	
3944	0	32904	32842	
3945	0	32908	32832	
3946	0	32838	32816	
3947	0	33008	32804	
3948	0	32948	32816	
3949	0	32988	32667	
3950	0	32828	32775	
3951	0	32736	32922	
3952	0	32742	32775	
3953	0	32760	32842	
3954	0	32806	32674	
3955	0	32824	32639	
3956	0	32856	32668	
3957	0	32832	32836	
3958	0	32684	32931	
3959	0	32736	32798	
3960	0	32644	32846	
3961	0	32800	32864	
3962	0	32938	32887	
3963	0	32956	32666	
3964	0	32900	32700	
3965	0	32728	32695	
3966	0	32648	32570	
3967	0	32644	32546	
3968	0	32888	32560	
3969	0	32996	32718	
3970	0	33064	32768	
3971	0	32784	32684	
3972	0	32777	32800	
3973	0	32732	32769	
3974	0	32752	32806	
3975	0	32644	32970	
3976	0	32818	32868	
3977	0	32796	33058	
3978	0	32784	32890	
3979	0	32878	32660	
3980	0	32840	32679	
3981	0	32881	32850	
3982	0	32882	32816	
3983	0	33022	32724	
3984	0	32848	32730	
3985	0	32784	32764	
3986	0	32776	32608	
3987	0	32936	32638	
3988	0	32852	32654	
3989	0	32852	32646	
3990	0	32842	32710	
3991	0	32836	32796	
3992	0	32888	33158	
3993	0	32800	33140	
3994	0	32661	32878	
3995	0	32858	32756	
3996	0	32760	32774	
3997	0	32768	32580	
3998	0	32712	32561	
3999	0	32808	32622	
4000	0	32840	32864	
4001	0	32656	32912	
4002	0	32852	32652	
4003	0	32828	32492	
4004	0	32884	32488	
4005	0	32756	32596	
4006	0	32880	32548	
4007	0	32840	32786	
4008	0	32656	32854	
4009	0	32676	32764	
4010	0	32664	32650	
4011	0	32774	32796	
4012	0	32764	32910	
4013	0	32452	32960	
4014	0	32600	32663	
4015	0	32928	32738	
4016	0	32852	32604	
4017	0	32936	32785	
4018	0	33064	32711	
4019	0	33062	32676	
4020	0	32984	32732	
4021	0	32744	32775	
4022	0	32849	32898	
4023	0	32852	32920	
4024	0	32884	32706	
4025	0	32714	32863	
4026	0	32714	32882	
4027	0	32840	32890	
4028	0	32774	32924	
4029	0	32904	32670	
4030	0	32864	32850	
4031	0	32900	32902	
4032	0	32776	32700	
4033	0	32838	32584	
4034	0	32962	32647	
4035	0	32756	32838	
4036	0	32704	32839	
4037	0	32644	32864	
4038	0	32800	32746	
4039	0	32892	32877	
4040	0	32976	32752	
4041	0	32896	32751	
4042	0	32760	32736	
4043	0	32740	32914	
4044	0	32706	32758	
4045	0	32676	32748	
4046	0	32714	32908	
4047	0	32752	32844	
4048	0	32728	32822	
4049	0	32900	32548	
4050	0	32744	32679	
4051	0	32786	32612	
4052	0	32882	32602	
4053	0	32842	32772	
4054	0	32752	32871	
4055	0	32850	33084	
4056	0	32872	32876	
4057	0	33052	32600	
4058	0	33024	32586	
4059	0	32844	32681	
4060	0	32832	32624	
4061	0	32960	32740	
4062	0	32900	32700	
4063	0	32804	32775	
4064	0	32740	32822	
4065	0	33016	32826	
4066	0	33064	32775	
4067	0	33044	32836	
4068	0	32792	32924	
4069	0	32664	32924	
4070	0	32700	32846	
4071	0	32598	32712	
4072	0	32656	32876	
4073	0	32648	32910	
4074	0	32616	33024	
4075	0	32544	32798	
4076	0	32582	32828	
4077	0	32696	33031	
4078	0	32800	32817	
4079	0	33036	32708	
4080	0	32944	32703	
4081	0	32972	33316	
4082	0	33188	33068	
4083	0	33192	32764	
4084	0	33028	32571	
4085	0	32740	32464	
4086	0	32608	32578	
4087	0	32672	32346	
4088	0	32732	32174	
4089	0	32766	32290	
4090	0	32876	32156	
4091	0	32656	32263	
4092	0	32914	32598	
4093	0	32964	32581	
4094	0	32968	32765	
4095	0	32932	32971	
4096	0	32784	32994	
4097	0	32776	33174	
4098	0	32944	32911	
4099	0	32838	32868	
4100	0	32672	32992	
4101	0	32676	32954	
4102	0	32808	32917	
4103	0	32802	32948	
4104	0	32852	32918	
4105	0	32792	33166	
4106	0	32580	33344	
4107	0	32652	33218	
4108	0	32820	33106	
4109	0	32894	32996	
4110	0	32888	32764	
4111	0	32732	32424	
4112	0	32772	32342	
4113	0	32784	32579	
4114	0	32960	32279	
4115	0	32860	32382	
4116	0	32860	32559	
4117	0	32592	32380	
4118	0	32476	32318	
4119	0	32728	32542	
4120	0	32784	32609	
4121	0	32892	32704	
4122	0	32876	32716	
4123	0	33060	32820	
4124	0	32924	32950	
4125	0	33006	32924	
4126	0	33100	32948	
4127	0	32922	33020	
4128	0	32792	33148	
4129	0	32736	32928	
4130	0	32600	32738	
4131	0	32700	32638	
4132	0	32656	32676	
4133	0	32672	32820	
4134	0	32924	32762	
4135	0	32820	32774	
4136	0	32890	32926	
4137	0	32952	32842	
4138	0	32988	32758	
4139	0	33100	32775	
4140	0	32932	32802	
4141	0	32800	32774	
4142	0	32904	32802	
4143	0	32952	32666	
4144	0	32860	32747	
4145	0	32740	32840	
4146	0	32604	32890	
4147	0	32612	32756	
4148	0	32496	32818	
4149	0	32596	32910	
4150	0	32752	32731	
4151	0	32760	32895	
4152	0	32764	32786	
4153	0	32832	32532	
4154	0	32796	32519	
4155	0	32890	32502	
4156	0	32864	32486	
4157	0	32760	32558	
4158	0	32904	32824	
4159	0	32864	33047	
4160	0	32774	32860	
4161	0	32618	32838	
4162	0	32762	32606	
4163	0	32804	32713	
4164	0	33016	32512	
4165	0	32980	32462	
4166	0	32796	32652	
4167	0	32872	32678	
4168	0	32832	32596	
4169	0	32778	32934	
4170	0	32924	32920	
4171	0	32948	32592	
4172	0	32892	32687	
4173	0	32888	32887	
4174	0	32832	32964	
4175	0	32814	32958	
4176	0	32732	32916	
4177	0	32772	32825	
4178	0	32720	32972	
4179	0	32720	33106	
4180	0	32880	33214	
4181	0	32908	32581	
4182	0	32742	32815	
4183	0	32740	32766	
4184	0	32972	32422	
4185	0	32982	32480	
4186	0	32658	32656	
4187	0	32716	32567	
4188	0	32725	32242	
4189	0	32764	32478	
4190	0	32578	32618	
4191	0	32529	32730	
4192	0	32768	32620	
4193	0	32660	32707	
4194	0	32868	32826	
4195	0	32976	32674	
4196	0	33106	32668	
4197	0	33032	33087	
4198	0	32812	33018	
4199	0	32622	32964	
4200	0	32336	32880	
4201	0	32404	32868	
4202	0	32640	33000	
4203	0	32788	32790	
4204	0	32952	32646	
4205	0	32944	32772	
4206	0	33184	32738	
4207	0	33172	32750	
4208	0	33056	33066	
4209	0	33130	32836	
4210	0	33324	32730	
4211	0	32928	32916	
4212	0	32886	32870	
4213	0	32840	32936	
4214	0	32594	32910	
4215	0	32456	32610	
4216	0	32692	32679	
4217	0	32820	32707	
4218	0	32824	32622	
4219	0	32680	32384	
4220	0	32752	32500	
4221	0	32816	32775	
4222	0	32884	32752	
4223	0	32756	32680	
4224	0	32614	32927	
4225	0	32556	33031	
4226	0	32672	33204	
4227	0	32908	32826	
4228	0	32944	32490	
4229	0	32870	32760	
4230	0	32930	32908	
4231	0	32682	32768	
4232	0	32506	32903	
4233	0	32884	32828	
4234	0	32880	32938	
4235	0	32818	32422	
4236	0	32916	32592	
4237	0	33068	32660	
4238	0	32912	32488	
4239	0	32680	32601	
4240	0	32736	32577	
4241	0	32890	32821	
4242	0	32836	33120	
4243	0	32730	32932	
4244	0	32804	32612	
4245	0	32872	32730	
4246	0	32890	32692	
4247	0	32658	32928	
4248	0	32826	32676	
4249	0	32936	32900	
4250	0	32932	32790	
4251	0	32900	32870	
4252	0	32966	32980	
4253	0	32898	32987	
4254	0	32740	32836	
4255	0	32680	32885	
4256	0	32740	32879	
4257	0	33046	32870	
4258	0	33178	32391	
4259	0	33012	32484	
4260	0	33002	32852	
4261	0	32980	32816	
4262	0	32970	32564	
4263	0	32754	32740	
4264	0	32422	32750	
4265	0	32348	32767	
4266	0	32224	32850	
4267	0	32338	32981	
4268	0	32460	32748	
4269	0	32584	33020	
4270	0	32720	32994	
4271	0	32856	32623	
4272	0	32724	32654	
4273	0	32768	32618	
4274	0	32890	32580	
4275	0	32834	32452	
4276	0	32906	32580	
4277	0	32838	32798	
4278	0	32934	33026	
4279	0	33052	32907	
4280	0	32952	32964	
4281	0	33024	33156	
4282	0	32968	32912	
4283	0	32888	32482	
4284	0	33002	32686	
4285	0	32844	32734	
4286	0	32820	32798	
4287	0	32752	32736	
4288	0	32504	32775	
4289	0	32736	32588	
4290	0	32844	32667	
4291	0	32984	32624	
4292	0	32862	32846	
4293	0	32834	32544	
4294	0	32714	32646	
4295	0	32596	32608	
4296	0	32754	32731	
4297	0	32788	32770	
4298	0	32812	32842	
4299	0	32828	32903	
4300	0	32836	32761	
4301	0	32910	32873	
4302	0	32924	32822	
4303	0	32976	32943	
4304	0	32812	32904	
4305	0	32800	32916	
4306	0	32888	32974	
4307	0	32894	32850	
4308	0	32826	32887	
4309	0	32736	32870	
4310	0	32732	32775	
4311	0	32996	32570	
4312	0	32792	32596	
4313	0	32564	32775	
4314	0	32740	32652	
4315	0	32912	32680	
4316	0	32870	32838	
4317	0	32760	32856	
4318	0	32704	32830	
4319	0	33008	32902	
4320	0	32682	32798	
4321	0	32816	32914	
4322	0	32749	32853	
4323	0	32828	32836	
4324	0	32780	32879	
4325	0	32817	32528	
4326	0	32960	32215	
4327	0	32932	32364	
4328	0	32916	32740	
4329	0	32872	32472	
4330	0	32696	32683	
4331	0	32624	32742	
4332	0	32436	32796	
4333	0	32596	33022	
4334	0	32764	32934	
4335	0	32896	32903	
4336	0	32916	32692	
4337	0	33056	32646	
4338	0	33058	32552	
4339	0	32906	32740	
4340	0	32766	32848	
4341	0	32736	32944	
4342	0	32856	32888	
4343	0	32640	32710	
4344	0	32480	32796	
4345	0	32488	32810	
4346	0	32768	32740	
4347	0	32744	32647	
4348	0	32948	32839	
4349	0	32888	32769	
4350	0	32766	32810	
4351	0	32812	32842	
4352	0	32880	32784	
4353	0	32900	32902	
4354	0	32794	32848	
4355	0	32888	32836	
4356	0	32908	32839	
4357	0	33032	32999	
4358	0	32962	32706	
4359	0	32962	32825	
4360	0	33004	32896	
4361	0	32974	32847	
4362	0	32945	32796	
4363	0	32780	32644	
4364	0	32752	32535	
4365	0	32560	32620	
4366	0	32680	32394	
4367	0	32852	32350	
4368	0	32908	32408	
4369	0	33020	32606	
4370	0	32792	32956	
4371	0	32696	32836	
4372	0	32832	32844	
4373	0	32628	32720	
4374	0	32544	32732	
4375	0	32588	32932	
4376	0	32852	32988	
4377	0	32992	32927	
4378	0	32796	32860	
4379	0	32742	32978	
4380	0	32718	32903	
4381	0	32552	32902	
4382	0	32804	32990	
4383	0	32932	32903	
4384	0	32934	32639	
4385	0	32980	32654	
4386	0	32984	32768	
4387	0	32916	32836	
4388	0	32774	32906	
4389	0	32893	32694	
4390	0	32900	32718	
4391	0	32754	32894	
4392	0	32654	32828	
4393	0	32868	32608	
4394	0	32868	32730	
4395	0	32976	32432	
4396	0	32678	32532	
4397	0	32676	32572	
4398	0	32948	32548	
4399	0	32788	32360	
4400	0	32748	32791	
4401	0	32804	32870	
4402	0	32888	32775	
4403	0	32916	32750	
4404	0	32968	32816	
4405	0	32778	32890	
4406	0	32552	32854	
4407	0	32672	32875	
4408	0	32640	32749	
4409	0	32742	32790	
4410	0	32692	32688	
4411	0	32794	32632	
4412	0	32880	32864	
4413	0	33000	32916	
4414	0	32834	33010	
4415	0	32912	32870	
4416	0	32882	32804	
4417	0	32880	32646	
4418	0	32944	32612	
4419	0	32912	32710	
4420	0	32814	32796	
4421	0	32792	32800	
4422	0	32574	32900	
4423	0	32976	32716	
4424	0	32936	32648	
4425	0	32692	32670	
4426	0	32544	32766	
4427	0	32544	32775	
4428	0	32544	32960	
4429	0	32540	32964	
4430	0	32752	32871	
4431	0	33048	32800	
4432	0	32996	32679	
4433	0	32940	32702	
4434	0	32996	32718	
4435	0	32856	32846	
4436	0	32948	32663	
4437	0	32900	32574	
4438	0	32904	32664	
4439	0	32814	32623	
4440	0	32824	32581	
4441	0	32490	32684	
4442	0	32538	33022	
4443	0	32750	32954	
4444	0	32872	32822	
4445	0	32896	32748	
4446	0	32898	32858	
4447	0	32896	32754	
4448	0	32836	32712	
4449	0	32708	32730	
4450	0	32756	32852	
4451	0	32852	32836	
4452	0	32980	32788	
4453	0	32892	32764	
4454	0	32890	32806	
4455	0	32846	32693	
4456	0	32800	32775	
4457	0	32758	32800	
4458	0	32820	32658	
4459	0	32998	32455	
4460	0	32780	32634	
4461	0	32838	32968	
4462	0	32676	32888	
4463	0	32800	33108	
4464	0	32636	32799	
4465	0	32688	32826	
4466	0	32818	32872	
4467	0	32964	32792	
4468	0	32700	32800	
4469	0	32724	32560	
4470	0	32912	32806	
4471	0	32780	32628	
4472	0	32700	32454	
4473	0	32754	32470	
4474	0	32994	32725	
4475	0	33034	32629	
4476	0	32928	32794	
4477	0	32740	32986	
4478	0	32720	32967	
4479	0	32564	32719	
4480	0	32526	32742	
4481	0	32572	32764	
4482	0	32744	32485	
4483	0	32804	32642	
4484	0	32792	32903	
4485	0	32892	32920	
4486	0	32782	33012	
4487	0	32876	32996	
4488	0	32846	32794	
4489	0	32740	32808	
4490	0	32856	32835	
4491	0	32992	32822	
4492	0	32865	32868	
4493	0	32648	32894	
4494	0	33076	33088	
4495	0	32976	32836	
4496	0	33028	32808	
4497	0	33124	32674	
4498	0	32962	32900	
4499	0	33092	32662	
4500	0	32944	32775	
4501	0	32768	32625	
4502	0	32516	32622	
4503	0	32644	32609	
4504	0	33100	32572	
4505	0	32848	32519	
4506	0	32569	32647	
4507	0	32564	32543	
4508	0	32682	32400	
4509	0	32656	32620	
4510	0	32580	32775	
4511	0	32688	32806	
4512	0	32730	32876	
4513	0	32628	32919	
4514	0	32692	32924	
4515	0	32646	33020	
4516	0	32624	32970	
4517	0	32740	32841	
4518	0	33120	32766	
4519	0	33076	32774	
4520	0	33012	32720	
4521	0	33024	32514	
4522	0	33096	32647	
4523	0	32836	32858	
4524	0	32840	32868	
4525	0	33000	32730	
4526	0	33236	32742	
4527	0	33264	32836	
4528	0	33068	32668	
4529	0	33000	32676	
4530	0	32792	32718	
4531	0	32700	32848	
4532	0	32740	32903	
4533	0	32850	33028	
4534	0	32544	32962	
4535	0	32522	32872	
4536	0	32640	32554	
4537	0	32916	32743	
4538	0	32650	32824	
4539	0	32656	32956	
4540	0	32778	32910	
4541	0	32910	32810	
4542	0	32784	32592	
4543	0	32566	32519	
4544	0	32602	32500	
4545	0	32768	32696	
4546	0	32384	33112	
4547	0	32304	33198	
4548	0	32524	32688	
4549	0	32716	32670	
4550	0	32820	32818	
4551	0	33056	32820	
4552	0	32984	32698	
4553	0	33126	32598	
4554	0	33194	32618	
4555	0	33218	32518	
4556	0	33276	32426	
4557	0	32832	32404	
4558	0	32468	32700	
4559	0	32552	32654	
4560	0	32894	32671	
4561	0	32716	32692	
4562	0	32284	32876	
4563	0	32228	33058	
4564	0	32452	32890	
4565	0	32776	32702	
4566	0	32916	32762	
4567	0	32592	32838	
4568	0	32600	32674	
4569	0	32946	32661	
4570	0	33004	32823	
4571	0	32948	32510	
4572	0	32954	32658	
4573	0	33038	32700	
4574	0	32980	32558	
4575	0	32828	32346	
4576	0	32628	32480	
4577	0	32650	32630	
4578	0	32604	32760	
4579	0	32620	32948	
4580	0	32856	33030	
4581	0	33062	32958	
4582	0	32968	33030	
4583	0	33004	33215	
4584	0	32804	33060	
4585	0	33094	33063	
4586	0	33374	32974	
4587	0	33382	33084	
4588	0	33129	33478	
4589	0	32724	33408	
4590	0	33132	33114	
4591	0	33284	33191	
4592	0	32692	32968	
4593	0	32790	32758	
4594	0	32412	32408	
4595	0	32154	32206	
4596	0	32616	32290	
4597	0	32712	32188	
4598	0	33160	32208	
4599	0	33624	32350	
4600	0	33318	32416	
4601	0	32916	32832	
4602	0	33032	33280	
4603	0	32540	33094	
4604	0	32576	32922	
4605	0	32460	32728	
4606	0	32624	32806	
4607	0	32586	32676	
4608	0	32768	32683	
4609	0	32500	32792	
4610	0	32457	32752	
4611	0	32064	32677	
4612	0	32528	32748	
4613	0	32992	32676	
4614	0	33036	32710	
4615	0	33178	32640	
4616	0	33292	32619	
4617	0	32804	32718	
4618	0	32764	32808	
4619	0	32724	32786	
4620	0	32992	32583	
4621	0	32865	32474	
4622	0	32820	32604	
4623	0	32918	32858	
4624	0	32828	32806	
4625	0	32826	32936	
4626	0	32892	33040	
4627	0	32680	33214	
4628	0	32892	33158	
4629	0	32808	32831	
4630	0	32664	32598	
4631	0	32672	32606	
4632	0	32620	32455	
4633	0	32842	32644	
4634	0	32596	32414	
4635	0	32385	32162	
4636	0	32524	32212	
4637	0	33540	32722	
4638	0	33112	33122	
4639	0	32932	33255	
4640	0	32964	33220	
4641	0	32966	33234	
4642	0	32952	33103	
4643	0	32668	32729	
4644	0	32768	32512	
4645	0	33246	32410	
4646	0	33144	32470	
4647	0	32984	32628	
4648	0	32476	32866	
4649	0	32726	32756	
4650	0	32922	32756	
4651	0	32680	33174	
4652	0	32700	33031	
4653	0	32624	32890	
4654	0	32736	32840	
4655	0	32834	32678	
4656	0	32744	32678	
4657	0	32792	32822	
4658	0	32698	32598	
4659	0	32510	32966	
4660	0	32744	32960	
4661	0	32784	32588	
4662	0	32872	32551	
4663	0	32474	32860	
4664	0	32844	32622	
4665	0	33152	32756	
4666	0	33124	32530	
4667	0	33050	32668	
4668	0	32732	32962	
4669	0	32536	33262	
4670	0	32520	32976	
4671	0	32384	32894	
4672	0	32608	32528	
4673	0	32868	32784	
4674	0	33184	32856	
4675	0	33392	32635	
4676	0	33814	32186	
4677	0	33184	32482	
4678	0	32424	32628	
4679	0	32415	32736	
4680	0	32356	32872	
4681	0	32290	33218	
4682	0	32736	33260	
4683	0	32914	32704	
4684	0	33044	32698	
4685	0	33002	32548	
4686	0	32732	32532	
4687	0	32570	32564	
4688	0	32390	32596	
4689	0	32720	32400	
4690	0	32636	32639	
4691	0	32388	32614	
4692	0	32596	32828	
4693	0	32832	33164	
4694	0	32845	33052	
4695	0	32846	33004	
4696	0	33032	32886	
4697	0	33048	32826	
4698	0	33092	32582	
4699	0	32866	32582	
4700	0	32616	32470	
4701	0	32934	32679	
4702	0	32864	32882	
4703	0	32088	32682	
4704	0	32824	33012	
4705	0	33046	32970	
4706	0	33012	32894	
4707	0	32860	32732	
4708	0	33046	32868	
4709	0	32858	32992	
4710	0	32694	32938	
4711	0	32804	32992	
4712	0	32554	32903	
4713	0	32844	32670	
4714	0	32968	32630	
4715	0	33322	32360	
4716	0	33338	32580	
4717	0	32742	32500	
4718	0	32908	32466	
4719	0	32328	32666	
4720	0	31754	32884	
4721	0	31796	32944	
4722	0	32572	32775	
4723	0	32612	32774	
4724	0	32936	32560	
4725	0	33428	32660	
4726	0	33398	32866	
4727	0	32968	32656	
4728	0	32868	32715	
4729	0	32786	32900	
4730	0	33126	32968	
4731	0	33400	32808	
4732	0	33412	32710	
4733	0	33076	32766	
4734	0	32640	33256	
4735	0	32388	32983	
4736	0	32420	32870	
4737	0	32620	32444	
4738	0	32796	32412	
4739	0	32770	32440	
4740	0	32824	32667	
4741	0	33204	32705	
4742	0	33052	32647	
4743	0	32884	32936	
4744	0	33073	33172	
4745	0	32864	33078	
4746	0	32452	32998	
4747	0	32698	33048	
4748	0	32938	32824	
4749	0	32828	32714	
4750	0	32588	32914	
4751	0	32252	32807	
4752	0	32574	32612	
4753	0	32856	32644	
4754	0	33200	32598	
4755	0	33216	32816	
4756	0	33148	32960	
4757	0	33088	32966	
4758	0	33434	32703	
4759	0	32488	32490	
4760	0	32188	32647	
4761	0	32360	32636	
4762	0	32512	32646	
4763	0	32832	32552	
4764	0	32804	32920	
4765	0	32582	32844	
4766	0	32604	32678	
4767	0	33192	32628	
4768	0	33308	32696	
4769	0	32980	32730	
4770	0	32778	32676	
4771	0	32700	33118	
4772	0	32841	33159	
4773	0	32788	33140	
4774	0	32460	32796	
4775	0	32782	32870	
4776	0	32972	32742	
4777	0	32872	32511	
4778	0	32836	33024	
4779	0	32950	33068	
4780	0	32856	32956	
4781	0	32552	32625	
4782	0	32244	33000	
4783	0	32660	32926	
4784	0	33172	32806	
4785	0	33116	32790	
4786	0	33068	32490	
4787	0	32984	32652	
4788	0	32744	32588	
4789	0	32710	32788	
4790	0	32704	32775	
4791	0	32671	32636	
4792	0	32960	32550	
4793	0	33100	32500	
4794	0	32638	32717	
4795	0	32960	32758	
4796	0	33156	32473	
4797	0	32670	32688	
4798	0	32392	32692	
4799	0	32454	32614	
4800	0	32788	32590	
4801	0	32936	32700	
4802	0	32896	32774	
4803	0	32725	32847	
4804	0	32936	32884	
4805	0	32850	32898	
4806	0	32820	32852	
4807	0	32684	32656	
4808	0	32956	32830	
4809	0	33232	32519	
4810	0	32844	32831	
4811	0	32478	32750	
4812	0	32434	32814	
4813	0	32636	32748	
4814	0	32416	32772	
4815	0	32372	32938	
4816	0	32736	32999	
4817	0	32436	32848	
4818	0	32684	32938	
4819	0	32864	32964	
4820	0	33108	33214	
4821	0	33432	32628	
4822	0	33444	32640	
4823	0	33780	32743	
4824	0	33460	32850	
4825	0	33286	32932	
4826	0	32972	32927	
4827	0	32692	32676	
4828	0	32282	32564	
4829	0	32428	32398	
4830	0	32546	32512	
4831	0	32556	32958	
4832	0	32602	33008	
4833	0	32416	33159	
4834	0	32392	32932	
4835	0	32868	32770	
4836	0	33220	32822	
4837	0	33044	32652	
4838	0	32930	32708	
4839	0	33104	32601	
4840	0	33068	32456	
4841	0	33266	32516	
4842	0	32704	32716	
4843	0	32592	32732	
4844	0	32633	32708	
4845	0	32416	32798	
4846	0	32652	32812	
4847	0	32642	32854	
4848	0	32740	33079	
4849	0	32512	33174	
4850	0	32200	32990	
4851	0	32394	32714	
4852	0	32892	32484	
4853	0	33024	32350	
4854	0	33138	32564	
4855	0	33208	32506	
4856	0	33370	32678	
4857	0	33396	32903	
4858	0	33100	32866	
4859	0	33036	33016	
4860	0	33092	32881	
4861	0	32646	32682	
4862	0	32356	32860	
4863	0	32356	33130	
4864	0	32688	33098	
4865	0	32560	33060	
4866	0	32908	32801	
4867	0	33020	32600	
4868	0	32924	32742	
4869	0	32572	33170	
4870	0	32544	32903	
4871	0	32716	32870	
4872	0	32800	32104	
4873	0	32340	32200	
4874	0	32464	32352	
4875	0	32362	32583	
4876	0	32594	32644	
4877	0	33044	32638	
4878	0	33386	32583	
4879	0	33080	32864	
4880	0	32600	32842	
4881	0	32540	32926	
4882	0	32780	32920	
4883	0	32882	32732	
4884	0	32932	32839	
4885	0	32812	32570	
4886	0	32978	32656	
4887	0	32884	32495	
4888	0	32688	32762	
4889	0	32702	32886	
4890	0	32900	32896	
4891	0	32944	32958	
4892	0	33112	33088	
4893	0	33496	32864	
4894	0	33388	33088	
4895	0	33256	32850	
4896	0	33060	33054	
4897	0	32942	33014	
4898	0	32976	32660	
4899	0	32904	32402	
4900	0	32546	32634	
4901	0	32578	32714	
4902	0	32620	32104	
4903	0	32404	32488	
4904	0	32328	32945	
4905	0	32620	32970	
4906	0	32688	33048	
4907	0	32648	32874	
4908	0	32720	32812	
4909	0	32610	32464	
4910	0	32802	32635	
4911	0	32912	32714	
4912	0	32644	32560	
4913	0	32984	32744	
4914	0	32908	32644	
4915	0	32768	32852	
4916	0	32804	32794	
4917	0	32508	32526	
4918	0	32318	32770	
4919	0	32808	32926	
4920	0	32854	33008	
4921	0	32840	33114	
4922	0	33112	33046	
4923	0	33280	33132	
4924	0	33200	32616	
4925	0	33076	32686	
4926	0	33158	32596	
4927	0	33160	32806	
4928	0	32968	32814	
4929	0	32756	33020	
4930	0	32782	33063	
4931	0	32818	32678	
4932	0	32404	32484	
4933	0	32960	32287	
4934	0	32768	32438	
4935	0	32728	32644	
4936	0	32440	32484	
4937	0	32673	32698	
4938	0	32396	32844	
4939	0	32032	32878	
4940	0	31820	32838	
4941	0	32916	32930	
4942	0	32934	32948	
4943	0	32704	32972	
4944	0	33044	32758	
4945	0	33202	32639	
4946	0	33512	33031	
4947	0	33360	32888	
4948	0	33244	32444	
4949	0	33226	32110	
4950	0	32496	32384	
4951	0	32702	32644	
4952	0	32786	32668	
4953	0	32564	32758	
4954	0	32782	33020	
4955	0	32600	33060	
4956	0	32462	33102	
4957	0	32484	33152	
4958	0	32550	32840	
4959	0	32888	33004	
4960	0	32968	33252	
4961	0	33016	32718	
4962	0	32964	32550	
4963	0	33140	32710	
4964	0	33012	32632	
4965	0	32938	32583	
4966	0	32604	32962	
4967	0	32312	32309	
4968	0	32660	32360	
4969	0	32738	32510	
4970	0	32644	32334	
4971	0	32637	32662	
4972	0	32656	32913	
4973	0	32706	33076	
4974	0	32704	32775	
4975	0	32728	32618	
4976	0	32598	32992	
4977	0	32446	32888	
4978	0	32458	33068	
4979	0	32764	32775	
4980	0	32920	32637	
4981	0	32704	32600	
4982	0	32256	32728	
4983	0	32246	32689	
4984	0	32692	32670	
4985	0	33048	33111	
4986	0	33152	33298	
4987	0	33124	33223	
4988	0	33204	33202	
4989	0	32938	33020	
4990	0	33190	33448	
4991	0	33280	33102	
4992	0	33396	32434	
4993	0	33212	31974	
4994	0	33286	31924	
4995	0	33244	32474	
4996	0	32796	32806	
4997	0	32340	32916	
4998	0	32040	33072	
4999	0	32532	32758	
5000	0	33158	32239	
5001	0	33446	32122	
5002	0	33372	32076	
5003	0	33340	32020	
5004	0	32990	32142	
5005	0	32680	32508	
5006	0	32748	33214	
5007	0	32738	33428	
5008	0	32856	32832	
5009	0	32929	32686	
5010	0	33294	32586	
5011	0	33362	32718	
5012	0	32936	32775	
5013	0	32676	32758	
5014	0	32432	33122	
5015	0	32604	33428	
5016	0	32684	33031	
5017	0	32526	32961	
5018	0	32680	33022	
5019	0	32576	33058	
5020	0	32790	33327	
5021	0	33104	33170	
5022	0	33040	33222	
5023	0	33076	33074	
5024	0	32628	32476	
5025	0	32584	32116	
5026	0	32814	32190	
5027	0	32800	32067	
5028	0	32748	32142	
5029	0	32764	32422	
5030	0	32858	32743	
5031	0	32666	33060	
5032	0	32628	32724	
5033	0	32744	32980	
5034	0	32908	33092	
5035	0	33130	32983	
5036	0	33300	33050	
5037	0	32844	32714	
5038	0	32708	32882	
5039	0	32710	32546	
5040	0	32464	32356	
5041	0	32916	32692	
5042	0	32964	32692	
5043	0	32824	32788	
5044	0	32964	32746	
5045	0	32848	33102	
5046	0	32460	33414	
5047	0	32329	33444	
5048	0	32628	33372	
5049	0	32530	33184	
5050	0	32740	32258	
5051	0	32840	31900	
5052	0	32896	32148	
5053	0	32792	32351	
5054	0	32380	32260	
5055	0	32764	32340	
5056	0	32994	32820	
5057	0	32924	33031	
5058	0	32944	32687	
5059	0	32904	32724	
5060	0	32796	33120	
5061	0	32832	33145	
5062	0	32922	32900	
5063	0	32904	32796	
5064	0	32916	32870	
5065	0	32854	32865	
5066	0	32852	32660	
5067	0	33207	32394	
5068	0	33116	32300	
5069	0	32804	32354	
5070	0	32812	32670	
5071	0	32792	32958	
5072	0	32762	33188	
5073	0	32830	33031	
5074	0	32728	33070	
5075	0	32716	32852	
5076	0	32700	32562	
5077	0	32776	32711	
5078	0	32776	32886	
5079	0	32812	33038	
5080	0	32684	33019	
5081	0	32436	32592	
5082	0	32516	32542	
5083	0	32660	32654	
5084	0	32680	32700	
5085	0	32936	32668	
5086	0	33012	32944	
5087	0	33196	32696	
5088	0	33128	32650	
5089	0	33074	32870	
5090	0	32830	33266	
5091	0	32494	32856	
5092	0	32328	32712	
5093	0	32800	32478	
5094	0	33044	32678	
5095	0	33216	32886	
5096	0	32824	32994	
5097	0	32316	32964	
5098	0	32424	32966	
5099	0	32544	32868	
5100	0	32728	32698	
5101	0	32808	32536	
5102	0	33032	32442	
5103	0	33054	32470	
5104	0	33172	32600	
5105	0	33096	32708	
5106	0	32916	32758	
5107	0	32830	32886	
5108	0	32670	32836	
5109	0	32506	32886	
5110	0	32664	32728	
5111	0	32292	33052	
5112	0	32420	32868	
5113	0	32796	32815	
5114	0	33162	32620	
5115	0	33102	32604	
5116	0	33036	32804	
5117	0	33204	32623	
5118	0	33176	32704	
5119	0	33019	32932	
5120	0	32656	32852	
5121	0	32396	33050	
5122	0	32550	32694	
5123	0	32928	32662	
5124	0	32820	32703	
5125	0	32858	32608	
5126	0	32752	32674	
5127	0	32914	32364	
5128	0	32832	32762	
5129	0	32676	33158	
5130	0	32764	33170	
5131	0	32644	33044	
5132	0	32700	32674	
5133	0	32648	32680	
5134	0	32636	32712	
5135	0	32852	32590	
5136	0	33016	32487	
5137	0	32998	32858	
5138	0	33016	32711	
5139	0	32548	32916	
5140	0	32604	32843	
5141	0	32628	32698	
5142	0	32806	32698	
5143	0	32808	32544	
5144	0	32896	32815	
5145	0	33056	32870	
5146	0	33248	32981	
5147	0	33006	33190	
5148	0	32768	33090	
5149	0	32818	32946	
5150	0	32822	32726	
5151	0	32776	32826	
5152	0	32664	32940	
5153	0	32556	32760	
5154	0	32452	32290	
5155	0	32670	32466	
5156	0	32894	32764	
5157	0	32988	32698	
5158	0	32772	32696	
5159	0	32754	32602	
5160	0	32920	32706	
5161	0	32840	32770	
5162	0	32686	32774	
5163	0	32704	32892	
5164	0	32688	32928	
5165	0	32816	32612	
5166	0	33200	32775	
5167	0	33198	32758	
5168	0	32802	32668	
5169	0	32604	32538	
5170	0	32864	32586	
5171	0	32782	32674	
5172	0	32852	32968	
5173	0	32756	33054	
5174	0	32732	32775	
5175	0	32692	32376	
5176	0	32604	32688	
5177	0	32910	32888	
5178	0	33082	32664	
5179	0	32696	33024	
5180	0	32832	32880	
5181	0	33058	32700	
5182	0	32984	32654	
5183	0	32856	32727	
5184	0	33028	32643	
5185	0	32796	32906	
5186	0	32682	32964	
5187	0	32624	32951	
5188	0	32622	33104	
5189	0	32636	33071	
5190	0	32776	32644	
5191	0	32816	32798	
5192	0	32672	32934	
5193	0	32732	32766	
5194	0	32812	32714	
5195	0	32946	32601	
5196	0	32898	32657	
5197	0	32976	32614	
5198	0	32982	32442	
5199	0	32936	32356	
5200	0	32980	32244	
5201	0	32984	32596	
5202	0	32956	32678	
5203	0	32985	32876	
5204	0	32824	32990	
5205	0	32888	32775	
5206	0	32680	32967	
5207	0	32472	32945	
5208	0	32664	33110	
5209	0	32760	33314	
5210	0	32902	33040	
5211	0	32888	32666	
5212	0	32956	32789	
5213	0	32760	32482	
5214	0	32704	32182	
5215	0	32764	32236	
5216	0	32784	32746	
5217	0	32870	32932	
5218	0	33016	32748	
5219	0	33128	32638	
5220	0	32784	32692	
5221	0	32596	32775	
5222	0	32692	32903	
5223	0	32696	32902	
5224	0	32450	32722	
5225	0	32676	32930	
5226	0	33056	32904	
5227	0	33196	32928	
5228	0	33032	32775	
5229	0	33186	32566	
5230	0	33096	32820	
5231	0	33020	32743	
5232	0	32988	32774	
5233	0	32924	32955	
5234	0	32578	32879	
5235	0	32547	32844	
5236	0	32612	32665	
5237	0	32800	32644	
5238	0	32728	32632	
5239	0	32616	32916	
5240	0	32648	32600	
5241	0	32686	32724	
5242	0	32564	32700	
5243	0	32500	32800	
5244	0	32804	32590	
5245	0	32780	32466	
5246	0	32964	32518	
5247	0	32970	33076	
5248	0	32892	33135	
5249	0	32872	33024	
5250	0	33068	32798	
5251	0	32936	33094	
5252	0	33008	32502	
5253	0	32988	32490	
5254	0	32730	32562	
5255	0	32784	32604	
5256	0	32816	32756	
5257	0	32636	32532	
5258	0	32496	32974	
5259	0	32668	32902	
5260	0	32872	32836	
5261	0	32828	32714	
5262	0	32920	32871	
5263	0	32976	32750	
5264	0	32964	32762	
5265	0	32998	32790	
5266	0	32952	33031	
5267	0	32928	32832	
5268	0	32606	32834	
5269	0	32612	32868	
5270	0	32632	32962	
5271	0	32746	32738	
5272	0	32728	32440	
5273	0	32812	32586	
5274	0	32946	32495	
5275	0	32902	32519	
5276	0	32964	32728	
5277	0	32904	32871	
5278	0	32816	32606	
5279	0	32738	32766	
5280	0	32654	32920	
5281	0	32805	32802	
5282	0	32836	32789	
5283	0	32662	32690	
5284	0	32752	32620	
5285	0	32864	32710	
5286	0	32728	32646	
5287	0	32775	32720	
5288	0	32864	32756	
5289	0	32632	32902	
5290	0	32636	32912	
5291	0	32752	32935	
5292	0	32824	32988	
5293	0	32796	32920	
5294	0	32708	32950	
5295	0	32904	32879	
5296	0	32982	32775	
5297	0	32924	32486	
5298	0	32864	32640	
5299	0	32778	32837	
5300	0	32502	32704	
5301	0	32596	32660	
5302	0	32768	32660	
5303	0	32872	32962	
5304	0	32874	32674	
5305	0	32808	32791	
5306	0	32800	32700	
5307	0	32912	32686	
5308	0	32880	32756	
5309	0	32740	32984	
5310	0	32846	32832	
5311	0	32948	32775	
5312	0	32768	33062	
5313	0	32854	32832	
5314	0	32796	32652	
5315	0	32764	32647	
5316	0	32740	32664	
5317	0	32994	32671	
5318	0	33056	32742	
5319	0	32824	32673	
5320	0	32788	32535	
5321	0	32792	32908	
5322	0	32864	32847	
5323	0	32774	32991	
5324	0	32756	32903	
5325	0	32766	32726	
5326	0	32876	32646	
5327	0	32908	32678	
5328	0	32892	32582	
5329	0	33000	32735	
5330	0	32896	32802	
5331	0	32644	32924	
5332	0	32732	32744	
5333	0	32862	32662	
5334	0	32896	32910	
5335	0	32826	32966	
5336	0	32796	32830	
5337	0	32744	32624	
5338	0	32668	32562	
5339	0	32613	32550	
5340	0	32662	32550	
5341	0	32540	32676	
5342	0	32688	32615	
5343	0	32754	32744	
5344	0	32780	32614	
5345	0	32732	32686	
5346	0	32924	32700	
5347	0	32710	32508	
5348	0	32672	32708	
5349	0	32680	32744	
5350	0	32682	32825	
5351	0	32652	32844	
5352	0	32864	32870	
5353	0	32808	32920	
5354	0	32932	32886	
5355	0	32868	32746	
5356	0	32984	32500	
5357	0	33050	32204	
5358	0	33060	32584	
5359	0	32928	32767	
5360	0	32934	32980	
5361	0	33030	33074	
5362	0	33236	33428	
5363	0	33220	33444	
5364	0	33246	33095	
5365	0	33120	33367	
5366	0	33030	33284	
5367	0	32936	33268	
5368	0	32816	33146	
5369	0	32744	32866	
5370	0	32666	33050	
5371	0	32674	32926	
5372	0	32724	32734	
5373	0	32608	32495	
5374	0	32708	32468	
5375	0	32826	32519	
5376	0	32928	32494	
5377	0	32924	32302	
5378	0	33022	32478	
5379	0	32894	32720	
5380	0	32796	32836	
5381	0	32716	32774	
5382	0	32664	32596	
5383	0	32696	32439	
5384	0	32648	32663	
5385	0	32592	32704	
5386	0	32674	32533	
5387	0	32560	32690	
5388	0	32568	32772	
5389	0	32616	32926	
5390	0	32680	32696	
5391	0	32912	32553	
5392	0	32964	32943	
5393	0	32940	32944	
5394	0	32936	32752	
5395	0	32837	32688	
5396	0	32660	32708	
5397	0	32766	32838	
5398	0	32672	32830	
5399	0	32740	32622	
5400	0	32820	32636	
5401	0	32832	32700	
5402	0	32986	32748	
5403	0	33012	32487	
5404	0	32936	32700	
5405	0	32840	32858	
5406	0	32704	32724	
5407	0	32788	32791	
5408	0	32800	32820	
5409	0	32864	32702	
5410	0	32780	32872	
5411	0	32816	32798	
5412	0	32876	32791	
5413	0	32697	32725	
5414	0	32672	33018	
5415	0	32802	32876	
5416	0	32920	32800	
5417	0	32716	32986	
5418	0	33000	32846	
5419	0	33016	32934	
5420	0	33000	32654	
5421	0	32834	32609	
5422	0	32824	32460	
5423	0	32824	32436	
5424	0	32821	32576	
5425	0	32680	32502	
5426	0	32540	32896	
5427	0	32596	32884	
5428	0	32864	32902	
5429	0	32762	32775	
5430	0	32780	32840	
5431	0	32908	32766	
5432	0	32968	32838	
5433	0	32884	32966	
5434	0	32944	33076	
5435	0	33050	33002	
5436	0	32852	32615	
5437	0	32704	32671	
5438	0	32512	32866	
5439	0	32720	32802	
5440	0	32732	32465	
5441	0	32700	32263	
5442	0	32808	32586	
5443	0	32936	32762	
5444	0	32984	32734	
5445	0	33160	32590	
5446	0	32884	32640	
5447	0	32604	32847	
5448	0	32714	32974	
5449	0	32688	32800	
5450	0	32820	32972	
5451	0	32862	32844	
5452	0	32874	32742	
5453	0	32868	32814	
5454	0	32818	32738	
5455	0	32828	32948	
5456	0	32926	32752	
5457	0	32996	32623	
5458	0	32940	32758	
5459	0	32757	32826	
5460	0	32796	32734	
5461	0	32746	32854	
5462	0	32722	32838	
5463	0	32921	32767	
5464	0	32756	32798	
5465	0	32620	32938	
5466	0	32580	33006	
5467	0	32588	32764	
5468	0	32834	32720	
5469	0	32910	32676	
5470	0	32880	32612	
5471	0	32836	32642	
5472	0	32808	32924	
5473	0	32828	32872	
5474	0	33041	32582	
5475	0	32820	32644	
5476	0	32884	32852	
5477	0	32856	32944	
5478	0	32830	32743	
5479	0	32704	32860	
5480	0	32858	32816	
5481	0	32894	32743	
5482	0	32680	32729	
5483	0	32660	32848	
5484	0	32740	32647	
5485	0	32860	32855	
5486	0	32820	32844	
5487	0	32796	32910	
5488	0	32868	32860	
5489	0	32920	32880	
5490	0	32730	32764	
5491	0	32708	32596	
5492	0	32652	32810	
5493	0	32697	32594	
5494	0	32840	32600	
5495	0	32872	32666	
5496	0	32818	32737	
5497	0	32772	32848	
5498	0	32850	32788	
5499	0	32828	32812	
5500	0	32752	32878	
5501	0	32786	33018	
5502	0	32762	32968	
5503	0	32690	32850	
5504	0	32778	32896	
5505	0	32808	32775	
5506	0	32924	32752	
5507	0	33032	32756	
5508	0	33042	32708	
5509	0	32936	32786	
5510	0	32992	32478	
5511	0	32760	32542	
5512	0	32832	32834	
5513	0	32860	32555	
5514	0	32768	32734	
5515	0	32800	32698	
5516	0	32752	32725	
5517	0	32740	32772	
5518	0	32808	32680	
5519	0	32836	32588	
5520	0	32770	32378	
5521	0	32794	32644	
5522	0	32680	32685	
5523	0	32832	32820	
5524	0	32730	32814	
5525	0	32730	33008	
5526	0	32838	32959	
5527	0	32646	32847	
5528	0	32720	32716	
5529	0	32596	32816	
5530	0	32780	32840	
5531	0	32968	32775	
5532	0	32962	32696	
5533	0	32712	32750	
5534	0	32872	32714	
5535	0	32852	32753	
5536	0	32958	32824	
5537	0	32922	32794	
5538	0	32894	32820	
5539	0	32764	32830	
5540	0	32818	32732	
5541	0	32980	32572	
5542	0	33000	32362	
5543	0	32820	32628	
5544	0	32836	32734	
5545	0	32898	32860	
5546	0	32944	32756	
5547	0	32856	32866	
5548	0	32652	32914	
5549	0	32712	32920	
5550	0	32774	32988	
5551	0	32800	32912	
5552	0	32860	32934	
5553	0	32836	32801	
5554	0	32944	32672	
5555	0	32794	32738	
5556	0	32596	32770	
5557	0	32642	32824	
5558	0	32624	32658	
5559	0	32573	32814	
5560	0	32544	32832	
5561	0	32756	32902	
5562	0	32800	32774	
5563	0	32992	32724	
5564	0	32832	32900	
5565	0	32840	32839	
5566	0	33000	32836	
5567	0	32892	32924	
5568	0	33022	32740	
5569	0	32970	32758	
5570	0	33060	32924	
5571	0	33096	32709	
5572	0	32804	32826	
5573	0	32816	32646	
5574	0	32838	32608	
5575	0	32836	32798	
5576	0	32744	32940	
5577	0	32668	32672	
5578	0	32740	32390	
5579	0	32764	32604	
5580	0	32646	32801	
5581	0	32856	32970	
5582	0	32716	32800	
5583	0	32804	32762	
5584	0	32720	32882	
5585	0	32730	32618	
5586	0	32872	32702	
5587	0	32692	32874	
5588	0	32768	32678	
5589	0	32810	32764	
5590	0	32792	33020	
5591	0	32890	32988	
5592	0	32768	32836	
5593	0	32780	33031	
5594	0	32826	32950	
5595	0	32912	32850	
5596	0	32882	32647	
5597	0	32976	32724	
5598	0	32908	32676	
5599	0	33088	32612	
5600	0	32956	32830	
5601	0	32858	32775	
5602	0	32954	32983	
5603	0	32776	32792	
5604	0	32688	32898	
5605	0	32782	32951	
5606	0	32618	32766	
5607	0	32560	32588	
5608	0	32664	32826	
5609	0	32738	32702	
5610	0	32824	32730	
5611	0	32748	32698	
5612	0	32816	32576	
5613	0	32912	32824	
5614	0	32972	32798	
5615	0	32928	32912	
5616	0	32890	32615	
5617	0	33008	32540	
5618	0	32958	32720	
5619	0	32920	32988	
5620	0	32832	32732	
5621	0	32768	32292	
5622	0	32860	32398	
5623	0	32686	32728	
5624	0	32708	32872	
5625	0	32860	32798	
5626	0	32798	32822	
5627	0	32720	32903	
5628	0	32844	32602	
5629	0	32760	32962	
5630	0	32748	32894	
5631	0	32712	32799	
5632	0	32712	32890	
5633	0	32732	32775	
5634	0	32708	32519	
5635	0	32720	32812	
5636	0	32832	32718	
5637	0	32680	32912	
5638	0	32748	32874	
5639	0	32928	32810	
5640	0	32952	32600	
5641	0	32928	32814	
5642	0	32952	32612	
5643	0	32872	32736	
5644	0	32872	32716	
5645	0	32828	32888	
5646	0	32832	32826	
5647	0	32856	32810	
5648	0	32808	32938	
5649	0	32886	33052	
5650	0	32808	32743	
5651	0	32784	32655	
5652	0	32886	32590	
5653	0	32690	32770	
5654	0	32916	32710	
5655	0	32716	32615	
5656	0	32632	32742	
5657	0	32662	32662	
5658	0	32820	32774	
5659	0	32697	32714	
5660	0	32816	32786	
5661	0	32900	32934	
5662	0	32896	32980	
5663	0	32868	32834	
5664	0	32868	32714	
5665	0	32868	32872	
5666	0	32788	32838	
5667	0	32796	32647	
5668	0	32656	32834	
5669	0	32706	32854	
5670	0	32842	32724	
5671	0	32960	32862	
5672	0	32866	32874	
5673	0	32962	32964	
5674	0	33004	32847	
5675	0	33020	32724	
5676	0	32952	32542	
5677	0	32844	32612	
5678	0	32884	32582	
5679	0	32794	32572	
5680	0	32804	32592	
5681	0	32744	32658	
5682	0	32726	32846	
5683	0	32676	32839	
5684	0	32716	32671	
5685	0	32758	32775	
5686	0	32730	32938	
5687	0	32838	32703	
5688	0	32636	32684	
5689	0	32776	32564	
5690	0	32756	32774	
5691	0	32772	32844	
5692	0	33024	32698	
5693	0	32884	32847	
5694	0	32720	33024	
5695	0	32808	33012	
5696	0	32776	32775	
5697	0	32640	32636	
5698	0	32720	32766	
5699	0	32736	32640	
5700	0	32746	32567	
5701	0	32910	32572	
5702	0	32961	32828	
5703	0	33000	32962	
5704	0	32954	32804	
5705	0	32808	32822	
5706	0	32792	32726	
5707	0	32804	32636	
5708	0	32816	32846	
5709	0	32828	32664	
5710	0	32748	32742	
5711	0	32732	32671	
5712	0	32798	32822	
5713	0	32810	32638	
5714	0	32824	32734	
5715	0	32756	32834	
5716	0	32762	32828	
5717	0	32876	32878	
5718	0	32836	32806	
5719	0	32776	32934	
5720	0	32864	32847	
5721	0	32852	32736	
5722	0	32938	32789	
5723	0	32804	32791	
5724	0	32740	32801	
5725	0	32788	32666	
5726	0	32900	32812	
5727	0	32544	32884	
5728	0	32628	32946	
5729	0	32668	32916	
5730	0	32696	32586	
5731	0	32744	32748	
5732	0	32892	32612	
5733	0	32894	32698	
5734	0	33028	32772	
5735	0	33064	32854	
5736	0	33080	32624	
5737	0	33036	32752	
5738	0	32980	32716	
5739	0	33092	32770	
5740	0	33018	32664	
5741	0	32984	32726	
5742	0	32764	32775	
5743	0	32596	32775	
5744	0	32678	32723	
5745	0	32730	32756	
5746	0	32748	32799	
5747	0	32840	32790	
5748	0	32820	32772	
5749	0	32724	32724	
5750	0	32856	32839	
5751	0	32806	32838	
5752	0	32688	32820	
5753	0	32444	32702	
5754	0	32432	32724	
5755	0	32624	32752	
5756	0	32800	32926	
5757	0	32868	32904	
5758	0	32866	32679	
5759	0	32944	32514	
5760	0	33068	32638	
5761	0	33020	32796	
5762	0	32802	32922	
5763	0	32650	32743	
5764	0	32708	32775	
5765	0	32648	32762	
5766	0	32816	32903	
5767	0	32798	32826	
5768	0	32748	32844	
5769	0	32736	32886	
5770	0	32840	32842	
5771	0	32924	32736	
5772	0	32692	32704	
5773	0	32888	32772	
5774	0	32964	32552	
5775	0	33016	32682	
5776	0	32944	32624	
5777	0	32844	32860	
5778	0	32874	32838	
5779	0	32848	32708	
5780	0	32908	32654	
5781	0	32798	32874	
5782	0	32858	32876	
5783	0	32740	32890	
5784	0	32696	32810	
5785	0	32804	32724	
5786	0	32724	32796	
5787	0	32874	32746	
5788	0	32824	32820	
5789	0	32800	32807	
5790	0	32840	32892	
5791	0	32836	32876	
5792	0	32846	32760	
5793	0	32868	32722	
5794	0	32828	32772	
5795	0	32876	32620	
5796	0	32876	32764	
5797	0	32862	32768	
5798	0	32816	32679	
5799	0	32760	32798	
5800	0	32746	32822	
5801	0	32674	32840	
5802	0	32854	32873	
5803	0	32834	32604	
5804	0	32608	32584	
5805	0	32864	32764	
5806	0	32782	32772	
5807	0	32776	32828	
5808	0	32788	32836	
5809	0	32728	32836	
5810	0	32836	32692	
5811	0	32968	32711	
5812	0	32860	32724	
5813	0	32888	32678	
5814	0	32904	32652	
5815	0	32656	32774	
5816	0	32700	32742	
5817	0	32606	33023	
5818	0	32638	32926	
5819	0	32760	32748	
5820	0	33008	32704	
5821	0	33056	32670	
5822	0	33070	32790	
5823	0	32814	32754	
5824	0	32788	32806	
5825	0	32828	32750	
5826	0	32812	32742	
5827	0	32794	33014	
5828	0	32720	33140	
5829	0	32750	32864	
5830	0	32772	32746	
5831	0	32946	32636	
5832	0	32880	32560	
5833	0	32948	32378	
5834	0	32976	32559	
5835	0	32894	32586	
5836	0	32874	32679	
5837	0	33018	32796	
5838	0	32954	32714	
5839	0	32668	32825	
5840	0	32820	32804	
5841	0	32500	32796	
5842	0	32586	32775	
5843	0	32670	32868	
5844	0	32678	32932	
5845	0	32620	32822	
5846	0	32764	32764	
5847	0	32908	32849	
5848	0	32832	32869	
5849	0	32716	32700	
5850	0	32790	32830	
5851	0	32816	32671	
5852	0	32906	32732	
5853	0	32872	32844	
5854	0	32676	32927	
5855	0	32744	32647	
5856	0	32760	32692	
5857	0	32884	32692	
5858	0	32820	32647	
5859	0	32836	32972	
5860	0	32744	32856	
5861	0	32704	32772	
5862	0	32698	32706	
5863	0	32790	32862	
5864	0	32876	32676	
5865	0	32872	32660	
5866	0	32962	32620	
5867	0	32898	32735	
5868	0	32864	32936	
5869	0	32746	32882	
5870	0	32716	32638	
5871	0	32716	32596	
5872	0	32856	32732	
5873	0	32676	32748	
5874	0	32774	32670	
5875	0	32800	32864	
5876	0	32620	32832	
5877	0	32632	32938	
5878	0	32631	32804	
5879	0	32704	32766	
5880	0	32744	32670	
5881	0	32812	32792	
5882	0	32930	32694	
5883	0	33052	32720	
5884	0	33000	32792	
5885	0	33012	32746	
5886	0	33000	32740	
5887	0	32916	32796	
5888	0	32724	32999	
5889	0	32716	32958	
5890	0	32752	32836	
5891	0	32808	32978	
5892	0	32900	33100	
5893	0	32882	32700	
5894	0	32884	32630	
5895	0	32816	32702	
5896	0	32702	32628	
5897	0	32732	32552	
5898	0	32682	32441	
5899	0	32708	32588	
5900	0	32696	32540	
5901	0	32740	32725	
5902	0	32840	32756	
5903	0	32752	32734	
5904	0	32944	32790	
5905	0	32776	33072	
5906	0	32836	32896	
5907	0	32904	32743	
5908	0	32906	32832	
5909	0	32884	32750	
5910	0	32902	32630	
5911	0	32828	32642	
5912	0	32804	32795	
5913	0	32910	32816	
5914	0	32836	32846	
5915	0	32880	32867	
5916	0	32868	32647	
5917	0	32852	32858	
5918	0	32844	32862	
5919	0	32804	32764	
5920	0	32712	32903	
5921	0	32846	32828	
5922	0	32824	32744	
5923	0	32796	32822	
5924	0	32866	32846	
5925	0	32824	32788	
5926	0	32760	32679	
5927	0	32768	32775	
5928	0	32724	32748	
5929	0	32638	32830	
5930	0	32844	32848	
5931	0	32918	32788	
5932	0	32942	32686	
5933	0	32844	32738	
5934	0	32810	32872	
5935	0	32808	32870	
5936	0	32796	32527	
5937	0	32672	32512	
5938	0	32956	32770	
5939	0	32952	32720	
5940	0	32480	32545	
5941	0	32392	32663	
5942	0	32631	32942	
5943	0	32780	33044	
5944	0	32784	32668	
5945	0	32700	32676	
5946	0	32740	32770	
5947	0	32822	32674	
5948	0	33012	32673	
5949	0	32984	32679	
5950	0	33104	32722	
5951	0	32878	32735	
5952	0	32922	32775	
5953	0	32872	33020	
5954	0	32834	32966	
5955	0	32836	32910	
5956	0	32880	32878	
5957	0	32752	32850	
5958	0	32741	32647	
5959	0	32624	33000	
5960	0	32792	32743	
5961	0	32800	32818	
5962	0	32602	32700	
5963	0	32792	32580	
5964	0	32706	32586	
5965	0	32780	32547	
5966	0	32768	32627	
5967	0	32892	32640	
5968	0	32826	32772	
5969	0	32760	32839	
5970	0	32950	32798	
5971	0	32872	32926	
5972	0	32764	32892	
5973	0	32822	32903	
5974	0	32864	32986	
5975	0	32794	32770	
5976	0	32894	32722	
5977	0	32913	32860	
5978	0	32764	32679	
5979	0	32844	32818	
5980	0	32900	32602	
5981	0	32804	32486	
5982	0	32872	32556	
5983	0	32932	32504	
5984	0	32972	32728	
5985	0	33054	32842	
5986	0	32944	32711	
5987	0	32896	32842	
5988	0	32865	32946	
5989	0	32672	33093	
5990	0	32772	32966	
5991	0	32782	32944	
5992	0	32714	32812	
5993	0	32700	33076	
5994	0	32800	32871	
5995	0	32830	32824	
5996	0	32964	32536	
5997	0	32890	32518	
5998	0	32858	32600	
5999	0	32848	32564	
6000	0	32824	32802	
6001	0	32840	32772	
6002	0	32720	32999	
6003	0	32736	32916	
6004	0	32693	32774	
6005	0	32546	32842	
6006	0	32628	32603	
6007	0	32752	32740	
6008	0	32836	32774	
6009	0	32912	32690	
6010	0	32740	32676	
6011	0	32788	32822	
6012	0	32688	32654	
