# OpenSignals Text File Format. Version 1
# {"00:07:80:8C:0A:39": {"position": 0, "device": "biosignalsplux", "device name": "00:07:80:8C:0A:39", "device connection": "BTH00:07:80:8C:0A:39", "sampling rate": 1000, "resolution": [16, 16], "firmware version": 776, "comments": "", "keywords": "", "mode": 0, "sync interval": 2, "date": "2023-3-10", "time": "12:47:52.564", "channels": [1, 2], "sensor": ["EMG", "EMG"], "label": ["CH1", "CH2"], "column": ["nSeq", "DI", "CH1", "CH2"], "special": [{"SpO2": [80, 40, 5, 4, 3, 3]}, {"SpO2": [80, 40, 5, 4, 3, 3]}, {"SpO2": [80, 40, 5, 4, 3, 3]}, {"SpO2": [80, 40, 5, 4, 3, 3]}, {"SpO2": [80, 40, 5, 4, 3, 3]}, {"SpO2": [80, 40, 5, 4, 3, 3]}, {"SpO2": [80, 40, 5, 4, 3, 3]}, {"SpO2": [80, 40, 5, 4, 3, 3]}], "digital IO": [0, 1], "sleeve color": ["gray", "yellow"], "convertedValues": 0}}
# EndOfHeader
0	0	32840	32748	
1	0	32864	32821	
2	0	32834	32768	
3	0	32904	32856	
4	0	32816	32794	
5	0	32842	32774	
6	0	32872	32700	
7	0	32820	32766	
8	0	32810	32808	
9	0	32816	32782	
10	0	32812	32744	
11	0	32756	32716	
12	0	32736	32800	
13	0	32804	32775	
14	0	32808	32682	
15	0	32832	32798	
16	0	32796	32826	
17	0	32768	32696	
18	0	32846	32834	
19	0	32858	32826	
20	0	32856	32775	
21	0	32900	32772	
22	0	32856	32680	
23	0	32958	32814	
24	0	32768	32890	
25	0	32768	32804	
26	0	32796	32632	
27	0	32772	32775	
28	0	32728	32782	
29	0	32776	32816	
30	0	32772	32668	
31	0	32824	32700	
32	0	32828	32872	
33	0	32770	32712	
34	0	32868	32710	
35	0	32818	32870	
36	0	32832	32822	
37	0	32786	32750	
38	0	32762	32780	
39	0	32726	32748	
40	0	32850	32798	
41	0	32868	32718	
42	0	32868	32840	
43	0	32772	32762	
44	0	32764	32666	
45	0	32784	32776	
46	0	32792	32766	
47	0	32782	32748	
48	0	32872	32727	
49	0	32782	32746	
50	0	32816	32824	
51	0	32752	32704	
52	0	32832	32764	
53	0	32832	32752	
54	0	32790	32806	
55	0	32800	32742	
56	0	32768	32882	
57	0	32930	32664	
58	0	32830	32658	
59	0	32848	32660	
60	0	32906	32792	
61	0	32816	32770	
62	0	32802	32760	
63	0	32784	32676	
64	0	32736	32798	
65	0	32786	32774	
66	0	32736	32792	
67	0	32784	32700	
68	0	32832	32736	
69	0	32782	32816	
70	0	32812	32820	
71	0	32822	32644	
72	0	32832	32838	
73	0	32862	32775	
74	0	32808	32816	
75	0	32828	32708	
76	0	32790	32816	
77	0	32828	32784	
78	0	32864	32772	
79	0	32746	32688	
80	0	32876	32734	
81	0	32808	32774	
82	0	32800	32726	
83	0	32746	32844	
84	0	32724	32814	
85	0	32772	32724	
86	0	32852	32790	
87	0	32774	32742	
88	0	32900	32868	
89	0	32844	32718	
90	0	32816	32804	
91	0	32884	32784	
92	0	32784	32690	
93	0	32804	32702	
94	0	32782	32748	
95	0	32724	32694	
96	0	32704	32764	
97	0	32836	32790	
98	0	32834	32878	
99	0	32828	32708	
100	0	32872	32856	
101	0	32808	32792	
102	0	32808	32716	
103	0	32828	32628	
104	0	32884	32824	
105	0	32904	32660	
106	0	32788	32836	
107	0	32788	32826	
108	0	32814	32676	
109	0	32812	32828	
110	0	32794	32824	
111	0	32836	32820	
112	0	32832	32692	
113	0	32760	32700	
114	0	32766	32768	
115	0	32716	32775	
116	0	32832	32734	
117	0	32828	32772	
118	0	32816	32816	
119	0	32828	32682	
120	0	32812	32730	
121	0	32836	32780	
122	0	32838	32696	
123	0	32824	32802	
124	0	32784	32841	
125	0	32844	32744	
126	0	32798	32824	
127	0	32788	32800	
128	0	32788	32722	
129	0	32756	32716	
130	0	32878	32725	
131	0	32860	32680	
132	0	32768	32752	
133	0	32772	32846	
134	0	32806	32774	
135	0	32836	32718	
136	0	32818	32794	
137	0	32808	32758	
138	0	32892	32736	
139	0	32884	32720	
140	0	32824	32774	
141	0	32864	32706	
142	0	32720	32740	
143	0	32746	32708	
144	0	32840	32788	
145	0	32752	32754	
146	0	32864	32822	
147	0	32838	32838	
148	0	32832	32806	
149	0	32792	32728	
150	0	32752	32852	
151	0	32802	32775	
152	0	32820	32716	
153	0	32812	32748	
154	0	32784	32804	
155	0	32792	32673	
156	0	32738	32756	
157	0	32888	32770	
158	0	32884	32762	
159	0	32856	32704	
160	0	32836	32792	
161	0	32820	32852	
162	0	32784	32688	
163	0	32800	32832	
164	0	32792	32846	
165	0	32806	32750	
166	0	32772	32794	
167	0	32808	32740	
168	0	32820	32736	
169	0	32784	32702	
170	0	32748	32794	
171	0	32878	32856	
172	0	32904	32760	
173	0	32840	32775	
174	0	32842	32770	
175	0	32780	32744	
176	0	32776	32732	
177	0	32756	32720	
178	0	32784	32700	
179	0	32800	32810	
180	0	32840	32840	
181	0	32748	32814	
182	0	32860	32692	
183	0	32856	32816	
184	0	32904	32724	
185	0	32836	32680	
186	0	32916	32842	
187	0	32886	32775	
188	0	32794	32652	
189	0	32732	32792	
190	0	32796	32756	
191	0	32752	32774	
192	0	32724	32673	
193	0	32790	32824	
194	0	32732	32812	
195	0	32818	32668	
196	0	32856	32792	
197	0	32836	32696	
198	0	32828	32636	
199	0	32808	32798	
200	0	32740	32896	
201	0	32832	32746	
202	0	32824	32820	
203	0	32798	32740	
204	0	32784	32800	
205	0	32820	32748	
206	0	32786	32698	
207	0	32776	32836	
208	0	32816	32832	
209	0	32840	32764	
210	0	32740	32800	
211	0	32844	32710	
212	0	32860	32816	
213	0	32820	32876	
214	0	32840	32720	
215	0	32846	32808	
216	0	32850	32796	
217	0	32888	32686	
218	0	32788	32668	
219	0	32810	32816	
220	0	32816	32746	
221	0	32816	32804	
222	0	32782	32810	
223	0	32740	32743	
224	0	32808	32790	
225	0	32804	32784	
226	0	32788	32720	
227	0	32772	32810	
228	0	32816	32758	
229	0	32810	32716	
230	0	32820	32858	
231	0	32868	32758	
232	0	32820	32796	
233	0	32840	32775	
234	0	32882	32736	
235	0	32776	32806	
236	0	32780	32704	
237	0	32824	32716	
238	0	32784	32788	
239	0	32788	32756	
240	0	32728	32760	
241	0	32862	32772	
242	0	32780	32652	
243	0	32822	32836	
244	0	32856	32792	
245	0	32810	32714	
246	0	32784	32792	
247	0	32832	32756	
248	0	32754	32754	
249	0	32792	32728	
250	0	32724	32784	
251	0	32846	32846	
252	0	32840	32792	
253	0	32840	32740	
254	0	32840	32788	
255	0	32834	32738	
256	0	32880	32792	
257	0	32816	32790	
258	0	32820	32704	
259	0	32780	32806	
260	0	32704	32712	
261	0	32800	32820	
262	0	32800	32848	
263	0	32792	32820	
264	0	32808	32752	
265	0	32780	32732	
266	0	32828	32796	
267	0	32824	32792	
268	0	32804	32752	
269	0	32820	32714	
270	0	32824	32768	
271	0	32788	32692	
272	0	32846	32836	
273	0	32830	32802	
274	0	32776	32676	
275	0	32880	32834	
276	0	32836	32796	
277	0	32866	32764	
278	0	32720	32748	
279	0	32776	32844	
280	0	32864	32672	
281	0	32732	32750	
282	0	32816	32768	
283	0	32832	32774	
284	0	32812	32756	
285	0	32768	32740	
286	0	32808	32804	
287	0	32893	32840	
288	0	32808	32664	
289	0	32824	32772	
290	0	32780	32736	
291	0	32800	32664	
292	0	32804	32748	
293	0	32714	32764	
294	0	32768	32736	
295	0	32756	32760	
296	0	32848	32775	
297	0	32834	32748	
298	0	32816	32784	
299	0	32848	32768	
300	0	32884	32888	
301	0	32896	32780	
302	0	32808	32632	
303	0	32816	32742	
304	0	32820	32760	
305	0	32802	32724	
306	0	32796	32734	
307	0	32796	32812	
308	0	32800	32774	
309	0	32822	32752	
310	0	32800	32858	
311	0	32868	32782	
312	0	32764	32704	
313	0	32798	32760	
314	0	32782	32834	
315	0	32780	32636	
316	0	32844	32796	
317	0	32834	32870	
318	0	32840	32694	
319	0	32828	32828	
320	0	32808	32828	
321	0	32832	32788	
322	0	32880	32840	
323	0	32904	32784	
324	0	32772	32730	
325	0	32820	32766	
326	0	32824	32758	
327	0	32768	32838	
328	0	32792	32732	
329	0	32800	32760	
330	0	32858	32754	
331	0	32828	32826	
332	0	32792	32788	
333	0	32892	32720	
334	0	32832	32769	
335	0	32760	32796	
336	0	32778	32840	
337	0	32798	32628	
338	0	32816	32640	
339	0	32824	32834	
340	0	32712	32844	
341	0	32812	32836	
342	0	32820	32720	
343	0	32788	32760	
344	0	32744	32832	
345	0	32842	32742	
346	0	32832	32824	
347	0	32786	32686	
348	0	32832	32728	
349	0	32752	32788	
350	0	32752	32804	
351	0	32852	32720	
352	0	32752	32754	
353	0	32782	32824	
354	0	32872	32834	
355	0	32840	32738	
356	0	32776	32724	
357	0	32868	32775	
358	0	32872	32782	
359	0	32840	32696	
360	0	32880	32780	
361	0	32820	32754	
362	0	32834	32728	
363	0	32800	32726	
364	0	32784	32818	
365	0	32816	32804	
366	0	32832	32712	
367	0	32758	32884	
368	0	32836	32756	
369	0	32808	32775	
370	0	32780	32810	
371	0	32844	32808	
372	0	32890	32744	
373	0	32836	32724	
374	0	32824	32778	
375	0	32778	32810	
376	0	32788	32734	
377	0	32794	32688	
378	0	32848	32754	
379	0	32810	32856	
380	0	32864	32716	
381	0	32794	32726	
382	0	32856	32760	
383	0	32870	32730	
384	0	32816	32784	
385	0	32776	32775	
386	0	32816	32769	
387	0	32836	32750	
388	0	32794	32744	
389	0	32804	32832	
390	0	32820	32744	
391	0	32764	32740	
392	0	32844	32848	
393	0	32800	32720	
394	0	32804	32680	
395	0	32852	32784	
396	0	32804	32710	
397	0	32826	32800	
398	0	32848	32758	
399	0	32816	32784	
400	0	32808	32792	
401	0	32792	32814	
402	0	32804	32702	
403	0	32810	32756	
404	0	32798	32784	
405	0	32754	32838	
406	0	32788	32724	
407	0	32824	32774	
408	0	32852	32764	
409	0	32868	32872	
410	0	32832	32682	
411	0	32752	32816	
412	0	32808	32772	
413	0	32836	32775	
414	0	32858	32714	
415	0	32828	32784	
416	0	32874	32718	
417	0	32848	32704	
418	0	32804	32742	
419	0	32836	32754	
420	0	32866	32820	
421	0	32824	32710	
422	0	32772	32732	
423	0	32800	32762	
424	0	32784	32832	
425	0	32796	32790	
426	0	32776	32812	
427	0	32832	32852	
428	0	32808	32724	
429	0	32780	32732	
430	0	32802	32808	
431	0	32756	32808	
432	0	32834	32730	
433	0	32868	32664	
434	0	32788	32726	
435	0	32784	32806	
436	0	32760	32812	
437	0	32800	32716	
438	0	32824	32782	
439	0	32866	32804	
440	0	32800	32816	
441	0	32951	32744	
442	0	32800	32866	
443	0	32810	32760	
444	0	32800	32774	
445	0	32780	32684	
446	0	32834	32784	
447	0	32856	32844	
448	0	32868	32720	
449	0	32816	32762	
450	0	32792	32822	
451	0	32820	32678	
452	0	32820	32842	
453	0	32754	32748	
454	0	32764	32678	
455	0	32780	32736	
456	0	32768	32745	
457	0	32808	32692	
458	0	32790	32868	
459	0	32780	32836	
460	0	32906	32740	
461	0	32842	32884	
462	0	32880	32802	
463	0	32880	32707	
464	0	32880	32800	
465	0	32760	32806	
466	0	32744	32728	
467	0	32764	32808	
468	0	32754	32844	
469	0	32788	32752	
470	0	32782	32820	
471	0	32770	32740	
472	0	32744	32796	
473	0	32844	32828	
474	0	32768	32726	
475	0	32792	32790	
476	0	32844	32800	
477	0	32816	32679	
478	0	32810	32812	
479	0	32832	32792	
480	0	32810	32694	
481	0	32802	32824	
482	0	32804	32728	
483	0	32804	32839	
484	0	32872	32820	
485	0	32796	32742	
486	0	32772	32820	
487	0	32770	32806	
488	0	32832	32720	
489	0	32760	32812	
490	0	32776	32702	
491	0	32784	32800	
492	0	32820	32702	
493	0	32820	32694	
494	0	32792	32806	
495	0	32756	32790	
496	0	32814	32676	
497	0	32840	32820	
498	0	32840	32792	
499	0	32816	32712	
500	0	32856	32748	
501	0	32832	32814	
502	0	32864	32780	
503	0	32876	32774	
504	0	32774	32806	
505	0	32808	32734	
506	0	32768	32800	
507	0	32836	32840	
508	0	32772	32756	
509	0	32776	32812	
510	0	32852	32760	
511	0	32832	32725	
512	0	32744	32792	
513	0	32780	32866	
514	0	32772	32708	
515	0	32752	32764	
516	0	32722	32804	
517	0	32856	32746	
518	0	32824	32774	
519	0	32840	32708	
520	0	32912	32788	
521	0	32860	32774	
522	0	32876	32720	
523	0	32864	32768	
524	0	32832	32804	
525	0	32740	32646	
526	0	32768	32832	
527	0	32824	32804	
528	0	32768	32756	
529	0	32784	32796	
530	0	32764	32784	
531	0	32768	32712	
532	0	32822	32752	
533	0	32884	32808	
534	0	32756	32752	
535	0	32748	32642	
536	0	32828	32728	
537	0	32836	32722	
538	0	32812	32756	
539	0	32824	32824	
540	0	32842	32844	
541	0	32810	32760	
542	0	32868	32748	
543	0	32772	32840	
544	0	32854	32710	
545	0	32756	32728	
546	0	32788	32836	
547	0	32750	32692	
548	0	32820	32754	
549	0	32816	32800	
550	0	32760	32724	
551	0	32812	32804	
552	0	32786	32882	
553	0	32744	32732	
554	0	32826	32842	
555	0	32778	32788	
556	0	32748	32724	
557	0	32800	32672	
558	0	32824	32798	
559	0	32746	32726	
560	0	32812	32810	
561	0	32824	32748	
562	0	32858	32746	
563	0	32876	32810	
564	0	32832	32692	
565	0	32862	32728	
566	0	32842	32842	
567	0	32864	32794	
568	0	32880	32712	
569	0	32772	32780	
570	0	32776	32844	
571	0	32786	32720	
572	0	32806	32780	
573	0	32832	32804	
574	0	32784	32782	
575	0	32816	32743	
576	0	32780	32792	
577	0	32816	32796	
578	0	32826	32694	
579	0	32832	32684	
580	0	32852	32720	
581	0	32840	32762	
582	0	32768	32692	
583	0	32780	32744	
584	0	32842	32686	
585	0	32828	32836	
586	0	32752	32836	
587	0	32820	32708	
588	0	32840	32772	
589	0	32816	32876	
590	0	32796	32682	
591	0	32788	32804	
592	0	32788	32756	
593	0	32852	32866	
594	0	32796	32702	
595	0	32764	32772	
596	0	32820	32766	
597	0	32814	32774	
598	0	32796	32710	
599	0	32792	32800	
600	0	32824	32852	
601	0	32840	32740	
602	0	32784	32828	
603	0	32818	32795	
604	0	32808	32740	
605	0	32860	32769	
606	0	32808	32775	
607	0	32844	32756	
608	0	32824	32826	
609	0	32840	32796	
610	0	32752	32804	
611	0	32742	32744	
612	0	32792	32766	
613	0	32882	32808	
614	0	32824	32684	
615	0	32864	32800	
616	0	32762	32754	
617	0	32800	32790	
618	0	32840	32656	
619	0	32782	32804	
620	0	32792	32756	
621	0	32768	32724	
622	0	32784	32874	
623	0	32836	32766	
624	0	32728	32678	
625	0	32776	32836	
626	0	32864	32796	
627	0	32852	32688	
628	0	32842	32865	
629	0	32776	32854	
630	0	32836	32728	
631	0	32780	32784	
632	0	32788	32810	
633	0	32822	32758	
634	0	32808	32748	
635	0	32750	32800	
636	0	32764	32696	
637	0	32822	32760	
638	0	32812	32784	
639	0	32808	32728	
640	0	32852	32708	
641	0	32828	32764	
642	0	32752	32761	
643	0	32816	32838	
644	0	32794	32800	
645	0	32754	32616	
646	0	32812	32784	
647	0	32846	32770	
648	0	32784	32840	
649	0	32864	32790	
650	0	32824	32684	
651	0	32828	32784	
652	0	32768	32784	
653	0	32806	32644	
654	0	32832	32750	
655	0	32816	32753	
656	0	32734	32732	
657	0	32796	32754	
658	0	32878	32692	
659	0	32892	32818	
660	0	32760	32828	
661	0	32852	32790	
662	0	32828	32806	
663	0	32856	32792	
664	0	32800	32770	
665	0	32778	32786	
666	0	32824	32678	
667	0	32784	32793	
668	0	32834	32782	
669	0	32824	32654	
670	0	32826	32794	
671	0	32808	32726	
672	0	32822	32864	
673	0	32816	32756	
674	0	32760	32702	
675	0	32760	32804	
676	0	32796	32839	
677	0	32788	32734	
678	0	32812	32775	
679	0	32788	32775	
680	0	32800	32680	
681	0	32796	32834	
682	0	32802	32790	
683	0	32744	32716	
684	0	32836	32834	
685	0	32836	32840	
686	0	32808	32758	
687	0	32868	32838	
688	0	32804	32775	
689	0	32842	32840	
690	0	32872	32674	
691	0	32842	32792	
692	0	32868	32770	
693	0	32892	32748	
694	0	32820	32716	
695	0	32778	32768	
696	0	32838	32830	
697	0	32840	32784	
698	0	32828	32652	
699	0	32808	32822	
700	0	32794	32746	
701	0	32790	32878	
702	0	32812	32684	
703	0	32764	32782	
704	0	32850	32794	
705	0	32828	32724	
706	0	32832	32752	
707	0	32808	32752	
708	0	32752	32716	
709	0	32782	32710	
710	0	32774	32876	
711	0	32706	32784	
712	0	32862	32636	
713	0	32794	32784	
714	0	32786	32796	
715	0	32816	32720	
716	0	32828	32796	
717	0	32844	32783	
718	0	32810	32828	
719	0	32836	32724	
720	0	32832	32768	
721	0	32754	32800	
722	0	32842	32738	
723	0	32780	32848	
724	0	32862	32732	
725	0	32770	32714	
726	0	32832	32716	
727	0	32824	32752	
728	0	32824	32808	
729	0	32842	32732	
730	0	32840	32908	
731	0	32788	32828	
732	0	32834	32788	
733	0	32724	32648	
734	0	32776	32806	
735	0	32818	32766	
736	0	32821	32744	
737	0	32840	32742	
738	0	32856	32666	
739	0	32820	32736	
740	0	32826	32812	
741	0	32838	32716	
742	0	32804	32680	
743	0	32796	32744	
744	0	32798	32858	
745	0	32756	32778	
746	0	32856	32770	
747	0	32750	32712	
748	0	32828	32764	
749	0	32788	32772	
750	0	32866	32746	
751	0	32842	32768	
752	0	32782	32716	
753	0	32800	32844	
754	0	32824	32688	
755	0	32792	32719	
756	0	32800	32774	
757	0	32822	32768	
758	0	32784	32775	
759	0	32820	32812	
760	0	32830	32868	
761	0	32780	32664	
762	0	32736	32848	
763	0	32838	32810	
764	0	32826	32764	
765	0	32872	32720	
766	0	32808	32808	
767	0	32860	32742	
768	0	32884	32864	
769	0	32804	32716	
770	0	32824	32716	
771	0	32856	32742	
772	0	32768	32817	
773	0	32748	32804	
774	0	32780	32792	
775	0	32822	32800	
776	0	32746	32708	
777	0	32788	32614	
778	0	32808	32704	
779	0	32798	32750	
780	0	32740	32646	
781	0	32764	32662	
782	0	32680	32718	
783	0	32610	32650	
784	0	32636	32714	
785	0	32672	32648	
786	0	32704	32686	
787	0	32752	32704	
788	0	32704	32736	
789	0	32704	32725	
790	0	32784	32682	
791	0	32656	32770	
792	0	32744	32788	
793	0	32792	32698	
794	0	32858	32814	
795	0	32872	32702	
796	0	32792	32784	
797	0	32872	32740	
798	0	32844	32824	
799	0	32828	32760	
800	0	32846	32720	
801	0	32868	32650	
802	0	32874	32878	
803	0	32944	32846	
804	0	32942	32894	
805	0	33070	32848	
806	0	33064	32964	
807	0	33100	33056	
808	0	33052	32932	
809	0	33080	33048	
810	0	33036	32900	
811	0	32976	32948	
812	0	32960	32812	
813	0	32962	32908	
814	0	32944	32884	
815	0	32916	32808	
816	0	32868	32724	
817	0	32788	32762	
818	0	32708	32660	
819	0	32732	32678	
820	0	32700	32596	
821	0	32646	32622	
822	0	32724	32660	
823	0	32680	32678	
824	0	32712	32670	
825	0	32728	32756	
826	0	32812	32806	
827	0	32748	32698	
828	0	32704	32724	
829	0	32692	32798	
830	0	32720	32632	
831	0	32752	32760	
832	0	32788	32800	
833	0	32770	32664	
834	0	32772	32840	
835	0	32748	32712	
836	0	32850	32736	
837	0	32780	32730	
838	0	32792	32720	
839	0	32848	32724	
840	0	32792	32704	
841	0	32872	32752	
842	0	32824	32704	
843	0	32804	32748	
844	0	32730	32720	
845	0	32800	32766	
846	0	32798	32756	
847	0	32824	32834	
848	0	32768	32746	
849	0	32780	32808	
850	0	32790	32784	
851	0	32802	32764	
852	0	32772	32722	
853	0	32796	32728	
854	0	32800	32750	
855	0	32776	32759	
856	0	32820	32724	
857	0	32812	32774	
858	0	32796	32728	
859	0	32818	32694	
860	0	32782	32808	
861	0	32854	32774	
862	0	32792	32774	
863	0	32802	32688	
864	0	32808	32788	
865	0	32804	32824	
866	0	32818	32775	
867	0	32824	32762	
868	0	32816	32798	
869	0	32828	32832	
870	0	32760	32680	
871	0	32826	32660	
872	0	32746	32748	
873	0	32778	32841	
874	0	32844	32732	
875	0	32784	32796	
876	0	32854	32766	
877	0	32866	32838	
878	0	32842	32656	
879	0	32836	32712	
880	0	32764	32764	
881	0	32832	32828	
882	0	32852	32736	
883	0	32804	32818	
884	0	32792	32775	
885	0	32772	32734	
886	0	32842	32804	
887	0	32784	32720	
888	0	32790	32775	
889	0	32788	32822	
890	0	32806	32784	
891	0	32818	32706	
892	0	32832	32678	
893	0	32790	32742	
894	0	32824	32736	
895	0	32832	32782	
896	0	32804	32752	
897	0	32736	32698	
898	0	32808	32796	
899	0	32894	32806	
900	0	32842	32708	
901	0	32808	32710	
902	0	32764	32860	
903	0	32756	32790	
904	0	32824	32790	
905	0	32776	32722	
906	0	32830	32738	
907	0	32794	32708	
908	0	32838	32734	
909	0	32744	32788	
910	0	32832	32775	
911	0	32768	32736	
912	0	32748	32774	
913	0	32812	32788	
914	0	32838	32738	
915	0	32828	32775	
916	0	32840	32760	
917	0	32782	32806	
918	0	32808	32752	
919	0	32794	32734	
920	0	32834	32714	
921	0	32854	32722	
922	0	32824	32742	
923	0	32790	32840	
924	0	32838	32846	
925	0	32836	32740	
926	0	32788	32854	
927	0	32760	32794	
928	0	32772	32724	
929	0	32852	32736	
930	0	32836	32802	
931	0	32844	32806	
932	0	32796	32804	
933	0	32724	32674	
934	0	32856	32775	
935	0	32786	32756	
936	0	32780	32828	
937	0	32788	32640	
938	0	32848	32792	
939	0	32800	32810	
940	0	32762	32804	
941	0	32834	32752	
942	0	32850	32680	
943	0	32808	32892	
944	0	32724	32752	
945	0	32858	32775	
946	0	32852	32674	
947	0	32760	32788	
948	0	32832	32733	
949	0	32864	32816	
950	0	32756	32770	
951	0	32740	32830	
952	0	32726	32808	
953	0	32816	32680	
954	0	32722	32756	
955	0	32806	32772	
956	0	32812	32736	
957	0	32866	32760	
958	0	32842	32744	
959	0	32874	32852	
960	0	32860	32750	
961	0	32850	32836	
962	0	32768	32802	
963	0	32804	32832	
964	0	32820	32646	
965	0	32776	32775	
966	0	32792	32832	
967	0	32820	32694	
968	0	32782	32878	
969	0	32894	32772	
970	0	32880	32742	
971	0	32804	32752	
972	0	32848	32750	
973	0	32812	32724	
974	0	32752	32704	
975	0	32752	32796	
976	0	32804	32852	
977	0	32820	32650	
978	0	32802	32786	
979	0	32796	32758	
980	0	32776	32792	
981	0	32776	32740	
982	0	32794	32816	
983	0	32856	32748	
984	0	32796	32764	
985	0	32844	32772	
986	0	32846	32625	
987	0	32792	32844	
988	0	32764	32775	
989	0	32744	32796	
990	0	32816	32692	
991	0	32792	32808	
992	0	32800	32788	
993	0	32760	32852	
994	0	32822	32756	
995	0	32852	32804	
996	0	32784	32852	
997	0	32792	32702	
998	0	32824	32640	
999	0	32800	32788	
1000	0	32820	32792	
1001	0	32828	32694	
1002	0	32784	32744	
1003	0	32858	32722	
1004	0	32810	32852	
1005	0	32832	32745	
1006	0	32776	32692	
1007	0	32788	32834	
1008	0	32848	32814	
1009	0	32834	32785	
1010	0	32780	32744	
1011	0	32852	32800	
1012	0	32832	32770	
1013	0	32768	32720	
1014	0	32806	32660	
1015	0	32804	32744	
1016	0	32820	32850	
1017	0	32768	32808	
1018	0	32834	32752	
1019	0	32816	32730	
1020	0	32832	32776	
1021	0	32746	32710	
1022	0	32808	32832	
1023	0	32802	32826	
1024	0	32834	32752	
1025	0	32848	32686	
1026	0	32802	32842	
1027	0	32776	32732	
1028	0	32810	32846	
1029	0	32802	32708	
1030	0	32788	32696	
1031	0	32800	32812	
1032	0	32796	32820	
1033	0	32862	32708	
1034	0	32902	32870	
1035	0	32834	32758	
1036	0	32740	32828	
1037	0	32828	32660	
1038	0	32804	32864	
1039	0	32816	32738	
1040	0	32792	32746	
1041	0	32832	32764	
1042	0	32832	32762	
1043	0	32834	32772	
1044	0	32788	32784	
1045	0	32812	32828	
1046	0	32840	32720	
1047	0	32840	32750	
1048	0	32816	32854	
1049	0	32816	32736	
1050	0	32824	32692	
1051	0	32782	32764	
1052	0	32840	32782	
1053	0	32828	32820	
1054	0	32834	32652	
1055	0	32812	32840	
1056	0	32840	32862	
1057	0	32932	32800	
1058	0	32818	32784	
1059	0	32900	32704	
1060	0	32772	32810	
1061	0	32848	32734	
1062	0	32834	32852	
1063	0	32770	32820	
1064	0	32772	32696	
1065	0	32792	32712	
1066	0	32836	32802	
1067	0	32780	32760	
1068	0	32754	32800	
1069	0	32772	32732	
1070	0	32792	32804	
1071	0	32828	32804	
1072	0	32836	32822	
1073	0	32824	32684	
1074	0	32820	32746	
1075	0	32844	32772	
1076	0	32812	32788	
1077	0	32804	32714	
1078	0	32782	32840	
1079	0	32852	32760	
1080	0	32820	32714	
1081	0	32794	32748	
1082	0	32878	32758	
1083	0	32800	32752	
1084	0	32788	32716	
1085	0	32800	32752	
1086	0	32828	32766	
1087	0	32824	32754	
1088	0	32816	32794	
1089	0	32824	32730	
1090	0	32808	32740	
1091	0	32748	32824	
1092	0	32824	32774	
1093	0	32832	32774	
1094	0	32824	32664	
1095	0	32776	32812	
1096	0	32832	32764	
1097	0	32832	32750	
1098	0	32780	32808	
1099	0	32814	32804	
1100	0	32852	32696	
1101	0	32836	32760	
1102	0	32760	32840	
1103	0	32798	32738	
1104	0	32844	32807	
1105	0	32812	32798	
1106	0	32760	32684	
1107	0	32750	32810	
1108	0	32794	32808	
1109	0	32840	32748	
1110	0	32836	32786	
1111	0	32740	32836	
1112	0	32844	32660	
1113	0	32836	32724	
1114	0	32812	32750	
1115	0	32778	32702	
1116	0	32796	32736	
1117	0	32796	32708	
1118	0	32852	32822	
1119	0	32776	32812	
1120	0	32816	32682	
1121	0	32760	32746	
1122	0	32852	32792	
1123	0	32838	32792	
1124	0	32784	32828	
1125	0	32802	32686	
1126	0	32840	32766	
1127	0	32824	32752	
1128	0	32804	32700	
1129	0	32836	32758	
1130	0	32850	32724	
1131	0	32780	32724	
1132	0	32808	32746	
1133	0	32786	32664	
1134	0	32832	32812	
1135	0	32800	32894	
1136	0	32832	32672	
1137	0	32770	32730	
1138	0	32782	32670	
1139	0	32812	32817	
1140	0	32776	32808	
1141	0	32868	32780	
1142	0	32872	32752	
1143	0	32812	32736	
1144	0	32776	32802	
1145	0	32852	32714	
1146	0	32760	32722	
1147	0	32812	32820	
1148	0	32782	32806	
1149	0	32808	32840	
1150	0	32798	32748	
1151	0	32776	32780	
1152	0	32862	32822	
1153	0	32784	32756	
1154	0	32816	32746	
1155	0	32770	32892	
1156	0	32776	32804	
1157	0	32824	32750	
1158	0	32770	32724	
1159	0	32748	32708	
1160	0	32809	32736	
1161	0	32802	32734	
1162	0	32820	32810	
1163	0	32808	32834	
1164	0	32830	32708	
1165	0	32754	32746	
1166	0	32838	32826	
1167	0	32752	32808	
1168	0	32860	32800	
1169	0	32804	32744	
1170	0	32754	32756	
1171	0	32888	32808	
1172	0	32790	32772	
1173	0	32812	32724	
1174	0	32784	32840	
1175	0	32740	32784	
1176	0	32808	32828	
1177	0	32800	32832	
1178	0	32800	32694	
1179	0	32868	32756	
1180	0	32820	32784	
1181	0	32856	32682	
1182	0	32804	32800	
1183	0	32800	32740	
1184	0	32864	32678	
1185	0	32792	32816	
1186	0	32824	32866	
1187	0	32860	32740	
1188	0	32808	32868	
1189	0	32796	32828	
1190	0	32802	32656	
1191	0	32772	32810	
1192	0	32758	32744	
1193	0	32730	32724	
1194	0	32792	32839	
1195	0	32849	32710	
1196	0	32896	32836	
1197	0	32800	32614	
1198	0	32866	32854	
1199	0	32804	32728	
1200	0	32792	32728	
1201	0	32868	32732	
1202	0	32840	32738	
1203	0	32760	32802	
1204	0	32760	32736	
1205	0	32790	32842	
1206	0	32784	32826	
1207	0	32800	32748	
1208	0	32868	32714	
1209	0	32788	32828	
1210	0	32820	32814	
1211	0	32842	32720	
1212	0	32822	32754	
1213	0	32778	32768	
1214	0	32876	32746	
1215	0	32808	32666	
1216	0	32850	32666	
1217	0	32800	32752	
1218	0	32832	32854	
1219	0	32850	32656	
1220	0	32800	32715	
1221	0	32832	32768	
1222	0	32842	32820	
1223	0	32840	32720	
1224	0	32780	32784	
1225	0	32808	32764	
1226	0	32788	32774	
1227	0	32768	32786	
1228	0	32800	32894	
1229	0	32890	32744	
1230	0	32844	32766	
1231	0	32840	32692	
1232	0	32772	32724	
1233	0	32848	32774	
1234	0	32798	32746	
1235	0	32788	32775	
1236	0	32754	32724	
1237	0	32868	32802	
1238	0	32840	32804	
1239	0	32812	32660	
1240	0	32794	32816	
1241	0	32796	32744	
1242	0	32820	32775	
1243	0	32858	32724	
1244	0	32836	32768	
1245	0	32784	32884	
1246	0	32776	32742	
1247	0	32862	32740	
1248	0	32816	32762	
1249	0	32800	32708	
1250	0	32784	32742	
1251	0	32764	32752	
1252	0	32820	32860	
1253	0	32808	32714	
1254	0	32776	32794	
1255	0	32776	32786	
1256	0	32862	32624	
1257	0	32870	32872	
1258	0	32750	32720	
1259	0	32788	32650	
1260	0	32868	32816	
1261	0	32792	32760	
1262	0	32884	32744	
1263	0	32808	32810	
1264	0	32808	32804	
1265	0	32732	32784	
1266	0	32764	32714	
1267	0	32768	32760	
1268	0	32804	32836	
1269	0	32870	32790	
1270	0	32768	32820	
1271	0	32858	32744	
1272	0	32792	32756	
1273	0	32816	32756	
1274	0	32788	32752	
1275	0	32796	32700	
1276	0	32796	32646	
1277	0	32776	32775	
1278	0	32802	32760	
1279	0	32804	32810	
1280	0	32798	32710	
1281	0	32790	32644	
1282	0	32816	32788	
1283	0	32792	32846	
1284	0	32824	32720	
1285	0	32798	32700	
1286	0	32814	32774	
1287	0	32848	32796	
1288	0	32830	32856	
1289	0	32828	32724	
1290	0	32780	32732	
1291	0	32830	32816	
1292	0	32880	32720	
1293	0	32792	32880	
1294	0	32786	32732	
1295	0	32798	32830	
1296	0	32784	32764	
1297	0	32772	32736	
1298	0	32832	32710	
1299	0	32790	32728	
1300	0	32772	32784	
1301	0	32790	32720	
1302	0	32836	32832	
1303	0	32812	32744	
1304	0	32792	32596	
1305	0	32808	32754	
1306	0	32798	32768	
1307	0	32818	32764	
1308	0	32864	32748	
1309	0	32842	32826	
1310	0	32820	32774	
1311	0	32802	32796	
1312	0	32796	32647	
1313	0	32836	32806	
1314	0	32788	32784	
1315	0	32864	32860	
1316	0	32752	32736	
1317	0	32794	32794	
1318	0	32826	32778	
1319	0	32720	32788	
1320	0	32860	32740	
1321	0	32802	32710	
1322	0	32808	32868	
1323	0	32844	32774	
1324	0	32770	32782	
1325	0	32796	32790	
1326	0	32776	32788	
1327	0	32828	32760	
1328	0	32810	32764	
1329	0	32804	32682	
1330	0	32788	32787	
1331	0	32832	32774	
1332	0	32804	32800	
1333	0	32804	32820	
1334	0	32842	32682	
1335	0	32856	32740	
1336	0	32824	32822	
1337	0	32804	32764	
1338	0	32784	32770	
1339	0	32840	32672	
1340	0	32804	32836	
1341	0	32816	32648	
1342	0	32834	32818	
1343	0	32832	32818	
1344	0	32808	32728	
1345	0	32812	32830	
1346	0	32800	32792	
1347	0	32796	32714	
1348	0	32824	32748	
1349	0	32824	32808	
1350	0	32808	32764	
1351	0	32830	32836	
1352	0	32696	32690	
1353	0	32768	32832	
1354	0	32816	32744	
1355	0	32776	32730	
1356	0	32764	32780	
1357	0	32802	32676	
1358	0	32850	32872	
1359	0	32892	32798	
1360	0	32824	32718	
1361	0	32912	32742	
1362	0	32822	32748	
1363	0	32834	32694	
1364	0	32842	32808	
1365	0	32740	32752	
1366	0	32832	32800	
1367	0	32800	32758	
1368	0	32824	32850	
1369	0	32844	32724	
1370	0	32824	32772	
1371	0	32768	32812	
1372	0	32750	32712	
1373	0	32804	32868	
1374	0	32832	32711	
1375	0	32780	32720	
1376	0	32808	32712	
1377	0	32816	32792	
1378	0	32808	32804	
1379	0	32798	32716	
1380	0	32856	32772	
1381	0	32854	32658	
1382	0	32816	32734	
1383	0	32830	32744	
1384	0	32822	32700	
1385	0	32740	32760	
1386	0	32848	32838	
1387	0	32734	32660	
1388	0	32764	32774	
1389	0	32724	32800	
1390	0	32778	32705	
1391	0	32856	32760	
1392	0	32816	32800	
1393	0	32866	32734	
1394	0	32880	32866	
1395	0	32800	32824	
1396	0	32776	32798	
1397	0	32848	32700	
1398	0	32846	32695	
1399	0	32857	32826	
1400	0	32820	32652	
1401	0	32896	32794	
1402	0	32772	32854	
1403	0	32864	32686	
1404	0	32856	32906	
1405	0	32820	32768	
1406	0	32760	32824	
1407	0	32770	32792	
1408	0	32868	32728	
1409	0	32744	32776	
1410	0	32780	32775	
1411	0	32820	32828	
1412	0	32808	32650	
1413	0	32808	32720	
1414	0	32812	32789	
1415	0	32814	32808	
1416	0	32826	32710	
1417	0	32752	32678	
1418	0	32806	32855	
1419	0	32802	32766	
1420	0	32840	32804	
1421	0	32792	32736	
1422	0	32796	32734	
1423	0	32800	32730	
1424	0	32794	32812	
1425	0	32868	32788	
1426	0	32836	32854	
1427	0	32800	32772	
1428	0	32865	32820	
1429	0	32780	32784	
1430	0	32816	32638	
1431	0	32792	32816	
1432	0	32752	32858	
1433	0	32778	32730	
1434	0	32836	32818	
1435	0	32748	32806	
1436	0	32768	32796	
1437	0	32768	32812	
1438	0	32832	32700	
1439	0	32820	32740	
1440	0	32820	32684	
1441	0	32824	32775	
1442	0	32804	32775	
1443	0	32856	32746	
1444	0	32840	32772	
1445	0	32864	32770	
1446	0	32772	32838	
1447	0	32816	32664	
1448	0	32782	32774	
1449	0	32801	32870	
1450	0	32744	32748	
1451	0	32832	32708	
1452	0	32804	32816	
1453	0	32872	32806	
1454	0	32904	32712	
1455	0	32818	32772	
1456	0	32800	32789	
1457	0	32846	32674	
1458	0	32756	32799	
1459	0	32814	32792	
1460	0	32820	32724	
1461	0	32772	32836	
1462	0	32852	32824	
1463	0	32844	32724	
1464	0	32800	32812	
1465	0	32808	32856	
1466	0	32832	32775	
1467	0	32804	32716	
1468	0	32858	32904	
1469	0	32788	32712	
1470	0	32806	32762	
1471	0	32808	32836	
1472	0	32848	32684	
1473	0	32840	32846	
1474	0	32778	32808	
1475	0	32848	32690	
1476	0	32860	32870	
1477	0	32824	32734	
1478	0	32804	32740	
1479	0	32784	32812	
1480	0	32832	32852	
1481	0	32802	32778	
1482	0	32896	32788	
1483	0	32832	32868	
1484	0	32776	32754	
1485	0	32866	32708	
1486	0	32836	32775	
1487	0	32832	32824	
1488	0	32840	32727	
1489	0	32784	32830	
1490	0	32816	32820	
1491	0	32772	32679	
1492	0	32796	32666	
1493	0	32792	32768	
1494	0	32788	32872	
1495	0	32780	32828	
1496	0	32804	32716	
1497	0	32736	32780	
1498	0	32868	32686	
1499	0	32836	32804	
1500	0	32802	32832	
1501	0	32802	32768	
1502	0	32836	32772	
1503	0	32810	32780	
1504	0	32812	32740	
1505	0	32836	32802	
1506	0	32784	32894	
1507	0	32832	32712	
1508	0	32820	32766	
1509	0	32864	32712	
1510	0	32894	32798	
1511	0	32804	32742	
1512	0	32864	32722	
1513	0	32820	32780	
1514	0	32792	32770	
1515	0	32766	32774	
1516	0	32838	32726	
1517	0	32760	32792	
1518	0	32881	32822	
1519	0	32792	32740	
1520	0	32834	32824	
1521	0	32816	32848	
1522	0	32864	32628	
1523	0	32840	32676	
1524	0	32832	32712	
1525	0	32852	32774	
1526	0	32794	32672	
1527	0	32776	32838	
1528	0	32800	32780	
1529	0	32780	32676	
1530	0	32810	32832	
1531	0	32816	32760	
1532	0	32760	32764	
1533	0	32798	32664	
1534	0	32786	32814	
1535	0	32812	32812	
1536	0	32820	32752	
1537	0	32810	32750	
1538	0	32900	32784	
1539	0	32772	32864	
1540	0	32774	32720	
1541	0	32796	32718	
1542	0	32808	32770	
1543	0	32858	32828	
1544	0	32866	32746	
1545	0	32792	32616	
1546	0	32778	32868	
1547	0	32756	32737	
1548	0	32832	32750	
1549	0	32740	32680	
1550	0	32740	32782	
1551	0	32860	32822	
1552	0	32814	32692	
1553	0	32804	32724	
1554	0	32768	32796	
1555	0	32816	32836	
1556	0	32858	32652	
1557	0	32808	32810	
1558	0	32812	32766	
1559	0	32896	32808	
1560	0	32836	32724	
1561	0	32836	32716	
1562	0	32844	32812	
1563	0	32852	32824	
1564	0	32778	32800	
1565	0	32794	32744	
1566	0	32796	32734	
1567	0	32788	32742	
1568	0	32868	32796	
1569	0	32800	32752	
1570	0	32804	32830	
1571	0	32772	32728	
1572	0	32840	32732	
1573	0	32760	32770	
1574	0	32752	32796	
1575	0	32838	32716	
1576	0	32804	32766	
1577	0	32864	32788	
1578	0	32762	32772	
1579	0	32788	32736	
1580	0	32824	32698	
1581	0	32860	32796	
1582	0	32852	32766	
1583	0	32804	32814	
1584	0	32826	32716	
1585	0	32840	32754	
1586	0	32872	32708	
1587	0	32894	32840	
1588	0	32752	32704	
1589	0	32756	32832	
1590	0	32776	32794	
1591	0	32812	32772	
1592	0	32796	32708	
1593	0	32932	32838	
1594	0	32744	32820	
1595	0	32836	32674	
1596	0	32836	32876	
1597	0	32808	32752	
1598	0	32800	32775	
1599	0	32850	32638	
1600	0	32804	32775	
1601	0	32748	32784	
1602	0	32872	32760	
1603	0	32884	32694	
1604	0	32816	32806	
1605	0	32804	32812	
1606	0	32844	32682	
1607	0	32788	32628	
1608	0	32818	32742	
1609	0	32776	32806	
1610	0	32800	32888	
1611	0	32800	32788	
1612	0	32798	32761	
1613	0	32794	32706	
1614	0	32904	32780	
1615	0	32896	32756	
1616	0	32828	32724	
1617	0	32904	32700	
1618	0	32808	32762	
1619	0	32824	32768	
1620	0	32752	32770	
1621	0	32786	32672	
1622	0	32852	32758	
1623	0	32838	32770	
1624	0	32844	32820	
1625	0	32804	32802	
1626	0	32778	32792	
1627	0	32824	32726	
1628	0	32832	32775	
1629	0	32808	32844	
1630	0	32847	32664	
1631	0	32884	32712	
1632	0	32720	32806	
1633	0	32684	32802	
1634	0	32814	32760	
1635	0	32834	32702	
1636	0	32812	32732	
1637	0	32752	32778	
1638	0	32860	32672	
1639	0	32824	32852	
1640	0	32764	32816	
1641	0	32828	32858	
1642	0	32868	32640	
1643	0	32764	32812	
1644	0	32768	32721	
1645	0	32848	32790	
1646	0	32792	32712	
1647	0	32792	32807	
1648	0	32792	32772	
1649	0	32808	32804	
1650	0	32856	32764	
1651	0	32804	32759	
1652	0	32810	32766	
1653	0	32799	32830	
1654	0	32846	32696	
1655	0	32812	32748	
1656	0	32828	32852	
1657	0	32772	32664	
1658	0	32764	32846	
1659	0	32816	32836	
1660	0	32802	32736	
1661	0	32882	32740	
1662	0	32820	32800	
1663	0	32776	32775	
1664	0	32824	32728	
1665	0	32874	32752	
1666	0	32842	32804	
1667	0	32792	32828	
1668	0	32834	32706	
1669	0	32840	32794	
1670	0	32896	32697	
1671	0	32794	32810	
1672	0	32860	32858	
1673	0	32774	32796	
1674	0	32776	32746	
1675	0	32712	32630	
1676	0	32780	32750	
1677	0	32676	32762	
1678	0	32656	32662	
1679	0	32688	32684	
1680	0	32744	32674	
1681	0	32696	32708	
1682	0	32728	32692	
1683	0	32672	32682	
1684	0	32668	32624	
1685	0	32696	32775	
1686	0	32676	32632	
1687	0	32706	32752	
1688	0	32764	32688	
1689	0	32784	32626	
1690	0	32752	32818	
1691	0	32816	32692	
1692	0	32820	32840	
1693	0	32904	32796	
1694	0	32776	32688	
1695	0	32880	32796	
1696	0	32768	32876	
1697	0	32896	32720	
1698	0	32808	32804	
1699	0	32800	32792	
1700	0	32896	32744	
1701	0	32976	32864	
1702	0	33060	32836	
1703	0	33040	32938	
1704	0	33060	32922	
1705	0	33092	33002	
1706	0	33120	33012	
1707	0	33056	32895	
1708	0	33004	32944	
1709	0	32928	32878	
1710	0	32964	32852	
1711	0	32882	32920	
1712	0	32944	32860	
1713	0	32888	32806	
1714	0	32886	32744	
1715	0	32800	32864	
1716	0	32706	32612	
1717	0	32720	32718	
1718	0	32724	32726	
1719	0	32680	32654	
1720	0	32736	32636	
1721	0	32676	32718	
1722	0	32741	32650	
1723	0	32720	32708	
1724	0	32736	32775	
1725	0	32732	32646	
1726	0	32736	32754	
1727	0	32768	32760	
1728	0	32756	32800	
1729	0	32778	32860	
1730	0	32764	32704	
1731	0	32736	32807	
1732	0	32754	32764	
1733	0	32764	32794	
1734	0	32752	32788	
1735	0	32824	32676	
1736	0	32824	32788	
1737	0	32840	32678	
1738	0	32836	32734	
1739	0	32860	32786	
1740	0	32814	32662	
1741	0	32784	32808	
1742	0	32764	32768	
1743	0	32864	32708	
1744	0	32830	32722	
1745	0	32828	32760	
1746	0	32776	32796	
1747	0	32822	32772	
1748	0	32764	32706	
1749	0	32778	32775	
1750	0	32762	32725	
1751	0	32816	32788	
1752	0	32812	32748	
1753	0	32784	32820	
1754	0	32852	32642	
1755	0	32852	32750	
1756	0	32799	32725	
1757	0	32742	32708	
1758	0	32776	32814	
1759	0	32848	32714	
1760	0	32800	32752	
1761	0	32792	32660	
1762	0	32808	32862	
1763	0	32808	32804	
1764	0	32776	32768	
1765	0	32882	32808	
1766	0	32852	32666	
1767	0	32884	32793	
1768	0	32856	32708	
1769	0	32788	32710	
1770	0	32740	32780	
1771	0	32752	32744	
1772	0	32768	32826	
1773	0	32770	32712	
1774	0	32806	32780	
1775	0	32852	32810	
1776	0	32832	32710	
1777	0	32848	32788	
1778	0	32884	32704	
1779	0	32840	32802	
1780	0	32904	32796	
1781	0	32824	32676	
1782	0	32820	32752	
1783	0	32780	32696	
1784	0	32780	32808	
1785	0	32794	32766	
1786	0	32876	32740	
1787	0	32816	32806	
1788	0	32764	32812	
1789	0	32744	32672	
1790	0	32772	32800	
1791	0	32746	32824	
1792	0	32814	32662	
1793	0	32730	32852	
1794	0	32828	32750	
1795	0	32832	32636	
1796	0	32800	32806	
1797	0	32846	32804	
1798	0	32820	32668	
1799	0	32804	32764	
1800	0	32788	32764	
1801	0	32800	32752	
1802	0	32792	32690	
1803	0	32824	32694	
1804	0	32828	32762	
1805	0	32836	32834	
1806	0	32810	32758	
1807	0	32840	32802	
1808	0	32752	32798	
1809	0	32736	32678	
1810	0	32798	32772	
1811	0	32824	32772	
1812	0	32756	32808	
1813	0	32808	32842	
1814	0	32798	32740	
1815	0	32828	32756	
1816	0	32840	32790	
1817	0	32816	32810	
1818	0	32828	32844	
1819	0	32772	32678	
1820	0	32948	32766	
1821	0	32792	32798	
1822	0	32748	32678	
1823	0	32792	32698	
1824	0	32816	32852	
1825	0	32756	32672	
1826	0	32850	32868	
1827	0	32880	32768	
1828	0	32788	32712	
1829	0	32816	32836	
1830	0	32844	32770	
1831	0	32804	32742	
1832	0	32808	32716	
1833	0	32774	32768	
1834	0	32846	32704	
1835	0	32852	32814	
1836	0	32820	32804	
1837	0	32824	32696	
1838	0	32824	32752	
1839	0	32784	32770	
1840	0	32772	32700	
1841	0	32820	32806	
1842	0	32798	32836	
1843	0	32836	32700	
1844	0	32740	32750	
1845	0	32808	32742	
1846	0	32808	32696	
1847	0	32868	32802	
1848	0	32793	32775	
1849	0	32768	32742	
1850	0	32810	32784	
1851	0	32860	32824	
1852	0	32849	32720	
1853	0	32800	32872	
1854	0	32832	32804	
1855	0	32800	32743	
1856	0	32750	32817	
1857	0	32824	32775	
1858	0	32792	32736	
1859	0	32846	32856	
1860	0	32776	32704	
1861	0	32768	32764	
1862	0	32788	32732	
1863	0	32822	32792	
1864	0	32860	32814	
1865	0	32922	32840	
1866	0	32864	32770	
1867	0	32848	32800	
1868	0	32832	32812	
1869	0	32778	32680	
1870	0	32812	32856	
1871	0	32766	32772	
1872	0	32800	32826	
1873	0	32824	32700	
1874	0	32800	32828	
1875	0	32788	32768	
1876	0	32720	32682	
1877	0	32806	32756	
1878	0	32784	32762	
1879	0	32808	32740	
1880	0	32800	32743	
1881	0	32844	32752	
1882	0	32820	32790	
1883	0	32812	32664	
1884	0	32844	32874	
1885	0	32840	32820	
1886	0	32848	32740	
1887	0	32800	32800	
1888	0	32834	32816	
1889	0	32836	32684	
1890	0	32788	32724	
1891	0	32736	32742	
1892	0	32840	32775	
1893	0	32810	32664	
1894	0	32796	32772	
1895	0	32818	32848	
1896	0	32836	32838	
1897	0	32806	32760	
1898	0	32814	32758	
1899	0	32812	32822	
1900	0	32862	32678	
1901	0	32766	32796	
1902	0	32804	32808	
1903	0	32770	32740	
1904	0	32817	32728	
1905	0	32800	32746	
1906	0	32828	32704	
1907	0	32810	32720	
1908	0	32840	32830	
1909	0	32844	32859	
1910	0	32792	32674	
1911	0	32830	32824	
1912	0	32828	32774	
1913	0	32810	32800	
1914	0	32746	32800	
1915	0	32740	32770	
1916	0	32776	32652	
1917	0	32792	32804	
1918	0	32804	32744	
1919	0	32780	32736	
1920	0	32776	32676	
1921	0	32802	32716	
1922	0	32782	32852	
1923	0	32796	32712	
1924	0	32852	32728	
1925	0	32756	32882	
1926	0	32832	32748	
1927	0	32748	32742	
1928	0	32834	32882	
1929	0	32768	32750	
1930	0	32820	32772	
1931	0	32816	32752	
1932	0	32864	32838	
1933	0	32832	32860	
1934	0	32830	32716	
1935	0	32808	32682	
1936	0	32816	32842	
1937	0	32812	32775	
1938	0	32784	32688	
1939	0	32870	32780	
1940	0	32866	32884	
1941	0	32868	32740	
1942	0	32848	32832	
1943	0	32824	32816	
1944	0	32838	32670	
1945	0	32812	32708	
1946	0	32812	32826	
1947	0	32798	32848	
1948	0	32816	32708	
1949	0	32880	32818	
1950	0	32816	32775	
1951	0	32768	32788	
1952	0	32824	32758	
1953	0	32792	32740	
1954	0	32816	32856	
1955	0	32812	32732	
1956	0	32820	32748	
1957	0	32752	32784	
1958	0	32836	32696	
1959	0	32828	32818	
1960	0	32860	32766	
1961	0	32888	32770	
1962	0	32844	32680	
1963	0	32844	32812	
1964	0	32772	32746	
1965	0	32760	32744	
1966	0	32772	32704	
1967	0	32780	32792	
1968	0	32796	32830	
1969	0	32812	32712	
1970	0	32804	32830	
1971	0	32808	32750	
1972	0	32820	32724	
1973	0	32828	32804	
1974	0	32828	32746	
1975	0	32796	32720	
1976	0	32852	32816	
1977	0	32848	32822	
1978	0	32814	32624	
1979	0	32856	32792	
1980	0	32842	32796	
1981	0	32752	32706	
1982	0	32821	32728	
1983	0	32808	32766	
1984	0	32744	32688	
1985	0	32752	32816	
1986	0	32820	32774	
1987	0	32794	32644	
1988	0	32794	32798	
1989	0	32820	32816	
1990	0	32804	32692	
1991	0	32848	32692	
1992	0	32804	32786	
1993	0	32844	32676	
1994	0	32796	32822	
1995	0	32776	32710	
1996	0	32798	32688	
1997	0	32788	32768	
1998	0	32820	32852	
1999	0	32834	32730	
2000	0	32784	32766	
2001	0	32808	32774	
2002	0	32800	32668	
2003	0	32822	32814	
2004	0	32776	32790	
2005	0	32808	32680	
2006	0	32880	32844	
2007	0	32768	32838	
2008	0	32810	32684	
2009	0	32758	32844	
2010	0	32772	32740	
2011	0	32844	32708	
2012	0	32796	32780	
2013	0	32832	32784	
2014	0	32848	32684	
2015	0	32926	32800	
2016	0	32826	32746	
2017	0	32772	32672	
2018	0	32740	32806	
2019	0	32810	32760	
2020	0	32804	32775	
2021	0	32820	32698	
2022	0	32868	32742	
2023	0	32804	32720	
2024	0	32804	32824	
2025	0	32792	32808	
2026	0	32848	32788	
2027	0	32816	32728	
2028	0	32822	32844	
2029	0	32848	32790	
2030	0	32768	32704	
2031	0	32760	32732	
2032	0	32872	32820	
2033	0	32776	32820	
2034	0	32752	32720	
2035	0	32708	32838	
2036	0	32712	32824	
2037	0	32782	32658	
2038	0	32816	32760	
2039	0	32804	32808	
2040	0	32872	32710	
2041	0	32796	32800	
2042	0	32840	32740	
2043	0	32868	32670	
2044	0	32800	32759	
2045	0	32784	32824	
2046	0	32860	32706	
2047	0	32780	32838	
2048	0	32789	32740	
2049	0	32796	32712	
2050	0	32792	32820	
2051	0	32844	32852	
2052	0	32680	32740	
2053	0	32800	32804	
2054	0	32780	32840	
2055	0	32844	32714	
2056	0	32900	32760	
2057	0	32844	32736	
2058	0	32802	32872	
2059	0	32812	32802	
2060	0	32842	32718	
2061	0	32816	32811	
2062	0	32840	32830	
2063	0	32888	32728	
2064	0	32738	32720	
2065	0	32814	32792	
2066	0	32820	32696	
2067	0	32808	32826	
2068	0	32808	32856	
2069	0	32772	32746	
2070	0	32796	32852	
2071	0	32792	32730	
2072	0	32832	32700	
2073	0	32840	32810	
2074	0	32812	32816	
2075	0	32762	32826	
2076	0	32824	32836	
2077	0	32788	32782	
2078	0	32796	32746	
2079	0	32880	32652	
2080	0	32824	32724	
2081	0	32776	32819	
2082	0	32788	32650	
2083	0	32780	32800	
2084	0	32792	32876	
2085	0	32788	32636	
2086	0	32802	32820	
2087	0	32864	32816	
2088	0	32820	32706	
2089	0	32792	32808	
2090	0	32840	32846	
2091	0	32852	32678	
2092	0	32858	32756	
2093	0	32808	32782	
2094	0	32868	32858	
2095	0	32856	32704	
2096	0	32804	32772	
2097	0	32824	32793	
2098	0	32744	32817	
2099	0	32848	32836	
2100	0	32788	32668	
2101	0	32808	32812	
2102	0	32780	32746	
2103	0	32800	32675	
2104	0	32894	32684	
2105	0	32798	32820	
2106	0	32800	32766	
2107	0	32810	32690	
2108	0	32780	32744	
2109	0	32808	32852	
2110	0	32830	32775	
2111	0	32816	32864	
2112	0	32864	32858	
2113	0	32838	32728	
2114	0	32830	32798	
2115	0	32868	32738	
2116	0	32820	32734	
2117	0	32849	32656	
2118	0	32784	32800	
2119	0	32802	32868	
2120	0	32824	32664	
2121	0	32812	32814	
2122	0	32824	32850	
2123	0	32808	32688	
2124	0	32836	32786	
2125	0	32756	32720	
2126	0	32748	32792	
2127	0	32832	32780	
2128	0	32826	32716	
2129	0	32792	32804	
2130	0	32784	32684	
2131	0	32768	32816	
2132	0	32808	32694	
2133	0	32764	32878	
2134	0	32798	32752	
2135	0	32840	32704	
2136	0	32808	32880	
2137	0	32840	32796	
2138	0	32792	32794	
2139	0	32748	32808	
2140	0	32850	32740	
2141	0	32762	32655	
2142	0	32828	32748	
2143	0	32828	32688	
2144	0	32808	32774	
2145	0	32836	32796	
2146	0	32874	32724	
2147	0	32920	32814	
2148	0	32720	32832	
2149	0	32852	32708	
2150	0	32780	32828	
2151	0	32840	32724	
2152	0	32764	32778	
2153	0	32752	32832	
2154	0	32744	32726	
2155	0	32804	32746	
2156	0	32868	32788	
2157	0	32810	32680	
2158	0	32778	32710	
2159	0	32804	32790	
2160	0	32812	32896	
2161	0	32792	32728	
2162	0	32796	32700	
2163	0	32828	32792	
2164	0	32824	32824	
2165	0	32826	32673	
2166	0	32780	32848	
2167	0	32844	32775	
2168	0	32836	32784	
2169	0	32800	32782	
2170	0	32856	32752	
2171	0	32812	32832	
2172	0	32754	32840	
2173	0	32778	32706	
2174	0	32832	32824	
2175	0	32798	32692	
2176	0	32804	32730	
2177	0	32820	32728	
2178	0	32724	32792	
2179	0	32772	32782	
2180	0	32768	32684	
2181	0	32816	32775	
2182	0	32832	32762	
2183	0	32816	32706	
2184	0	32784	32740	
2185	0	32892	32688	
2186	0	32884	32796	
2187	0	32804	32872	
2188	0	32794	32750	
2189	0	32794	32782	
2190	0	32756	32740	
2191	0	32732	32828	
2192	0	32742	32825	
2193	0	32840	32742	
2194	0	32794	32774	
2195	0	32774	32804	
2196	0	32800	32716	
2197	0	32712	32759	
2198	0	32832	32736	
2199	0	32854	32684	
2200	0	32916	32756	
2201	0	32788	32774	
2202	0	32816	32852	
2203	0	32822	32724	
2204	0	32768	32808	
2205	0	32834	32774	
2206	0	32866	32808	
2207	0	32796	32788	
2208	0	32816	32775	
2209	0	32840	32784	
2210	0	32812	32822	
2211	0	32760	32724	
2212	0	32874	32802	
2213	0	32828	32794	
2214	0	32792	32668	
2215	0	32804	32788	
2216	0	32783	32752	
2217	0	32784	32702	
2218	0	32804	32736	
2219	0	32816	32754	
2220	0	32840	32792	
2221	0	32778	32827	
2222	0	32738	32902	
2223	0	32820	32704	
2224	0	32828	32766	
2225	0	32912	32752	
2226	0	32808	32808	
2227	0	32744	32716	
2228	0	32836	32742	
2229	0	32782	32756	
2230	0	32856	32884	
2231	0	32850	32668	
2232	0	32832	32748	
2233	0	32746	32764	
2234	0	32824	32672	
2235	0	32768	32812	
2236	0	32792	32754	
2237	0	32757	32652	
2238	0	32876	32792	
2239	0	32788	32738	
2240	0	32848	32768	
2241	0	32802	32720	
2242	0	32772	32775	
2243	0	32724	32736	
2244	0	32812	32712	
2245	0	32820	32796	
2246	0	32784	32802	
2247	0	32832	32808	
2248	0	32790	32742	
2249	0	32876	32820	
2250	0	32846	32840	
2251	0	32852	32670	
2252	0	32808	32775	
2253	0	32892	32820	
2254	0	32772	32742	
2255	0	32776	32766	
2256	0	32824	32788	
2257	0	32838	32686	
2258	0	32824	32802	
2259	0	32884	32852	
2260	0	32886	32646	
2261	0	32908	32766	
2262	0	32830	32816	
2263	0	32826	32714	
2264	0	32834	32812	
2265	0	32862	32799	
2266	0	32828	32728	
2267	0	32800	32738	
2268	0	32768	32824	
2269	0	32786	32784	
2270	0	32778	32828	
2271	0	32788	32804	
2272	0	32806	32782	
2273	0	32832	32744	
2274	0	32810	32775	
2275	0	32788	32774	
2276	0	32816	32752	
2277	0	32824	32774	
2278	0	32738	32736	
2279	0	32848	32716	
2280	0	32820	32734	
2281	0	32856	32716	
2282	0	32900	32657	
2283	0	32748	32732	
2284	0	32670	32754	
2285	0	32826	32812	
2286	0	32864	32774	
2287	0	32832	32692	
2288	0	32780	32736	
2289	0	32824	32812	
2290	0	32780	32690	
2291	0	32772	32808	
2292	0	32808	32796	
2293	0	32776	32728	
2294	0	32744	32760	
2295	0	32828	32647	
2296	0	32824	32770	
2297	0	32792	32804	
2298	0	32852	32692	
2299	0	32776	32836	
2300	0	32852	32844	
2301	0	32866	32668	
2302	0	32844	32804	
2303	0	32832	32858	
2304	0	32870	32742	
2305	0	32832	32775	
2306	0	32728	32720	
2307	0	32772	32848	
2308	0	32804	32832	
2309	0	32802	32676	
2310	0	32832	32848	
2311	0	32810	32788	
2312	0	32794	32670	
2313	0	32824	32736	
2314	0	32806	32836	
2315	0	32804	32740	
2316	0	32784	32826	
2317	0	32764	32732	
2318	0	32704	32692	
2319	0	32836	32774	
2320	0	32752	32788	
2321	0	32828	32818	
2322	0	32886	32802	
2323	0	32842	32762	
2324	0	32798	32734	
2325	0	32848	32714	
2326	0	32796	32852	
2327	0	32772	32772	
2328	0	32756	32694	
2329	0	32774	32888	
2330	0	32822	32832	
2331	0	32928	32680	
2332	0	32860	32808	
2333	0	32888	32880	
2334	0	32884	32732	
2335	0	32844	32801	
2336	0	32820	32800	
2337	0	32848	32672	
2338	0	32740	32744	
2339	0	32756	32766	
2340	0	32820	32782	
2341	0	32848	32743	
2342	0	32812	32772	
2343	0	32752	32712	
2344	0	32760	32756	
2345	0	32812	32724	
2346	0	32816	32750	
2347	0	32836	32742	
2348	0	32850	32790	
2349	0	32792	32690	
2350	0	32792	32848	
2351	0	32788	32820	
2352	0	32812	32720	
2353	0	32864	32736	
2354	0	32848	32852	
2355	0	32816	32700	
2356	0	32786	32864	
2357	0	32816	32740	
2358	0	32826	32814	
2359	0	32764	32668	
2360	0	32832	32728	
2361	0	32848	32774	
2362	0	32764	32848	
2363	0	32840	32740	
2364	0	32868	32708	
2365	0	32782	32792	
2366	0	32860	32752	
2367	0	32800	32774	
2368	0	32798	32816	
2369	0	32806	32728	
2370	0	32768	32786	
2371	0	32764	32792	
2372	0	32846	32762	
2373	0	32828	32684	
2374	0	32816	32766	
2375	0	32828	32730	
2376	0	32836	32674	
2377	0	32820	32832	
2378	0	32834	32750	
2379	0	32868	32784	
2380	0	32790	32770	
2381	0	32832	32820	
2382	0	32864	32842	
2383	0	32848	32721	
2384	0	32776	32878	
2385	0	32810	32772	
2386	0	32760	32752	
2387	0	32804	32672	
2388	0	32794	32836	
2389	0	32752	32826	
2390	0	32808	32700	
2391	0	32866	32647	
2392	0	32836	32770	
2393	0	32764	32868	
2394	0	32812	32679	
2395	0	32774	32788	
2396	0	32782	32752	
2397	0	32760	32792	
2398	0	32810	32636	
2399	0	32794	32824	
2400	0	32828	32756	
2401	0	32840	32828	
2402	0	32904	32844	
2403	0	32842	32846	
2404	0	32832	32728	
2405	0	32812	32696	
2406	0	32782	32756	
2407	0	32828	32724	
2408	0	32796	32816	
2409	0	32820	32816	
2410	0	32872	32734	
2411	0	32796	32775	
2412	0	32776	32876	
2413	0	32896	32775	
2414	0	32840	32724	
2415	0	32824	32788	
2416	0	32836	32732	
2417	0	32808	32764	
2418	0	32740	32772	
2419	0	32846	32686	
2420	0	32788	32775	
2421	0	32794	32740	
2422	0	32788	32806	
2423	0	32782	32784	
2424	0	32804	32696	
2425	0	32826	32690	
2426	0	32788	32810	
2427	0	32750	32788	
2428	0	32808	32780	
2429	0	32836	32752	
2430	0	32856	32832	
2431	0	32800	32698	
2432	0	32820	32748	
2433	0	32796	32740	
2434	0	32816	32802	
2435	0	32828	32858	
2436	0	32774	32726	
2437	0	32826	32814	
2438	0	32804	32798	
2439	0	32836	32830	
2440	0	32796	32816	
2441	0	32778	32724	
2442	0	32806	32828	
2443	0	32868	32676	
2444	0	32826	32860	
2445	0	32848	32744	
2446	0	32820	32736	
2447	0	32800	32724	
2448	0	32756	32660	
2449	0	32752	32772	
2450	0	32800	32830	
2451	0	32816	32690	
2452	0	32810	32766	
2453	0	32862	32772	
2454	0	32810	32810	
2455	0	32796	32766	
2456	0	32764	32844	
2457	0	32868	32790	
2458	0	32820	32684	
2459	0	32840	32790	
2460	0	32868	32816	
2461	0	32864	32704	
2462	0	32788	32796	
2463	0	32788	32760	
2464	0	32816	32775	
2465	0	32824	32852	
2466	0	32832	32660	
2467	0	32808	32752	
2468	0	32760	32788	
2469	0	32808	32746	
2470	0	32784	32808	
2471	0	32834	32728	
2472	0	32824	32836	
2473	0	32836	32781	
2474	0	32848	32628	
2475	0	32768	32788	
2476	0	32804	32750	
2477	0	32808	32756	
2478	0	32816	32766	
2479	0	32808	32662	
2480	0	32832	32706	
2481	0	32820	32756	
2482	0	32880	32788	
2483	0	32784	32774	
2484	0	32860	32768	
2485	0	32776	32798	
2486	0	32884	32752	
2487	0	32852	32744	
2488	0	32826	32828	
2489	0	32840	32812	
2490	0	32778	32706	
2491	0	32784	32830	
2492	0	32788	32832	
2493	0	32832	32742	
2494	0	32820	32668	
2495	0	32802	32816	
2496	0	32856	32756	
2497	0	32752	32746	
2498	0	32736	32696	
2499	0	32802	32828	
2500	0	32844	32871	
2501	0	32864	32710	
2502	0	32852	32692	
2503	0	32864	32802	
2504	0	32864	32696	
2505	0	32916	32725	
2506	0	32866	32864	
2507	0	32784	32696	
2508	0	32714	32760	
2509	0	32704	32806	
2510	0	32744	32682	
2511	0	32732	32756	
2512	0	32776	32688	
2513	0	32768	32748	
2514	0	32836	32836	
2515	0	32836	32672	
2516	0	32840	32876	
2517	0	32860	32828	
2518	0	32760	32754	
2519	0	32840	32806	
2520	0	32820	32756	
2521	0	32866	32680	
2522	0	32906	32804	
2523	0	32852	32708	
2524	0	32848	32786	
2525	0	32872	32746	
2526	0	32810	32728	
2527	0	32762	32852	
2528	0	32760	32698	
2529	0	32778	32754	
2530	0	32788	32862	
2531	0	32796	32748	
2532	0	32740	32775	
2533	0	32736	32768	
2534	0	32754	32740	
2535	0	32904	32724	
2536	0	32878	32744	
2537	0	32872	32820	
2538	0	32852	32786	
2539	0	32800	32676	
2540	0	32784	32842	
2541	0	32776	32792	
2542	0	32756	32660	
2543	0	32754	32775	
2544	0	32810	32800	
2545	0	32844	32688	
2546	0	32822	32774	
2547	0	32840	32848	
2548	0	32864	32704	
2549	0	32866	32798	
2550	0	32868	32716	
2551	0	32856	32834	
2552	0	32832	32836	
2553	0	32856	32710	
2554	0	32734	32802	
2555	0	32800	32830	
2556	0	32848	32718	
2557	0	32726	32734	
2558	0	32844	32688	
2559	0	32788	32844	
2560	0	32880	32836	
2561	0	32796	32744	
2562	0	32768	32766	
2563	0	32754	32688	
2564	0	32844	32800	
2565	0	32808	32832	
2566	0	32792	32684	
2567	0	32832	32816	
2568	0	32814	32808	
2569	0	32834	32780	
2570	0	32834	32768	
2571	0	32780	32772	
2572	0	32804	32672	
2573	0	32840	32748	
2574	0	32858	32748	
2575	0	32792	32876	
2576	0	32836	32692	
2577	0	32832	32728	
2578	0	32870	32786	
2579	0	32828	32756	
2580	0	32728	32735	
2581	0	32792	32784	
2582	0	32756	32856	
2583	0	32800	32696	
2584	0	32768	32794	
2585	0	32786	32768	
2586	0	32804	32736	
2587	0	32816	32768	
2588	0	32784	32836	
2589	0	32864	32636	
2590	0	32894	32800	
2591	0	32886	32846	
2592	0	32898	32716	
2593	0	32796	32742	
2594	0	32844	32700	
2595	0	32782	32740	
2596	0	32822	32776	
2597	0	32794	32702	
2598	0	32784	32712	
2599	0	32772	32744	
2600	0	32800	32724	
2601	0	32840	32794	
2602	0	32850	32772	
2603	0	32812	32832	
2604	0	32788	32876	
2605	0	32864	32708	
2606	0	32838	32734	
2607	0	32778	32706	
2608	0	32800	32825	
2609	0	32740	32802	
2610	0	32764	32720	
2611	0	32880	32768	
2612	0	32788	32672	
2613	0	32796	32800	
2614	0	32792	32870	
2615	0	32868	32718	
2616	0	32830	32756	
2617	0	32820	32708	
2618	0	32828	32800	
2619	0	32844	32775	
2620	0	32794	32684	
2621	0	32824	32714	
2622	0	32766	32746	
2623	0	32788	32822	
2624	0	32808	32852	
2625	0	32834	32788	
2626	0	32828	32764	
2627	0	32794	32664	
2628	0	32836	32788	
2629	0	32848	32775	
2630	0	32800	32708	
2631	0	32818	32804	
2632	0	32849	32748	
2633	0	32860	32734	
2634	0	32874	32810	
2635	0	32888	32804	
2636	0	32800	32706	
2637	0	32794	32778	
2638	0	32756	32796	
2639	0	32846	32730	
2640	0	32776	32818	
2641	0	32868	32830	
2642	0	32800	32713	
2643	0	32780	32824	
2644	0	32876	32802	
2645	0	32768	32664	
2646	0	32812	32782	
2647	0	32748	32770	
2648	0	32896	32676	
2649	0	32816	32742	
2650	0	32828	32826	
2651	0	32868	32790	
2652	0	32890	32740	
2653	0	32832	32812	
2654	0	32774	32646	
2655	0	32720	32854	
2656	0	32824	32740	
2657	0	32736	32784	
2658	0	32848	32758	
2659	0	32820	32775	
2660	0	32832	32700	
2661	0	32878	32694	
2662	0	32890	32794	
2663	0	32796	32790	
2664	0	32780	32706	
2665	0	32760	32790	
2666	0	32702	32762	
2667	0	32738	32740	
2668	0	32752	32820	
2669	0	32788	32668	
2670	0	32792	32774	
2671	0	32858	32822	
2672	0	32848	32866	
2673	0	32888	32724	
2674	0	32916	32834	
2675	0	32898	32800	
2676	0	32866	32634	
2677	0	32820	32800	
2678	0	32808	32799	
2679	0	32862	32784	
2680	0	32804	32654	
2681	0	32834	32765	
2682	0	32824	32848	
2683	0	32824	32775	
2684	0	32810	32696	
2685	0	32788	32800	
2686	0	32760	32816	
2687	0	32818	32746	
2688	0	32724	32732	
2689	0	32752	32744	
2690	0	32692	32647	
2691	0	32704	32706	
2692	0	32624	32764	
2693	0	32580	32646	
2694	0	32668	32705	
2695	0	32674	32846	
2696	0	32644	32590	
2697	0	32740	32736	
2698	0	32608	32686	
2699	0	32744	32606	
2700	0	32780	32672	
2701	0	32802	32712	
2702	0	32744	32738	
2703	0	32784	32818	
2704	0	32788	32794	
2705	0	32848	32822	
2706	0	32784	32914	
2707	0	32812	32712	
2708	0	32880	32792	
2709	0	32936	32824	
2710	0	32924	32724	
2711	0	32844	32743	
2712	0	32888	32748	
2713	0	32918	32862	
2714	0	32938	32862	
2715	0	33096	32904	
2716	0	33068	32904	
2717	0	33140	33094	
2718	0	33088	33072	
2719	0	33200	32792	
2720	0	33016	32924	
2721	0	32968	32868	
2722	0	32996	32842	
2723	0	32986	32860	
2724	0	32986	32860	
2725	0	32912	32800	
2726	0	32952	32816	
2727	0	32894	32775	
2728	0	32874	32757	
2729	0	32658	32656	
2730	0	32648	32610	
2731	0	32658	32630	
2732	0	32722	32764	
2733	0	32694	32590	
2734	0	32732	32616	
2735	0	32632	32666	
2736	0	32704	32746	
2737	0	32662	32696	
2738	0	32732	32644	
2739	0	32696	32696	
2740	0	32760	32732	
2741	0	32778	32648	
2742	0	32820	32804	
2743	0	32740	32828	
2744	0	32772	32594	
2745	0	32812	32764	
2746	0	32804	32732	
2747	0	32842	32790	
2748	0	32832	32706	
2749	0	32856	32746	
2750	0	32812	32892	
2751	0	32848	32750	
2752	0	32730	32848	
2753	0	32768	32822	
2754	0	32786	32726	
2755	0	32856	32782	
2756	0	32824	32810	
2757	0	32740	32774	
2758	0	32746	32704	
2759	0	32800	32736	
2760	0	32824	32774	
2761	0	32800	32736	
2762	0	32880	32800	
2763	0	32850	32718	
2764	0	32844	32792	
2765	0	32832	32730	
2766	0	32836	32838	
2767	0	32764	32711	
2768	0	32796	32824	
2769	0	32844	32820	
2770	0	32832	32636	
2771	0	32880	32774	
2772	0	32766	32786	
2773	0	32832	32775	
2774	0	32764	32708	
2775	0	32756	32788	
2776	0	32844	32758	
2777	0	32782	32800	
2778	0	32764	32830	
2779	0	32796	32718	
2780	0	32812	32712	
2781	0	32776	32808	
2782	0	32768	32670	
2783	0	32804	32784	
2784	0	32894	32800	
2785	0	32776	32870	
2786	0	32764	32722	
2787	0	32842	32808	
2788	0	32896	32788	
2789	0	32800	32796	
2790	0	32778	32806	
2791	0	32790	32890	
2792	0	32756	32784	
2793	0	32840	32790	
2794	0	32812	32818	
2795	0	32774	32866	
2796	0	32852	32712	
2797	0	32804	32856	
2798	0	32748	32804	
2799	0	32800	32724	
2800	0	32808	32800	
2801	0	32866	32756	
2802	0	32808	32646	
2803	0	32768	32754	
2804	0	32804	32770	
2805	0	32830	32812	
2806	0	32752	32755	
2807	0	32834	32728	
2808	0	32752	32838	
2809	0	32724	32714	
2810	0	32824	32775	
2811	0	32816	32740	
2812	0	32840	32706	
2813	0	32776	32770	
2814	0	32832	32775	
2815	0	32916	32760	
2816	0	32876	32728	
2817	0	32766	32852	
2818	0	32768	32804	
2819	0	32749	32736	
2820	0	32760	32752	
2821	0	32836	32826	
2822	0	32868	32726	
2823	0	32780	32871	
2824	0	32880	32770	
2825	0	32828	32792	
2826	0	32800	32800	
2827	0	32800	32816	
2828	0	32808	32764	
2829	0	32844	32806	
2830	0	32832	32828	
2831	0	32778	32774	
2832	0	32800	32704	
2833	0	32852	32804	
2834	0	32744	32828	
2835	0	32744	32672	
2836	0	32796	32696	
2837	0	32760	32728	
2838	0	32908	32704	
2839	0	32880	32774	
2840	0	32898	32842	
2841	0	32808	32678	
2842	0	32792	32860	
2843	0	32816	32728	
2844	0	32780	32822	
2845	0	32768	32756	
2846	0	32740	32660	
2847	0	32788	32772	
2848	0	32796	32742	
2849	0	32760	32680	
2850	0	32858	32772	
2851	0	32870	32794	
2852	0	32770	32800	
2853	0	32804	32760	
2854	0	32800	32848	
2855	0	32778	32696	
2856	0	32812	32796	
2857	0	32776	32702	
2858	0	32844	32784	
2859	0	32836	32740	
2860	0	32848	32670	
2861	0	32824	32784	
2862	0	32814	32838	
2863	0	32808	32724	
2864	0	32748	32768	
2865	0	32812	32772	
2866	0	32814	32704	
2867	0	32828	32846	
2868	0	32872	32872	
2869	0	32768	32670	
2870	0	32828	32772	
2871	0	32792	32876	
2872	0	32740	32670	
2873	0	32764	32808	
2874	0	32806	32784	
2875	0	32812	32766	
2876	0	32788	32698	
2877	0	32808	32838	
2878	0	32832	32816	
2879	0	32800	32716	
2880	0	32756	32742	
2881	0	32872	32748	
2882	0	32754	32750	
2883	0	32760	32796	
2884	0	32804	32668	
2885	0	32736	32806	
2886	0	32832	32828	
2887	0	32816	32762	
2888	0	32896	32738	
2889	0	32804	32744	
2890	0	32832	32656	
2891	0	32836	32816	
2892	0	32800	32854	
2893	0	32786	32726	
2894	0	32838	32770	
2895	0	32794	32762	
2896	0	32830	32661	
2897	0	32832	32864	
2898	0	32844	32784	
2899	0	32772	32732	
2900	0	32768	32788	
2901	0	32868	32798	
2902	0	32812	32708	
2903	0	32820	32804	
2904	0	32800	32712	
2905	0	32756	32828	
2906	0	32804	32872	
2907	0	32732	32734	
2908	0	32772	32692	
2909	0	32760	32762	
2910	0	32840	32706	
2911	0	32834	32724	
2912	0	32816	32900	
2913	0	32792	32710	
2914	0	32868	32842	
2915	0	32798	32928	
2916	0	32836	32700	
2917	0	32812	32728	
2918	0	32798	32802	
2919	0	32868	32698	
2920	0	32800	32694	
2921	0	32816	32820	
2922	0	32784	32684	
2923	0	32896	32690	
2924	0	32834	32784	
2925	0	32878	32836	
2926	0	32824	32872	
2927	0	32864	32672	
2928	0	32858	32832	
2929	0	32876	32796	
2930	0	32856	32695	
2931	0	32848	32806	
2932	0	32792	32828	
2933	0	32768	32668	
2934	0	32736	32775	
2935	0	32800	32732	
2936	0	32784	32756	
2937	0	32736	32860	
2938	0	32772	32774	
2939	0	32810	32746	
2940	0	32772	32775	
2941	0	32824	32810	
2942	0	32840	32632	
2943	0	32848	32752	
2944	0	32844	32832	
2945	0	32932	32746	
2946	0	32836	32860	
2947	0	32792	32806	
2948	0	32796	32804	
2949	0	32812	32746	
2950	0	32752	32808	
2951	0	32772	32812	
2952	0	32832	32782	
2953	0	32832	32788	
2954	0	32758	32782	
2955	0	32846	32697	
2956	0	32856	32746	
2957	0	32880	32730	
2958	0	32860	32871	
2959	0	32828	32770	
2960	0	32840	32892	
2961	0	32828	32830	
2962	0	32756	32724	
2963	0	32780	32844	
2964	0	32834	32838	
2965	0	32880	32749	
2966	0	32836	32880	
2967	0	32814	32750	
2968	0	32924	32796	
2969	0	32868	32718	
2970	0	32924	32838	
2971	0	32864	32806	
2972	0	32860	32756	
2973	0	32864	32844	
2974	0	32808	32728	
2975	0	32754	32820	
2976	0	32790	32696	
2977	0	32796	32732	
2978	0	32748	32858	
2979	0	32828	32812	
2980	0	32816	32758	
2981	0	32780	32764	
2982	0	32776	32716	
2983	0	32812	32804	
2984	0	32776	32742	
2985	0	32784	32816	
2986	0	32792	32774	
2987	0	32880	32888	
2988	0	32792	32704	
2989	0	32864	32782	
2990	0	32802	32858	
2991	0	32784	32806	
2992	0	32792	32772	
2993	0	32828	32737	
2994	0	32836	32864	
2995	0	32834	32714	
2996	0	32784	32754	
2997	0	32762	32616	
2998	0	32896	32706	
2999	0	32776	32740	
3000	0	32816	32760	
3001	0	32802	32775	
3002	0	32782	32814	
3003	0	32796	32688	
3004	0	32776	32673	
3005	0	32820	32716	
3006	0	32821	32824	
3007	0	32792	32736	
3008	0	32796	32744	
3009	0	32832	32772	
3010	0	32872	32840	
3011	0	32804	32696	
3012	0	32816	32864	
3013	0	32860	32818	
3014	0	32826	32796	
3015	0	32808	32656	
3016	0	32816	32668	
3017	0	32816	32792	
3018	0	32788	32818	
3019	0	32806	32746	
3020	0	32754	32752	
3021	0	32746	32799	
3022	0	32844	32630	
3023	0	32848	32740	
3024	0	32816	32800	
3025	0	32864	32804	
3026	0	32812	32724	
3027	0	32832	32848	
3028	0	32802	32812	
3029	0	32792	32670	
3030	0	32748	32750	
3031	0	32828	32748	
3032	0	32800	32775	
3033	0	32906	32788	
3034	0	32852	32758	
3035	0	32792	32780	
3036	0	32808	32770	
3037	0	32788	32786	
3038	0	32808	32782	
3039	0	32800	32668	
3040	0	32780	32724	
3041	0	32768	32821	
3042	0	32810	32822	
3043	0	32872	32673	
3044	0	32844	32774	
3045	0	32896	32810	
3046	0	32836	32676	
3047	0	32800	32694	
3048	0	32848	32832	
3049	0	32820	32870	
3050	0	32746	32810	
3051	0	32876	32748	
3052	0	32676	32724	
3053	0	32724	32846	
3054	0	32762	32694	
3055	0	32836	32876	
3056	0	32824	32702	
3057	0	32824	32858	
3058	0	32868	32820	
3059	0	32832	32748	
3060	0	32790	32672	
3061	0	32824	32775	
3062	0	32738	32754	
3063	0	32802	32784	
3064	0	32792	32780	
3065	0	32852	32743	
3066	0	32780	32834	
3067	0	32780	32784	
3068	0	32804	32680	
3069	0	32800	32842	
3070	0	32756	32822	
3071	0	32828	32688	
3072	0	32800	32822	
3073	0	32876	32828	
3074	0	32808	32712	
3075	0	32816	32769	
3076	0	32822	32908	
3077	0	32838	32753	
3078	0	32808	32788	
3079	0	32814	32848	
3080	0	32852	32726	
3081	0	32804	32802	
3082	0	32828	32674	
3083	0	32798	32702	
3084	0	32784	32775	
3085	0	32748	32736	
3086	0	32768	32734	
3087	0	32816	32884	
3088	0	32808	32876	
3089	0	32846	32664	
3090	0	32820	32740	
3091	0	32792	32778	
3092	0	32760	32784	
3093	0	32790	32784	
3094	0	32786	32698	
3095	0	32876	32758	
3096	0	32842	32768	
3097	0	32744	32688	
3098	0	32820	32902	
3099	0	32840	32804	
3100	0	32824	32724	
3101	0	32852	32678	
3102	0	32852	32754	
3103	0	32840	32806	
3104	0	32864	32698	
3105	0	32752	32706	
3106	0	32752	32784	
3107	0	32768	32824	
3108	0	32870	32738	
3109	0	32868	32836	
3110	0	32828	32834	
3111	0	32764	32826	
3112	0	32782	32728	
3113	0	32776	32834	
3114	0	32844	32775	
3115	0	32852	32660	
3116	0	32840	32812	
3117	0	32912	32804	
3118	0	32854	32738	
3119	0	32852	32760	
3120	0	32840	32775	
3121	0	32796	32782	
3122	0	32784	32696	
3123	0	32818	32796	
3124	0	32746	32822	
3125	0	32774	32688	
3126	0	32800	32750	
3127	0	32780	32788	
3128	0	32840	32802	
3129	0	32812	32682	
3130	0	32840	32792	
3131	0	32860	32768	
3132	0	32680	32710	
3133	0	32840	32756	
3134	0	32802	32752	
3135	0	32784	32828	
3136	0	32746	32686	
3137	0	32810	32804	
3138	0	32832	32775	
3139	0	32846	32674	
3140	0	32792	32712	
3141	0	32888	32744	
3142	0	32788	32802	
3143	0	32864	32680	
3144	0	32742	32824	
3145	0	32828	32810	
3146	0	32800	32846	
3147	0	32826	32698	
3148	0	32808	32760	
3149	0	32852	32764	
3150	0	32840	32772	
3151	0	32816	32744	
3152	0	32760	32768	
3153	0	32794	32806	
3154	0	32810	32836	
3155	0	32868	32756	
3156	0	32768	32694	
3157	0	32760	32814	
3158	0	32868	32780	
3159	0	32856	32710	
3160	0	32794	32774	
3161	0	32762	32800	
3162	0	32792	32756	
3163	0	32776	32790	
3164	0	32876	32806	
3165	0	32848	32808	
3166	0	32804	32730	
3167	0	32824	32818	
3168	0	32744	32832	
3169	0	32816	32732	
3170	0	32774	32744	
3171	0	32796	32800	
3172	0	32894	32802	
3173	0	32790	32784	
3174	0	32784	32816	
3175	0	32744	32711	
3176	0	32812	32780	
3177	0	32778	32824	
3178	0	32796	32748	
3179	0	32844	32734	
3180	0	32792	32718	
3181	0	32864	32804	
3182	0	32816	32724	
3183	0	32816	32806	
3184	0	32796	32792	
3185	0	32832	32752	
3186	0	32800	32750	
3187	0	32800	32836	
3188	0	32812	32764	
3189	0	32856	32770	
3190	0	32764	32702	
3191	0	32860	32740	
3192	0	32776	32858	
3193	0	32836	32758	
3194	0	32804	32820	
3195	0	32772	32738	
3196	0	32796	32711	
3197	0	32804	32724	
3198	0	32782	32774	
3199	0	32792	32838	
3200	0	32792	32650	
3201	0	32828	32768	
3202	0	32866	32762	
3203	0	32872	32742	
3204	0	32828	32752	
3205	0	32820	32758	
3206	0	32778	32786	
3207	0	32820	32656	
3208	0	32752	32710	
3209	0	32834	32752	
3210	0	32786	32814	
3211	0	32812	32712	
3212	0	32808	32788	
3213	0	32838	32761	
3214	0	32796	32710	
3215	0	32842	32832	
3216	0	32792	32722	
3217	0	32776	32774	
3218	0	32852	32644	
3219	0	32800	32812	
3220	0	32788	32784	
3221	0	32832	32748	
3222	0	32828	32694	
3223	0	32728	32852	
3224	0	32772	32798	
3225	0	32864	32708	
3226	0	32816	32766	
3227	0	32736	32774	
3228	0	32832	32766	
3229	0	32788	32844	
3230	0	32740	32921	
3231	0	32848	32742	
3232	0	32854	32868	
3233	0	32812	32756	
3234	0	32774	32687	
3235	0	32776	32684	
3236	0	32818	32796	
3237	0	32824	32768	
3238	0	32824	32724	
3239	0	32826	32838	
3240	0	32836	32770	
3241	0	32776	32598	
3242	0	32828	32816	
3243	0	32788	32768	
3244	0	32844	32832	
3245	0	32800	32700	
3246	0	32828	32744	
3247	0	32812	32832	
3248	0	32832	32821	
3249	0	32776	32750	
3250	0	32812	32840	
3251	0	32796	32834	
3252	0	32780	32678	
3253	0	32778	32764	
3254	0	32817	32870	
3255	0	32846	32716	
3256	0	32794	32772	
3257	0	32816	32756	
3258	0	32812	32726	
3259	0	32838	32802	
3260	0	32808	32810	
3261	0	32838	32706	
3262	0	32848	32810	
3263	0	32836	32760	
3264	0	32816	32800	
3265	0	32790	32832	
3266	0	32752	32732	
3267	0	32800	32726	
3268	0	32762	32790	
3269	0	32800	32818	
3270	0	32846	32764	
3271	0	32844	32742	
3272	0	32824	32828	
3273	0	32740	32902	
3274	0	32834	32714	
3275	0	32832	32792	
3276	0	32832	32840	
3277	0	32796	32672	
3278	0	32850	32760	
3279	0	32804	32848	
3280	0	32856	32740	
3281	0	32796	32758	
3282	0	32772	32684	
3283	0	32848	32714	
3284	0	32816	32820	
3285	0	32794	32874	
3286	0	32808	32796	
3287	0	32808	32728	
3288	0	32824	32775	
3289	0	32788	32854	
3290	0	32832	32680	
3291	0	32784	32790	
3292	0	32770	32748	
3293	0	32808	32798	
3294	0	32820	32760	
3295	0	32828	32736	
3296	0	32860	32775	
3297	0	32868	32752	
3298	0	32802	32788	
3299	0	32800	32778	
3300	0	32820	32734	
3301	0	32852	32828	
3302	0	32808	32674	
3303	0	32812	32816	
3304	0	32844	32722	
3305	0	32820	32848	
3306	0	32800	32780	
3307	0	32796	32696	
3308	0	32874	32900	
3309	0	32726	32686	
3310	0	32828	32764	
3311	0	32764	32784	
3312	0	32800	32744	
3313	0	32844	32726	
3314	0	32728	32740	
3315	0	32844	32790	
3316	0	32856	32858	
3317	0	32800	32674	
3318	0	32849	32764	
3319	0	32788	32832	
3320	0	32772	32640	
3321	0	32800	32772	
3322	0	32808	32828	
3323	0	32802	32642	
3324	0	32848	32802	
3325	0	32800	32734	
3326	0	32792	32822	
3327	0	32752	32660	
3328	0	32836	32706	
3329	0	32846	32780	
3330	0	32848	32902	
3331	0	32820	32788	
3332	0	32832	32732	
3333	0	32802	32788	
3334	0	32788	32729	
3335	0	32832	32776	
3336	0	32842	32724	
3337	0	32760	32792	
3338	0	32802	32732	
3339	0	32860	32854	
3340	0	32816	32836	
3341	0	32748	32748	
3342	0	32790	32724	
3343	0	32864	32688	
3344	0	32856	32796	
3345	0	32810	32816	
3346	0	32772	32768	
3347	0	32804	32828	
3348	0	32760	32800	
3349	0	32876	32886	
3350	0	32836	32704	
3351	0	32828	32792	
3352	0	32764	32680	
3353	0	32824	32748	
3354	0	32838	32728	
3355	0	32788	32684	
3356	0	32864	32688	
3357	0	32848	32806	
3358	0	32816	32844	
3359	0	32820	32742	
3360	0	32772	32788	
3361	0	32844	32720	
3362	0	32836	32860	
3363	0	32832	32768	
3364	0	32768	32600	
3365	0	32888	32786	
3366	0	32794	32744	
3367	0	32776	32788	
3368	0	32840	32760	
3369	0	32762	32690	
3370	0	32810	32764	
3371	0	32832	32692	
3372	0	32792	32806	
3373	0	32792	32768	
3374	0	32792	32666	
3375	0	32832	32836	
3376	0	32800	32866	
3377	0	32740	32728	
3378	0	32832	32742	
3379	0	32818	32792	
3380	0	32806	32750	
3381	0	32860	32786	
3382	0	32874	32744	
3383	0	32836	32766	
3384	0	32804	32802	
3385	0	32832	32788	
3386	0	32792	32764	
3387	0	32820	32726	
3388	0	32800	32756	
3389	0	32744	32744	
3390	0	32840	32828	
3391	0	32806	32880	
3392	0	32764	32740	
3393	0	32840	32820	
3394	0	32850	32804	
3395	0	32852	32600	
3396	0	32872	32820	
3397	0	32788	32800	
3398	0	32792	32618	
3399	0	32864	32771	
3400	0	32782	32736	
3401	0	32836	32775	
3402	0	32816	32782	
3403	0	32796	32788	
3404	0	32810	32708	
3405	0	32776	32730	
3406	0	32762	32826	
3407	0	32814	32744	
3408	0	32824	32774	
3409	0	32816	32724	
3410	0	32832	32775	
3411	0	32820	32792	
3412	0	32830	32852	
3413	0	32824	32812	
3414	0	32804	32720	
3415	0	32832	32849	
3416	0	32836	32766	
3417	0	32840	32758	
3418	0	32786	32734	
3419	0	32778	32746	
3420	0	32836	32776	
3421	0	32804	32775	
3422	0	32896	32836	
3423	0	32824	32710	
3424	0	32852	32816	
3425	0	32800	32742	
3426	0	32812	32721	
3427	0	32848	32774	
3428	0	32832	32822	
3429	0	32826	32676	
3430	0	32788	32762	
3431	0	32804	32783	
3432	0	32776	32740	
3433	0	32724	32775	
3434	0	32780	32704	
3435	0	32764	32690	
3436	0	32754	32756	
3437	0	32778	32756	
3438	0	32790	32756	
3439	0	32836	32720	
3440	0	32744	32798	
3441	0	32790	32754	
3442	0	32860	32692	
3443	0	32866	32826	
3444	0	32800	32712	
3445	0	32808	32680	
3446	0	32818	32840	
3447	0	32798	32838	
3448	0	32858	32738	
3449	0	32772	32784	
3450	0	32792	32868	
3451	0	32800	32676	
3452	0	32816	32808	
3453	0	32816	32807	
3454	0	32840	32816	
3455	0	32780	32730	
3456	0	32792	32818	
3457	0	32784	32756	
3458	0	32830	32682	
3459	0	32816	32792	
3460	0	32880	32766	
3461	0	32806	32696	
3462	0	32848	32756	
3463	0	32876	32752	
3464	0	32834	32734	
3465	0	32846	32874	
3466	0	32816	32780	
3467	0	32896	32746	
3468	0	32732	32768	
3469	0	32776	32880	
3470	0	32800	32704	
3471	0	32826	32772	
3472	0	32746	32775	
3473	0	32792	32720	
3474	0	32744	32692	
3475	0	32808	32728	
3476	0	32770	32640	
3477	0	32794	32844	
3478	0	32784	32816	
3479	0	32840	32810	
3480	0	32828	32884	
3481	0	32832	32676	
3482	0	32840	32774	
3483	0	32778	32748	
3484	0	32880	32682	
3485	0	32804	32775	
3486	0	32792	32828	
3487	0	32848	32740	
3488	0	32808	32775	
3489	0	32776	32748	
3490	0	32846	32888	
3491	0	32796	32786	
3492	0	32816	32664	
3493	0	32816	32824	
3494	0	32836	32804	
3495	0	32784	32732	
3496	0	32856	32792	
3497	0	32776	32816	
3498	0	32832	32700	
3499	0	32820	32772	
3500	0	32808	32784	
3501	0	32838	32812	
3502	0	32836	32774	
3503	0	32804	32656	
3504	0	32784	32822	
3505	0	32864	32824	
3506	0	32802	32730	
3507	0	32814	32772	
3508	0	32752	32804	
3509	0	32804	32792	
3510	0	32768	32742	
3511	0	32820	32760	
3512	0	32804	32800	
3513	0	32816	32732	
3514	0	32812	32800	
3515	0	32776	32774	
3516	0	32776	32682	
3517	0	32798	32732	
3518	0	32794	32788	
3519	0	32858	32758	
3520	0	32792	32824	
3521	0	32840	32836	
3522	0	32852	32716	
3523	0	32872	32836	
3524	0	32796	32742	
3525	0	32840	32682	
3526	0	32796	32834	
3527	0	32792	32832	
3528	0	32840	32654	
3529	0	32800	32726	
3530	0	32808	32758	
3531	0	32784	32726	
3532	0	32778	32760	
3533	0	32830	32688	
3534	0	32810	32744	
3535	0	32792	32842	
3536	0	32798	32746	
3537	0	32846	32700	
3538	0	32800	32778	
3539	0	32808	32738	
3540	0	32812	32836	
3541	0	32814	32696	
3542	0	32864	32732	
3543	0	32846	32764	
3544	0	32828	32724	
3545	0	32824	32794	
3546	0	32772	32764	
3547	0	32828	32860	
3548	0	32764	32616	
3549	0	32768	32796	
3550	0	32784	32774	
3551	0	32804	32746	
3552	0	32818	32814	
3553	0	32796	32798	
3554	0	32776	32746	
3555	0	32814	32708	
3556	0	32848	32772	
3557	0	32846	32738	
3558	0	32768	32702	
3559	0	32828	32756	
3560	0	32756	32810	
3561	0	32816	32702	
3562	0	32820	32768	
3563	0	32824	32708	
3564	0	32768	32774	
3565	0	32828	32802	
3566	0	32748	32732	
3567	0	32832	32794	
3568	0	32812	32759	
3569	0	32832	32746	
3570	0	32788	32756	
3571	0	32826	32792	
3572	0	32772	32712	
3573	0	32782	32814	
3574	0	32824	32838	
3575	0	32732	32796	
3576	0	32800	32788	
3577	0	32820	32710	
3578	0	32856	32816	
3579	0	32800	32757	
3580	0	32820	32812	
3581	0	32852	32850	
3582	0	32756	32725	
3583	0	32804	32692	
3584	0	32848	32676	
3585	0	32820	32704	
3586	0	32868	32778	
3587	0	32812	32682	
3588	0	32800	32844	
3589	0	32832	32832	
3590	0	32820	32698	
3591	0	32800	32832	
3592	0	32872	32796	
3593	0	32788	32657	
3594	0	32738	32764	
3595	0	32841	32788	
3596	0	32770	32690	
3597	0	32778	32871	
3598	0	32814	32798	
3599	0	32804	32736	
3600	0	32772	32788	
3601	0	32768	32788	
3602	0	32828	32724	
3603	0	32784	32714	
3604	0	32852	32712	
3605	0	32808	32774	
3606	0	32872	32782	
3607	0	32810	32816	
3608	0	32780	32772	
3609	0	32788	32854	
3610	0	32836	32824	
3611	0	32774	32722	
3612	0	32758	32810	
3613	0	32780	32822	
3614	0	32792	32678	
3615	0	32796	32858	
3616	0	32796	32800	
3617	0	32768	32768	
3618	0	32848	32808	
3619	0	32808	32700	
3620	0	32816	32788	
3621	0	32816	32822	
3622	0	32862	32856	
3623	0	32772	32716	
3624	0	32858	32824	
3625	0	32856	32796	
3626	0	32808	32728	
3627	0	32836	32708	
3628	0	32728	32756	
3629	0	32848	32704	
3630	0	32848	32800	
3631	0	32858	32802	
3632	0	32832	32946	
3633	0	32888	32836	
3634	0	32855	32782	
3635	0	32836	32730	
3636	0	32748	32744	
3637	0	32800	32616	
3638	0	32852	32818	
3639	0	32796	32876	
3640	0	32720	32712	
3641	0	32760	32792	
3642	0	32760	32716	
3643	0	32828	32761	
3644	0	32764	32764	
3645	0	32780	32832	
3646	0	32804	32622	
3647	0	32692	32702	
3648	0	32704	32732	
3649	0	32680	32650	
3650	0	32632	32666	
3651	0	32644	32768	
3652	0	32740	32639	
3653	0	32748	32684	
3654	0	32674	32698	
3655	0	32654	32736	
3656	0	32716	32775	
3657	0	32728	32678	
3658	0	32692	32716	
3659	0	32820	32750	
3660	0	32780	32768	
3661	0	32852	32742	
3662	0	32852	32726	
3663	0	32776	32806	
3664	0	32868	32840	
3665	0	32904	32682	
3666	0	32832	32754	
3667	0	32796	32772	
3668	0	32868	32788	
3669	0	32776	32822	
3670	0	32888	32866	
3671	0	32942	32788	
3672	0	32948	32878	
3673	0	33092	32922	
3674	0	33084	32958	
3675	0	33088	32996	
3676	0	33128	32977	
3677	0	33040	33040	
3678	0	33052	32960	
3679	0	32976	32856	
3680	0	32936	32916	
3681	0	32988	32828	
3682	0	32964	32746	
3683	0	32896	32816	
3684	0	32960	32676	
3685	0	32802	32802	
3686	0	32734	32772	
3687	0	32714	32624	
3688	0	32688	32638	
3689	0	32658	32615	
3690	0	32688	32686	
3691	0	32692	32800	
3692	0	32696	32665	
3693	0	32728	32720	
3694	0	32752	32612	
3695	0	32756	32720	
3696	0	32792	32782	
3697	0	32732	32716	
3698	0	32836	32764	
3699	0	32740	32808	
3700	0	32808	32744	
3701	0	32754	32722	
3702	0	32756	32646	
3703	0	32772	32786	
3704	0	32816	32790	
3705	0	32712	32792	
3706	0	32780	32846	
3707	0	32840	32695	
3708	0	32812	32766	
3709	0	32764	32686	
3710	0	32808	32758	
3711	0	32888	32794	
3712	0	32800	32736	
3713	0	32826	32794	
3714	0	32800	32844	
3715	0	32876	32702	
3716	0	32774	32804	
3717	0	32840	32740	
3718	0	32776	32788	
3719	0	32776	32756	
3720	0	32846	32760	
3721	0	32852	32774	
3722	0	32808	32702	
3723	0	32824	32760	
3724	0	32832	32788	
3725	0	32804	32792	
3726	0	32780	32688	
3727	0	32788	32808	
3728	0	32792	32768	
3729	0	32828	32704	
3730	0	32824	32822	
3731	0	32804	32796	
3732	0	32762	32774	
3733	0	32756	32744	
3734	0	32764	32799	
3735	0	32780	32792	
3736	0	32840	32822	
3737	0	32864	32752	
3738	0	32772	32644	
3739	0	32834	32702	
3740	0	32796	32754	
3741	0	32872	32856	
3742	0	32790	32828	
3743	0	32840	32764	
3744	0	32834	32828	
3745	0	32866	32808	
3746	0	32792	32648	
3747	0	32802	32784	
3748	0	32744	32742	
3749	0	32780	32766	
3750	0	32758	32808	
3751	0	32816	32760	
3752	0	32808	32704	
3753	0	32828	32740	
3754	0	32866	32836	
3755	0	32804	32740	
3756	0	32792	32740	
3757	0	32888	32710	
3758	0	32784	32706	
3759	0	32840	32710	
3760	0	32812	32778	
3761	0	32864	32810	
3762	0	32772	32784	
3763	0	32820	32820	
3764	0	32804	32672	
3765	0	32800	32806	
3766	0	32852	32870	
3767	0	32840	32684	
3768	0	32808	32832	
3769	0	32840	32806	
3770	0	32784	32686	
3771	0	32772	32774	
3772	0	32820	32760	
3773	0	32748	32726	
3774	0	32814	32846	
3775	0	32832	32808	
3776	0	32828	32710	
3777	0	32852	32832	
3778	0	32798	32828	
3779	0	32808	32698	
3780	0	32788	32758	
3781	0	32764	32736	
3782	0	32746	32710	
3783	0	32770	32716	
3784	0	32832	32726	
3785	0	32832	32762	
3786	0	32796	32862	
3787	0	32828	32750	
3788	0	32852	32636	
3789	0	32792	32784	
3790	0	32840	32848	
3791	0	32810	32788	
3792	0	32784	32724	
3793	0	32816	32806	
3794	0	32836	32774	
3795	0	32782	32775	
3796	0	32792	32800	
3797	0	32812	32728	
3798	0	32812	32710	
3799	0	32772	32750	
3800	0	32792	32702	
3801	0	32788	32844	
3802	0	32810	32676	
3803	0	32824	32906	
3804	0	32828	32726	
3805	0	32844	32702	
3806	0	32796	32734	
3807	0	32824	32784	
3808	0	32788	32720	
3809	0	32728	32806	
3810	0	32778	32772	
3811	0	32792	32824	
3812	0	32810	32724	
3813	0	32738	32864	
3814	0	32896	32746	
3815	0	32864	32738	
3816	0	32828	32775	
3817	0	32840	32774	
3818	0	32814	32839	
3819	0	32732	32644	
3820	0	32784	32788	
3821	0	32860	32666	
3822	0	32896	32704	
3823	0	32808	32768	
3824	0	32828	32743	
3825	0	32858	32742	
3826	0	32792	32792	
3827	0	32824	32820	
3828	0	32836	32760	
3829	0	32784	32796	
3830	0	32820	32764	
3831	0	32768	32636	
3832	0	32828	32718	
3833	0	32776	32708	
3834	0	32856	32888	
3835	0	32788	32760	
3836	0	32792	32838	
3837	0	32808	32796	
3838	0	32792	32712	
3839	0	32824	32892	
3840	0	32868	32752	
3841	0	32788	32682	
3842	0	32800	32804	
3843	0	32828	32794	
3844	0	32826	32636	
3845	0	32876	32816	
3846	0	32786	32826	
3847	0	32820	32782	
3848	0	32800	32830	
3849	0	32784	32775	
3850	0	32814	32812	
3851	0	32708	32662	
3852	0	32796	32756	
3853	0	32786	32756	
3854	0	32754	32834	
3855	0	32822	32676	
3856	0	32780	32814	
3857	0	32748	32856	
3858	0	32764	32760	
3859	0	32836	32772	
3860	0	32784	32757	
3861	0	32784	32752	
3862	0	32852	32682	
3863	0	32832	32790	
3864	0	32820	32800	
3865	0	32908	32714	
3866	0	32756	32800	
3867	0	32776	32794	
3868	0	32824	32746	
3869	0	32856	32842	
3870	0	32872	32894	
3871	0	32776	32664	
3872	0	32732	32820	
3873	0	32760	32748	
3874	0	32820	32676	
3875	0	32780	32790	
3876	0	32862	32713	
3877	0	32820	32852	
3878	0	32848	32664	
3879	0	32792	32764	
3880	0	32772	32878	
3881	0	32788	32632	
3882	0	32780	32798	
3883	0	32856	32832	
3884	0	32822	32742	
3885	0	32784	32890	
3886	0	32736	32754	
3887	0	32782	32774	
3888	0	32784	32792	
3889	0	32842	32832	
3890	0	32788	32740	
3891	0	32852	32816	
3892	0	32800	32744	
3893	0	32760	32720	
3894	0	32804	32788	
3895	0	32858	32798	
3896	0	32872	32836	
3897	0	32748	32760	
3898	0	32776	32699	
3899	0	32750	32758	
3900	0	32824	32676	
3901	0	32820	32804	
3902	0	32844	32727	
3903	0	32860	32672	
3904	0	32874	32866	
3905	0	32828	32774	
3906	0	32828	32722	
3907	0	32776	32774	
3908	0	32796	32716	
3909	0	32808	32824	
3910	0	32848	32878	
3911	0	32822	32772	
3912	0	32808	32724	
3913	0	32726	32784	
3914	0	32804	32852	
3915	0	32832	32894	
3916	0	32800	32706	
3917	0	32832	32775	
3918	0	32842	32750	
3919	0	32832	32788	
3920	0	32888	32774	
3921	0	32852	32742	
3922	0	32808	32762	
3923	0	32844	32748	
3924	0	32836	32748	
3925	0	32824	32775	
3926	0	32824	32794	
3927	0	32828	32896	
3928	0	32852	32806	
3929	0	32788	32754	
3930	0	32816	32808	
3931	0	32784	32754	
3932	0	32752	32874	
3933	0	32792	32842	
3934	0	32864	32688	
3935	0	32856	32792	
3936	0	32794	32716	
3937	0	32792	32814	
3938	0	32828	32796	
3939	0	32784	32728	
3940	0	32806	32728	
3941	0	32846	32704	
3942	0	32796	32894	
3943	0	32828	32772	
3944	0	32800	32830	
3945	0	32820	32764	
3946	0	32826	32852	
3947	0	32704	32764	
3948	0	32808	32746	
3949	0	32848	32756	
3950	0	32810	32810	
3951	0	32764	32752	
3952	0	32778	32782	
3953	0	32832	32750	
3954	0	32800	32692	
3955	0	32820	32729	
3956	0	32812	32752	
3957	0	32812	32844	
3958	0	32784	32836	
3959	0	32768	32736	
3960	0	32812	32810	
3961	0	32796	32796	
3962	0	32780	32678	
3963	0	32844	32700	
3964	0	32764	32762	
3965	0	32816	32808	
3966	0	32780	32716	
3967	0	32780	32752	
3968	0	32778	32770	
3969	0	32840	32775	
3970	0	32794	32704	
3971	0	32832	32742	
3972	0	32840	32782	
3973	0	32860	32746	
3974	0	32852	32858	
3975	0	32740	32750	
3976	0	32728	32746	
3977	0	32816	32810	
3978	0	32778	32838	
3979	0	32792	32788	
3980	0	32844	32784	
3981	0	32826	32647	
3982	0	32880	32840	
3983	0	32792	32840	
3984	0	32758	32666	
3985	0	32796	32734	
3986	0	32896	32644	
3987	0	32794	32775	
3988	0	32849	32822	
3989	0	32768	32734	
3990	0	32756	32870	
3991	0	32810	32768	
3992	0	32864	32862	
3993	0	32800	32800	
3994	0	32852	32712	
3995	0	32752	32784	
3996	0	32808	32690	
3997	0	32752	32826	
3998	0	32822	32826	
3999	0	32796	32746	
4000	0	32776	32740	
4001	0	32848	32760	
4002	0	32842	32796	
4003	0	32852	32684	
4004	0	32810	32762	
4005	0	32788	32872	
4006	0	32814	32734	
4007	0	32808	32754	
4008	0	32764	32804	
4009	0	32796	32775	
4010	0	32836	32750	
4011	0	32804	32820	
4012	0	32738	32796	
4013	0	32840	32700	
4014	0	32832	32774	
4015	0	32806	32820	
4016	0	32816	32684	
4017	0	32774	32708	
4018	0	32776	32734	
4019	0	32852	32784	
4020	0	32842	32812	
4021	0	32812	32814	
4022	0	32800	32700	
4023	0	32784	32800	
4024	0	32794	32790	
4025	0	32744	32668	
4026	0	32828	32724	
4027	0	32808	32823	
4028	0	32794	32764	
4029	0	32796	32830	
4030	0	32852	32708	
4031	0	32792	32846	
4032	0	32872	32804	
4033	0	32812	32812	
4034	0	32820	32808	
4035	0	32856	32844	
4036	0	32824	32670	
4037	0	32818	32810	
4038	0	32792	32824	
4039	0	32876	32684	
4040	0	32806	32775	
4041	0	32812	32762	
4042	0	32800	32680	
4043	0	32852	32775	
4044	0	32842	32748	
4045	0	32852	32678	
4046	0	32780	32788	
4047	0	32784	32836	
4048	0	32812	32768	
4049	0	32770	32776	
4050	0	32824	32856	
4051	0	32796	32724	
4052	0	32840	32816	
4053	0	32828	32810	
4054	0	32844	32760	
4055	0	32832	32775	
4056	0	32796	32724	
4057	0	32804	32742	
4058	0	32788	32750	
4059	0	32848	32718	
4060	0	32796	32806	
4061	0	32802	32714	
4062	0	32846	32652	
4063	0	32776	32792	
4064	0	32822	32764	
4065	0	32838	32756	
4066	0	32840	32748	
4067	0	32784	32732	
4068	0	32828	32754	
4069	0	32758	32768	
4070	0	32760	32756	
4071	0	32780	32772	
4072	0	32778	32744	
4073	0	32796	32690	
4074	0	32820	32800	
4075	0	32840	32708	
4076	0	32802	32842	
4077	0	32882	32740	
4078	0	32818	32748	
4079	0	32778	32762	
4080	0	32806	32756	
4081	0	32800	32664	
4082	0	32788	32756	
4083	0	32808	32822	
4084	0	32832	32758	
4085	0	32828	32822	
4086	0	32852	32844	
4087	0	32800	32788	
4088	0	32792	32800	
4089	0	32840	32806	
4090	0	32840	32708	
4091	0	32768	32682	
4092	0	32776	32840	
4093	0	32816	32708	
4094	0	32840	32752	
4095	0	32792	32718	
4096	0	32780	32742	
4097	0	32826	32812	
4098	0	32808	32806	
4099	0	32784	32782	
4100	0	32840	32804	
4101	0	32808	32736	
4102	0	32812	32754	
4103	0	32834	32734	
4104	0	32900	32776	
4105	0	32774	32782	
4106	0	32788	32852	
4107	0	32800	32720	
4108	0	32776	32673	
4109	0	32826	32756	
4110	0	32772	32812	
4111	0	32748	32740	
4112	0	32782	32772	
4113	0	32786	32782	
4114	0	32816	32692	
4115	0	32784	32820	
4116	0	32840	32692	
4117	0	32788	32848	
4118	0	32872	32850	
4119	0	32760	32678	
4120	0	32780	32806	
4121	0	32780	32844	
4122	0	32812	32688	
4123	0	32816	32792	
4124	0	32856	32816	
4125	0	32796	32697	
4126	0	32772	32708	
4127	0	32774	32754	
4128	0	32800	32748	
4129	0	32816	32728	
4130	0	32804	32806	
4131	0	32800	32704	
4132	0	32862	32775	
4133	0	32778	32900	
4134	0	32840	32744	
4135	0	32844	32820	
4136	0	32806	32694	
4137	0	32888	32834	
4138	0	32780	32686	
4139	0	32800	32858	
4140	0	32736	32822	
4141	0	32744	32668	
4142	0	32850	32858	
4143	0	32864	32712	
4144	0	32852	32734	
4145	0	32780	32648	
4146	0	32834	32792	
4147	0	32760	32784	
4148	0	32740	32704	
4149	0	32852	32842	
4150	0	32802	32823	
4151	0	32784	32644	
4152	0	32792	32759	
4153	0	32816	32762	
4154	0	32810	32775	
4155	0	32816	32808	
4156	0	32792	32796	
4157	0	32844	32772	
4158	0	32834	32804	
4159	0	32828	32768	
4160	0	32824	32710	
4161	0	32824	32864	
4162	0	32832	32830	
4163	0	32800	32711	
4164	0	32828	32718	
4165	0	32790	32748	
4166	0	32804	32775	
4167	0	32816	32804	
4168	0	32772	32858	
4169	0	32820	32684	
4170	0	32720	32826	
4171	0	32744	32800	
4172	0	32780	32720	
4173	0	32824	32870	
4174	0	32880	32740	
4175	0	32852	32752	
4176	0	32806	32724	
4177	0	32760	32794	
4178	0	32816	32648	
4179	0	32882	32775	
4180	0	32754	32844	
4181	0	32862	32710	
4182	0	32848	32824	
4183	0	32852	32753	
4184	0	32788	32700	
4185	0	32820	32812	
4186	0	32810	32824	
4187	0	32824	32696	
4188	0	32768	32814	
4189	0	32792	32888	
4190	0	32808	32676	
4191	0	32764	32800	
4192	0	32788	32784	
4193	0	32882	32796	
4194	0	32928	32760	
4195	0	32784	32816	
4196	0	32804	32772	
4197	0	32776	32724	
4198	0	32772	32744	
4199	0	32806	32808	
4200	0	32814	32742	
4201	0	32780	32784	
4202	0	32800	32748	
4203	0	32826	32624	
4204	0	32842	32854	
4205	0	32860	32852	
4206	0	32826	32708	
4207	0	32780	32784	
4208	0	32820	32834	
4209	0	32798	32690	
4210	0	32788	32794	
4211	0	32804	32804	
4212	0	32806	32858	
4213	0	32816	32770	
4214	0	32812	32764	
4215	0	32832	32742	
4216	0	32784	32772	
4217	0	32788	32772	
4218	0	32820	32794	
4219	0	32790	32812	
4220	0	32800	32806	
4221	0	32832	32708	
4222	0	32802	32742	
4223	0	32804	32898	
4224	0	32848	32684	
4225	0	32842	32768	
4226	0	32820	32760	
4227	0	32798	32708	
4228	0	32814	32780	
4229	0	32788	32824	
4230	0	32832	32702	
4231	0	32804	32786	
4232	0	32812	32788	
4233	0	32752	32788	
4234	0	32832	32852	
4235	0	32785	32868	
4236	0	32852	32698	
4237	0	32800	32798	
4238	0	32820	32808	
4239	0	32836	32775	
4240	0	32772	32830	
4241	0	32784	32704	
4242	0	32832	32838	
4243	0	32874	32686	
4244	0	32872	32784	
4245	0	32836	32844	
4246	0	32800	32688	
4247	0	32808	32738	
4248	0	32768	32796	
4249	0	32798	32676	
4250	0	32794	32756	
4251	0	32776	32824	
4252	0	32798	32734	
4253	0	32872	32832	
4254	0	32780	32860	
4255	0	32792	32772	
4256	0	32836	32708	
4257	0	32744	32716	
4258	0	32800	32790	
4259	0	32844	32812	
4260	0	32824	32708	
4261	0	32856	32775	
4262	0	32816	32752	
4263	0	32816	32742	
4264	0	32844	32772	
4265	0	32830	32880	
4266	0	32792	32672	
4267	0	32812	32796	
4268	0	32816	32828	
4269	0	32804	32834	
4270	0	32786	32716	
4271	0	32780	32856	
4272	0	32808	32792	
4273	0	32804	32714	
4274	0	32796	32800	
4275	0	32850	32838	
4276	0	32784	32650	
4277	0	32828	32798	
4278	0	32818	32772	
4279	0	32762	32708	
4280	0	32778	32775	
4281	0	32750	32812	
4282	0	32804	32760	
4283	0	32860	32750	
4284	0	32820	32800	
4285	0	32780	32872	
4286	0	32864	32750	
4287	0	32824	32770	
4288	0	32810	32828	
4289	0	32810	32728	
4290	0	32816	32768	
4291	0	32760	32842	
4292	0	32742	32840	
4293	0	32832	32732	
4294	0	32892	32808	
4295	0	32934	32844	
4296	0	32804	32736	
4297	0	32794	32706	
4298	0	32748	32754	
4299	0	32798	32762	
4300	0	32794	32652	
4301	0	32840	32800	
4302	0	32798	32788	
4303	0	32880	32688	
4304	0	32820	32792	
4305	0	32794	32804	
4306	0	32744	32738	
4307	0	32800	32759	
4308	0	32840	32756	
4309	0	32824	32854	
4310	0	32856	32781	
4311	0	32816	32716	
4312	0	32728	32692	
4313	0	32780	32794	
4314	0	32820	32800	
4315	0	32704	32756	
4316	0	32816	32844	
4317	0	32844	32836	
4318	0	32864	32646	
4319	0	32860	32734	
4320	0	32766	32680	
4321	0	32832	32852	
4322	0	32778	32819	
4323	0	32848	32714	
4324	0	32888	32752	
4325	0	32828	32756	
4326	0	32885	32702	
4327	0	32820	32836	
4328	0	32894	32750	
4329	0	32804	32775	
4330	0	32788	32768	
4331	0	32784	32756	
4332	0	32748	32836	
4333	0	32756	32796	
4334	0	32800	32736	
4335	0	32772	32784	
4336	0	32804	32828	
4337	0	32792	32754	
4338	0	32784	32775	
4339	0	32860	32662	
4340	0	32868	32792	
4341	0	32836	32794	
4342	0	32770	32680	
4343	0	32780	32772	
4344	0	32876	32762	
4345	0	32840	32792	
4346	0	32756	32720	
4347	0	32832	32798	
4348	0	32842	32848	
4349	0	32834	32746	
4350	0	32846	32682	
4351	0	32848	32756	
4352	0	32812	32664	
4353	0	32778	32783	
4354	0	32784	32736	
4355	0	32802	32830	
4356	0	32824	32770	
4357	0	32880	32788	
4358	0	32816	32740	
4359	0	32884	32696	
4360	0	32752	32796	
4361	0	32804	32864	
4362	0	32872	32660	
4363	0	32792	32836	
4364	0	32816	32756	
4365	0	32798	32742	
4366	0	32802	32824	
4367	0	32850	32832	
4368	0	32788	32742	
4369	0	32824	32792	
4370	0	32812	32830	
4371	0	32802	32895	
4372	0	32828	32846	
4373	0	32772	32712	
4374	0	32752	32734	
4375	0	32736	32674	
4376	0	32772	32792	
4377	0	32776	32726	
4378	0	32810	32856	
4379	0	32800	32840	
4380	0	32784	32648	
4381	0	32788	32830	
4382	0	32888	32680	
4383	0	32804	32806	
4384	0	32872	32806	
4385	0	32884	32775	
4386	0	32808	32808	
4387	0	32792	32678	
4388	0	32804	32794	
4389	0	32844	32824	
4390	0	32862	32688	
4391	0	32808	32754	
4392	0	32856	32842	
4393	0	32752	32694	
4394	0	32832	32775	
4395	0	32736	32785	
4396	0	32806	32684	
4397	0	32804	32720	
4398	0	32724	32794	
4399	0	32836	32736	
4400	0	32784	32704	
4401	0	32780	32764	
4402	0	32848	32820	
4403	0	32858	32748	
4404	0	32798	32670	
4405	0	32820	32818	
4406	0	32818	32804	
4407	0	32864	32772	
4408	0	32812	32814	
4409	0	32800	32832	
4410	0	32866	32772	
4411	0	32888	32740	
4412	0	32830	32718	
4413	0	32740	32804	
4414	0	32754	32708	
4415	0	32780	32756	
4416	0	32808	32764	
4417	0	32804	32760	
4418	0	32840	32702	
4419	0	32794	32704	
4420	0	32780	32834	
4421	0	32808	32854	
4422	0	32830	32706	
4423	0	32896	32812	
4424	0	32824	32678	
4425	0	32808	32768	
4426	0	32768	32856	
4427	0	32808	32702	
4428	0	32846	32784	
4429	0	32820	32868	
4430	0	32828	32689	
4431	0	32740	32798	
4432	0	32816	32820	
4433	0	32790	32784	
4434	0	32772	32808	
4435	0	32832	32708	
4436	0	32810	32800	
4437	0	32776	32740	
4438	0	32828	32836	
4439	0	32816	32788	
4440	0	32840	32710	
4441	0	32804	32756	
4442	0	32772	32796	
4443	0	32820	32810	
4444	0	32800	32814	
4445	0	32840	32718	
4446	0	32824	32768	
4447	0	32808	32842	
4448	0	32836	32670	
4449	0	32806	32756	
4450	0	32834	32792	
4451	0	32840	32720	
4452	0	32740	32828	
4453	0	32788	32832	
4454	0	32780	32794	
4455	0	32812	32826	
4456	0	32832	32678	
4457	0	32788	32744	
4458	0	32872	32724	
4459	0	32786	32688	
4460	0	32856	32742	
4461	0	32828	32760	
4462	0	32784	32690	
4463	0	32826	32868	
4464	0	32848	32732	
4465	0	32802	32740	
4466	0	32816	32732	
4467	0	32828	32830	
4468	0	32812	32684	
4469	0	32810	32802	
4470	0	32812	32812	
4471	0	32764	32840	
4472	0	32772	32880	
4473	0	32796	32690	
4474	0	32832	32744	
4475	0	32824	32796	
4476	0	32856	32764	
4477	0	32800	32774	
4478	0	32858	32830	
4479	0	32832	32754	
4480	0	32812	32712	
4481	0	32886	32768	
4482	0	32852	32794	
4483	0	32838	32804	
4484	0	32740	32718	
4485	0	32828	32830	
4486	0	32816	32670	
4487	0	32804	32792	
4488	0	32808	32866	
4489	0	32810	32734	
4490	0	32804	32764	
4491	0	32844	32806	
4492	0	32852	32844	
4493	0	32788	32784	
4494	0	32840	32711	
4495	0	32820	32767	
4496	0	32852	32782	
4497	0	32788	32682	
4498	0	32760	32822	
4499	0	32764	32775	
4500	0	32762	32650	
4501	0	32796	32764	
4502	0	32736	32710	
4503	0	32608	32704	
4504	0	32698	32728	
4505	0	32688	32552	
4506	0	32706	32768	
4507	0	32676	32744	
4508	0	32676	32748	
4509	0	32708	32668	
4510	0	32700	32638	
4511	0	32736	32644	
4512	0	32680	32742	
4513	0	32730	32722	
4514	0	32730	32768	
4515	0	32764	32850	
4516	0	32820	32688	
4517	0	32800	32840	
4518	0	32848	32858	
4519	0	32804	32752	
4520	0	32808	32764	
4521	0	32880	32796	
4522	0	32816	32775	
4523	0	32880	32740	
4524	0	32822	32772	
4525	0	32924	32718	
4526	0	32964	32750	
4527	0	33008	32912	
4528	0	33040	32856	
4529	0	33076	33020	
4530	0	33132	33095	
4531	0	33120	32914	
4532	0	33166	32956	
4533	0	32960	32974	
4534	0	32929	32874	
4535	0	32918	32857	
4536	0	32932	32840	
4537	0	32900	32784	
4538	0	32966	32868	
4539	0	32808	32732	
4540	0	32784	32812	
4541	0	32776	32706	
4542	0	32680	32604	
4543	0	32708	32654	
4544	0	32762	32694	
4545	0	32704	32647	
4546	0	32706	32724	
4547	0	32756	32708	
4548	0	32692	32743	
4549	0	32732	32690	
4550	0	32696	32688	
4551	0	32772	32768	
4552	0	32808	32836	
4553	0	32728	32716	
4554	0	32738	32807	
4555	0	32752	32618	
4556	0	32800	32760	
4557	0	32780	32850	
4558	0	32836	32734	
4559	0	32806	32780	
4560	0	32792	32756	
4561	0	32762	32812	
4562	0	32848	32775	
4563	0	32872	32648	
4564	0	32804	32820	
4565	0	32828	32852	
4566	0	32828	32684	
4567	0	32822	32834	
4568	0	32792	32766	
4569	0	32764	32848	
4570	0	32740	32796	
4571	0	32778	32678	
4572	0	32788	32802	
4573	0	32754	32775	
4574	0	32836	32816	
4575	0	32888	32816	
4576	0	32820	32642	
4577	0	32808	32774	
4578	0	32828	32695	
4579	0	32800	32826	
4580	0	32788	32808	
4581	0	32816	32866	
4582	0	32824	32770	
4583	0	32872	32672	
4584	0	32824	32724	
4585	0	32802	32790	
4586	0	32830	32696	
4587	0	32818	32728	
4588	0	32796	32722	
4589	0	32804	32798	
4590	0	32782	32780	
4591	0	32782	32704	
4592	0	32808	32836	
4593	0	32862	32750	
4594	0	32808	32790	
4595	0	32816	32763	
4596	0	32850	32788	
4597	0	32832	32772	
4598	0	32814	32790	
4599	0	32880	32780	
4600	0	32806	32826	
4601	0	32812	32700	
4602	0	32800	32768	
4603	0	32832	32720	
4604	0	32792	32716	
4605	0	32820	32730	
4606	0	32848	32696	
4607	0	32824	32812	
4608	0	32854	32788	
4609	0	32788	32732	
4610	0	32824	32740	
4611	0	32808	32712	
4612	0	32812	32820	
4613	0	32802	32822	
4614	0	32810	32732	
4615	0	32816	32740	
4616	0	32804	32806	
4617	0	32770	32772	
4618	0	32794	32704	
4619	0	32728	32784	
4620	0	32768	32724	
4621	0	32818	32784	
4622	0	32810	32758	
4623	0	32848	32706	
4624	0	32876	32772	
4625	0	32772	32772	
4626	0	32832	32704	
4627	0	32790	32788	
4628	0	32754	32680	
4629	0	32800	32874	
4630	0	32872	32830	
4631	0	32848	32632	
4632	0	32802	32860	
4633	0	32772	32834	
4634	0	32836	32692	
4635	0	32800	32844	
4636	0	32796	32804	
4637	0	32836	32692	
4638	0	32808	32816	
4639	0	32820	32818	
4640	0	32828	32696	
4641	0	32828	32802	
4642	0	32748	32796	
4643	0	32852	32724	
4644	0	32772	32839	
4645	0	32842	32736	
4646	0	32860	32842	
4647	0	32790	32680	
4648	0	32808	32724	
4649	0	32758	32796	
4650	0	32832	32700	
4651	0	32864	32828	
4652	0	32772	32772	
4653	0	32784	32708	
4654	0	32838	32800	
4655	0	32872	32807	
4656	0	32848	32756	
4657	0	32760	32746	
4658	0	32752	32736	
4659	0	32768	32782	
4660	0	32808	32774	
4661	0	32810	32674	
4662	0	32836	32900	
4663	0	32816	32744	
4664	0	32852	32694	
4665	0	32800	32786	
4666	0	32800	32820	
4667	0	32876	32712	
4668	0	32846	32798	
4669	0	32792	32858	
4670	0	32804	32752	
4671	0	32788	32750	
4672	0	32832	32738	
4673	0	32770	32796	
4674	0	32764	32864	
4675	0	32800	32714	
4676	0	32896	32792	
4677	0	32804	32748	
4678	0	32812	32680	
4679	0	32796	32858	
4680	0	32794	32848	
4681	0	32788	32712	
4682	0	32796	32688	
4683	0	32880	32800	
4684	0	32808	32686	
4685	0	32792	32742	
4686	0	32780	32820	
4687	0	32764	32674	
4688	0	32812	32818	
4689	0	32814	32728	
4690	0	32866	32868	
4691	0	32804	32760	
4692	0	32844	32828	
4693	0	32728	32676	
4694	0	32786	32748	
4695	0	32896	32766	
4696	0	32840	32775	
4697	0	32800	32748	
4698	0	32864	32826	
4699	0	32796	32730	
4700	0	32764	32712	
4701	0	32776	32762	
4702	0	32736	32720	
4703	0	32864	32732	
4704	0	32820	32764	
4705	0	32792	32702	
4706	0	32864	32775	
4707	0	32812	32892	
4708	0	32790	32660	
4709	0	32780	32824	
4710	0	32788	32844	
4711	0	32872	32754	
4712	0	32788	32775	
4713	0	32786	32800	
4714	0	32788	32716	
4715	0	32836	32766	
4716	0	32874	32724	
4717	0	32788	32792	
4718	0	32740	32822	
4719	0	32840	32698	
4720	0	32824	32834	
4721	0	32784	32832	
4722	0	32788	32636	
4723	0	32860	32796	
4724	0	32752	32810	
4725	0	32834	32764	
4726	0	32816	32700	
4727	0	32816	32856	
4728	0	32864	32796	
4729	0	32792	32644	
4730	0	32782	32866	
4731	0	32796	32864	
4732	0	32804	32686	
4733	0	32822	32804	
4734	0	32824	32806	
4735	0	32780	32714	
4736	0	32800	32804	
4737	0	32792	32804	
4738	0	32840	32740	
4739	0	32872	32798	
4740	0	32860	32676	
4741	0	32802	32728	
4742	0	32832	32766	
4743	0	32832	32752	
4744	0	32840	32812	
4745	0	32832	32722	
4746	0	32814	32798	
4747	0	32768	32868	
4748	0	32816	32664	
4749	0	32802	32814	
4750	0	32844	32768	
4751	0	32696	32814	
4752	0	32822	32804	
4753	0	32808	32678	
4754	0	32848	32753	
4755	0	32868	32694	
4756	0	32806	32800	
4757	0	32792	32832	
4758	0	32816	32700	
4759	0	32836	32806	
4760	0	32854	32732	
4761	0	32808	32840	
4762	0	32848	32801	
4763	0	32816	32664	
4764	0	32846	32826	
4765	0	32868	32760	
4766	0	32876	32800	
4767	0	32872	32808	
4768	0	32844	32724	
4769	0	32748	32810	
4770	0	32886	32748	
4771	0	32816	32775	
4772	0	32824	32887	
4773	0	32776	32700	
4774	0	32832	32792	
4775	0	32796	32698	
4776	0	32916	32764	
4777	0	32800	32820	
4778	0	32920	32702	
4779	0	32796	32804	
4780	0	32792	32740	
4781	0	32832	32792	
4782	0	32836	32890	
4783	0	32848	32724	
4784	0	32752	32768	
4785	0	32804	32807	
4786	0	32764	32754	
4787	0	32832	32768	
4788	0	32868	32820	
4789	0	32884	32682	
4790	0	32786	32786	
4791	0	32834	32794	
4792	0	32788	32768	
4793	0	32752	32812	
4794	0	32820	32746	
4795	0	32808	32736	
4796	0	32796	32762	
4797	0	32784	32832	
4798	0	32780	32840	
4799	0	32848	32788	
4800	0	32774	32790	
4801	0	32832	32748	
4802	0	32820	32826	
4803	0	32792	32760	
4804	0	32760	32752	
4805	0	32764	32798	
4806	0	32784	32732	
4807	0	32740	32720	
4808	0	32788	32624	
4809	0	32834	32732	
4810	0	32852	32796	
4811	0	32876	32866	
4812	0	32838	32752	
4813	0	32850	32836	
4814	0	32768	32853	
4815	0	32782	32720	
4816	0	32778	32738	
4817	0	32740	32680	
4818	0	32764	32796	
4819	0	32796	32712	
4820	0	32880	32842	
4821	0	32830	32842	
4822	0	32928	32800	
4823	0	32792	32808	
4824	0	32824	32756	
4825	0	32824	32742	
4826	0	32776	32816	
4827	0	32808	32774	
4828	0	32830	32764	
4829	0	32800	32706	
4830	0	32744	32812	
4831	0	32740	32864	
4832	0	32856	32640	
4833	0	32788	32774	
4834	0	32888	32804	
4835	0	32800	32654	
4836	0	32812	32738	
4837	0	32812	32832	
4838	0	32704	32704	
4839	0	32754	32800	
4840	0	32772	32788	
4841	0	32800	32752	
4842	0	32812	32712	
4843	0	32828	32742	
4844	0	32872	32809	
4845	0	32798	32828	
4846	0	32864	32708	
4847	0	32794	32768	
4848	0	32808	32880	
4849	0	32768	32696	
4850	0	32832	32754	
4851	0	32866	32720	
4852	0	32846	32808	
4853	0	32784	32810	
4854	0	32800	32682	
4855	0	32778	32800	
4856	0	32768	32652	
4857	0	32884	32784	
4858	0	32840	32804	
4859	0	32828	32708	
4860	0	32750	32780	
4861	0	32812	32820	
4862	0	32836	32684	
4863	0	32776	32840	
4864	0	32838	32764	
4865	0	32868	32628	
4866	0	32792	32828	
4867	0	32812	32732	
4868	0	32864	32782	
4869	0	32780	32792	
4870	0	32780	32736	
4871	0	32800	32782	
4872	0	32768	32852	
4873	0	32840	32775	
4874	0	32832	32704	
4875	0	32864	32734	
4876	0	32796	32770	
4877	0	32824	32760	
4878	0	32788	32762	
4879	0	32824	32800	
4880	0	32816	32812	
4881	0	32800	32740	
4882	0	32848	32752	
4883	0	32832	32807	
4884	0	32800	32690	
4885	0	32840	32774	
4886	0	32826	32862	
4887	0	32776	32728	
4888	0	32776	32810	
4889	0	32760	32810	
4890	0	32832	32720	
4891	0	32822	32782	
4892	0	32808	32792	
4893	0	32724	32832	
4894	0	32780	32775	
4895	0	32764	32816	
4896	0	32820	32670	
4897	0	32776	32762	
4898	0	32834	32775	
4899	0	32868	32692	
4900	0	32768	32760	
4901	0	32816	32775	
4902	0	32856	32775	
4903	0	32830	32784	
4904	0	32836	32666	
4905	0	32812	32759	
4906	0	32848	32738	
4907	0	32794	32802	
4908	0	32832	32796	
4909	0	32844	32736	
4910	0	32810	32840	
4911	0	32830	32750	
4912	0	32796	32718	
4913	0	32858	32806	
4914	0	32784	32736	
4915	0	32796	32732	
4916	0	32764	32774	
4917	0	32772	32748	
4918	0	32800	32844	
4919	0	32820	32762	
4920	0	32798	32684	
4921	0	32824	32775	
4922	0	32828	32746	
4923	0	32896	32696	
4924	0	32752	32799	
4925	0	32792	32674	
4926	0	32792	32814	
4927	0	32752	32816	
4928	0	32818	32694	
4929	0	32804	32694	
4930	0	32784	32830	
4931	0	32800	32806	
4932	0	32786	32788	
4933	0	32812	32740	
4934	0	32816	32752	
4935	0	32900	32728	
4936	0	32756	32776	
4937	0	32744	32784	
4938	0	32844	32686	
4939	0	32804	32734	
4940	0	32804	32680	
4941	0	32808	32828	
4942	0	32796	32756	
4943	0	32784	32734	
4944	0	32780	32818	
4945	0	32832	32766	
4946	0	32838	32676	
4947	0	32788	32740	
4948	0	32822	32756	
4949	0	32780	32764	
4950	0	32736	32678	
4951	0	32828	32740	
4952	0	32844	32827	
4953	0	32844	32832	
4954	0	32826	32760	
4955	0	32834	32658	
4956	0	32784	32842	
4957	0	32798	32704	
4958	0	32826	32716	
4959	0	32864	32784	
4960	0	32782	32775	
4961	0	32760	32694	
4962	0	32836	32804	
4963	0	32842	32816	
4964	0	32832	32692	
4965	0	32804	32808	
4966	0	32756	32754	
4967	0	32796	32708	
4968	0	32832	32750	
4969	0	32792	32760	
4970	0	32810	32672	
4971	0	32756	32772	
4972	0	32828	32792	
4973	0	32786	32658	
4974	0	32824	32804	
4975	0	32804	32826	
4976	0	32880	32740	
4977	0	32808	32810	
4978	0	32800	32816	
4979	0	32778	32732	
4980	0	32754	32775	
4981	0	32828	32775	
4982	0	32852	32814	
4983	0	32832	32768	
4984	0	32844	32696	
4985	0	32820	32848	
4986	0	32832	32870	
4987	0	32820	32746	
4988	0	32868	32814	
4989	0	32832	32792	
4990	0	32768	32694	
4991	0	32800	32748	
4992	0	32796	32740	
4993	0	32724	32670	
4994	0	32840	32808	
4995	0	32836	32864	
4996	0	32776	32770	
4997	0	32800	32724	
4998	0	32824	32734	
4999	0	32778	32774	
5000	0	32828	32812	
5001	0	32800	32711	
5002	0	32860	32802	
5003	0	32826	32775	
5004	0	32790	32704	
5005	0	32816	32788	
5006	0	32780	32838	
5007	0	32834	32816	
5008	0	32780	32742	
5009	0	32788	32620	
5010	0	32884	32832	
5011	0	32776	32796	
5012	0	32768	32732	
5013	0	32744	32816	
5014	0	32882	32818	
5015	0	32792	32788	
5016	0	32782	32766	
5017	0	32828	32794	
5018	0	32792	32744	
5019	0	32848	32768	
5020	0	32862	32836	
5021	0	32816	32760	
5022	0	32800	32808	
5023	0	32868	32752	
5024	0	32814	32836	
5025	0	32841	32836	
5026	0	32874	32720	
5027	0	32866	32748	
5028	0	32828	32708	
5029	0	32798	32846	
5030	0	32806	32812	
5031	0	32880	32828	
5032	0	32740	32726	
5033	0	32836	32872	
5034	0	32768	32764	
5035	0	32788	32676	
5036	0	32784	32766	
5037	0	32884	32836	
5038	0	32820	32672	
5039	0	32746	32804	
5040	0	32792	32736	
5041	0	32842	32816	
5042	0	32768	32794	
5043	0	32808	32693	
5044	0	32852	32764	
5045	0	32892	32844	
5046	0	32780	32748	
5047	0	32776	32694	
5048	0	32812	32660	
5049	0	32832	32806	
5050	0	32802	32762	
5051	0	32838	32744	
5052	0	32864	32772	
5053	0	32794	32766	
5054	0	32772	32810	
5055	0	32786	32860	
5056	0	32792	32698	
5057	0	32840	32740	
5058	0	32704	32800	
5059	0	32786	32684	
5060	0	32800	32740	
5061	0	32828	32838	
5062	0	32832	32732	
5063	0	32828	32816	
5064	0	32808	32790	
5065	0	32816	32750	
5066	0	32812	32786	
5067	0	32769	32788	
5068	0	32804	32720	
5069	0	32868	32775	
5070	0	32684	32800	
5071	0	32812	32722	
5072	0	32708	32898	
5073	0	32800	32850	
5074	0	32816	32736	
5075	0	32816	32812	
5076	0	32788	32728	
5077	0	32820	32704	
5078	0	32784	32808	
5079	0	32864	32776	
5080	0	32820	32686	
5081	0	32768	32784	
5082	0	32832	32830	
5083	0	32800	32756	
5084	0	32852	32816	
5085	0	32812	32852	
5086	0	32816	32708	
5087	0	32808	32826	
5088	0	32804	32828	
5089	0	32792	32704	
5090	0	32796	32732	
5091	0	32832	32776	
5092	0	32816	32744	
5093	0	32816	32789	
5094	0	32780	32798	
5095	0	32756	32768	
5096	0	32816	32812	
5097	0	32808	32820	
5098	0	32836	32716	
5099	0	32760	32822	
5100	0	32800	32828	
5101	0	32840	32724	
5102	0	32824	32750	
5103	0	32822	32858	
5104	0	32828	32692	
5105	0	32850	32758	
5106	0	32752	32740	
5107	0	32840	32740	
5108	0	32838	32684	
5109	0	32818	32718	
5110	0	32788	32740	
5111	0	32824	32862	
5112	0	32752	32862	
5113	0	32804	32722	
5114	0	32792	32810	
5115	0	32798	32804	
5116	0	32752	32774	
5117	0	32796	32802	
5118	0	32862	32788	
5119	0	32820	32836	
5120	0	32800	32780	
5121	0	32816	32720	
5122	0	32824	32752	
5123	0	32840	32766	
5124	0	32852	32786	
5125	0	32768	32696	
5126	0	32768	32684	
5127	0	32826	32838	
5128	0	32792	32764	
5129	0	32822	32940	
5130	0	32864	32844	
5131	0	32788	32668	
5132	0	32800	32828	
5133	0	32784	32694	
5134	0	32808	32840	
5135	0	32832	32722	
5136	0	32780	32822	
5137	0	32804	32852	
5138	0	32784	32772	
5139	0	32886	32804	
5140	0	32844	32782	
5141	0	32752	32768	
5142	0	32786	32668	
5143	0	32808	32732	
5144	0	32824	32700	
5145	0	32820	32736	
5146	0	32804	32807	
5147	0	32812	32716	
5148	0	32800	32716	
5149	0	32840	32824	
5150	0	32804	32788	
5151	0	32790	32824	
5152	0	32750	32820	
5153	0	32842	32822	
5154	0	32868	32856	
5155	0	32804	32774	
5156	0	32802	32762	
5157	0	32824	32800	
5158	0	32824	32674	
5159	0	32800	32748	
5160	0	32770	32832	
5161	0	32848	32856	
5162	0	32817	32744	
5163	0	32800	32680	
5164	0	32846	32768	
5165	0	32752	32790	
5166	0	32764	32692	
5167	0	32828	32814	
5168	0	32840	32790	
5169	0	32836	32750	
5170	0	32840	32814	
5171	0	32780	32728	
5172	0	32756	32800	
5173	0	32788	32740	
5174	0	32826	32786	
5175	0	32800	32656	
5176	0	32780	32886	
5177	0	32828	32800	
5178	0	32804	32716	
5179	0	32790	32798	
5180	0	32794	32744	
5181	0	32860	32688	
5182	0	32816	32775	
5183	0	32872	32822	
5184	0	32848	32760	
5185	0	32776	32794	
5186	0	32812	32794	
5187	0	32800	32840	
5188	0	32840	32752	
5189	0	32844	32724	
5190	0	32776	32724	
5191	0	32772	32734	
5192	0	32804	32776	
5193	0	32784	32688	
5194	0	32802	32775	
5195	0	32796	32740	
5196	0	32764	32736	
5197	0	32756	32800	
5198	0	32812	32796	
5199	0	32852	32704	
5200	0	32852	32846	
5201	0	32828	32764	
5202	0	32830	32696	
5203	0	32824	32742	
5204	0	32800	32784	
5205	0	32784	32700	
5206	0	32866	32788	
5207	0	32884	32854	
5208	0	32792	32730	
5209	0	32808	32824	
5210	0	32808	32793	
5211	0	32796	32740	
5212	0	32796	32870	
5213	0	32808	32788	
5214	0	32776	32708	
5215	0	32788	32844	
5216	0	32808	32774	
5217	0	32764	32732	
5218	0	32812	32788	
5219	0	32798	32880	
5220	0	32836	32738	
5221	0	32764	32824	
5222	0	32808	32778	
5223	0	32784	32775	
5224	0	32812	32775	
5225	0	32856	32727	
5226	0	32764	32752	
5227	0	32816	32844	
5228	0	32832	32636	
5229	0	32796	32748	
5230	0	32788	32847	
5231	0	32836	32680	
5232	0	32728	32824	
5233	0	32800	32784	
5234	0	32828	32756	
5235	0	32826	32848	
5236	0	32836	32792	
5237	0	32772	32740	
5238	0	32816	32684	
5239	0	32904	32812	
5240	0	32746	32812	
5241	0	32820	32716	
5242	0	32816	32784	
5243	0	32820	32708	
5244	0	32782	32772	
5245	0	32872	32752	
5246	0	32792	32810	
5247	0	32832	32732	
5248	0	32788	32804	
5249	0	32756	32828	
5250	0	32768	32770	
5251	0	32872	32694	
5252	0	32840	32806	
5253	0	32818	32786	
5254	0	32852	32760	
5255	0	32800	32812	
5256	0	32804	32775	
5257	0	32768	32820	
5258	0	32858	32696	
5259	0	32844	32834	
5260	0	32872	32802	
5261	0	32836	32800	
5262	0	32784	32700	
5263	0	32774	32752	
5264	0	32792	32804	
5265	0	32849	32724	
5266	0	32780	32760	
5267	0	32792	32799	
5268	0	32800	32716	
5269	0	32808	32724	
5270	0	32800	32868	
5271	0	32804	32792	
5272	0	32780	32724	
5273	0	32834	32678	
5274	0	32764	32806	
5275	0	32878	32852	
5276	0	32810	32672	
5277	0	32862	32838	
5278	0	32820	32802	
5279	0	32826	32687	
5280	0	32774	32864	
5281	0	32844	32740	
5282	0	32832	32768	
5283	0	32872	32772	
5284	0	32828	32740	
5285	0	32792	32801	
5286	0	32752	32746	
5287	0	32808	32764	
5288	0	32764	32816	
5289	0	32808	32684	
5290	0	32852	32788	
5291	0	32828	32728	
5292	0	32824	32818	
5293	0	32786	32696	
5294	0	32856	32728	
5295	0	32776	32768	
5296	0	32824	32692	
5297	0	32816	32810	
5298	0	32844	32824	
5299	0	32832	32740	
5300	0	32862	32680	
5301	0	32772	32766	
5302	0	32788	32784	
5303	0	32804	32676	
5304	0	32800	32790	
5305	0	32824	32756	
5306	0	32830	32876	
5307	0	32830	32824	
5308	0	32740	32876	
5309	0	32770	32782	
5310	0	32872	32762	
5311	0	32804	32752	
5312	0	32842	32856	
5313	0	32836	32728	
5314	0	32766	32828	
5315	0	32844	32688	
5316	0	32880	32814	
5317	0	32784	32670	
5318	0	32782	32756	
5319	0	32802	32837	
5320	0	32838	32710	
5321	0	32784	32794	
5322	0	32834	32748	
5323	0	32844	32812	
5324	0	32798	32848	
5325	0	32844	32692	
5326	0	32834	32822	
5327	0	32856	32732	
5328	0	32788	32796	
5329	0	32768	32748	
5330	0	32764	32670	
5331	0	32764	32800	
5332	0	32768	32824	
5333	0	32804	32804	
5334	0	32850	32775	
5335	0	32884	32824	
5336	0	32792	32672	
5337	0	32782	32810	
5338	0	32784	32802	
5339	0	32796	32744	
5340	0	32828	32720	
5341	0	32760	32712	
5342	0	32814	32760	
5343	0	32808	32670	
5344	0	32768	32768	
5345	0	32832	32644	
5346	0	32832	32804	
5347	0	32810	32732	
5348	0	32780	32698	
5349	0	32816	32740	
5350	0	32772	32784	
5351	0	32806	32688	
5352	0	32862	32832	
5353	0	32766	32654	
5354	0	32756	32832	
5355	0	32784	32744	
5356	0	32742	32740	
5357	0	32840	32748	
5358	0	32816	32696	
5359	0	32828	32698	
5360	0	32814	32772	
5361	0	32824	32728	
5362	0	32786	32728	
5363	0	32872	32702	
5364	0	32796	32732	
5365	0	32796	32692	
5366	0	32796	32754	
5367	0	32764	32770	
5368	0	32818	32766	
5369	0	32784	32775	
5370	0	32878	32844	
5371	0	32820	32792	
5372	0	32804	32766	
5373	0	32854	32730	
5374	0	32824	32782	
5375	0	32864	32686	
5376	0	32780	32754	
5377	0	32798	32718	
5378	0	32784	32775	
5379	0	32832	32796	
5380	0	32784	32736	
5381	0	32850	32830	
5382	0	32784	32770	
5383	0	32856	32750	
5384	0	32828	32700	
5385	0	32864	32764	
5386	0	32834	32816	
5387	0	32802	32874	
5388	0	32792	32864	
5389	0	32784	32744	
5390	0	32772	32830	
5391	0	32864	32754	
5392	0	32864	32848	
5393	0	32736	32818	
5394	0	32824	32647	
5395	0	32824	32824	
5396	0	32848	32775	
5397	0	32736	32752	
5398	0	32832	32838	
5399	0	32848	32762	
5400	0	32784	32678	
5401	0	32804	32760	
5402	0	32836	32704	
5403	0	32844	32820	
5404	0	32856	32782	
5405	0	32906	32808	
5406	0	32816	32816	
5407	0	32816	32704	
5408	0	32804	32770	
5409	0	32804	32740	
5410	0	32800	32756	
5411	0	32832	32740	
5412	0	32824	32832	
5413	0	32780	32834	
5414	0	32784	32700	
5415	0	32796	32784	
5416	0	32804	32710	
5417	0	32776	32808	
5418	0	32764	32775	
5419	0	32814	32804	
5420	0	32816	32818	
5421	0	32848	32794	
5422	0	32824	32800	
5423	0	32868	32682	
5424	0	32856	32730	
5425	0	32802	32684	
5426	0	32752	32822	
5427	0	32782	32826	
5428	0	32852	32832	
5429	0	32814	32864	
5430	0	32780	32720	
5431	0	32742	32744	
5432	0	32848	32712	
5433	0	32844	32758	
5434	0	32800	32744	
5435	0	32764	32810	
5436	0	32830	32818	
5437	0	32810	32800	
5438	0	32834	32796	
5439	0	32800	32806	
5440	0	32784	32796	
5441	0	32836	32772	
5442	0	32880	32862	
5443	0	32780	32718	
5444	0	32848	32798	
5445	0	32804	32712	
5446	0	32824	32850	
5447	0	32808	32750	
5448	0	32808	32903	
5449	0	32816	32780	
5450	0	32828	32762	
5451	0	32816	32668	
5452	0	32776	32764	
5453	0	32760	32720	
5454	0	32816	32798	
5455	0	32838	32718	
5456	0	32798	32708	
5457	0	32824	32676	
5458	0	32816	32736	
5459	0	32796	32760	
5460	0	32748	32784	
5461	0	32806	32702	
5462	0	32796	32792	
5463	0	32824	32692	
5464	0	32812	32708	
5465	0	32864	32720	
5466	0	32908	32720	
5467	0	32800	32654	
5468	0	32864	32775	
5469	0	32864	32748	
5470	0	32782	32808	
5471	0	32772	32784	
5472	0	32816	32792	
5473	0	32826	32784	
5474	0	32806	32740	
5475	0	32804	32728	
5476	0	32810	32856	
5477	0	32736	32732	
5478	0	32904	32768	
5479	0	32828	32678	
5480	0	32772	32820	
5481	0	32792	32808	
5482	0	32808	32714	
5483	0	32830	32798	
5484	0	32870	32720	
5485	0	32804	32850	
5486	0	32788	32694	
5487	0	32780	32778	
5488	0	32788	32754	
5489	0	32852	32782	
5490	0	32820	32792	
5491	0	32792	32756	
5492	0	32824	32764	
5493	0	32768	32800	
5494	0	32808	32662	
5495	0	32848	32724	
5496	0	32768	32692	
5497	0	32848	32802	
5498	0	32836	32726	
5499	0	32812	32764	
5500	0	32744	32710	
5501	0	32820	32734	
5502	0	32840	32722	
5503	0	32812	32804	
5504	0	32832	32720	
5505	0	32790	32842	
5506	0	32872	32788	
5507	0	32734	32748	
5508	0	32828	32738	
5509	0	32808	32820	
5510	0	32762	32644	
5511	0	32826	32682	
5512	0	32776	32682	
5513	0	32810	32790	
5514	0	32766	32708	
5515	0	32776	32818	
5516	0	32800	32694	
5517	0	32856	32768	
5518	0	32830	32650	
5519	0	32816	32778	
5520	0	32768	32746	
5521	0	32834	32775	
5522	0	32868	32654	
5523	0	32836	32780	
5524	0	32812	32774	
5525	0	32768	32708	
5526	0	32806	32700	
5527	0	32924	32744	
5528	0	32744	32692	
5529	0	32776	32808	
5530	0	32868	32754	
5531	0	32834	32838	
5532	0	32808	32680	
5533	0	32792	32834	
5534	0	32804	32854	
5535	0	32760	32670	
5536	0	32804	32824	
5537	0	32884	32746	
5538	0	32840	32710	
5539	0	32856	32782	
5540	0	32816	32680	
5541	0	32824	32824	
5542	0	32788	32766	
5543	0	32818	32712	
5544	0	32772	32718	
5545	0	32868	32740	
5546	0	32836	32806	
5547	0	32802	32804	
5548	0	32850	32752	
5549	0	32806	32798	
5550	0	32824	32750	
5551	0	32852	32748	
5552	0	32884	32775	
5553	0	32872	32842	
5554	0	32828	32714	
5555	0	32780	32720	
5556	0	32776	32788	
5557	0	32780	32710	
5558	0	32816	32736	
5559	0	32828	32692	
5560	0	32816	32696	
5561	0	32804	32822	
5562	0	32800	32728	
5563	0	32784	32860	
5564	0	32840	32788	
5565	0	32800	32758	
5566	0	32852	32740	
5567	0	32840	32860	
5568	0	32778	32704	
5569	0	32804	32848	
5570	0	32698	32798	
5571	0	32756	32738	
5572	0	32744	32788	
5573	0	32804	32764	
5574	0	32810	32870	
5575	0	32808	32810	
5576	0	32816	32792	
5577	0	32778	32742	
5578	0	32766	32738	
5579	0	32814	32800	
5580	0	32804	32812	
5581	0	32812	32786	
5582	0	32836	32774	
5583	0	32780	32756	
5584	0	32856	32734	
5585	0	32820	32758	
5586	0	32786	32778	
5587	0	32832	32784	
5588	0	32772	32871	
5589	0	32808	32768	
5590	0	32886	32788	
5591	0	32840	32772	
5592	0	32856	32756	
5593	0	32868	32696	
5594	0	32772	32772	
5595	0	32796	32748	
5596	0	32768	32828	
5597	0	32770	32814	
5598	0	32832	32694	
5599	0	32796	32764	
5600	0	32838	32664	
5601	0	32820	32742	
5602	0	32858	32754	
5603	0	32820	32878	
5604	0	32790	32775	
5605	0	32840	32762	
5606	0	32836	32720	
5607	0	32908	32692	
5608	0	32746	32796	
5609	0	32788	32684	
5610	0	32824	32730	
5611	0	32828	32748	
5612	0	32900	32828	
5613	0	32842	32838	
5614	0	32820	32728	
5615	0	32821	32802	
5616	0	32784	32742	
5617	0	32892	32800	
5618	0	32848	32858	
5619	0	32820	32780	
5620	0	32748	32678	
5621	0	32840	32686	
5622	0	32740	32608	
5623	0	32746	32696	
5624	0	32792	32692	
5625	0	32720	32796	
5626	0	32700	32636	
5627	0	32668	32682	
5628	0	32722	32624	
5629	0	32650	32734	
5630	0	32768	32736	
5631	0	32753	32768	
5632	0	32632	32656	
5633	0	32672	32676	
5634	0	32650	32636	
5635	0	32696	32766	
5636	0	32760	32612	
5637	0	32672	32732	
5638	0	32784	32688	
5639	0	32832	32824	
5640	0	32864	32772	
5641	0	32800	32730	
5642	0	32826	32820	
5643	0	32852	32652	
5644	0	32852	32794	
5645	0	32784	32672	
5646	0	32788	32794	
5647	0	32832	32736	
5648	0	32896	32718	
5649	0	32916	32714	
5650	0	33060	32824	
5651	0	33020	32916	
5652	0	33108	33018	
5653	0	33104	32964	
5654	0	33120	32974	
5655	0	33152	32946	
5656	0	33064	32984	
5657	0	33056	32984	
5658	0	32956	32874	
5659	0	32958	32832	
5660	0	33050	32736	
5661	0	32888	32842	
5662	0	32984	32734	
5663	0	32868	32760	
5664	0	32776	32692	
5665	0	32718	32604	
5666	0	32660	32632	
5667	0	32648	32592	
5668	0	32708	32644	
5669	0	32680	32702	
5670	0	32664	32650	
5671	0	32718	32740	
5672	0	32724	32680	
5673	0	32714	32664	
5674	0	32744	32680	
5675	0	32734	32712	
5676	0	32708	32746	
5677	0	32768	32798	
5678	0	32732	32764	
5679	0	32780	32816	
5680	0	32732	32666	
5681	0	32720	32720	
5682	0	32808	32746	
5683	0	32856	32774	
5684	0	32808	32806	
5685	0	32816	32816	
5686	0	32856	32774	
5687	0	32816	32804	
5688	0	32864	32760	
5689	0	32848	32744	
5690	0	32792	32794	
5691	0	32804	32704	
5692	0	32748	32760	
5693	0	32794	32744	
5694	0	32792	32884	
5695	0	32828	32830	
5696	0	32800	32680	
5697	0	32844	32770	
5698	0	32872	32684	
5699	0	32832	32868	
5700	0	32788	32696	
5701	0	32776	32748	
5702	0	32780	32826	
5703	0	32804	32694	
5704	0	32792	32820	
5705	0	32840	32704	
5706	0	32864	32775	
5707	0	32816	32688	
5708	0	32832	32740	
5709	0	32854	32726	
5710	0	32810	32775	
5711	0	32812	32852	
5712	0	32852	32774	
5713	0	32740	32758	
5714	0	32786	32838	
5715	0	32792	32734	
5716	0	32720	32752	
5717	0	32792	32716	
5718	0	32762	32892	
5719	0	32820	32840	
5720	0	32816	32704	
5721	0	32840	32848	
5722	0	32812	32700	
5723	0	32744	32754	
5724	0	32802	32666	
5725	0	32844	32732	
5726	0	32800	32766	
5727	0	32808	32724	
5728	0	32816	32774	
5729	0	32816	32668	
5730	0	32848	32775	
5731	0	32784	32784	
5732	0	32848	32812	
5733	0	32800	32772	
5734	0	32814	32698	
5735	0	32796	32756	
5736	0	32794	32849	
5737	0	32798	32718	
5738	0	32816	32826	
5739	0	32776	32642	
5740	0	32816	32764	
5741	0	32784	32730	
5742	0	32816	32743	
5743	0	32804	32734	
5744	0	32824	32852	
5745	0	32824	32796	
5746	0	32824	32736	
5747	0	32820	32762	
5748	0	32838	32728	
5749	0	32844	32744	
5750	0	32788	32880	
5751	0	32812	32789	
5752	0	32784	32722	
5753	0	32752	32744	
5754	0	32796	32758	
5755	0	32776	32812	
5756	0	32864	32642	
5757	0	32856	32788	
5758	0	32768	32720	
5759	0	32800	32792	
5760	0	32760	32792	
5761	0	32846	32704	
5762	0	32816	32782	
5763	0	32772	32680	
5764	0	32850	32784	
5765	0	32800	32708	
5766	0	32784	32824	
5767	0	32828	32772	
5768	0	32800	32756	
5769	0	32820	32784	
5770	0	32800	32816	
5771	0	32714	32760	
5772	0	32814	32812	
5773	0	32808	32724	
5774	0	32840	32814	
5775	0	32816	32772	
5776	0	32832	32684	
5777	0	32816	32772	
5778	0	32800	32750	
5779	0	32780	32804	
5780	0	32808	32760	
5781	0	32838	32840	
5782	0	32810	32808	
5783	0	32816	32804	
5784	0	32888	32742	
5785	0	32778	32732	
5786	0	32818	32820	
5787	0	32792	32656	
5788	0	32780	32820	
5789	0	32800	32828	
5790	0	32816	32772	
5791	0	32736	32788	
5792	0	32816	32836	
5793	0	32778	32752	
5794	0	32784	32820	
5795	0	32808	32732	
5796	0	32828	32816	
5797	0	32864	32766	
5798	0	32808	32740	
5799	0	32808	32858	
5800	0	32752	32854	
5801	0	32760	32766	
5802	0	32826	32788	
5803	0	32860	32784	
5804	0	32792	32708	
5805	0	32808	32768	
5806	0	32832	32724	
5807	0	32816	32812	
5808	0	32772	32740	
5809	0	32816	32816	
5810	0	32864	32806	
5811	0	32816	32775	
5812	0	32816	32740	
5813	0	32736	32738	
5814	0	32832	32768	
5815	0	32764	32711	
5816	0	32784	32788	
5817	0	32828	32758	
5818	0	32854	32692	
5819	0	32802	32808	
5820	0	32770	32788	
5821	0	32804	32684	
5822	0	32750	32796	
5823	0	32832	32734	
5824	0	32820	32860	
5825	0	32846	32808	
5826	0	32796	32800	
5827	0	32800	32778	
5828	0	32824	32676	
5829	0	32792	32786	
5830	0	32808	32708	
5831	0	32828	32770	
5832	0	32752	32760	
5833	0	32788	32820	
5834	0	32828	32736	
5835	0	32804	32786	
5836	0	32792	32912	
5837	0	32820	32734	
5838	0	32828	32820	
5839	0	32820	32708	
5840	0	32874	32870	
5841	0	32802	32700	
5842	0	32842	32710	
5843	0	32812	32786	
5844	0	32748	32656	
5845	0	32856	32786	
5846	0	32808	32724	
5847	0	32814	32764	
5848	0	32796	32762	
5849	0	32840	32866	
5850	0	32838	32804	
5851	0	32816	32780	
5852	0	32808	32818	
5853	0	32832	32652	
5854	0	32768	32796	
5855	0	32836	32682	
5856	0	32800	32832	
5857	0	32856	32760	
5858	0	32772	32824	
5859	0	32776	32700	
5860	0	32776	32775	
5861	0	32810	32688	
5862	0	32784	32690	
5863	0	32840	32736	
5864	0	32810	32742	
5865	0	32808	32769	
5866	0	32860	32714	
5867	0	32808	32842	
5868	0	32824	32744	
5869	0	32792	32868	
5870	0	32784	32736	
5871	0	32812	32762	
5872	0	32844	32692	
5873	0	32868	32780	
5874	0	32788	32720	
5875	0	32732	32712	
5876	0	32798	32756	
5877	0	32752	32728	
5878	0	32832	32775	
5879	0	32778	32814	
5880	0	32776	32730	
5881	0	32828	32740	
5882	0	32856	32828	
5883	0	32894	32698	
5884	0	32844	32780	
5885	0	32821	32708	
5886	0	32748	32838	
5887	0	32828	32874	
5888	0	32764	32726	
5889	0	32780	32720	
5890	0	32794	32706	
5891	0	32868	32824	
5892	0	32826	32774	
5893	0	32816	32872	
5894	0	32804	32816	
5895	0	32800	32752	
5896	0	32856	32804	
5897	0	32812	32604	
5898	0	32860	32806	
5899	0	32816	32636	
5900	0	32816	32846	
5901	0	32794	32880	
5902	0	32796	32700	
5903	0	32804	32788	
5904	0	32880	32656	
5905	0	32780	32838	
5906	0	32860	32728	
5907	0	32836	32812	
5908	0	32848	32874	
5909	0	32808	32792	
5910	0	32778	32844	
5911	0	32864	32742	
5912	0	32824	32782	
5913	0	32774	32694	
5914	0	32816	32818	
5915	0	32796	32794	
5916	0	32770	32692	
5917	0	32844	32775	
5918	0	32796	32694	
5919	0	32800	32804	
5920	0	32888	32814	
5921	0	32820	32775	
5922	0	32828	32716	
5923	0	32754	32664	
5924	0	32792	32834	
5925	0	32868	32880	
5926	0	32804	32768	
5927	0	32894	32752	
5928	0	32852	32668	
5929	0	32788	32810	
5930	0	32808	32738	
5931	0	32816	32775	
5932	0	32800	32742	
5933	0	32856	32828	
5934	0	32794	32754	
5935	0	32834	32816	
5936	0	32764	32766	
5937	0	32764	32846	
5938	0	32746	32758	
5939	0	32832	32666	
5940	0	32814	32742	
5941	0	32764	32680	
5942	0	32842	32762	
5943	0	32752	32775	
5944	0	32828	32796	
5945	0	32848	32780	
5946	0	32776	32780	
5947	0	32812	32796	
5948	0	32862	32756	
5949	0	32836	32656	
5950	0	32802	32758	
5951	0	32798	32754	
5952	0	32764	32720	
5953	0	32792	32788	
5954	0	32772	32824	
5955	0	32872	32828	
5956	0	32848	32820	
5957	0	32792	32788	
5958	0	32788	32732	
5959	0	32888	32752	
5960	0	32804	32696	
5961	0	32868	32736	
5962	0	32836	32824	
5963	0	32838	32668	
5964	0	32856	32814	
5965	0	32778	32720	
5966	0	32792	32788	
5967	0	32748	32830	
5968	0	32794	32732	
5969	0	32838	32832	
5970	0	32796	32672	
5971	0	32798	32743	
5972	0	32792	32653	
5973	0	32744	32822	
5974	0	32812	32734	
5975	0	32834	32754	
5976	0	32760	32762	
5977	0	32800	32761	
5978	0	32804	32800	
5979	0	32800	32860	
5980	0	32764	32747	
5981	0	32788	32716	
5982	0	32844	32804	
5983	0	32824	32758	
5984	0	32812	32820	
5985	0	32812	32800	
5986	0	32824	32800	
5987	0	32724	32720	
5988	0	32860	32676	
5989	0	32868	32688	
5990	0	32796	32796	
5991	0	32832	32828	
5992	0	32788	32812	
5993	0	32848	32768	
5994	0	32830	32734	
5995	0	32840	32756	
5996	0	32810	32736	
5997	0	32760	32828	
5998	0	32836	32760	
5999	0	32808	32728	
6000	0	32768	32708	
6001	0	32780	32692	
6002	0	32848	32846	
6003	0	32802	32743	
6004	0	32816	32732	
6005	0	32840	32788	
6006	0	32788	32780	
6007	0	32804	32784	
6008	0	32804	32772	
6009	0	32788	32792	
6010	0	32788	32732	
6011	0	32822	32848	
6012	0	32844	32742	
