# OpenSignals Text File Format. Version 1
# {"00:07:80:8C:0A:39": {"position": 0, "device": "biosignalsplux", "device name": "00:07:80:8C:0A:39", "device connection": "BTH00:07:80:8C:0A:39", "sampling rate": 1000, "resolution": [16, 16], "firmware version": 776, "comments": "", "keywords": "", "mode": 0, "sync interval": 2, "date": "2023-3-17", "time": "15:15:14.549", "channels": [1, 2], "sensor": ["EMG", "EMG"], "label": ["CH1", "CH2"], "column": ["nSeq", "DI", "CH1", "CH2"], "special": [{"SpO2": [80, 40, 5, 4, 3, 3]}, {"SpO2": [80, 40, 5, 4, 3, 3]}, {"SpO2": [80, 40, 5, 4, 3, 3]}, {"SpO2": [80, 40, 5, 4, 3, 3]}, {"SpO2": [80, 40, 5, 4, 3, 3]}, {"SpO2": [80, 40, 5, 4, 3, 3]}, {"SpO2": [80, 40, 5, 4, 3, 3]}, {"SpO2": [80, 40, 5, 4, 3, 3]}], "digital IO": [0, 1], "sleeve color": ["gray", "yellow"], "convertedValues": 0}}
# EndOfHeader
0	0	32828	32871	
1	0	32856	32878	
2	0	32764	32676	
3	0	32892	32692	
4	0	32772	32642	
5	0	32864	32646	
6	0	32772	32838	
7	0	32788	32796	
8	0	32828	32771	
9	0	32828	32812	
10	0	32792	32828	
11	0	32740	32680	
12	0	32860	32692	
13	0	32820	32866	
14	0	32808	32775	
15	0	32804	32748	
16	0	32798	32802	
17	0	32792	32740	
18	0	32852	32704	
19	0	32820	32696	
20	0	32764	32775	
21	0	32768	32788	
22	0	32868	32812	
23	0	32792	32759	
24	0	32782	32834	
25	0	32810	32772	
26	0	32832	32700	
27	0	32784	32672	
28	0	32858	32722	
29	0	32796	32738	
30	0	32792	32750	
31	0	32800	32782	
32	0	32796	32788	
33	0	32836	32775	
34	0	32788	32702	
35	0	32802	32756	
36	0	32768	32802	
37	0	32775	32700	
38	0	32828	32772	
39	0	32818	32838	
40	0	32858	32807	
41	0	32788	32738	
42	0	32800	32665	
43	0	32808	32663	
44	0	32864	32870	
45	0	32776	32842	
46	0	32800	32744	
47	0	32832	32786	
48	0	32808	32748	
49	0	32793	32796	
50	0	32802	32769	
51	0	32852	32742	
52	0	32802	32750	
53	0	32778	32711	
54	0	32824	32828	
55	0	32816	32775	
56	0	32808	32790	
57	0	32858	32700	
58	0	32826	32686	
59	0	32846	32772	
60	0	32806	32815	
61	0	32792	32718	
62	0	32836	32724	
63	0	32864	32668	
64	0	32768	32812	
65	0	32770	32862	
66	0	32812	32800	
67	0	32832	32760	
68	0	32804	32836	
69	0	32812	32826	
70	0	32816	32718	
71	0	32904	32664	
72	0	32794	32710	
73	0	32788	32808	
74	0	32832	32799	
75	0	32816	32700	
76	0	32836	32832	
77	0	32748	32868	
78	0	32792	32786	
79	0	32828	32759	
80	0	32750	32722	
81	0	32820	32679	
82	0	32768	32798	
83	0	32828	32750	
84	0	32858	32775	
85	0	32856	32764	
86	0	32804	32839	
87	0	32840	32775	
88	0	32768	32856	
89	0	32808	32788	
90	0	32796	32775	
91	0	32848	32768	
92	0	32820	32816	
93	0	32826	32766	
94	0	32824	32810	
95	0	32848	32718	
96	0	32800	32678	
97	0	32810	32684	
98	0	32776	32636	
99	0	32820	32686	
100	0	32868	32736	
101	0	32828	32663	
102	0	32810	32737	
103	0	32768	32798	
104	0	32828	32814	
105	0	32784	32820	
106	0	32848	32786	
107	0	32782	32740	
108	0	32774	32766	
109	0	32792	32814	
110	0	32744	32839	
111	0	32796	32774	
112	0	32848	32678	
113	0	32804	32679	
114	0	32816	32796	
115	0	32836	32814	
116	0	32816	32821	
117	0	32778	32790	
118	0	32768	32724	
119	0	32800	32850	
120	0	32904	32710	
121	0	32798	32766	
122	0	32896	32752	
123	0	32854	32864	
124	0	32824	32878	
125	0	32826	32762	
126	0	32776	32679	
127	0	32834	32847	
128	0	32830	32808	
129	0	32728	32679	
130	0	32780	32678	
131	0	32792	32823	
132	0	32840	32822	
133	0	32812	32752	
134	0	32866	32775	
135	0	32884	32838	
136	0	32828	32852	
137	0	32812	32706	
138	0	32772	32704	
139	0	32804	32726	
140	0	32736	32913	
141	0	32852	32828	
142	0	32776	32750	
143	0	32784	32848	
144	0	32852	32838	
145	0	32866	32695	
146	0	32822	32740	
147	0	32768	32884	
148	0	32800	32798	
149	0	32862	32782	
150	0	32792	32775	
151	0	32820	32788	
152	0	32740	32794	
153	0	32834	32654	
154	0	32772	32692	
155	0	32776	32795	
156	0	32826	32732	
157	0	32856	32720	
158	0	32838	32672	
159	0	32774	32738	
160	0	32808	32887	
161	0	32804	32729	
162	0	32810	32752	
163	0	32832	32697	
164	0	32784	32686	
165	0	32798	32692	
166	0	32800	32760	
167	0	32796	32650	
168	0	32820	32698	
169	0	32804	32748	
170	0	32768	32711	
171	0	32832	32734	
172	0	32884	32692	
173	0	32878	32854	
174	0	32832	32884	
175	0	32724	32830	
176	0	32764	32756	
177	0	32828	32822	
178	0	32792	32774	
179	0	32804	32722	
180	0	32768	32703	
181	0	32848	32752	
182	0	32856	32800	
183	0	32832	32812	
184	0	32840	32923	
185	0	32804	32726	
186	0	32826	32676	
187	0	32818	32714	
188	0	32888	32716	
189	0	32848	32710	
190	0	32828	32718	
191	0	32804	32796	
192	0	32816	32775	
193	0	32824	32766	
194	0	32833	32818	
195	0	32796	32706	
196	0	32854	32760	
197	0	32848	32820	
198	0	32780	32850	
199	0	32852	32752	
200	0	32849	32796	
201	0	32812	32756	
202	0	32792	32764	
203	0	32876	32692	
204	0	32840	32784	
205	0	32838	32775	
206	0	32840	32774	
207	0	32812	32803	
208	0	32784	32744	
209	0	32772	32710	
210	0	32790	32708	
211	0	32872	32787	
212	0	32800	32766	
213	0	32844	32810	
214	0	32776	32838	
215	0	32796	32796	
216	0	32784	32692	
217	0	32808	32666	
218	0	32848	32728	
219	0	32808	32830	
220	0	32812	32726	
221	0	32760	32760	
222	0	32789	32802	
223	0	32784	32700	
224	0	32832	32694	
225	0	32912	32680	
226	0	32802	32736	
227	0	32860	32730	
228	0	32802	32743	
229	0	32856	32751	
230	0	32840	32711	
231	0	32772	32732	
232	0	32776	32774	
233	0	32856	32775	
234	0	32756	32742	
235	0	32822	32704	
236	0	32800	32724	
237	0	32792	32879	
238	0	32764	32752	
239	0	32808	32784	
240	0	32740	32764	
241	0	32842	32748	
242	0	32852	32738	
243	0	32860	32696	
244	0	32764	32740	
245	0	32760	32816	
246	0	32832	32772	
247	0	32804	32807	
248	0	32872	32796	
249	0	32796	32770	
250	0	32782	32732	
251	0	32820	32796	
252	0	32808	32860	
253	0	32832	32891	
254	0	32850	32676	
255	0	32768	32731	
256	0	32852	32688	
257	0	32814	32818	
258	0	32864	32876	
259	0	32826	32839	
260	0	32780	32816	
261	0	32880	32944	
262	0	32824	32748	
263	0	32848	32878	
264	0	32766	32792	
265	0	32820	32772	
266	0	32788	32782	
267	0	32832	32726	
268	0	32816	32802	
269	0	32808	32665	
270	0	32792	32762	
271	0	32848	32812	
272	0	32832	32856	
273	0	32830	32744	
274	0	32810	32844	
275	0	32814	32956	
276	0	32828	32794	
277	0	32852	32810	
278	0	32866	32768	
279	0	32950	32916	
280	0	32888	32826	
281	0	32916	32804	
282	0	32836	32742	
283	0	32848	32700	
284	0	32772	32592	
285	0	32696	32632	
286	0	32644	32506	
287	0	32664	32588	
288	0	32720	32572	
289	0	32672	32423	
290	0	32618	32626	
291	0	32612	32494	
292	0	32614	32464	
293	0	32754	32720	
294	0	32810	32746	
295	0	32750	32622	
296	0	32886	32750	
297	0	32784	32838	
298	0	32816	32844	
299	0	32830	32887	
300	0	32868	32730	
301	0	32864	32772	
302	0	32840	32828	
303	0	32868	32958	
304	0	32904	32928	
305	0	32870	32874	
306	0	32930	32897	
307	0	32862	32894	
308	0	32868	32824	
309	0	32864	32764	
310	0	32860	32880	
311	0	32878	32914	
312	0	32892	32823	
313	0	32788	32924	
314	0	32804	32826	
315	0	32838	32737	
316	0	32788	32730	
317	0	32816	32748	
318	0	32840	32880	
319	0	32732	32770	
320	0	32792	32748	
321	0	32738	32764	
322	0	32756	32688	
323	0	32768	32598	
324	0	32846	32711	
325	0	32720	32760	
326	0	32828	32730	
327	0	32796	32744	
328	0	32768	32839	
329	0	32768	32746	
330	0	32776	32684	
331	0	32796	32644	
332	0	32766	32668	
333	0	32770	32719	
334	0	32792	32838	
335	0	32786	32814	
336	0	32808	32807	
337	0	32812	32712	
338	0	32816	32830	
339	0	32896	32935	
340	0	32812	32716	
341	0	32732	32652	
342	0	32775	32868	
343	0	32852	32790	
344	0	32872	32775	
345	0	32824	32810	
346	0	32768	32761	
347	0	32804	32775	
348	0	32800	32652	
349	0	32780	32696	
350	0	32806	32684	
351	0	32854	32775	
352	0	32824	32775	
353	0	32844	32700	
354	0	32828	32810	
355	0	32792	32762	
356	0	32788	32724	
357	0	32892	32860	
358	0	32878	32774	
359	0	32824	32820	
360	0	32788	32768	
361	0	32816	32725	
362	0	32748	32759	
363	0	32728	32806	
364	0	32714	32690	
365	0	32806	32828	
366	0	32832	32858	
367	0	32852	32756	
368	0	32832	32720	
369	0	32794	32770	
370	0	32788	32775	
371	0	32842	32834	
372	0	32778	32774	
373	0	32820	32798	
374	0	32804	32796	
375	0	32808	32714	
376	0	32808	32684	
377	0	32820	32798	
378	0	32766	32724	
379	0	32836	32744	
380	0	32860	32884	
381	0	32800	32822	
382	0	32808	32740	
383	0	32824	32702	
384	0	32812	32744	
385	0	32866	32708	
386	0	32832	32824	
387	0	32794	32732	
388	0	32832	32775	
389	0	32754	32812	
390	0	32825	32800	
391	0	32720	32702	
392	0	32810	32647	
393	0	32866	32718	
394	0	32902	32775	
395	0	32868	32854	
396	0	32784	32748	
397	0	32736	32724	
398	0	32832	32744	
399	0	32808	32806	
400	0	32840	32752	
401	0	32812	32700	
402	0	32792	32728	
403	0	32772	32652	
404	0	32844	32806	
405	0	32756	32811	
406	0	32780	32831	
407	0	32802	32768	
408	0	32792	32704	
409	0	32776	32694	
410	0	32784	32810	
411	0	32876	32775	
412	0	32804	32775	
413	0	32840	32775	
414	0	32804	32746	
415	0	32784	32694	
416	0	32804	32719	
417	0	32786	32744	
418	0	32756	32881	
419	0	32892	32818	
420	0	32784	32774	
421	0	32800	32802	
422	0	32804	32806	
423	0	32779	32756	
424	0	32822	32740	
425	0	32768	32732	
426	0	32806	32865	
427	0	32796	32790	
428	0	32832	32830	
429	0	32800	32716	
430	0	32866	32680	
431	0	32764	32775	
432	0	32794	32769	
433	0	32828	32788	
434	0	32828	32802	
435	0	32812	32856	
436	0	32818	32768	
437	0	32832	32702	
438	0	32892	32668	
439	0	32844	32772	
440	0	32796	32823	
441	0	32804	32752	
442	0	32820	32772	
443	0	32776	32775	
444	0	32772	32679	
445	0	32802	32676	
446	0	32814	32839	
447	0	32800	32775	
448	0	32800	32762	
449	0	32784	32775	
450	0	32806	32764	
451	0	32874	32660	
452	0	32804	32764	
453	0	32808	32870	
454	0	32806	32775	
455	0	32764	32711	
456	0	32828	32810	
457	0	32772	32775	
458	0	32804	32742	
459	0	32836	32636	
460	0	32824	32740	
461	0	32824	32828	
462	0	32804	32806	
463	0	32838	32808	
464	0	32762	32708	
465	0	32824	32760	
466	0	32826	32716	
467	0	32740	32824	
468	0	32808	32774	
469	0	32808	32800	
470	0	32790	32692	
471	0	32848	32694	
472	0	32806	32716	
473	0	32814	32820	
474	0	32826	32794	
475	0	32884	32752	
476	0	32832	32895	
477	0	32826	32736	
478	0	32772	32702	
479	0	32874	32704	
480	0	32775	32806	
481	0	32864	32792	
482	0	32884	32711	
483	0	32854	32744	
484	0	32788	32768	
485	0	32764	32860	
486	0	32792	32695	
487	0	32768	32762	
488	0	32804	32772	
489	0	32816	32826	
490	0	32812	32743	
491	0	32734	32810	
492	0	32832	32750	
493	0	32820	32682	
494	0	32792	32706	
495	0	32808	32791	
496	0	32852	32774	
497	0	32812	32698	
498	0	32764	32820	
499	0	32750	32828	
500	0	32800	32738	
501	0	32844	32766	
502	0	32796	32816	
503	0	32812	32798	
504	0	32804	32806	
505	0	32820	32748	
506	0	32824	32655	
507	0	32796	32804	
508	0	32752	32870	
509	0	32800	32785	
510	0	32796	32814	
511	0	32832	32647	
512	0	32856	32727	
513	0	32856	32831	
514	0	32836	32856	
515	0	32812	32759	
516	0	32882	32742	
517	0	32772	32690	
518	0	32818	32770	
519	0	32784	32759	
520	0	32772	32820	
521	0	32826	32812	
522	0	32770	32799	
523	0	32816	32774	
524	0	32759	32660	
525	0	32828	32676	
526	0	32836	32710	
527	0	32828	32716	
528	0	32830	32814	
529	0	32798	32892	
530	0	32780	32728	
531	0	32794	32802	
532	0	32856	32775	
533	0	32776	32686	
534	0	32840	32743	
535	0	32816	32860	
536	0	32810	32798	
537	0	32796	32806	
538	0	32824	32712	
539	0	32824	32743	
540	0	32788	32702	
541	0	32817	32766	
542	0	32794	32726	
543	0	32804	32724	
544	0	32828	32724	
545	0	32796	32740	
546	0	32836	32720	
547	0	32888	32772	
548	0	32800	32784	
549	0	32798	32718	
550	0	32832	32808	
551	0	32824	32756	
552	0	32820	32668	
553	0	32788	32722	
554	0	32808	32808	
555	0	32852	32796	
556	0	32784	32772	
557	0	32796	32798	
558	0	32868	32791	
559	0	32830	32794	
560	0	32804	32682	
561	0	32812	32762	
562	0	32788	32804	
563	0	32766	32694	
564	0	32880	32766	
565	0	32902	32816	
566	0	32818	32738	
567	0	32764	32775	
568	0	32852	32812	
569	0	32788	32788	
570	0	32712	32806	
571	0	32850	32702	
572	0	32836	32794	
573	0	32846	32692	
574	0	32840	32809	
575	0	32820	32862	
576	0	32808	32760	
577	0	32824	32807	
578	0	32805	32799	
579	0	32772	32658	
580	0	32848	32726	
581	0	32826	32695	
582	0	32744	32770	
583	0	32758	32796	
584	0	32838	32746	
585	0	32808	32868	
586	0	32776	32852	
587	0	32792	32714	
588	0	32776	32746	
589	0	32778	32682	
590	0	32822	32716	
591	0	32832	32846	
592	0	32784	32775	
593	0	32774	32734	
594	0	32864	32702	
595	0	32782	32834	
596	0	32818	32741	
597	0	32802	32668	
598	0	32764	32721	
599	0	32768	32918	
600	0	32812	32876	
601	0	32798	32746	
602	0	32806	32828	
603	0	32820	32705	
604	0	32808	32704	
605	0	32810	32780	
606	0	32800	32727	
607	0	32782	32816	
608	0	32806	32820	
609	0	32784	32678	
610	0	32834	32647	
611	0	32724	32815	
612	0	32864	32775	
613	0	32814	32800	
614	0	32888	32686	
615	0	32772	32718	
616	0	32814	32752	
617	0	32798	32704	
618	0	32842	32800	
619	0	32824	32695	
620	0	32812	32749	
621	0	32816	32830	
622	0	32820	32774	
623	0	32784	32756	
624	0	32816	32711	
625	0	32870	32758	
626	0	32816	32746	
627	0	32804	32816	
628	0	32804	32791	
629	0	32788	32680	
630	0	32740	32696	
631	0	32750	32816	
632	0	32824	32716	
633	0	32798	32820	
634	0	32804	32700	
635	0	32772	32690	
636	0	32832	32712	
637	0	32836	32742	
638	0	32836	32872	
639	0	32796	32679	
640	0	32804	32824	
641	0	32804	32746	
642	0	32804	32816	
643	0	32840	32766	
644	0	32840	32862	
645	0	32828	32796	
646	0	32766	32804	
647	0	32838	32607	
648	0	32806	32836	
649	0	32884	32756	
650	0	32768	32774	
651	0	32816	32828	
652	0	32810	32708	
653	0	32788	32812	
654	0	32820	32742	
655	0	32840	32844	
656	0	32828	32766	
657	0	32870	32736	
658	0	32780	32788	
659	0	32784	32806	
660	0	32824	32766	
661	0	32836	32814	
662	0	32882	32743	
663	0	32808	32712	
664	0	32738	32775	
665	0	32816	32775	
666	0	32836	32807	
667	0	32842	32678	
668	0	32780	32672	
669	0	32854	32775	
670	0	32792	32792	
671	0	32812	32826	
672	0	32796	32654	
673	0	32782	32715	
674	0	32798	32775	
675	0	32835	32828	
676	0	32812	32768	
677	0	32840	32806	
678	0	32804	32814	
679	0	32790	32695	
680	0	32792	32718	
681	0	32808	32824	
682	0	32750	32775	
683	0	32838	32784	
684	0	32820	32811	
685	0	32788	32848	
686	0	32816	32800	
687	0	32840	32636	
688	0	32804	32744	
689	0	32808	32804	
690	0	32738	32782	
691	0	32774	32724	
692	0	32794	32775	
693	0	32792	32766	
694	0	32780	32802	
695	0	32800	32724	
696	0	32864	32742	
697	0	32834	32662	
698	0	32868	32824	
699	0	32806	32812	
700	0	32836	32756	
701	0	32848	32775	
702	0	32764	32838	
703	0	32836	32720	
704	0	32796	32676	
705	0	32760	32736	
706	0	32912	32794	
707	0	32790	32775	
708	0	32796	32766	
709	0	32792	32830	
710	0	32816	32686	
711	0	32812	32759	
712	0	32768	32826	
713	0	32808	32773	
714	0	32788	32820	
715	0	32760	32695	
716	0	32794	32741	
717	0	32784	32816	
718	0	32760	32832	
719	0	32790	32704	
720	0	32804	32799	
721	0	32856	32686	
722	0	32756	32689	
723	0	32852	32799	
724	0	32802	32793	
725	0	32832	32736	
726	0	32776	32798	
727	0	32776	32830	
728	0	32880	32732	
729	0	32780	32738	
730	0	32780	32768	
731	0	32808	32739	
732	0	32748	32788	
733	0	32802	32804	
734	0	32800	32702	
735	0	32856	32862	
736	0	32804	32743	
737	0	32836	32798	
738	0	32812	32775	
739	0	32844	32711	
740	0	32812	32796	
741	0	32784	32860	
742	0	32852	32802	
743	0	32848	32855	
744	0	32748	32706	
745	0	32848	32775	
746	0	32798	32775	
747	0	32828	32748	
748	0	32834	32814	
749	0	32780	32724	
750	0	32828	32742	
751	0	32806	32842	
752	0	32842	32754	
753	0	32802	32742	
754	0	32868	32758	
755	0	32852	32799	
756	0	32768	32830	
757	0	32844	32706	
758	0	32778	32814	
759	0	32760	32775	
760	0	32810	32738	
761	0	32868	32790	
762	0	32824	32796	
763	0	32838	32694	
764	0	32804	32724	
765	0	32824	32775	
766	0	32775	32727	
767	0	32816	32812	
768	0	32852	32798	
769	0	32808	32817	
770	0	32777	32742	
771	0	32732	32632	
772	0	32786	32775	
773	0	32800	32766	
774	0	32764	32882	
775	0	32796	32718	
776	0	32844	32714	
777	0	32864	32687	
778	0	32880	32734	
779	0	32810	32802	
780	0	32774	32884	
781	0	32864	32720	
782	0	32816	32728	
783	0	32812	32807	
784	0	32730	32760	
785	0	32752	32775	
786	0	32772	32676	
787	0	32824	32795	
788	0	32812	32716	
789	0	32792	32722	
790	0	32828	32767	
791	0	32860	32718	
792	0	32832	32854	
793	0	32872	32770	
794	0	32836	32730	
795	0	32788	32740	
796	0	32770	32898	
797	0	32812	32764	
798	0	32808	32911	
799	0	32884	32734	
800	0	32832	32930	
801	0	32854	32826	
802	0	32776	32708	
803	0	32824	32726	
804	0	32800	32718	
805	0	32856	32802	
806	0	32780	32746	
807	0	32822	32746	
808	0	32800	32738	
809	0	32786	32746	
810	0	32760	32775	
811	0	32804	32808	
812	0	32786	32788	
813	0	32871	32658	
814	0	32832	32784	
815	0	32804	32762	
816	0	32736	32834	
817	0	32828	32654	
818	0	32806	32775	
819	0	32800	32734	
820	0	32804	32792	
821	0	32756	32703	
822	0	32802	32806	
823	0	32784	32796	
824	0	32798	32796	
825	0	32836	32846	
826	0	32888	32748	
827	0	32852	32756	
828	0	32868	32684	
829	0	32858	32836	
830	0	32808	32860	
831	0	32902	32768	
832	0	32828	32720	
833	0	32898	32775	
834	0	32846	32732	
835	0	32776	32703	
836	0	32770	32672	
837	0	32800	32890	
838	0	32762	32814	
839	0	32850	32799	
840	0	32764	32758	
841	0	32832	32690	
842	0	32800	32812	
843	0	32832	32796	
844	0	32820	32794	
845	0	32832	32828	
846	0	32756	32652	
847	0	32800	32694	
848	0	32800	32754	
849	0	32858	32703	
850	0	32788	32816	
851	0	32766	32734	
852	0	32816	32716	
853	0	32804	32708	
854	0	32810	32826	
855	0	32810	32819	
856	0	32776	32839	
857	0	32864	32836	
858	0	32856	32784	
859	0	32821	32790	
860	0	32808	32714	
861	0	32820	32670	
862	0	32752	32682	
863	0	32832	32790	
864	0	32784	32856	
865	0	32880	32692	
866	0	32846	32844	
867	0	32836	32730	
868	0	32808	32702	
869	0	32796	32794	
870	0	32796	32808	
871	0	32872	32860	
872	0	32804	32774	
873	0	32788	32804	
874	0	32828	32738	
875	0	32824	32786	
876	0	32788	32682	
877	0	32828	32684	
878	0	32812	32791	
879	0	32834	32822	
880	0	32794	32775	
881	0	32812	32856	
882	0	32804	32816	
883	0	32818	32682	
884	0	32837	32708	
885	0	32784	32768	
886	0	32752	32807	
887	0	32804	32868	
888	0	32824	32762	
889	0	32812	32786	
890	0	32820	32740	
891	0	32814	32740	
892	0	32796	32795	
893	0	32788	32792	
894	0	32816	32720	
895	0	32816	32727	
896	0	32856	32826	
897	0	32836	32700	
898	0	32816	32891	
899	0	32822	32716	
900	0	32780	32684	
901	0	32828	32803	
902	0	32802	32816	
903	0	32828	32632	
904	0	32846	32704	
905	0	32888	32736	
906	0	32792	32804	
907	0	32772	32784	
908	0	32814	32728	
909	0	32760	32830	
910	0	32806	32770	
911	0	32802	32852	
912	0	32904	32762	
913	0	32764	32676	
914	0	32796	32775	
915	0	32800	32706	
916	0	32804	32735	
917	0	32768	32707	
918	0	32854	32782	
919	0	32814	32802	
920	0	32842	32852	
921	0	32826	32770	
922	0	32704	32692	
923	0	32756	32751	
924	0	32828	32846	
925	0	32860	32676	
926	0	32834	32724	
927	0	32820	32826	
928	0	32816	32798	
929	0	32824	32748	
930	0	32776	32730	
931	0	32832	32862	
932	0	32836	32743	
933	0	32852	32676	
934	0	32736	32838	
935	0	32796	32852	
936	0	32820	32799	
937	0	32852	32714	
938	0	32804	32846	
939	0	32888	32774	
940	0	32838	32724	
941	0	32774	32936	
942	0	32862	32820	
943	0	32888	32807	
944	0	32840	32798	
945	0	32836	32838	
946	0	32860	32711	
947	0	32852	32696	
948	0	32772	32827	
949	0	32800	32760	
950	0	32774	32804	
951	0	32800	32686	
952	0	32820	32790	
953	0	32848	32796	
954	0	32816	32868	
955	0	32834	32704	
956	0	32908	32856	
957	0	32840	32792	
958	0	32746	32858	
959	0	32816	32750	
960	0	32846	32850	
961	0	32868	32871	
962	0	32852	32892	
963	0	32892	32862	
964	0	32888	32847	
965	0	32816	32934	
966	0	32870	32871	
967	0	32856	32975	
968	0	32834	32818	
969	0	32817	32655	
970	0	32768	32594	
971	0	32638	32516	
972	0	32636	32599	
973	0	32686	32578	
974	0	32712	32515	
975	0	32636	32354	
976	0	32654	32406	
977	0	32648	32583	
978	0	32738	32572	
979	0	32732	32628	
980	0	32736	32758	
981	0	32792	32761	
982	0	32808	32694	
983	0	32882	32906	
984	0	32896	32860	
985	0	32874	32882	
986	0	32792	32884	
987	0	32864	32823	
988	0	32922	32870	
989	0	32870	32992	
990	0	32880	32966	
991	0	32907	32871	
992	0	32876	32880	
993	0	32908	32855	
994	0	32860	32839	
995	0	32836	32876	
996	0	32864	32832	
997	0	32832	32751	
998	0	32850	32839	
999	0	32840	32760	
1000	0	32852	32870	
1001	0	32784	32844	
1002	0	32830	32808	
1003	0	32864	32794	
1004	0	32719	32807	
1005	0	32776	32862	
1006	0	32856	32710	
1007	0	32872	32740	
1008	0	32786	32817	
1009	0	32784	32750	
1010	0	32752	32710	
1011	0	32790	32765	
1012	0	32880	32679	
1013	0	32844	32736	
1014	0	32816	32728	
1015	0	32820	32786	
1016	0	32886	32766	
1017	0	32772	32740	
1018	0	32810	32708	
1019	0	32832	32743	
1020	0	32764	32908	
1021	0	32762	32775	
1022	0	32744	32736	
1023	0	32832	32674	
1024	0	32800	32774	
1025	0	32834	32830	
1026	0	32852	32844	
1027	0	32780	32801	
1028	0	32756	32714	
1029	0	32832	32694	
1030	0	32816	32816	
1031	0	32788	32794	
1032	0	32776	32848	
1033	0	32904	32742	
1034	0	32816	32842	
1035	0	32798	32728	
1036	0	32804	32814	
1037	0	32832	32688	
1038	0	32808	32844	
1039	0	32804	32785	
1040	0	32846	32768	
1041	0	32750	32775	
1042	0	32791	32736	
1043	0	32768	32764	
1044	0	32776	32844	
1045	0	32848	32724	
1046	0	32794	32788	
1047	0	32812	32756	
1048	0	32806	32854	
1049	0	32833	32695	
1050	0	32844	32756	
1051	0	32866	32762	
1052	0	32816	32734	
1053	0	32818	32734	
1054	0	32840	32800	
1055	0	32856	32747	
1056	0	32816	32718	
1057	0	32796	32775	
1058	0	32812	32732	
1059	0	32856	32865	
1060	0	32740	32678	
1061	0	32774	32775	
1062	0	32796	32794	
1063	0	32826	32670	
1064	0	32772	32770	
1065	0	32808	32792	
1066	0	32816	32751	
1067	0	32850	32694	
1068	0	32816	32856	
1069	0	32816	32719	
1070	0	32792	32824	
1071	0	32826	32718	
1072	0	32810	32868	
1073	0	32804	32856	
1074	0	32784	32740	
1075	0	32820	32704	
1076	0	32834	32804	
1077	0	32772	32708	
1078	0	32766	32723	
1079	0	32772	32704	
1080	0	32822	32684	
1081	0	32828	32838	
1082	0	32853	32750	
1083	0	32794	32791	
1084	0	32800	32748	
1085	0	32820	32874	
1086	0	32840	32840	
1087	0	32888	32742	
1088	0	32864	32716	
1089	0	32822	32775	
1090	0	32836	32798	
1091	0	32724	32743	
1092	0	32856	32788	
1093	0	32824	32796	
1094	0	32846	32815	
1095	0	32868	32750	
1096	0	32800	32650	
1097	0	32846	32679	
1098	0	32812	32834	
1099	0	32868	32792	
1100	0	32804	32741	
1101	0	32820	32775	
1102	0	32844	32822	
1103	0	32786	32770	
1104	0	32768	32674	
1105	0	32784	32692	
1106	0	32912	32820	
1107	0	32856	32802	
1108	0	32800	32736	
1109	0	32814	32775	
1110	0	32834	32775	
1111	0	32828	32788	
1112	0	32774	32826	
1113	0	32818	32686	
1114	0	32798	32712	
1115	0	32804	32804	
1116	0	32784	32798	
1117	0	32872	32732	
1118	0	32788	32800	
1119	0	32796	32805	
1120	0	32746	32740	
1121	0	32840	32711	
1122	0	32864	32775	
1123	0	32810	32700	
1124	0	32828	32732	
1125	0	32788	32702	
1126	0	32828	32911	
1127	0	32778	32762	
1128	0	32800	32806	
1129	0	32820	32664	
1130	0	32868	32878	
1131	0	32820	32752	
1132	0	32810	32772	
1133	0	32852	32726	
1134	0	32838	32688	
1135	0	32784	32793	
1136	0	32764	32796	
1137	0	32784	32838	
1138	0	32816	32848	
1139	0	32836	32690	
1140	0	32780	32594	
1141	0	32844	32878	
1142	0	32826	32704	
1143	0	32812	32836	
1144	0	32784	32798	
1145	0	32844	32734	
1146	0	32832	32663	
1147	0	32824	32856	
1148	0	32840	32812	
1149	0	32788	32726	
1150	0	32768	32860	
1151	0	32788	32686	
1152	0	32808	32676	
1153	0	32888	32871	
1154	0	32812	32698	
1155	0	32842	32807	
1156	0	32756	32692	
1157	0	32896	32710	
1158	0	32818	32902	
1159	0	32792	32842	
1160	0	32770	32756	
1161	0	32824	32762	
1162	0	32824	32732	
1163	0	32762	32638	
1164	0	32756	32822	
1165	0	32828	32764	
1166	0	32824	32743	
1167	0	32862	32724	
1168	0	32824	32908	
1169	0	32854	32812	
1170	0	32792	32784	
1171	0	32828	32663	
1172	0	32812	32727	
1173	0	32794	32738	
1174	0	32780	32732	
1175	0	32814	32808	
1176	0	32858	32687	
1177	0	32854	32820	
1178	0	32824	32714	
1179	0	32810	32732	
1180	0	32812	32854	
1181	0	32800	32682	
1182	0	32870	32736	
1183	0	32844	32880	
1184	0	32808	32818	
1185	0	32816	32812	
1186	0	32782	32775	
1187	0	32864	32742	
1188	0	32796	32706	
1189	0	32852	32770	
1190	0	32808	32823	
1191	0	32798	32764	
1192	0	32842	32811	
1193	0	32868	32748	
1194	0	32824	32730	
1195	0	32824	32823	
1196	0	32784	32772	
1197	0	32804	32788	
1198	0	32738	32670	
1199	0	32788	32826	
1200	0	32764	32734	
1201	0	32792	32789	
1202	0	32770	32775	
1203	0	32836	32655	
1204	0	32840	32858	
1205	0	32793	32658	
1206	0	32858	32800	
1207	0	32788	32711	
1208	0	32840	32775	
1209	0	32776	32762	
1210	0	32800	32775	
1211	0	32864	32639	
1212	0	32834	32732	
1213	0	32836	32903	
1214	0	32844	32828	
1215	0	32768	32806	
1216	0	32836	32679	
1217	0	32792	32710	
1218	0	32732	32775	
1219	0	32792	32865	
1220	0	32834	32798	
1221	0	32856	32738	
1222	0	32816	32752	
1223	0	32808	32902	
1224	0	32744	32695	
1225	0	32801	32734	
1226	0	32790	32845	
1227	0	32774	32820	
1228	0	32892	32754	
1229	0	32786	32678	
1230	0	32836	32756	
1231	0	32836	32790	
1232	0	32816	32914	
1233	0	32804	32709	
1234	0	32788	32699	
1235	0	32790	32764	
1236	0	32758	32756	
1237	0	32772	32807	
1238	0	32774	32746	
1239	0	32800	32698	
1240	0	32804	32818	
1241	0	32788	32727	
1242	0	32760	32806	
1243	0	32804	32775	
1244	0	32828	32758	
1245	0	32794	32700	
1246	0	32808	32722	
1247	0	32828	32814	
1248	0	32832	32792	
1249	0	32840	32750	
1250	0	32816	32790	
1251	0	32792	32770	
1252	0	32768	32762	
1253	0	32752	32746	
1254	0	32862	32806	
1255	0	32836	32775	
1256	0	32804	32678	
1257	0	32812	32700	
1258	0	32832	32854	
1259	0	32844	32810	
1260	0	32844	32738	
1261	0	32876	32808	
1262	0	32790	32804	
1263	0	32868	32772	
1264	0	32796	32692	
1265	0	32844	32672	
1266	0	32858	32679	
1267	0	32864	32730	
1268	0	32826	32726	
1269	0	32830	32735	
1270	0	32836	32756	
1271	0	32800	32806	
1272	0	32810	32780	
1273	0	32818	32754	
1274	0	32852	32784	
1275	0	32816	32720	
1276	0	32804	32775	
1277	0	32830	32888	
1278	0	32744	32716	
1279	0	32800	32770	
1280	0	32770	32638	
1281	0	32784	32775	
1282	0	32896	32684	
1283	0	32820	32698	
1284	0	32856	32743	
1285	0	32832	32775	
1286	0	32872	32718	
1287	0	32810	32798	
1288	0	32808	32720	
1289	0	32809	32820	
1290	0	32820	32818	
1291	0	32840	32752	
1292	0	32794	32798	
1293	0	32848	32817	
1294	0	32746	32800	
1295	0	32800	32844	
1296	0	32826	32814	
1297	0	32812	32726	
1298	0	32772	32692	
1299	0	32824	32734	
1300	0	32792	32702	
1301	0	32752	32736	
1302	0	32796	32678	
1303	0	32862	32680	
1304	0	32858	32767	
1305	0	32800	32864	
1306	0	32752	32806	
1307	0	32896	32832	
1308	0	32844	32758	
1309	0	32816	32820	
1310	0	32776	32822	
1311	0	32873	32754	
1312	0	32848	32728	
1313	0	32810	32710	
1314	0	32834	32730	
1315	0	32776	32664	
1316	0	32784	32738	
1317	0	32808	32828	
1318	0	32812	32687	
1319	0	32796	32903	
1320	0	32764	32802	
1321	0	32800	32796	
1322	0	32816	32794	
1323	0	32818	32772	
1324	0	32780	32798	
1325	0	32756	32678	
1326	0	32818	32712	
1327	0	32868	32775	
1328	0	32800	32849	
1329	0	32850	32744	
1330	0	32832	32798	
1331	0	32788	32741	
1332	0	32832	32734	
1333	0	32852	32769	
1334	0	32796	32860	
1335	0	32836	32772	
1336	0	32836	32788	
1337	0	32800	32790	
1338	0	32772	32744	
1339	0	32792	32807	
1340	0	32820	32800	
1341	0	32792	32750	
1342	0	32838	32700	
1343	0	32764	32874	
1344	0	32814	32764	
1345	0	32828	32798	
1346	0	32788	32775	
1347	0	32816	32770	
1348	0	32788	32660	
1349	0	32772	32716	
1350	0	32846	32860	
1351	0	32856	32828	
1352	0	32886	32770	
1353	0	32812	32796	
1354	0	32824	32775	
1355	0	32840	32792	
1356	0	32864	32696	
1357	0	32744	32704	
1358	0	32834	32786	
1359	0	32796	32834	
1360	0	32846	32830	
1361	0	32796	32784	
1362	0	32836	32734	
1363	0	32768	32730	
1364	0	32832	32654	
1365	0	32820	32760	
1366	0	32828	32788	
1367	0	32792	32766	
1368	0	32758	32740	
1369	0	32898	32774	
1370	0	32864	32738	
1371	0	32732	32698	
1372	0	32836	32778	
1373	0	32816	32816	
1374	0	32834	32730	
1375	0	32808	32760	
1376	0	32776	32843	
1377	0	32798	32808	
1378	0	32776	32694	
1379	0	32818	32770	
1380	0	32746	32724	
1381	0	32866	32918	
1382	0	32818	32792	
1383	0	32780	32780	
1384	0	32752	32823	
1385	0	32792	32807	
1386	0	32794	32732	
1387	0	32804	32724	
1388	0	32822	32684	
1389	0	32824	32698	
1390	0	32876	32718	
1391	0	32820	32849	
1392	0	32804	32844	
1393	0	32852	32801	
1394	0	32780	32692	
1395	0	32804	32734	
1396	0	32846	32688	
1397	0	32782	32724	
1398	0	32772	32657	
1399	0	32792	32690	
1400	0	32872	32826	
1401	0	32842	32794	
1402	0	32820	32831	
1403	0	32840	32840	
1404	0	32838	32696	
1405	0	32849	32744	
1406	0	32832	32828	
1407	0	32798	32855	
1408	0	32812	32784	
1409	0	32804	32775	
1410	0	32860	32802	
1411	0	32832	32736	
1412	0	32776	32686	
1413	0	32898	32670	
1414	0	32746	32740	
1415	0	32832	32879	
1416	0	32872	32840	
1417	0	32800	32798	
1418	0	32844	32798	
1419	0	32876	32740	
1420	0	32775	32775	
1421	0	32836	32822	
1422	0	32784	32836	
1423	0	32820	32844	
1424	0	32820	32788	
1425	0	32820	32734	
1426	0	32796	32678	
1427	0	32848	32694	
1428	0	32784	32702	
1429	0	32820	32888	
1430	0	32752	32844	
1431	0	32816	32812	
1432	0	32840	32767	
1433	0	32822	32790	
1434	0	32818	32764	
1435	0	32852	32856	
1436	0	32804	32756	
1437	0	32836	32748	
1438	0	32808	32704	
1439	0	32846	32768	
1440	0	32824	32848	
1441	0	32834	32788	
1442	0	32810	32814	
1443	0	32772	32710	
1444	0	32838	32838	
1445	0	32828	32734	
1446	0	32910	32790	
1447	0	32750	32744	
1448	0	32840	32738	
1449	0	32810	32810	
1450	0	32820	32788	
1451	0	32804	32788	
1452	0	32812	32774	
1453	0	32760	32730	
1454	0	32844	32801	
1455	0	32754	32816	
1456	0	32820	32748	
1457	0	32798	32738	
1458	0	32814	32746	
1459	0	32858	32716	
1460	0	32784	32850	
1461	0	32804	32838	
1462	0	32760	32775	
1463	0	32794	32826	
1464	0	32780	32743	
1465	0	32800	32752	
1466	0	32756	32686	
1467	0	32856	32820	
1468	0	32806	32775	
1469	0	32816	32732	
1470	0	32816	32808	
1471	0	32890	32806	
1472	0	32784	32814	
1473	0	32816	32718	
1474	0	32832	32698	
1475	0	32788	32880	
1476	0	32784	32860	
1477	0	32752	32743	
1478	0	32836	32808	
1479	0	32772	32624	
1480	0	32804	32708	
1481	0	32842	32642	
1482	0	32804	32804	
1483	0	32804	32754	
1484	0	32784	32794	
1485	0	32822	32786	
1486	0	32836	32756	
1487	0	32838	32690	
1488	0	32844	32804	
1489	0	32812	32770	
1490	0	32802	32736	
1491	0	32834	32794	
1492	0	32794	32718	
1493	0	32880	32742	
1494	0	32792	32884	
1495	0	32876	32734	
1496	0	32842	32822	
1497	0	32852	32842	
1498	0	32842	32706	
1499	0	32726	32662	
1500	0	32784	32694	
1501	0	32856	32738	
1502	0	32844	32838	
1503	0	32724	32774	
1504	0	32796	32807	
1505	0	32768	32775	
1506	0	32800	32724	
1507	0	32824	32678	
1508	0	32804	32744	
1509	0	32781	32804	
1510	0	32848	32816	
1511	0	32792	32767	
1512	0	32746	32692	
1513	0	32812	32788	
1514	0	32786	32822	
1515	0	32836	32770	
1516	0	32836	32660	
1517	0	32800	32694	
1518	0	32856	32688	
1519	0	32830	32812	
1520	0	32836	32852	
1521	0	32790	32743	
1522	0	32794	32798	
1523	0	32788	32863	
1524	0	32822	32758	
1525	0	32814	32724	
1526	0	32868	32724	
1527	0	32810	32843	
1528	0	32860	32810	
1529	0	32828	32807	
1530	0	32760	32874	
1531	0	32904	32775	
1532	0	32844	32839	
1533	0	32820	32756	
1534	0	32780	32684	
1535	0	32808	32630	
1536	0	32828	32746	
1537	0	32820	32751	
1538	0	32844	32784	
1539	0	32796	32730	
1540	0	32808	32740	
1541	0	32844	32766	
1542	0	32788	32752	
1543	0	32794	32672	
1544	0	32864	32806	
1545	0	32806	32804	
1546	0	32830	32754	
1547	0	32774	32808	
1548	0	32764	32764	
1549	0	32790	32716	
1550	0	32820	32736	
1551	0	32752	32876	
1552	0	32820	32794	
1553	0	32814	32821	
1554	0	32830	32753	
1555	0	32824	32798	
1556	0	32810	32852	
1557	0	32776	32788	
1558	0	32810	32732	
1559	0	32796	32748	
1560	0	32832	32770	
1561	0	32804	32838	
1562	0	32840	32820	
1563	0	32798	32807	
1564	0	32852	32774	
1565	0	32816	32836	
1566	0	32802	32800	
1567	0	32848	32694	
1568	0	32896	32732	
1569	0	32852	32753	
1570	0	32784	32886	
1571	0	32836	32775	
1572	0	32848	32816	
1573	0	32804	32756	
1574	0	32830	32760	
1575	0	32864	32775	
1576	0	32830	32775	
1577	0	32788	32750	
1578	0	32816	32817	
1579	0	32832	32888	
1580	0	32820	32742	
1581	0	32836	32758	
1582	0	32908	32742	
1583	0	32726	32644	
1584	0	32800	32750	
1585	0	32808	32814	
1586	0	32816	32838	
1587	0	32800	32784	
1588	0	32868	32802	
1589	0	32816	32714	
1590	0	32832	32732	
1591	0	32840	32762	
1592	0	32786	32836	
1593	0	32848	32775	
1594	0	32802	32874	
1595	0	32820	32790	
1596	0	32810	32782	
1597	0	32824	32823	
1598	0	32872	32818	
1599	0	32852	32868	
1600	0	32824	32775	
1601	0	32868	32761	
1602	0	32824	32732	
1603	0	32844	32768	
1604	0	32852	32711	
1605	0	32820	32630	
1606	0	32748	32716	
1607	0	32792	32698	
1608	0	32802	32866	
1609	0	32838	32767	
1610	0	32815	32716	
1611	0	32824	32798	
1612	0	32832	32711	
1613	0	32810	32775	
1614	0	32766	32722	
1615	0	32776	32762	
1616	0	32828	32794	
1617	0	32814	32826	
1618	0	32778	32890	
1619	0	32768	32773	
1620	0	32766	32666	
1621	0	32772	32708	
1622	0	32852	32722	
1623	0	32826	32692	
1624	0	32808	32879	
1625	0	32814	32775	
1626	0	32832	32751	
1627	0	32856	32818	
1628	0	32832	32812	
1629	0	32854	32806	
1630	0	32804	32802	
1631	0	32810	32872	
1632	0	32766	32768	
1633	0	32846	32690	
1634	0	32812	32771	
1635	0	32842	32712	
1636	0	32820	32903	
1637	0	32818	32855	
1638	0	32752	32742	
1639	0	32828	32822	
1640	0	32840	32794	
1641	0	32898	32754	
1642	0	32884	32774	
1643	0	32756	32804	
1644	0	32850	32852	
1645	0	32816	32855	
1646	0	32804	32801	
1647	0	32824	32828	
1648	0	32848	32870	
1649	0	32848	32871	
1650	0	32846	32810	
1651	0	32762	32656	
1652	0	32820	32724	
1653	0	32810	32726	
1654	0	32804	32716	
1655	0	32806	32844	
1656	0	32796	32839	
1657	0	32792	32807	
1658	0	32816	32817	
1659	0	32868	32894	
1660	0	32832	32839	
1661	0	32820	32854	
1662	0	32856	32898	
1663	0	32924	32848	
1664	0	32853	32826	
1665	0	32916	32822	
1666	0	32878	32775	
1667	0	32848	32774	
1668	0	32744	32724	
1669	0	32738	32628	
1670	0	32695	32636	
1671	0	32736	32486	
1672	0	32696	32519	
1673	0	32676	32624	
1674	0	32666	32422	
1675	0	32640	32302	
1676	0	32644	32397	
1677	0	32676	32513	
1678	0	32688	32594	
1679	0	32782	32662	
1680	0	32840	32708	
1681	0	32812	32775	
1682	0	32874	32839	
1683	0	32846	32916	
1684	0	32864	32846	
1685	0	32826	32892	
1686	0	32828	32854	
1687	0	32964	32952	
1688	0	32926	32950	
1689	0	32924	32904	
1690	0	32868	32938	
1691	0	32920	32884	
1692	0	32828	32827	
1693	0	32884	32821	
1694	0	32902	32930	
1695	0	32892	32908	
1696	0	32900	32866	
1697	0	32876	32756	
1698	0	32858	32702	
1699	0	32876	32708	
1700	0	32852	32775	
1701	0	32816	32722	
1702	0	32838	32786	
1703	0	32828	32834	
1704	0	32752	32682	
1705	0	32864	32656	
1706	0	32808	32706	
1707	0	32828	32790	
1708	0	32826	32802	
1709	0	32758	32774	
1710	0	32824	32716	
1711	0	32786	32804	
1712	0	32834	32692	
1713	0	32802	32698	
1714	0	32748	32850	
1715	0	32852	32842	
1716	0	32780	32768	
1717	0	32724	32799	
1718	0	32744	32828	
1719	0	32836	32736	
1720	0	32783	32736	
1721	0	32828	32807	
1722	0	32794	32792	
1723	0	32800	32752	
1724	0	32774	32796	
1725	0	32796	32724	
1726	0	32786	32712	
1727	0	32768	32744	
1728	0	32820	32794	
1729	0	32884	32768	
1730	0	32852	32758	
1731	0	32872	32830	
1732	0	32836	32742	
1733	0	32800	32711	
1734	0	32852	32775	
1735	0	32800	32792	
1736	0	32858	32810	
1737	0	32832	32830	
1738	0	32752	32792	
1739	0	32832	32700	
1740	0	32864	32752	
1741	0	32824	32623	
1742	0	32813	32775	
1743	0	32824	32830	
1744	0	32776	32836	
1745	0	32764	32762	
1746	0	32814	32751	
1747	0	32830	32830	
1748	0	32830	32798	
1749	0	32820	32828	
1750	0	32752	32708	
1751	0	32856	32756	
1752	0	32854	32804	
1753	0	32816	32750	
1754	0	32848	32792	
1755	0	32756	32804	
1756	0	32860	32703	
1757	0	32800	32890	
1758	0	32832	32815	
1759	0	32804	32663	
1760	0	32792	32698	
1761	0	32804	32757	
1762	0	32806	32727	
1763	0	32764	32840	
1764	0	32796	32796	
1765	0	32800	32726	
1766	0	32756	32647	
1767	0	32812	32638	
1768	0	32844	32846	
1769	0	32836	32856	
1770	0	32854	32808	
1771	0	32766	32698	
1772	0	32884	32836	
1773	0	32778	32768	
1774	0	32802	32646	
1775	0	32790	32718	
1776	0	32812	32812	
1777	0	32804	32772	
1778	0	32856	32828	
1779	0	32768	32732	
1780	0	32784	32742	
1781	0	32826	32830	
1782	0	32772	32734	
1783	0	32778	32839	
1784	0	32872	32746	
1785	0	32768	32793	
1786	0	32808	32677	
1787	0	32818	32695	
1788	0	32818	32714	
1789	0	32812	32654	
1790	0	32832	32716	
1791	0	32792	32832	
1792	0	32824	32798	
1793	0	32784	32774	
1794	0	32768	32775	
1795	0	32860	32764	
1796	0	32814	32864	
1797	0	32792	32846	
1798	0	32808	32743	
1799	0	32824	32654	
1800	0	32824	32766	
1801	0	32720	32682	
1802	0	32794	32732	
1803	0	32868	32820	
1804	0	32746	32775	
1805	0	32824	32726	
1806	0	32804	32686	
1807	0	32768	32871	
1808	0	32880	32794	
1809	0	32828	32772	
1810	0	32820	32762	
1811	0	32868	32833	
1812	0	32800	32786	
1813	0	32804	32686	
1814	0	32816	32860	
1815	0	32868	32756	
1816	0	32816	32810	
1817	0	32938	32799	
1818	0	32788	32710	
1819	0	32776	32775	
1820	0	32800	32792	
1821	0	32784	32870	
1822	0	32874	32796	
1823	0	32872	32775	
1824	0	32798	32812	
1825	0	32782	32854	
1826	0	32760	32659	
1827	0	32790	32720	
1828	0	32774	32824	
1829	0	32864	32754	
1830	0	32868	32772	
1831	0	32846	32814	
1832	0	32794	32812	
1833	0	32812	32716	
1834	0	32796	32720	
1835	0	32782	32689	
1836	0	32784	32822	
1837	0	32853	32806	
1838	0	32804	32759	
1839	0	32800	32826	
1840	0	32868	32839	
1841	0	32768	32682	
1842	0	32824	32707	
1843	0	32761	32822	
1844	0	32846	32818	
1845	0	32880	32730	
1846	0	32868	32892	
1847	0	32798	32752	
1848	0	32768	32660	
1849	0	32778	32678	
1850	0	32860	32842	
1851	0	32748	32826	
1852	0	32820	32799	
1853	0	32828	32794	
1854	0	32828	32785	
1855	0	32856	32802	
1856	0	32824	32752	
1857	0	32798	32724	
1858	0	32824	32863	
1859	0	32854	32812	
1860	0	32832	32766	
1861	0	32770	32760	
1862	0	32796	32852	
1863	0	32790	32698	
1864	0	32784	32688	
1865	0	32804	32900	
1866	0	32846	32870	
1867	0	32804	32862	
1868	0	32900	32775	
1869	0	32850	32818	
1870	0	32772	32702	
1871	0	32740	32686	
1872	0	32796	32774	
1873	0	32858	32714	
1874	0	32772	32866	
1875	0	32852	32832	
1876	0	32780	32758	
1877	0	32810	32796	
1878	0	32812	32775	
1879	0	32860	32800	
1880	0	32824	32732	
1881	0	32790	32860	
1882	0	32830	32746	
1883	0	32832	32790	
1884	0	32796	32775	
1885	0	32812	32728	
1886	0	32782	32670	
1887	0	32848	32712	
1888	0	32896	32894	
1889	0	32752	32775	
1890	0	32792	32774	
1891	0	32846	32775	
1892	0	32836	32794	
1893	0	32736	32826	
1894	0	32834	32710	
1895	0	32864	32696	
1896	0	32860	32730	
1897	0	32754	32799	
1898	0	32776	32743	
1899	0	32824	32761	
1900	0	32808	32806	
1901	0	32808	32838	
1902	0	32802	32844	
1903	0	32780	32832	
1904	0	32786	32754	
1905	0	32764	32708	
1906	0	32808	32752	
1907	0	32806	32692	
1908	0	32880	32744	
1909	0	32768	32698	
1910	0	32784	32754	
1911	0	32770	32764	
1912	0	32744	32811	
1913	0	32816	32718	
1914	0	32860	32796	
1915	0	32874	32804	
1916	0	32884	32804	
1917	0	32760	32748	
1918	0	32824	32684	
1919	0	32784	32708	
1920	0	32812	32851	
1921	0	32897	32836	
1922	0	32852	32768	
1923	0	32856	32728	
1924	0	32858	32848	
1925	0	32776	32807	
1926	0	32822	32726	
1927	0	32822	32774	
1928	0	32768	32718	
1929	0	32862	32775	
1930	0	32868	32712	
1931	0	32808	32718	
1932	0	32704	32760	
1933	0	32761	32758	
1934	0	32832	32804	
1935	0	32870	32812	
1936	0	32836	32791	
1937	0	32816	32741	
1938	0	32816	32682	
1939	0	32774	32691	
1940	0	32808	32790	
1941	0	32826	32764	
1942	0	32780	32800	
1943	0	32784	32751	
1944	0	32844	32826	
1945	0	32860	32796	
1946	0	32766	32810	
1947	0	32788	32772	
1948	0	32766	32756	
1949	0	32820	32726	
1950	0	32856	32718	
1951	0	32864	32716	
1952	0	32771	32804	
1953	0	32780	32846	
1954	0	32788	32764	
1955	0	32768	32834	
1956	0	32828	32806	
1957	0	32854	32676	
1958	0	32832	32716	
1959	0	32790	32742	
1960	0	32816	32834	
1961	0	32818	32790	
1962	0	32784	32824	
1963	0	32836	32814	
1964	0	32808	32711	
1965	0	32784	32687	
1966	0	32836	32798	
1967	0	32818	32820	
1968	0	32808	32756	
1969	0	32822	32738	
1970	0	32830	32736	
1971	0	32869	32664	
1972	0	32904	32704	
1973	0	32852	32804	
1974	0	32836	32790	
1975	0	32774	32804	
1976	0	32826	32798	
1977	0	32830	32752	
1978	0	32776	32728	
1979	0	32788	32865	
1980	0	32818	32804	
1981	0	32832	32784	
1982	0	32768	32694	
1983	0	32818	32836	
1984	0	32766	32790	
1985	0	32788	32766	
1986	0	32854	32817	
1987	0	32882	32754	
1988	0	32838	32844	
1989	0	32800	32714	
1990	0	32804	32706	
1991	0	32786	32658	
1992	0	32816	32820	
1993	0	32760	32880	
1994	0	32832	32724	
1995	0	32828	32784	
1996	0	32860	32854	
1997	0	32780	32722	
1998	0	32773	32674	
1999	0	32842	32775	
2000	0	32788	32743	
2001	0	32820	32850	
2002	0	32812	32774	
2003	0	32796	32775	
2004	0	32800	32790	
2005	0	32840	32844	
2006	0	32782	32774	
2007	0	32780	32782	
2008	0	32832	32663	
2009	0	32886	32636	
2010	0	32812	32839	
2011	0	32820	32796	
2012	0	32828	32796	
2013	0	32784	32796	
2014	0	32836	32737	
2015	0	32786	32688	
2016	0	32822	32831	
2017	0	32866	32864	
2018	0	32828	32724	
2019	0	32824	32742	
2020	0	32780	32822	
2021	0	32822	32798	
2022	0	32812	32838	
2023	0	32788	32716	
2024	0	32822	32686	
2025	0	32808	32866	
2026	0	32824	32800	
2027	0	32775	32800	
2028	0	32852	32818	
2029	0	32778	32812	
2030	0	32848	32772	
2031	0	32792	32657	
2032	0	32834	32682	
2033	0	32812	32876	
2034	0	32828	32742	
2035	0	32836	32760	
2036	0	32864	32792	
2037	0	32828	32766	
2038	0	32744	32770	
2039	0	32824	32846	
2040	0	32762	32775	
2041	0	32828	32708	
2042	0	32832	32732	
2043	0	32848	32876	
2044	0	32820	32791	
2045	0	32788	32740	
2046	0	32834	32775	
2047	0	32788	32862	
2048	0	32748	32808	
2049	0	32776	32702	
2050	0	32834	32754	
2051	0	32830	32740	
2052	0	32840	32862	
2053	0	32826	32802	
2054	0	32768	32844	
2055	0	32744	32740	
2056	0	32846	32850	
2057	0	32800	32742	
2058	0	32852	32678	
2059	0	32824	32812	
2060	0	32798	32742	
2061	0	32836	32824	
2062	0	32800	32771	
2063	0	32840	32700	
2064	0	32802	32770	
2065	0	32830	32758	
2066	0	32836	32796	
2067	0	32810	32784	
2068	0	32836	32775	
2069	0	32862	32702	
2070	0	32772	32684	
2071	0	32808	32748	
2072	0	32850	32860	
2073	0	32790	32693	
2074	0	32808	32660	
2075	0	32820	32794	
2076	0	32796	32756	
2077	0	32868	32775	
2078	0	32840	32812	
2079	0	32784	32816	
2080	0	32808	32686	
2081	0	32798	32871	
2082	0	32816	32808	
2083	0	32752	32810	
2084	0	32820	32775	
2085	0	32884	32720	
2086	0	32852	32839	
2087	0	32864	32718	
2088	0	32832	32790	
2089	0	32800	32719	
2090	0	32832	32662	
2091	0	32830	32775	
2092	0	32830	32814	
2093	0	32828	32850	
2094	0	32888	32796	
2095	0	32816	32775	
2096	0	32820	32786	
2097	0	32774	32816	
2098	0	32804	32760	
2099	0	32796	32734	
2100	0	32781	32706	
2101	0	32792	32752	
2102	0	32800	32804	
2103	0	32832	32766	
2104	0	32834	32790	
2105	0	32766	32808	
2106	0	32808	32721	
2107	0	32812	32711	
2108	0	32824	32770	
2109	0	32796	32762	
2110	0	32804	32748	
2111	0	32828	32806	
2112	0	32876	32792	
2113	0	32748	32640	
2114	0	32844	32700	
2115	0	32920	32775	
2116	0	32856	32731	
2117	0	32764	32812	
2118	0	32794	32775	
2119	0	32762	32782	
2120	0	32800	32798	
2121	0	32812	32808	
2122	0	32872	32798	
2123	0	32830	32686	
2124	0	32821	32718	
2125	0	32798	32799	
2126	0	32746	32839	
2127	0	32826	32860	
2128	0	32784	32758	
2129	0	32833	32762	
2130	0	32718	32768	
2131	0	32784	32754	
2132	0	32836	32672	
2133	0	32836	32816	
2134	0	32824	32768	
2135	0	32852	32734	
2136	0	32804	32764	
2137	0	32828	32934	
2138	0	32842	32784	
2139	0	32764	32743	
2140	0	32868	32734	
2141	0	32816	32774	
2142	0	32808	32847	
2143	0	32808	32775	
2144	0	32804	32706	
2145	0	32804	32812	
2146	0	32836	32790	
2147	0	32794	32754	
2148	0	32848	32700	
2149	0	32812	32663	
2150	0	32828	32752	
2151	0	32800	32846	
2152	0	32762	32738	
2153	0	32848	32756	
2154	0	32826	32852	
2155	0	32760	32722	
2156	0	32888	32740	
2157	0	32832	32694	
2158	0	32860	32708	
2159	0	32776	32839	
2160	0	32816	32747	
2161	0	32848	32775	
2162	0	32776	32838	
2163	0	32832	32775	
2164	0	32872	32792	
2165	0	32816	32734	
2166	0	32784	32775	
2167	0	32746	32824	
2168	0	32818	32775	
2169	0	32796	32868	
2170	0	32842	32774	
2171	0	32764	32775	
2172	0	32812	32830	
2173	0	32816	32718	
2174	0	32798	32676	
2175	0	32824	32838	
2176	0	32788	32722	
2177	0	32764	32728	
2178	0	32840	32807	
2179	0	32728	32900	
2180	0	32808	32748	
2181	0	32774	32668	
2182	0	32808	32746	
2183	0	32784	32892	
2184	0	32826	32719	
2185	0	32764	32710	
2186	0	32860	32775	
2187	0	32820	32676	
2188	0	32812	32772	
2189	0	32808	32716	
2190	0	32868	32898	
2191	0	32800	32828	
2192	0	32812	32768	
2193	0	32888	32775	
2194	0	32828	32790	
2195	0	32778	32820	
2196	0	32822	32744	
2197	0	32812	32750	
2198	0	32760	32736	
2199	0	32792	32732	
2200	0	32768	32868	
2201	0	32850	32854	
2202	0	32892	32702	
2203	0	32840	32834	
2204	0	32804	32718	
2205	0	32802	32883	
2206	0	32756	32752	
2207	0	32822	32679	
2208	0	32874	32756	
2209	0	32764	32800	
2210	0	32804	32806	
2211	0	32786	32770	
2212	0	32820	32818	
2213	0	32786	32766	
2214	0	32842	32792	
2215	0	32812	32698	
2216	0	32792	32692	
2217	0	32816	32910	
2218	0	32756	32866	
2219	0	32866	32743	
2220	0	32862	32820	
2221	0	32826	32820	
2222	0	32808	32744	
2223	0	32774	32684	
2224	0	32840	32844	
2225	0	32808	32754	
2226	0	32868	32796	
2227	0	32756	32806	
2228	0	32864	32698	
2229	0	32828	32718	
2230	0	32798	32702	
2231	0	32816	32784	
2232	0	32820	32752	
2233	0	32820	32797	
2234	0	32779	32834	
2235	0	32834	32814	
2236	0	32794	32674	
2237	0	32784	32864	
2238	0	32732	32815	
2239	0	32752	32742	
2240	0	32834	32826	
2241	0	32832	32842	
2242	0	32776	32885	
2243	0	32868	32897	
2244	0	32778	32672	
2245	0	32812	32844	
2246	0	32880	32775	
2247	0	32784	32747	
2248	0	32844	32768	
2249	0	32880	32762	
2250	0	32764	32767	
2251	0	32900	32686	
2252	0	32832	32666	
2253	0	32766	32690	
2254	0	32854	32822	
2255	0	32800	32722	
2256	0	32800	32759	
2257	0	32798	32774	
2258	0	32828	32682	
2259	0	32860	32775	
2260	0	32812	32866	
2261	0	32814	32836	
2262	0	32798	32763	
2263	0	32792	32839	
2264	0	32838	32799	
2265	0	32814	32687	
2266	0	32810	32724	
2267	0	32816	32775	
2268	0	32864	32772	
2269	0	32760	32746	
2270	0	32855	32744	
2271	0	32820	32702	
2272	0	32812	32760	
2273	0	32868	32730	
2274	0	32824	32788	
2275	0	32800	32775	
2276	0	32854	32798	
2277	0	32788	32704	
2278	0	32792	32799	
2279	0	32840	32840	
2280	0	32836	32799	
2281	0	32794	32834	
2282	0	32760	32788	
2283	0	32756	32722	
2284	0	32810	32806	
2285	0	32802	32807	
2286	0	32782	32846	
2287	0	32776	32806	
2288	0	32834	32694	
2289	0	32828	32761	
2290	0	32800	32856	
2291	0	32798	32762	
2292	0	32832	32684	
2293	0	32826	32824	
2294	0	32830	32838	
2295	0	32808	32663	
2296	0	32828	32647	
2297	0	32742	32727	
2298	0	32836	32812	
2299	0	32870	32748	
2300	0	32812	32832	
2301	0	32780	32705	
2302	0	32804	32695	
2303	0	32838	32720	
2304	0	32820	32832	
2305	0	32804	32756	
2306	0	32840	32798	
2307	0	32836	32724	
2308	0	32798	32736	
2309	0	32862	32826	
2310	0	32838	32764	
2311	0	32738	32736	
2312	0	32796	32791	
2313	0	32806	32700	
2314	0	32858	32700	
2315	0	32852	32775	
2316	0	32796	32768	
2317	0	32800	32823	
2318	0	32770	32728	
2319	0	32828	32810	
2320	0	32756	32795	
2321	0	32798	32700	
2322	0	32824	32828	
2323	0	32828	32736	
2324	0	32878	32702	
2325	0	32820	32855	
2326	0	32846	32834	
2327	0	32884	32764	
2328	0	32816	32806	
2329	0	32846	32790	
2330	0	32776	32899	
2331	0	32804	32788	
2332	0	32860	32775	
2333	0	32786	32788	
2334	0	32882	32752	
2335	0	32820	32814	
2336	0	32796	32718	
2337	0	32820	32796	
2338	0	32764	32775	
2339	0	32888	32716	
2340	0	32844	32830	
2341	0	32804	32775	
2342	0	32732	32694	
2343	0	32838	32820	
2344	0	32812	32790	
2345	0	32780	32888	
2346	0	32858	32830	
2347	0	32894	32840	
2348	0	32816	32876	
2349	0	32880	32852	
2350	0	32906	32858	
2351	0	32906	32888	
2352	0	32818	32919	
2353	0	32884	32928	
2354	0	32842	32816	
2355	0	32848	32848	
2356	0	32752	32692	
2357	0	32756	32682	
2358	0	32728	32532	
2359	0	32594	32536	
2360	0	32716	32486	
2361	0	32680	32534	
2362	0	32616	32486	
2363	0	32612	32422	
2364	0	32652	32474	
2365	0	32698	32598	
2366	0	32784	32798	
2367	0	32788	32700	
2368	0	32804	32692	
2369	0	32856	32806	
2370	0	32852	32770	
2371	0	32832	32842	
2372	0	32906	32839	
2373	0	32900	32919	
2374	0	32904	32903	
2375	0	32868	32874	
2376	0	32868	32920	
2377	0	32920	32980	
2378	0	32840	32864	
2379	0	32856	32936	
2380	0	32930	32857	
2381	0	32898	32896	
2382	0	32810	32772	
2383	0	32910	32775	
2384	0	32804	32858	
2385	0	32868	32850	
2386	0	32830	32896	
2387	0	32776	32802	
2388	0	32812	32760	
2389	0	32912	32694	
2390	0	32808	32736	
2391	0	32828	32814	
2392	0	32790	32742	
2393	0	32872	32828	
2394	0	32826	32770	
2395	0	32812	32746	
2396	0	32740	32638	
2397	0	32780	32793	
2398	0	32726	32790	
2399	0	32820	32738	
2400	0	32848	32790	
2401	0	32836	32764	
2402	0	32784	32706	
2403	0	32794	32855	
2404	0	32820	32842	
2405	0	32826	32738	
2406	0	32780	32810	
2407	0	32800	32806	
2408	0	32816	32720	
2409	0	32842	32708	
2410	0	32808	32702	
2411	0	32760	32806	
2412	0	32842	32756	
2413	0	32752	32746	
2414	0	32838	32838	
2415	0	32836	32766	
2416	0	32778	32727	
2417	0	32824	32748	
2418	0	32794	32830	
2419	0	32808	32765	
2420	0	32794	32762	
2421	0	32780	32788	
2422	0	32816	32750	
2423	0	32777	32730	
2424	0	32818	32769	
2425	0	32840	32775	
2426	0	32820	32802	
2427	0	32884	32696	
2428	0	32720	32734	
2429	0	32858	32756	
2430	0	32828	32894	
2431	0	32832	32775	
2432	0	32864	32678	
2433	0	32812	32692	
2434	0	32824	32726	
2435	0	32796	32770	
2436	0	32866	32865	
2437	0	32788	32756	
2438	0	32776	32894	
2439	0	32872	32774	
2440	0	32836	32752	
2441	0	32834	32882	
2442	0	32848	32701	
2443	0	32804	32702	
2444	0	32788	32760	
2445	0	32764	32722	
2446	0	32810	32734	
2447	0	32796	32796	
2448	0	32864	32847	
2449	0	32868	32764	
2450	0	32788	32820	
2451	0	32802	32760	
2452	0	32884	32764	
2453	0	32798	32743	
2454	0	32784	32718	
2455	0	32872	32743	
2456	0	32790	32641	
2457	0	32824	32832	
2458	0	32830	32724	
2459	0	32840	32818	
2460	0	32768	32847	
2461	0	32766	32650	
2462	0	32794	32728	
2463	0	32784	32826	
2464	0	32788	32878	
2465	0	32848	32848	
2466	0	32804	32844	
2467	0	32792	32800	
2468	0	32808	32684	
2469	0	32776	32814	
2470	0	32830	32799	
2471	0	32834	32760	
2472	0	32754	32871	
2473	0	32822	32764	
2474	0	32808	32722	
2475	0	32844	32768	
2476	0	32816	32766	
2477	0	32792	32775	
2478	0	32776	32742	
2479	0	32784	32870	
2480	0	32866	32770	
2481	0	32792	32714	
2482	0	32772	32706	
2483	0	32784	32804	
2484	0	32808	32775	
2485	0	32832	32769	
2486	0	32852	32762	
2487	0	32822	32721	
2488	0	32866	32692	
2489	0	32828	32848	
2490	0	32824	32772	
2491	0	32836	32799	
2492	0	32812	32673	
2493	0	32814	32679	
2494	0	32784	32764	
2495	0	32836	32774	
2496	0	32824	32743	
2497	0	32764	32775	
2498	0	32855	32886	
2499	0	32864	32824	
2500	0	32828	32704	
2501	0	32776	32775	
2502	0	32754	32812	
2503	0	32792	32772	
2504	0	32800	32804	
2505	0	32852	32738	
2506	0	32864	32775	
2507	0	32884	32796	
2508	0	32842	32727	
2509	0	32798	32774	
2510	0	32812	32638	
2511	0	32816	32700	
2512	0	32820	32824	
2513	0	32782	32866	
2514	0	32844	32775	
2515	0	32846	32802	
2516	0	32784	32684	
2517	0	32804	32688	
2518	0	32796	32684	
2519	0	32838	32818	
2520	0	32824	32775	
2521	0	32820	32823	
2522	0	32868	32796	
2523	0	32808	32718	
2524	0	32842	32756	
2525	0	32768	32862	
2526	0	32830	32860	
2527	0	32808	32858	
2528	0	32804	32728	
2529	0	32814	32775	
2530	0	32820	32800	
2531	0	32848	32687	
2532	0	32834	32726	
2533	0	32804	32858	
2534	0	32814	32830	
2535	0	32792	32748	
2536	0	32804	32774	
2537	0	32756	32684	
2538	0	32839	32674	
2539	0	32744	32757	
2540	0	32836	32762	
2541	0	32836	32716	
2542	0	32834	32834	
2543	0	32774	32704	
2544	0	32820	32644	
2545	0	32732	32740	
2546	0	32832	32866	
2547	0	32820	32736	
2548	0	32816	32869	
2549	0	32776	32782	
2550	0	32840	32688	
2551	0	32742	32814	
2552	0	32760	32840	
2553	0	32844	32775	
2554	0	32788	32730	
2555	0	32840	32702	
2556	0	32816	32711	
2557	0	32796	32703	
2558	0	32764	32676	
2559	0	32892	32834	
2560	0	32810	32790	
2561	0	32834	32831	
2562	0	32808	32736	
2563	0	32832	32642	
2564	0	32816	32698	
2565	0	32836	32844	
2566	0	32786	32775	
2567	0	32848	32849	
2568	0	32824	32702	
2569	0	32876	32788	
2570	0	32812	32756	
2571	0	32836	32772	
2572	0	32760	32846	
2573	0	32856	32692	
2574	0	32816	32716	
2575	0	32792	32750	
2576	0	32884	32770	
2577	0	32808	32679	
2578	0	32775	32828	
2579	0	32840	32740	
2580	0	32823	32686	
2581	0	32792	32678	
2582	0	32856	32668	
2583	0	32824	32682	
2584	0	32806	32808	
2585	0	32792	32814	
2586	0	32786	32754	
2587	0	32814	32775	
2588	0	32764	32764	
2589	0	32798	32678	
2590	0	32808	32713	
2591	0	32820	32870	
2592	0	32816	32812	
2593	0	32788	32839	
2594	0	32834	32748	
2595	0	32794	32660	
2596	0	32772	32713	
2597	0	32828	32796	
2598	0	32768	32774	
2599	0	32832	32775	
2600	0	32782	32798	
2601	0	32760	32632	
2602	0	32800	32842	
2603	0	32816	32770	
2604	0	32820	32756	
2605	0	32776	32790	
2606	0	32816	32688	
2607	0	32874	32744	
2608	0	32810	32914	
2609	0	32840	32886	
2610	0	32868	32708	
2611	0	32812	32830	
2612	0	32734	32742	
2613	0	32802	32756	
2614	0	32766	32820	
2615	0	32836	32789	
2616	0	32828	32758	
2617	0	32816	32728	
2618	0	32754	32704	
2619	0	32768	32929	
2620	0	32808	32743	
2621	0	32780	32726	
2622	0	32792	32796	
2623	0	32790	32834	
2624	0	32836	32678	
2625	0	32814	32668	
2626	0	32818	32676	
2627	0	32828	32834	
2628	0	32804	32914	
2629	0	32804	32782	
2630	0	32822	32756	
2631	0	32748	32878	
2632	0	32828	32774	
2633	0	32804	32695	
2634	0	32848	32678	
2635	0	32894	32708	
2636	0	32880	32718	
2637	0	32794	32848	
2638	0	32788	32742	
2639	0	32844	32808	
2640	0	32780	32770	
2641	0	32732	32796	
2642	0	32780	32844	
2643	0	32822	32807	
2644	0	32792	32686	
2645	0	32766	32705	
2646	0	32816	32816	
2647	0	32826	32730	
2648	0	32882	32812	
2649	0	32880	32775	
2650	0	32828	32644	
2651	0	32832	32700	
2652	0	32832	32862	
2653	0	32848	32720	
2654	0	32844	32804	
2655	0	32804	32846	
2656	0	32766	32692	
2657	0	32848	32692	
2658	0	32792	32775	
2659	0	32756	32830	
2660	0	32856	32756	
2661	0	32816	32772	
2662	0	32788	32612	
2663	0	32916	32714	
2664	0	32816	32718	
2665	0	32878	32737	
2666	0	32761	32790	
2667	0	32904	32864	
2668	0	32814	32663	
2669	0	32718	32800	
2670	0	32804	32832	
2671	0	32836	32878	
2672	0	32788	32782	
2673	0	32818	32932	
2674	0	32788	32798	
2675	0	32774	32775	
2676	0	32814	32784	
2677	0	32792	32702	
2678	0	32808	32842	
2679	0	32840	32775	
2680	0	32852	32652	
2681	0	32750	32756	
2682	0	32782	32775	
2683	0	32768	32748	
2684	0	32868	32768	
2685	0	32784	32724	
2686	0	32788	32616	
2687	0	32780	32676	
2688	0	32775	32732	
2689	0	32870	32772	
2690	0	32808	32811	
2691	0	32770	32762	
2692	0	32774	32711	
2693	0	32766	32982	
2694	0	32800	32803	
2695	0	32862	32852	
2696	0	32780	32746	
2697	0	32792	32844	
2698	0	32760	32906	
2699	0	32788	32764	
2700	0	32852	32804	
2701	0	32808	32750	
2702	0	32808	32724	
2703	0	32794	32838	
2704	0	32768	32858	
2705	0	32815	32868	
2706	0	32826	32704	
2707	0	32838	32636	
2708	0	32804	32540	
2709	0	32796	32574	
2710	0	32740	32655	
2711	0	32760	32664	
2712	0	32766	32670	
2713	0	32788	32802	
2714	0	32806	32690	
2715	0	32794	32740	
2716	0	32842	32874	
2717	0	32796	32854	
2718	0	32870	32928	
2719	0	32816	33031	
2720	0	32830	32979	
2721	0	32832	32982	
2722	0	32824	32990	
2723	0	32802	32998	
2724	0	32798	32852	
2725	0	32820	32874	
2726	0	32792	32718	
2727	0	32824	32588	
2728	0	32784	32516	
2729	0	32734	32596	
2730	0	32820	32750	
2731	0	32808	32736	
2732	0	32822	32760	
2733	0	32792	32775	
2734	0	32748	32775	
2735	0	32774	32700	
2736	0	32780	32594	
2737	0	32830	32647	
2738	0	32788	32797	
2739	0	32774	32724	
2740	0	32724	32640	
2741	0	32764	32753	
2742	0	32872	32694	
2743	0	32736	32583	
2744	0	32824	32660	
2745	0	32786	32803	
2746	0	32808	32774	
2747	0	32822	32684	
2748	0	32900	32772	
2749	0	32776	32642	
2750	0	32760	32736	
2751	0	32824	32847	
2752	0	32828	32734	
2753	0	32856	32720	
2754	0	32738	32768	
2755	0	32768	32684	
2756	0	32780	32670	
2757	0	32786	32708	
2758	0	32748	32826	
2759	0	32746	32702	
2760	0	32844	32823	
2761	0	32786	32775	
2762	0	32744	32692	
2763	0	32820	32750	
2764	0	32800	32775	
2765	0	32800	32684	
2766	0	32848	32830	
2767	0	32824	32832	
2768	0	32810	32775	
2769	0	32848	32711	
2770	0	32834	32736	
2771	0	32822	32808	
2772	0	32845	32806	
2773	0	32812	32794	
2774	0	32814	32748	
2775	0	32796	32775	
2776	0	32792	32716	
2777	0	32802	32823	
2778	0	32776	32785	
2779	0	32776	32794	
2780	0	32742	32718	
2781	0	32830	32743	
2782	0	32724	32734	
2783	0	32834	32821	
2784	0	32790	32720	
2785	0	32852	32638	
2786	0	32838	32694	
2787	0	32834	32692	
2788	0	32792	32658	
2789	0	32832	32694	
2790	0	32780	32958	
2791	0	32846	32998	
2792	0	32816	32938	
2793	0	32768	32932	
2794	0	32788	32756	
2795	0	32760	32775	
2796	0	32780	32780	
2797	0	32844	32968	
2798	0	32636	32884	
2799	0	32840	32932	
2800	0	32856	32748	
2801	0	32826	32636	
2802	0	32812	32762	
2803	0	32920	32626	
2804	0	32840	32726	
2805	0	32772	32612	
2806	0	32728	32606	
2807	0	32784	32746	
2808	0	32750	32839	
2809	0	32804	32775	
2810	0	32812	32870	
2811	0	32796	32854	
2812	0	32834	32836	
2813	0	32760	32855	
2814	0	32856	32918	
2815	0	32816	32804	
2816	0	32786	32870	
2817	0	32750	32908	
2818	0	32720	32796	
2819	0	32812	32767	
2820	0	32824	32740	
2821	0	32860	32718	
2822	0	32830	32842	
2823	0	32768	32759	
2824	0	32800	32624	
2825	0	32754	32570	
2826	0	32804	32414	
2827	0	32766	32340	
2828	0	32810	32431	
2829	0	32844	32551	
2830	0	32850	32471	
2831	0	32818	32500	
2832	0	32802	32775	
2833	0	32800	32807	
2834	0	32788	32768	
2835	0	32834	32870	
2836	0	32776	32983	
2837	0	32788	32986	
2838	0	32738	33022	
2839	0	32828	32935	
2840	0	32866	32978	
2841	0	32776	33022	
2842	0	32832	32752	
2843	0	32760	32759	
2844	0	32816	32936	
2845	0	32760	32928	
2846	0	32760	33010	
2847	0	32800	32880	
2848	0	32848	32808	
2849	0	32848	32748	
2850	0	32816	32888	
2851	0	32892	32775	
2852	0	32804	32852	
2853	0	32820	32732	
2854	0	32816	32770	
2855	0	32796	32822	
2856	0	32768	32638	
2857	0	32712	32686	
2858	0	32700	32614	
2859	0	32818	32499	
2860	0	32824	32620	
2861	0	32816	32578	
2862	0	32852	32533	
2863	0	32868	32452	
2864	0	32888	32452	
2865	0	32828	32622	
2866	0	32858	32647	
2867	0	32856	32790	
2868	0	32828	32846	
2869	0	32775	32910	
2870	0	32816	32858	
2871	0	32844	32982	
2872	0	32856	33104	
2873	0	32922	33026	
2874	0	32864	33018	
2875	0	32852	32902	
2876	0	32850	32830	
2877	0	32806	32840	
2878	0	32758	32860	
2879	0	32800	32758	
2880	0	32820	32686	
2881	0	32770	32636	
2882	0	32756	32775	
2883	0	32760	32711	
2884	0	32814	32718	
2885	0	32810	32650	
2886	0	32846	32678	
2887	0	32848	32538	
2888	0	32936	32616	
2889	0	32832	32604	
2890	0	32884	32540	
2891	0	32794	32716	
2892	0	32788	32818	
2893	0	32800	32760	
2894	0	32788	32852	
2895	0	32764	32756	
2896	0	32772	32724	
2897	0	32704	32986	
2898	0	32734	32872	
2899	0	32696	32990	
2900	0	32768	32792	
2901	0	32776	32924	
2902	0	32714	32775	
2903	0	32788	32672	
2904	0	32764	32622	
2905	0	32708	32620	
2906	0	32730	32562	
2907	0	32756	32503	
2908	0	32717	32639	
2909	0	32686	32548	
2910	0	32750	32666	
2911	0	32708	32546	
2912	0	32706	32550	
2913	0	32636	32700	
2914	0	32628	32668	
2915	0	32700	32914	
2916	0	32676	32952	
2917	0	32740	32944	
2918	0	32764	33031	
2919	0	32760	32912	
2920	0	32868	32774	
2921	0	32722	32673	
2922	0	32840	32738	
2923	0	32928	32660	
2924	0	32830	32647	
2925	0	32876	32724	
2926	0	32798	32678	
2927	0	32792	32775	
2928	0	32852	32666	
2929	0	32708	32786	
2930	0	32736	32822	
2931	0	32872	32926	
2932	0	32814	32975	
2933	0	32892	33044	
2934	0	32848	32954	
2935	0	32844	33014	
2936	0	32858	32918	
2937	0	32846	32878	
2938	0	32758	32742	
2939	0	32802	32670	
2940	0	32832	32682	
2941	0	32970	32814	
2942	0	32924	32788	
2943	0	32832	32742	
2944	0	32784	32464	
2945	0	32804	32478	
2946	0	32768	32464	
2947	0	32854	32542	
2948	0	32860	32568	
2949	0	32870	32580	
2950	0	32920	32682	
2951	0	32830	32663	
2952	0	32840	32775	
2953	0	32880	33006	
2954	0	32914	33023	
2955	0	32916	32874	
2956	0	32838	32892	
2957	0	32832	32981	
2958	0	32741	32926	
2959	0	32769	32983	
2960	0	32760	32810	
2961	0	32736	32863	
2962	0	32718	32823	
2963	0	32690	32752	
2964	0	32664	32672	
2965	0	32794	32576	
2966	0	32772	32580	
2967	0	32718	32731	
2968	0	32816	32452	
2969	0	32808	32486	
2970	0	32896	32588	
2971	0	32854	32561	
2972	0	32868	32718	
2973	0	32736	32894	
2974	0	32844	32981	
2975	0	32868	33154	
2976	0	32804	33198	
2977	0	32858	33190	
2978	0	32814	33108	
2979	0	32782	33200	
2980	0	32826	33082	
2981	0	32834	33008	
2982	0	32760	32954	
2983	0	32864	32789	
2984	0	32812	32630	
2985	0	32742	32722	
2986	0	32824	32696	
2987	0	32772	32615	
2988	0	32752	32588	
2989	0	32856	32449	
2990	0	32884	32446	
2991	0	32836	32636	
2992	0	32780	32622	
2993	0	32758	32532	
2994	0	32759	32652	
2995	0	32756	32726	
2996	0	32768	32799	
2997	0	32744	32879	
2998	0	32768	32938	
2999	0	32728	32896	
3000	0	32740	32798	
3001	0	32744	32830	
3002	0	32848	32598	
3003	0	32852	32708	
3004	0	32800	32478	
3005	0	32772	32494	
3006	0	32856	32519	
3007	0	32944	32560	
3008	0	32860	32728	
3009	0	32820	32748	
3010	0	32868	32720	
3011	0	32775	32686	
3012	0	32638	32744	
3013	0	32764	32967	
3014	0	32816	33094	
3015	0	32834	32964	
3016	0	32788	33006	
3017	0	32748	32982	
3018	0	32684	32908	
3019	0	32710	32868	
3020	0	32718	32940	
3021	0	32740	32846	
3022	0	32752	32676	
3023	0	32692	32642	
3024	0	32810	32686	
3025	0	32846	32724	
3026	0	32868	32704	
3027	0	32858	32583	
3028	0	32900	32392	
3029	0	32914	32250	
3030	0	32846	32296	
3031	0	32836	32430	
3032	0	32844	32434	
3033	0	32858	32444	
3034	0	32846	32616	
3035	0	32808	32764	
3036	0	32856	32852	
3037	0	32770	33154	
3038	0	32796	33204	
3039	0	32740	33392	
3040	0	32692	33356	
3041	0	32680	33180	
3042	0	32770	33140	
3043	0	32856	33050	
3044	0	32788	33038	
3045	0	32888	33016	
3046	0	32864	32982	
3047	0	32902	32788	
3048	0	32976	32679	
3049	0	32908	32718	
3050	0	32906	32828	
3051	0	32932	32828	
3052	0	32990	32762	
3053	0	32964	32628	
3054	0	32924	32574	
3055	0	32832	32540	
3056	0	32728	32464	
3057	0	32696	32462	
3058	0	32604	32318	
3059	0	32558	32335	
3060	0	32462	32256	
3061	0	32610	32366	
3062	0	32616	32414	
3063	0	32538	32222	
3064	0	32640	32384	
3065	0	32638	32308	
3066	0	32772	32550	
3067	0	32900	32678	
3068	0	32888	32796	
3069	0	32964	32988	
3070	0	32966	33140	
3071	0	33012	33172	
3072	0	32904	33100	
3073	0	32862	33050	
3074	0	32776	33080	
3075	0	32896	32972	
3076	0	32916	32876	
3077	0	32912	32998	
3078	0	33028	32871	
3079	0	33112	32794	
3080	0	33118	32879	
3081	0	32994	32766	
3082	0	32924	32824	
3083	0	32792	32898	
3084	0	32810	32800	
3085	0	32884	32690	
3086	0	32884	32630	
3087	0	32720	32660	
3088	0	32762	32606	
3089	0	32720	32494	
3090	0	32706	32446	
3091	0	32762	32430	
3092	0	32712	32486	
3093	0	32748	32650	
3094	0	32824	32739	
3095	0	32752	32871	
3096	0	32794	33072	
3097	0	32856	32983	
3098	0	32904	32900	
3099	0	32904	32976	
3100	0	32856	32864	
3101	0	32802	32708	
3102	0	32728	32738	
3103	0	32680	32708	
3104	0	32782	32591	
3105	0	32766	32614	
3106	0	32816	32742	
3107	0	32906	32775	
3108	0	32962	32900	
3109	0	32912	32895	
3110	0	32960	32944	
3111	0	32912	32919	
3112	0	32872	32874	
3113	0	32852	32775	
3114	0	32706	32668	
3115	0	32730	32500	
3116	0	32842	32388	
3117	0	32772	32494	
3118	0	32920	32608	
3119	0	32872	32644	
3120	0	32836	32751	
3121	0	32818	32878	
3122	0	32890	33031	
3123	0	32844	32988	
3124	0	32804	33050	
3125	0	32816	32944	
3126	0	32702	32862	
3127	0	32758	32834	
3128	0	32668	32668	
3129	0	32732	32550	
3130	0	32752	32608	
3131	0	32806	32615	
3132	0	32848	32752	
3133	0	32758	32734	
3134	0	32844	32840	
3135	0	32906	32992	
3136	0	32914	32938	
3137	0	32786	32796	
3138	0	32856	32790	
3139	0	32920	32738	
3140	0	32832	32775	
3141	0	32756	32806	
3142	0	32722	32772	
3143	0	32778	32732	
3144	0	32952	32738	
3145	0	32822	32623	
3146	0	32748	32671	
3147	0	32800	32665	
3148	0	32716	32662	
3149	0	32808	32812	
3150	0	32848	32800	
3151	0	32720	32820	
3152	0	32804	32854	
3153	0	32772	32826	
3154	0	32868	32798	
3155	0	32770	32658	
3156	0	32884	32718	
3157	0	32852	32713	
3158	0	32840	32646	
3159	0	32700	32647	
3160	0	32636	32644	
3161	0	32652	32678	
3162	0	32772	32732	
3163	0	32776	32768	
3164	0	32836	32752	
3165	0	32768	32748	
3166	0	32696	32816	
3167	0	32740	32798	
3168	0	32716	32849	
3169	0	32842	32878	
3170	0	32812	32852	
3171	0	32910	32984	
3172	0	32878	32868	
3173	0	32850	32788	
3174	0	32800	32674	
3175	0	32800	32634	
3176	0	32886	32754	
3177	0	32952	32647	
3178	0	32896	32580	
3179	0	32916	32530	
3180	0	32916	32620	
3181	0	32796	32556	
3182	0	32720	32526	
3183	0	32792	32775	
3184	0	32820	32996	
3185	0	32842	33127	
3186	0	32896	33172	
3187	0	32864	33214	
3188	0	32840	33000	
3189	0	32828	33038	
3190	0	32836	32786	
3191	0	32854	32828	
3192	0	32760	32760	
3193	0	32884	32735	
3194	0	32821	32734	
3195	0	32860	32714	
3196	0	32708	32615	
3197	0	32722	32670	
3198	0	32750	32872	
3199	0	32736	32892	
3200	0	32632	33030	
3201	0	32672	32984	
3202	0	32652	33064	
3203	0	32738	32858	
3204	0	32804	32775	
3205	0	32824	32729	
3206	0	32804	32666	
3207	0	32896	32668	
3208	0	32936	32630	
3209	0	33032	32538	
3210	0	32980	32654	
3211	0	32882	32550	
3212	0	32954	32668	
3213	0	32868	32396	
3214	0	32964	32245	
3215	0	33040	32376	
3216	0	33120	32400	
3217	0	32800	32604	
3218	0	32544	32736	
3219	0	32496	32844	
3220	0	32424	32900	
3221	0	32304	32820	
3222	0	32516	32980	
3223	0	32708	33143	
3224	0	32652	32984	
3225	0	32804	32938	
3226	0	32868	32903	
3227	0	32848	32876	
3228	0	32896	32860	
3229	0	33048	32878	
3230	0	33156	33188	
3231	0	32998	33315	
3232	0	32984	33287	
3233	0	32854	33342	
3234	0	32868	33368	
3235	0	32852	33274	
3236	0	32868	32902	
3237	0	32896	32600	
3238	0	33040	32320	
3239	0	32936	32126	
3240	0	33016	32050	
3241	0	32884	31788	
3242	0	33036	31860	
3243	0	32968	31954	
3244	0	33006	32167	
3245	0	32862	32470	
3246	0	32442	32720	
3247	0	32260	33008	
3248	0	32348	33278	
3249	0	32680	33326	
3250	0	32552	33101	
3251	0	32520	33218	
3252	0	32644	33246	
3253	0	32880	33060	
3254	0	32832	33031	
3255	0	32696	32890	
3256	0	32714	32686	
3257	0	32598	32854	
3258	0	32676	32754	
3259	0	32814	32618	
3260	0	32824	32606	
3261	0	32842	32566	
3262	0	32998	32610	
3263	0	32984	32838	
3264	0	33118	32810	
3265	0	32966	32694	
3266	0	32896	32534	
3267	0	32638	32722	
3268	0	32770	32796	
3269	0	32880	32878	
3270	0	33022	32804	
3271	0	32988	32702	
3272	0	32860	32766	
3273	0	32936	32551	
3274	0	32792	32594	
3275	0	32704	32686	
3276	0	32768	32790	
3277	0	32660	32870	
3278	0	32688	32860	
3279	0	32666	32812	
3280	0	32676	32887	
3281	0	32700	32932	
3282	0	32740	32874	
3283	0	32960	32736	
3284	0	32968	32632	
3285	0	32910	32706	
3286	0	32904	32584	
3287	0	32900	32638	
3288	0	32912	32492	
3289	0	32868	32679	
3290	0	32792	32663	
3291	0	32711	32713	
3292	0	32748	32700	
3293	0	32794	32700	
3294	0	32800	32796	
3295	0	32784	32956	
3296	0	32780	32928	
3297	0	32770	32716	
3298	0	32806	32792	
3299	0	32912	32774	
3300	0	32960	32712	
3301	0	32740	32724	
3302	0	32752	32664	
3303	0	32792	32628	
3304	0	32816	32712	
3305	0	32732	32874	
3306	0	32664	32616	
3307	0	32712	32552	
3308	0	32974	32775	
3309	0	33032	32711	
3310	0	32932	32637	
3311	0	32884	32562	
3312	0	32658	32631	
3313	0	32748	32834	
3314	0	32790	32911	
3315	0	33076	32801	
3316	0	33212	32836	
3317	0	33158	32946	
3318	0	32942	32948	
3319	0	32832	32810	
3320	0	32335	32878	
3321	0	32380	32960	
3322	0	32460	32913	
3323	0	32724	32990	
3324	0	32784	32878	
3325	0	32724	32899	
3326	0	32510	32700	
3327	0	32384	32550	
3328	0	32580	32452	
3329	0	32792	32767	
3330	0	32744	32802	
3331	0	32712	32834	
3332	0	32792	33026	
3333	0	32862	32994	
3334	0	32824	32676	
3335	0	33198	32378	
3336	0	33156	32460	
3337	0	33216	32720	
3338	0	33456	33004	
3339	0	33632	32660	
3340	0	33492	32222	
3341	0	33502	32206	
3342	0	33136	32464	
3343	0	32968	32830	
3344	0	32480	32966	
3345	0	32416	33110	
3346	0	32336	33049	
3347	0	31980	32894	
3348	0	31872	32690	
3349	0	31872	32422	
3350	0	32250	32263	
3351	0	32622	32572	
3352	0	32708	32678	
3353	0	32864	32982	
3354	0	33250	33415	
3355	0	33268	33798	
3356	0	33056	34032	
3357	0	33006	33862	
3358	0	32970	33518	
3359	0	32628	33196	
3360	0	32680	33158	
3361	0	32620	33057	
3362	0	33176	32580	
3363	0	33392	32559	
3364	0	33248	32552	
3365	0	33388	32616	
3366	0	32504	32508	
3367	0	32280	32100	
3368	0	32312	31786	
3369	0	32465	32100	
3370	0	32556	32170	
3371	0	32762	32110	
3372	0	32848	32022	
3373	0	32744	32252	
3374	0	32862	32383	
3375	0	32628	32391	
3376	0	32610	32680	
3377	0	32632	33007	
3378	0	32698	33222	
3379	0	32752	33319	
3380	0	32688	33258	
3381	0	32772	33434	
3382	0	32952	33415	
3383	0	32996	33342	
3384	0	32786	33200	
3385	0	32684	32918	
3386	0	32664	32630	
3387	0	32760	32498	
3388	0	33100	32592	
3389	0	33318	32278	
3390	0	33374	32070	
3391	0	33596	31795	
3392	0	33088	31598	
3393	0	32676	31534	
3394	0	32700	31980	
3395	0	32704	32590	
3396	0	32622	33014	
3397	0	32576	33120	
3398	0	32700	33182	
3399	0	32724	33287	
3400	0	32916	33186	
3401	0	33040	33012	
3402	0	33182	33228	
3403	0	33000	33470	
3404	0	32704	33415	
3405	0	32632	33364	
3406	0	32840	33388	
3407	0	32960	33364	
3408	0	32992	33259	
3409	0	33194	32928	
3410	0	32824	32866	
3411	0	32660	32634	
3412	0	32772	32544	
3413	0	32960	32396	
3414	0	32752	31847	
3415	0	32628	31832	
3416	0	32444	32078	
3417	0	32356	32449	
3418	0	32684	32444	
3419	0	32676	32598	
3420	0	32598	32732	
3421	0	32644	32880	
3422	0	32936	33002	
3423	0	32740	32934	
3424	0	32828	32434	
3425	0	33770	32154	
3426	0	33896	32495	
3427	0	33272	32743	
3428	0	32820	32496	
3429	0	32796	32630	
3430	0	32864	32806	
3431	0	32618	32734	
3432	0	32616	31972	
3433	0	32334	31800	
3434	0	32262	32164	
3435	0	31620	32980	
3436	0	32124	33460	
3437	0	32514	33792	
3438	0	32800	33810	
3439	0	32734	34078	
3440	0	32750	34055	
3441	0	32736	33887	
3442	0	32848	33978	
3443	0	32956	33690	
3444	0	32980	33204	
3445	0	33156	32903	
3446	0	32792	32968	
3447	0	32788	33066	
3448	0	32838	33000	
3449	0	32936	32808	
3450	0	32924	32519	
3451	0	33104	31818	
3452	0	32994	31820	
3453	0	32784	32111	
3454	0	32904	32068	
3455	0	32804	31584	
3456	0	32946	31624	
3457	0	33274	31834	
3458	0	33336	31840	
3459	0	33422	31977	
3460	0	33234	32062	
3461	0	33278	31998	
3462	0	32852	32376	
3463	0	32728	32946	
3464	0	32578	33072	
3465	0	32100	32880	
3466	0	31772	33415	
3467	0	31520	33927	
3468	0	31924	34026	
3469	0	31942	33968	
3470	0	32160	33562	
3471	0	32612	33216	
3472	0	32750	33270	
3473	0	32972	33344	
3474	0	33316	33576	
3475	0	33494	33472	
3476	0	33444	33272	
3477	0	33785	33448	
3478	0	33780	33240	
3479	0	33356	32924	
3480	0	32850	32938	
3481	0	32612	32846	
3482	0	32936	32346	
3483	0	33036	32362	
3484	0	32812	32004	
3485	0	32790	31892	
3486	0	32630	32038	
3487	0	32548	32364	
3488	0	32352	32052	
3489	0	32456	31628	
3490	0	32956	31306	
3491	0	33252	30960	
3492	0	33096	30922	
3493	0	32812	30720	
3494	0	32642	31428	
3495	0	32560	32270	
3496	0	32678	33072	
3497	0	33092	33588	
3498	0	32852	34104	
3499	0	32766	34324	
3500	0	32668	34588	
3501	0	32568	34080	
3502	0	32664	33799	
3503	0	32604	33562	
3504	0	32504	33392	
3505	0	32908	33435	
3506	0	33410	33186	
3507	0	32712	33138	
3508	0	32260	33151	
3509	0	32364	33332	
3510	0	32544	33284	
3511	0	32912	33142	
3512	0	33200	33066	
3513	0	33128	32676	
3514	0	32922	32570	
3515	0	33276	31992	
3516	0	33180	31680	
3517	0	33088	31991	
3518	0	33048	32110	
3519	0	32700	31632	
3520	0	32808	31604	
3521	0	32548	31732	
3522	0	32532	31796	
3523	0	31990	31666	
3524	0	32292	31044	
3525	0	32988	30898	
3526	0	33016	31810	
3527	0	33120	32308	
3528	0	33326	32828	
3529	0	33472	33312	
3530	0	32960	33780	
3531	0	32706	33848	
3532	0	32748	33828	
3533	0	32714	33863	
3534	0	32964	34088	
3535	0	33016	34528	
3536	0	32792	34702	
3537	0	32800	34977	
3538	0	32360	35046	
3539	0	32372	35121	
3540	0	32206	34592	
3541	0	32076	33364	
3542	0	32236	33116	
3543	0	32418	32600	
3544	0	32544	32484	
3545	0	32680	31736	
3546	0	32420	31220	
3547	0	32522	31080	
3548	0	32724	31036	
3549	0	33214	31567	
3550	0	33628	31782	
3551	0	33398	31966	
3552	0	33188	31842	
3553	0	33132	31606	
3554	0	33006	31538	
3555	0	32844	31982	
3556	0	33072	32135	
3557	0	33018	31462	
3558	0	32928	31694	
3559	0	33060	32490	
3560	0	32652	32796	
3561	0	32610	33376	
3562	0	32560	33300	
3563	0	32692	32644	
3564	0	32731	32744	
3565	0	32890	33008	
3566	0	32920	33598	
3567	0	32968	34339	
3568	0	32848	34338	
3569	0	32556	34214	
3570	0	32568	34274	
3571	0	32592	34183	
3572	0	32800	33484	
3573	0	32838	32924	
3574	0	32828	32750	
3575	0	32882	32526	
3576	0	32878	32376	
3577	0	32872	32086	
3578	0	32834	32150	
3579	0	32912	32600	
3580	0	33010	33158	
3581	0	33048	33080	
3582	0	33032	33194	
3583	0	32916	32882	
3584	0	32932	32596	
3585	0	32858	32738	
3586	0	32852	32508	
3587	0	32944	32168	
3588	0	32840	32016	
3589	0	32776	31776	
3590	0	32672	31686	
3591	0	32572	31556	
3592	0	32536	30897	
3593	0	32734	30384	
3594	0	33004	30855	
3595	0	33074	31562	
3596	0	33280	32240	
3597	0	33156	32548	
3598	0	33198	33148	
3599	0	33220	33671	
3600	0	33344	34282	
3601	0	33310	34578	
3602	0	32974	34906	
3603	0	32744	35239	
3604	0	32610	35218	
3605	0	32472	34998	
3606	0	32316	34156	
3607	0	32092	33939	
3608	0	31918	33472	
3609	0	31968	32890	
3610	0	32040	32582	
3611	0	32004	32116	
3612	0	32114	32004	
3613	0	32644	31975	
3614	0	33048	32008	
3615	0	33086	31588	
3616	0	33128	31708	
3617	0	32710	31708	
3618	0	32884	32303	
3619	0	33164	32824	
3620	0	33204	32720	
3621	0	33073	32580	
3622	0	32766	32007	
3623	0	32980	31824	
3624	0	32784	31706	
3625	0	32952	31836	
3626	0	33444	31991	
3627	0	33472	30668	
3628	0	33268	31356	
3629	0	32754	32226	
3630	0	32480	32682	
3631	0	32244	33278	
3632	0	32402	34004	
3633	0	32912	34378	
3634	0	33214	34616	
3635	0	33100	34996	
3636	0	32996	34764	
3637	0	33116	34566	
3638	0	32946	34592	
3639	0	32952	33648	
3640	0	32732	32848	
3641	0	32368	33056	
3642	0	32200	33720	
3643	0	32196	33144	
3644	0	32224	32775	
3645	0	32442	31886	
3646	0	32686	30842	
3647	0	32520	31122	
3648	0	32098	30648	
3649	0	31840	30538	
3650	0	31332	30969	
3651	0	31476	31848	
3652	0	31652	32660	
3653	0	32288	33468	
3654	0	32816	33434	
3655	0	33332	33366	
3656	0	34190	33580	
3657	0	34424	33064	
3658	0	33808	33438	
3659	0	33828	33390	
3660	0	33556	33436	
3661	0	33700	33748	
3662	0	33602	33314	
3663	0	33312	33412	
3664	0	33068	34302	
3665	0	32560	34564	
3666	0	32372	35228	
3667	0	32668	35098	
3668	0	33700	34170	
3669	0	33678	32636	
3670	0	33264	31940	
3671	0	33188	31768	
3672	0	33216	31906	
3673	0	32992	31986	
3674	0	32900	32500	
3675	0	32692	32320	
3676	0	32442	31770	
3677	0	32236	30604	
3678	0	32118	29776	
3679	0	32106	28656	
3680	0	32288	29050	
3681	0	32172	30004	
3682	0	31976	30416	
3683	0	32114	29628	
3684	0	32368	30251	
3685	0	32100	31836	
3686	0	32016	33508	
3687	0	32180	34708	
3688	0	32600	35306	
3689	0	33192	36088	
3690	0	33532	36426	
3691	0	33488	36724	
3692	0	33552	36558	
3693	0	33612	35754	
3694	0	33380	35302	
3695	0	33614	34598	
3696	0	33648	34087	
3697	0	33572	33656	
3698	0	33764	33399	
3699	0	34000	32884	
3700	0	33546	31776	
3701	0	32616	31239	
3702	0	32084	31304	
3703	0	32032	31178	
3704	0	31796	30804	
3705	0	31688	30554	
3706	0	31968	30311	
3707	0	32220	30468	
3708	0	32464	30706	
3709	0	32592	30978	
3710	0	32474	31652	
3711	0	32564	32363	
3712	0	32620	32170	
3713	0	32432	31800	
3714	0	32540	32028	
3715	0	32802	33134	
3716	0	34328	33672	
3717	0	34986	33470	
3718	0	34786	33652	
3719	0	34108	33302	
3720	0	33724	33320	
3721	0	32916	33514	
3722	0	32180	34254	
3723	0	31716	33866	
3724	0	31838	33960	
3725	0	32164	33862	
3726	0	31880	33799	
3727	0	31604	32862	
3728	0	32170	32542	
3729	0	32526	31830	
3730	0	32140	32100	
3731	0	32144	31716	
3732	0	31860	32390	
3733	0	31680	32902	
3734	0	31992	33408	
3735	0	32794	33791	
3736	0	32980	32847	
3737	0	32800	32448	
3738	0	32252	32964	
3739	0	32104	32996	
3740	0	32264	32772	
3741	0	32568	32428	
3742	0	33138	32472	
3743	0	33872	32196	
3744	0	34182	32135	
3745	0	34316	32408	
3746	0	34028	33692	
3747	0	33972	33846	
3748	0	33864	33554	
3749	0	33260	33354	
3750	0	32842	32806	
3751	0	32676	33080	
3752	0	32252	33351	
3753	0	31874	33652	
3754	0	32028	33006	
3755	0	32174	32358	
3756	0	32148	31738	
3757	0	32296	31916	
3758	0	32110	32424	
3759	0	32020	32590	
3760	0	32478	32692	
3761	0	33076	32578	
3762	0	33612	33106	
3763	0	33684	33536	
3764	0	33798	33264	
3765	0	33488	33408	
3766	0	33016	33733	
3767	0	32744	33732	
3768	0	32775	33250	
3769	0	33156	33307	
3770	0	33156	33100	
3771	0	33168	33031	
3772	0	33182	33256	
3773	0	32904	33116	
3774	0	32780	32930	
3775	0	32988	32456	
3776	0	32836	32002	
3777	0	32948	31908	
3778	0	33030	31646	
3779	0	32982	31104	
3780	0	32934	30846	
3781	0	32936	31050	
3782	0	32760	31510	
3783	0	32774	31751	
3784	0	32628	32158	
3785	0	32686	31792	
3786	0	33044	31732	
3787	0	32960	32442	
3788	0	33060	32700	
3789	0	33080	32622	
3790	0	32908	32252	
3791	0	33246	31572	
3792	0	33652	32044	
3793	0	33940	32832	
3794	0	33784	33142	
3795	0	32828	33270	
3796	0	31780	34176	
3797	0	31204	34616	
3798	0	31100	34274	
3799	0	31236	34006	
3800	0	31702	33647	
3801	0	31985	33720	
3802	0	32170	34050	
3803	0	32720	33882	
3804	0	33290	33350	
3805	0	33516	31986	
3806	0	33368	32090	
3807	0	32848	32418	
3808	0	32434	32404	
3809	0	32288	31404	
3810	0	32519	31207	
3811	0	32664	32286	
3812	0	32716	33700	
3813	0	33092	33526	
3814	0	33444	34206	
3815	0	33392	33742	
3816	0	33712	33265	
3817	0	33428	32678	
3818	0	33308	31556	
3819	0	33116	31495	
3820	0	32600	32516	
3821	0	32364	32684	
3822	0	32250	32186	
3823	0	32008	31820	
3824	0	31910	32263	
3825	0	32164	33440	
3826	0	32942	33780	
3827	0	33466	33772	
3828	0	33176	33988	
3829	0	32940	34500	
3830	0	32952	34462	
3831	0	32728	34087	
3832	0	32598	33676	
3833	0	32616	33607	
3834	0	32534	33124	
3835	0	32664	32308	
3836	0	32692	31572	
3837	0	33184	31340	
3838	0	33208	31238	
3839	0	33456	31716	
3840	0	33544	31879	
3841	0	33268	31876	
3842	0	33048	32004	
3843	0	32762	32001	
3844	0	32652	32112	
3845	0	32720	32007	
3846	0	32668	31796	
3847	0	32752	31778	
3848	0	32644	31850	
3849	0	32718	32014	
3850	0	32852	32528	
3851	0	32670	32559	
3852	0	32920	33076	
3853	0	33084	33734	
3854	0	33134	34346	
3855	0	32912	34140	
3856	0	33002	34016	
3857	0	32845	33199	
3858	0	32788	33375	
3859	0	32740	33490	
3860	0	32862	33118	
3861	0	33170	32674	
3862	0	33392	32687	
3863	0	33218	32446	
3864	0	33016	32844	
3865	0	32522	32724	
3866	0	32356	32775	
3867	0	32310	32764	
3868	0	32164	32767	
3869	0	32108	33174	
3870	0	32062	33044	
3871	0	32124	33126	
3872	0	32416	32822	
3873	0	32590	33124	
3874	0	32666	32934	
3875	0	32752	32862	
3876	0	32874	32260	
3877	0	33264	31744	
3878	0	33908	31668	
3879	0	33732	32158	
3880	0	33324	32428	
3881	0	33416	32472	
3882	0	33770	32636	
3883	0	33852	33036	
3884	0	33686	33167	
3885	0	33392	33306	
3886	0	32888	33276	
3887	0	32548	32852	
3888	0	32660	31992	
3889	0	32892	32234	
3890	0	32670	32364	
3891	0	32524	32386	
3892	0	32224	32254	
3893	0	32340	32246	
3894	0	32588	32193	
3895	0	32936	32352	
3896	0	32980	31814	
3897	0	33172	32308	
3898	0	33378	32535	
3899	0	32712	33278	
3900	0	32668	33735	
3901	0	32624	33319	
3902	0	32558	33338	
3903	0	32714	33927	
3904	0	32758	33658	
3905	0	32766	33670	
3906	0	32788	33406	
3907	0	32612	33351	
3908	0	32408	32882	
3909	0	32200	33340	
3910	0	32022	32775	
3911	0	31808	31972	
3912	0	31700	32014	
3913	0	31904	32320	
3914	0	32016	32683	
3915	0	32526	32471	
3916	0	32828	32476	
3917	0	33016	32775	
3918	0	33264	32664	
3919	0	33484	32102	
3920	0	33540	32572	
3921	0	33688	33392	
3922	0	33644	33124	
3923	0	33524	32278	
3924	0	33116	33135	
3925	0	33090	33866	
3926	0	33008	33434	
3927	0	32888	32946	
3928	0	32780	33207	
3929	0	32760	32867	
3930	0	32674	32263	
3931	0	32738	32110	
3932	0	32664	32748	
3933	0	32688	32853	
3934	0	32612	33206	
3935	0	32584	33206	
3936	0	32596	33844	
3937	0	32736	34040	
3938	0	32920	33660	
3939	0	32840	33685	
3940	0	32988	33252	
3941	0	32922	33159	
3942	0	32780	32888	
3943	0	32860	32791	
3944	0	32868	32462	
3945	0	32932	32302	
3946	0	32926	32128	
3947	0	32834	32314	
3948	0	32710	32704	
3949	0	32800	32484	
3950	0	32828	32398	
3951	0	32670	32260	
3952	0	32740	31956	
3953	0	32802	31676	
3954	0	32800	31452	
3955	0	32722	31519	
3956	0	32782	31866	
3957	0	32912	32147	
3958	0	32970	32295	
3959	0	32812	32186	
3960	0	32912	32514	
3961	0	32954	32849	
3962	0	32772	32986	
3963	0	32868	33022	
3964	0	32880	33210	
3965	0	32754	33218	
3966	0	32608	33164	
3967	0	32612	33176	
3968	0	32696	32986	
3969	0	32660	33028	
3970	0	32772	32652	
3971	0	32668	32127	
3972	0	32688	32272	
3973	0	32970	32398	
3974	0	32862	32595	
3975	0	32756	32519	
3976	0	32558	32450	
3977	0	32462	32672	
3978	0	32520	33210	
3979	0	32698	32988	
3980	0	32776	32574	
3981	0	32814	32068	
3982	0	32808	32183	
3983	0	32856	32830	
3984	0	32924	33164	
3985	0	32864	33070	
3986	0	32994	33368	
3987	0	33194	33287	
3988	0	33292	33159	
3989	0	32970	33396	
3990	0	32816	32970	
3991	0	32782	32630	
3992	0	32666	32966	
3993	0	32578	32834	
3994	0	32792	32934	
3995	0	32870	32942	
3996	0	32608	32740	
3997	0	33350	32517	
3998	0	34140	32608	
3999	0	33554	32380	
4000	0	32504	32624	
4001	0	31834	33036	
4002	0	31524	33344	
4003	0	31460	33614	
4004	0	31834	33490	
4005	0	31968	33832	
4006	0	32172	33772	
4007	0	32456	33596	
4008	0	32524	33170	
4009	0	32708	33094	
4010	0	32688	32830	
4011	0	32812	32256	
4012	0	32994	31728	
4013	0	33156	31628	
4014	0	33332	31790	
4015	0	33244	32359	
4016	0	33144	32682	
4017	0	33144	32870	
4018	0	33336	32865	
4019	0	33370	32474	
4020	0	33332	32071	
4021	0	33014	31816	
4022	0	32884	31780	
4023	0	32864	30951	
4024	0	32952	31298	
4025	0	33064	31856	
4026	0	33142	32352	
4027	0	33058	32802	
4028	0	32950	33782	
4029	0	32844	34320	
4030	0	32748	34470	
4031	0	32770	34660	
4032	0	32824	34631	
4033	0	32894	34113	
4034	0	33002	33799	
4035	0	33042	33684	
4036	0	32966	33284	
4037	0	33032	32834	
4038	0	33192	32490	
4039	0	32996	31804	
4040	0	32776	31708	
4041	0	32702	31728	
4042	0	32792	31810	
4043	0	32746	31751	
4044	0	32784	31964	
4045	0	32764	32152	
4046	0	32846	32223	
4047	0	32928	32042	
4048	0	32828	32287	
4049	0	32776	32455	
4050	0	32752	32244	
4051	0	32760	32682	
4052	0	32772	32926	
4053	0	32576	32624	
4054	0	32548	32743	
4055	0	32552	33024	
4056	0	32512	33282	
4057	0	32604	33386	
4058	0	32674	33628	
4059	0	32724	33734	
4060	0	32702	33942	
4061	0	32744	34066	
4062	0	32874	33983	
4063	0	32992	33968	
4064	0	32978	33844	
4065	0	33224	33630	
4066	0	33180	33511	
4067	0	33096	32834	
4068	0	32884	32410	
4069	0	32868	32154	
4070	0	32838	32135	
4071	0	32852	32144	
4072	0	32898	32116	
4073	0	32836	32198	
4074	0	32740	31872	
4075	0	32599	31532	
4076	0	32600	32172	
4077	0	32622	32578	
4078	0	32600	32332	
4079	0	32526	31823	
4080	0	32578	32108	
4081	0	32568	32370	
4082	0	32656	32228	
4083	0	32682	32490	
4084	0	32872	32692	
4085	0	32893	32640	
4086	0	32652	32784	
4087	0	32656	33216	
4088	0	32638	33272	
4089	0	32788	33542	
4090	0	32696	33968	
4091	0	32660	34076	
4092	0	32744	33818	
4093	0	32898	33783	
4094	0	32968	33852	
4095	0	33028	33602	
4096	0	32976	32948	
4097	0	32992	32651	
4098	0	32760	32268	
4099	0	32784	31992	
4100	0	32884	31846	
4101	0	33068	31922	
4102	0	33008	31938	
4103	0	33020	32068	
4104	0	33048	32156	
4105	0	32852	32330	
4106	0	32882	32384	
4107	0	32896	32455	
4108	0	32812	32676	
4109	0	32818	32842	
4110	0	32776	32818	
4111	0	32308	32718	
4112	0	32186	32666	
4113	0	31938	32708	
4114	0	31996	32880	
4115	0	32228	32902	
4116	0	32548	33180	
4117	0	32830	33214	
4118	0	32904	33134	
4119	0	32964	33119	
4120	0	33230	33260	
4121	0	33300	32996	
4122	0	32960	32711	
4123	0	32704	32484	
4124	0	32744	32519	
4125	0	32752	32759	
4126	0	32868	32804	
4127	0	32832	32806	
4128	0	32902	32744	
4129	0	32728	32812	
4130	0	32918	32758	
4131	0	32946	32722	
4132	0	32963	32678	
4133	0	32892	32462	
4134	0	32780	32775	
4135	0	32836	32992	
4136	0	32676	32720	
4137	0	32848	32670	
4138	0	32892	32798	
4139	0	32940	32806	
4140	0	32800	32970	
4141	0	32956	32960	
4142	0	32968	32743	
4143	0	32996	32892	
4144	0	32988	33176	
4145	0	32916	32994	
4146	0	32792	32742	
4147	0	32756	32720	
4148	0	32618	32504	
4149	0	32752	32491	
4150	0	32701	32263	
4151	0	32775	32544	
4152	0	32884	32772	
4153	0	32992	32846	
4154	0	33016	32884	
4155	0	33036	33094	
4156	0	33072	33031	
4157	0	33260	33056	
4158	0	33134	32826	
4159	0	32996	32930	
4160	0	32832	32930	
4161	0	32596	32746	
4162	0	32458	32604	
4163	0	32552	32636	
4164	0	32628	32652	
4165	0	32456	32624	
4166	0	32378	32679	
4167	0	32280	32495	
4168	0	32296	32411	
4169	0	32392	32563	
4170	0	32476	32740	
4171	0	32548	32862	
4172	0	32934	32848	
4173	0	33048	32726	
4174	0	33188	32559	
4175	0	33096	32846	
4176	0	32972	32775	
4177	0	33180	32752	
4178	0	33094	32751	
4179	0	33016	32830	
4180	0	32984	32738	
4181	0	32812	32852	
4182	0	32900	33006	
4183	0	32916	32775	
4184	0	32724	32714	
4185	0	32465	32732	
4186	0	32346	32728	
4187	0	32400	32775	
4188	0	32670	32634	
4189	0	32752	32612	
4190	0	32788	32598	
4191	0	32894	32636	
4192	0	32998	32730	
4193	0	33090	32727	
4194	0	32988	32960	
4195	0	32956	33072	
4196	0	32680	32716	
4197	0	32760	32896	
4198	0	32884	32972	
4199	0	33028	32752	
4200	0	32948	32810	
4201	0	32920	32806	
4202	0	32884	32606	
4203	0	32780	32654	
4204	0	32796	32570	
4205	0	32752	32632	
4206	0	32824	32679	
4207	0	32796	32663	
4208	0	32812	32764	
4209	0	32834	32682	
4210	0	32896	32884	
4211	0	33000	32766	
4212	0	33006	32756	
4213	0	33024	32716	
4214	0	32968	32750	
4215	0	32880	32849	
4216	0	32876	32765	
4217	0	33050	32600	
4218	0	32948	32647	
4219	0	33398	32516	
4220	0	33628	32622	
4221	0	33236	32796	
4222	0	32802	32770	
4223	0	32270	32740	
4224	0	32050	32836	
4225	0	31910	32848	
4226	0	32058	32948	
4227	0	32208	33076	
4228	0	32366	33188	
4229	0	32448	33287	
4230	0	32476	32838	
4231	0	32628	32874	
4232	0	32634	32577	
4233	0	32576	32606	
4234	0	32660	32583	
4235	0	32600	32496	
4236	0	32804	32574	
4237	0	32976	32631	
4238	0	33140	32775	
4239	0	33304	32706	
4240	0	33312	32470	
4241	0	33276	32606	
4242	0	33220	32638	
4243	0	33124	32570	
4244	0	33024	32482	
4245	0	33008	32532	
4246	0	32848	32526	
4247	0	33040	32742	
4248	0	33240	32736	
4249	0	33284	32852	
4250	0	33372	33056	
4251	0	33888	32944	
4252	0	33516	33248	
4253	0	32648	33107	
4254	0	32012	32970	
4255	0	31624	33092	
4256	0	31740	32935	
4257	0	32038	32700	
4258	0	32376	32687	
4259	0	32822	32519	
4260	0	32872	32558	
4261	0	32988	32486	
4262	0	33088	32497	
4263	0	33064	32666	
4264	0	32980	32718	
4265	0	32614	32856	
4266	0	32296	32820	
4267	0	32144	32800	
4268	0	32196	32871	
4269	0	32420	32807	
4270	0	32596	32740	
4271	0	32756	32716	
4272	0	32940	32590	
4273	0	32994	32482	
4274	0	33080	32388	
4275	0	33072	32492	
4276	0	33152	32642	
4277	0	33104	32572	
4278	0	33036	32350	
4279	0	33076	32519	
4280	0	32982	32828	
4281	0	32864	32720	
4282	0	33022	32628	
4283	0	33024	32428	
4284	0	33048	32426	
4285	0	33056	32474	
4286	0	33032	32856	
4287	0	33092	32832	
4288	0	33128	33152	
4289	0	32876	33396	
4290	0	32880	33368	
4291	0	32768	33318	
4292	0	32700	33234	
4293	0	32580	33026	
4294	0	32516	33062	
4295	0	32520	32814	
4296	0	32578	32841	
4297	0	32556	33226	
4298	0	32502	33385	
4299	0	32582	33524	
4300	0	32592	33244	
4301	0	32692	32938	
4302	0	32702	32990	
4303	0	32814	32807	
4304	0	32896	32606	
4305	0	33072	32386	
4306	0	32988	32474	
4307	0	32840	32586	
4308	0	32878	32552	
4309	0	32884	32511	
4310	0	32846	32636	
4311	0	32904	32506	
4312	0	32842	32634	
4313	0	32836	32686	
4314	0	32816	32694	
4315	0	32794	32814	
4316	0	32868	32775	
4317	0	32868	32708	
4318	0	32824	32618	
4319	0	32852	32640	
4320	0	32800	32536	
4321	0	32904	32664	
4322	0	32928	32670	
4323	0	32892	32668	
4324	0	32900	32700	
4325	0	32788	32676	
4326	0	32756	32668	
4327	0	32584	32670	
4328	0	32958	32812	
4329	0	33032	32620	
4330	0	32864	32746	
4331	0	32872	32868	
4332	0	33168	32672	
4333	0	33188	32692	
4334	0	32868	32920	
4335	0	32520	32862	
4336	0	32408	32920	
4337	0	32382	32935	
4338	0	32280	32775	
4339	0	32186	32802	
4340	0	32392	32746	
4341	0	32596	32750	
4342	0	32648	32844	
4343	0	32608	32882	
4344	0	32600	32775	
4345	0	32524	32624	
4346	0	32716	32719	
4347	0	32784	32628	
4348	0	32832	32834	
4349	0	32834	32816	
4350	0	32672	32802	
4351	0	32840	32696	
4352	0	32884	32758	
4353	0	32996	32735	
4354	0	33084	32810	
4355	0	33264	32775	
4356	0	33212	32733	
4357	0	33258	32816	
4358	0	33244	32660	
4359	0	33064	32948	
4360	0	33018	33031	
4361	0	32948	32878	
4362	0	32910	32727	
4363	0	32812	32852	
4364	0	32864	32862	
4365	0	32788	32872	
4366	0	32968	32754	
4367	0	33012	32700	
4368	0	32942	32612	
4369	0	32880	32412	
4370	0	32768	32472	
4371	0	32740	32476	
4372	0	32610	32628	
4373	0	32690	32764	
4374	0	32628	32918	
4375	0	32624	32943	
4376	0	32700	32916	
4377	0	32828	32772	
4378	0	32792	32604	
4379	0	32688	32695	
4380	0	32626	32672	
4381	0	32660	32726	
4382	0	32720	32808	
4383	0	32724	32761	
4384	0	32660	32702	
4385	0	32694	32948	
4386	0	32740	32881	
4387	0	32788	32762	
4388	0	32778	32560	
4389	0	32820	32512	
4390	0	32824	32647	
4391	0	32944	32665	
4392	0	32872	32692	
4393	0	32896	32730	
4394	0	32914	32854	
4395	0	33000	32955	
4396	0	32840	32946	
4397	0	32924	32978	
4398	0	32936	33012	
4399	0	32952	32926	
4400	0	32832	32930	
4401	0	32872	32774	
4402	0	32812	32836	
4403	0	32784	32858	
4404	0	32688	32674	
4405	0	32720	32775	
4406	0	32892	32766	
4407	0	32968	32831	
4408	0	33020	32630	
4409	0	32920	32572	
4410	0	32996	32660	
4411	0	32932	32798	
4412	0	32936	32730	
4413	0	32912	32790	
4414	0	32854	32800	
4415	0	32812	32854	
4416	0	32744	32858	
4417	0	32734	32916	
4418	0	32688	32634	
4419	0	32656	32614	
4420	0	32664	32736	
4421	0	32768	32670	
4422	0	32668	32748	
4423	0	32650	32644	
4424	0	32714	32848	
4425	0	32694	32926	
4426	0	32720	32862	
4427	0	32786	32854	
4428	0	32828	32846	
4429	0	32756	32886	
4430	0	32840	32663	
4431	0	32896	32644	
4432	0	32892	32762	
4433	0	32844	32712	
4434	0	32900	32694	
4435	0	32840	32698	
4436	0	32808	32583	
4437	0	32792	32568	
4438	0	32784	32676	
4439	0	32912	32692	
4440	0	32906	32606	
4441	0	32888	32710	
4442	0	32824	32754	
4443	0	32768	32740	
4444	0	32780	32974	
4445	0	32728	32882	
4446	0	32660	32918	
4447	0	32592	32744	
4448	0	32704	32610	
4449	0	32680	32720	
4450	0	32896	32822	
4451	0	32980	32807	
4452	0	33026	32864	
4453	0	33248	33142	
4454	0	33292	33018	
4455	0	33240	32913	
4456	0	32988	33022	
4457	0	32800	33016	
4458	0	32652	32984	
4459	0	32542	32916	
4460	0	32622	32798	
4461	0	32532	32690	
4462	0	32582	32408	
4463	0	32566	32255	
4464	0	32544	32327	
4465	0	32668	32314	
4466	0	32586	32276	
4467	0	32716	32102	
4468	0	32680	32262	
4469	0	32792	32508	
4470	0	32838	32838	
4471	0	32856	32871	
4472	0	32936	32862	
4473	0	32874	32732	
4474	0	32952	32792	
4475	0	32936	32807	
4476	0	32884	32724	
4477	0	32940	32900	
4478	0	32908	32970	
4479	0	32904	32855	
4480	0	32910	32868	
4481	0	32900	32775	
4482	0	32896	32903	
4483	0	32820	32806	
4484	0	32852	32934	
4485	0	32812	32962	
4486	0	32792	33062	
4487	0	32816	33232	
4488	0	32838	33058	
4489	0	32890	32838	
4490	0	32870	32974	
4491	0	32844	32738	
4492	0	32978	32631	
4493	0	33020	32628	
4494	0	33090	32836	
4495	0	32988	32798	
4496	0	33062	32788	
4497	0	32976	33112	
4498	0	33062	33000	
4499	0	32832	32882	
4500	0	32738	32958	
4501	0	32678	32842	
4502	0	32596	32824	
4503	0	32600	32775	
4504	0	32560	32962	
4505	0	32516	32880	
4506	0	32460	32740	
4507	0	32640	32678	
4508	0	32644	32636	
4509	0	32780	32596	
4510	0	32818	32634	
4511	0	33072	32536	
4512	0	33058	32620	
4513	0	33056	32666	
4514	0	32876	32607	
4515	0	32792	32724	
4516	0	32644	32724	
4517	0	32620	32792	
4518	0	32680	32676	
4519	0	32760	32756	
4520	0	32816	32662	
4521	0	33004	32639	
4522	0	33072	32806	
4523	0	32964	32662	
4524	0	32964	32775	
4525	0	32884	32703	
4526	0	32824	32868	
4527	0	32922	32848	
4528	0	32972	32828	
4529	0	32836	32854	
4530	0	32820	32806	
4531	0	32744	32742	
4532	0	32706	32840	
4533	0	32740	32772	
4534	0	32740	32758	
4535	0	32748	32612	
4536	0	32784	32692	
4537	0	32764	32710	
4538	0	32898	32644	
4539	0	32756	32598	
4540	0	32904	32630	
4541	0	32924	32764	
4542	0	32812	33072	
4543	0	32832	33066	
4544	0	32784	33008	
4545	0	32872	32994	
4546	0	32896	32871	
4547	0	32900	32790	
4548	0	32860	32646	
4549	0	32890	32540	
4550	0	32672	32694	
4551	0	32632	32660	
4552	0	32674	32740	
4553	0	32626	32630	
4554	0	32614	32770	
4555	0	32618	32878	
4556	0	32608	32834	
4557	0	32696	32822	
4558	0	32696	32823	
4559	0	32758	32806	
4560	0	32744	32804	
4561	0	32744	32834	
4562	0	32750	32858	
4563	0	32872	32894	
4564	0	32910	32784	
4565	0	32868	32806	
4566	0	32880	32830	
4567	0	32868	32666	
4568	0	32940	32711	
4569	0	32872	32654	
4570	0	32878	32644	
4571	0	32932	32902	
4572	0	32892	32747	
4573	0	32812	32622	
4574	0	32800	32616	
4575	0	32792	32743	
4576	0	32744	32711	
4577	0	32782	32734	
4578	0	32796	32666	
4579	0	32852	32549	
4580	0	32826	32652	
4581	0	32840	32775	
4582	0	32772	32794	
4583	0	32688	32742	
4584	0	32586	32860	
4585	0	32624	32972	
4586	0	32696	32988	
4587	0	32676	32942	
4588	0	32876	32774	
4589	0	32808	32888	
4590	0	32752	32916	
4591	0	32814	32764	
4592	0	32768	32831	
4593	0	32712	32775	
4594	0	32776	32810	
4595	0	32720	32577	
4596	0	32844	32735	
4597	0	32844	32654	
4598	0	32970	32647	
4599	0	32960	32668	
4600	0	32858	32744	
4601	0	32816	32772	
4602	0	32768	32686	
4603	0	32820	32742	
4604	0	32808	32906	
4605	0	32764	32850	
4606	0	32754	32864	
4607	0	32684	32844	
4608	0	32740	32791	
4609	0	32780	32724	
4610	0	32840	32686	
4611	0	32730	32644	
4612	0	32718	32798	
4613	0	32784	32732	
4614	0	32760	32726	
4615	0	32776	32704	
4616	0	32840	32847	
4617	0	32856	32882	
4618	0	32788	32775	
4619	0	32748	32690	
4620	0	32832	32538	
4621	0	32760	32854	
4622	0	32868	32799	
4623	0	32792	32828	
4624	0	32724	32940	
4625	0	32772	33127	
4626	0	32788	33031	
4627	0	32812	32644	
4628	0	32868	32538	
4629	0	32896	32492	
4630	0	32948	32556	
4631	0	32848	32714	
4632	0	32792	32694	
4633	0	32725	32692	
4634	0	32752	32918	
4635	0	32736	32686	
4636	0	32820	32647	
4637	0	32900	32750	
4638	0	32836	32596	
4639	0	32756	32583	
4640	0	32804	32667	
4641	0	32776	32638	
4642	0	32768	32634	
4643	0	32688	32784	
4644	0	32600	33054	
4645	0	32712	33158	
4646	0	32748	32942	
4647	0	32772	32760	
4648	0	32996	32774	
4649	0	32960	32951	
4650	0	32988	32812	
4651	0	32996	32842	
4652	0	32836	32668	
4653	0	32716	32680	
4654	0	32564	32766	
4655	0	32520	32866	
4656	0	32556	32938	
4657	0	32668	32822	
4658	0	32676	32816	
4659	0	32788	32951	
4660	0	32748	32682	
4661	0	32868	32508	
4662	0	32916	32684	
4663	0	32954	32652	
4664	0	32952	32636	
4665	0	32954	32903	
4666	0	32860	32756	
4667	0	32802	32822	
4668	0	32784	32660	
4669	0	32830	32510	
4670	0	32808	32580	
4671	0	32816	32692	
4672	0	32868	32786	
4673	0	32958	32806	
4674	0	32990	32838	
4675	0	32954	32714	
4676	0	32982	32664	
4677	0	32944	32832	
4678	0	32926	32756	
4679	0	32880	32727	
4680	0	32852	32600	
4681	0	32762	32804	
4682	0	32766	32775	
4683	0	32828	32926	
4684	0	32788	33018	
4685	0	32584	33048	
4686	0	32592	32935	
4687	0	32622	32758	
4688	0	32584	32686	
4689	0	32660	32992	
4690	0	32832	32738	
4691	0	32904	32736	
4692	0	32906	32559	
4693	0	32784	32622	
4694	0	32758	32620	
4695	0	32664	32592	
4696	0	32730	32658	
4697	0	32686	32674	
4698	0	32716	32732	
4699	0	32682	32790	
4700	0	32774	32692	
4701	0	32860	32898	
4702	0	32748	33094	
4703	0	32648	33028	
4704	0	32692	33055	
4705	0	32860	32830	
4706	0	32780	32922	
4707	0	32860	32775	
4708	0	32930	32807	
4709	0	32908	32516	
4710	0	32844	32692	
4711	0	32916	32770	
4712	0	33024	32550	
4713	0	33000	32608	
4714	0	33008	32579	
4715	0	32930	32735	
4716	0	32812	32870	
4717	0	32728	32794	
4718	0	32668	32666	
4719	0	32680	32656	
4720	0	32784	32772	
4721	0	32760	32664	
4722	0	32834	32738	
4723	0	32908	32846	
4724	0	32924	32756	
4725	0	32884	32814	
4726	0	32864	32730	
4727	0	32832	32786	
4728	0	32856	32775	
4729	0	32904	32730	
4730	0	32908	32940	
4731	0	32968	32830	
4732	0	33004	32828	
4733	0	32840	32630	
4734	0	32790	32710	
4735	0	32840	32684	
4736	0	32832	32881	
4737	0	32888	32758	
4738	0	32852	32828	
4739	0	32762	32942	
4740	0	32768	32846	
4741	0	32780	32806	
4742	0	32780	32934	
4743	0	32796	32916	
4744	0	32780	32862	
4745	0	32816	32597	
4746	0	32856	32612	
4747	0	32756	32775	
4748	0	32920	32774	
4749	0	32936	32518	
4750	0	32808	32636	
4751	0	32888	32638	
4752	0	32856	32620	
4753	0	32836	32775	
4754	0	32952	32944	
4755	0	32972	32912	
4756	0	32872	32856	
4757	0	32808	33018	
4758	0	32728	32911	
4759	0	32766	32678	
4760	0	32796	32670	
4761	0	32680	32796	
4762	0	32750	32790	
4763	0	32830	32922	
4764	0	32996	32980	
4765	0	32948	32863	
4766	0	33028	32810	
4767	0	32988	32944	
4768	0	32970	32794	
4769	0	32976	32647	
4770	0	32840	32710	
4771	0	32720	32607	
4772	0	32660	32444	
4773	0	32620	32606	
4774	0	32732	32548	
4775	0	32812	32609	
4776	0	32788	32716	
4777	0	32848	32631	
4778	0	32940	32742	
4779	0	32876	32775	
4780	0	32852	32761	
4781	0	33022	32888	
4782	0	32928	32908	
4783	0	32864	33022	
4784	0	32736	32970	
4785	0	32788	32786	
4786	0	32856	32798	
4787	0	32850	32734	
4788	0	32902	32764	
4789	0	32846	32812	
4790	0	32784	32746	
4791	0	32730	32712	
4792	0	32692	32692	
4793	0	32704	32688	
4794	0	32720	32732	
4795	0	32722	32700	
4796	0	32782	32695	
4797	0	32760	32680	
4798	0	32740	32800	
4799	0	32770	32754	
4800	0	32760	32674	
4801	0	32694	32652	
4802	0	32632	32634	
4803	0	32716	32639	
4804	0	32782	32748	
4805	0	32884	32672	
4806	0	32960	32866	
4807	0	32910	32740	
4808	0	32864	32588	
4809	0	32892	32666	
4810	0	32820	33024	
4811	0	32842	33104	
4812	0	32865	32996	
4813	0	32816	33116	
4814	0	32860	32996	
4815	0	32932	32953	
4816	0	32846	32824	
4817	0	32722	32658	
4818	0	32774	32558	
4819	0	32764	32540	
4820	0	32780	32775	
4821	0	32834	32642	
4822	0	32728	32722	
4823	0	32768	32647	
4824	0	32752	32608	
4825	0	32756	32804	
4826	0	32848	32626	
4827	0	32934	32740	
4828	0	32892	32676	
4829	0	32908	32647	
4830	0	32984	32736	
4831	0	32760	32812	
4832	0	32682	32805	
4833	0	32728	32734	
4834	0	32704	32886	
4835	0	32720	32980	
4836	0	32744	33060	
4837	0	32888	33023	
4838	0	32972	33058	
4839	0	33004	32884	
4840	0	32812	32828	
4841	0	32756	32844	
4842	0	32772	32639	
4843	0	32804	32900	
4844	0	32800	32660	
4845	0	32852	32700	
4846	0	32634	32656	
4847	0	32606	32636	
4848	0	32746	32732	
4849	0	32852	32711	
4850	0	32826	32512	
4851	0	32838	32679	
4852	0	32764	32692	
4853	0	32720	32714	
4854	0	32692	32654	
4855	0	32766	32774	
4856	0	32824	32903	
4857	0	32940	32792	
4858	0	32812	32895	
4859	0	32788	32756	
4860	0	32744	32716	
4861	0	32776	32716	
4862	0	32752	32718	
4863	0	32876	32795	
4864	0	32808	32880	
4865	0	32848	32864	
4866	0	32904	32948	
4867	0	32958	32792	
4868	0	32948	32782	
4869	0	32944	32546	
4870	0	32900	32672	
4871	0	32774	32700	
4872	0	32692	32716	
4873	0	32724	32775	
4874	0	32662	32849	
4875	0	32668	32772	
4876	0	32720	32768	
4877	0	32860	32774	
4878	0	32990	32756	
4879	0	33001	32712	
4880	0	32878	32718	
4881	0	32890	32862	
4882	0	32788	32732	
4883	0	32732	32774	
4884	0	32720	32754	
4885	0	32740	32715	
4886	0	32886	32711	
4887	0	32914	32556	
4888	0	32812	32622	
4889	0	32808	32740	
4890	0	32768	32738	
4891	0	32722	32890	
4892	0	32750	32860	
4893	0	32722	32878	
4894	0	32794	32900	
4895	0	32756	32860	
4896	0	32828	32852	
4897	0	32894	32750	
4898	0	32836	32612	
4899	0	32856	32632	
4900	0	32752	32687	
4901	0	32724	32906	
4902	0	32728	32902	
4903	0	32792	32852	
4904	0	32764	32578	
4905	0	32806	32668	
4906	0	32778	32798	
4907	0	32775	32694	
4908	0	32840	32623	
4909	0	32824	32664	
4910	0	32836	32736	
4911	0	32896	32850	
4912	0	32896	32846	
4913	0	32848	32868	
4914	0	32872	32724	
4915	0	32876	32711	
4916	0	32826	32768	
4917	0	32880	32680	
4918	0	32896	32700	
4919	0	32812	32775	
4920	0	32728	32678	
4921	0	32758	32719	
4922	0	32692	32775	
4923	0	32662	32775	
4924	0	32748	32746	
4925	0	32760	32775	
4926	0	32736	32800	
4927	0	32720	32775	
4928	0	32762	32678	
4929	0	32778	32559	
4930	0	32982	32460	
4931	0	32942	32524	
4932	0	32879	32474	
4933	0	32868	32454	
4934	0	32792	32844	
4935	0	32864	33059	
4936	0	33016	33048	
4937	0	33136	32924	
4938	0	33052	32984	
4939	0	32704	32988	
4940	0	32712	32924	
4941	0	32720	32892	
4942	0	32774	32850	
4943	0	32792	32775	
4944	0	32768	32790	
4945	0	32764	32754	
4946	0	32760	32816	
4947	0	32794	32746	
4948	0	32796	32588	
4949	0	32852	32660	
4950	0	32884	32684	
4951	0	32788	32742	
4952	0	32762	32672	
4953	0	32832	32668	
4954	0	32846	32644	
4955	0	32736	32775	
4956	0	32756	32834	
4957	0	32720	32858	
4958	0	32736	32846	
4959	0	32720	32762	
4960	0	32744	32740	
4961	0	32772	32815	
4962	0	32760	32818	
4963	0	32852	32820	
4964	0	32740	32652	
4965	0	32812	32672	
4966	0	32834	32810	
4967	0	32960	32768	
4968	0	32908	32836	
4969	0	32881	32728	
4970	0	32828	32774	
4971	0	32866	32756	
4972	0	32910	32734	
4973	0	32876	32583	
4974	0	32840	32610	
4975	0	32854	32596	
4976	0	32868	32574	
4977	0	32908	32794	
4978	0	32848	32868	
4979	0	32808	32816	
4980	0	32700	32810	
4981	0	32676	32878	
4982	0	32586	33002	
4983	0	32672	32956	
4984	0	32706	32842	
4985	0	32790	32830	
4986	0	32756	32935	
4987	0	32824	32902	
4988	0	32804	32831	
4989	0	32886	32871	
4990	0	32868	32691	
4991	0	32856	32706	
4992	0	32940	32858	
4993	0	32922	32741	
4994	0	32838	32844	
4995	0	32820	32680	
4996	0	32888	32775	
4997	0	32800	32844	
4998	0	32720	32964	
4999	0	32814	32871	
5000	0	32812	32775	
5001	0	32796	32830	
5002	0	32896	32687	
5003	0	32850	32694	
5004	0	32798	32716	
5005	0	32802	32674	
5006	0	32863	32792	
5007	0	32748	32826	
5008	0	32796	32720	
5009	0	32786	32746	
5010	0	32740	32786	
5011	0	32742	32764	
5012	0	32806	32818	
5013	0	32792	32900	
5014	0	32902	32730	
5015	0	32712	32656	
5016	0	32800	32644	
5017	0	32868	32580	
5018	0	32832	32616	
5019	0	32820	32660	
5020	0	32752	32775	
5021	0	32760	32742	
5022	0	32778	32788	
5023	0	32976	32775	
5024	0	32952	32799	
5025	0	32913	32700	
5026	0	32740	32708	
5027	0	32744	32578	
5028	0	32734	32944	
5029	0	32696	33041	
5030	0	32852	32982	
5031	0	32900	32814	
5032	0	32904	32840	
5033	0	32876	33108	
5034	0	32770	33047	
5035	0	32820	33026	
5036	0	32770	32896	
5037	0	32812	32790	
5038	0	32814	32816	
5039	0	32890	32858	
5040	0	32820	32764	
5041	0	32868	32775	
5042	0	32788	32750	
5043	0	32800	32666	
5044	0	32834	32570	
5045	0	32784	32574	
5046	0	32792	32548	
5047	0	32772	32632	
5048	0	32764	32583	
5049	0	32824	32594	
5050	0	32766	32684	
5051	0	32820	32643	
5052	0	32840	32694	
5053	0	32760	32836	
5054	0	32812	32838	
5055	0	32886	32852	
5056	0	32834	32944	
5057	0	32804	32982	
5058	0	32756	32940	
5059	0	32816	32962	
5060	0	32812	32903	
5061	0	32724	32922	
5062	0	32832	32804	
5063	0	32776	32826	
5064	0	32724	33015	
5065	0	32772	32895	
5066	0	32812	32892	
5067	0	32846	32838	
5068	0	32840	32840	
5069	0	32880	32871	
5070	0	32752	32732	
5071	0	32800	32698	
5072	0	32840	32860	
5073	0	32880	32738	
5074	0	32874	32631	
5075	0	32824	32550	
5076	0	32814	32668	
5077	0	32842	32588	
5078	0	32802	32662	
5079	0	32772	32564	
5080	0	32766	32574	
5081	0	32816	32692	
5082	0	32834	32688	
5083	0	32839	32700	
5084	0	32820	32478	
5085	0	32802	32528	
5086	0	32816	32632	
5087	0	32824	32732	
5088	0	32828	32628	
5089	0	32832	32534	
5090	0	32840	32638	
5091	0	32768	32788	
5092	0	32742	32692	
5093	0	32828	32720	
5094	0	32792	32630	
5095	0	32828	32664	
5096	0	32858	32808	
5097	0	32794	32822	
5098	0	32818	32934	
5099	0	32808	32803	
5100	0	32820	32751	
5101	0	32868	32823	
5102	0	32856	32830	
5103	0	32848	32828	
5104	0	32774	32841	
5105	0	32730	32792	
5106	0	32804	32742	
5107	0	32874	32830	
5108	0	32934	32848	
5109	0	32884	32839	
5110	0	32874	32672	
5111	0	32838	32666	
5112	0	32792	32532	
5113	0	32740	32490	
5114	0	32790	32614	
5115	0	32744	32614	
5116	0	32714	32681	
5117	0	32746	32564	
5118	0	32788	32662	
5119	0	32840	32602	
5120	0	32800	32679	
5121	0	32844	32634	
5122	0	32804	32572	
5123	0	32750	32576	
5124	0	32872	32644	
5125	0	32880	32748	
5126	0	32792	32715	
5127	0	32776	32634	
5128	0	32788	32832	
5129	0	32804	32912	
5130	0	32770	32852	
5131	0	32814	32912	
5132	0	32852	33050	
5133	0	32780	33062	
5134	0	32796	33088	
5135	0	32748	33146	
5136	0	32804	33114	
5137	0	32764	33196	
5138	0	32812	33102	
5139	0	32800	33180	
5140	0	32804	33140	
5141	0	32760	33044	
5142	0	32758	32967	
5143	0	32804	32788	
5144	0	32828	32812	
5145	0	32820	32774	
5146	0	32864	32679	
5147	0	32880	32678	
5148	0	32872	32524	
5149	0	32892	32540	
5150	0	32824	32519	
5151	0	32796	32564	
5152	0	32800	32470	
5153	0	32864	32588	
5154	0	32800	32608	
5155	0	32860	32594	
5156	0	32837	32661	
5157	0	32784	32668	
5158	0	32832	32702	
5159	0	32837	32820	
5160	0	32866	32808	
5161	0	32822	32860	
5162	0	32856	32866	
5163	0	32820	32772	
5164	0	32852	32936	
5165	0	32856	32948	
5166	0	32870	33004	
5167	0	32944	32935	
5168	0	32920	32968	
5169	0	32860	33018	
5170	0	32860	33088	
5171	0	32868	33031	
5172	0	32824	32956	
5173	0	32712	32830	
5174	0	32704	32698	
5175	0	32578	32574	
5176	0	32600	32666	
5177	0	32550	32588	
5178	0	32600	32472	
5179	0	32580	32304	
5180	0	32618	32302	
5181	0	32684	32444	
5182	0	32660	32652	
5183	0	32804	32738	
5184	0	32808	32694	
5185	0	32744	32775	
5186	0	32852	32820	
5187	0	32847	32786	
5188	0	32808	32796	
5189	0	32852	32928	
5190	0	32864	32928	
5191	0	32840	33058	
5192	0	32898	32932	
5193	0	32928	32936	
5194	0	32964	32922	
5195	0	32862	33039	
5196	0	32952	32876	
5197	0	32908	32728	
5198	0	32952	32692	
5199	0	32916	32640	
5200	0	32942	32530	
5201	0	32808	32590	
5202	0	32856	32812	
5203	0	32780	32734	
5204	0	32852	32727	
5205	0	32832	32734	
5206	0	32800	32615	
5207	0	32804	32646	
5208	0	32808	32771	
5209	0	32820	32734	
5210	0	32824	32799	
5211	0	32808	32836	
5212	0	32754	32721	
5213	0	32852	32756	
5214	0	32820	32775	
5215	0	32880	32769	
5216	0	32860	32798	
5217	0	32788	32841	
5218	0	32844	32732	
5219	0	32766	32756	
5220	0	32752	32654	
5221	0	32796	32640	
5222	0	32716	32662	
5223	0	32770	32775	
5224	0	32802	32650	
5225	0	32880	32634	
5226	0	32816	32620	
5227	0	32792	32628	
5228	0	32804	32555	
5229	0	32806	32662	
5230	0	32778	32543	
5231	0	32800	32628	
5232	0	32778	32583	
5233	0	32790	32542	
5234	0	32826	32580	
5235	0	32864	32679	
5236	0	32812	32748	
5237	0	32808	32728	
5238	0	32768	32768	
5239	0	32824	32796	
5240	0	32775	32752	
5241	0	32828	32800	
5242	0	32794	32911	
5243	0	32790	32822	
5244	0	32774	32864	
5245	0	32834	32630	
5246	0	32824	32720	
5247	0	32818	32691	
5248	0	32866	32894	
5249	0	32842	32956	
5250	0	32838	32772	
5251	0	32716	32794	
5252	0	32840	32730	
5253	0	32784	32744	
5254	0	32864	32784	
5255	0	32804	32814	
5256	0	32772	32808	
5257	0	32806	32824	
5258	0	32788	32830	
5259	0	32784	32863	
5260	0	32796	32900	
5261	0	32824	32766	
5262	0	32824	32804	
5263	0	32828	32772	
5264	0	32740	32836	
5265	0	32786	32850	
5266	0	32790	32824	
5267	0	32776	32820	
5268	0	32884	32790	
5269	0	32796	32808	
5270	0	32800	32903	
5271	0	32852	32894	
5272	0	32776	32754	
5273	0	32820	32734	
5274	0	32800	32805	
5275	0	32824	32775	
5276	0	32836	32804	
5277	0	32832	32754	
5278	0	32840	32714	
5279	0	32756	32752	
5280	0	32848	32615	
5281	0	32816	32630	
5282	0	32812	32736	
5283	0	32792	32775	
5284	0	32838	32743	
5285	0	32804	32764	
5286	0	32794	32718	
5287	0	32796	32775	
5288	0	32854	32742	
5289	0	32758	32775	
5290	0	32846	32702	
5291	0	32828	32618	
5292	0	32862	32656	
5293	0	32812	32682	
5294	0	32864	32732	
5295	0	32804	32860	
5296	0	32784	32760	
5297	0	32808	32761	
5298	0	32860	32728	
5299	0	32906	32775	
5300	0	32796	32670	
5301	0	32804	32576	
5302	0	32840	32582	
5303	0	32742	32534	
5304	0	32776	32684	
5305	0	32778	32600	
5306	0	32880	32548	
5307	0	32800	32502	
5308	0	32760	32584	
5309	0	32768	32537	
5310	0	32804	32559	
5311	0	32904	32484	
5312	0	32810	32512	
5313	0	32804	32620	
5314	0	32832	32714	
5315	0	32874	32612	
5316	0	32764	32626	
5317	0	32858	32810	
5318	0	32804	32792	
5319	0	32850	32692	
5320	0	32816	32760	
5321	0	32746	32820	
5322	0	32832	32774	
5323	0	32820	32820	
5324	0	32812	32734	
5325	0	32784	32870	
5326	0	32820	32886	
5327	0	32840	32775	
5328	0	32880	32848	
5329	0	32794	32680	
5330	0	32780	32742	
5331	0	32764	32718	
5332	0	32784	32775	
5333	0	32804	32944	
5334	0	32834	32814	
5335	0	32756	32766	
5336	0	32756	32844	
5337	0	32868	32788	
5338	0	32800	32890	
5339	0	32826	32854	
5340	0	32774	32806	
5341	0	32838	32950	
5342	0	32822	32940	
5343	0	32788	32972	
5344	0	32776	32916	
5345	0	32764	32796	
5346	0	32836	32892	
5347	0	32864	32880	
5348	0	32724	32894	
5349	0	32834	32871	
5350	0	32824	32770	
5351	0	32776	32700	
5352	0	32842	32748	
5353	0	32790	32900	
5354	0	32780	32796	
5355	0	32812	32887	
5356	0	32884	32765	
5357	0	32804	32824	
5358	0	32790	32716	
5359	0	32806	32832	
5360	0	32788	32818	
5361	0	32812	32791	
5362	0	32846	32836	
5363	0	32792	32824	
5364	0	32866	32654	
5365	0	32786	32756	
5366	0	32804	32746	
5367	0	32784	32852	
5368	0	32768	32796	
5369	0	32844	32772	
5370	0	32806	32868	
5371	0	32830	32836	
5372	0	32844	32736	
5373	0	32764	32684	
5374	0	32804	32774	
5375	0	32764	32774	
5376	0	32816	32861	
5377	0	32790	32870	
5378	0	32776	32806	
5379	0	32796	32738	
5380	0	32796	32714	
5381	0	32780	32892	
5382	0	32850	32790	
5383	0	32784	32793	
5384	0	32782	32880	
5385	0	32788	32848	
5386	0	32866	32706	
5387	0	32796	32724	
5388	0	32792	32818	
5389	0	32816	32775	
5390	0	32766	32818	
5391	0	32772	32855	
5392	0	32826	32775	
5393	0	32816	32748	
5394	0	32852	32775	
5395	0	32880	32762	
5396	0	32860	32772	
5397	0	32800	32775	
5398	0	32844	32796	
5399	0	32834	32810	
5400	0	32776	32700	
5401	0	32810	32706	
5402	0	32802	32756	
5403	0	32812	32750	
5404	0	32822	32769	
5405	0	32834	32678	
5406	0	32770	32761	
5407	0	32764	32761	
5408	0	32858	32700	
5409	0	32756	32821	
5410	0	32810	32686	
5411	0	32820	32640	
5412	0	32760	32583	
5413	0	32784	32692	
5414	0	32832	32644	
5415	0	32828	32695	
5416	0	32804	32658	
5417	0	32798	32554	
5418	0	32788	32536	
5419	0	32802	32671	
5420	0	32812	32620	
5421	0	32814	32614	
5422	0	32870	32534	
5423	0	32816	32660	
5424	0	32836	32638	
5425	0	32830	32660	
5426	0	32770	32754	
5427	0	32804	32762	
5428	0	32846	32626	
5429	0	32808	32671	
5430	0	32764	32732	
5431	0	32890	32772	
5432	0	32790	32798	
5433	0	32868	32798	
5434	0	32842	32710	
5435	0	32848	32772	
5436	0	32820	32802	
5437	0	32768	32792	
5438	0	32784	32814	
5439	0	32784	32820	
5440	0	32888	32679	
5441	0	32874	32742	
5442	0	32766	32754	
5443	0	32750	32756	
5444	0	32768	32830	
5445	0	32808	32756	
5446	0	32868	32762	
5447	0	32808	32812	
5448	0	32841	32918	
5449	0	32812	32871	
5450	0	32796	32822	
5451	0	32838	32846	
5452	0	32788	32861	
5453	0	32814	32911	
5454	0	32796	32868	
5455	0	32788	32760	
5456	0	32824	32767	
5457	0	32816	32759	
5458	0	32874	33002	
5459	0	32808	32790	
5460	0	32816	32751	
5461	0	32836	32896	
5462	0	32830	32848	
5463	0	32852	32763	
5464	0	32796	32742	
5465	0	32801	32862	
5466	0	32804	32804	
5467	0	32812	32804	
5468	0	32810	32790	
5469	0	32856	32762	
5470	0	32836	32692	
5471	0	32812	32640	
5472	0	32788	32724	
5473	0	32820	32702	
5474	0	32760	32688	
5475	0	32780	32817	
5476	0	32900	32756	
5477	0	32816	32682	
5478	0	32780	32675	
5479	0	32804	32874	
5480	0	32860	32788	
5481	0	32704	32804	
5482	0	32804	32700	
5483	0	32794	32695	
5484	0	32872	32885	
5485	0	32882	32832	
5486	0	32828	32794	
5487	0	32792	32798	
5488	0	32804	32806	
5489	0	32823	32760	
5490	0	32800	32874	
5491	0	32820	32842	
5492	0	32732	32860	
5493	0	32796	32689	
5494	0	32816	32647	
5495	0	32824	32802	
5496	0	32796	32775	
5497	0	32788	32806	
5498	0	32796	32743	
5499	0	32796	32734	
5500	0	32870	32775	
5501	0	32784	32876	
5502	0	32836	32852	
5503	0	32738	32806	
5504	0	32834	32752	
5505	0	32860	32775	
5506	0	32840	32753	
5507	0	32812	32760	
5508	0	32792	32804	
5509	0	32778	32804	
5510	0	32836	32894	
5511	0	32824	32896	
5512	0	32716	32870	
5513	0	32856	32725	
5514	0	32820	32724	
5515	0	32900	32818	
5516	0	32830	32768	
5517	0	32838	32742	
5518	0	32784	32610	
5519	0	32844	32775	
5520	0	32812	32788	
5521	0	32724	32792	
5522	0	32864	32740	
5523	0	32804	32690	
5524	0	32852	32842	
5525	0	32832	32762	
5526	0	32804	32756	
5527	0	32820	32720	
5528	0	32880	32658	
5529	0	32774	32636	
5530	0	32786	32716	
5531	0	32806	32590	
5532	0	32856	32556	
5533	0	32808	32546	
5534	0	32808	32492	
5535	0	32792	32494	
5536	0	32798	32683	
5537	0	32806	32618	
5538	0	32788	32790	
5539	0	32830	32788	
5540	0	32860	32670	
5541	0	32770	32603	
5542	0	32758	32690	
5543	0	32824	32810	
5544	0	32828	32755	
5545	0	32716	32725	
5546	0	32820	32708	
5547	0	32886	32700	
5548	0	32812	32644	
5549	0	32881	32726	
5550	0	32856	32804	
5551	0	32800	32828	
5552	0	32848	32727	
5553	0	32804	32688	
5554	0	32772	32858	
5555	0	32712	32810	
5556	0	32800	32874	
5557	0	32736	32848	
5558	0	32774	32774	
5559	0	32874	32886	
5560	0	32792	32926	
5561	0	32805	32910	
5562	0	32801	32954	
5563	0	32804	32972	
5564	0	32796	32932	
5565	0	32776	33020	
5566	0	32800	33022	
5567	0	32820	32916	
5568	0	32804	32970	
5569	0	32760	32874	
5570	0	32704	32977	
5571	0	32824	32932	
5572	0	32800	32799	
5573	0	32792	32775	
5574	0	32842	32826	
5575	0	32874	32687	
5576	0	32820	32740	
5577	0	32748	32826	
5578	0	32772	32806	
5579	0	32764	32762	
5580	0	32816	32738	
5581	0	32772	32712	
5582	0	32836	32666	
5583	0	32824	32646	
5584	0	32872	32663	
5585	0	32806	32744	
5586	0	32826	32740	
5587	0	32775	32748	
5588	0	32804	32734	
5589	0	32844	32746	
5590	0	32824	32830	
5591	0	32826	32728	
5592	0	32820	32775	
5593	0	32832	32679	
5594	0	32770	32738	
5595	0	32798	32916	
5596	0	32750	32752	
5597	0	32856	32746	
5598	0	32775	32654	
5599	0	32824	32799	
5600	0	32796	32766	
5601	0	32808	32716	
5602	0	32768	32718	
5603	0	32888	32803	
5604	0	32832	32740	
5605	0	32768	32656	
5606	0	32800	32826	
5607	0	32820	32758	
5608	0	32780	32775	
5609	0	32836	32638	
5610	0	32836	32636	
5611	0	32844	32852	
5612	0	32824	32732	
5613	0	32776	32762	
5614	0	32824	32732	
5615	0	32788	32791	
5616	0	32780	32736	
5617	0	32780	32734	
5618	0	32802	32724	
5619	0	32778	32724	
5620	0	32856	32740	
5621	0	32852	32724	
5622	0	32826	32708	
5623	0	32788	32746	
5624	0	32830	32774	
5625	0	32802	32775	
5626	0	32730	32826	
5627	0	32728	32775	
5628	0	32840	32743	
5629	0	32792	32746	
5630	0	32764	32698	
5631	0	32832	32668	
5632	0	32836	32730	
5633	0	32884	32826	
5634	0	32796	32725	
5635	0	32802	32720	
5636	0	32796	32812	
5637	0	32816	32790	
5638	0	32832	32848	
5639	0	32806	32850	
5640	0	32816	32879	
5641	0	32838	32788	
5642	0	32850	32775	
5643	0	32764	32719	
5644	0	32832	32774	
5645	0	32856	32814	
5646	0	32740	32796	
5647	0	32800	32711	
5648	0	32758	32796	
5649	0	32804	32678	
5650	0	32852	32576	
5651	0	32826	32582	
5652	0	32820	32476	
5653	0	32832	32384	
5654	0	32860	32476	
5655	0	32852	32551	
5656	0	32820	32474	
5657	0	32800	32512	
5658	0	32796	32736	
5659	0	32820	32736	
5660	0	32820	32844	
5661	0	32816	32935	
5662	0	32810	32810	
5663	0	32846	32934	
5664	0	32796	33004	
5665	0	32740	33020	
5666	0	32828	33031	
5667	0	32885	32952	
5668	0	32894	32960	
5669	0	32832	32962	
5670	0	32828	32916	
5671	0	32808	32814	
5672	0	32800	32872	
5673	0	32882	32970	
5674	0	32792	33067	
5675	0	32830	33044	
5676	0	32772	32920	
5677	0	32834	32998	
5678	0	32770	33062	
5679	0	32800	33156	
5680	0	32828	33360	
5681	0	32800	33204	
5682	0	32864	33130	
5683	0	32758	32986	
5684	0	32840	32960	
5685	0	32793	32903	
5686	0	32834	32846	
5687	0	32770	32830	
5688	0	32820	32772	
5689	0	32844	32826	
5690	0	32836	32790	
5691	0	32792	32568	
5692	0	32828	32448	
5693	0	32832	32416	
5694	0	32820	32368	
5695	0	32828	32408	
5696	0	32860	32412	
5697	0	32766	32296	
5698	0	32784	32217	
5699	0	32800	32347	
5700	0	32824	32431	
5701	0	32792	32452	
5702	0	32804	32478	
5703	0	32732	32458	
5704	0	32886	32560	
5705	0	32768	32504	
5706	0	32816	32506	
5707	0	32790	32468	
5708	0	32796	32646	
5709	0	32778	32679	
5710	0	32804	32768	
5711	0	32794	32864	
5712	0	32832	32845	
5713	0	32864	32700	
5714	0	32820	32817	
5715	0	32792	32834	
5716	0	32880	32935	
5717	0	32806	32904	
5718	0	32816	32916	
5719	0	32780	32950	
5720	0	32830	32843	
5721	0	32874	32828	
5722	0	32784	32962	
5723	0	32840	33006	
5724	0	32828	32927	
5725	0	32864	32999	
5726	0	32774	33012	
5727	0	32836	32852	
5728	0	32768	32768	
5729	0	32794	32804	
5730	0	32792	32918	
5731	0	32844	32816	
5732	0	32816	32816	
5733	0	32786	32850	
5734	0	32886	32772	
5735	0	32776	32816	
5736	0	32820	32911	
5737	0	32788	32796	
5738	0	32804	32863	
5739	0	32844	32756	
5740	0	32724	32730	
5741	0	32840	32720	
5742	0	32784	32800	
5743	0	32832	32830	
5744	0	32824	32754	
5745	0	32798	32738	
5746	0	32812	32700	
5747	0	32788	32650	
5748	0	32854	32730	
5749	0	32816	32800	
5750	0	32802	32694	
5751	0	32808	32754	
5752	0	32832	32820	
5753	0	32844	32804	
5754	0	32826	32680	
5755	0	32876	32743	
5756	0	32932	32738	
5757	0	32844	32738	
5758	0	32884	32774	
5759	0	32776	32695	
5760	0	32734	32794	
5761	0	32762	32664	
5762	0	32752	32714	
5763	0	32736	32673	
5764	0	32860	32610	
5765	0	32774	32736	
5766	0	32804	32676	
5767	0	32825	32638	
5768	0	32804	32702	
5769	0	32788	32796	
5770	0	32884	32766	
5771	0	32842	32742	
5772	0	32804	32874	
5773	0	32850	32774	
5774	0	32802	32774	
5775	0	32784	32676	
5776	0	32784	32810	
5777	0	32800	32764	
5778	0	32838	32746	
5779	0	32804	32810	
5780	0	32824	32764	
5781	0	32768	32728	
5782	0	32834	32852	
5783	0	32830	32854	
5784	0	32810	32732	
5785	0	32796	32802	
5786	0	32776	32711	
5787	0	32820	32743	
5788	0	32852	32855	
5789	0	32816	32719	
5790	0	32830	32732	
5791	0	32802	32772	
5792	0	32874	32852	
5793	0	32804	32624	
5794	0	32856	32766	
5795	0	32788	32775	
5796	0	32782	32724	
5797	0	32858	32878	
5798	0	32756	32810	
5799	0	32792	32684	
5800	0	32782	32743	
5801	0	32824	32714	
5802	0	32796	32758	
5803	0	32742	32798	
5804	0	32820	32730	
5805	0	32772	32814	
5806	0	32760	32738	
5807	0	32848	32756	
5808	0	32882	32768	
5809	0	32832	32800	
5810	0	32868	32735	
5811	0	32860	32710	
5812	0	32812	32775	
5813	0	32830	32720	
5814	0	32796	32838	
5815	0	32744	32823	
5816	0	32820	32631	
5817	0	32818	32816	
5818	0	32836	32732	
5819	0	32764	32688	
5820	0	32892	32743	
5821	0	32800	32826	
5822	0	32808	32802	
5823	0	32738	32794	
5824	0	32788	32730	
5825	0	32784	32846	
5826	0	32828	32716	
5827	0	32832	32730	
5828	0	32844	32903	
5829	0	32878	32766	
5830	0	32880	32917	
5831	0	32816	32858	
5832	0	32836	32775	
5833	0	32836	32804	
5834	0	32854	32775	
5835	0	32846	32764	
5836	0	32816	32834	
5837	0	32852	32834	
5838	0	32900	32710	
5839	0	32820	32866	
5840	0	32824	32864	
5841	0	32894	32704	
5842	0	32852	32956	
5843	0	32814	32902	
5844	0	32838	32743	
5845	0	32920	32916	
5846	0	32866	33023	
5847	0	32894	32784	
5848	0	32868	32924	
5849	0	32934	32814	
5850	0	32880	32808	
5851	0	32832	32812	
5852	0	32848	32758	
5853	0	32720	32638	
5854	0	32640	32494	
5855	0	32628	32432	
5856	0	32610	32327	
5857	0	32500	32364	
5858	0	32548	32204	
5859	0	32632	32460	
5860	0	32684	32436	
5861	0	32708	32560	
5862	0	32776	32647	
5863	0	32912	32826	
5864	0	32828	32918	
5865	0	32786	32828	
5866	0	32836	32775	
5867	0	32804	32839	
5868	0	32816	32960	
5869	0	32878	32814	
5870	0	32828	32862	
5871	0	32900	32798	
5872	0	32930	32820	
5873	0	32944	32806	
5874	0	32936	32854	
5875	0	32937	32858	
5876	0	32912	32872	
5877	0	32910	32828	
5878	0	32844	32748	
5879	0	32912	32852	
5880	0	32873	32868	
5881	0	32800	32730	
5882	0	32828	32884	
5883	0	32716	32812	
5884	0	32876	32668	
5885	0	32840	32862	
5886	0	32816	32736	
5887	0	32840	32728	
5888	0	32782	32654	
5889	0	32854	32830	
5890	0	32808	32796	
5891	0	32756	32774	
5892	0	32808	32647	
5893	0	32872	32830	
5894	0	32788	32763	
5895	0	32800	32673	
5896	0	32802	32786	
5897	0	32800	32742	
5898	0	32804	32868	
5899	0	32768	32682	
5900	0	32808	32750	
5901	0	32740	32743	
5902	0	32852	32772	
5903	0	32764	32692	
5904	0	32798	32774	
5905	0	32800	32844	
5906	0	32804	32748	
5907	0	32800	32690	
5908	0	32864	32836	
5909	0	32802	32662	
5910	0	32844	32798	
5911	0	32820	32722	
5912	0	32836	32672	
5913	0	32788	32926	
5914	0	32808	32836	
5915	0	32844	32914	
5916	0	32802	32762	
5917	0	32860	32794	
5918	0	32840	32711	
5919	0	32788	32678	
5920	0	32760	32711	
5921	0	32872	32820	
5922	0	32808	32720	
5923	0	32776	32812	
5924	0	32804	32758	
5925	0	32826	32762	
5926	0	32838	32766	
5927	0	32790	32814	
5928	0	32844	32800	
5929	0	32844	32654	
5930	0	32856	32806	
5931	0	32804	32694	
5932	0	32848	32730	
5933	0	32836	32775	
5934	0	32840	32815	
5935	0	32794	32872	
5936	0	32804	32678	
5937	0	32774	32839	
5938	0	32794	32826	
5939	0	32856	32764	
5940	0	32760	32890	
5941	0	32808	32824	
5942	0	32804	32740	
5943	0	32768	32775	
5944	0	32748	32850	
5945	0	32822	32728	
5946	0	32844	32816	
5947	0	32804	32754	
5948	0	32852	32744	
5949	0	32808	32634	
5950	0	32832	32734	
5951	0	32820	32834	
5952	0	32860	32850	
5953	0	32784	32717	
5954	0	32796	32864	
5955	0	32800	32766	
5956	0	32788	32828	
5957	0	32824	32764	
5958	0	32796	32774	
5959	0	32801	32772	
5960	0	32820	32606	
5961	0	32808	32748	
5962	0	32770	32747	
5963	0	32816	32688	
5964	0	32744	32839	
5965	0	32756	32798	
5966	0	32848	32708	
5967	0	32844	32692	
5968	0	32774	32720	
5969	0	32836	32800	
5970	0	32838	32726	
5971	0	32846	32824	
5972	0	32842	32774	
5973	0	32804	32738	
5974	0	32824	32775	
5975	0	32794	32764	
5976	0	32804	32710	
5977	0	32848	32924	
5978	0	32804	32820	
5979	0	32798	32686	
5980	0	32780	32780	
5981	0	32798	32878	
5982	0	32769	32696	
5983	0	32812	32774	
5984	0	32804	32772	
5985	0	32820	32728	
5986	0	32880	32783	
5987	0	32788	32738	
5988	0	32798	32700	
5989	0	32840	32816	
5990	0	32832	32826	
5991	0	32826	32775	
5992	0	32816	32764	
5993	0	32774	32775	
5994	0	32904	32726	
5995	0	32852	32752	
5996	0	32783	32854	
5997	0	32816	32716	
5998	0	32770	32710	
5999	0	32770	32880	
6000	0	32826	32708	
6001	0	32766	32852	
6002	0	32744	32775	
6003	0	32824	32711	
6004	0	32880	32790	
6005	0	32852	32703	
6006	0	32790	32642	
6007	0	32832	32746	
6008	0	32836	32775	
6009	0	32756	32620	
6010	0	32820	32775	
6011	0	32792	32802	
6012	0	32896	32736	
