# OpenSignals Text File Format. Version 1
# {"00:07:80:8C:0A:39": {"position": 0, "device": "biosignalsplux", "device name": "00:07:80:8C:0A:39", "device connection": "BTH00:07:80:8C:0A:39", "sampling rate": 1000, "resolution": [16, 16], "firmware version": 776, "comments": "", "keywords": "", "mode": 0, "sync interval": 2, "date": "2023-3-10", "time": "12:54:17.194", "channels": [1, 2], "sensor": ["EMG", "EMG"], "label": ["CH1", "CH2"], "column": ["nSeq", "DI", "CH1", "CH2"], "special": [{"SpO2": [80, 40, 5, 4, 3, 3]}, {"SpO2": [80, 40, 5, 4, 3, 3]}, {"SpO2": [80, 40, 5, 4, 3, 3]}, {"SpO2": [80, 40, 5, 4, 3, 3]}, {"SpO2": [80, 40, 5, 4, 3, 3]}, {"SpO2": [80, 40, 5, 4, 3, 3]}, {"SpO2": [80, 40, 5, 4, 3, 3]}, {"SpO2": [80, 40, 5, 4, 3, 3]}], "digital IO": [0, 1], "sleeve color": ["gray", "yellow"], "convertedValues": 0}}
# EndOfHeader
0	0	32798	32800	
1	0	32868	32672	
2	0	32836	32852	
3	0	32804	32784	
4	0	32800	32748	
5	0	32864	32764	
6	0	32816	32772	
7	0	32774	32838	
8	0	32796	32780	
9	0	32816	32714	
10	0	32824	32816	
11	0	32798	32768	
12	0	32792	32700	
13	0	32800	32800	
14	0	32816	32690	
15	0	32824	32806	
16	0	32820	32788	
17	0	32872	32648	
18	0	32812	32886	
19	0	32800	32740	
20	0	32794	32664	
21	0	32794	32737	
22	0	32812	32806	
23	0	32796	32740	
24	0	32780	32810	
25	0	32788	32808	
26	0	32840	32720	
27	0	32764	32862	
28	0	32816	32824	
29	0	32880	32676	
30	0	32792	32772	
31	0	32780	32744	
32	0	32780	32724	
33	0	32808	32772	
34	0	32852	32810	
35	0	32814	32774	
36	0	32852	32758	
37	0	32792	32678	
38	0	32856	32752	
39	0	32784	32788	
40	0	32784	32738	
41	0	32766	32782	
42	0	32824	32866	
43	0	32820	32806	
44	0	32784	32732	
45	0	32800	32714	
46	0	32832	32880	
47	0	32848	32700	
48	0	32824	32720	
49	0	32784	32788	
50	0	32776	32712	
51	0	32720	32814	
52	0	32808	32852	
53	0	32832	32768	
54	0	32840	32704	
55	0	32856	32742	
56	0	32832	32794	
57	0	32848	32676	
58	0	32840	32794	
59	0	32796	32732	
60	0	32804	32748	
61	0	32852	32754	
62	0	32788	32748	
63	0	32776	32820	
64	0	32850	32736	
65	0	32768	32832	
66	0	32776	32776	
67	0	32781	32692	
68	0	32832	32814	
69	0	32828	32736	
70	0	32816	32798	
71	0	32834	32828	
72	0	32896	32776	
73	0	32792	32684	
74	0	32816	32830	
75	0	32812	32784	
76	0	32812	32742	
77	0	32832	32736	
78	0	32792	32748	
79	0	32792	32792	
80	0	32844	32836	
81	0	32862	32816	
82	0	32828	32764	
83	0	32800	32760	
84	0	32804	32824	
85	0	32736	32708	
86	0	32748	32744	
87	0	32840	32712	
88	0	32804	32744	
89	0	32844	32698	
90	0	32806	32754	
91	0	32800	32736	
92	0	32810	32752	
93	0	32808	32720	
94	0	32832	32744	
95	0	32762	32696	
96	0	32884	32782	
97	0	32880	32760	
98	0	32856	32772	
99	0	32812	32752	
100	0	32780	32852	
101	0	32812	32718	
102	0	32856	32856	
103	0	32762	32772	
104	0	32748	32752	
105	0	32744	32774	
106	0	32808	32720	
107	0	32810	32824	
108	0	32832	32780	
109	0	32800	32850	
110	0	32788	32775	
111	0	32880	32742	
112	0	32824	32746	
113	0	32752	32750	
114	0	32888	32760	
115	0	32792	32752	
116	0	32804	32704	
117	0	32832	32708	
118	0	32824	32756	
119	0	32792	32804	
120	0	32856	32700	
121	0	32760	32838	
122	0	32800	32806	
123	0	32866	32814	
124	0	32832	32810	
125	0	32748	32838	
126	0	32746	32802	
127	0	32836	32696	
128	0	32808	32794	
129	0	32832	32704	
130	0	32752	32740	
131	0	32788	32744	
132	0	32792	32740	
133	0	32828	32746	
134	0	32760	32792	
135	0	32820	32736	
136	0	32780	32812	
137	0	32788	32722	
138	0	32768	32810	
139	0	32852	32736	
140	0	32818	32704	
141	0	32816	32738	
142	0	32860	32708	
143	0	32808	32790	
144	0	32808	32776	
145	0	32896	32872	
146	0	32816	32828	
147	0	32892	32810	
148	0	32790	32786	
149	0	32788	32696	
150	0	32804	32802	
151	0	32852	32592	
152	0	32840	32884	
153	0	32812	32864	
154	0	32810	32800	
155	0	32810	32692	
156	0	32792	32744	
157	0	32812	32830	
158	0	32840	32804	
159	0	32808	32748	
160	0	32772	32828	
161	0	32816	32782	
162	0	32804	32804	
163	0	32768	32792	
164	0	32760	32724	
165	0	32876	32772	
166	0	32808	32788	
167	0	32788	32752	
168	0	32776	32808	
169	0	32796	32822	
170	0	32824	32764	
171	0	32820	32788	
172	0	32744	32802	
173	0	32774	32736	
174	0	32876	32832	
175	0	32792	32720	
176	0	32886	32766	
177	0	32804	32700	
178	0	32836	32652	
179	0	32792	32746	
180	0	32822	32804	
181	0	32836	32824	
182	0	32768	32766	
183	0	32808	32816	
184	0	32836	32680	
185	0	32796	32744	
186	0	32824	32736	
187	0	32784	32774	
188	0	32802	32772	
189	0	32816	32752	
190	0	32768	32778	
191	0	32820	32775	
192	0	32792	32832	
193	0	32784	32722	
194	0	32804	32716	
195	0	32804	32756	
196	0	32836	32840	
197	0	32800	32762	
198	0	32850	32704	
199	0	32798	32786	
200	0	32836	32860	
201	0	32840	32792	
202	0	32820	32774	
203	0	32798	32756	
204	0	32822	32856	
205	0	32824	32808	
206	0	32848	32648	
207	0	32776	32868	
208	0	32816	32708	
209	0	32852	32854	
210	0	32814	32744	
211	0	32828	32682	
212	0	32828	32775	
213	0	32860	32802	
214	0	32804	32788	
215	0	32796	32772	
216	0	32808	32774	
217	0	32834	32792	
218	0	32864	32688	
219	0	32824	32772	
220	0	32860	32808	
221	0	32826	32764	
222	0	32744	32756	
223	0	32784	32746	
224	0	32800	32800	
225	0	32836	32800	
226	0	32776	32714	
227	0	32788	32752	
228	0	32776	32790	
229	0	32818	32688	
230	0	32836	32776	
231	0	32772	32808	
232	0	32848	32716	
233	0	32874	32788	
234	0	32784	32712	
235	0	32798	32732	
236	0	32824	32840	
237	0	32834	32756	
238	0	32756	32724	
239	0	32758	32736	
240	0	32860	32736	
241	0	32804	32804	
242	0	32828	32768	
243	0	32824	32628	
244	0	32792	32792	
245	0	32802	32834	
246	0	32768	32672	
247	0	32808	32720	
248	0	32732	32712	
249	0	32850	32808	
250	0	32852	32834	
251	0	32772	32762	
252	0	32822	32830	
253	0	32812	32812	
254	0	32888	32775	
255	0	32868	32724	
256	0	32820	32728	
257	0	32736	32864	
258	0	32840	32794	
259	0	32800	32856	
260	0	32758	32812	
261	0	32784	32720	
262	0	32820	32788	
263	0	32800	32674	
264	0	32872	32816	
265	0	32816	32838	
266	0	32816	32722	
267	0	32786	32768	
268	0	32796	32764	
269	0	32780	32701	
270	0	32784	32812	
271	0	32800	32924	
272	0	32862	32666	
273	0	32880	32796	
274	0	32824	32804	
275	0	32840	32734	
276	0	32832	32772	
277	0	32836	32660	
278	0	32824	32708	
279	0	32832	32774	
280	0	32792	32798	
281	0	32726	32802	
282	0	32832	32794	
283	0	32764	32632	
284	0	32824	32824	
285	0	32912	32794	
286	0	32814	32664	
287	0	32818	32820	
288	0	32828	32832	
289	0	32788	32766	
290	0	32820	32812	
291	0	32784	32770	
292	0	32816	32800	
293	0	32848	32788	
294	0	32808	32688	
295	0	32872	32772	
296	0	32820	32724	
297	0	32764	32840	
298	0	32832	32796	
299	0	32788	32698	
300	0	32832	32824	
301	0	32840	32822	
302	0	32832	32680	
303	0	32812	32796	
304	0	32736	32812	
305	0	32816	32676	
306	0	32834	32868	
307	0	32728	32775	
308	0	32844	32724	
309	0	32880	32776	
310	0	32848	32892	
311	0	32776	32760	
312	0	32840	32752	
313	0	32740	32832	
314	0	32760	32742	
315	0	32858	32852	
316	0	32814	32760	
317	0	32928	32784	
318	0	32820	32818	
319	0	32840	32744	
320	0	32804	32828	
321	0	32840	32740	
322	0	32708	32696	
323	0	32768	32782	
324	0	32828	32880	
325	0	32780	32690	
326	0	32788	32718	
327	0	32764	32706	
328	0	32816	32820	
329	0	32904	32792	
330	0	32832	32690	
331	0	32860	32852	
332	0	32826	32788	
333	0	32756	32680	
334	0	32758	32778	
335	0	32824	32694	
336	0	32840	32832	
337	0	32810	32846	
338	0	32800	32712	
339	0	32824	32774	
340	0	32752	32784	
341	0	32772	32748	
342	0	32804	32764	
343	0	32842	32780	
344	0	32806	32744	
345	0	32834	32824	
346	0	32768	32804	
347	0	32740	32726	
348	0	32776	32770	
349	0	32824	32832	
350	0	32800	32744	
351	0	32772	32744	
352	0	32908	32756	
353	0	32808	32858	
354	0	32872	32868	
355	0	32866	32648	
356	0	32868	32792	
357	0	32912	32772	
358	0	32848	32746	
359	0	32860	32766	
360	0	32820	32750	
361	0	32776	32774	
362	0	32840	32736	
363	0	32760	32820	
364	0	32728	32750	
365	0	32792	32692	
366	0	32792	32788	
367	0	32786	32760	
368	0	32640	32706	
369	0	32754	32688	
370	0	32672	32582	
371	0	32668	32680	
372	0	32764	32718	
373	0	32720	32684	
374	0	32680	32684	
375	0	32666	32636	
376	0	32736	32734	
377	0	32712	32706	
378	0	32756	32556	
379	0	32696	32852	
380	0	32808	32740	
381	0	32768	32728	
382	0	32800	32856	
383	0	32818	32838	
384	0	32804	32728	
385	0	32772	32836	
386	0	32830	32800	
387	0	32872	32732	
388	0	32800	32836	
389	0	32834	32824	
390	0	32860	32748	
391	0	32892	32712	
392	0	32920	32992	
393	0	33060	32916	
394	0	33112	32810	
395	0	33084	32952	
396	0	33114	33012	
397	0	33090	32900	
398	0	33044	33054	
399	0	32988	32892	
400	0	32930	32776	
401	0	32932	32900	
402	0	32944	32948	
403	0	32944	32820	
404	0	32868	32844	
405	0	32836	32728	
406	0	32810	32775	
407	0	32752	32700	
408	0	32644	32592	
409	0	32686	32708	
410	0	32676	32682	
411	0	32640	32614	
412	0	32710	32732	
413	0	32682	32748	
414	0	32692	32648	
415	0	32752	32754	
416	0	32816	32670	
417	0	32776	32720	
418	0	32812	32740	
419	0	32776	32572	
420	0	32760	32812	
421	0	32792	32788	
422	0	32776	32632	
423	0	32798	32834	
424	0	32780	32766	
425	0	32796	32664	
426	0	32816	32800	
427	0	32752	32820	
428	0	32858	32756	
429	0	32834	32808	
430	0	32772	32800	
431	0	32840	32858	
432	0	32836	32804	
433	0	32820	32722	
434	0	32736	32760	
435	0	32844	32712	
436	0	32842	32662	
437	0	32813	32806	
438	0	32844	32836	
439	0	32784	32697	
440	0	32832	32852	
441	0	32800	32714	
442	0	32766	32666	
443	0	32828	32822	
444	0	32814	32756	
445	0	32816	32740	
446	0	32762	32760	
447	0	32746	32790	
448	0	32804	32704	
449	0	32750	32808	
450	0	32800	32832	
451	0	32776	32724	
452	0	32792	32784	
453	0	32800	32816	
454	0	32826	32772	
455	0	32836	32756	
456	0	32832	32644	
457	0	32884	32758	
458	0	32780	32796	
459	0	32816	32704	
460	0	32812	32764	
461	0	32792	32836	
462	0	32800	32724	
463	0	32728	32818	
464	0	32812	32820	
465	0	32800	32712	
466	0	32824	32800	
467	0	32888	32804	
468	0	32768	32716	
469	0	32780	32760	
470	0	32776	32768	
471	0	32796	32752	
472	0	32796	32804	
473	0	32810	32664	
474	0	32804	32836	
475	0	32728	32720	
476	0	32776	32642	
477	0	32824	32740	
478	0	32874	32718	
479	0	32832	32764	
480	0	32792	32768	
481	0	32816	32722	
482	0	32824	32772	
483	0	32792	32824	
484	0	32808	32700	
485	0	32832	32744	
486	0	32832	32748	
487	0	32794	32842	
488	0	32824	32764	
489	0	32752	32714	
490	0	32780	32800	
491	0	32844	32736	
492	0	32760	32676	
493	0	32780	32784	
494	0	32786	32824	
495	0	32884	32704	
496	0	32844	32768	
497	0	32828	32796	
498	0	32776	32684	
499	0	32856	32808	
500	0	32878	32780	
501	0	32760	32736	
502	0	32744	32772	
503	0	32776	32824	
504	0	32724	32756	
505	0	32760	32730	
506	0	32786	32872	
507	0	32780	32786	
508	0	32788	32792	
509	0	32828	32608	
510	0	32808	32752	
511	0	32804	32704	
512	0	32804	32830	
513	0	32808	32770	
514	0	32784	32740	
515	0	32804	32792	
516	0	32804	32744	
517	0	32832	32740	
518	0	32816	32700	
519	0	32756	32804	
520	0	32842	32640	
521	0	32784	32892	
522	0	32768	32756	
523	0	32812	32684	
524	0	32862	32836	
525	0	32828	32784	
526	0	32744	32666	
527	0	32776	32830	
528	0	32840	32852	
529	0	32766	32686	
530	0	32798	32816	
531	0	32788	32692	
532	0	32788	32808	
533	0	32800	32816	
534	0	32814	32732	
535	0	32762	32832	
536	0	32872	32756	
537	0	32836	32660	
538	0	32784	32816	
539	0	32828	32752	
540	0	32840	32746	
541	0	32880	32748	
542	0	32748	32736	
543	0	32784	32846	
544	0	32816	32768	
545	0	32802	32720	
546	0	32756	32722	
547	0	32708	32734	
548	0	32794	32792	
549	0	32768	32676	
550	0	32778	32806	
551	0	32818	32812	
552	0	32864	32706	
553	0	32864	32796	
554	0	32792	32692	
555	0	32778	32760	
556	0	32752	32860	
557	0	32876	32680	
558	0	32828	32790	
559	0	32828	32834	
560	0	32784	32740	
561	0	32816	32832	
562	0	32846	32768	
563	0	32820	32788	
564	0	32780	32808	
565	0	32788	32748	
566	0	32800	32766	
567	0	32748	32644	
568	0	32760	32794	
569	0	32872	32704	
570	0	32764	32784	
571	0	32794	32656	
572	0	32816	32864	
573	0	32792	32810	
574	0	32848	32672	
575	0	32772	32804	
576	0	32780	32706	
577	0	32824	32808	
578	0	32828	32768	
579	0	32796	32786	
580	0	32840	32784	
581	0	32808	32744	
582	0	32792	32824	
583	0	32836	32762	
584	0	32836	32754	
585	0	32784	32726	
586	0	32754	32820	
587	0	32784	32664	
588	0	32824	32746	
589	0	32810	32776	
590	0	32828	32692	
591	0	32836	32792	
592	0	32756	32682	
593	0	32792	32834	
594	0	32794	32828	
595	0	32800	32750	
596	0	32792	32788	
597	0	32864	32672	
598	0	32856	32772	
599	0	32832	32744	
600	0	32852	32748	
601	0	32808	32800	
602	0	32804	32846	
603	0	32812	32760	
604	0	32828	32808	
605	0	32794	32772	
606	0	32824	32786	
607	0	32770	32714	
608	0	32802	32784	
609	0	32808	32704	
610	0	32838	32752	
611	0	32732	32728	
612	0	32816	32824	
613	0	32844	32800	
614	0	32820	32772	
615	0	32888	32814	
616	0	32896	32718	
617	0	32816	32710	
618	0	32830	32748	
619	0	32784	32804	
620	0	32860	32730	
621	0	32800	32692	
622	0	32780	32778	
623	0	32850	32734	
624	0	32808	32724	
625	0	32780	32800	
626	0	32860	32734	
627	0	32852	32824	
628	0	32784	32716	
629	0	32802	32812	
630	0	32832	32830	
631	0	32796	32732	
632	0	32836	32784	
633	0	32776	32756	
634	0	32804	32740	
635	0	32848	32798	
636	0	32890	32770	
637	0	32832	32712	
638	0	32832	32796	
639	0	32760	32716	
640	0	32850	32854	
641	0	32842	32796	
642	0	32780	32744	
643	0	32772	32784	
644	0	32780	32832	
645	0	32804	32738	
646	0	32772	32844	
647	0	32848	32706	
648	0	32856	32716	
649	0	32840	32746	
650	0	32760	32772	
651	0	32884	32774	
652	0	32828	32770	
653	0	32824	32704	
654	0	32846	32860	
655	0	32806	32804	
656	0	32816	32706	
657	0	32820	32758	
658	0	32836	32674	
659	0	32810	32784	
660	0	32764	32768	
661	0	32784	32754	
662	0	32832	32756	
663	0	32762	32708	
664	0	32808	32903	
665	0	32810	32824	
666	0	32852	32670	
667	0	32764	32760	
668	0	32714	32822	
669	0	32800	32806	
670	0	32804	32736	
671	0	32828	32704	
672	0	32810	32768	
673	0	32824	32772	
674	0	32760	32774	
675	0	32778	32788	
676	0	32804	32716	
677	0	32884	32828	
678	0	32808	32732	
679	0	32880	32722	
680	0	32868	32746	
681	0	32772	32764	
682	0	32808	32740	
683	0	32720	32764	
684	0	32794	32760	
685	0	32804	32870	
686	0	32808	32862	
687	0	32764	32700	
688	0	32780	32760	
689	0	32776	32748	
690	0	32780	32780	
691	0	32812	32732	
692	0	32814	32718	
693	0	32772	32806	
694	0	32832	32732	
695	0	32848	32614	
696	0	32832	32728	
697	0	32848	32724	
698	0	32824	32858	
699	0	32868	32804	
700	0	32878	32824	
701	0	32848	32832	
702	0	32820	32756	
703	0	32812	32704	
704	0	32810	32672	
705	0	32788	32824	
706	0	32828	32702	
707	0	32732	32822	
708	0	32788	32872	
709	0	32792	32732	
710	0	32824	32756	
711	0	32872	32716	
712	0	32852	32860	
713	0	32754	32772	
714	0	32804	32750	
715	0	32822	32864	
716	0	32820	32740	
717	0	32876	32784	
718	0	32800	32804	
719	0	32836	32714	
720	0	32802	32820	
721	0	32852	32812	
722	0	32828	32724	
723	0	32804	32810	
724	0	32784	32812	
725	0	32830	32736	
726	0	32820	32720	
727	0	32740	32688	
728	0	32876	32808	
729	0	32728	32812	
730	0	32828	32680	
731	0	32814	32828	
732	0	32836	32828	
733	0	32808	32754	
734	0	32784	32774	
735	0	32842	32762	
736	0	32816	32728	
737	0	32840	32792	
738	0	32808	32800	
739	0	32825	32712	
740	0	32828	32816	
741	0	32836	32828	
742	0	32756	32724	
743	0	32808	32804	
744	0	32796	32696	
745	0	32832	32804	
746	0	32774	32772	
747	0	32778	32690	
748	0	32844	32728	
749	0	32744	32704	
750	0	32800	32808	
751	0	32832	32728	
752	0	32824	32830	
753	0	32800	32775	
754	0	32824	32730	
755	0	32884	32794	
756	0	32804	32730	
757	0	32896	32826	
758	0	32836	32804	
759	0	32794	32738	
760	0	32704	32744	
761	0	32820	32744	
762	0	32852	32870	
763	0	32816	32790	
764	0	32892	32810	
765	0	32840	32816	
766	0	32800	32814	
767	0	32780	32744	
768	0	32828	32748	
769	0	32756	32792	
770	0	32782	32892	
771	0	32776	32748	
772	0	32732	32816	
773	0	32804	32676	
774	0	32784	32808	
775	0	32868	32804	
776	0	32796	32692	
777	0	32808	32800	
778	0	32864	32718	
779	0	32792	32772	
780	0	32808	32656	
781	0	32812	32800	
782	0	32826	32738	
783	0	32796	32860	
784	0	32808	32760	
785	0	32776	32796	
786	0	32816	32796	
787	0	32784	32702	
788	0	32872	32736	
789	0	32860	32796	
790	0	32774	32674	
791	0	32822	32784	
792	0	32786	32872	
793	0	32794	32685	
794	0	32856	32746	
795	0	32868	32860	
796	0	32810	32738	
797	0	32788	32740	
798	0	32764	32740	
799	0	32776	32760	
800	0	32874	32772	
801	0	32816	32704	
802	0	32792	32772	
803	0	32828	32706	
804	0	32780	32796	
805	0	32812	32832	
806	0	32816	32792	
807	0	32784	32826	
808	0	32789	32720	
809	0	32852	32796	
810	0	32904	32760	
811	0	32854	32776	
812	0	32800	32848	
813	0	32732	32672	
814	0	32800	32744	
815	0	32810	32658	
816	0	32810	32728	
817	0	32876	32810	
818	0	32832	32752	
819	0	32788	32772	
820	0	32808	32696	
821	0	32832	32770	
822	0	32846	32703	
823	0	32832	32728	
824	0	32802	32832	
825	0	32732	32820	
826	0	32786	32750	
827	0	32798	32694	
828	0	32768	32748	
829	0	32808	32828	
830	0	32776	32746	
831	0	32802	32724	
832	0	32830	32740	
833	0	32820	32712	
834	0	32808	32808	
835	0	32824	32764	
836	0	32784	32704	
837	0	32856	32716	
838	0	32844	32664	
839	0	32832	32780	
840	0	32804	32740	
841	0	32804	32796	
842	0	32760	32696	
843	0	32752	32680	
844	0	32756	32784	
845	0	32864	32832	
846	0	32824	32772	
847	0	32848	32720	
848	0	32764	32696	
849	0	32728	32808	
850	0	32838	32672	
851	0	32840	32770	
852	0	32768	32798	
853	0	32740	32764	
854	0	32880	32800	
855	0	32816	32792	
856	0	32792	32724	
857	0	32812	32776	
858	0	32832	32712	
859	0	32792	32772	
860	0	32840	32794	
861	0	32840	32762	
862	0	32804	32744	
863	0	32824	32752	
864	0	32864	32768	
865	0	32816	32732	
866	0	32820	32738	
867	0	32820	32806	
868	0	32788	32772	
869	0	32824	32820	
870	0	32768	32800	
871	0	32848	32800	
872	0	32784	32706	
873	0	32768	32824	
874	0	32788	32764	
875	0	32828	32732	
876	0	32804	32740	
877	0	32804	32625	
878	0	32840	32712	
879	0	32816	32764	
880	0	32832	32784	
881	0	32784	32882	
882	0	32768	32720	
883	0	32793	32736	
884	0	32792	32668	
885	0	32816	32894	
886	0	32794	32612	
887	0	32824	32764	
888	0	32786	32724	
889	0	32812	32740	
890	0	32780	32744	
891	0	32846	32908	
892	0	32864	32740	
893	0	32808	32804	
894	0	32792	32736	
895	0	32804	32794	
896	0	32800	32684	
897	0	32824	32812	
898	0	32746	32759	
899	0	32868	32788	
900	0	32848	32728	
901	0	32736	32844	
902	0	32778	32742	
903	0	32868	32816	
904	0	32880	32792	
905	0	32784	32728	
906	0	32756	32716	
907	0	32776	32800	
908	0	32776	32788	
909	0	32800	32775	
910	0	32820	32798	
911	0	32770	32732	
912	0	32794	32716	
913	0	32832	32704	
914	0	32836	32856	
915	0	32776	32714	
916	0	32800	32850	
917	0	32800	32660	
918	0	32832	32728	
919	0	32842	32680	
920	0	32852	32760	
921	0	32832	32800	
922	0	32756	32800	
923	0	32848	32792	
924	0	32820	32752	
925	0	32756	32826	
926	0	32800	32806	
927	0	32786	32829	
928	0	32844	32751	
929	0	32820	32784	
930	0	32788	32808	
931	0	32848	32800	
932	0	32808	32786	
933	0	32802	32720	
934	0	32864	32830	
935	0	32876	32638	
936	0	32839	32754	
937	0	32824	32716	
938	0	32864	32772	
939	0	32808	32656	
940	0	32832	32808	
941	0	32768	32734	
942	0	32794	32746	
943	0	32792	32768	
944	0	32858	32772	
945	0	32764	32692	
946	0	32772	32804	
947	0	32776	32684	
948	0	32842	32872	
949	0	32794	32746	
950	0	32808	32858	
951	0	32836	32732	
952	0	32856	32766	
953	0	32776	32710	
954	0	32800	32784	
955	0	32800	32840	
956	0	32796	32796	
957	0	32794	32720	
958	0	32780	32810	
959	0	32782	32728	
960	0	32770	32764	
961	0	32778	32728	
962	0	32824	32844	
963	0	32808	32824	
964	0	32821	32816	
965	0	32800	32868	
966	0	32852	32764	
967	0	32820	32716	
968	0	32794	32842	
969	0	32824	32724	
970	0	32828	32714	
971	0	32824	32666	
972	0	32796	32834	
973	0	32824	32692	
974	0	32864	32678	
975	0	32848	32736	
976	0	32800	32770	
977	0	32768	32672	
978	0	32820	32826	
979	0	32906	32818	
980	0	32848	32810	
981	0	32808	32832	
982	0	32792	32700	
983	0	32812	32760	
984	0	32804	32673	
985	0	32820	32728	
986	0	32836	32704	
987	0	32792	32788	
988	0	32804	32844	
989	0	32768	32624	
990	0	32812	32732	
991	0	32828	32796	
992	0	32870	32788	
993	0	32772	32756	
994	0	32824	32750	
995	0	32798	32820	
996	0	32810	32804	
997	0	32888	32752	
998	0	32852	32672	
999	0	32848	32828	
1000	0	32868	32752	
1001	0	32788	32728	
1002	0	32776	32810	
1003	0	32800	32812	
1004	0	32788	32792	
1005	0	32784	32762	
1006	0	32820	32744	
1007	0	32844	32738	
1008	0	32768	32752	
1009	0	32776	32774	
1010	0	32778	32758	
1011	0	32798	32760	
1012	0	32816	32674	
1013	0	32770	32768	
1014	0	32772	32774	
1015	0	32890	32798	
1016	0	32766	32856	
1017	0	32768	32775	
1018	0	32896	32894	
1019	0	32744	32844	
1020	0	32784	32808	
1021	0	32860	32804	
1022	0	32792	32728	
1023	0	32892	32752	
1024	0	32784	32772	
1025	0	32752	32724	
1026	0	32814	32844	
1027	0	32814	32788	
1028	0	32778	32806	
1029	0	32832	32684	
1030	0	32752	32852	
1031	0	32868	32832	
1032	0	32848	32836	
1033	0	32788	32738	
1034	0	32804	32848	
1035	0	32822	32760	
1036	0	32788	32816	
1037	0	32768	32740	
1038	0	32824	32792	
1039	0	32808	32666	
1040	0	32844	32740	
1041	0	32848	32736	
1042	0	32816	32774	
1043	0	32792	32730	
1044	0	32792	32724	
1045	0	32772	32748	
1046	0	32832	32892	
1047	0	32816	32724	
1048	0	32780	32808	
1049	0	32790	32788	
1050	0	32802	32770	
1051	0	32820	32812	
1052	0	32744	32656	
1053	0	32776	32708	
1054	0	32808	32672	
1055	0	32824	32844	
1056	0	32816	32768	
1057	0	32834	32702	
1058	0	32804	32754	
1059	0	32800	32762	
1060	0	32808	32784	
1061	0	32808	32648	
1062	0	32768	32810	
1063	0	32832	32826	
1064	0	32810	32740	
1065	0	32812	32808	
1066	0	32816	32804	
1067	0	32760	32624	
1068	0	32740	32804	
1069	0	32780	32732	
1070	0	32778	32880	
1071	0	32784	32840	
1072	0	32808	32864	
1073	0	32800	32788	
1074	0	32844	32744	
1075	0	32884	32784	
1076	0	32796	32740	
1077	0	32828	32712	
1078	0	32848	32804	
1079	0	32840	32884	
1080	0	32728	32716	
1081	0	32804	32776	
1082	0	32804	32748	
1083	0	32792	32832	
1084	0	32784	32830	
1085	0	32820	32656	
1086	0	32760	32722	
1087	0	32808	32720	
1088	0	32832	32820	
1089	0	32756	32832	
1090	0	32780	32658	
1091	0	32764	32744	
1092	0	32808	32656	
1093	0	32852	32836	
1094	0	32848	32744	
1095	0	32816	32816	
1096	0	32844	32748	
1097	0	32814	32900	
1098	0	32768	32818	
1099	0	32800	32684	
1100	0	32796	32775	
1101	0	32816	32828	
1102	0	32740	32816	
1103	0	32776	32804	
1104	0	32820	32756	
1105	0	32824	32808	
1106	0	32796	32718	
1107	0	32804	32892	
1108	0	32812	32920	
1109	0	32866	32732	
1110	0	32776	32744	
1111	0	32772	32782	
1112	0	32802	32852	
1113	0	32868	32840	
1114	0	32814	32724	
1115	0	32792	32748	
1116	0	32824	32680	
1117	0	32816	32758	
1118	0	32800	32726	
1119	0	32866	32708	
1120	0	32830	32812	
1121	0	32826	32820	
1122	0	32760	32666	
1123	0	32844	32716	
1124	0	32836	32708	
1125	0	32732	32880	
1126	0	32812	32824	
1127	0	32928	32750	
1128	0	32844	32848	
1129	0	32784	32814	
1130	0	32824	32712	
1131	0	32840	32762	
1132	0	32800	32807	
1133	0	32820	32660	
1134	0	32812	32710	
1135	0	32856	32740	
1136	0	32804	32782	
1137	0	32836	32700	
1138	0	32804	32748	
1139	0	32746	32734	
1140	0	32812	32760	
1141	0	32876	32744	
1142	0	32782	32678	
1143	0	32872	32714	
1144	0	32800	32822	
1145	0	32796	32752	
1146	0	32780	32900	
1147	0	32852	32808	
1148	0	32808	32678	
1149	0	32808	32800	
1150	0	32780	32804	
1151	0	32740	32740	
1152	0	32764	32756	
1153	0	32792	32780	
1154	0	32814	32792	
1155	0	32852	32858	
1156	0	32884	32736	
1157	0	32844	32698	
1158	0	32834	32834	
1159	0	32816	32800	
1160	0	32768	32704	
1161	0	32834	32872	
1162	0	32824	32788	
1163	0	32784	32756	
1164	0	32840	32810	
1165	0	32812	32784	
1166	0	32872	32736	
1167	0	32762	32884	
1168	0	32852	32782	
1169	0	32824	32744	
1170	0	32832	32796	
1171	0	32744	32672	
1172	0	32816	32826	
1173	0	32782	32826	
1174	0	32836	32638	
1175	0	32796	32734	
1176	0	32802	32692	
1177	0	32792	32820	
1178	0	32832	32826	
1179	0	32832	32808	
1180	0	32804	32740	
1181	0	32808	32720	
1182	0	32816	32768	
1183	0	32734	32752	
1184	0	32776	32844	
1185	0	32844	32820	
1186	0	32804	32768	
1187	0	32824	32832	
1188	0	32820	32724	
1189	0	32776	32844	
1190	0	32844	32800	
1191	0	32816	32688	
1192	0	32850	32730	
1193	0	32800	32640	
1194	0	32798	32736	
1195	0	32828	32802	
1196	0	32836	32784	
1197	0	32832	32896	
1198	0	32812	32724	
1199	0	32744	32780	
1200	0	32820	32740	
1201	0	32800	32732	
1202	0	32802	32772	
1203	0	32800	32768	
1204	0	32768	32828	
1205	0	32852	32728	
1206	0	32820	32804	
1207	0	32816	32780	
1208	0	32868	32698	
1209	0	32824	32708	
1210	0	32836	32868	
1211	0	32788	32768	
1212	0	32768	32632	
1213	0	32756	32784	
1214	0	32852	32820	
1215	0	32812	32836	
1216	0	32808	32828	
1217	0	32808	32786	
1218	0	32800	32732	
1219	0	32792	32714	
1220	0	32792	32854	
1221	0	32820	32840	
1222	0	32786	32844	
1223	0	32860	32804	
1224	0	32832	32730	
1225	0	32752	32774	
1226	0	32812	32696	
1227	0	32808	32774	
1228	0	32848	32674	
1229	0	32794	32806	
1230	0	32804	32720	
1231	0	32808	32748	
1232	0	32834	32792	
1233	0	32804	32756	
1234	0	32840	32756	
1235	0	32768	32716	
1236	0	32840	32788	
1237	0	32800	32804	
1238	0	32856	32708	
1239	0	32850	32884	
1240	0	32760	32884	
1241	0	32780	32744	
1242	0	32792	32732	
1243	0	32796	32724	
1244	0	32804	32814	
1245	0	32748	32720	
1246	0	32752	32714	
1247	0	32788	32638	
1248	0	32826	32780	
1249	0	32836	32748	
1250	0	32868	32854	
1251	0	32748	32832	
1252	0	32816	32774	
1253	0	32808	32784	
1254	0	32874	32676	
1255	0	32786	32802	
1256	0	32868	32810	
1257	0	32760	32700	
1258	0	32788	32774	
1259	0	32860	32849	
1260	0	32832	32684	
1261	0	32788	32796	
1262	0	32832	32802	
1263	0	32824	32744	
1264	0	32856	32790	
1265	0	32776	32704	
1266	0	32852	32796	
1267	0	32800	32824	
1268	0	32788	32714	
1269	0	32816	32720	
1270	0	32796	32832	
1271	0	32784	32756	
1272	0	32794	32764	
1273	0	32780	32764	
1274	0	32748	32750	
1275	0	32824	32752	
1276	0	32854	32672	
1277	0	32876	32820	
1278	0	32804	32764	
1279	0	32826	32740	
1280	0	32770	32756	
1281	0	32864	32700	
1282	0	32810	32750	
1283	0	32824	32798	
1284	0	32760	32718	
1285	0	32736	32778	
1286	0	32812	32880	
1287	0	32868	32764	
1288	0	32772	32804	
1289	0	32832	32752	
1290	0	32816	32812	
1291	0	32808	32854	
1292	0	32744	32720	
1293	0	32744	32686	
1294	0	32778	32746	
1295	0	32848	32756	
1296	0	32768	32750	
1297	0	32856	32736	
1298	0	32824	32790	
1299	0	32772	32724	
1300	0	32804	32810	
1301	0	32860	32804	
1302	0	32868	32736	
1303	0	32836	32736	
1304	0	32840	32764	
1305	0	32774	32754	
1306	0	32810	32764	
1307	0	32798	32864	
1308	0	32804	32824	
1309	0	32770	32678	
1310	0	32802	32768	
1311	0	32792	32684	
1312	0	32880	32752	
1313	0	32776	32716	
1314	0	32842	32764	
1315	0	32826	32794	
1316	0	32812	32710	
1317	0	32828	32766	
1318	0	32760	32803	
1319	0	32810	32768	
1320	0	32864	32824	
1321	0	32800	32708	
1322	0	32832	32818	
1323	0	32826	32748	
1324	0	32792	32802	
1325	0	32796	32774	
1326	0	32788	32712	
1327	0	32752	32808	
1328	0	32828	32822	
1329	0	32792	32724	
1330	0	32800	32804	
1331	0	32792	32746	
1332	0	32812	32814	
1333	0	32784	32754	
1334	0	32880	32698	
1335	0	32892	32724	
1336	0	32796	32708	
1337	0	32792	32816	
1338	0	32840	32776	
1339	0	32778	32640	
1340	0	32828	32812	
1341	0	32804	32730	
1342	0	32796	32860	
1343	0	32788	32852	
1344	0	32820	32728	
1345	0	32796	32788	
1346	0	32852	32876	
1347	0	32832	32804	
1348	0	32824	32816	
1349	0	32806	32692	
1350	0	32820	32740	
1351	0	32822	32696	
1352	0	32800	32826	
1353	0	32836	32760	
1354	0	32828	32692	
1355	0	32884	32816	
1356	0	32880	32712	
1357	0	32804	32814	
1358	0	32768	32860	
1359	0	32866	32738	
1360	0	32824	32792	
1361	0	32856	32800	
1362	0	32762	32686	
1363	0	32820	32888	
1364	0	32836	32832	
1365	0	32864	32734	
1366	0	32744	32742	
1367	0	32806	32738	
1368	0	32800	32708	
1369	0	32786	32784	
1370	0	32788	32640	
1371	0	32796	32736	
1372	0	32836	32808	
1373	0	32816	32812	
1374	0	32832	32788	
1375	0	32832	32636	
1376	0	32892	32744	
1377	0	32736	32900	
1378	0	32816	32692	
1379	0	32769	32808	
1380	0	32776	32716	
1381	0	32776	32788	
1382	0	32816	32824	
1383	0	32780	32732	
1384	0	32844	32836	
1385	0	32790	32748	
1386	0	32770	32812	
1387	0	32832	32832	
1388	0	32860	32775	
1389	0	32776	32824	
1390	0	32808	32804	
1391	0	32848	32710	
1392	0	32848	32680	
1393	0	32820	32812	
1394	0	32848	32718	
1395	0	32800	32836	
1396	0	32792	32832	
1397	0	32824	32806	
1398	0	32838	32760	
1399	0	32848	32656	
1400	0	32776	32762	
1401	0	32802	32738	
1402	0	32812	32768	
1403	0	32826	32706	
1404	0	32780	32842	
1405	0	32784	32770	
1406	0	32812	32648	
1407	0	32786	32740	
1408	0	32796	32756	
1409	0	32824	32810	
1410	0	32838	32772	
1411	0	32834	32672	
1412	0	32818	32748	
1413	0	32796	32760	
1414	0	32872	32792	
1415	0	32768	32768	
1416	0	32830	32710	
1417	0	32860	32716	
1418	0	32798	32792	
1419	0	32772	32780	
1420	0	32780	32864	
1421	0	32828	32738	
1422	0	32784	32792	
1423	0	32762	32684	
1424	0	32818	32800	
1425	0	32752	32848	
1426	0	32824	32840	
1427	0	32772	32826	
1428	0	32832	32720	
1429	0	32788	32682	
1430	0	32804	32696	
1431	0	32848	32864	
1432	0	32786	32792	
1433	0	32820	32744	
1434	0	32824	32708	
1435	0	32764	32720	
1436	0	32820	32852	
1437	0	32808	32786	
1438	0	32864	32760	
1439	0	32796	32816	
1440	0	32800	32672	
1441	0	32828	32846	
1442	0	32768	32848	
1443	0	32840	32736	
1444	0	32802	32768	
1445	0	32812	32674	
1446	0	32868	32870	
1447	0	32828	32792	
1448	0	32824	32756	
1449	0	32856	32770	
1450	0	32810	32732	
1451	0	32792	32788	
1452	0	32756	32673	
1453	0	32770	32856	
1454	0	32728	32808	
1455	0	32712	32674	
1456	0	32756	32680	
1457	0	32676	32578	
1458	0	32684	32672	
1459	0	32740	32700	
1460	0	32768	32652	
1461	0	32732	32756	
1462	0	32716	32650	
1463	0	32612	32720	
1464	0	32656	32636	
1465	0	32692	32756	
1466	0	32660	32706	
1467	0	32760	32624	
1468	0	32728	32714	
1469	0	32740	32668	
1470	0	32864	32824	
1471	0	32816	32736	
1472	0	32776	32654	
1473	0	32840	32800	
1474	0	32908	32894	
1475	0	32836	32732	
1476	0	32836	32796	
1477	0	32890	32708	
1478	0	32860	32834	
1479	0	32920	32878	
1480	0	32932	32846	
1481	0	32978	32952	
1482	0	33024	32910	
1483	0	33052	33086	
1484	0	33090	33060	
1485	0	33104	33004	
1486	0	33104	32980	
1487	0	33072	32988	
1488	0	33076	32876	
1489	0	32976	32864	
1490	0	32912	32756	
1491	0	32846	32816	
1492	0	32876	32808	
1493	0	32900	32744	
1494	0	32896	32665	
1495	0	32780	32660	
1496	0	32716	32572	
1497	0	32702	32588	
1498	0	32664	32720	
1499	0	32680	32672	
1500	0	32692	32726	
1501	0	32700	32708	
1502	0	32704	32654	
1503	0	32768	32804	
1504	0	32752	32824	
1505	0	32708	32848	
1506	0	32724	32812	
1507	0	32764	32708	
1508	0	32724	32748	
1509	0	32776	32772	
1510	0	32712	32798	
1511	0	32824	32842	
1512	0	32776	32736	
1513	0	32760	32844	
1514	0	32776	32826	
1515	0	32892	32774	
1516	0	32756	32680	
1517	0	32824	32756	
1518	0	32768	32804	
1519	0	32832	32775	
1520	0	32860	32708	
1521	0	32804	32744	
1522	0	32818	32696	
1523	0	32848	32588	
1524	0	32872	32810	
1525	0	32722	32812	
1526	0	32856	32760	
1527	0	32800	32688	
1528	0	32788	32768	
1529	0	32804	32664	
1530	0	32864	32794	
1531	0	32746	32816	
1532	0	32778	32692	
1533	0	32806	32778	
1534	0	32812	32736	
1535	0	32868	32864	
1536	0	32840	32844	
1537	0	32820	32756	
1538	0	32828	32776	
1539	0	32760	32768	
1540	0	32810	32788	
1541	0	32792	32781	
1542	0	32836	32780	
1543	0	32804	32804	
1544	0	32758	32760	
1545	0	32788	32792	
1546	0	32788	32788	
1547	0	32834	32764	
1548	0	32820	32756	
1549	0	32782	32668	
1550	0	32788	32748	
1551	0	32824	32706	
1552	0	32792	32794	
1553	0	32820	32688	
1554	0	32840	32716	
1555	0	32880	32760	
1556	0	32868	32640	
1557	0	32898	32768	
1558	0	32738	32880	
1559	0	32808	32818	
1560	0	32800	32880	
1561	0	32798	32762	
1562	0	32820	32872	
1563	0	32796	32866	
1564	0	32776	32740	
1565	0	32828	32732	
1566	0	32792	32712	
1567	0	32772	32760	
1568	0	32767	32740	
1569	0	32796	32696	
1570	0	32792	32796	
1571	0	32788	32716	
1572	0	32818	32752	
1573	0	32788	32772	
1574	0	32816	32692	
1575	0	32842	32728	
1576	0	32836	32648	
1577	0	32872	32724	
1578	0	32860	32696	
1579	0	32776	32894	
1580	0	32724	32820	
1581	0	32836	32712	
1582	0	32880	32790	
1583	0	32844	32696	
1584	0	32804	32828	
1585	0	32820	32746	
1586	0	32846	32866	
1587	0	32816	32690	
1588	0	32812	32852	
1589	0	32804	32734	
1590	0	32780	32816	
1591	0	32782	32836	
1592	0	32796	32688	
1593	0	32804	32766	
1594	0	32810	32704	
1595	0	32884	32700	
1596	0	32864	32762	
1597	0	32828	32620	
1598	0	32820	32856	
1599	0	32852	32868	
1600	0	32824	32880	
1601	0	32768	32876	
1602	0	32768	32800	
1603	0	32852	32808	
1604	0	32800	32714	
1605	0	32796	32832	
1606	0	32816	32816	
1607	0	32856	32726	
1608	0	32798	32736	
1609	0	32776	32704	
1610	0	32836	32754	
1611	0	32844	32736	
1612	0	32772	32722	
1613	0	32768	32816	
1614	0	32724	32684	
1615	0	32832	32856	
1616	0	32820	32756	
1617	0	32888	32670	
1618	0	32832	32712	
1619	0	32804	32736	
1620	0	32752	32796	
1621	0	32712	32760	
1622	0	32840	32784	
1623	0	32846	32736	
1624	0	32832	32750	
1625	0	32696	32794	
1626	0	32788	32800	
1627	0	32804	32686	
1628	0	32828	32788	
1629	0	32814	32664	
1630	0	32764	32794	
1631	0	32824	32790	
1632	0	32776	32716	
1633	0	32872	32800	
1634	0	32852	32712	
1635	0	32850	32812	
1636	0	32796	32696	
1637	0	32824	32748	
1638	0	32754	32906	
1639	0	32838	32782	
1640	0	32800	32812	
1641	0	32784	32756	
1642	0	32788	32704	
1643	0	32824	32750	
1644	0	32832	32836	
1645	0	32784	32698	
1646	0	32752	32724	
1647	0	32856	32732	
1648	0	32788	32788	
1649	0	32764	32718	
1650	0	32776	32704	
1651	0	32796	32764	
1652	0	32848	32784	
1653	0	32848	32676	
1654	0	32816	32732	
1655	0	32862	32728	
1656	0	32872	32694	
1657	0	32828	32810	
1658	0	32792	32764	
1659	0	32794	32832	
1660	0	32816	32882	
1661	0	32820	32812	
1662	0	32824	32776	
1663	0	32792	32692	
1664	0	32752	32775	
1665	0	32812	32724	
1666	0	32858	32644	
1667	0	32784	32860	
1668	0	32814	32760	
1669	0	32818	32812	
1670	0	32820	32769	
1671	0	32796	32716	
1672	0	32810	32810	
1673	0	32720	32846	
1674	0	32804	32682	
1675	0	32840	32820	
1676	0	32904	32784	
1677	0	32850	32804	
1678	0	32778	32788	
1679	0	32824	32636	
1680	0	32752	32804	
1681	0	32840	32804	
1682	0	32796	32696	
1683	0	32784	32772	
1684	0	32832	32720	
1685	0	32804	32812	
1686	0	32792	32852	
1687	0	32756	32748	
1688	0	32784	32770	
1689	0	32744	32650	
1690	0	32800	32784	
1691	0	32816	32624	
1692	0	32764	32812	
1693	0	32820	32774	
1694	0	32842	32736	
1695	0	32836	32822	
1696	0	32888	32872	
1697	0	32848	32760	
1698	0	32840	32834	
1699	0	32848	32702	
1700	0	32808	32860	
1701	0	32828	32844	
1702	0	32764	32836	
1703	0	32878	32756	
1704	0	32784	32866	
1705	0	32772	32730	
1706	0	32824	32760	
1707	0	32808	32820	
1708	0	32800	32732	
1709	0	32792	32788	
1710	0	32832	32700	
1711	0	32816	32856	
1712	0	32776	32800	
1713	0	32832	32689	
1714	0	32804	32804	
1715	0	32768	32662	
1716	0	32872	32680	
1717	0	32860	32668	
1718	0	32796	32736	
1719	0	32744	32750	
1720	0	32826	32912	
1721	0	32808	32852	
1722	0	32776	32808	
1723	0	32834	32719	
1724	0	32816	32842	
1725	0	32800	32774	
1726	0	32840	32740	
1727	0	32794	32832	
1728	0	32828	32752	
1729	0	32896	32744	
1730	0	32804	32700	
1731	0	32820	32756	
1732	0	32752	32886	
1733	0	32852	32702	
1734	0	32852	32784	
1735	0	32790	32724	
1736	0	32804	32762	
1737	0	32872	32828	
1738	0	32810	32708	
1739	0	32808	32790	
1740	0	32848	32860	
1741	0	32796	32760	
1742	0	32788	32792	
1743	0	32794	32748	
1744	0	32832	32830	
1745	0	32854	32804	
1746	0	32830	32750	
1747	0	32800	32792	
1748	0	32828	32716	
1749	0	32808	32768	
1750	0	32764	32689	
1751	0	32792	32770	
1752	0	32832	32712	
1753	0	32864	32822	
1754	0	32792	32836	
1755	0	32816	32698	
1756	0	32836	32768	
1757	0	32844	32846	
1758	0	32770	32820	
1759	0	32820	32732	
1760	0	32828	32716	
1761	0	32776	32804	
1762	0	32800	32778	
1763	0	32780	32702	
1764	0	32806	32804	
1765	0	32756	32784	
1766	0	32768	32774	
1767	0	32792	32796	
1768	0	32748	32754	
1769	0	32784	32672	
1770	0	32798	32728	
1771	0	32836	32698	
1772	0	32832	32822	
1773	0	32852	32772	
1774	0	32884	32772	
1775	0	32784	32838	
1776	0	32834	32848	
1777	0	32848	32686	
1778	0	32784	32820	
1779	0	32844	32836	
1780	0	32768	32728	
1781	0	32796	32804	
1782	0	32804	32752	
1783	0	32804	32704	
1784	0	32740	32716	
1785	0	32796	32742	
1786	0	32802	32788	
1787	0	32864	32794	
1788	0	32808	32742	
1789	0	32776	32772	
1790	0	32852	32704	
1791	0	32804	32716	
1792	0	32760	32796	
1793	0	32816	32692	
1794	0	32780	32734	
1795	0	32776	32814	
1796	0	32852	32724	
1797	0	32812	32800	
1798	0	32900	32628	
1799	0	32890	32796	
1800	0	32804	32774	
1801	0	32740	32800	
1802	0	32768	32798	
1803	0	32776	32688	
1804	0	32780	32844	
1805	0	32826	32848	
1806	0	32900	32724	
1807	0	32774	32784	
1808	0	32784	32732	
1809	0	32804	32868	
1810	0	32788	32794	
1811	0	32784	32728	
1812	0	32828	32744	
1813	0	32808	32660	
1814	0	32880	32696	
1815	0	32788	32772	
1816	0	32826	32752	
1817	0	32736	32774	
1818	0	32856	32708	
1819	0	32812	32848	
1820	0	32788	32892	
1821	0	32804	32852	
1822	0	32824	32820	
1823	0	32832	32629	
1824	0	32760	32656	
1825	0	32768	32772	
1826	0	32832	32864	
1827	0	32780	32760	
1828	0	32844	32808	
1829	0	32772	32732	
1830	0	32828	32746	
1831	0	32898	32796	
1832	0	32738	32828	
1833	0	32768	32678	
1834	0	32852	32832	
1835	0	32880	32788	
1836	0	32856	32692	
1837	0	32812	32732	
1838	0	32800	32764	
1839	0	32872	32788	
1840	0	32772	32708	
1841	0	32828	32674	
1842	0	32824	32748	
1843	0	32774	32796	
1844	0	32796	32732	
1845	0	32828	32772	
1846	0	32864	32708	
1847	0	32760	32880	
1848	0	32844	32804	
1849	0	32872	32744	
1850	0	32844	32792	
1851	0	32804	32708	
1852	0	32848	32774	
1853	0	32772	32788	
1854	0	32836	32680	
1855	0	32852	32796	
1856	0	32814	32756	
1857	0	32764	32718	
1858	0	32838	32774	
1859	0	32788	32808	
1860	0	32740	32866	
1861	0	32834	32752	
1862	0	32780	32754	
1863	0	32800	32820	
1864	0	32816	32716	
1865	0	32852	32852	
1866	0	32744	32780	
1867	0	32784	32672	
1868	0	32828	32854	
1869	0	32800	32738	
1870	0	32810	32792	
1871	0	32832	32736	
1872	0	32836	32804	
1873	0	32840	32844	
1874	0	32858	32800	
1875	0	32868	32836	
1876	0	32800	32708	
1877	0	32768	32730	
1878	0	32764	32712	
1879	0	32764	32752	
1880	0	32796	32712	
1881	0	32828	32784	
1882	0	32788	32812	
1883	0	32800	32724	
1884	0	32712	32832	
1885	0	32780	32692	
1886	0	32792	32762	
1887	0	32844	32868	
1888	0	32808	32596	
1889	0	32880	32740	
1890	0	32788	32864	
1891	0	32832	32784	
1892	0	32820	32774	
1893	0	32804	32700	
1894	0	32856	32740	
1895	0	32852	32632	
1896	0	32840	32768	
1897	0	32772	32668	
1898	0	32798	32916	
1899	0	32820	32836	
1900	0	32752	32792	
1901	0	32856	32794	
1902	0	32808	32784	
1903	0	32848	32780	
1904	0	32820	32738	
1905	0	32784	32828	
1906	0	32808	32688	
1907	0	32834	32844	
1908	0	32776	32808	
1909	0	32812	32716	
1910	0	32816	32780	
1911	0	32708	32726	
1912	0	32768	32796	
1913	0	32808	32748	
1914	0	32840	32808	
1915	0	32848	32774	
1916	0	32820	32708	
1917	0	32850	32804	
1918	0	32826	32718	
1919	0	32800	32798	
1920	0	32788	32748	
1921	0	32788	32800	
1922	0	32836	32788	
1923	0	32824	32772	
1924	0	32792	32788	
1925	0	32884	32712	
1926	0	32828	32674	
1927	0	32780	32696	
1928	0	32820	32752	
1929	0	32780	32712	
1930	0	32760	32770	
1931	0	32880	32772	
1932	0	32788	32736	
1933	0	32824	32775	
1934	0	32816	32686	
1935	0	32808	32840	
1936	0	32796	32830	
1937	0	32802	32688	
1938	0	32824	32812	
1939	0	32784	32832	
1940	0	32836	32768	
1941	0	32840	32766	
1942	0	32808	32712	
1943	0	32828	32774	
1944	0	32744	32830	
1945	0	32824	32708	
1946	0	32808	32820	
1947	0	32836	32700	
1948	0	32806	32738	
1949	0	32842	32834	
1950	0	32802	32708	
1951	0	32808	32752	
1952	0	32816	32680	
1953	0	32772	32760	
1954	0	32864	32838	
1955	0	32792	32816	
1956	0	32824	32775	
1957	0	32818	32756	
1958	0	32764	32708	
1959	0	32794	32796	
1960	0	32850	32772	
1961	0	32784	32804	
1962	0	32864	32770	
1963	0	32768	32712	
1964	0	32750	32860	
1965	0	32760	32676	
1966	0	32740	32780	
1967	0	32780	32792	
1968	0	32820	32764	
1969	0	32796	32775	
1970	0	32768	32670	
1971	0	32820	32756	
1972	0	32802	32688	
1973	0	32802	32758	
1974	0	32892	32784	
1975	0	32880	32640	
1976	0	32836	32780	
1977	0	32860	32804	
1978	0	32768	32684	
1979	0	32776	32876	
1980	0	32808	32760	
1981	0	32750	32820	
1982	0	32760	32810	
1983	0	32780	32724	
1984	0	32860	32844	
1985	0	32772	32836	
1986	0	32800	32768	
1987	0	32780	32774	
1988	0	32792	32740	
1989	0	32816	32690	
1990	0	32748	32788	
1991	0	32792	32752	
1992	0	32794	32654	
1993	0	32812	32768	
1994	0	32792	32702	
1995	0	32900	32724	
1996	0	32762	32714	
1997	0	32814	32724	
1998	0	32786	32858	
1999	0	32820	32808	
2000	0	32800	32734	
2001	0	32768	32782	
2002	0	32772	32736	
2003	0	32800	32792	
2004	0	32784	32746	
2005	0	32794	32716	
2006	0	32828	32740	
2007	0	32816	32775	
2008	0	32810	32730	
2009	0	32786	32766	
2010	0	32804	32808	
2011	0	32832	32678	
2012	0	32800	32780	
2013	0	32818	32874	
2014	0	32772	32710	
2015	0	32816	32756	
2016	0	32860	32732	
2017	0	32868	32732	
2018	0	32768	32744	
2019	0	32772	32852	
2020	0	32816	32732	
2021	0	32864	32844	
2022	0	32864	32888	
2023	0	32826	32678	
2024	0	32772	32860	
2025	0	32760	32868	
2026	0	32756	32740	
2027	0	32776	32792	
2028	0	32856	32820	
2029	0	32848	32812	
2030	0	32800	32776	
2031	0	32824	32678	
2032	0	32812	32844	
2033	0	32840	32752	
2034	0	32816	32772	
2035	0	32844	32775	
2036	0	32832	32724	
2037	0	32816	32772	
2038	0	32844	32784	
2039	0	32854	32696	
2040	0	32772	32764	
2041	0	32816	32760	
2042	0	32928	32716	
2043	0	32772	32780	
2044	0	32772	32768	
2045	0	32764	32740	
2046	0	32872	32748	
2047	0	32832	32794	
2048	0	32832	32824	
2049	0	32796	32794	
2050	0	32736	32808	
2051	0	32826	32716	
2052	0	32840	32721	
2053	0	32880	32734	
2054	0	32812	32736	
2055	0	32788	32712	
2056	0	32782	32903	
2057	0	32864	32876	
2058	0	32800	32720	
2059	0	32820	32734	
2060	0	32728	32732	
2061	0	32888	32734	
2062	0	32808	32824	
2063	0	32760	32782	
2064	0	32832	32692	
2065	0	32748	32712	
2066	0	32800	32660	
2067	0	32846	32800	
2068	0	32832	32820	
2069	0	32740	32716	
2070	0	32800	32762	
2071	0	32866	32836	
2072	0	32832	32728	
2073	0	32824	32718	
2074	0	32772	32718	
2075	0	32812	32824	
2076	0	32816	32794	
2077	0	32804	32676	
2078	0	32808	32756	
2079	0	32796	32686	
2080	0	32848	32744	
2081	0	32808	32772	
2082	0	32794	32768	
2083	0	32796	32840	
2084	0	32800	32828	
2085	0	32830	32708	
2086	0	32824	32816	
2087	0	32764	32856	
2088	0	32784	32704	
2089	0	32748	32774	
2090	0	32776	32804	
2091	0	32788	32652	
2092	0	32824	32774	
2093	0	32860	32792	
2094	0	32768	32764	
2095	0	32764	32886	
2096	0	32864	32708	
2097	0	32796	32864	
2098	0	32864	32876	
2099	0	32810	32822	
2100	0	32874	32736	
2101	0	32868	32668	
2102	0	32788	32814	
2103	0	32780	32808	
2104	0	32788	32684	
2105	0	32772	32782	
2106	0	32736	32772	
2107	0	32856	32836	
2108	0	32780	32820	
2109	0	32800	32730	
2110	0	32812	32748	
2111	0	32816	32706	
2112	0	32740	32732	
2113	0	32840	32752	
2114	0	32842	32660	
2115	0	32824	32848	
2116	0	32808	32788	
2117	0	32832	32622	
2118	0	32860	32864	
2119	0	32828	32830	
2120	0	32804	32688	
2121	0	32788	32792	
2122	0	32840	32808	
2123	0	32774	32742	
2124	0	32832	32830	
2125	0	32796	32800	
2126	0	32792	32676	
2127	0	32828	32816	
2128	0	32824	32704	
2129	0	32864	32806	
2130	0	32748	32810	
2131	0	32764	32738	
2132	0	32808	32714	
2133	0	32780	32640	
2134	0	32864	32808	
2135	0	32820	32776	
2136	0	32812	32768	
2137	0	32856	32868	
2138	0	32822	32744	
2139	0	32828	32758	
2140	0	32802	32726	
2141	0	32780	32820	
2142	0	32794	32738	
2143	0	32810	32820	
2144	0	32792	32780	
2145	0	32748	32772	
2146	0	32818	32704	
2147	0	32752	32684	
2148	0	32824	32804	
2149	0	32812	32890	
2150	0	32858	32772	
2151	0	32778	32772	
2152	0	32792	32676	
2153	0	32792	32858	
2154	0	32836	32744	
2155	0	32896	32748	
2156	0	32812	32674	
2157	0	32752	32728	
2158	0	32820	32872	
2159	0	32772	32840	
2160	0	32788	32724	
2161	0	32812	32756	
2162	0	32792	32836	
2163	0	32840	32690	
2164	0	32776	32808	
2165	0	32816	32784	
2166	0	32792	32820	
2167	0	32864	32788	
2168	0	32844	32762	
2169	0	32828	32806	
2170	0	32824	32746	
2171	0	32826	32714	
2172	0	32830	32794	
2173	0	32840	32768	
2174	0	32788	32684	
2175	0	32832	32780	
2176	0	32832	32794	
2177	0	32848	32712	
2178	0	32796	32818	
2179	0	32700	32838	
2180	0	32792	32724	
2181	0	32776	32768	
2182	0	32808	32775	
2183	0	32792	32800	
2184	0	32740	32836	
2185	0	32740	32732	
2186	0	32824	32826	
2187	0	32824	32788	
2188	0	32808	32732	
2189	0	32794	32816	
2190	0	32796	32674	
2191	0	32756	32748	
2192	0	32808	32654	
2193	0	32840	32752	
2194	0	32792	32808	
2195	0	32810	32726	
2196	0	32810	32896	
2197	0	32908	32710	
2198	0	32822	32826	
2199	0	32806	32812	
2200	0	32778	32814	
2201	0	32744	32744	
2202	0	32786	32684	
2203	0	32852	32822	
2204	0	32812	32716	
2205	0	32740	32752	
2206	0	32682	32704	
2207	0	32880	32730	
2208	0	32864	32712	
2209	0	32816	32810	
2210	0	32752	32796	
2211	0	32816	32714	
2212	0	32840	32816	
2213	0	32848	32646	
2214	0	32852	32775	
2215	0	32900	32740	
2216	0	32864	32796	
2217	0	32726	32858	
2218	0	32652	32792	
2219	0	32704	32740	
2220	0	32732	32670	
2221	0	32804	32820	
2222	0	32892	32670	
2223	0	32972	32840	
2224	0	32948	32724	
2225	0	32832	32836	
2226	0	32836	32792	
2227	0	32834	32702	
2228	0	32782	32840	
2229	0	32896	32656	
2230	0	32776	32782	
2231	0	32696	32616	
2232	0	32672	32724	
2233	0	32788	32710	
2234	0	32912	32736	
2235	0	32986	32786	
2236	0	32892	32792	
2237	0	32946	32644	
2238	0	32826	32796	
2239	0	32756	32752	
2240	0	32768	32774	
2241	0	32768	32834	
2242	0	32808	32834	
2243	0	32782	32804	
2244	0	32776	32668	
2245	0	32824	32760	
2246	0	32856	32774	
2247	0	32816	32772	
2248	0	32786	32764	
2249	0	32774	32670	
2250	0	32824	32828	
2251	0	32796	32748	
2252	0	32856	32714	
2253	0	32780	32724	
2254	0	32780	32728	
2255	0	32788	32818	
2256	0	32740	32640	
2257	0	32820	32772	
2258	0	32868	32756	
2259	0	32824	32760	
2260	0	32752	32664	
2261	0	32832	32792	
2262	0	32820	32768	
2263	0	32784	32848	
2264	0	32832	32676	
2265	0	32888	32772	
2266	0	32776	32752	
2267	0	32847	32728	
2268	0	32834	32696	
2269	0	32804	32760	
2270	0	32820	32728	
2271	0	32736	32736	
2272	0	32796	32716	
2273	0	32904	32764	
2274	0	32892	32762	
2275	0	32824	32796	
2276	0	32888	32812	
2277	0	32780	32902	
2278	0	32828	32790	
2279	0	32752	32772	
2280	0	32728	32762	
2281	0	32800	32760	
2282	0	32792	32728	
2283	0	32776	32852	
2284	0	32780	32792	
2285	0	32816	32734	
2286	0	32784	32746	
2287	0	32890	32744	
2288	0	32880	32830	
2289	0	32912	32848	
2290	0	32844	32848	
2291	0	32856	32790	
2292	0	32806	32742	
2293	0	32838	32740	
2294	0	32816	32720	
2295	0	32784	32734	
2296	0	32864	32704	
2297	0	32724	32792	
2298	0	32780	32804	
2299	0	32696	32820	
2300	0	32780	32804	
2301	0	32816	32672	
2302	0	32808	32792	
2303	0	32872	32664	
2304	0	32880	32840	
2305	0	32808	32774	
2306	0	32764	32708	
2307	0	32788	32834	
2308	0	32880	32828	
2309	0	32850	32752	
2310	0	32794	32732	
2311	0	32872	32692	
2312	0	32804	32796	
2313	0	32880	32692	
2314	0	32844	32758	
2315	0	32872	32702	
2316	0	32812	32752	
2317	0	32824	32756	
2318	0	32792	32724	
2319	0	32880	32854	
2320	0	32808	32772	
2321	0	32764	32708	
2322	0	32788	32872	
2323	0	32804	32792	
2324	0	32768	32720	
2325	0	32792	32760	
2326	0	32746	32826	
2327	0	32652	32696	
2328	0	32676	32804	
2329	0	32756	32718	
2330	0	32908	32752	
2331	0	32874	32688	
2332	0	32828	32824	
2333	0	32848	32728	
2334	0	32824	32808	
2335	0	32766	32852	
2336	0	32880	32816	
2337	0	32752	32712	
2338	0	32716	32764	
2339	0	32830	32784	
2340	0	32872	32744	
2341	0	32816	32761	
2342	0	32884	32744	
2343	0	32892	32736	
2344	0	32920	32860	
2345	0	32776	32852	
2346	0	32760	32690	
2347	0	32804	32746	
2348	0	32808	32860	
2349	0	32768	32752	
2350	0	32852	32804	
2351	0	32844	32788	
2352	0	32840	32832	
2353	0	32794	32775	
2354	0	32876	32744	
2355	0	32776	32774	
2356	0	32730	32730	
2357	0	32716	32950	
2358	0	32688	32852	
2359	0	32672	32760	
2360	0	32868	32742	
2361	0	32768	32658	
2362	0	32776	32584	
2363	0	32832	32616	
2364	0	32952	32606	
2365	0	32852	32682	
2366	0	32820	32748	
2367	0	32734	32702	
2368	0	32890	32800	
2369	0	32756	32830	
2370	0	32808	32904	
2371	0	32800	32864	
2372	0	32684	32756	
2373	0	32834	32804	
2374	0	32916	32832	
2375	0	32890	32696	
2376	0	32960	32744	
2377	0	32881	32756	
2378	0	32752	32760	
2379	0	32732	32838	
2380	0	32736	32718	
2381	0	32832	32776	
2382	0	32896	32780	
2383	0	32906	32688	
2384	0	32830	32698	
2385	0	32758	32626	
2386	0	32752	32740	
2387	0	32764	32752	
2388	0	32808	32700	
2389	0	32786	32862	
2390	0	32720	32826	
2391	0	32780	32750	
2392	0	32872	32912	
2393	0	32804	32808	
2394	0	32732	32760	
2395	0	32728	32720	
2396	0	32764	32784	
2397	0	32792	32676	
2398	0	32786	32788	
2399	0	32804	32716	
2400	0	32792	32812	
2401	0	32812	32804	
2402	0	32792	32822	
2403	0	32848	32750	
2404	0	32718	32652	
2405	0	32532	32812	
2406	0	32652	32724	
2407	0	32800	32628	
2408	0	32868	32764	
2409	0	33012	32738	
2410	0	33128	32778	
2411	0	33052	32740	
2412	0	32952	32678	
2413	0	32928	32744	
2414	0	32840	32756	
2415	0	32752	32694	
2416	0	32708	32806	
2417	0	32732	32868	
2418	0	32738	32660	
2419	0	32680	32838	
2420	0	32666	32832	
2421	0	32764	32804	
2422	0	32924	32736	
2423	0	32900	32644	
2424	0	32948	32812	
2425	0	32920	32804	
2426	0	32980	32672	
2427	0	32928	32816	
2428	0	32848	32758	
2429	0	32752	32848	
2430	0	32744	32848	
2431	0	32796	32822	
2432	0	32688	32792	
2433	0	32704	32788	
2434	0	32716	32776	
2435	0	32688	32768	
2436	0	32688	32576	
2437	0	32820	32740	
2438	0	32824	32712	
2439	0	32824	32732	
2440	0	32870	32880	
2441	0	32822	32862	
2442	0	32716	32936	
2443	0	32792	32854	
2444	0	32736	32838	
2445	0	32826	32792	
2446	0	33016	32560	
2447	0	33068	32664	
2448	0	33088	32670	
2449	0	32896	32562	
2450	0	32720	32720	
2451	0	32620	32664	
2452	0	32746	32786	
2453	0	32864	32822	
2454	0	32788	32852	
2455	0	32732	32802	
2456	0	32724	32862	
2457	0	32798	32764	
2458	0	32820	32858	
2459	0	32772	32922	
2460	0	32824	32924	
2461	0	32892	32775	
2462	0	32912	32688	
2463	0	32784	32704	
2464	0	32652	32580	
2465	0	32800	32550	
2466	0	32950	32656	
2467	0	33032	32644	
2468	0	33108	32748	
2469	0	32904	32560	
2470	0	32856	32638	
2471	0	32712	32682	
2472	0	32672	32846	
2473	0	32564	32888	
2474	0	32592	32892	
2475	0	32612	32938	
2476	0	32680	32944	
2477	0	32812	33006	
2478	0	32820	32934	
2479	0	32736	32700	
2480	0	33008	32716	
2481	0	32884	32718	
2482	0	32650	32676	
2483	0	32596	32668	
2484	0	32656	32614	
2485	0	32612	32736	
2486	0	32740	32732	
2487	0	32868	32680	
2488	0	32936	32856	
2489	0	32900	32804	
2490	0	32976	32760	
2491	0	33184	33008	
2492	0	32984	32828	
2493	0	32928	32774	
2494	0	32904	32724	
2495	0	32958	32660	
2496	0	32952	32688	
2497	0	33082	32624	
2498	0	33056	32726	
2499	0	32822	32780	
2500	0	32712	32756	
2501	0	32656	32944	
2502	0	32628	32908	
2503	0	32672	32895	
2504	0	32608	32714	
2505	0	32656	32692	
2506	0	32596	32676	
2507	0	32720	32760	
2508	0	32812	32724	
2509	0	32876	32640	
2510	0	32800	32738	
2511	0	32808	32664	
2512	0	32744	32824	
2513	0	32792	32758	
2514	0	32736	32688	
2515	0	32666	32816	
2516	0	32724	32964	
2517	0	32548	33020	
2518	0	32516	32878	
2519	0	32748	32718	
2520	0	32984	32644	
2521	0	32760	32716	
2522	0	32720	32860	
2523	0	32816	32968	
2524	0	32834	32976	
2525	0	33128	32798	
2526	0	33416	32600	
2527	0	33384	32308	
2528	0	33108	32078	
2529	0	33120	32132	
2530	0	32820	32122	
2531	0	32768	32336	
2532	0	32784	32578	
2533	0	32682	32890	
2534	0	32518	33020	
2535	0	32512	33280	
2536	0	32404	33248	
2537	0	32454	33318	
2538	0	32440	33062	
2539	0	32428	32962	
2540	0	32528	32952	
2541	0	32652	32948	
2542	0	32572	32708	
2543	0	32552	32794	
2544	0	32992	32686	
2545	0	33080	32386	
2546	0	32860	32368	
2547	0	32834	32462	
2548	0	32715	32614	
2549	0	32452	32686	
2550	0	32888	32720	
2551	0	32728	32458	
2552	0	32720	32842	
2553	0	32924	32884	
2554	0	33608	32880	
2555	0	33564	33080	
2556	0	33390	33116	
2557	0	33150	33168	
2558	0	33002	33030	
2559	0	33000	33064	
2560	0	32980	32838	
2561	0	32928	32924	
2562	0	32860	33072	
2563	0	32832	32902	
2564	0	32864	32768	
2565	0	32882	32640	
2566	0	32872	32612	
2567	0	32820	32644	
2568	0	32968	32580	
2569	0	33026	32556	
2570	0	32716	32488	
2571	0	32520	32610	
2572	0	32676	32554	
2573	0	32640	32570	
2574	0	32724	32676	
2575	0	32808	32750	
2576	0	32760	32720	
2577	0	32650	32864	
2578	0	32552	32590	
2579	0	32692	32614	
2580	0	32700	32856	
2581	0	32724	32756	
2582	0	32736	32740	
2583	0	32746	32920	
2584	0	32484	32912	
2585	0	32626	32836	
2586	0	32944	32888	
2587	0	32834	32966	
2588	0	32664	32832	
2589	0	32592	32828	
2590	0	32652	32678	
2591	0	32480	32450	
2592	0	32456	32424	
2593	0	32468	32424	
2594	0	32840	32500	
2595	0	33230	32840	
2596	0	33968	33022	
2597	0	33604	33056	
2598	0	33056	32932	
2599	0	32714	32782	
2600	0	32932	33214	
2601	0	33358	33200	
2602	0	33108	32704	
2603	0	32932	32522	
2604	0	32868	32912	
2605	0	32696	32408	
2606	0	32540	32304	
2607	0	32584	32664	
2608	0	32412	33048	
2609	0	32074	33216	
2610	0	32308	33070	
2611	0	32404	33040	
2612	0	31988	32976	
2613	0	32002	32784	
2614	0	32584	32048	
2615	0	33036	32288	
2616	0	32872	32196	
2617	0	33008	32260	
2618	0	32902	32712	
2619	0	32664	32732	
2620	0	33540	32692	
2621	0	34620	32910	
2622	0	33420	32996	
2623	0	32638	33432	
2624	0	33540	33484	
2625	0	33620	33132	
2626	0	33112	32844	
2627	0	32786	32688	
2628	0	32552	32902	
2629	0	32618	32588	
2630	0	32444	32456	
2631	0	32292	32644	
2632	0	32132	33124	
2633	0	32156	33184	
2634	0	32584	33060	
2635	0	33368	32794	
2636	0	33524	32696	
2637	0	33188	32540	
2638	0	32576	32356	
2639	0	32552	32160	
2640	0	32876	31988	
2641	0	32754	32244	
2642	0	32632	32336	
2643	0	32680	32604	
2644	0	32728	32724	
2645	0	32672	32556	
2646	0	32801	32744	
2647	0	32742	32732	
2648	0	32768	32404	
2649	0	32676	32708	
2650	0	32642	32796	
2651	0	32552	33170	
2652	0	32576	33820	
2653	0	32564	33858	
2654	0	32792	33674	
2655	0	32728	33146	
2656	0	32040	32712	
2657	0	31736	32460	
2658	0	31264	32384	
2659	0	32008	32432	
2660	0	33968	32284	
2661	0	35206	32292	
2662	0	35192	32232	
2663	0	33692	32392	
2664	0	32992	32340	
2665	0	32684	32654	
2666	0	32440	33092	
2667	0	32808	32934	
2668	0	32788	32802	
2669	0	32798	33060	
2670	0	32780	33400	
2671	0	33296	33284	
2672	0	32940	32884	
2673	0	32508	32554	
2674	0	32464	32644	
2675	0	32628	32640	
2676	0	32696	32564	
2677	0	32604	32880	
2678	0	32760	32904	
2679	0	32952	32844	
2680	0	32768	33120	
2681	0	32760	32728	
2682	0	32714	32260	
2683	0	32552	32100	
2684	0	32448	32596	
2685	0	32042	32774	
2686	0	32276	32870	
2687	0	32476	32900	
2688	0	33192	32968	
2689	0	33308	33170	
2690	0	32888	32988	
2691	0	32444	32930	
2692	0	32818	32894	
2693	0	32604	32740	
2694	0	32896	32372	
2695	0	32490	32380	
2696	0	33042	32580	
2697	0	32680	32328	
2698	0	32264	32736	
2699	0	32396	32616	
2700	0	33428	32282	
2701	0	33928	32564	
2702	0	34208	32904	
2703	0	34116	32978	
2704	0	33556	33420	
2705	0	33348	33076	
2706	0	32558	32740	
2707	0	32344	31898	
2708	0	32520	32360	
2709	0	32420	32580	
2710	0	32500	32532	
2711	0	32448	32832	
2712	0	31914	33664	
2713	0	31796	33732	
2714	0	31418	33720	
2715	0	31924	33424	
2716	0	33194	33146	
2717	0	34332	33232	
2718	0	34296	33368	
2719	0	33506	33492	
2720	0	33160	32828	
2721	0	32848	32596	
2722	0	32692	32792	
2723	0	32632	32564	
2724	0	32196	32182	
2725	0	32100	32016	
2726	0	32024	31732	
2727	0	32600	31082	
2728	0	32734	31236	
2729	0	33152	31936	
2730	0	32984	32516	
2731	0	33060	32452	
2732	0	33236	32416	
2733	0	32700	33236	
2734	0	32564	33112	
2735	0	32992	33148	
2736	0	32890	33600	
2737	0	33220	33502	
2738	0	32588	32580	
2739	0	32370	32214	
2740	0	32656	33310	
2741	0	32156	33976	
2742	0	32176	34068	
2743	0	33440	33872	
2744	0	33640	33730	
2745	0	33684	33816	
2746	0	33520	33756	
2747	0	33136	33024	
2748	0	32858	32754	
2749	0	32686	32180	
2750	0	32612	31830	
2751	0	32524	31546	
2752	0	32626	31630	
2753	0	32600	31722	
2754	0	32660	31828	
2755	0	32650	32042	
2756	0	32584	32256	
2757	0	32616	32674	
2758	0	32662	33004	
2759	0	32744	33232	
2760	0	32828	33024	
2761	0	32804	33020	
2762	0	32784	33112	
2763	0	32834	32654	
2764	0	32824	32672	
2765	0	32864	32732	
2766	0	32812	32618	
2767	0	32720	32714	
2768	0	32418	32784	
2769	0	32042	32732	
2770	0	31588	32871	
2771	0	31980	32844	
2772	0	32968	32922	
2773	0	33620	32920	
2774	0	33792	32660	
2775	0	33708	32592	
2776	0	33224	32704	
2777	0	33492	32684	
2778	0	33580	32176	
2779	0	33216	32472	
2780	0	32748	32660	
2781	0	32800	32916	
2782	0	32394	32908	
2783	0	32524	33424	
2784	0	32872	33450	
2785	0	32988	33412	
2786	0	32764	32952	
2787	0	32624	32444	
2788	0	32654	32384	
2789	0	32648	32440	
2790	0	32712	32530	
2791	0	32688	32740	
2792	0	32704	32874	
2793	0	32732	33036	
2794	0	32552	33156	
2795	0	32514	33022	
2796	0	32468	32708	
2797	0	31832	32612	
2798	0	32536	32496	
2799	0	32008	32368	
2800	0	32150	31872	
2801	0	33008	31788	
2802	0	32220	31256	
2803	0	32708	30924	
2804	0	34336	32012	
2805	0	33128	32980	
2806	0	33800	33356	
2807	0	34682	32696	
2808	0	33960	33420	
2809	0	33160	34108	
2810	0	33166	34512	
2811	0	33068	35072	
2812	0	32752	35588	
2813	0	32866	34700	
2814	0	32920	33652	
2815	0	32816	32976	
2816	0	32766	32308	
2817	0	32592	32358	
2818	0	32480	32568	
2819	0	32752	32206	
2820	0	33032	31830	
2821	0	32548	32088	
2822	0	32156	32240	
2823	0	32392	32464	
2824	0	32510	32236	
2825	0	32640	32064	
2826	0	32704	31992	
2827	0	32464	31920	
2828	0	32648	31688	
2829	0	32768	32196	
2830	0	32264	32624	
2831	0	32632	32402	
2832	0	32344	32590	
2833	0	30900	32580	
2834	0	31522	31264	
2835	0	32948	30728	
2836	0	33192	32054	
2837	0	33436	33420	
2838	0	34412	34458	
2839	0	35578	35264	
2840	0	34624	35396	
2841	0	32824	35536	
2842	0	31124	35404	
2843	0	31192	35136	
2844	0	31726	33998	
2845	0	33786	32684	
2846	0	34496	32100	
2847	0	33692	30677	
2848	0	32628	29820	
2849	0	32704	29196	
2850	0	32824	29088	
2851	0	32784	30599	
2852	0	32758	32796	
2853	0	33428	32878	
2854	0	33348	32952	
2855	0	32942	33860	
2856	0	32640	34120	
2857	0	32824	33964	
2858	0	33072	33192	
2859	0	32512	33448	
2860	0	32384	33752	
2861	0	32370	33928	
2862	0	32544	34216	
2863	0	32268	34402	
2864	0	31088	33626	
2865	0	29468	32860	
2866	0	29688	32120	
2867	0	31486	30784	
2868	0	36488	29760	
2869	0	35848	30348	
2870	0	31628	31476	
2871	0	30328	32808	
2872	0	31620	34444	
2873	0	37248	34872	
2874	0	37120	34764	
2875	0	35192	33252	
2876	0	33240	32280	
2877	0	33020	32068	
2878	0	33592	32394	
2879	0	33208	32632	
2880	0	32048	32008	
2881	0	31016	31868	
2882	0	31136	32946	
2883	0	32152	32690	
2884	0	33108	32180	
2885	0	33572	32276	
2886	0	33112	33642	
2887	0	32772	34282	
2888	0	32276	34192	
2889	0	32270	34424	
2890	0	32320	34200	
2891	0	32488	33808	
2892	0	32554	33232	
2893	0	32522	31660	
2894	0	33328	29656	
2895	0	32700	29796	
2896	0	30572	29852	
2897	0	30102	30676	
2898	0	31396	32276	
2899	0	32082	33264	
2900	0	31304	33572	
2901	0	29864	33860	
2902	0	35396	34746	
2903	0	37752	34720	
2904	0	36168	34448	
2905	0	34252	33624	
2906	0	34344	32988	
2907	0	33948	32908	
2908	0	33224	32066	
2909	0	32460	31298	
2910	0	31912	31714	
2911	0	32984	31612	
2912	0	32828	32326	
2913	0	31864	32824	
2914	0	31342	32896	
2915	0	31908	33672	
2916	0	33100	33228	
2917	0	33172	31932	
2918	0	32764	31364	
2919	0	32670	32356	
2920	0	32652	31808	
2921	0	32762	30718	
2922	0	32676	31226	
2923	0	32192	32346	
2924	0	31774	33946	
2925	0	31750	35258	
2926	0	32194	35100	
2927	0	32872	34668	
2928	0	33384	35492	
2929	0	33312	35252	
2930	0	32808	34900	
2931	0	32200	33954	
2932	0	31972	33106	
2933	0	32652	32484	
2934	0	33432	32088	
2935	0	33568	31404	
2936	0	33636	31440	
2937	0	34640	32216	
2938	0	33836	31806	
2939	0	33464	31006	
2940	0	33188	30752	
2941	0	32556	31540	
2942	0	32972	31481	
2943	0	33816	32216	
2944	0	33012	32844	
2945	0	31908	33576	
2946	0	32048	34204	
2947	0	31376	34540	
2948	0	32316	34120	
2949	0	32296	32952	
2950	0	31580	32516	
2951	0	30988	31356	
2952	0	32616	31056	
2953	0	33888	30516	
2954	0	34684	30712	
2955	0	33972	29744	
2956	0	32900	30956	
2957	0	33196	33458	
2958	0	33824	35194	
2959	0	33212	35596	
2960	0	32640	35614	
2961	0	32308	34940	
2962	0	32574	34368	
2963	0	32620	34444	
2964	0	32758	33318	
2965	0	32830	33044	
2966	0	32332	33110	
2967	0	31752	33120	
2968	0	30580	32652	
2969	0	31000	32248	
2970	0	33124	31633	
2971	0	32504	31562	
2972	0	31652	31556	
2973	0	31908	30588	
2974	0	33764	28764	
2975	0	33984	28352	
2976	0	31402	29412	
2977	0	32116	31800	
2978	0	35532	34172	
2979	0	37304	36112	
2980	0	36920	37688	
2981	0	34722	38008	
2982	0	33892	37604	
2983	0	32676	37020	
2984	0	32328	35000	
2985	0	32224	32208	
2986	0	31736	29692	
2987	0	31764	29562	
2988	0	31816	30279	
2989	0	31992	31360	
2990	0	31956	32012	
2991	0	32192	33256	
2992	0	32216	33200	
2993	0	32160	32452	
2994	0	32816	32194	
2995	0	32504	32354	
2996	0	32580	32508	
2997	0	32368	32108	
2998	0	32658	31684	
2999	0	32216	31128	
3000	0	32444	31544	
3001	0	32788	32452	
3002	0	31434	33122	
3003	0	30820	33764	
3004	0	31430	34268	
3005	0	32650	34252	
3006	0	34152	34320	
3007	0	36812	34272	
3008	0	34804	33732	
3009	0	34416	33056	
3010	0	33654	32624	
3011	0	33316	32538	
3012	0	32152	31884	
3013	0	31620	31780	
3014	0	31840	31896	
3015	0	33044	31780	
3016	0	33588	32464	
3017	0	33024	32684	
3018	0	32980	32640	
3019	0	32424	32660	
3020	0	33240	32206	
3021	0	32074	31946	
3022	0	31886	31298	
3023	0	32645	31632	
3024	0	32316	32678	
3025	0	31920	32512	
3026	0	31604	31434	
3027	0	32366	31964	
3028	0	33696	32300	
3029	0	34138	33356	
3030	0	33280	34554	
3031	0	32226	34642	
3032	0	32092	34528	
3033	0	32404	34552	
3034	0	32498	33704	
3035	0	32516	34408	
3036	0	31640	34456	
3037	0	33048	34114	
3038	0	34832	32864	
3039	0	34848	32080	
3040	0	33374	31862	
3041	0	33954	32098	
3042	0	33660	31864	
3043	0	32628	32464	
3044	0	32760	32524	
3045	0	32774	32602	
3046	0	32320	32606	
3047	0	32182	32412	
3048	0	32200	32396	
3049	0	32704	32030	
3050	0	32328	32274	
3051	0	31864	32302	
3052	0	32752	32600	
3053	0	33244	32588	
3054	0	32696	31592	
3055	0	31896	30248	
3056	0	32408	29288	
3057	0	33304	30284	
3058	0	32064	31430	
3059	0	31920	33098	
3060	0	31698	34176	
3061	0	30304	34428	
3062	0	29856	35696	
3063	0	33108	36992	
3064	0	38312	36916	
3065	0	38488	35904	
3066	0	31244	34344	
3067	0	31494	32060	
3068	0	32508	30296	
3069	0	35184	30084	
3070	0	35400	31036	
3071	0	34866	33072	
3072	0	33690	34072	
3073	0	33072	34428	
3074	0	31584	34376	
3075	0	31856	33698	
3076	0	32368	33368	
3077	0	31604	32716	
3078	0	31372	31326	
3079	0	32424	30276	
3080	0	32180	30392	
3081	0	32240	31024	
3082	0	32566	32028	
3083	0	32382	32852	
3084	0	32616	33660	
3085	0	32476	33542	
3086	0	32384	32958	
3087	0	32716	32678	
3088	0	32806	32912	
3089	0	32652	33392	
3090	0	32660	32722	
3091	0	32832	31960	
3092	0	32828	31274	
3093	0	32700	31948	
3094	0	32524	32336	
3095	0	32392	32596	
3096	0	32104	33452	
3097	0	32200	34328	
3098	0	33304	35184	
3099	0	32936	35344	
3100	0	32888	34920	
3101	0	32376	34066	
3102	0	33220	32608	
3103	0	33896	31924	
3104	0	33428	31440	
3105	0	34072	31314	
3106	0	33628	31600	
3107	0	32896	31768	
3108	0	32968	32118	
3109	0	32438	32476	
3110	0	32236	32430	
3111	0	32508	32186	
3112	0	33124	32056	
3113	0	32712	32220	
3114	0	32108	32592	
3115	0	31954	32974	
3116	0	31944	33280	
3117	0	32680	33292	
3118	0	33420	33224	
3119	0	34466	33208	
3120	0	33632	32724	
3121	0	32848	31876	
3122	0	32956	31736	
3123	0	33380	31474	
3124	0	33604	32096	
3125	0	32930	33356	
3126	0	32672	33838	
3127	0	32804	34330	
3128	0	32744	34392	
3129	0	32424	33876	
3130	0	32480	33432	
3131	0	32504	32932	
3132	0	32536	32492	
3133	0	32504	32216	
3134	0	32560	31984	
3135	0	32488	32084	
3136	0	32520	32192	
3137	0	32936	32430	
3138	0	33016	32844	
3139	0	32986	32984	
3140	0	33004	32900	
3141	0	32030	32788	
3142	0	31546	32840	
3143	0	31508	32882	
3144	0	32094	32888	
3145	0	33528	32640	
3146	0	33481	32588	
3147	0	33316	32360	
3148	0	34356	32548	
3149	0	33512	32368	
3150	0	31880	32436	
3151	0	33474	31812	
3152	0	32864	31706	
3153	0	32948	32120	
3154	0	33300	33050	
3155	0	33688	33728	
3156	0	33180	34220	
3157	0	32752	34368	
3158	0	32844	34290	
3159	0	32856	33772	
3160	0	32564	33280	
3161	0	32222	33076	
3162	0	32188	32504	
3163	0	32276	32208	
3164	0	32564	32056	
3165	0	32634	32226	
3166	0	32968	32344	
3167	0	32780	32326	
3168	0	32620	32344	
3169	0	33462	32314	
3170	0	33336	32558	
3171	0	32928	32638	
3172	0	33024	32200	
3173	0	32648	32668	
3174	0	32156	32904	
3175	0	32160	32858	
3176	0	32420	32644	
3177	0	32676	32666	
3178	0	33056	32660	
3179	0	32864	32810	
3180	0	32712	32796	
3181	0	32966	32888	
3182	0	32796	32718	
3183	0	32692	32812	
3184	0	32718	32960	
3185	0	32704	33046	
3186	0	32960	33188	
3187	0	32880	33010	
3188	0	32900	33144	
3189	0	32830	33106	
3190	0	32726	32804	
3191	0	32656	32810	
3192	0	32652	32676	
3193	0	32772	32702	
3194	0	32968	32724	
3195	0	33052	32600	
3196	0	32872	32672	
3197	0	32388	32630	
3198	0	32642	32724	
3199	0	32646	32632	
3200	0	32644	32924	
3201	0	32824	32928	
3202	0	33268	32724	
3203	0	32624	32940	
3204	0	32822	32740	
3205	0	33504	32704	
3206	0	33618	32586	
3207	0	33156	32324	
3208	0	32892	32242	
3209	0	32824	32422	
3210	0	32814	32576	
3211	0	32892	32944	
3212	0	32998	33248	
3213	0	32704	33280	
3214	0	32740	32938	
3215	0	32688	32838	
3216	0	32600	32802	
3217	0	32526	32724	
3218	0	32506	32646	
3219	0	32552	32855	
3220	0	32708	32924	
3221	0	32852	32868	
3222	0	32868	32864	
3223	0	32760	32792	
3224	0	32688	33016	
3225	0	33248	32944	
3226	0	33280	32712	
3227	0	32492	32852	
3228	0	32100	32812	
3229	0	32376	32642	
3230	0	32944	32714	
3231	0	32432	32772	
3232	0	32692	32540	
3233	0	32832	32534	
3234	0	32664	32596	
3235	0	32568	32502	
3236	0	33128	32466	
3237	0	32788	32544	
3238	0	32692	32596	
3239	0	32644	32726	
3240	0	32960	32844	
3241	0	32812	32816	
3242	0	32436	32780	
3243	0	33280	32600	
3244	0	33252	32584	
3245	0	33120	32486	
3246	0	33640	32516	
3247	0	33196	32748	
3248	0	32744	32676	
3249	0	32448	32838	
3250	0	32824	33090	
3251	0	32932	33052	
3252	0	32868	33168	
3253	0	32864	33202	
3254	0	32584	33060	
3255	0	32536	32944	
3256	0	32512	32762	
3257	0	32520	32766	
3258	0	32474	32838	
3259	0	32816	32716	
3260	0	32828	32566	
3261	0	32762	32516	
3262	0	32802	32324	
3263	0	32916	32408	
3264	0	32914	32564	
3265	0	32866	32710	
3266	0	32816	32996	
3267	0	32672	32958	
3268	0	32596	33000	
3269	0	32710	32936	
3270	0	32796	32892	
3271	0	32696	32892	
3272	0	32448	32798	
3273	0	32444	32828	
3274	0	32634	32870	
3275	0	32904	32844	
3276	0	33064	32904	
3277	0	32964	32744	
3278	0	33058	32608	
3279	0	33016	32616	
3280	0	33508	32756	
3281	0	33058	32784	
3282	0	32832	32688	
3283	0	33324	32682	
3284	0	33324	32692	
3285	0	33006	32560	
3286	0	32810	32712	
3287	0	32772	32810	
3288	0	32652	32806	
3289	0	32594	33016	
3290	0	32584	33048	
3291	0	32688	32996	
3292	0	32700	33040	
3293	0	32804	32960	
3294	0	32762	32868	
3295	0	32708	32746	
3296	0	32784	32650	
3297	0	32788	32672	
3298	0	32668	32696	
3299	0	32616	32706	
3300	0	32778	32802	
3301	0	32876	32740	
3302	0	33068	32740	
3303	0	33084	32700	
3304	0	32862	32692	
3305	0	32904	32692	
3306	0	32900	32796	
3307	0	32936	32924	
3308	0	32952	32804	
3309	0	33048	32712	
3310	0	32928	32704	
3311	0	32852	32684	
3312	0	32850	32756	
3313	0	32778	32756	
3314	0	32816	32430	
3315	0	32768	32512	
3316	0	32778	32580	
3317	0	32860	32432	
3318	0	32872	32660	
3319	0	32852	32740	
3320	0	32924	32775	
3321	0	32904	32832	
3322	0	32884	33056	
3323	0	32820	33436	
3324	0	32796	33717	
3325	0	32876	33696	
3326	0	32860	33738	
3327	0	32924	33544	
3328	0	33392	32938	
3329	0	33174	33032	
3330	0	32876	32976	
3331	0	32546	32747	
3332	0	32300	32820	
3333	0	32372	32630	
3334	0	32584	32480	
3335	0	32662	32376	
3336	0	33056	32264	
3337	0	33042	32330	
3338	0	32888	32342	
3339	0	32552	32692	
3340	0	32748	32740	
3341	0	33112	32700	
3342	0	32924	32744	
3343	0	32784	32802	
3344	0	32750	32834	
3345	0	32596	32614	
3346	0	32668	32436	
3347	0	32608	32176	
3348	0	32584	32186	
3349	0	32764	32052	
3350	0	32850	31840	
3351	0	32908	31854	
3352	0	32838	32310	
3353	0	33020	32700	
3354	0	32678	32972	
3355	0	32472	33324	
3356	0	32596	33676	
3357	0	32656	33832	
3358	0	32612	34152	
3359	0	32580	34392	
3360	0	32576	34000	
3361	0	32774	33690	
3362	0	32840	33204	
3363	0	32828	32688	
3364	0	32660	32394	
3365	0	32840	32218	
3366	0	32824	32022	
3367	0	32718	31908	
3368	0	32664	32064	
3369	0	32620	32340	
3370	0	32772	32304	
3371	0	32922	32416	
3372	0	32980	32584	
3373	0	32752	32628	
3374	0	32614	32608	
3375	0	32560	32752	
3376	0	32858	32736	
3377	0	32852	32762	
3378	0	32820	32838	
3379	0	32884	32688	
3380	0	32886	32596	
3381	0	32896	32519	
3382	0	32938	32488	
3383	0	32836	32624	
3384	0	32692	32840	
3385	0	32688	32910	
3386	0	32918	32872	
3387	0	32824	32838	
3388	0	32848	32744	
3389	0	32768	32536	
3390	0	32756	32680	
3391	0	32864	32860	
3392	0	32864	32768	
3393	0	32884	32678	
3394	0	32926	32788	
3395	0	32952	32760	
3396	0	32800	32684	
3397	0	32792	32740	
3398	0	32768	32820	
3399	0	32770	32880	
3400	0	32792	32924	
3401	0	32752	33002	
3402	0	32770	32810	
3403	0	32940	32592	
3404	0	32824	32706	
3405	0	32730	32640	
3406	0	32680	32812	
3407	0	32572	32888	
3408	0	32604	32740	
3409	0	32496	32886	
3410	0	32524	32884	
3411	0	32838	32786	
3412	0	33020	32664	
3413	0	32684	32600	
3414	0	32468	32564	
3415	0	32372	32776	
3416	0	32248	32740	
3417	0	32522	32792	
3418	0	32868	32940	
3419	0	32900	32770	
3420	0	33280	32692	
3421	0	33080	32832	
3422	0	32888	32756	
3423	0	32876	32576	
3424	0	32712	32650	
3425	0	33012	32450	
3426	0	32944	32314	
3427	0	32716	32698	
3428	0	32784	32820	
3429	0	32844	32957	
3430	0	32912	32948	
3431	0	33200	32954	
3432	0	33084	33028	
3433	0	33244	33060	
3434	0	33108	33108	
3435	0	33134	33144	
3436	0	33016	33052	
3437	0	33104	32864	
3438	0	33076	32844	
3439	0	33036	32740	
3440	0	33064	32664	
3441	0	32948	32774	
3442	0	32738	32922	
3443	0	32692	32764	
3444	0	32704	32858	
3445	0	32640	32856	
3446	0	32644	32712	
3447	0	32560	32650	
3448	0	32654	32606	
3449	0	32640	32476	
3450	0	32630	32696	
3451	0	32700	32694	
3452	0	32716	32788	
3453	0	32796	32656	
3454	0	32776	32768	
3455	0	32644	32826	
3456	0	32768	32616	
3457	0	32860	32725	
3458	0	32820	32760	
3459	0	32864	32988	
3460	0	32906	33000	
3461	0	32828	32920	
3462	0	32808	32976	
3463	0	32892	32970	
3464	0	32980	32624	
3465	0	32856	32562	
3466	0	32756	32642	
3467	0	32856	32775	
3468	0	32868	32728	
3469	0	32880	32832	
3470	0	32808	32608	
3471	0	32620	32800	
3472	0	32674	32896	
3473	0	32720	32774	
3474	0	32824	32766	
3475	0	32720	32728	
3476	0	32836	32808	
3477	0	32886	32852	
3478	0	32968	32764	
3479	0	33016	32900	
3480	0	32820	32856	
3481	0	32744	32644	
3482	0	32708	32746	
3483	0	32732	32700	
3484	0	32916	32852	
3485	0	32742	32574	
3486	0	32736	32726	
3487	0	32792	32810	
3488	0	32648	32760	
3489	0	32712	32746	
3490	0	32736	32836	
3491	0	32952	32686	
3492	0	32966	32764	
3493	0	32782	32680	
3494	0	32796	32700	
3495	0	32732	32796	
3496	0	32840	32818	
3497	0	32752	32740	
3498	0	32752	32856	
3499	0	32784	32806	
3500	0	32814	32780	
3501	0	32858	32796	
3502	0	33044	32736	
3503	0	32788	32906	
3504	0	32618	32900	
3505	0	32552	32676	
3506	0	32652	32462	
3507	0	32840	32568	
3508	0	32976	32608	
3509	0	32956	32452	
3510	0	32924	32544	
3511	0	32928	32714	
3512	0	32792	32726	
3513	0	32872	32698	
3514	0	32920	32824	
3515	0	33016	32672	
3516	0	32808	32788	
3517	0	32697	32900	
3518	0	32800	32930	
3519	0	32810	32956	
3520	0	32860	32816	
3521	0	32664	32756	
3522	0	32652	32784	
3523	0	32730	33002	
3524	0	32700	32958	
3525	0	32804	32756	
3526	0	32734	32878	
3527	0	32792	32892	
3528	0	32776	32734	
3529	0	32788	32774	
3530	0	32896	32722	
3531	0	32834	32854	
3532	0	32728	32752	
3533	0	32820	32602	
3534	0	32820	32794	
3535	0	32752	32680	
3536	0	32864	32772	
3537	0	32828	32696	
3538	0	32832	32650	
3539	0	32768	32652	
3540	0	32808	32694	
3541	0	32892	32672	
3542	0	32780	32824	
3543	0	32852	32812	
3544	0	32920	32612	
3545	0	32808	32680	
3546	0	32876	32678	
3547	0	32896	32768	
3548	0	32684	32844	
3549	0	32608	32814	
3550	0	32806	32740	
3551	0	32900	32812	
3552	0	32732	32716	
3553	0	32744	32894	
3554	0	32664	32856	
3555	0	32708	32756	
3556	0	32744	32840	
3557	0	32952	32816	
3558	0	33100	32760	
3559	0	32948	32650	
3560	0	32888	32740	
3561	0	32928	32788	
3562	0	32824	32564	
3563	0	32840	32520	
3564	0	32916	32670	
3565	0	32944	32684	
3566	0	32740	32732	
3567	0	32808	32758	
3568	0	32808	32840	
3569	0	32760	32742	
3570	0	32760	32840	
3571	0	32741	32858	
3572	0	32788	32760	
3573	0	32736	32870	
3574	0	32776	32812	
3575	0	32832	32736	
3576	0	33018	32816	
3577	0	32996	32816	
3578	0	32816	32752	
3579	0	32728	32772	
3580	0	32852	32862	
3581	0	32708	32828	
3582	0	32746	32810	
3583	0	32724	32824	
3584	0	32832	32706	
3585	0	32782	32792	
3586	0	32712	32796	
3587	0	32660	32788	
3588	0	32746	32892	
3589	0	32848	32724	
3590	0	32696	32612	
3591	0	32729	32796	
3592	0	32840	32718	
3593	0	32876	32692	
3594	0	32954	32876	
3595	0	32784	32674	
3596	0	32740	32624	
3597	0	32680	32712	
3598	0	32828	32718	
3599	0	32904	32820	
3600	0	32744	32732	
3601	0	32772	32712	
3602	0	32848	32660	
3603	0	32904	32680	
3604	0	32890	32744	
3605	0	32832	32700	
3606	0	32762	32647	
3607	0	32872	32696	
3608	0	32960	32604	
3609	0	32868	32756	
3610	0	32814	32846	
3611	0	32682	32800	
3612	0	32760	32730	
3613	0	32774	32736	
3614	0	32724	32716	
3615	0	32820	32828	
3616	0	32832	32828	
3617	0	32784	32768	
3618	0	32868	32792	
3619	0	32776	32775	
3620	0	32713	32804	
3621	0	32772	32768	
3622	0	32814	32870	
3623	0	32864	32804	
3624	0	32832	32748	
3625	0	32800	32836	
3626	0	32836	32768	
3627	0	32768	32714	
3628	0	32716	32768	
3629	0	32764	32832	
3630	0	32810	32712	
3631	0	32888	32708	
3632	0	32904	32700	
3633	0	32796	32554	
3634	0	32784	32708	
3635	0	32712	32756	
3636	0	32752	32694	
3637	0	32760	32880	
3638	0	32712	32800	
3639	0	32776	32792	
3640	0	32792	32886	
3641	0	32768	32852	
3642	0	32824	32828	
3643	0	32788	32772	
3644	0	32868	32748	
3645	0	32780	32608	
3646	0	32768	32574	
3647	0	32732	32716	
3648	0	32756	32772	
3649	0	32706	32860	
3650	0	32664	32658	
3651	0	32746	32824	
3652	0	32720	32862	
3653	0	32820	32720	
3654	0	32912	32784	
3655	0	33128	32812	
3656	0	33038	32702	
3657	0	32960	32860	
3658	0	32884	32688	
3659	0	32772	32754	
3660	0	32844	32866	
3661	0	33026	32820	
3662	0	32976	32692	
3663	0	32844	32584	
3664	0	32792	32880	
3665	0	32768	32840	
3666	0	32768	32736	
3667	0	32788	32758	
3668	0	32744	32856	
3669	0	32844	32702	
3670	0	32812	32830	
3671	0	32832	32724	
3672	0	32816	32816	
3673	0	32880	32752	
3674	0	32896	32708	
3675	0	32900	32724	
3676	0	32760	32878	
3677	0	32734	32860	
3678	0	32724	32742	
3679	0	32776	32788	
3680	0	32776	32818	
3681	0	32764	32836	
3682	0	32956	32750	
3683	0	32852	32742	
3684	0	32650	32814	
3685	0	32682	32708	
3686	0	32844	32775	
3687	0	32948	32732	
3688	0	32868	32708	
3689	0	32732	32756	
3690	0	32774	32874	
3691	0	32740	32756	
3692	0	32736	32680	
3693	0	32816	32572	
3694	0	32898	32602	
3695	0	32912	32678	
3696	0	32776	32806	
3697	0	32780	32712	
3698	0	32816	32775	
3699	0	32792	32800	
3700	0	32760	32870	
3701	0	32816	32788	
3702	0	32788	32752	
3703	0	32760	32766	
3704	0	32774	32850	
3705	0	32768	32714	
3706	0	32808	32688	
3707	0	32840	32672	
3708	0	32748	32728	
3709	0	32816	32772	
3710	0	32808	32732	
3711	0	32840	32744	
3712	0	32872	32816	
3713	0	32928	32676	
3714	0	32860	32868	
3715	0	32840	32908	
3716	0	32834	32888	
3717	0	32824	32912	
3718	0	32860	32874	
3719	0	32922	33024	
3720	0	32816	33016	
3721	0	32928	32812	
3722	0	32792	32958	
3723	0	32712	32848	
3724	0	32714	32876	
3725	0	32788	32840	
3726	0	32892	32732	
3727	0	32714	32860	
3728	0	32716	32752	
3729	0	32828	32564	
3730	0	32732	32636	
3731	0	32800	32628	
3732	0	32830	32700	
3733	0	32924	32700	
3734	0	32904	32652	
3735	0	32742	32716	
3736	0	32736	32916	
3737	0	32740	32778	
3738	0	32800	32884	
3739	0	32800	32712	
3740	0	32956	32804	
3741	0	32772	32794	
3742	0	32736	32840	
3743	0	32816	32808	
3744	0	32832	32660	
3745	0	32896	32808	
3746	0	32810	32860	
3747	0	32758	32704	
3748	0	32676	32708	
3749	0	32660	32666	
3750	0	32704	32734	
3751	0	32754	32680	
3752	0	32808	32689	
3753	0	32892	32774	
3754	0	32864	32806	
3755	0	32932	32642	
3756	0	32764	32736	
3757	0	32784	32736	
3758	0	32776	32808	
3759	0	32796	32866	
3760	0	32844	32832	
3761	0	32762	32900	
3762	0	32838	32836	
3763	0	32900	32820	
3764	0	32852	32804	
3765	0	32756	32728	
3766	0	32800	32780	
3767	0	32760	32746	
3768	0	32880	32644	
3769	0	32832	32692	
3770	0	32744	32766	
3771	0	32800	32784	
3772	0	32718	32754	
3773	0	32684	32816	
3774	0	32664	32892	
3775	0	32712	32872	
3776	0	32668	32738	
3777	0	32772	32720	
3778	0	32866	32692	
3779	0	32832	32828	
3780	0	32864	32852	
3781	0	32912	32672	
3782	0	32792	32808	
3783	0	32928	32688	
3784	0	32816	32836	
3785	0	32832	32816	
3786	0	32698	32700	
3787	0	32756	32782	
3788	0	32760	32828	
3789	0	32796	32746	
3790	0	32760	32732	
3791	0	32724	32622	
3792	0	32648	32710	
3793	0	32812	32775	
3794	0	32944	32772	
3795	0	32960	32748	
3796	0	32904	32696	
3797	0	33028	32676	
3798	0	32960	32772	
3799	0	32918	32772	
3800	0	32728	32848	
3801	0	32752	32764	
3802	0	32578	32888	
3803	0	32556	32836	
3804	0	32512	32992	
3805	0	32396	32950	
3806	0	32440	32956	
3807	0	32544	32821	
3808	0	32608	32838	
3809	0	32600	32800	
3810	0	32762	32836	
3811	0	32852	32792	
3812	0	32846	32654	
3813	0	32928	32640	
3814	0	32996	32590	
3815	0	32968	32748	
3816	0	33028	32684	
3817	0	32956	32716	
3818	0	32904	32792	
3819	0	32980	32692	
3820	0	32988	32684	
3821	0	32900	32730	
3822	0	32980	32604	
3823	0	32860	32672	
3824	0	32824	32676	
3825	0	32896	32728	
3826	0	32952	32636	
3827	0	32864	32748	
3828	0	32828	32672	
3829	0	32824	32772	
3830	0	32916	32756	
3831	0	32960	32740	
3832	0	33008	32720	
3833	0	33000	32708	
3834	0	32870	32775	
3835	0	32856	32724	
3836	0	32760	32724	
3837	0	32728	32834	
3838	0	32740	32842	
3839	0	32748	32710	
3840	0	32728	32816	
3841	0	32692	32722	
3842	0	32666	32760	
3843	0	32712	32842	
3844	0	32796	32856	
3845	0	32736	32744	
3846	0	32740	32668	
3847	0	32676	32664	
3848	0	32644	32720	
3849	0	32594	32602	
3850	0	32472	32628	
3851	0	32616	32693	
3852	0	32816	32600	
3853	0	32920	32724	
3854	0	32776	32648	
3855	0	32712	32826	
3856	0	32802	32836	
3857	0	32888	32772	
3858	0	32950	32772	
3859	0	32868	32752	
3860	0	32866	32870	
3861	0	32768	32892	
3862	0	32888	32756	
3863	0	32880	32896	
3864	0	32976	32748	
3865	0	32952	32778	
3866	0	32876	32862	
3867	0	32864	32664	
3868	0	32800	32760	
3869	0	32876	32700	
3870	0	33084	32738	
3871	0	33048	32748	
3872	0	32932	32708	
3873	0	32928	32752	
3874	0	32948	32748	
3875	0	32996	32742	
3876	0	32852	32822	
3877	0	32600	32680	
3878	0	32468	32842	
3879	0	32668	32832	
3880	0	32584	32874	
3881	0	32468	32856	
3882	0	32348	32832	
3883	0	32418	32828	
3884	0	32532	32714	
3885	0	32518	32796	
3886	0	32468	32888	
3887	0	32474	32768	
3888	0	32640	32736	
3889	0	32826	32670	
3890	0	32790	32616	
3891	0	32850	32712	
3892	0	32940	32536	
3893	0	32954	32720	
3894	0	33028	32852	
3895	0	32896	32698	
3896	0	32920	32592	
3897	0	32932	32668	
3898	0	32912	32888	
3899	0	32872	32924	
3900	0	32792	32748	
3901	0	32772	32748	
3902	0	32788	32744	
3903	0	32690	32724	
3904	0	32672	32740	
3905	0	32760	32720	
3906	0	32938	32760	
3907	0	32796	32866	
3908	0	32812	32734	
3909	0	32924	32720	
3910	0	32920	32660	
3911	0	32856	32686	
3912	0	32800	32720	
3913	0	32948	32684	
3914	0	32904	32658	
3915	0	32928	32704	
3916	0	32836	32732	
3917	0	32890	32812	
3918	0	32672	32862	
3919	0	32700	32736	
3920	0	32572	32912	
3921	0	32480	32904	
3922	0	32368	32852	
3923	0	32500	32800	
3924	0	32516	32790	
3925	0	32732	32644	
3926	0	32884	32796	
3927	0	33008	32756	
3928	0	33068	32680	
3929	0	32986	32752	
3930	0	33088	32826	
3931	0	32984	32764	
3932	0	32896	32788	
3933	0	32918	32732	
3934	0	32740	32764	
3935	0	32734	32848	
3936	0	32604	32908	
3937	0	32440	32888	
3938	0	32390	32900	
3939	0	32150	32826	
3940	0	32132	32810	
3941	0	32408	32808	
3942	0	32628	32712	
3943	0	32760	32764	
3944	0	32865	32760	
3945	0	32880	32760	
3946	0	32948	32744	
3947	0	32996	32648	
3948	0	32810	32744	
3949	0	32948	32636	
3950	0	32880	32692	
3951	0	32788	32762	
3952	0	32816	32794	
3953	0	32858	32708	
3954	0	32802	32744	
3955	0	32776	32688	
3956	0	32846	32820	
3957	0	32834	32802	
3958	0	32864	32840	
3959	0	32772	32792	
3960	0	32856	32798	
3961	0	32884	32728	
3962	0	32948	32908	
3963	0	32926	32796	
3964	0	32996	32686	
3965	0	33200	32798	
3966	0	33276	32776	
3967	0	33516	32691	
3968	0	33528	32762	
3969	0	33268	32732	
3970	0	33002	32640	
3971	0	33092	32714	
3972	0	32932	32716	
3973	0	32820	32744	
3974	0	32602	32752	
3975	0	32572	32692	
3976	0	32652	32780	
3977	0	32768	32800	
3978	0	32854	32748	
3979	0	33004	32812	
3980	0	32952	32750	
3981	0	32904	32846	
3982	0	32812	32772	
3983	0	32884	32776	
3984	0	32824	32740	
3985	0	32946	32700	
3986	0	33204	32716	
3987	0	33052	32692	
3988	0	33032	32708	
3989	0	33128	32756	
3990	0	32980	32554	
3991	0	33046	32688	
3992	0	32904	32696	
3993	0	32500	32664	
3994	0	32264	32732	
3995	0	32048	32778	
3996	0	32154	32772	
3997	0	32452	32810	
3998	0	32808	32736	
3999	0	33100	32838	
4000	0	33234	32836	
4001	0	33218	32660	
4002	0	33164	32846	
4003	0	33052	32772	
4004	0	32958	32880	
4005	0	32744	32680	
4006	0	32724	32736	
4007	0	32710	32774	
4008	0	32548	32692	
4009	0	32616	32740	
4010	0	32628	32736	
4011	0	32564	32708	
4012	0	32548	32548	
4013	0	32488	32678	
4014	0	32332	32628	
4015	0	32520	32700	
4016	0	32780	32636	
4017	0	33036	32704	
4018	0	33244	32820	
4019	0	33184	32728	
4020	0	33190	32864	
4021	0	33152	32857	
4022	0	32984	32742	
4023	0	32920	32728	
4024	0	32856	32634	
4025	0	32776	32782	
4026	0	32644	32788	
4027	0	32468	32696	
4028	0	32456	32764	
4029	0	32602	32648	
4030	0	32828	32776	
4031	0	32980	32746	
4032	0	33152	32774	
4033	0	33392	32742	
4034	0	33326	32770	
4035	0	33176	32806	
4036	0	33020	32828	
4037	0	32768	32844	
4038	0	32524	32828	
4039	0	32586	32884	
4040	0	32560	32916	
4041	0	32480	32990	
4042	0	32448	32768	
4043	0	32420	32688	
4044	0	32480	32810	
4045	0	32696	32732	
4046	0	32752	32692	
4047	0	32792	32810	
4048	0	32958	32724	
4049	0	33060	32672	
4050	0	32928	32724	
4051	0	32868	32752	
4052	0	33024	32672	
4053	0	32936	32784	
4054	0	32880	32776	
4055	0	32958	32862	
4056	0	32832	32724	
4057	0	32808	32838	
4058	0	32808	32832	
4059	0	32832	32800	
4060	0	33136	32816	
4061	0	33384	32852	
4062	0	33168	32684	
4063	0	32628	32770	
4064	0	32616	32718	
4065	0	32480	32684	
4066	0	32338	32768	
4067	0	32242	32706	
4068	0	32154	32626	
4069	0	32488	32586	
4070	0	32680	32624	
4071	0	32944	32728	
4072	0	33112	32656	
4073	0	33260	32612	
4074	0	33192	32796	
4075	0	33064	32844	
4076	0	32896	32816	
4077	0	32616	32960	
4078	0	32484	32864	
4079	0	32492	32828	
4080	0	32682	32864	
4081	0	32688	32940	
4082	0	32740	32756	
4083	0	32912	32904	
4084	0	32910	32816	
4085	0	32824	32732	
4086	0	32808	32698	
4087	0	32796	32728	
4088	0	32632	32704	
4089	0	32836	32612	
4090	0	33112	32692	
4091	0	33200	32752	
4092	0	33364	32746	
4093	0	33368	32760	
4094	0	33042	32764	
4095	0	32908	32752	
4096	0	32782	32692	
4097	0	32572	32848	
4098	0	32480	32840	
4099	0	32444	32868	
4100	0	32752	32848	
4101	0	32816	32774	
4102	0	33040	32868	
4103	0	33278	32866	
4104	0	33194	32842	
4105	0	33000	32820	
4106	0	32706	32608	
4107	0	32468	32628	
4108	0	32396	32762	
4109	0	32436	32824	
4110	0	32620	32612	
4111	0	32688	32692	
4112	0	32744	32640	
4113	0	32952	32804	
4114	0	33076	32810	
4115	0	32926	32696	
4116	0	32576	32744	
4117	0	32264	32760	
4118	0	32284	32826	
4119	0	32420	32808	
4120	0	32592	32800	
4121	0	32692	32834	
4122	0	32752	32848	
4123	0	32904	32712	
4124	0	32888	32728	
4125	0	33156	32784	
4126	0	33192	32684	
4127	0	33316	32756	
4128	0	33584	32780	
4129	0	33836	32696	
4130	0	34264	32898	
4131	0	34160	32780	
4132	0	33972	32664	
4133	0	33554	32876	
4134	0	33048	32724	
4135	0	32304	32820	
4136	0	32002	32702	
4137	0	31776	32644	
4138	0	31684	32804	
4139	0	31632	32856	
4140	0	31662	32654	
4141	0	31768	32774	
4142	0	31984	32744	
4143	0	32084	32862	
4144	0	32256	32870	
4145	0	32648	32775	
4146	0	33018	32872	
4147	0	33064	32708	
4148	0	33344	32724	
4149	0	33270	32744	
4150	0	33132	32661	
4151	0	33326	32680	
4152	0	33106	32612	
4153	0	33120	32772	
4154	0	33048	32774	
4155	0	33112	32704	
4156	0	33066	32700	
4157	0	33136	32766	
4158	0	32992	32758	
4159	0	32920	32752	
4160	0	32868	32684	
4161	0	32960	32688	
4162	0	32860	32704	
4163	0	32848	32632	
4164	0	32712	32838	
4165	0	32744	32772	
4166	0	32772	32792	
4167	0	32708	32799	
4168	0	32748	32684	
4169	0	32842	32842	
4170	0	32844	32716	
4171	0	32788	32790	
4172	0	32632	32690	
4173	0	32612	32740	
4174	0	32682	32846	
4175	0	32756	32828	
4176	0	32880	32836	
4177	0	32836	32666	
4178	0	33032	32738	
4179	0	32910	32698	
4180	0	32912	32624	
4181	0	32800	32634	
4182	0	32928	32708	
4183	0	32880	32716	
4184	0	32702	32702	
4185	0	32856	32746	
4186	0	32820	32916	
4187	0	32600	32800	
4188	0	32640	32894	
4189	0	32816	32820	
4190	0	32872	32700	
4191	0	32784	32700	
4192	0	32866	32602	
4193	0	32938	32700	
4194	0	32984	32678	
4195	0	32992	32684	
4196	0	33004	32800	
4197	0	33080	32708	
4198	0	33056	32880	
4199	0	33048	32796	
4200	0	33008	32820	
4201	0	32938	32796	
4202	0	32996	32744	
4203	0	33016	32696	
4204	0	32644	32746	
4205	0	32504	32800	
4206	0	32420	32816	
4207	0	32308	32704	
4208	0	31980	32680	
4209	0	32124	32708	
4210	0	32028	32792	
4211	0	32042	32816	
4212	0	32156	32824	
4213	0	32256	32834	
4214	0	32324	32784	
4215	0	32608	32810	
4216	0	32824	32716	
4217	0	32968	32802	
4218	0	32824	32810	
4219	0	32872	32792	
4220	0	33016	32836	
4221	0	32988	32716	
4222	0	33040	32724	
4223	0	32976	32740	
4224	0	32916	32704	
4225	0	32938	32686	
4226	0	32944	32670	
4227	0	32992	32610	
4228	0	33032	32796	
4229	0	33076	32764	
4230	0	33304	32840	
4231	0	33244	32936	
4232	0	33084	32922	
4233	0	33036	32938	
4234	0	32988	32814	
4235	0	32800	32692	
4236	0	32776	32788	
4237	0	32628	32776	
4238	0	32696	32616	
4239	0	32636	32772	
4240	0	32676	32664	
4241	0	32728	32678	
4242	0	32612	32672	
4243	0	32672	32580	
4244	0	32668	32700	
4245	0	32676	32640	
4246	0	32640	32684	
4247	0	32640	32744	
4248	0	32728	32684	
4249	0	32666	32660	
4250	0	32672	32688	
4251	0	32764	32604	
4252	0	32748	32672	
4253	0	32814	32718	
4254	0	32872	32694	
4255	0	32876	32864	
4256	0	32818	32758	
4257	0	32812	32716	
4258	0	32776	32844	
4259	0	32866	32775	
4260	0	33136	32848	
4261	0	32976	32938	
4262	0	32724	32906	
4263	0	32884	32924	
4264	0	33028	32932	
4265	0	32838	32774	
4266	0	33052	32942	
4267	0	33064	33140	
4268	0	33002	32984	
4269	0	32908	32886	
4270	0	32976	32916	
4271	0	32820	32728	
4272	0	32916	32920	
4273	0	32960	32804	
4274	0	33044	32744	
4275	0	33064	32876	
4276	0	32884	32852	
4277	0	32752	32680	
4278	0	32772	32804	
4279	0	32706	32784	
4280	0	32676	32616	
4281	0	32560	32678	
4282	0	32538	32644	
4283	0	32586	32534	
4284	0	32664	32638	
4285	0	32696	32724	
4286	0	32720	32774	
4287	0	32792	32884	
4288	0	32730	32992	
4289	0	32664	32802	
4290	0	32680	32700	
4291	0	32726	32758	
4292	0	32728	32832	
4293	0	32846	32832	
4294	0	32788	32880	
4295	0	32720	32732	
4296	0	32816	32616	
4297	0	32816	32708	
4298	0	32900	32672	
4299	0	32866	32830	
4300	0	32896	32832	
4301	0	32776	32682	
4302	0	32802	32812	
4303	0	32848	32804	
4304	0	32960	32800	
4305	0	32940	32828	
4306	0	32744	32750	
4307	0	32976	32836	
4308	0	33121	32700	
4309	0	32988	32786	
4310	0	33000	32752	
4311	0	33112	32880	
4312	0	32924	32862	
4313	0	32848	32836	
4314	0	32848	32792	
4315	0	32788	32724	
4316	0	32744	32741	
4317	0	32860	32748	
4318	0	32898	32672	
4319	0	32676	32728	
4320	0	32696	32752	
4321	0	32720	32676	
4322	0	32624	32748	
4323	0	32616	32760	
4324	0	32616	32800	
4325	0	32644	32804	
4326	0	32704	32844	
4327	0	32736	32824	
4328	0	32802	32786	
4329	0	32882	32742	
4330	0	32800	32806	
4331	0	32732	32826	
4332	0	32744	32710	
4333	0	32672	32732	
4334	0	32708	32775	
4335	0	32708	32670	
4336	0	32626	32656	
4337	0	32736	32632	
4338	0	32768	32674	
4339	0	32780	32808	
4340	0	32744	32864	
4341	0	32748	32808	
4342	0	32828	32660	
4343	0	32908	32704	
4344	0	32954	32738	
4345	0	32888	32836	
4346	0	32986	32790	
4347	0	32872	32772	
4348	0	32858	32864	
4349	0	32900	32864	
4350	0	32724	32844	
4351	0	32802	32796	
4352	0	32976	32672	
4353	0	32848	32756	
4354	0	32810	32794	
4355	0	32828	32624	
4356	0	32852	32750	
4357	0	32752	32656	
4358	0	32772	32724	
4359	0	32816	32708	
4360	0	32876	32762	
4361	0	32920	32724	
4362	0	32864	32848	
4363	0	32836	32896	
4364	0	32944	32706	
4365	0	32950	32724	
4366	0	32876	32703	
4367	0	32740	32786	
4368	0	32808	32772	
4369	0	32724	32766	
4370	0	32666	32862	
4371	0	32716	32808	
4372	0	32732	32782	
4373	0	32720	32748	
4374	0	32660	32732	
4375	0	32704	32866	
4376	0	32652	32764	
4377	0	32616	32712	
4378	0	32684	32700	
4379	0	32682	32800	
4380	0	32742	32650	
4381	0	32848	32830	
4382	0	32994	32808	
4383	0	33024	32700	
4384	0	32994	32776	
4385	0	33012	32840	
4386	0	32900	32764	
4387	0	32884	32730	
4388	0	32764	32736	
4389	0	32744	32834	
4390	0	32756	32956	
4391	0	32620	32912	
4392	0	32588	32884	
4393	0	32524	32818	
4394	0	32580	32748	
4395	0	32724	32746	
4396	0	32648	32804	
4397	0	32644	32756	
4398	0	32616	32744	
4399	0	32708	32888	
4400	0	32752	32624	
4401	0	32920	32718	
4402	0	32942	32680	
4403	0	33004	32820	
4404	0	33008	32830	
4405	0	32856	32743	
4406	0	32880	32782	
4407	0	32932	32808	
4408	0	33008	32876	
4409	0	33004	32816	
4410	0	32952	32840	
4411	0	32924	32748	
4412	0	32856	32768	
4413	0	32832	32868	
4414	0	32696	32768	
4415	0	32588	32772	
4416	0	32680	32710	
4417	0	32654	32804	
4418	0	32676	32762	
4419	0	32740	32742	
4420	0	32680	32808	
4421	0	32728	32788	
4422	0	32736	32748	
4423	0	32836	32772	
4424	0	32872	32748	
4425	0	32840	32830	
4426	0	32808	32760	
4427	0	32844	32836	
4428	0	32784	32860	
4429	0	32728	32772	
4430	0	32976	32808	
4431	0	32880	32866	
4432	0	32820	32808	
4433	0	32934	32808	
4434	0	32994	32760	
4435	0	32904	32680	
4436	0	33064	32740	
4437	0	33052	32788	
4438	0	32980	32756	
4439	0	32696	32734	
4440	0	32692	32690	
4441	0	32756	32768	
4442	0	32848	32798	
4443	0	32920	32678	
4444	0	32810	32874	
4445	0	32670	32772	
4446	0	32700	32762	
4447	0	32656	32872	
4448	0	32632	32864	
4449	0	32724	32756	
4450	0	32768	32846	
4451	0	32864	32836	
4452	0	32848	32778	
4453	0	32908	32788	
4454	0	32868	32660	
4455	0	32944	32904	
4456	0	32952	32832	
4457	0	32820	32652	
4458	0	32880	32758	
4459	0	32808	32748	
4460	0	32828	32688	
4461	0	32822	32728	
4462	0	32740	32712	
4463	0	32684	32704	
4464	0	32770	32756	
4465	0	32714	32800	
4466	0	32772	32716	
4467	0	32740	32775	
4468	0	32856	32760	
4469	0	32868	32704	
4470	0	32920	32830	
4471	0	32940	32824	
4472	0	32896	32700	
4473	0	32880	32812	
4474	0	32904	32712	
4475	0	32894	32696	
4476	0	32892	32780	
4477	0	32992	32774	
4478	0	32944	32714	
4479	0	32944	32808	
4480	0	32960	32728	
4481	0	32964	32824	
4482	0	32964	32716	
4483	0	33004	32756	
4484	0	32888	32716	
4485	0	32844	32704	
4486	0	32804	32788	
4487	0	32902	32644	
4488	0	32848	32806	
4489	0	32812	32760	
4490	0	32880	32852	
4491	0	32924	32714	
4492	0	32880	32728	
4493	0	32884	32844	
4494	0	32864	32782	
4495	0	32826	32704	
4496	0	32668	32768	
4497	0	32698	32738	
4498	0	32646	32640	
4499	0	32580	32768	
4500	0	32588	32756	
4501	0	32640	32674	
4502	0	32634	32704	
4503	0	32640	32740	
4504	0	32672	32744	
4505	0	32600	32746	
4506	0	32728	32800	
4507	0	32612	32894	
4508	0	32674	32832	
4509	0	32728	32800	
4510	0	32680	32842	
4511	0	32738	32810	
4512	0	32684	32848	
4513	0	32724	32716	
4514	0	32768	32720	
4515	0	32780	32672	
4516	0	32768	32654	
4517	0	32780	32788	
4518	0	32824	32724	
4519	0	32796	32692	
4520	0	32780	32760	
4521	0	32852	32780	
4522	0	32754	32716	
4523	0	32828	32708	
4524	0	32744	32676	
4525	0	32816	32816	
4526	0	32798	32800	
4527	0	32802	32684	
4528	0	32916	32808	
4529	0	32828	32764	
4530	0	32896	32728	
4531	0	32824	32882	
4532	0	32776	32712	
4533	0	32728	32842	
4534	0	32676	32810	
4535	0	32576	32708	
4536	0	32654	32775	
4537	0	32708	32728	
4538	0	32716	32688	
4539	0	32672	32728	
4540	0	32788	32772	
4541	0	32820	32708	
4542	0	32808	32832	
4543	0	32812	32720	
4544	0	32930	32744	
4545	0	32874	32726	
4546	0	32884	32672	
4547	0	32868	32770	
4548	0	32872	32752	
4549	0	32860	32870	
4550	0	32879	32804	
4551	0	32880	32736	
4552	0	32868	32766	
4553	0	32924	32770	
4554	0	32880	32680	
4555	0	32948	32836	
4556	0	32996	32854	
4557	0	32936	32860	
4558	0	32946	32836	
4559	0	32852	32574	
4560	0	32760	32672	
4561	0	32756	32864	
4562	0	32656	32714	
4563	0	32640	32788	
4564	0	32646	32828	
4565	0	32626	32724	
4566	0	32712	32806	
4567	0	32664	32698	
4568	0	32686	32840	
4569	0	32800	32782	
4570	0	32740	32756	
4571	0	32848	32768	
4572	0	32892	32644	
4573	0	32840	32832	
4574	0	32796	32816	
4575	0	32792	32774	
4576	0	32816	32820	
4577	0	32824	32742	
4578	0	32820	32688	
4579	0	32764	32728	
4580	0	32792	32714	
4581	0	32808	32718	
4582	0	32752	32804	
4583	0	32892	32676	
4584	0	32820	32775	
4585	0	32804	32788	
4586	0	32868	32768	
4587	0	32832	32744	
4588	0	32780	32856	
4589	0	32824	32800	
4590	0	32778	32856	
4591	0	32824	32780	
4592	0	32818	32853	
4593	0	32868	32828	
4594	0	32892	32688	
4595	0	32896	32756	
4596	0	32930	32832	
4597	0	32856	32704	
4598	0	32852	32736	
4599	0	32944	32804	
4600	0	32832	32656	
4601	0	32864	32710	
4602	0	32856	32738	
4603	0	32916	32814	
4604	0	32840	32740	
4605	0	32784	32914	
4606	0	32828	32746	
4607	0	32736	32840	
4608	0	32740	32866	
4609	0	32692	32732	
4610	0	32780	32920	
4611	0	32816	32864	
4612	0	32876	32742	
4613	0	32688	32886	
4614	0	32700	32794	
4615	0	32720	32724	
4616	0	32696	32768	
4617	0	32784	32734	
4618	0	32866	32608	
4619	0	32846	32600	
4620	0	32796	32740	
4621	0	32796	32774	
4622	0	32804	32642	
4623	0	32820	32826	
4624	0	32810	32794	
4625	0	32800	32758	
4626	0	32764	32796	
4627	0	32762	32788	
4628	0	32764	32704	
4629	0	32764	32804	
4630	0	32744	32724	
4631	0	32748	32754	
4632	0	32740	32804	
4633	0	32720	32696	
4634	0	32764	32800	
4635	0	32788	32756	
4636	0	32788	32740	
4637	0	32800	32788	
4638	0	32854	32764	
4639	0	32892	32689	
4640	0	32848	32752	
4641	0	32834	32768	
4642	0	32696	32720	
4643	0	32760	32688	
4644	0	32748	32722	
4645	0	32704	32840	
4646	0	32744	32752	
4647	0	32784	32702	
4648	0	32752	32860	
4649	0	32864	32848	
4650	0	32764	32760	
4651	0	32672	32788	
4652	0	32688	32678	
4653	0	32724	32780	
4654	0	32712	32728	
4655	0	32764	32708	
4656	0	32700	32736	
4657	0	32776	32660	
4658	0	32794	32722	
4659	0	32850	32788	
4660	0	32776	32728	
4661	0	32852	32704	
4662	0	32908	32764	
4663	0	32900	32784	
4664	0	32960	32775	
4665	0	32960	32712	
4666	0	32940	32732	
4667	0	32940	32806	
4668	0	32968	32736	
4669	0	32908	32818	
4670	0	32884	32836	
4671	0	32856	32760	
4672	0	32932	32840	
4673	0	32896	32840	
4674	0	32868	32864	
4675	0	32932	32804	
4676	0	32944	32666	
4677	0	32900	32770	
4678	0	32900	32812	
4679	0	32982	32772	
4680	0	32928	32744	
4681	0	32852	32736	
4682	0	32804	32744	
4683	0	32760	32732	
4684	0	32832	32798	
4685	0	32804	32870	
4686	0	32712	32806	
4687	0	32740	32694	
4688	0	32860	32792	
4689	0	32828	32796	
4690	0	32792	32848	
4691	0	32800	32828	
4692	0	32856	32730	
4693	0	32848	32800	
4694	0	32856	32738	
4695	0	32896	32808	
4696	0	32852	32784	
4697	0	32872	32716	
4698	0	32860	32712	
4699	0	32802	32834	
4700	0	32848	32732	
4701	0	32852	32758	
4702	0	32832	32680	
4703	0	32872	32730	
4704	0	32808	32834	
4705	0	32832	32788	
4706	0	32828	32774	
4707	0	32828	32844	
4708	0	32756	32712	
4709	0	32804	32768	
4710	0	32776	32846	
4711	0	32816	32784	
4712	0	32768	32868	
4713	0	32840	32676	
4714	0	32808	32716	
4715	0	32792	32752	
4716	0	32828	32852	
4717	0	32880	32692	
4718	0	32864	32750	
4719	0	32836	32772	
4720	0	32860	32688	
4721	0	32836	32770	
4722	0	32868	32738	
4723	0	32784	32704	
4724	0	32742	32704	
4725	0	32772	32798	
4726	0	32776	32862	
4727	0	32760	32775	
4728	0	32796	32680	
4729	0	32716	32796	
4730	0	32716	32864	
4731	0	32776	32810	
4732	0	32772	32860	
4733	0	32792	32804	
4734	0	32792	32744	
4735	0	32818	32772	
4736	0	32716	32824	
4737	0	32792	32692	
4738	0	32880	32740	
4739	0	32796	32784	
4740	0	32780	32744	
4741	0	32740	32688	
4742	0	32756	32740	
4743	0	32802	32736	
4744	0	32812	32820	
4745	0	32776	32716	
4746	0	32740	32718	
4747	0	32776	32826	
4748	0	32836	32740	
4749	0	32760	32884	
4750	0	32784	32744	
4751	0	32796	32704	
4752	0	32796	32810	
4753	0	32894	32808	
4754	0	32864	32796	
4755	0	32864	32736	
4756	0	32828	32672	
4757	0	32876	32796	
4758	0	32920	32798	
4759	0	32912	32734	
4760	0	32796	32624	
4761	0	32744	32672	
4762	0	32776	32752	
4763	0	32756	32768	
4764	0	32752	32784	
4765	0	32744	32808	
4766	0	32730	32784	
4767	0	32772	32696	
4768	0	32746	32860	
4769	0	32828	32778	
4770	0	32782	32804	
4771	0	32872	32716	
4772	0	32904	32872	
4773	0	32840	32736	
4774	0	32824	32808	
4775	0	32816	32732	
4776	0	32796	32732	
4777	0	32872	32776	
4778	0	32844	32756	
4779	0	32920	32772	
4780	0	32790	32696	
4781	0	32772	32704	
4782	0	32768	32744	
4783	0	32760	32728	
4784	0	32760	32724	
4785	0	32828	32908	
4786	0	32784	32660	
4787	0	32876	32802	
4788	0	32780	32844	
4789	0	32816	32720	
4790	0	32840	32880	
4791	0	32832	32826	
4792	0	32804	32704	
4793	0	32816	32792	
4794	0	32834	32800	
4795	0	32804	32736	
4796	0	32862	32740	
4797	0	32872	32800	
4798	0	32876	32772	
4799	0	32936	32728	
4800	0	32858	32670	
4801	0	32856	32746	
4802	0	32844	32772	
4803	0	32804	32734	
4804	0	32852	32824	
4805	0	32840	32748	
4806	0	32860	32750	
4807	0	32876	32844	
4808	0	32872	32808	
4809	0	32788	32806	
4810	0	32820	32814	
4811	0	32816	32724	
4812	0	32832	32750	
4813	0	32798	32762	
4814	0	32836	32760	
4815	0	32800	32664	
4816	0	32812	32808	
4817	0	32832	32790	
4818	0	32810	32692	
4819	0	32808	32696	
4820	0	32816	32804	
4821	0	32764	32704	
4822	0	32832	32764	
4823	0	32772	32870	
4824	0	32784	32708	
4825	0	32834	32876	
4826	0	32740	32828	
4827	0	32744	32762	
4828	0	32688	32868	
4829	0	32778	32862	
4830	0	32798	32762	
4831	0	32738	32856	
4832	0	32800	32788	
4833	0	32808	32732	
4834	0	32780	32775	
4835	0	32848	32790	
4836	0	32844	32798	
4837	0	32840	32760	
4838	0	32772	32724	
4839	0	32836	32804	
4840	0	32792	32778	
4841	0	32856	32632	
4842	0	32816	32688	
4843	0	32818	32700	
4844	0	32760	32816	
4845	0	32772	32846	
4846	0	32770	32688	
4847	0	32848	32884	
4848	0	32780	32798	
4849	0	32792	32816	
4850	0	32816	32780	
4851	0	32804	32752	
4852	0	32804	32848	
4853	0	32828	32816	
4854	0	32872	32772	
4855	0	32782	32724	
4856	0	32836	32852	
4857	0	32772	32752	
4858	0	32772	32778	
4859	0	32846	32672	
4860	0	32884	32762	
4861	0	32792	32776	
4862	0	32800	32674	
4863	0	32768	32762	
4864	0	32880	32766	
4865	0	32844	32664	
4866	0	32738	32804	
4867	0	32776	32818	
4868	0	32752	32774	
4869	0	32772	32856	
4870	0	32804	32872	
4871	0	32740	32650	
4872	0	32798	32852	
4873	0	32780	32782	
4874	0	32784	32744	
4875	0	32832	32804	
4876	0	32856	32720	
4877	0	32824	32690	
4878	0	32804	32732	
4879	0	32816	32660	
4880	0	32864	32674	
4881	0	32792	32742	
4882	0	32836	32776	
4883	0	32772	32698	
4884	0	32820	32832	
4885	0	32788	32818	
4886	0	32816	32692	
4887	0	32822	32871	
4888	0	32824	32886	
4889	0	32798	32756	
4890	0	32768	32768	
4891	0	32804	32692	
4892	0	32804	32832	
4893	0	32776	32828	
4894	0	32852	32712	
4895	0	32804	32744	
4896	0	32840	32736	
4897	0	32842	32764	
4898	0	32828	32736	
4899	0	32780	32690	
4900	0	32768	32708	
4901	0	32788	32688	
4902	0	32844	32788	
4903	0	32762	32856	
4904	0	32776	32816	
4905	0	32812	32757	
4906	0	32832	32724	
4907	0	32756	32870	
4908	0	32804	32856	
4909	0	32768	32766	
4910	0	32776	32836	
4911	0	32800	32778	
4912	0	32810	32870	
4913	0	32840	32888	
4914	0	32898	32800	
4915	0	32832	32804	
4916	0	32784	32676	
4917	0	32866	32824	
4918	0	32860	32700	
4919	0	32776	32640	
4920	0	32800	32770	
4921	0	32836	32716	
4922	0	32808	32692	
4923	0	32804	32736	
4924	0	32792	32736	
4925	0	32784	32712	
4926	0	32774	32790	
4927	0	32768	32856	
4928	0	32776	32762	
4929	0	32748	32768	
4930	0	32858	32775	
4931	0	32850	32784	
4932	0	32850	32820	
4933	0	32808	32740	
4934	0	32788	32790	
4935	0	32850	32752	
4936	0	32836	32724	
4937	0	32844	32816	
4938	0	32816	32762	
4939	0	32744	32728	
4940	0	32860	32744	
4941	0	32812	32688	
4942	0	32894	32770	
4943	0	32848	32744	
4944	0	32830	32808	
4945	0	32896	32698	
4946	0	32808	32828	
4947	0	32780	32812	
4948	0	32730	32786	
4949	0	32768	32810	
4950	0	32748	32774	
4951	0	32872	32708	
4952	0	32828	32864	
4953	0	32836	32802	
4954	0	32904	32732	
4955	0	32808	32720	
4956	0	32818	32772	
4957	0	32820	32684	
4958	0	32816	32840	
4959	0	32852	32724	
4960	0	32834	32652	
4961	0	32820	32734	
4962	0	32812	32732	
4963	0	32844	32750	
4964	0	32756	32744	
4965	0	32828	32712	
4966	0	32840	32808	
4967	0	32778	32864	
4968	0	32740	32740	
4969	0	32752	32802	
4970	0	32752	32808	
4971	0	32840	32658	
4972	0	32768	32840	
4973	0	32824	32784	
4974	0	32794	32708	
4975	0	32848	32802	
4976	0	32862	32852	
4977	0	32784	32768	
4978	0	32762	32746	
4979	0	32824	32684	
4980	0	32812	32788	
4981	0	32880	32684	
4982	0	32736	32748	
4983	0	32792	32708	
4984	0	32820	32832	
4985	0	32864	32764	
4986	0	32789	32760	
4987	0	32738	32704	
4988	0	32810	32746	
4989	0	32828	32826	
4990	0	32800	32796	
4991	0	32718	32896	
4992	0	32812	32844	
4993	0	32824	32774	
4994	0	32750	32760	
4995	0	32840	32764	
4996	0	32852	32748	
4997	0	32816	32754	
4998	0	32838	32658	
4999	0	32852	32822	
5000	0	32832	32664	
5001	0	32774	32720	
5002	0	32848	32736	
5003	0	32860	32754	
5004	0	32794	32692	
5005	0	32836	32836	
5006	0	32818	32760	
5007	0	32808	32804	
5008	0	32828	32764	
5009	0	32852	32887	
5010	0	32820	32768	
5011	0	32828	32840	
5012	0	32804	32896	
5013	0	32780	32806	
5014	0	32832	32764	
5015	0	32764	32788	
5016	0	32820	32682	
5017	0	32852	32796	
5018	0	32748	32655	
5019	0	32776	32810	
5020	0	32764	32676	
5021	0	32884	32696	
5022	0	32822	32668	
5023	0	32812	32752	
5024	0	32836	32728	
5025	0	32854	32848	
5026	0	32800	32740	
5027	0	32834	32775	
5028	0	32762	32948	
5029	0	32786	32884	
5030	0	32848	32710	
5031	0	32820	32804	
5032	0	32784	32760	
5033	0	32852	32880	
5034	0	32848	32820	
5035	0	32856	32718	
5036	0	32806	32830	
5037	0	32832	32708	
5038	0	32844	32736	
5039	0	32828	32752	
5040	0	32896	32836	
5041	0	32804	32688	
5042	0	32764	32770	
5043	0	32824	32760	
5044	0	32792	32712	
5045	0	32786	32784	
5046	0	32724	32756	
5047	0	32738	32738	
5048	0	32688	32664	
5049	0	32640	32704	
5050	0	32676	32648	
5051	0	32736	32692	
5052	0	32720	32666	
5053	0	32800	32692	
5054	0	32728	32788	
5055	0	32696	32634	
5056	0	32706	32734	
5057	0	32700	32644	
5058	0	32682	32676	
5059	0	32716	32688	
5060	0	32796	32684	
5061	0	32860	32734	
5062	0	32840	32768	
5063	0	32832	32824	
5064	0	32850	32772	
5065	0	32864	32704	
5066	0	32868	32804	
5067	0	32880	32736	
5068	0	32872	32860	
5069	0	32832	32960	
5070	0	32842	32844	
5071	0	32952	32926	
5072	0	32948	32956	
5073	0	32982	32954	
5074	0	33092	32884	
5075	0	32992	33020	
5076	0	33086	32982	
5077	0	32996	32974	
5078	0	32968	32898	
5079	0	32984	32882	
5080	0	32962	32756	
5081	0	32860	32896	
5082	0	32924	32752	
5083	0	32954	32878	
5084	0	32940	32808	
5085	0	32800	32808	
5086	0	32770	32678	
5087	0	32708	32702	
5088	0	32688	32648	
5089	0	32706	32708	
5090	0	32732	32602	
5091	0	32756	32724	
5092	0	32788	32730	
5093	0	32756	32652	
5094	0	32752	32676	
5095	0	32776	32666	
5096	0	32788	32652	
5097	0	32732	32698	
5098	0	32752	32660	
5099	0	32696	32704	
5100	0	32754	32656	
5101	0	32776	32780	
5102	0	32808	32788	
5103	0	32794	32710	
5104	0	32792	32848	
5105	0	32768	32756	
5106	0	32854	32760	
5107	0	32768	32718	
5108	0	32796	32862	
5109	0	32836	32780	
5110	0	32764	32830	
5111	0	32752	32764	
5112	0	32802	32872	
5113	0	32740	32768	
5114	0	32756	32760	
5115	0	32808	32712	
5116	0	32804	32692	
5117	0	32780	32724	
5118	0	32788	32864	
5119	0	32828	32808	
5120	0	32872	32698	
5121	0	32860	32732	
5122	0	32788	32730	
5123	0	32820	32774	
5124	0	32732	32756	
5125	0	32808	32804	
5126	0	32768	32820	
5127	0	32804	32792	
5128	0	32862	32830	
5129	0	32804	32756	
5130	0	32792	32808	
5131	0	32808	32842	
5132	0	32788	32792	
5133	0	32864	32852	
5134	0	32760	32664	
5135	0	32794	32816	
5136	0	32798	32848	
5137	0	32858	32750	
5138	0	32796	32727	
5139	0	32796	32696	
5140	0	32822	32728	
5141	0	32868	32812	
5142	0	32808	32820	
5143	0	32748	32736	
5144	0	32892	32682	
5145	0	32786	32882	
5146	0	32820	32854	
5147	0	32780	32740	
5148	0	32784	32784	
5149	0	32836	32808	
5150	0	32750	32840	
5151	0	32774	32816	
5152	0	32792	32772	
5153	0	32790	32782	
5154	0	32848	32766	
5155	0	32788	32740	
5156	0	32792	32768	
5157	0	32812	32622	
5158	0	32808	32760	
5159	0	32840	32752	
5160	0	32920	32670	
5161	0	32824	32748	
5162	0	32824	32746	
5163	0	32816	32760	
5164	0	32812	32830	
5165	0	32746	32684	
5166	0	32792	32872	
5167	0	32714	32764	
5168	0	32760	32706	
5169	0	32724	32756	
5170	0	32780	32876	
5171	0	32782	32696	
5172	0	32820	32772	
5173	0	32904	32840	
5174	0	32808	32726	
5175	0	32856	32808	
5176	0	32778	32856	
5177	0	32874	32684	
5178	0	32804	32836	
5179	0	32862	32852	
5180	0	32800	32782	
5181	0	32820	32670	
5182	0	32793	32766	
5183	0	32780	32740	
5184	0	32784	32826	
5185	0	32864	32716	
5186	0	32856	32794	
5187	0	32760	32788	
5188	0	32872	32741	
5189	0	32772	32816	
5190	0	32772	32744	
5191	0	32822	32846	
5192	0	32820	32762	
5193	0	32816	32688	
5194	0	32826	32864	
5195	0	32816	32706	
5196	0	32810	32660	
5197	0	32800	32786	
5198	0	32788	32772	
5199	0	32764	32684	
5200	0	32812	32750	
5201	0	32804	32680	
5202	0	32760	32778	
5203	0	32844	32704	
5204	0	32892	32846	
5205	0	32824	32852	
5206	0	32776	32784	
5207	0	32872	32775	
5208	0	32740	32788	
5209	0	32834	32834	
5210	0	32788	32828	
5211	0	32724	32756	
5212	0	32788	32764	
5213	0	32836	32680	
5214	0	32816	32824	
5215	0	32756	32775	
5216	0	32798	32724	
5217	0	32804	32788	
5218	0	32832	32682	
5219	0	32866	32712	
5220	0	32776	32780	
5221	0	32832	32732	
5222	0	32844	32772	
5223	0	32800	32712	
5224	0	32826	32792	
5225	0	32804	32782	
5226	0	32792	32780	
5227	0	32812	32708	
5228	0	32756	32800	
5229	0	32780	32884	
5230	0	32848	32838	
5231	0	32776	32756	
5232	0	32828	32772	
5233	0	32802	32692	
5234	0	32888	32834	
5235	0	32904	32744	
5236	0	32872	32848	
5237	0	32804	32764	
5238	0	32776	32742	
5239	0	32768	32828	
5240	0	32848	32772	
5241	0	32852	32716	
5242	0	32788	32680	
5243	0	32868	32740	
5244	0	32840	32714	
5245	0	32820	32758	
5246	0	32840	32804	
5247	0	32768	32782	
5248	0	32760	32784	
5249	0	32764	32748	
5250	0	32766	32856	
5251	0	32796	32852	
5252	0	32812	32724	
5253	0	32812	32808	
5254	0	32860	32690	
5255	0	32728	32834	
5256	0	32792	32712	
5257	0	32784	32736	
5258	0	32738	32732	
5259	0	32802	32742	
5260	0	32796	32770	
5261	0	32798	32662	
5262	0	32864	32788	
5263	0	32800	32708	
5264	0	32844	32876	
5265	0	32828	32868	
5266	0	32832	32744	
5267	0	32820	32812	
5268	0	32756	32774	
5269	0	32756	32740	
5270	0	32732	32756	
5271	0	32768	32796	
5272	0	32816	32718	
5273	0	32780	32778	
5274	0	32824	32662	
5275	0	32728	32844	
5276	0	32840	32804	
5277	0	32826	32660	
5278	0	32800	32748	
5279	0	32841	32676	
5280	0	32840	32712	
5281	0	32888	32644	
5282	0	32822	32744	
5283	0	32896	32826	
5284	0	32802	32800	
5285	0	32832	32748	
5286	0	32832	32764	
5287	0	32804	32858	
5288	0	32802	32768	
5289	0	32738	32772	
5290	0	32808	32732	
5291	0	32826	32762	
5292	0	32780	32784	
5293	0	32844	32880	
5294	0	32792	32774	
5295	0	32800	32728	
5296	0	32824	32700	
5297	0	32812	32664	
5298	0	32836	32756	
5299	0	32852	32674	
5300	0	32792	32848	
5301	0	32801	32870	
5302	0	32828	32760	
5303	0	32816	32764	
5304	0	32784	32740	
5305	0	32802	32808	
5306	0	32874	32712	
5307	0	32792	32832	
5308	0	32732	32760	
5309	0	32752	32782	
5310	0	32786	32744	
5311	0	32824	32748	
5312	0	32786	32702	
5313	0	32828	32764	
5314	0	32820	32664	
5315	0	32856	32760	
5316	0	32822	32700	
5317	0	32842	32764	
5318	0	32852	32732	
5319	0	32840	32820	
5320	0	32818	32752	
5321	0	32800	32782	
5322	0	32800	32698	
5323	0	32816	32812	
5324	0	32764	32832	
5325	0	32788	32656	
5326	0	32854	32748	
5327	0	32816	32694	
5328	0	32764	32774	
5329	0	32804	32808	
5330	0	32818	32822	
5331	0	32796	32856	
5332	0	32794	32796	
5333	0	32836	32836	
5334	0	32784	32792	
5335	0	32800	32744	
5336	0	32826	32788	
5337	0	32832	32852	
5338	0	32812	32831	
5339	0	32852	32680	
5340	0	32862	32720	
5341	0	32800	32712	
5342	0	32820	32748	
5343	0	32808	32750	
5344	0	32832	32800	
5345	0	32800	32782	
5346	0	32812	32796	
5347	0	32708	32644	
5348	0	32786	32754	
5349	0	32792	32760	
5350	0	32756	32706	
5351	0	32880	32744	
5352	0	32944	32884	
5353	0	32880	32752	
5354	0	32810	32764	
5355	0	32808	32696	
5356	0	32816	32786	
5357	0	32848	32730	
5358	0	32840	32799	
5359	0	32796	32748	
5360	0	32810	32740	
5361	0	32768	32734	
5362	0	32832	32728	
5363	0	32744	32758	
5364	0	32756	32816	
5365	0	32808	32780	
5366	0	32788	32736	
5367	0	32704	32804	
5368	0	32756	32740	
5369	0	32800	32846	
5370	0	32840	32756	
5371	0	32768	32808	
5372	0	32772	32664	
5373	0	32846	32812	
5374	0	32834	32760	
5375	0	32768	32806	
5376	0	32844	32724	
5377	0	32896	32674	
5378	0	32800	32624	
5379	0	32784	32748	
5380	0	32780	32614	
5381	0	32844	32766	
5382	0	32840	32746	
5383	0	32860	32716	
5384	0	32820	32732	
5385	0	32780	32846	
5386	0	32778	32754	
5387	0	32786	32784	
5388	0	32866	32828	
5389	0	32728	32836	
5390	0	32820	32840	
5391	0	32844	32870	
5392	0	32796	32790	
5393	0	32784	32752	
5394	0	32756	32784	
5395	0	32746	32682	
5396	0	32824	32744	
5397	0	32852	32656	
5398	0	32860	32712	
5399	0	32824	32744	
5400	0	32820	32786	
5401	0	32788	32660	
5402	0	32806	32712	
5403	0	32812	32720	
5404	0	32744	32756	
5405	0	32782	32828	
5406	0	32760	32786	
5407	0	32824	32824	
5408	0	32816	32726	
5409	0	32816	32784	
5410	0	32800	32768	
5411	0	32856	32746	
5412	0	32780	32758	
5413	0	32756	32700	
5414	0	32800	32792	
5415	0	32796	32684	
5416	0	32816	32806	
5417	0	32748	32680	
5418	0	32826	32742	
5419	0	32794	32740	
5420	0	32820	32688	
5421	0	32868	32864	
5422	0	32836	32678	
5423	0	32860	32736	
5424	0	32856	32744	
5425	0	32836	32698	
5426	0	32784	32856	
5427	0	32792	32772	
5428	0	32824	32650	
5429	0	32812	32806	
5430	0	32812	32812	
5431	0	32788	32728	
5432	0	32834	32784	
5433	0	32804	32856	
5434	0	32856	32748	
5435	0	32842	32809	
5436	0	32810	32684	
5437	0	32822	32792	
5438	0	32828	32764	
5439	0	32812	32764	
5440	0	32820	32755	
5441	0	32792	32614	
5442	0	32816	32740	
5443	0	32784	32708	
5444	0	32768	32818	
5445	0	32744	32774	
5446	0	32788	32656	
5447	0	32866	32848	
5448	0	32778	32888	
5449	0	32780	32744	
5450	0	32828	32832	
5451	0	32826	32760	
5452	0	32834	32810	
5453	0	32770	32732	
5454	0	32784	32650	
5455	0	32816	32754	
5456	0	32828	32778	
5457	0	32844	32852	
5458	0	32856	32756	
5459	0	32834	32752	
5460	0	32880	32832	
5461	0	32830	32664	
5462	0	32824	32810	
5463	0	32824	32724	
5464	0	32804	32774	
5465	0	32808	32764	
5466	0	32832	32712	
5467	0	32852	32800	
5468	0	32856	32878	
5469	0	32740	32804	
5470	0	32738	32800	
5471	0	32844	32828	
5472	0	32824	32812	
5473	0	32824	32752	
5474	0	32828	32775	
5475	0	32796	32724	
5476	0	32828	32804	
5477	0	32876	32742	
5478	0	32796	32720	
5479	0	32796	32836	
5480	0	32800	32720	
5481	0	32788	32754	
5482	0	32822	32656	
5483	0	32784	32766	
5484	0	32794	32880	
5485	0	32844	32832	
5486	0	32794	32798	
5487	0	32804	32696	
5488	0	32800	32846	
5489	0	32772	32770	
5490	0	32752	32722	
5491	0	32804	32872	
5492	0	32808	32812	
5493	0	32832	32740	
5494	0	32794	32676	
5495	0	32848	32756	
5496	0	32824	32772	
5497	0	32832	32750	
5498	0	32816	32700	
5499	0	32804	32775	
5500	0	32844	32644	
5501	0	32904	32796	
5502	0	32824	32824	
5503	0	32796	32756	
5504	0	32792	32832	
5505	0	32780	32844	
5506	0	32856	32786	
5507	0	32756	32864	
5508	0	32812	32840	
5509	0	32770	32800	
5510	0	32816	32800	
5511	0	32842	32698	
5512	0	32826	32856	
5513	0	32752	32800	
5514	0	32802	32720	
5515	0	32832	32902	
5516	0	32808	32792	
5517	0	32812	32725	
5518	0	32844	32788	
5519	0	32824	32728	
5520	0	32820	32744	
5521	0	32868	32784	
5522	0	32862	32748	
5523	0	32784	32782	
5524	0	32868	32748	
5525	0	32764	32800	
5526	0	32788	32756	
5527	0	32788	32748	
5528	0	32852	32772	
5529	0	32736	32682	
5530	0	32726	32868	
5531	0	32848	32852	
5532	0	32816	32702	
5533	0	32824	32736	
5534	0	32792	32646	
5535	0	32888	32836	
5536	0	32780	32676	
5537	0	32872	32808	
5538	0	32840	32804	
5539	0	32880	32728	
5540	0	32832	32778	
5541	0	32768	32718	
5542	0	32804	32732	
5543	0	32724	32722	
5544	0	32810	32782	
5545	0	32836	32760	
5546	0	32784	32694	
5547	0	32788	32784	
5548	0	32768	32784	
5549	0	32872	32842	
5550	0	32758	32880	
5551	0	32860	32746	
5552	0	32792	32740	
5553	0	32808	32680	
5554	0	32896	32846	
5555	0	32772	32798	
5556	0	32780	32708	
5557	0	32808	32864	
5558	0	32840	32774	
5559	0	32782	32656	
5560	0	32850	32670	
5561	0	32822	32696	
5562	0	32818	32724	
5563	0	32776	32846	
5564	0	32724	32852	
5565	0	32808	32724	
5566	0	32768	32796	
5567	0	32770	32720	
5568	0	32872	32788	
5569	0	32844	32754	
5570	0	32796	32804	
5571	0	32824	32866	
5572	0	32840	32736	
5573	0	32808	32826	
5574	0	32792	32728	
5575	0	32800	32778	
5576	0	32838	32808	
5577	0	32768	32740	
5578	0	32808	32794	
5579	0	32824	32744	
5580	0	32853	32762	
5581	0	32824	32792	
5582	0	32752	32810	
5583	0	32836	32746	
5584	0	32792	32688	
5585	0	32810	32756	
5586	0	32748	32680	
5587	0	32800	32860	
5588	0	32784	32768	
5589	0	32778	32838	
5590	0	32792	32848	
5591	0	32824	32760	
5592	0	32848	32772	
5593	0	32768	32740	
5594	0	32824	32736	
5595	0	32800	32704	
5596	0	32840	32774	
5597	0	32788	32688	
5598	0	32920	32736	
5599	0	32830	32724	
5600	0	32844	32622	
5601	0	32866	32775	
5602	0	32796	32832	
5603	0	32844	32734	
5604	0	32748	32828	
5605	0	32890	32838	
5606	0	32880	32748	
5607	0	32904	32812	
5608	0	32812	32748	
5609	0	32732	32888	
5610	0	32816	32824	
5611	0	32764	32730	
5612	0	32900	32698	
5613	0	32884	32754	
5614	0	32848	32828	
5615	0	32762	32864	
5616	0	32756	32672	
5617	0	32810	32826	
5618	0	32824	32716	
5619	0	32740	32790	
5620	0	32816	32788	
5621	0	32892	32764	
5622	0	32832	32764	
5623	0	32856	32726	
5624	0	32770	32744	
5625	0	32692	32726	
5626	0	32824	32774	
5627	0	32812	32775	
5628	0	32828	32788	
5629	0	32756	32770	
5630	0	32776	32796	
5631	0	32792	32820	
5632	0	32848	32712	
5633	0	32904	32720	
5634	0	32836	32720	
5635	0	32832	32740	
5636	0	32808	32678	
5637	0	32762	32740	
5638	0	32828	32730	
5639	0	32884	32720	
5640	0	32814	32760	
5641	0	32836	32648	
5642	0	32820	32796	
5643	0	32792	32760	
5644	0	32872	32660	
5645	0	32856	32768	
5646	0	32786	32792	
5647	0	32840	32768	
5648	0	32820	32808	
5649	0	32824	32866	
5650	0	32836	32752	
5651	0	32816	32876	
5652	0	32784	32804	
5653	0	32760	32848	
5654	0	32756	32786	
5655	0	32872	32792	
5656	0	32868	32754	
5657	0	32768	32612	
5658	0	32804	32780	
5659	0	32844	32678	
5660	0	32840	32764	
5661	0	32844	32764	
5662	0	32792	32756	
5663	0	32784	32844	
5664	0	32824	32800	
5665	0	32764	32842	
5666	0	32832	32738	
5667	0	32848	32808	
5668	0	32860	32824	
5669	0	32778	32784	
5670	0	32768	32824	
5671	0	32800	32728	
5672	0	32774	32834	
5673	0	32880	32864	
5674	0	32736	32816	
5675	0	32816	32791	
5676	0	32888	32706	
5677	0	32768	32870	
5678	0	32808	32770	
5679	0	32896	32816	
5680	0	32790	32774	
5681	0	32876	32664	
5682	0	32804	32808	
5683	0	32834	32788	
5684	0	32804	32744	
5685	0	32794	32770	
5686	0	32772	32688	
5687	0	32766	32812	
5688	0	32738	32748	
5689	0	32856	32852	
5690	0	32816	32840	
5691	0	32804	32700	
5692	0	32760	32840	
5693	0	32852	32706	
5694	0	32824	32808	
5695	0	32884	32816	
5696	0	32848	32706	
5697	0	32792	32780	
5698	0	32752	32800	
5699	0	32860	32728	
5700	0	32858	32676	
5701	0	32756	32660	
5702	0	32772	32756	
5703	0	32796	32728	
5704	0	32812	32844	
5705	0	32778	32800	
5706	0	32754	32784	
5707	0	32780	32804	
5708	0	32808	32722	
5709	0	32756	32792	
5710	0	32828	32774	
5711	0	32848	32730	
5712	0	32860	32808	
5713	0	32812	32748	
5714	0	32836	32774	
5715	0	32796	32742	
5716	0	32834	32724	
5717	0	32894	32744	
5718	0	32788	32674	
5719	0	32768	32820	
5720	0	32780	32815	
5721	0	32824	32716	
5722	0	32796	32758	
5723	0	32764	32684	
5724	0	32800	32892	
5725	0	32796	32808	
5726	0	32796	32732	
5727	0	32844	32760	
5728	0	32772	32720	
5729	0	32844	32810	
5730	0	32824	32828	
5731	0	32800	32852	
5732	0	32794	32830	
5733	0	32838	32704	
5734	0	32876	32792	
5735	0	32828	32657	
5736	0	32844	32820	
5737	0	32804	32794	
5738	0	32872	32622	
5739	0	32888	32736	
5740	0	32784	32706	
5741	0	32866	32764	
5742	0	32768	32740	
5743	0	32768	32664	
5744	0	32858	32818	
5745	0	32832	32744	
5746	0	32828	32872	
5747	0	32772	32894	
5748	0	32810	32746	
5749	0	32824	32828	
5750	0	32776	32740	
5751	0	32856	32844	
5752	0	32836	32708	
5753	0	32810	32840	
5754	0	32816	32688	
5755	0	32840	32798	
5756	0	32754	32828	
5757	0	32816	32760	
5758	0	32800	32764	
5759	0	32802	32680	
5760	0	32840	32792	
5761	0	32798	32688	
5762	0	32874	32700	
5763	0	32864	32734	
5764	0	32798	32784	
5765	0	32796	32804	
5766	0	32856	32726	
5767	0	32760	32820	
5768	0	32764	32692	
5769	0	32780	32854	
5770	0	32764	32856	
5771	0	32768	32796	
5772	0	32800	32761	
5773	0	32840	32716	
5774	0	32816	32784	
5775	0	32794	32816	
5776	0	32768	32616	
5777	0	32868	32775	
5778	0	32784	32852	
5779	0	32820	32712	
5780	0	32818	32720	
5781	0	32826	32796	
5782	0	32792	32724	
5783	0	32800	32776	
5784	0	32800	32680	
5785	0	32816	32862	
5786	0	32754	32720	
5787	0	32844	32686	
5788	0	32816	32860	
5789	0	32824	32748	
5790	0	32878	32748	
5791	0	32794	32776	
5792	0	32792	32794	
5793	0	32760	32852	
5794	0	32776	32740	
5795	0	32796	32680	
5796	0	32876	32812	
5797	0	32824	32762	
5798	0	32832	32668	
5799	0	32812	32704	
5800	0	32848	32830	
5801	0	32756	32652	
5802	0	32824	32808	
5803	0	32782	32724	
5804	0	32848	32778	
5805	0	32776	32750	
5806	0	32844	32716	
5807	0	32800	32854	
5808	0	32832	32828	
5809	0	32832	32752	
5810	0	32836	32806	
5811	0	32800	32832	
5812	0	32724	32818	
5813	0	32780	32804	
5814	0	32792	32824	
5815	0	32756	32740	
5816	0	32852	32692	
5817	0	32928	32816	
5818	0	32790	32816	
5819	0	32864	32688	
5820	0	32812	32788	
5821	0	32784	32674	
5822	0	32800	32788	
5823	0	32840	32828	
5824	0	32808	32698	
5825	0	32752	32774	
5826	0	32872	32836	
5827	0	32834	32774	
5828	0	32756	32752	
5829	0	32808	32750	
5830	0	32756	32836	
5831	0	32812	32788	
5832	0	32800	32752	
5833	0	32856	32794	
5834	0	32824	32698	
5835	0	32768	32762	
5836	0	32810	32820	
5837	0	32826	32684	
5838	0	32824	32732	
5839	0	32872	32732	
5840	0	32780	32812	
5841	0	32848	32618	
5842	0	32880	32858	
5843	0	32808	32712	
5844	0	32834	32714	
5845	0	32868	32800	
5846	0	32812	32818	
5847	0	32780	32782	
5848	0	32824	32820	
5849	0	32820	32798	
5850	0	32696	32774	
5851	0	32772	32752	
5852	0	32764	32668	
5853	0	32780	32800	
5854	0	32754	32744	
5855	0	32724	32582	
5856	0	32670	32646	
5857	0	32716	32584	
5858	0	32720	32746	
5859	0	32644	32690	
5860	0	32804	32576	
5861	0	32714	32672	
5862	0	32672	32604	
5863	0	32692	32640	
5864	0	32792	32612	
5865	0	32648	32708	
5866	0	32706	32692	
5867	0	32780	32792	
5868	0	32744	32740	
5869	0	32818	32934	
5870	0	32786	32848	
5871	0	32800	32836	
5872	0	32840	32896	
5873	0	32932	32692	
5874	0	32880	32806	
5875	0	32816	32740	
5876	0	32832	32814	
5877	0	32852	32720	
5878	0	32900	32876	
5879	0	32972	32996	
5880	0	33004	32920	
5881	0	32978	32856	
5882	0	33000	32966	
5883	0	33048	32984	
5884	0	33012	32960	
5885	0	32984	32888	
5886	0	32900	32856	
5887	0	32922	32864	
5888	0	32934	33004	
5889	0	32932	32935	
5890	0	32944	32832	
5891	0	32912	32772	
5892	0	32888	32758	
5893	0	32740	32778	
5894	0	32752	32742	
5895	0	32716	32578	
5896	0	32696	32642	
5897	0	32696	32480	
5898	0	32730	32652	
5899	0	32740	32604	
5900	0	32778	32656	
5901	0	32822	32644	
5902	0	32710	32660	
5903	0	32744	32678	
5904	0	32788	32618	
5905	0	32728	32840	
5906	0	32820	32858	
5907	0	32826	32758	
5908	0	32756	32775	
5909	0	32768	32768	
5910	0	32796	32916	
5911	0	32760	32836	
5912	0	32784	32716	
5913	0	32782	32780	
5914	0	32808	32672	
5915	0	32800	32842	
5916	0	32872	32820	
5917	0	32788	32672	
5918	0	32876	32814	
5919	0	32830	32684	
5920	0	32764	32712	
5921	0	32772	32660	
5922	0	32788	32764	
5923	0	32842	32676	
5924	0	32852	32856	
5925	0	32724	32904	
5926	0	32798	32784	
5927	0	32784	32772	
5928	0	32768	32720	
5929	0	32784	32808	
5930	0	32828	32756	
5931	0	32776	32652	
5932	0	32796	32904	
5933	0	32800	32732	
5934	0	32836	32800	
5935	0	32800	32750	
5936	0	32806	32768	
5937	0	32890	32776	
5938	0	32808	32672	
5939	0	32762	32804	
5940	0	32836	32794	
5941	0	32824	32692	
5942	0	32776	32704	
5943	0	32772	32700	
5944	0	32790	32724	
5945	0	32792	32800	
5946	0	32830	32850	
5947	0	32808	32800	
5948	0	32848	32888	
5949	0	32728	32860	
5950	0	32764	32740	
5951	0	32800	32744	
5952	0	32852	32775	
5953	0	32864	32808	
5954	0	32742	32736	
5955	0	32880	32716	
5956	0	32792	32816	
5957	0	32812	32730	
5958	0	32836	32748	
5959	0	32896	32662	
5960	0	32816	32754	
5961	0	32750	32644	
5962	0	32774	32808	
5963	0	32812	32800	
5964	0	32784	32748	
5965	0	32884	32812	
5966	0	32786	32850	
5967	0	32728	32748	
5968	0	32712	32852	
5969	0	32800	32844	
5970	0	32800	32775	
5971	0	32774	32748	
5972	0	32784	32718	
5973	0	32786	32862	
5974	0	32828	32768	
5975	0	32896	32728	
5976	0	32840	32736	
5977	0	32852	32732	
5978	0	32800	32728	
5979	0	32876	32728	
5980	0	32826	32640	
5981	0	32780	32786	
5982	0	32776	32636	
5983	0	32816	32828	
5984	0	32754	32800	
5985	0	32796	32732	
5986	0	32796	32856	
5987	0	32768	32900	
5988	0	32800	32689	
5989	0	32762	32816	
5990	0	32808	32808	
5991	0	32844	32746	
5992	0	32816	32820	
5993	0	32796	32714	
5994	0	32786	32782	
5995	0	32824	32812	
5996	0	32848	32686	
5997	0	32880	32748	
5998	0	32884	32760	
5999	0	32800	32826	
6000	0	32754	32774	
6001	0	32868	32634	
6002	0	32852	32782	
6003	0	32810	32768	
6004	0	32748	32692	
6005	0	32808	32726	
6006	0	32824	32720	
6007	0	32792	32938	
6008	0	32808	32818	
6009	0	32708	32740	
6010	0	32780	32800	
6011	0	32798	32710	
6012	0	32836	32756	
