# OpenSignals Text File Format. Version 1
# {"00:07:80:8C:0A:39": {"position": 0, "device": "biosignalsplux", "device name": "00:07:80:8C:0A:39", "device connection": "BTH00:07:80:8C:0A:39", "sampling rate": 1000, "resolution": [16, 16], "firmware version": 776, "comments": "", "keywords": "", "mode": 0, "sync interval": 2, "date": "2023-3-17", "time": "14:38:23.927", "channels": [1, 2], "sensor": ["EMG", "EMG"], "label": ["CH1", "CH2"], "column": ["nSeq", "DI", "CH1", "CH2"], "special": [{"SpO2": [80, 40, 5, 4, 3, 3]}, {"SpO2": [80, 40, 5, 4, 3, 3]}, {"SpO2": [80, 40, 5, 4, 3, 3]}, {"SpO2": [80, 40, 5, 4, 3, 3]}, {"SpO2": [80, 40, 5, 4, 3, 3]}, {"SpO2": [80, 40, 5, 4, 3, 3]}, {"SpO2": [80, 40, 5, 4, 3, 3]}, {"SpO2": [80, 40, 5, 4, 3, 3]}], "digital IO": [0, 1], "sleeve color": ["gray", "yellow"], "convertedValues": 0}}
# EndOfHeader
0	0	32910	32828	
1	0	32798	32830	
2	0	32734	32743	
3	0	32775	32798	
4	0	32804	32838	
5	0	32816	32770	
6	0	32810	32852	
7	0	32816	32826	
8	0	32820	32788	
9	0	32780	32772	
10	0	32796	32696	
11	0	32806	32796	
12	0	32816	32799	
13	0	32836	32750	
14	0	32764	32756	
15	0	32800	32784	
16	0	32826	32672	
17	0	32828	32838	
18	0	32844	32834	
19	0	32740	32742	
20	0	32848	32836	
21	0	32894	32808	
22	0	32908	32788	
23	0	32876	32804	
24	0	32804	32825	
25	0	32852	32916	
26	0	32860	32775	
27	0	32844	32894	
28	0	32922	32958	
29	0	32854	32788	
30	0	32874	32744	
31	0	32792	32647	
32	0	32692	32650	
33	0	32692	32490	
34	0	32644	32483	
35	0	32638	32548	
36	0	32600	32382	
37	0	32640	32332	
38	0	32609	32462	
39	0	32668	32476	
40	0	32732	32574	
41	0	32732	32646	
42	0	32760	32769	
43	0	32816	32855	
44	0	32800	32770	
45	0	32852	32832	
46	0	32812	32892	
47	0	32844	32754	
48	0	32860	32960	
49	0	32858	32858	
50	0	32928	33026	
51	0	32896	32948	
52	0	32868	32916	
53	0	32908	32960	
54	0	32916	32790	
55	0	32860	32884	
56	0	32932	32849	
57	0	32852	32866	
58	0	32836	32724	
59	0	32878	32796	
60	0	32860	32839	
61	0	32878	32766	
62	0	32832	32842	
63	0	32860	32923	
64	0	32886	32847	
65	0	32772	32775	
66	0	32842	32744	
67	0	32804	32810	
68	0	32775	32808	
69	0	32784	32774	
70	0	32820	32661	
71	0	32758	32639	
72	0	32768	32796	
73	0	32808	32775	
74	0	32816	32759	
75	0	32756	32815	
76	0	32800	32722	
77	0	32868	32732	
78	0	32836	32871	
79	0	32846	32844	
80	0	32850	32800	
81	0	32850	32824	
82	0	32844	32676	
83	0	32816	32790	
84	0	32820	32732	
85	0	32862	32814	
86	0	32792	32736	
87	0	32746	32647	
88	0	32744	32863	
89	0	32744	32766	
90	0	32874	32760	
91	0	32812	32766	
92	0	32864	32678	
93	0	32934	32808	
94	0	32762	32799	
95	0	32780	32867	
96	0	32775	32736	
97	0	32792	32828	
98	0	32820	32793	
99	0	32864	32858	
100	0	32870	32796	
101	0	32804	32706	
102	0	32808	32806	
103	0	32818	32775	
104	0	32804	32852	
105	0	32804	32676	
106	0	32836	32718	
107	0	32876	32732	
108	0	32828	32818	
109	0	32760	32792	
110	0	32818	32678	
111	0	32732	32810	
112	0	32810	32767	
113	0	32874	32734	
114	0	32804	32836	
115	0	32812	32700	
116	0	32884	32766	
117	0	32816	32828	
118	0	32788	32724	
119	0	32808	32830	
120	0	32776	32716	
121	0	32812	32844	
122	0	32750	32696	
123	0	32796	32748	
124	0	32746	32684	
125	0	32812	32692	
126	0	32724	32768	
127	0	32860	32798	
128	0	32834	32699	
129	0	32788	32645	
130	0	32850	32874	
131	0	32814	32796	
132	0	32774	32853	
133	0	32868	32720	
134	0	32904	32768	
135	0	32780	32714	
136	0	32814	32775	
137	0	32866	32753	
138	0	32788	32975	
139	0	32812	32801	
140	0	32780	32836	
141	0	32800	32756	
142	0	32808	32676	
143	0	32818	32808	
144	0	32784	32775	
145	0	32765	32768	
146	0	32808	32865	
147	0	32796	32701	
148	0	32864	32882	
149	0	32812	32806	
150	0	32814	32790	
151	0	32828	32623	
152	0	32812	32846	
153	0	32778	32814	
154	0	32862	32667	
155	0	32856	32836	
156	0	32794	32796	
157	0	32864	32772	
158	0	32900	32742	
159	0	32816	32784	
160	0	32886	32746	
161	0	32828	32912	
162	0	32688	32798	
163	0	32708	32716	
164	0	32748	32747	
165	0	32838	32774	
166	0	32788	32722	
167	0	32832	32711	
168	0	32740	32718	
169	0	32704	32647	
170	0	32842	32754	
171	0	32836	32780	
172	0	32772	32722	
173	0	32778	32838	
174	0	32828	32812	
175	0	32834	32708	
176	0	32812	32791	
177	0	32836	32812	
178	0	32844	32775	
179	0	32805	32824	
180	0	32828	32823	
181	0	32796	32716	
182	0	32808	32802	
183	0	32816	32852	
184	0	32864	32699	
185	0	32788	32714	
186	0	32832	32762	
187	0	32808	32767	
188	0	32825	32754	
189	0	32836	32682	
190	0	32800	32847	
191	0	32881	32826	
192	0	32788	32732	
193	0	32732	32822	
194	0	32742	32732	
195	0	32770	32724	
196	0	32750	32784	
197	0	32836	32759	
198	0	32804	32791	
199	0	32885	32714	
200	0	32876	32746	
201	0	32834	32838	
202	0	32828	32738	
203	0	32840	32786	
204	0	32836	32748	
205	0	32800	32870	
206	0	32725	32724	
207	0	32836	32748	
208	0	32844	32646	
209	0	32868	32743	
210	0	32784	32836	
211	0	32803	32838	
212	0	32778	32754	
213	0	32788	32806	
214	0	32828	32812	
215	0	32848	32696	
216	0	32848	32788	
217	0	32812	32828	
218	0	32740	32702	
219	0	32881	32775	
220	0	32804	32690	
221	0	32858	32748	
222	0	32884	32724	
223	0	32848	32772	
224	0	32844	32726	
225	0	32772	32788	
226	0	32838	32752	
227	0	32796	32754	
228	0	32788	32710	
229	0	32804	32667	
230	0	32812	32775	
231	0	32802	32804	
232	0	32728	32783	
233	0	32778	32702	
234	0	32848	32844	
235	0	32904	32724	
236	0	32828	32726	
237	0	32792	32708	
238	0	32790	32814	
239	0	32824	32812	
240	0	32835	32824	
241	0	32784	32710	
242	0	32794	32809	
243	0	32828	32740	
244	0	32804	32866	
245	0	32850	32732	
246	0	32836	32775	
247	0	32792	32725	
248	0	32780	32802	
249	0	32784	32775	
250	0	32760	32632	
251	0	32746	32714	
252	0	32786	32863	
253	0	32776	32838	
254	0	32804	32732	
255	0	32828	32810	
256	0	32794	32735	
257	0	32852	32806	
258	0	32908	32870	
259	0	32900	32730	
260	0	32860	32768	
261	0	32814	32757	
262	0	32812	32658	
263	0	32768	32678	
264	0	32808	32791	
265	0	32796	32775	
266	0	32790	32604	
267	0	32706	32706	
268	0	32800	32836	
269	0	32736	32818	
270	0	32878	32788	
271	0	32802	32718	
272	0	32854	32872	
273	0	32840	32724	
274	0	32782	32824	
275	0	32828	32818	
276	0	32840	32727	
277	0	32816	32720	
278	0	32840	32830	
279	0	32768	32711	
280	0	32744	32796	
281	0	32856	32604	
282	0	32868	32812	
283	0	32830	32694	
284	0	32812	32812	
285	0	32794	32686	
286	0	32788	32868	
287	0	32758	32820	
288	0	32836	32698	
289	0	32800	32792	
290	0	32720	32796	
291	0	32766	32732	
292	0	32778	32902	
293	0	32820	32774	
294	0	32804	32775	
295	0	32838	32664	
296	0	32788	32856	
297	0	32820	32760	
298	0	32800	32772	
299	0	32874	32743	
300	0	32842	32775	
301	0	32816	32839	
302	0	32828	32666	
303	0	32840	32807	
304	0	32800	32817	
305	0	32836	32764	
306	0	32876	32686	
307	0	32820	32894	
308	0	32792	32808	
309	0	32806	32715	
310	0	32892	32658	
311	0	32812	32774	
312	0	32732	32796	
313	0	32780	32790	
314	0	32812	32768	
315	0	32778	32762	
316	0	32794	32732	
317	0	32888	32860	
318	0	32824	32800	
319	0	32884	32720	
320	0	32804	32724	
321	0	32782	32843	
322	0	32746	32736	
323	0	32776	32726	
324	0	32880	32690	
325	0	32786	32922	
326	0	32870	32774	
327	0	32748	32828	
328	0	32824	32670	
329	0	32892	32910	
330	0	32816	32774	
331	0	32852	32759	
332	0	32806	32756	
333	0	32808	32762	
334	0	32792	32816	
335	0	32824	32758	
336	0	32752	32736	
337	0	32850	32772	
338	0	32794	32838	
339	0	32840	32804	
340	0	32848	32674	
341	0	32828	32806	
342	0	32836	32719	
343	0	32784	32766	
344	0	32792	32720	
345	0	32868	32794	
346	0	32830	32732	
347	0	32798	32764	
348	0	32858	32743	
349	0	32856	32684	
350	0	32740	32724	
351	0	32798	32740	
352	0	32864	32702	
353	0	32826	32722	
354	0	32798	32722	
355	0	32724	32784	
356	0	32836	32740	
357	0	32800	32794	
358	0	32784	32807	
359	0	32768	32804	
360	0	32804	32775	
361	0	32844	32716	
362	0	32816	32799	
363	0	32818	32760	
364	0	32836	32808	
365	0	32820	32808	
366	0	32812	32740	
367	0	32828	32752	
368	0	32872	32752	
369	0	32764	32720	
370	0	32776	32652	
371	0	32730	32772	
372	0	32768	32772	
373	0	32822	32725	
374	0	32744	32664	
375	0	32810	32746	
376	0	32824	32844	
377	0	32816	32828	
378	0	32844	32727	
379	0	32860	32839	
380	0	32814	32814	
381	0	32904	32920	
382	0	32748	32736	
383	0	32792	32721	
384	0	32808	32774	
385	0	32846	32810	
386	0	32800	32878	
387	0	32812	32663	
388	0	32814	32775	
389	0	32842	32840	
390	0	32740	32814	
391	0	32826	32692	
392	0	32794	32684	
393	0	32844	32810	
394	0	32846	32766	
395	0	32840	32740	
396	0	32808	32806	
397	0	32816	32790	
398	0	32858	32761	
399	0	32784	32818	
400	0	32804	32766	
401	0	32824	32788	
402	0	32820	32692	
403	0	32794	32775	
404	0	32796	32775	
405	0	32832	32810	
406	0	32740	32641	
407	0	32816	32760	
408	0	32808	32818	
409	0	32784	32732	
410	0	32744	32818	
411	0	32856	32678	
412	0	32844	32775	
413	0	32866	32820	
414	0	32766	32724	
415	0	32832	32775	
416	0	32802	32695	
417	0	32836	32704	
418	0	32808	32847	
419	0	32806	32796	
420	0	32834	32759	
421	0	32864	32696	
422	0	32792	32775	
423	0	32780	32716	
424	0	32844	32806	
425	0	32812	32703	
426	0	32832	32655	
427	0	32868	32684	
428	0	32870	32812	
429	0	32780	32814	
430	0	32816	32737	
431	0	32816	32896	
432	0	32872	32807	
433	0	32804	32828	
434	0	32810	32695	
435	0	32838	32622	
436	0	32828	32903	
437	0	32802	32774	
438	0	32876	32788	
439	0	32830	32702	
440	0	32814	32742	
441	0	32768	32775	
442	0	32784	32798	
443	0	32808	32690	
444	0	32734	32796	
445	0	32784	32853	
446	0	32854	32820	
447	0	32780	32747	
448	0	32788	32800	
449	0	32784	32838	
450	0	32776	32686	
451	0	32824	32805	
452	0	32780	32842	
453	0	32792	32686	
454	0	32832	32790	
455	0	32836	32754	
456	0	32828	32804	
457	0	32798	32762	
458	0	32752	32789	
459	0	32820	32836	
460	0	32812	32794	
461	0	32844	32775	
462	0	32852	32728	
463	0	32770	32764	
464	0	32812	32660	
465	0	32880	32812	
466	0	32804	32740	
467	0	32852	32762	
468	0	32840	32692	
469	0	32780	32800	
470	0	32776	32820	
471	0	32764	32671	
472	0	32824	32802	
473	0	32812	32720	
474	0	32792	32828	
475	0	32796	32748	
476	0	32844	32764	
477	0	32864	32897	
478	0	32780	32751	
479	0	32852	32744	
480	0	32814	32756	
481	0	32802	32788	
482	0	32792	32734	
483	0	32842	32704	
484	0	32820	32694	
485	0	32836	32698	
486	0	32834	32768	
487	0	32798	32756	
488	0	32864	32714	
489	0	32866	32775	
490	0	32866	32775	
491	0	32810	32672	
492	0	32778	32839	
493	0	32816	32756	
494	0	32798	32814	
495	0	32730	32732	
496	0	32802	32838	
497	0	32860	32750	
498	0	32840	32740	
499	0	32804	32810	
500	0	32772	32807	
501	0	32868	32734	
502	0	32854	32828	
503	0	32902	32786	
504	0	32832	32826	
505	0	32766	32760	
506	0	32778	32706	
507	0	32824	32694	
508	0	32820	32764	
509	0	32784	32660	
510	0	32780	32870	
511	0	32788	32818	
512	0	32764	32775	
513	0	32760	32708	
514	0	32782	32810	
515	0	32860	32768	
516	0	32820	32814	
517	0	32868	32628	
518	0	32824	32751	
519	0	32784	32775	
520	0	32820	32887	
521	0	32796	32727	
522	0	32836	32838	
523	0	32776	32839	
524	0	32840	32652	
525	0	32844	32730	
526	0	32892	32759	
527	0	32784	32686	
528	0	32788	32804	
529	0	32834	32864	
530	0	32876	32775	
531	0	32832	32704	
532	0	32814	32750	
533	0	32732	32788	
534	0	32812	32674	
535	0	32793	32788	
536	0	32800	32868	
537	0	32832	32791	
538	0	32874	32753	
539	0	32848	32743	
540	0	32798	32852	
541	0	32874	32710	
542	0	32834	32798	
543	0	32778	32820	
544	0	32876	32708	
545	0	32884	32807	
546	0	32796	32820	
547	0	32892	32732	
548	0	32828	32718	
549	0	32740	32766	
550	0	32805	32742	
551	0	32784	32724	
552	0	32818	32730	
553	0	32816	32807	
554	0	32764	32744	
555	0	32812	32736	
556	0	32818	32770	
557	0	32808	32863	
558	0	32892	32656	
559	0	32792	32794	
560	0	32794	32755	
561	0	32804	32616	
562	0	32821	32774	
563	0	32808	32794	
564	0	32856	32668	
565	0	32814	32724	
566	0	32824	32775	
567	0	32820	32790	
568	0	32836	32708	
569	0	32852	32766	
570	0	32880	32799	
571	0	32772	32684	
572	0	32822	32839	
573	0	32792	32766	
574	0	32806	32775	
575	0	32842	32774	
576	0	32796	32814	
577	0	32788	32844	
578	0	32816	32772	
579	0	32806	32822	
580	0	32746	32647	
581	0	32760	32759	
582	0	32800	32775	
583	0	32784	32727	
584	0	32804	32742	
585	0	32808	32796	
586	0	32800	32726	
587	0	32800	32738	
588	0	32824	32844	
589	0	32816	32700	
590	0	32780	32728	
591	0	32768	32775	
592	0	32794	32822	
593	0	32788	32735	
594	0	32774	32756	
595	0	32826	32716	
596	0	32828	32724	
597	0	32792	32760	
598	0	32848	32794	
599	0	32876	32702	
600	0	32836	32791	
601	0	32828	32820	
602	0	32816	32824	
603	0	32820	32660	
604	0	32860	32696	
605	0	32798	32770	
606	0	32852	32810	
607	0	32758	32812	
608	0	32848	32750	
609	0	32884	32792	
610	0	32852	32774	
611	0	32744	32879	
612	0	32836	32744	
613	0	32840	32788	
614	0	32849	32790	
615	0	32858	32862	
616	0	32824	32772	
617	0	32802	32872	
618	0	32794	32762	
619	0	32836	32711	
620	0	32848	32720	
621	0	32788	32800	
622	0	32764	32730	
623	0	32804	32775	
624	0	32788	32718	
625	0	32836	32804	
626	0	32824	32772	
627	0	32768	32716	
628	0	32854	32722	
629	0	32768	32827	
630	0	32784	32743	
631	0	32828	32684	
632	0	32808	32758	
633	0	32836	32766	
634	0	32828	32674	
635	0	32800	32772	
636	0	32855	32830	
637	0	32808	32734	
638	0	32812	32954	
639	0	32796	32730	
640	0	32796	32775	
641	0	32798	32760	
642	0	32806	32839	
643	0	32760	32738	
644	0	32774	32666	
645	0	32780	32736	
646	0	32864	32806	
647	0	32828	32775	
648	0	32820	32711	
649	0	32844	32641	
650	0	32848	32796	
651	0	32844	32766	
652	0	32810	32724	
653	0	32752	32710	
654	0	32802	32834	
655	0	32798	32732	
656	0	32764	32728	
657	0	32796	32706	
658	0	32766	32828	
659	0	32738	32716	
660	0	32820	32780	
661	0	32824	32743	
662	0	32848	32836	
663	0	32818	32696	
664	0	32798	32774	
665	0	32920	32696	
666	0	32808	32748	
667	0	32820	32804	
668	0	32756	32766	
669	0	32782	32818	
670	0	32832	32723	
671	0	32801	32853	
672	0	32800	32730	
673	0	32830	32808	
674	0	32884	32726	
675	0	32842	32716	
676	0	32772	32815	
677	0	32792	32775	
678	0	32788	32738	
679	0	32800	32730	
680	0	32816	32839	
681	0	32832	32822	
682	0	32802	32676	
683	0	32818	32712	
684	0	32868	32826	
685	0	32786	32770	
686	0	32800	32764	
687	0	32848	32775	
688	0	32872	32775	
689	0	32768	32758	
690	0	32820	32808	
691	0	32832	32768	
692	0	32846	32833	
693	0	32816	32788	
694	0	32796	32808	
695	0	32828	32814	
696	0	32806	32919	
697	0	32852	32788	
698	0	32900	32913	
699	0	32897	32818	
700	0	32922	32882	
701	0	32868	32860	
702	0	32876	32884	
703	0	32876	32820	
704	0	32816	32916	
705	0	32776	32721	
706	0	32840	32704	
707	0	32736	32582	
708	0	32622	32604	
709	0	32616	32494	
710	0	32660	32576	
711	0	32688	32426	
712	0	32578	32300	
713	0	32582	32432	
714	0	32596	32558	
715	0	32640	32583	
716	0	32796	32660	
717	0	32796	32752	
718	0	32798	32814	
719	0	32924	32863	
720	0	32904	32810	
721	0	32820	32900	
722	0	32846	32775	
723	0	32906	32924	
724	0	32888	32788	
725	0	32868	33022	
726	0	32904	32942	
727	0	32940	33044	
728	0	32884	32884	
729	0	32940	32852	
730	0	32932	32860	
731	0	32826	32910	
732	0	32810	32809	
733	0	32868	32828	
734	0	32824	32912	
735	0	32840	32816	
736	0	32892	32810	
737	0	32916	32848	
738	0	32868	32774	
739	0	32812	32770	
740	0	32816	32919	
741	0	32732	32751	
742	0	32836	32728	
743	0	32800	32712	
744	0	32748	32752	
745	0	32756	32758	
746	0	32768	32626	
747	0	32716	32678	
748	0	32798	32774	
749	0	32792	32775	
750	0	32798	32746	
751	0	32808	32679	
752	0	32794	32794	
753	0	32778	32704	
754	0	32830	32740	
755	0	32750	32712	
756	0	32818	32812	
757	0	32856	32798	
758	0	32816	32749	
759	0	32824	32690	
760	0	32714	32796	
761	0	32808	32855	
762	0	32794	32748	
763	0	32801	32783	
764	0	32740	32822	
765	0	32792	32722	
766	0	32834	32704	
767	0	32854	32714	
768	0	32810	32744	
769	0	32804	32678	
770	0	32828	32899	
771	0	32812	32858	
772	0	32764	32743	
773	0	32759	32696	
774	0	32808	32834	
775	0	32788	32706	
776	0	32872	32852	
777	0	32824	32750	
778	0	32814	32720	
779	0	32808	32744	
780	0	32802	32760	
781	0	32824	32699	
782	0	32834	32775	
783	0	32822	32784	
784	0	32804	32702	
785	0	32784	32711	
786	0	32782	32775	
787	0	32840	32804	
788	0	32824	32740	
789	0	32746	32748	
790	0	32834	32668	
791	0	32804	32799	
792	0	32872	32770	
793	0	32840	32846	
794	0	32722	32847	
795	0	32804	32759	
796	0	32840	32638	
797	0	32794	32814	
798	0	32844	32788	
799	0	32772	32804	
800	0	32826	32746	
801	0	32758	32864	
802	0	32808	32838	
803	0	32778	32784	
804	0	32782	32866	
805	0	32806	32768	
806	0	32804	32823	
807	0	32792	32752	
808	0	32802	32804	
809	0	32824	32764	
810	0	32823	32804	
811	0	32804	32660	
812	0	32832	32806	
813	0	32816	32731	
814	0	32780	32760	
815	0	32832	32673	
816	0	32816	32748	
817	0	32838	32922	
818	0	32864	32790	
819	0	32788	32748	
820	0	32814	32734	
821	0	32848	32674	
822	0	32798	32772	
823	0	32812	32768	
824	0	32856	32795	
825	0	32872	32647	
826	0	32816	32775	
827	0	32800	32804	
828	0	32852	32766	
829	0	32800	32792	
830	0	32796	32720	
831	0	32806	32830	
832	0	32808	32839	
833	0	32760	32773	
834	0	32766	32698	
835	0	32816	32720	
836	0	32842	32814	
837	0	32848	32807	
838	0	32808	32727	
839	0	32872	32807	
840	0	32804	32762	
841	0	32800	32772	
842	0	32744	32826	
843	0	32820	32716	
844	0	32820	32752	
845	0	32804	32727	
846	0	32792	32752	
847	0	32824	32715	
848	0	32868	32852	
849	0	32840	32718	
850	0	32834	32768	
851	0	32824	32720	
852	0	32816	32740	
853	0	32836	32775	
854	0	32762	32728	
855	0	32792	32716	
856	0	32836	32894	
857	0	32796	32790	
858	0	32868	32814	
859	0	32836	32700	
860	0	32834	32844	
861	0	32834	32802	
862	0	32768	32797	
863	0	32788	32746	
864	0	32776	32692	
865	0	32804	32708	
866	0	32808	32775	
867	0	32850	32855	
868	0	32836	32798	
869	0	32848	32662	
870	0	32794	32764	
871	0	32880	32754	
872	0	32824	32768	
873	0	32800	32662	
874	0	32784	32903	
875	0	32828	32772	
876	0	32830	32842	
877	0	32798	32820	
878	0	32738	32825	
879	0	32873	32788	
880	0	32852	32736	
881	0	32816	32624	
882	0	32778	32818	
883	0	32804	32775	
884	0	32776	32751	
885	0	32792	32807	
886	0	32816	32720	
887	0	32762	32816	
888	0	32800	32652	
889	0	32804	32788	
890	0	32756	32698	
891	0	32752	32794	
892	0	32834	32738	
893	0	32808	32767	
894	0	32758	32757	
895	0	32756	32730	
896	0	32792	32814	
897	0	32816	32822	
898	0	32856	32788	
899	0	32884	32740	
900	0	32848	32775	
901	0	32800	32764	
902	0	32820	32762	
903	0	32828	32784	
904	0	32832	32644	
905	0	32764	32808	
906	0	32868	32844	
907	0	32776	32794	
908	0	32756	32718	
909	0	32868	32802	
910	0	32772	32775	
911	0	32756	32775	
912	0	32798	32748	
913	0	32780	32838	
914	0	32760	32752	
915	0	32744	32694	
916	0	32876	32880	
917	0	32828	32784	
918	0	32832	32754	
919	0	32788	32890	
920	0	32806	32703	
921	0	32774	32694	
922	0	32822	32810	
923	0	32856	32775	
924	0	32816	32770	
925	0	32844	32710	
926	0	32728	32704	
927	0	32768	32786	
928	0	32824	32740	
929	0	32796	32732	
930	0	32760	32602	
931	0	32758	32679	
932	0	32780	32775	
933	0	32804	32716	
934	0	32820	32814	
935	0	32884	32732	
936	0	32808	32714	
937	0	32840	32788	
938	0	32836	32770	
939	0	32798	32804	
940	0	32760	32694	
941	0	32800	32721	
942	0	32812	32856	
943	0	32824	32830	
944	0	32772	32770	
945	0	32788	32728	
946	0	32768	32674	
947	0	32790	32812	
948	0	32764	32790	
949	0	32928	32755	
950	0	32840	32708	
951	0	32834	32724	
952	0	32760	32760	
953	0	32784	32908	
954	0	32822	32772	
955	0	32764	32796	
956	0	32738	32850	
957	0	32848	32703	
958	0	32832	32762	
959	0	32793	32722	
960	0	32768	32647	
961	0	32782	32772	
962	0	32812	32762	
963	0	32840	32760	
964	0	32822	32814	
965	0	32824	32764	
966	0	32864	32855	
967	0	32836	32772	
968	0	32834	32812	
969	0	32746	32772	
970	0	32788	32726	
971	0	32814	32746	
972	0	32792	32860	
973	0	32784	32799	
974	0	32744	32802	
975	0	32888	32864	
976	0	32828	32826	
977	0	32830	32774	
978	0	32862	32770	
979	0	32836	32818	
980	0	32848	32809	
981	0	32860	32692	
982	0	32868	32750	
983	0	32750	32752	
984	0	32804	32695	
985	0	32808	32876	
986	0	32812	32798	
987	0	32778	32668	
988	0	32784	32774	
989	0	32730	32750	
990	0	32780	32700	
991	0	32804	32632	
992	0	32804	32860	
993	0	32832	32746	
994	0	32828	32790	
995	0	32842	32746	
996	0	32860	32822	
997	0	32816	32864	
998	0	32908	32816	
999	0	32812	32752	
1000	0	32808	32862	
1001	0	32856	32666	
1002	0	32818	32806	
1003	0	32844	32846	
1004	0	32836	32739	
1005	0	32780	32740	
1006	0	32828	32818	
1007	0	32834	32679	
1008	0	32812	32774	
1009	0	32896	32736	
1010	0	32728	32732	
1011	0	32844	32814	
1012	0	32768	32734	
1013	0	32830	32770	
1014	0	32764	32790	
1015	0	32804	32768	
1016	0	32820	32832	
1017	0	32854	32726	
1018	0	32804	32846	
1019	0	32848	32846	
1020	0	32796	32742	
1021	0	32796	32748	
1022	0	32772	32806	
1023	0	32798	32732	
1024	0	32832	32808	
1025	0	32812	32789	
1026	0	32820	32706	
1027	0	32768	32801	
1028	0	32728	32823	
1029	0	32784	32704	
1030	0	32808	32854	
1031	0	32842	32795	
1032	0	32852	32640	
1033	0	32788	32804	
1034	0	32808	32862	
1035	0	32840	32686	
1036	0	32849	32782	
1037	0	32828	32710	
1038	0	32884	32743	
1039	0	32844	32831	
1040	0	32848	32860	
1041	0	32852	32674	
1042	0	32768	32784	
1043	0	32856	32762	
1044	0	32766	32688	
1045	0	32820	32790	
1046	0	32820	32769	
1047	0	32824	32730	
1048	0	32804	32802	
1049	0	32752	32756	
1050	0	32801	32797	
1051	0	32764	32692	
1052	0	32782	32812	
1053	0	32786	32810	
1054	0	32752	32788	
1055	0	32804	32753	
1056	0	32872	32804	
1057	0	32816	32810	
1058	0	32840	32864	
1059	0	32852	32798	
1060	0	32836	32690	
1061	0	32804	32728	
1062	0	32808	32812	
1063	0	32788	32684	
1064	0	32824	32764	
1065	0	32836	32770	
1066	0	32816	32775	
1067	0	32912	32750	
1068	0	32744	32790	
1069	0	32786	32740	
1070	0	32816	32792	
1071	0	32772	32775	
1072	0	32812	32788	
1073	0	32752	32705	
1074	0	32780	32806	
1075	0	32832	32808	
1076	0	32852	32756	
1077	0	32876	32804	
1078	0	32804	32853	
1079	0	32847	32744	
1080	0	32820	32647	
1081	0	32752	32804	
1082	0	32824	32796	
1083	0	32864	32775	
1084	0	32838	32854	
1085	0	32756	32775	
1086	0	32834	32775	
1087	0	32824	32847	
1088	0	32828	32698	
1089	0	32720	32832	
1090	0	32796	32796	
1091	0	32788	32695	
1092	0	32832	32806	
1093	0	32748	32775	
1094	0	32760	32702	
1095	0	32808	32788	
1096	0	32772	32720	
1097	0	32812	32768	
1098	0	32772	32652	
1099	0	32752	32752	
1100	0	32856	32716	
1101	0	32852	32743	
1102	0	32870	32748	
1103	0	32784	32864	
1104	0	32836	32808	
1105	0	32800	32714	
1106	0	32864	32798	
1107	0	32866	32750	
1108	0	32832	32742	
1109	0	32884	32854	
1110	0	32812	32736	
1111	0	32780	32775	
1112	0	32748	32676	
1113	0	32840	32756	
1114	0	32744	32644	
1115	0	32864	32750	
1116	0	32830	32807	
1117	0	32824	32820	
1118	0	32830	32728	
1119	0	32750	32762	
1120	0	32856	32798	
1121	0	32806	32708	
1122	0	32866	32855	
1123	0	32832	32728	
1124	0	32806	32684	
1125	0	32826	32794	
1126	0	32854	32806	
1127	0	32796	32807	
1128	0	32756	32852	
1129	0	32802	32750	
1130	0	32832	32850	
1131	0	32748	32734	
1132	0	32852	32846	
1133	0	32820	32734	
1134	0	32800	32740	
1135	0	32832	32686	
1136	0	32824	32775	
1137	0	32848	32788	
1138	0	32874	32758	
1139	0	32808	32734	
1140	0	32808	32762	
1141	0	32800	32775	
1142	0	32780	32758	
1143	0	32800	32754	
1144	0	32788	32762	
1145	0	32844	32694	
1146	0	32821	32746	
1147	0	32748	32790	
1148	0	32864	32926	
1149	0	32824	32748	
1150	0	32848	32815	
1151	0	32824	32762	
1152	0	32824	32820	
1153	0	32841	32682	
1154	0	32762	32834	
1155	0	32800	32714	
1156	0	32804	32727	
1157	0	32828	32839	
1158	0	32844	32807	
1159	0	32826	32740	
1160	0	32828	32734	
1161	0	32784	32772	
1162	0	32792	32796	
1163	0	32850	32668	
1164	0	32744	32774	
1165	0	32783	32822	
1166	0	32822	32846	
1167	0	32836	32722	
1168	0	32802	32800	
1169	0	32788	32788	
1170	0	32746	32686	
1171	0	32728	32766	
1172	0	32852	32706	
1173	0	32841	32820	
1174	0	32790	32772	
1175	0	32912	32830	
1176	0	32768	32892	
1177	0	32796	32750	
1178	0	32884	32722	
1179	0	32824	32802	
1180	0	32852	32800	
1181	0	32788	32664	
1182	0	32804	32748	
1183	0	32834	32788	
1184	0	32836	32706	
1185	0	32754	32839	
1186	0	32876	32775	
1187	0	32768	32743	
1188	0	32778	32836	
1189	0	32820	32708	
1190	0	32772	32722	
1191	0	32840	32670	
1192	0	32848	32740	
1193	0	32812	32772	
1194	0	32806	32784	
1195	0	32820	32868	
1196	0	32788	32810	
1197	0	32820	32708	
1198	0	32820	32687	
1199	0	32784	32809	
1200	0	32848	32796	
1201	0	32858	32721	
1202	0	32834	32696	
1203	0	32826	32807	
1204	0	32834	32816	
1205	0	32857	32732	
1206	0	32816	32724	
1207	0	32820	32834	
1208	0	32844	32798	
1209	0	32800	32668	
1210	0	32840	32818	
1211	0	32800	32808	
1212	0	32870	32745	
1213	0	32784	32858	
1214	0	32772	32794	
1215	0	32880	32738	
1216	0	32852	32844	
1217	0	32812	32811	
1218	0	32856	32716	
1219	0	32824	32775	
1220	0	32824	32687	
1221	0	32784	32798	
1222	0	32704	32682	
1223	0	32804	32858	
1224	0	32836	32740	
1225	0	32804	32702	
1226	0	32768	32693	
1227	0	32866	32775	
1228	0	32858	32847	
1229	0	32836	32724	
1230	0	32828	32796	
1231	0	32772	32847	
1232	0	32800	32704	
1233	0	32810	32696	
1234	0	32772	32840	
1235	0	32808	32775	
1236	0	32838	32667	
1237	0	32842	32802	
1238	0	32820	32799	
1239	0	32780	32756	
1240	0	32836	32796	
1241	0	32840	32711	
1242	0	32820	32801	
1243	0	32848	32668	
1244	0	32808	32764	
1245	0	32850	32758	
1246	0	32772	32726	
1247	0	32778	32666	
1248	0	32866	32804	
1249	0	32818	32746	
1250	0	32834	32828	
1251	0	32808	32759	
1252	0	32816	32814	
1253	0	32794	32752	
1254	0	32804	32700	
1255	0	32800	32759	
1256	0	32846	32798	
1257	0	32820	32775	
1258	0	32798	32727	
1259	0	32832	32855	
1260	0	32772	32728	
1261	0	32834	32775	
1262	0	32836	32792	
1263	0	32854	32783	
1264	0	32780	32686	
1265	0	32866	32785	
1266	0	32817	32820	
1267	0	32832	32752	
1268	0	32738	32820	
1269	0	32841	32738	
1270	0	32796	32738	
1271	0	32788	32748	
1272	0	32762	32774	
1273	0	32832	32754	
1274	0	32740	32870	
1275	0	32756	32887	
1276	0	32789	32742	
1277	0	32824	32827	
1278	0	32844	32775	
1279	0	32900	32823	
1280	0	32804	32738	
1281	0	32808	32724	
1282	0	32877	32748	
1283	0	32752	32708	
1284	0	32788	32862	
1285	0	32772	32751	
1286	0	32812	32756	
1287	0	32868	32808	
1288	0	32848	32708	
1289	0	32804	32750	
1290	0	32830	32847	
1291	0	32804	32708	
1292	0	32796	32840	
1293	0	32826	32652	
1294	0	32820	32796	
1295	0	32804	32751	
1296	0	32836	32711	
1297	0	32864	32871	
1298	0	32800	32775	
1299	0	32774	32764	
1300	0	32880	32668	
1301	0	32800	32826	
1302	0	32796	32735	
1303	0	32806	32858	
1304	0	32862	32775	
1305	0	32822	32788	
1306	0	32836	32911	
1307	0	32846	32798	
1308	0	32776	32740	
1309	0	32800	32796	
1310	0	32810	32790	
1311	0	32768	32790	
1312	0	32824	32792	
1313	0	32750	32658	
1314	0	32720	32801	
1315	0	32748	32807	
1316	0	32800	32694	
1317	0	32858	32896	
1318	0	32798	32752	
1319	0	32824	32720	
1320	0	32828	32864	
1321	0	32872	32743	
1322	0	32840	32698	
1323	0	32840	32854	
1324	0	32849	32740	
1325	0	32804	32718	
1326	0	32782	32682	
1327	0	32836	32735	
1328	0	32756	32912	
1329	0	32744	32676	
1330	0	32760	32808	
1331	0	32823	32808	
1332	0	32788	32794	
1333	0	32802	32671	
1334	0	32872	32812	
1335	0	32852	32842	
1336	0	32868	32736	
1337	0	32854	32704	
1338	0	32760	32792	
1339	0	32808	32760	
1340	0	32816	32657	
1341	0	32798	32756	
1342	0	32852	32788	
1343	0	32760	32814	
1344	0	32844	32684	
1345	0	32828	32742	
1346	0	32788	32798	
1347	0	32784	32860	
1348	0	32804	32758	
1349	0	32809	32658	
1350	0	32842	32796	
1351	0	32820	32812	
1352	0	32754	32684	
1353	0	32768	32758	
1354	0	32801	32842	
1355	0	32792	32838	
1356	0	32896	32775	
1357	0	32828	32900	
1358	0	32760	32758	
1359	0	32824	32680	
1360	0	32828	32799	
1361	0	32766	32738	
1362	0	32814	32788	
1363	0	32870	32652	
1364	0	32804	32775	
1365	0	32812	32802	
1366	0	32820	32772	
1367	0	32820	32743	
1368	0	32876	32791	
1369	0	32860	32846	
1370	0	32832	32820	
1371	0	32776	32736	
1372	0	32716	32760	
1373	0	32832	32825	
1374	0	32836	32726	
1375	0	32802	32855	
1376	0	32824	32822	
1377	0	32860	32864	
1378	0	32864	32712	
1379	0	32828	32892	
1380	0	32824	32759	
1381	0	32836	32879	
1382	0	32758	32672	
1383	0	32808	32775	
1384	0	32800	32902	
1385	0	32878	32919	
1386	0	32910	32891	
1387	0	32888	32775	
1388	0	32838	32871	
1389	0	32844	32817	
1390	0	32804	32766	
1391	0	32712	32652	
1392	0	32660	32678	
1393	0	32706	32519	
1394	0	32644	32530	
1395	0	32688	32496	
1396	0	32632	32506	
1397	0	32616	32480	
1398	0	32610	32409	
1399	0	32664	32542	
1400	0	32740	32601	
1401	0	32814	32740	
1402	0	32754	32724	
1403	0	32796	32775	
1404	0	32808	32775	
1405	0	32820	32766	
1406	0	32828	32854	
1407	0	32824	32804	
1408	0	32824	32872	
1409	0	32840	32806	
1410	0	32864	32990	
1411	0	32868	32918	
1412	0	32919	32922	
1413	0	32916	32903	
1414	0	32900	32775	
1415	0	32880	32980	
1416	0	32884	32884	
1417	0	32842	32930	
1418	0	32904	32802	
1419	0	32908	32884	
1420	0	32852	32836	
1421	0	32854	32716	
1422	0	32868	32830	
1423	0	32816	32775	
1424	0	32788	32830	
1425	0	32774	32752	
1426	0	32764	32796	
1427	0	32812	32696	
1428	0	32756	32903	
1429	0	32824	32656	
1430	0	32836	32769	
1431	0	32842	32782	
1432	0	32796	32660	
1433	0	32768	32660	
1434	0	32818	32760	
1435	0	32784	32785	
1436	0	32886	32724	
1437	0	32824	32678	
1438	0	32766	32775	
1439	0	32788	32804	
1440	0	32792	32696	
1441	0	32842	32696	
1442	0	32816	32718	
1443	0	32830	32652	
1444	0	32804	32800	
1445	0	32720	32759	
1446	0	32836	32760	
1447	0	32830	32862	
1448	0	32820	32786	
1449	0	32842	32766	
1450	0	32764	32802	
1451	0	32764	32734	
1452	0	32800	32785	
1453	0	32841	32770	
1454	0	32772	32764	
1455	0	32856	32798	
1456	0	32856	32866	
1457	0	32828	32686	
1458	0	32788	32703	
1459	0	32756	32740	
1460	0	32848	32834	
1461	0	32828	32801	
1462	0	32860	32692	
1463	0	32786	32732	
1464	0	32820	32738	
1465	0	32788	32804	
1466	0	32820	32814	
1467	0	32820	32852	
1468	0	32766	32775	
1469	0	32804	32855	
1470	0	32812	32757	
1471	0	32758	32754	
1472	0	32796	32742	
1473	0	32740	32836	
1474	0	32712	32847	
1475	0	32840	32719	
1476	0	32828	32860	
1477	0	32800	32836	
1478	0	32836	32748	
1479	0	32848	32798	
1480	0	32833	32812	
1481	0	32904	32679	
1482	0	32862	32742	
1483	0	32792	32712	
1484	0	32900	32795	
1485	0	32746	32775	
1486	0	32842	32716	
1487	0	32768	32816	
1488	0	32802	32726	
1489	0	32756	32702	
1490	0	32738	32839	
1491	0	32818	32876	
1492	0	32752	32660	
1493	0	32766	32702	
1494	0	32756	32704	
1495	0	32836	32824	
1496	0	32808	32806	
1497	0	32806	32764	
1498	0	32854	32769	
1499	0	32764	32718	
1500	0	32853	32680	
1501	0	32892	32786	
1502	0	32782	32828	
1503	0	32816	32676	
1504	0	32796	32644	
1505	0	32878	32824	
1506	0	32796	32692	
1507	0	32824	32866	
1508	0	32704	32765	
1509	0	32814	32721	
1510	0	32836	32710	
1511	0	32868	32828	
1512	0	32778	32758	
1513	0	32772	32814	
1514	0	32766	32810	
1515	0	32800	32714	
1516	0	32812	32750	
1517	0	32840	32775	
1518	0	32860	32719	
1519	0	32832	32804	
1520	0	32792	32836	
1521	0	32762	32754	
1522	0	32916	32803	
1523	0	32866	32694	
1524	0	32780	32836	
1525	0	32796	32796	
1526	0	32800	32736	
1527	0	32825	32880	
1528	0	32832	32774	
1529	0	32796	32762	
1530	0	32804	32775	
1531	0	32784	32800	
1532	0	32764	32604	
1533	0	32772	32734	
1534	0	32840	32754	
1535	0	32884	32745	
1536	0	32828	32766	
1537	0	32772	32684	
1538	0	32880	32798	
1539	0	32784	32798	
1540	0	32736	32740	
1541	0	32880	32816	
1542	0	32836	32849	
1543	0	32818	32711	
1544	0	32775	32760	
1545	0	32776	32852	
1546	0	32814	32730	
1547	0	32878	32760	
1548	0	32784	32828	
1549	0	32824	32754	
1550	0	32772	32788	
1551	0	32766	32775	
1552	0	32824	32775	
1553	0	32799	32822	
1554	0	32824	32761	
1555	0	32800	32746	
1556	0	32852	32752	
1557	0	32824	32801	
1558	0	32790	32768	
1559	0	32798	32807	
1560	0	32844	32772	
1561	0	32796	32654	
1562	0	32822	32807	
1563	0	32852	32804	
1564	0	32800	32713	
1565	0	32824	32832	
1566	0	32788	32823	
1567	0	32816	32676	
1568	0	32810	32775	
1569	0	32841	32800	
1570	0	32772	32710	
1571	0	32800	32802	
1572	0	32808	32768	
1573	0	32836	32686	
1574	0	32748	32807	
1575	0	32848	32742	
1576	0	32782	32884	
1577	0	32820	32744	
1578	0	32768	32824	
1579	0	32761	32740	
1580	0	32782	32716	
1581	0	32852	32818	
1582	0	32836	32759	
1583	0	32878	32638	
1584	0	32784	32804	
1585	0	32852	32848	
1586	0	32828	32714	
1587	0	32826	32864	
1588	0	32832	32836	
1589	0	32784	32726	
1590	0	32858	32786	
1591	0	32780	32712	
1592	0	32816	32775	
1593	0	32834	32804	
1594	0	32784	32659	
1595	0	32870	32810	
1596	0	32880	32745	
1597	0	32792	32802	
1598	0	32826	32814	
1599	0	32822	32695	
1600	0	32776	32734	
1601	0	32832	32772	
1602	0	32804	32743	
1603	0	32775	32852	
1604	0	32750	32737	
1605	0	32772	32775	
1606	0	32832	32820	
1607	0	32800	32775	
1608	0	32808	32718	
1609	0	32828	32860	
1610	0	32856	32774	
1611	0	32848	32684	
1612	0	32778	32784	
1613	0	32732	32770	
1614	0	32784	32676	
1615	0	32748	32822	
1616	0	32872	32838	
1617	0	32804	32807	
1618	0	32847	32854	
1619	0	32828	32678	
1620	0	32794	32646	
1621	0	32732	32775	
1622	0	32860	32796	
1623	0	32780	32692	
1624	0	32854	32836	
1625	0	32794	32736	
1626	0	32848	32786	
1627	0	32804	32692	
1628	0	32834	32788	
1629	0	32844	32769	
1630	0	32784	32647	
1631	0	32804	32744	
1632	0	32844	32775	
1633	0	32852	32700	
1634	0	32786	32728	
1635	0	32802	32806	
1636	0	32810	32826	
1637	0	32820	32810	
1638	0	32796	32726	
1639	0	32848	32788	
1640	0	32824	32695	
1641	0	32802	32852	
1642	0	32832	32767	
1643	0	32788	32886	
1644	0	32816	32667	
1645	0	32796	32806	
1646	0	32852	32814	
1647	0	32728	32754	
1648	0	32832	32692	
1649	0	32836	32832	
1650	0	32814	32720	
1651	0	32776	32664	
1652	0	32762	32811	
1653	0	32808	32711	
1654	0	32772	32688	
1655	0	32802	32922	
1656	0	32820	32728	
1657	0	32850	32868	
1658	0	32852	32680	
1659	0	32753	32865	
1660	0	32844	32824	
1661	0	32796	32732	
1662	0	32828	32806	
1663	0	32798	32764	
1664	0	32784	32640	
1665	0	32800	32774	
1666	0	32864	32731	
1667	0	32860	32888	
1668	0	32852	32652	
1669	0	32828	32804	
1670	0	32744	32818	
1671	0	32816	32766	
1672	0	32762	32833	
1673	0	32828	32842	
1674	0	32808	32667	
1675	0	32824	32866	
1676	0	32818	32836	
1677	0	32802	32674	
1678	0	32872	32811	
1679	0	32850	32887	
1680	0	32816	32656	
1681	0	32800	32792	
1682	0	32820	32834	
1683	0	32842	32818	
1684	0	32826	32746	
1685	0	32914	32712	
1686	0	32826	32748	
1687	0	32802	32742	
1688	0	32852	32708	
1689	0	32796	32716	
1690	0	32836	32775	
1691	0	32846	32741	
1692	0	32792	32750	
1693	0	32820	32746	
1694	0	32782	32796	
1695	0	32760	32802	
1696	0	32814	32693	
1697	0	32880	32826	
1698	0	32788	32798	
1699	0	32884	32756	
1700	0	32780	32812	
1701	0	32776	32744	
1702	0	32778	32766	
1703	0	32836	32716	
1704	0	32790	32636	
1705	0	32836	32790	
1706	0	32764	32796	
1707	0	32810	32665	
1708	0	32816	32852	
1709	0	32794	32720	
1710	0	32804	32736	
1711	0	32842	32711	
1712	0	32792	32902	
1713	0	32752	32834	
1714	0	32776	32710	
1715	0	32804	32870	
1716	0	32864	32824	
1717	0	32820	32706	
1718	0	32840	32804	
1719	0	32853	32790	
1720	0	32825	32721	
1721	0	32760	32826	
1722	0	32828	32721	
1723	0	32850	32724	
1724	0	32832	32694	
1725	0	32822	32806	
1726	0	32844	32863	
1727	0	32868	32754	
1728	0	32808	32804	
1729	0	32848	32740	
1730	0	32806	32838	
1731	0	32744	32724	
1732	0	32836	32727	
1733	0	32760	32748	
1734	0	32816	32799	
1735	0	32840	32739	
1736	0	32804	32772	
1737	0	32852	32798	
1738	0	32840	32706	
1739	0	32832	32775	
1740	0	32836	32764	
1741	0	32820	32710	
1742	0	32832	32689	
1743	0	32822	32800	
1744	0	32824	32760	
1745	0	32800	32851	
1746	0	32834	32768	
1747	0	32848	32806	
1748	0	32800	32708	
1749	0	32846	32712	
1750	0	32820	32768	
1751	0	32778	32722	
1752	0	32768	32808	
1753	0	32794	32762	
1754	0	32844	32804	
1755	0	32802	32807	
1756	0	32770	32790	
1757	0	32864	32791	
1758	0	32808	32720	
1759	0	32762	32764	
1760	0	32794	32810	
1761	0	32868	32827	
1762	0	32780	32692	
1763	0	32780	32770	
1764	0	32848	32724	
1765	0	32820	32718	
1766	0	32808	32703	
1767	0	32760	32816	
1768	0	32808	32758	
1769	0	32834	32782	
1770	0	32756	32654	
1771	0	32804	32832	
1772	0	32872	32808	
1773	0	32799	32711	
1774	0	32822	32751	
1775	0	32872	32807	
1776	0	32848	32719	
1777	0	32774	32720	
1778	0	32820	32764	
1779	0	32812	32768	
1780	0	32856	32743	
1781	0	32808	32801	
1782	0	32764	32827	
1783	0	32840	32670	
1784	0	32780	32711	
1785	0	32840	32774	
1786	0	32874	32830	
1787	0	32816	32740	
1788	0	32788	32856	
1789	0	32756	32792	
1790	0	32794	32673	
1791	0	32872	32812	
1792	0	32800	32834	
1793	0	32856	32824	
1794	0	32794	32756	
1795	0	32764	32806	
1796	0	32832	32818	
1797	0	32814	32846	
1798	0	32842	32658	
1799	0	32778	32710	
1800	0	32842	32791	
1801	0	32792	32850	
1802	0	32898	32732	
1803	0	32904	32644	
1804	0	32818	32814	
1805	0	32780	32808	
1806	0	32754	32790	
1807	0	32752	32642	
1808	0	32798	32674	
1809	0	32876	32820	
1810	0	32856	32834	
1811	0	32782	32807	
1812	0	32808	32682	
1813	0	32806	32774	
1814	0	32796	32775	
1815	0	32796	32767	
1816	0	32860	32678	
1817	0	32874	32903	
1818	0	32820	32730	
1819	0	32852	32828	
1820	0	32798	32775	
1821	0	32852	32772	
1822	0	32782	32738	
1823	0	32794	32812	
1824	0	32808	32820	
1825	0	32880	32838	
1826	0	32850	32727	
1827	0	32824	32807	
1828	0	32744	32726	
1829	0	32782	32678	
1830	0	32854	32671	
1831	0	32812	32775	
1832	0	32892	32834	
1833	0	32786	32666	
1834	0	32834	32775	
1835	0	32816	32745	
1836	0	32888	32818	
1837	0	32840	32775	
1838	0	32776	32966	
1839	0	32816	32804	
1840	0	32794	32775	
1841	0	32796	32767	
1842	0	32808	32724	
1843	0	32832	32868	
1844	0	32820	32834	
1845	0	32814	32756	
1846	0	32776	32759	
1847	0	32812	32694	
1848	0	32906	32732	
1849	0	32802	32823	
1850	0	32808	32764	
1851	0	32856	32807	
1852	0	32728	32686	
1853	0	32832	32736	
1854	0	32792	32710	
1855	0	32768	32818	
1856	0	32828	32784	
1857	0	32762	32720	
1858	0	32808	32775	
1859	0	32784	32730	
1860	0	32826	32860	
1861	0	32754	32693	
1862	0	32844	32836	
1863	0	32828	32674	
1864	0	32818	32766	
1865	0	32860	32818	
1866	0	32828	32753	
1867	0	32828	32790	
1868	0	32836	32722	
1869	0	32812	32775	
1870	0	32754	32768	
1871	0	32800	32744	
1872	0	32768	32806	
1873	0	32844	32866	
1874	0	32758	32871	
1875	0	32870	32752	
1876	0	32860	32807	
1877	0	32768	32808	
1878	0	32840	32775	
1879	0	32784	32705	
1880	0	32772	32810	
1881	0	32792	32696	
1882	0	32820	32743	
1883	0	32814	32788	
1884	0	32832	32774	
1885	0	32810	32806	
1886	0	32870	32760	
1887	0	32830	32660	
1888	0	32836	32718	
1889	0	32840	32743	
1890	0	32816	32786	
1891	0	32764	32738	
1892	0	32746	32754	
1893	0	32780	32810	
1894	0	32868	32806	
1895	0	32800	32754	
1896	0	32778	32820	
1897	0	32864	32775	
1898	0	32778	32861	
1899	0	32740	32743	
1900	0	32780	32748	
1901	0	32806	32775	
1902	0	32836	32832	
1903	0	32798	32638	
1904	0	32800	32811	
1905	0	32838	32716	
1906	0	32812	32803	
1907	0	32812	32702	
1908	0	32780	32802	
1909	0	32792	32748	
1910	0	32832	32798	
1911	0	32884	32740	
1912	0	32832	32766	
1913	0	32822	32725	
1914	0	32882	32770	
1915	0	32814	32843	
1916	0	32860	32788	
1917	0	32842	32780	
1918	0	32716	32750	
1919	0	32816	32830	
1920	0	32839	32734	
1921	0	32808	32750	
1922	0	32760	32796	
1923	0	32812	32854	
1924	0	32772	32754	
1925	0	32740	32640	
1926	0	32772	32796	
1927	0	32840	32790	
1928	0	32838	32711	
1929	0	32770	32775	
1930	0	32832	32775	
1931	0	32738	32688	
1932	0	32752	32772	
1933	0	32778	32886	
1934	0	32788	32702	
1935	0	32836	32821	
1936	0	32840	32838	
1937	0	32836	32706	
1938	0	32782	32842	
1939	0	32752	32799	
1940	0	32782	32810	
1941	0	32816	32740	
1942	0	32824	32678	
1943	0	32836	32774	
1944	0	32824	32761	
1945	0	32834	32775	
1946	0	32770	32816	
1947	0	32762	32744	
1948	0	32854	32750	
1949	0	32788	32677	
1950	0	32748	32830	
1951	0	32812	32823	
1952	0	32786	32735	
1953	0	32810	32852	
1954	0	32791	32825	
1955	0	32808	32708	
1956	0	32868	32839	
1957	0	32812	32826	
1958	0	32864	32632	
1959	0	32816	32774	
1960	0	32868	32716	
1961	0	32848	32701	
1962	0	32776	32729	
1963	0	32784	32725	
1964	0	32840	32775	
1965	0	32800	32775	
1966	0	32826	32783	
1967	0	32836	32856	
1968	0	32728	32661	
1969	0	32788	32847	
1970	0	32832	32838	
1971	0	32834	32706	
1972	0	32804	32698	
1973	0	32836	32729	
1974	0	32820	32754	
1975	0	32808	32704	
1976	0	32801	32846	
1977	0	32852	32772	
1978	0	32824	32806	
1979	0	32808	32730	
1980	0	32852	32718	
1981	0	32742	32663	
1982	0	32768	32768	
1983	0	32836	32772	
1984	0	32724	32775	
1985	0	32854	32810	
1986	0	32828	32852	
1987	0	32818	32744	
1988	0	32794	32858	
1989	0	32868	32818	
1990	0	32736	32703	
1991	0	32762	32806	
1992	0	32736	32713	
1993	0	32853	32814	
1994	0	32769	32690	
1995	0	32826	32884	
1996	0	32728	32866	
1997	0	32732	32712	
1998	0	32806	32762	
1999	0	32796	32788	
2000	0	32849	32688	
2001	0	32816	32804	
2002	0	32906	32844	
2003	0	32840	32660	
2004	0	32770	32788	
2005	0	32824	32820	
2006	0	32852	32720	
2007	0	32784	32774	
2008	0	32824	32784	
2009	0	32848	32728	
2010	0	32807	32754	
2011	0	32792	32845	
2012	0	32768	32740	
2013	0	32814	32771	
2014	0	32822	32754	
2015	0	32876	32798	
2016	0	32880	32815	
2017	0	32816	32656	
2018	0	32776	32802	
2019	0	32766	32798	
2020	0	32788	32704	
2021	0	32788	32846	
2022	0	32824	32774	
2023	0	32808	32694	
2024	0	32808	32849	
2025	0	32836	32828	
2026	0	32790	32696	
2027	0	32828	32866	
2028	0	32840	32774	
2029	0	32816	32668	
2030	0	32752	32839	
2031	0	32840	32764	
2032	0	32812	32807	
2033	0	32848	32700	
2034	0	32844	32792	
2035	0	32846	32801	
2036	0	32828	32708	
2037	0	32736	32746	
2038	0	32788	32745	
2039	0	32852	32734	
2040	0	32812	32684	
2041	0	32832	32782	
2042	0	32784	32717	
2043	0	32780	32806	
2044	0	32784	32760	
2045	0	32812	32679	
2046	0	32910	32878	
2047	0	32844	32716	
2048	0	32811	32676	
2049	0	32830	32706	
2050	0	32738	32775	
2051	0	32860	32854	
2052	0	32848	32740	
2053	0	32892	32866	
2054	0	32794	32830	
2055	0	32818	32774	
2056	0	32854	32808	
2057	0	32844	32862	
2058	0	32820	32790	
2059	0	32808	32775	
2060	0	32852	32799	
2061	0	32794	32886	
2062	0	32820	32772	
2063	0	32872	32894	
2064	0	32824	32881	
2065	0	32804	32775	
2066	0	32798	32760	
2067	0	32814	32880	
2068	0	32908	32775	
2069	0	32820	32932	
2070	0	32788	32876	
2071	0	32880	32812	
2072	0	32800	32892	
2073	0	32840	32884	
2074	0	32832	32688	
2075	0	32710	32839	
2076	0	32694	32706	
2077	0	32662	32466	
2078	0	32682	32484	
2079	0	32692	32480	
2080	0	32624	32399	
2081	0	32608	32396	
2082	0	32704	32484	
2083	0	32684	32494	
2084	0	32768	32612	
2085	0	32712	32586	
2086	0	32712	32678	
2087	0	32812	32795	
2088	0	32796	32732	
2089	0	32856	32764	
2090	0	32946	32943	
2091	0	32858	32775	
2092	0	32852	32935	
2093	0	32916	32962	
2094	0	32904	32775	
2095	0	32844	32892	
2096	0	32938	32924	
2097	0	32928	32966	
2098	0	32892	32871	
2099	0	32846	32892	
2100	0	32852	32887	
2101	0	32870	32775	
2102	0	32892	32902	
2103	0	32838	32852	
2104	0	32896	32828	
2105	0	32802	32796	
2106	0	32848	32762	
2107	0	32844	32798	
2108	0	32852	32718	
2109	0	32804	32823	
2110	0	32820	32652	
2111	0	32820	32759	
2112	0	32796	32752	
2113	0	32742	32830	
2114	0	32712	32744	
2115	0	32756	32676	
2116	0	32834	32772	
2117	0	32836	32762	
2118	0	32766	32748	
2119	0	32756	32762	
2120	0	32800	32715	
2121	0	32824	32772	
2122	0	32770	32846	
2123	0	32872	32679	
2124	0	32846	32765	
2125	0	32828	32775	
2126	0	32804	32688	
2127	0	32812	32785	
2128	0	32784	32804	
2129	0	32850	32708	
2130	0	32744	32775	
2131	0	32752	32750	
2132	0	32824	32900	
2133	0	32788	32836	
2134	0	32798	32650	
2135	0	32760	32788	
2136	0	32802	32826	
2137	0	32852	32688	
2138	0	32814	32796	
2139	0	32832	32772	
2140	0	32784	32620	
2141	0	32812	32799	
2142	0	32896	32766	
2143	0	32850	32708	
2144	0	32820	32866	
2145	0	32774	32792	
2146	0	32836	32740	
2147	0	32780	32706	
2148	0	32778	32741	
2149	0	32780	32644	
2150	0	32814	32766	
2151	0	32836	32758	
2152	0	32808	32724	
2153	0	32788	32750	
2154	0	32832	32862	
2155	0	32832	32865	
2156	0	32772	32694	
2157	0	32814	32888	
2158	0	32768	32828	
2159	0	32806	32772	
2160	0	32816	32800	
2161	0	32894	32772	
2162	0	32816	32696	
2163	0	32824	32802	
2164	0	32842	32815	
2165	0	32796	32710	
2166	0	32786	32812	
2167	0	32772	32720	
2168	0	32820	32815	
2169	0	32792	32766	
2170	0	32804	32762	
2171	0	32796	32760	
2172	0	32772	32824	
2173	0	32784	32730	
2174	0	32812	32791	
2175	0	32832	32842	
2176	0	32848	32830	
2177	0	32800	32749	
2178	0	32846	32740	
2179	0	32820	32648	
2180	0	32824	32782	
2181	0	32864	32788	
2182	0	32888	32697	
2183	0	32812	32684	
2184	0	32784	32758	
2185	0	32784	32745	
2186	0	32792	32766	
2187	0	32792	32794	
2188	0	32768	32670	
2189	0	32776	32839	
2190	0	32780	32748	
2191	0	32804	32710	
2192	0	32740	32784	
2193	0	32792	32844	
2194	0	32796	32692	
2195	0	32810	32783	
2196	0	32826	32754	
2197	0	32782	32884	
2198	0	32744	32736	
2199	0	32812	32724	
2200	0	32776	32792	
2201	0	32802	32671	
2202	0	32818	32734	
2203	0	32824	32785	
2204	0	32792	32746	
2205	0	32864	32730	
2206	0	32836	32762	
2207	0	32814	32892	
2208	0	32880	32733	
2209	0	32856	32660	
2210	0	32772	32822	
2211	0	32820	32819	
2212	0	32784	32735	
2213	0	32820	32846	
2214	0	32836	32702	
2215	0	32804	32740	
2216	0	32812	32838	
2217	0	32868	32792	
2218	0	32800	32815	
2219	0	32780	32671	
2220	0	32756	32769	
2221	0	32884	32868	
2222	0	32784	32770	
2223	0	32804	32775	
2224	0	32788	32748	
2225	0	32856	32774	
2226	0	32832	32775	
2227	0	32788	32812	
2228	0	32768	32748	
2229	0	32796	32711	
2230	0	32808	32848	
2231	0	32860	32758	
2232	0	32844	32816	
2233	0	32764	32704	
2234	0	32820	32742	
2235	0	32784	32804	
2236	0	32816	32801	
2237	0	32924	32836	
2238	0	32856	32650	
2239	0	32838	32826	
2240	0	32776	32818	
2241	0	32802	32819	
2242	0	32848	32762	
2243	0	32832	32792	
2244	0	32836	32746	
2245	0	32788	32750	
2246	0	32804	32686	
2247	0	32778	32756	
2248	0	32808	32884	
2249	0	32782	32692	
2250	0	32754	32863	
2251	0	32756	32808	
2252	0	32766	32759	
2253	0	32828	32624	
2254	0	32884	32900	
2255	0	32854	32812	
2256	0	32832	32711	
2257	0	32796	32870	
2258	0	32920	32818	
2259	0	32844	32686	
2260	0	32802	32764	
2261	0	32822	32736	
2262	0	32864	32804	
2263	0	32866	32671	
2264	0	32788	32791	
2265	0	32836	32704	
2266	0	32720	32672	
2267	0	32790	32775	
2268	0	32852	32798	
2269	0	32816	32706	
2270	0	32768	32750	
2271	0	32858	32704	
2272	0	32846	32812	
2273	0	32800	32660	
2274	0	32820	32794	
2275	0	32844	32842	
2276	0	32792	32705	
2277	0	32812	32847	
2278	0	32768	32753	
2279	0	32824	32709	
2280	0	32828	32624	
2281	0	32770	32734	
2282	0	32772	32808	
2283	0	32872	32700	
2284	0	32878	32655	
2285	0	32832	32764	
2286	0	32768	32716	
2287	0	32780	32774	
2288	0	32812	32810	
2289	0	32762	32775	
2290	0	32772	32833	
2291	0	32836	32766	
2292	0	32776	32690	
2293	0	32798	32822	
2294	0	32772	32754	
2295	0	32796	32914	
2296	0	32832	32854	
2297	0	32800	32742	
2298	0	32832	32722	
2299	0	32752	32775	
2300	0	32864	32688	
2301	0	32828	32756	
2302	0	32725	32760	
2303	0	32824	32718	
2304	0	32828	32794	
2305	0	32784	32856	
2306	0	32844	32752	
2307	0	32820	32822	
2308	0	32836	32746	
2309	0	32812	32808	
2310	0	32844	32794	
2311	0	32824	32774	
2312	0	32798	32807	
2313	0	32868	32832	
2314	0	32780	32770	
2315	0	32736	32878	
2316	0	32840	32880	
2317	0	32892	32754	
2318	0	32784	32751	
2319	0	32792	32719	
2320	0	32816	32808	
2321	0	32778	32711	
2322	0	32804	32674	
2323	0	32808	32836	
2324	0	32856	32747	
2325	0	32868	32615	
2326	0	32808	32834	
2327	0	32742	32802	
2328	0	32780	32702	
2329	0	32808	32832	
2330	0	32812	32730	
2331	0	32852	32775	
2332	0	32775	32695	
2333	0	32828	32860	
2334	0	32810	32794	
2335	0	32832	32832	
2336	0	32816	32671	
2337	0	32840	32828	
2338	0	32840	32732	
2339	0	32864	32810	
2340	0	32848	32634	
2341	0	32820	32858	
2342	0	32752	32802	
2343	0	32760	32732	
2344	0	32804	32766	
2345	0	32808	32818	
2346	0	32802	32826	
2347	0	32802	32720	
2348	0	32810	32817	
2349	0	32790	32882	
2350	0	32868	32718	
2351	0	32776	32672	
2352	0	32818	32774	
2353	0	32816	32760	
2354	0	32836	32717	
2355	0	32722	32768	
2356	0	32776	32798	
2357	0	32800	32868	
2358	0	32816	32638	
2359	0	32824	32775	
2360	0	32804	32794	
2361	0	32798	32626	
2362	0	32764	32833	
2363	0	32832	32718	
2364	0	32716	32836	
2365	0	32828	32771	
2366	0	32768	32916	
2367	0	32758	32772	
2368	0	32852	32775	
2369	0	32842	32724	
2370	0	32828	32751	
2371	0	32768	32816	
2372	0	32798	32752	
2373	0	32844	32775	
2374	0	32800	32806	
2375	0	32752	32716	
2376	0	32832	32720	
2377	0	32836	32756	
2378	0	32824	32674	
2379	0	32836	32752	
2380	0	32830	32855	
2381	0	32800	32775	
2382	0	32803	32772	
2383	0	32836	32740	
2384	0	32858	32806	
2385	0	32756	32738	
2386	0	32744	32686	
2387	0	32792	32817	
2388	0	32788	32800	
2389	0	32764	32738	
2390	0	32868	32704	
2391	0	32790	32772	
2392	0	32780	32806	
2393	0	32864	32664	
2394	0	32804	32743	
2395	0	32856	32784	
2396	0	32872	32712	
2397	0	32808	32807	
2398	0	32816	32794	
2399	0	32820	32812	
2400	0	32841	32636	
2401	0	32848	32820	
2402	0	32820	32760	
2403	0	32768	32684	
2404	0	32768	32746	
2405	0	32770	32753	
2406	0	32858	32770	
2407	0	32800	32726	
2408	0	32712	32814	
2409	0	32840	32906	
2410	0	32780	32668	
2411	0	32770	32836	
2412	0	32744	32784	
2413	0	32804	32736	
2414	0	32846	32711	
2415	0	32830	32830	
2416	0	32868	32872	
2417	0	32838	32678	
2418	0	32808	32812	
2419	0	32772	32698	
2420	0	32800	32836	
2421	0	32852	32798	
2422	0	32778	32682	
2423	0	32820	32664	
2424	0	32834	32792	
2425	0	32785	32800	
2426	0	32784	32700	
2427	0	32800	32742	
2428	0	32834	32796	
2429	0	32788	32718	
2430	0	32816	32832	
2431	0	32848	32740	
2432	0	32780	32710	
2433	0	32780	32686	
2434	0	32760	32870	
2435	0	32856	32746	
2436	0	32826	32703	
2437	0	32868	32754	
2438	0	32868	32800	
2439	0	32748	32596	
2440	0	32808	32774	
2441	0	32846	32880	
2442	0	32824	32718	
2443	0	32836	32928	
2444	0	32894	32736	
2445	0	32864	32720	
2446	0	32818	32794	
2447	0	32764	32731	
2448	0	32770	32807	
2449	0	32864	32750	
2450	0	32776	32671	
2451	0	32868	32647	
2452	0	32828	32876	
2453	0	32804	32762	
2454	0	32868	32774	
2455	0	32798	32743	
2456	0	32836	32774	
2457	0	32838	32684	
2458	0	32810	32775	
2459	0	32768	32756	
2460	0	32820	32714	
2461	0	32812	32688	
2462	0	32812	32800	
2463	0	32726	32642	
2464	0	32782	32775	
2465	0	32804	32772	
2466	0	32848	32742	
2467	0	32860	32782	
2468	0	32792	32761	
2469	0	32798	32890	
2470	0	32780	32730	
2471	0	32776	32736	
2472	0	32792	32614	
2473	0	32820	32838	
2474	0	32860	32897	
2475	0	32814	32724	
2476	0	32720	32762	
2477	0	32812	32775	
2478	0	32836	32708	
2479	0	32836	32732	
2480	0	32840	32805	
2481	0	32836	32721	
2482	0	32848	32755	
2483	0	32820	32743	
2484	0	32796	32708	
2485	0	32864	32772	
2486	0	32820	32742	
2487	0	32824	32824	
2488	0	32772	32839	
2489	0	32876	32832	
2490	0	32816	32872	
2491	0	32806	32860	
2492	0	32884	32716	
2493	0	32736	32876	
2494	0	32768	32824	
2495	0	32814	32684	
2496	0	32848	32828	
2497	0	32796	32822	
2498	0	32872	32706	
2499	0	32768	32798	
2500	0	32804	32794	
2501	0	32768	32679	
2502	0	32840	32799	
2503	0	32848	32772	
2504	0	32848	32686	
2505	0	32856	32772	
2506	0	32780	32853	
2507	0	32804	32740	
2508	0	32772	32828	
2509	0	32836	32817	
2510	0	32822	32802	
2511	0	32808	32664	
2512	0	32762	32764	
2513	0	32724	32716	
2514	0	32732	32844	
2515	0	32800	32768	
2516	0	32808	32760	
2517	0	32866	32742	
2518	0	32784	32722	
2519	0	32872	32668	
2520	0	32852	32832	
2521	0	32837	32775	
2522	0	32876	32686	
2523	0	32864	32759	
2524	0	32844	32802	
2525	0	32824	32800	
2526	0	32808	32750	
2527	0	32866	32772	
2528	0	32752	32854	
2529	0	32808	32868	
2530	0	32831	32702	
2531	0	32773	32746	
2532	0	32800	32750	
2533	0	32814	32738	
2534	0	32772	32852	
2535	0	32780	32775	
2536	0	32816	32812	
2537	0	32764	32743	
2538	0	32810	32762	
2539	0	32880	32703	
2540	0	32808	32750	
2541	0	32822	32754	
2542	0	32820	32856	
2543	0	32774	32742	
2544	0	32820	32756	
2545	0	32792	32804	
2546	0	32804	32752	
2547	0	32856	32775	
2548	0	32800	32754	
2549	0	32824	32796	
2550	0	32856	32801	
2551	0	32838	32711	
2552	0	32776	32718	
2553	0	32800	32802	
2554	0	32828	32846	
2555	0	32836	32735	
2556	0	32768	32878	
2557	0	32852	32800	
2558	0	32872	32687	
2559	0	32856	32750	
2560	0	32820	32842	
2561	0	32852	32740	
2562	0	32810	32678	
2563	0	32766	32700	
2564	0	32800	32726	
2565	0	32824	32816	
2566	0	32788	32710	
2567	0	32878	32804	
2568	0	32792	32768	
2569	0	32796	32740	
2570	0	32816	32808	
2571	0	32762	32710	
2572	0	32808	32678	
2573	0	32784	32838	
2574	0	32800	32898	
2575	0	32748	32750	
2576	0	32776	32808	
2577	0	32748	32854	
2578	0	32800	32647	
2579	0	32830	32710	
2580	0	32840	32743	
2581	0	32776	32730	
2582	0	32862	32828	
2583	0	32828	32852	
2584	0	32906	32719	
2585	0	32864	32814	
2586	0	32900	32814	
2587	0	32800	32792	
2588	0	32812	32725	
2589	0	32786	32708	
2590	0	32818	32712	
2591	0	32840	32815	
2592	0	32824	32780	
2593	0	32804	32686	
2594	0	32740	32770	
2595	0	32844	32775	
2596	0	32820	32671	
2597	0	32856	32892	
2598	0	32830	32816	
2599	0	32864	32639	
2600	0	32834	32726	
2601	0	32796	32732	
2602	0	32816	32638	
2603	0	32806	32775	
2604	0	32842	32762	
2605	0	32798	32684	
2606	0	32788	32800	
2607	0	32816	32855	
2608	0	32800	32679	
2609	0	32838	32818	
2610	0	32836	32774	
2611	0	32776	32711	
2612	0	32840	32808	
2613	0	32828	32814	
2614	0	32812	32788	
2615	0	32892	32716	
2616	0	32764	32775	
2617	0	32842	32644	
2618	0	32782	32811	
2619	0	32780	32727	
2620	0	32805	32792	
2621	0	32796	32748	
2622	0	32832	32757	
2623	0	32828	32895	
2624	0	32772	32689	
2625	0	32816	32806	
2626	0	32804	32814	
2627	0	32840	32680	
2628	0	32860	32810	
2629	0	32712	32700	
2630	0	32814	32756	
2631	0	32792	32697	
2632	0	32776	32775	
2633	0	32834	32764	
2634	0	32808	32768	
2635	0	32850	32775	
2636	0	32832	32867	
2637	0	32796	32695	
2638	0	32820	32724	
2639	0	32786	32807	
2640	0	32812	32702	
2641	0	32782	32822	
2642	0	32804	32817	
2643	0	32792	32676	
2644	0	32786	32788	
2645	0	32836	32913	
2646	0	32824	32716	
2647	0	32812	32750	
2648	0	32885	32760	
2649	0	32862	32740	
2650	0	32856	32789	
2651	0	32782	32758	
2652	0	32868	32748	
2653	0	32780	32802	
2654	0	32778	32694	
2655	0	32844	32754	
2656	0	32796	32868	
2657	0	32812	32704	
2658	0	32820	32807	
2659	0	32764	32754	
2660	0	32864	32672	
2661	0	32812	32767	
2662	0	32840	32734	
2663	0	32736	32695	
2664	0	32866	32704	
2665	0	32792	32730	
2666	0	32808	32867	
2667	0	32802	32794	
2668	0	32794	32748	
2669	0	32782	32774	
2670	0	32788	32828	
2671	0	32832	32706	
2672	0	32800	32866	
2673	0	32806	32840	
2674	0	32828	32662	
2675	0	32870	32756	
2676	0	32832	32807	
2677	0	32808	32726	
2678	0	32764	32743	
2679	0	32838	32832	
2680	0	32872	32834	
2681	0	32800	32841	
2682	0	32796	32740	
2683	0	32860	32720	
2684	0	32804	32692	
2685	0	32822	32876	
2686	0	32790	32794	
2687	0	32784	32708	
2688	0	32820	32798	
2689	0	32780	32769	
2690	0	32836	32631	
2691	0	32848	32801	
2692	0	32808	32687	
2693	0	32752	32721	
2694	0	32850	32796	
2695	0	32788	32839	
2696	0	32880	32668	
2697	0	32816	32739	
2698	0	32896	32823	
2699	0	32784	32708	
