# OpenSignals Text File Format. Version 1
# {"00:07:80:8C:0A:39": {"position": 0, "device": "biosignalsplux", "device name": "00:07:80:8C:0A:39", "device connection": "BTH00:07:80:8C:0A:39", "sampling rate": 1000, "resolution": [16, 16], "firmware version": 776, "comments": "", "keywords": "", "mode": 0, "sync interval": 2, "date": "2023-3-19", "time": "11:3:47.287", "channels": [1, 2], "sensor": ["EMG", "EMG"], "label": ["CH1", "CH2"], "column": ["nSeq", "DI", "CH1", "CH2"], "special": [{"SpO2": [80, 40, 5, 4, 3, 3]}, {"SpO2": [80, 40, 5, 4, 3, 3]}, {"SpO2": [80, 40, 5, 4, 3, 3]}, {"SpO2": [80, 40, 5, 4, 3, 3]}, {"SpO2": [80, 40, 5, 4, 3, 3]}, {"SpO2": [80, 40, 5, 4, 3, 3]}, {"SpO2": [80, 40, 5, 4, 3, 3]}, {"SpO2": [80, 40, 5, 4, 3, 3]}], "digital IO": [0, 1], "sleeve color": ["gray", "yellow"], "convertedValues": 0}}
# EndOfHeader
0	0	33016	32553	
1	0	32988	32502	
2	0	32980	32552	
3	0	32930	32614	
4	0	32940	32594	
5	0	32944	32661	
6	0	32968	32587	
7	0	32924	32718	
8	0	32926	32752	
9	0	32860	32583	
10	0	32888	32734	
11	0	32892	32749	
12	0	32868	32700	
13	0	32840	32682	
14	0	32852	32702	
15	0	32812	32706	
16	0	32892	32750	
17	0	32771	32727	
18	0	32796	32716	
19	0	32788	32742	
20	0	32848	32796	
21	0	32840	32790	
22	0	32824	32678	
23	0	32740	32775	
24	0	32784	32756	
25	0	32760	32657	
26	0	32764	32772	
27	0	32872	32756	
28	0	32804	32689	
29	0	32850	32879	
30	0	32810	32762	
31	0	32832	32791	
32	0	32828	32762	
33	0	32800	32854	
34	0	32792	32842	
35	0	32804	32743	
36	0	32776	32826	
37	0	32728	32756	
38	0	32798	32680	
39	0	32808	32866	
40	0	32780	32830	
41	0	32722	32856	
42	0	32804	32760	
43	0	32804	32798	
44	0	32836	32855	
45	0	32774	32658	
46	0	32794	32746	
47	0	32776	32750	
48	0	32824	32836	
49	0	32770	32856	
50	0	32860	32820	
51	0	32736	32718	
52	0	32768	32852	
53	0	32816	32739	
54	0	32754	32822	
55	0	32798	32694	
56	0	32868	32750	
57	0	32796	32763	
58	0	32828	32838	
59	0	32862	32696	
60	0	32792	32750	
61	0	32836	32822	
62	0	32812	32839	
63	0	32856	32686	
64	0	32860	32804	
65	0	32822	32764	
66	0	32820	32799	
67	0	32834	32738	
68	0	32772	32716	
69	0	32860	32839	
70	0	32852	32884	
71	0	32844	32754	
72	0	32828	32740	
73	0	32812	32722	
74	0	32844	32775	
75	0	32840	32767	
76	0	32798	32774	
77	0	32862	32696	
78	0	32814	32742	
79	0	32868	32897	
80	0	32824	32816	
81	0	32854	32884	
82	0	32784	32716	
83	0	32856	32754	
84	0	32900	32774	
85	0	32800	32788	
86	0	32756	32735	
87	0	32876	32624	
88	0	32730	32750	
89	0	32794	32792	
90	0	32756	32734	
91	0	32804	32839	
92	0	32756	32727	
93	0	32738	32754	
94	0	32800	32834	
95	0	32856	32758	
96	0	32796	32671	
97	0	32806	32798	
98	0	32852	32794	
99	0	32792	32766	
100	0	32824	32636	
101	0	32804	32795	
102	0	32776	32740	
103	0	32760	32744	
104	0	32848	32829	
105	0	32836	32697	
106	0	32784	32699	
107	0	32776	32751	
108	0	32864	32769	
109	0	32794	32668	
110	0	32830	32832	
111	0	32852	32788	
112	0	32820	32720	
113	0	32793	32762	
114	0	32776	32807	
115	0	32832	32807	
116	0	32804	32732	
117	0	32828	32714	
118	0	32788	32775	
119	0	32808	32742	
120	0	32836	32812	
121	0	32824	32729	
122	0	32848	32798	
123	0	32767	32756	
124	0	32862	32796	
125	0	32816	32775	
126	0	32772	32680	
127	0	32778	32788	
128	0	32756	32668	
129	0	32760	32736	
130	0	32802	32806	
131	0	32812	32676	
132	0	32872	32752	
133	0	32884	32740	
134	0	32810	32887	
135	0	32836	32716	
136	0	32820	32816	
137	0	32868	32772	
138	0	32936	32680	
139	0	32820	32774	
140	0	32848	32754	
141	0	32784	32754	
142	0	32812	32804	
143	0	32860	32754	
144	0	32820	32719	
145	0	32838	32810	
146	0	32864	32728	
147	0	32832	32839	
148	0	32788	32775	
149	0	32796	32807	
150	0	32850	32794	
151	0	32718	32888	
152	0	32708	32839	
153	0	32808	32671	
154	0	32808	32742	
155	0	32744	32690	
156	0	32748	32724	
157	0	32804	32708	
158	0	32764	32739	
159	0	32782	32870	
160	0	32790	32832	
161	0	32842	32740	
162	0	32832	32740	
163	0	32832	32764	
164	0	32756	32770	
165	0	32804	32686	
166	0	32812	32815	
167	0	32808	32770	
168	0	32872	32910	
169	0	32784	32642	
170	0	32858	32868	
171	0	32824	32775	
172	0	32848	32703	
173	0	32836	32742	
174	0	32752	32839	
175	0	32792	32750	
176	0	32821	32854	
177	0	32796	32728	
178	0	32816	32852	
179	0	32798	32738	
180	0	32792	32770	
181	0	32852	32824	
182	0	32820	32802	
183	0	32806	32818	
184	0	32844	32852	
185	0	32848	32682	
186	0	32800	32790	
187	0	32788	32732	
188	0	32832	32828	
189	0	32832	32641	
190	0	32768	32756	
191	0	32782	32686	
192	0	32846	32688	
193	0	32734	32700	
194	0	32756	32766	
195	0	32836	32774	
196	0	32836	32704	
197	0	32832	32848	
198	0	32840	32748	
199	0	32848	32820	
200	0	32796	32820	
201	0	32852	32721	
202	0	32820	32879	
203	0	32792	32828	
204	0	32788	32796	
205	0	32800	32788	
206	0	32898	32682	
207	0	32780	32748	
208	0	32832	32775	
209	0	32800	32706	
210	0	32824	32806	
211	0	32762	32796	
212	0	32916	32766	
213	0	32810	32897	
214	0	32800	32703	
215	0	32766	32836	
216	0	32816	32796	
217	0	32824	32744	
218	0	32788	32757	
219	0	32820	32724	
220	0	32748	32772	
221	0	32722	32822	
222	0	32824	32678	
223	0	32844	32704	
224	0	32816	32764	
225	0	32772	32742	
226	0	32800	32836	
227	0	32748	32655	
228	0	32808	32748	
229	0	32774	32804	
230	0	32790	32854	
231	0	32752	32703	
232	0	32837	32852	
233	0	32830	32808	
234	0	32788	32759	
235	0	32756	32724	
236	0	32816	32894	
237	0	32820	32792	
238	0	32814	32736	
239	0	32828	32800	
240	0	32812	32711	
241	0	32848	32759	
242	0	32804	32807	
243	0	32864	32902	
244	0	32848	32750	
245	0	32849	32670	
246	0	32776	32830	
247	0	32762	32734	
248	0	32798	32694	
249	0	32794	32788	
250	0	32808	32814	
251	0	32784	32806	
252	0	32788	32822	
253	0	32808	32704	
254	0	32766	32799	
255	0	32788	32800	
256	0	32810	32756	
257	0	32834	32762	
258	0	32852	32780	
259	0	32810	32736	
260	0	32768	32808	
261	0	32778	32732	
262	0	32812	32660	
263	0	32830	32732	
264	0	32760	32824	
265	0	32770	32796	
266	0	32750	32826	
267	0	32712	32738	
268	0	32756	32863	
269	0	32808	32772	
270	0	32840	32872	
271	0	32796	32691	
272	0	32792	32724	
273	0	32816	32775	
274	0	32812	32719	
275	0	32752	32820	
276	0	32836	32768	
277	0	32840	32807	
278	0	32858	32662	
279	0	32844	32748	
280	0	32836	32754	
281	0	32836	32673	
282	0	32752	32708	
283	0	32932	32884	
284	0	32876	32788	
285	0	32786	32738	
286	0	32770	32768	
287	0	32836	32808	
288	0	32896	32775	
289	0	32834	32743	
290	0	32728	32820	
291	0	32764	32700	
292	0	32732	32775	
293	0	32746	32791	
294	0	32832	32679	
295	0	32826	32710	
296	0	32832	32702	
297	0	32769	32880	
298	0	32800	32792	
299	0	32804	32804	
300	0	32824	32730	
301	0	32788	32775	
302	0	32784	32748	
303	0	32878	32698	
304	0	32824	32738	
305	0	32852	32775	
306	0	32860	32728	
307	0	32916	32743	
308	0	32832	32743	
309	0	32792	32638	
310	0	32820	32610	
311	0	32856	32700	
312	0	32788	32758	
313	0	32714	32816	
314	0	32824	32866	
315	0	32834	32774	
316	0	32818	32772	
317	0	32816	32775	
318	0	32844	32818	
319	0	32836	32742	
320	0	32820	32624	
321	0	32832	32810	
322	0	32822	32838	
323	0	32805	32796	
324	0	32872	32801	
325	0	32776	32898	
326	0	32776	32740	
327	0	32798	32794	
328	0	32738	32734	
329	0	32834	32799	
330	0	32847	32818	
331	0	32837	32830	
332	0	32788	32686	
333	0	32876	32612	
334	0	32744	32810	
335	0	32812	32918	
336	0	32784	32886	
337	0	32802	32752	
338	0	32840	32794	
339	0	32782	32775	
340	0	32800	32684	
341	0	32908	32736	
342	0	32824	32742	
343	0	32844	32775	
344	0	32824	32746	
345	0	32820	32711	
346	0	32780	32760	
347	0	32812	32823	
348	0	32824	32748	
349	0	32816	32704	
350	0	32774	32819	
351	0	32874	32775	
352	0	32752	32761	
353	0	32756	32756	
354	0	32788	32834	
355	0	32836	32902	
356	0	32768	32665	
357	0	32884	32854	
358	0	32866	32824	
359	0	32852	32734	
360	0	32820	32788	
361	0	32790	32720	
362	0	32830	32684	
363	0	32837	32862	
364	0	32818	32766	
365	0	32775	32820	
366	0	32856	32838	
367	0	32808	32756	
368	0	32844	32746	
369	0	32860	32806	
370	0	32844	32775	
371	0	32878	32836	
372	0	32868	32890	
373	0	32784	32760	
374	0	32785	32752	
375	0	32784	32807	
376	0	32804	32774	
377	0	32802	32756	
378	0	32775	32698	
379	0	32732	32775	
380	0	32888	32656	
381	0	32842	32740	
382	0	32764	32764	
383	0	32780	32767	
384	0	32820	32770	
385	0	32772	32770	
386	0	32852	32678	
387	0	32790	32791	
388	0	32832	32839	
389	0	32814	32838	
390	0	32732	32810	
391	0	32860	32844	
392	0	32786	32660	
393	0	32764	32695	
394	0	32746	32725	
395	0	32806	32774	
396	0	32804	32804	
397	0	32810	32846	
398	0	32794	32628	
399	0	32788	32716	
400	0	32828	32762	
401	0	32848	32754	
402	0	32786	32731	
403	0	32780	32775	
404	0	32776	32870	
405	0	32844	32628	
406	0	32788	32670	
407	0	32858	32718	
408	0	32818	32846	
409	0	32786	32724	
410	0	32804	32735	
411	0	32872	32796	
412	0	32804	32699	
413	0	32860	32754	
414	0	32824	32740	
415	0	32900	32820	
416	0	32812	32736	
417	0	32874	32820	
418	0	32864	32780	
419	0	32830	32670	
420	0	32758	32807	
421	0	32733	32854	
422	0	32824	32806	
423	0	32712	32824	
424	0	32816	32852	
425	0	32804	32862	
426	0	32770	32676	
427	0	32804	32825	
428	0	32815	32775	
429	0	32772	32746	
430	0	32796	32724	
431	0	32757	32708	
432	0	32798	32754	
433	0	32768	32716	
434	0	32772	32695	
435	0	32806	32801	
436	0	32814	32840	
437	0	32776	32694	
438	0	32804	32804	
439	0	32825	32756	
440	0	32798	32686	
441	0	32788	32775	
442	0	32852	32743	
443	0	32880	32686	
444	0	32904	32740	
445	0	32804	32790	
446	0	32772	32742	
447	0	32832	32839	
448	0	32800	32688	
449	0	32746	32850	
450	0	32856	32758	
451	0	32816	32807	
452	0	32824	32852	
453	0	32800	32647	
454	0	32808	32732	
455	0	32760	32660	
456	0	32814	32764	
457	0	32754	32836	
458	0	32740	32768	
459	0	32860	32751	
460	0	32836	32732	
461	0	32798	32634	
462	0	32844	32810	
463	0	32856	32792	
464	0	32794	32822	
465	0	32844	32735	
466	0	32756	32678	
467	0	32814	32816	
468	0	32852	32852	
469	0	32834	32764	
470	0	32856	32790	
471	0	32802	32798	
472	0	32812	32785	
473	0	32852	32701	
474	0	32922	32753	
475	0	32828	32830	
476	0	32816	32783	
477	0	32772	32800	
478	0	32812	32728	
479	0	32760	32730	
480	0	32818	32634	
481	0	32812	32676	
482	0	32908	32844	
483	0	32920	32740	
484	0	32824	32769	
485	0	32796	32830	
486	0	32808	32824	
487	0	32816	32728	
488	0	32818	32766	
489	0	32816	32790	
490	0	32816	32670	
491	0	32782	32822	
492	0	32822	32714	
493	0	32748	32750	
494	0	32800	32761	
495	0	32808	32855	
496	0	32756	32874	
497	0	32793	32790	
498	0	32836	32736	
499	0	32824	32718	
500	0	32788	32758	
501	0	32752	32842	
502	0	32824	32718	
503	0	32792	32811	
504	0	32876	32640	
505	0	32806	32746	
506	0	32864	32870	
507	0	32830	32820	
508	0	32854	32752	
509	0	32828	32804	
510	0	32852	32846	
511	0	32776	32757	
512	0	32757	32732	
513	0	32836	32775	
514	0	32784	32908	
515	0	32776	32772	
516	0	32833	32804	
517	0	32808	32692	
518	0	32824	32692	
519	0	32848	32775	
520	0	32828	32807	
521	0	32752	32768	
522	0	32836	32792	
523	0	32844	32763	
524	0	32800	32672	
525	0	32748	32788	
526	0	32800	32775	
527	0	32832	32775	
528	0	32890	32862	
529	0	32830	32802	
530	0	32788	32775	
531	0	32780	32820	
532	0	32742	32775	
533	0	32816	32742	
534	0	32804	32816	
535	0	32804	32768	
536	0	32788	32654	
537	0	32794	32860	
538	0	32806	32756	
539	0	32892	32822	
540	0	32884	32650	
541	0	32764	32804	
542	0	32824	32727	
543	0	32800	32822	
544	0	32740	32826	
545	0	32806	32708	
546	0	32776	32806	
547	0	32796	32770	
548	0	32800	32832	
549	0	32792	32682	
550	0	32808	32658	
551	0	32868	32823	
552	0	32830	32740	
553	0	32828	32800	
554	0	32768	32821	
555	0	32740	32800	
556	0	32756	32682	
557	0	32832	32816	
558	0	32764	32814	
559	0	32782	32804	
560	0	32821	32798	
561	0	32830	32719	
562	0	32856	32629	
563	0	32844	32734	
564	0	32784	32807	
565	0	32822	32841	
566	0	32886	32802	
567	0	32744	32740	
568	0	32822	32791	
569	0	32836	32711	
570	0	32798	32670	
571	0	32772	32756	
572	0	32782	32784	
573	0	32860	32814	
574	0	32862	32786	
575	0	32884	32732	
576	0	32844	32742	
577	0	32836	32868	
578	0	32836	32898	
579	0	32880	32872	
580	0	32822	32834	
581	0	32854	32855	
582	0	32812	32706	
583	0	32832	32791	
584	0	32812	32844	
585	0	32806	32812	
586	0	32792	32775	
587	0	32810	32788	
588	0	32806	32674	
589	0	32816	32854	
590	0	32796	32820	
591	0	32732	32772	
592	0	32816	32796	
593	0	32824	32698	
594	0	32796	32832	
595	0	32844	32814	
596	0	32798	32754	
597	0	32828	32684	
598	0	32834	32633	
599	0	32820	32722	
600	0	32832	32839	
601	0	32844	32765	
602	0	32782	32798	
603	0	32804	32824	
604	0	32912	32754	
605	0	32892	32802	
606	0	32864	32866	
607	0	32828	32816	
608	0	32780	32820	
609	0	32836	32695	
610	0	32800	32752	
611	0	32796	32846	
612	0	32802	32786	
613	0	32832	32812	
614	0	32764	32699	
615	0	32736	32768	
616	0	32734	32728	
617	0	32756	32674	
618	0	32834	32664	
619	0	32792	32679	
620	0	32844	32760	
621	0	32796	32753	
622	0	32816	32758	
623	0	32806	32711	
624	0	32818	32788	
625	0	32840	32762	
626	0	32852	32850	
627	0	32832	32903	
628	0	32820	32772	
629	0	32832	32788	
630	0	32810	32860	
631	0	32868	32710	
632	0	32810	32702	
633	0	32792	32754	
634	0	32814	32743	
635	0	32788	32839	
636	0	32744	32796	
637	0	32774	32678	
638	0	32776	32700	
639	0	32760	32762	
640	0	32824	32794	
641	0	32848	32759	
642	0	32796	32771	
643	0	32796	32860	
644	0	32774	32806	
645	0	32812	32870	
646	0	32836	32728	
647	0	32772	32774	
648	0	32828	32734	
649	0	32840	32754	
650	0	32788	32828	
651	0	32852	32698	
652	0	32900	32789	
653	0	32816	32855	
654	0	32824	32775	
655	0	32806	32814	
656	0	32768	32700	
657	0	32806	32710	
658	0	32720	32892	
659	0	32834	32768	
660	0	32808	32838	
661	0	32838	32769	
662	0	32840	32848	
663	0	32832	32810	
664	0	32856	32750	
665	0	32848	32711	
666	0	32794	32727	
667	0	32812	32786	
668	0	32884	32694	
669	0	32832	32824	
670	0	32822	32764	
671	0	32750	32695	
672	0	32724	32744	
673	0	32724	32758	
674	0	32792	32684	
675	0	32758	32775	
676	0	32844	32823	
677	0	32804	32662	
678	0	32804	32756	
679	0	32860	32804	
680	0	32880	32728	
681	0	32802	32744	
682	0	32780	32766	
683	0	32808	32732	
684	0	32852	32784	
685	0	32820	32751	
686	0	32832	32724	
687	0	32844	32694	
688	0	32800	32852	
689	0	32818	32846	
690	0	32826	32775	
691	0	32840	32708	
692	0	32834	32852	
693	0	32796	32766	
694	0	32796	32788	
695	0	32828	32648	
696	0	32808	32662	
697	0	32730	32839	
698	0	32798	32767	
699	0	32708	32874	
700	0	32796	32756	
701	0	32802	32766	
702	0	32764	32766	
703	0	32828	32754	
704	0	32804	32860	
705	0	32796	32807	
706	0	32714	32740	
707	0	32774	32855	
708	0	32758	32775	
709	0	32764	32676	
710	0	32804	32775	
711	0	32828	32794	
712	0	32802	32716	
713	0	32872	32799	
714	0	32848	32724	
715	0	32820	32743	
716	0	32884	32830	
717	0	32852	32742	
718	0	32820	32687	
719	0	32840	32775	
720	0	32812	32748	
721	0	32896	32800	
722	0	32802	32824	
723	0	32828	32742	
724	0	32824	32826	
725	0	32818	32828	
726	0	32790	32824	
727	0	32750	32750	
728	0	32824	32810	
729	0	32760	32737	
730	0	32772	32775	
731	0	32820	32762	
732	0	32812	32821	
733	0	32810	32798	
734	0	32802	32764	
735	0	32804	32828	
736	0	32786	32658	
737	0	32810	32752	
738	0	32804	32728	
739	0	32862	32852	
740	0	32820	32700	
741	0	32817	32722	
742	0	32848	32812	
743	0	32840	32800	
744	0	32768	32799	
745	0	32772	32788	
746	0	32816	32734	
747	0	32880	32714	
748	0	32820	32830	
749	0	32788	32734	
750	0	32792	32839	
751	0	32810	32775	
752	0	32778	32786	
753	0	32800	32676	
754	0	32820	32719	
755	0	32840	32712	
756	0	32762	32820	
757	0	32766	32824	
758	0	32880	32744	
759	0	32824	32810	
760	0	32840	32792	
761	0	32810	32852	
762	0	32822	32756	
763	0	32844	32764	
764	0	32772	32754	
765	0	32818	32803	
766	0	32777	32810	
767	0	32800	32697	
768	0	32852	32796	
769	0	32880	32758	
770	0	32816	32804	
771	0	32860	32775	
772	0	32828	32673	
773	0	32822	32922	
774	0	32821	32760	
775	0	32732	32852	
776	0	32820	32679	
777	0	32852	32740	
778	0	32854	32788	
779	0	32804	32815	
780	0	32756	32870	
781	0	32860	32714	
782	0	32812	32746	
783	0	32892	32812	
784	0	32832	32835	
785	0	32796	32656	
786	0	32784	32784	
787	0	32812	32841	
788	0	32799	32712	
789	0	32842	32752	
790	0	32852	32700	
791	0	32853	32775	
792	0	32746	32735	
793	0	32728	32764	
794	0	32824	32775	
795	0	32806	32686	
796	0	32816	32794	
797	0	32765	32775	
798	0	32796	32802	
799	0	32756	32718	
800	0	32746	32615	
801	0	32780	32766	
802	0	32856	32806	
803	0	32774	32806	
804	0	32798	32711	
805	0	32809	32774	
806	0	32806	32860	
807	0	32820	32706	
808	0	32752	32788	
809	0	32838	32687	
810	0	32816	32846	
811	0	32816	32775	
812	0	32784	32826	
813	0	32806	32652	
814	0	32764	32764	
815	0	32792	32788	
816	0	32840	32726	
817	0	32820	32647	
818	0	32776	32732	
819	0	32804	32740	
820	0	32786	32775	
821	0	32796	32762	
822	0	32776	32862	
823	0	32826	32742	
824	0	32812	32722	
825	0	32820	32807	
826	0	32894	32756	
827	0	32840	32836	
828	0	32820	32775	
829	0	32818	32816	
830	0	32814	32846	
831	0	32800	32762	
832	0	32800	32801	
833	0	32786	32839	
834	0	32872	32743	
835	0	32778	32814	
836	0	32820	32816	
837	0	32808	32742	
838	0	32770	32652	
839	0	32836	32830	
840	0	32784	32820	
841	0	32800	32842	
842	0	32798	32702	
843	0	32804	32714	
844	0	32849	32872	
845	0	32894	32772	
846	0	32790	32840	
847	0	32748	32708	
848	0	32786	32679	
849	0	32806	32676	
850	0	32800	32791	
851	0	32856	32726	
852	0	32892	32785	
853	0	32882	32740	
854	0	32816	32826	
855	0	32869	32804	
856	0	32804	32708	
857	0	32810	32734	
858	0	32818	32750	
859	0	32780	32775	
860	0	32758	32738	
861	0	32872	32799	
862	0	32800	32824	
863	0	32822	32808	
864	0	32809	32708	
865	0	32872	32724	
866	0	32796	32756	
867	0	32836	32864	
868	0	32796	32788	
869	0	32750	32756	
870	0	32800	32741	
871	0	32746	32700	
872	0	32800	32732	
873	0	32718	32775	
874	0	32726	32832	
875	0	32768	32847	
876	0	32844	32826	
877	0	32854	32828	
878	0	32824	32708	
879	0	32796	32714	
880	0	32832	32698	
881	0	32902	32688	
882	0	32836	32639	
883	0	32896	32750	
884	0	32948	32584	
885	0	32900	32624	
886	0	32960	32725	
887	0	32940	32616	
888	0	32924	32616	
889	0	32908	32623	
890	0	32966	32540	
891	0	32913	32592	
892	0	32920	32648	
893	0	32948	32615	
894	0	32956	32692	
895	0	32930	32686	
896	0	33028	32576	
897	0	32948	32692	
898	0	32864	32798	
899	0	32828	32750	
900	0	32802	32751	
901	0	32777	32818	
902	0	32700	32902	
903	0	32584	32914	
904	0	32496	33014	
905	0	32480	33048	
906	0	32442	33100	
907	0	32380	33159	
908	0	32322	33514	
909	0	32216	33502	
910	0	32376	33222	
911	0	32536	33031	
912	0	32660	32988	
913	0	32708	32844	
914	0	32788	32835	
915	0	32744	32846	
916	0	32775	32759	
917	0	32796	32792	
918	0	32886	32736	
919	0	32836	32816	
920	0	32804	32679	
921	0	32926	32720	
922	0	32956	32519	
923	0	32968	32544	
924	0	33086	32442	
925	0	33066	32484	
926	0	32970	32572	
927	0	32956	32524	
928	0	32976	32506	
929	0	32976	32565	
930	0	32962	32542	
931	0	32913	32694	
932	0	32884	32647	
933	0	32954	32634	
934	0	32914	32714	
935	0	32847	32594	
936	0	32916	32614	
937	0	32800	32774	
938	0	32864	32692	
939	0	32834	32764	
940	0	32824	32814	
941	0	32872	32695	
942	0	32918	32730	
943	0	32862	32750	
944	0	32816	32698	
945	0	32826	32828	
946	0	32728	32695	
947	0	32820	32812	
948	0	32880	32775	
949	0	32730	32802	
950	0	32810	32862	
951	0	32846	32870	
952	0	32740	32740	
953	0	32752	32716	
954	0	32814	32887	
955	0	32768	32743	
956	0	32796	32810	
957	0	32821	32841	
958	0	32804	32735	
959	0	32822	32728	
960	0	32828	32870	
961	0	32856	32740	
962	0	32796	32809	
963	0	32800	32800	
964	0	32834	32692	
965	0	32892	32622	
966	0	32728	32740	
967	0	32722	32756	
968	0	32788	32828	
969	0	32744	32679	
970	0	32776	32672	
971	0	32852	32802	
972	0	32758	32760	
973	0	32852	32751	
974	0	32770	32871	
975	0	32794	32809	
976	0	32800	32775	
977	0	32736	32656	
978	0	32832	32856	
979	0	32828	32746	
980	0	32804	32844	
981	0	32804	32684	
982	0	32752	32725	
983	0	32780	32748	
984	0	32812	32798	
985	0	32838	32736	
986	0	32828	32716	
987	0	32808	32774	
988	0	32868	32827	
989	0	32800	32847	
990	0	32832	32846	
991	0	32768	32684	
992	0	32856	32704	
993	0	32754	32704	
994	0	32824	32858	
995	0	32768	32831	
996	0	32864	32884	
997	0	32804	32708	
998	0	32784	32684	
999	0	32888	32833	
1000	0	32720	32798	
1001	0	32793	32708	
1002	0	32788	32678	
1003	0	32800	32816	
1004	0	32844	32775	
1005	0	32832	32839	
1006	0	32792	32738	
1007	0	32788	32756	
1008	0	32788	32885	
1009	0	32864	32812	
1010	0	32796	32839	
1011	0	32810	32758	
1012	0	32828	32798	
1013	0	32830	32748	
1014	0	32840	32708	
1015	0	32768	32840	
1016	0	32792	32819	
1017	0	32802	32740	
1018	0	32800	32716	
1019	0	32866	32768	
1020	0	32852	32668	
1021	0	32768	32751	
1022	0	32804	32810	
1023	0	32870	32721	
1024	0	32825	32816	
1025	0	32768	32668	
1026	0	32802	32714	
1027	0	32800	32835	
1028	0	32760	32793	
1029	0	32776	32775	
1030	0	32780	32679	
1031	0	32816	32775	
1032	0	32784	32751	
1033	0	32824	32775	
1034	0	32845	32752	
1035	0	32836	32874	
1036	0	32864	32794	
1037	0	32756	32690	
1038	0	32812	32742	
1039	0	32828	32764	
1040	0	32850	32812	
1041	0	32808	32758	
1042	0	32856	32842	
1043	0	32778	32734	
1044	0	32844	32839	
1045	0	32804	32857	
1046	0	32840	32722	
1047	0	32806	32743	
1048	0	32804	32818	
1049	0	32770	32831	
1050	0	32788	32790	
1051	0	32828	32796	
1052	0	32719	32754	
1053	0	32852	32734	
1054	0	32836	32655	
1055	0	32804	32775	
1056	0	32792	32810	
1057	0	32768	32675	
1058	0	32828	32744	
1059	0	32848	32789	
1060	0	32804	32733	
1061	0	32836	32884	
1062	0	32800	32722	
1063	0	32844	32728	
1064	0	32836	32872	
1065	0	32908	32713	
1066	0	32868	32711	
1067	0	32784	32664	
1068	0	32824	32732	
1069	0	32796	32798	
1070	0	32824	32724	
1071	0	32812	32748	
1072	0	32820	32775	
1073	0	32744	32700	
1074	0	32772	32742	
1075	0	32848	32886	
1076	0	32834	32762	
1077	0	32816	32770	
1078	0	32802	32866	
1079	0	32828	32679	
1080	0	32776	32725	
1081	0	32792	32710	
1082	0	32780	32766	
1083	0	32822	32756	
1084	0	32824	32727	
1085	0	32852	32664	
1086	0	32792	32686	
1087	0	32800	32862	
1088	0	32836	32775	
1089	0	32768	32847	
1090	0	32832	32924	
1091	0	32779	32734	
1092	0	32802	32744	
1093	0	32824	32772	
1094	0	32810	32796	
1095	0	32824	32751	
1096	0	32758	32784	
1097	0	32792	32700	
1098	0	32808	32746	
1099	0	32780	32767	
1100	0	32814	32766	
1101	0	32832	32796	
1102	0	32804	32711	
1103	0	32884	32598	
1104	0	32808	32790	
1105	0	32832	32756	
1106	0	32756	32730	
1107	0	32836	32766	
1108	0	32740	32710	
1109	0	32856	32682	
1110	0	32796	32758	
1111	0	32798	32842	
1112	0	32864	32846	
1113	0	32818	32786	
1114	0	32836	32742	
1115	0	32828	32826	
1116	0	32812	32722	
1117	0	32808	32679	
1118	0	32844	32744	
1119	0	32836	32786	
1120	0	32804	32788	
1121	0	32830	32794	
1122	0	32828	32846	
1123	0	32924	32733	
1124	0	32810	32663	
1125	0	32808	32707	
1126	0	32816	32836	
1127	0	32732	32800	
1128	0	32884	32826	
1129	0	32806	32718	
1130	0	32792	32772	
1131	0	32752	32804	
1132	0	32782	32711	
1133	0	32752	32759	
1134	0	32815	32790	
1135	0	32796	32824	
1136	0	32823	32766	
1137	0	32816	32730	
1138	0	32840	32686	
1139	0	32872	32758	
1140	0	32816	32807	
1141	0	32756	32812	
1142	0	32902	32716	
1143	0	32776	32860	
1144	0	32762	32719	
1145	0	32768	32634	
1146	0	32808	32738	
1147	0	32800	32712	
1148	0	32852	32746	
1149	0	32810	32809	
1150	0	32770	32748	
1151	0	32788	32788	
1152	0	32792	32798	
1153	0	32825	32806	
1154	0	32812	32720	
1155	0	32778	32840	
1156	0	32804	32712	
1157	0	32810	32689	
1158	0	32768	32658	
1159	0	32740	32763	
1160	0	32752	32814	
1161	0	32846	32814	
1162	0	32841	32856	
1163	0	32800	32775	
1164	0	32770	32807	
1165	0	32844	32876	
1166	0	32748	32846	
1167	0	32836	32758	
1168	0	32756	32758	
1169	0	32836	32743	
1170	0	32846	32788	
1171	0	32764	32742	
1172	0	32842	32838	
1173	0	32801	32750	
1174	0	32736	32926	
1175	0	32778	32694	
1176	0	32782	32684	
1177	0	32700	32852	
1178	0	32764	32775	
1179	0	32820	32832	
1180	0	32744	32728	
1181	0	32772	32750	
1182	0	32816	32766	
1183	0	32828	32823	
1184	0	32768	32692	
1185	0	32838	32774	
1186	0	32772	32664	
1187	0	32788	32792	
1188	0	32852	32646	
1189	0	32836	32748	
1190	0	32808	32775	
1191	0	32830	32836	
1192	0	32780	32879	
1193	0	32848	32735	
1194	0	32812	32812	
1195	0	32836	32802	
1196	0	32846	32832	
1197	0	32786	32742	
1198	0	32768	32775	
1199	0	32766	32775	
1200	0	32864	32774	
1201	0	32754	32746	
1202	0	32764	32770	
1203	0	32824	32832	
1204	0	32818	32770	
1205	0	32804	32706	
1206	0	32792	32918	
1207	0	32748	32796	
1208	0	32800	32736	
1209	0	32856	32716	
1210	0	32812	32754	
1211	0	32788	32775	
1212	0	32816	32772	
1213	0	32828	32788	
1214	0	32856	32636	
1215	0	32778	32694	
1216	0	32794	32802	
1217	0	32858	32814	
1218	0	32801	32820	
1219	0	32820	32774	
1220	0	32754	32706	
1221	0	32844	32714	
1222	0	32878	32800	
1223	0	32826	32796	
1224	0	32844	32871	
1225	0	32820	32735	
1226	0	32802	32775	
1227	0	32830	32815	
1228	0	32846	32839	
1229	0	32758	32720	
1230	0	32870	32806	
1231	0	32820	32836	
1232	0	32836	32758	
1233	0	32746	32852	
1234	0	32774	32646	
1235	0	32776	32748	
1236	0	32846	32758	
1237	0	32784	32772	
1238	0	32836	32775	
1239	0	32793	32814	
1240	0	32808	32804	
1241	0	32824	32750	
1242	0	32872	32750	
1243	0	32808	32766	
1244	0	32862	32742	
1245	0	32864	32817	
1246	0	32760	32775	
1247	0	32836	32710	
1248	0	32814	32705	
1249	0	32828	32751	
1250	0	32792	32783	
1251	0	32788	32660	
1252	0	32800	32800	
1253	0	32784	32742	
1254	0	32814	32826	
1255	0	32760	32724	
1256	0	32832	32908	
1257	0	32860	32806	
1258	0	32856	32847	
1259	0	32860	32760	
1260	0	32800	32805	
1261	0	32848	32734	
1262	0	32822	32750	
1263	0	32802	32732	
1264	0	32802	32754	
1265	0	32836	32826	
1266	0	32854	32798	
1267	0	32840	32766	
1268	0	32826	32784	
1269	0	32820	32748	
1270	0	32745	32736	
1271	0	32770	32764	
1272	0	32806	32775	
1273	0	32784	32832	
1274	0	32752	32750	
1275	0	32834	32854	
1276	0	32826	32700	
1277	0	32776	32660	
1278	0	32808	32742	
1279	0	32840	32741	
1280	0	32862	32772	
1281	0	32804	32804	
1282	0	32820	32760	
1283	0	32888	32808	
1284	0	32840	32846	
1285	0	32820	32775	
1286	0	32740	32808	
1287	0	32796	32843	
1288	0	32804	32660	
1289	0	32827	32710	
1290	0	32802	32815	
1291	0	32818	32774	
1292	0	32784	32746	
1293	0	32784	32687	
1294	0	32784	32816	
1295	0	32808	32831	
1296	0	32792	32689	
1297	0	32804	32814	
1298	0	32814	32755	
1299	0	32788	32866	
1300	0	32705	32775	
1301	0	32804	32678	
1302	0	32824	32710	
1303	0	32788	32807	
1304	0	32820	32795	
1305	0	32834	32742	
1306	0	32864	32812	
1307	0	32784	32680	
1308	0	32744	32740	
1309	0	32738	32742	
1310	0	32832	32866	
1311	0	32770	32618	
1312	0	32836	32796	
1313	0	32720	32750	
1314	0	32800	32721	
1315	0	32804	32754	
1316	0	32832	32754	
1317	0	32836	32775	
1318	0	32820	32784	
1319	0	32844	32702	
1320	0	32833	32772	
1321	0	32858	32727	
1322	0	32820	32719	
1323	0	32862	32817	
1324	0	32844	32735	
1325	0	32768	32774	
1326	0	32832	32879	
1327	0	32798	32788	
1328	0	32794	32788	
1329	0	32800	32679	
1330	0	32824	32775	
1331	0	32856	32768	
1332	0	32792	32766	
1333	0	32890	32646	
1334	0	32704	32692	
1335	0	32870	32870	
1336	0	32792	32775	
1337	0	32776	32812	
1338	0	32796	32740	
1339	0	32769	32872	
1340	0	32824	32736	
1341	0	32836	32804	
1342	0	32836	32752	
1343	0	32848	32775	
1344	0	32776	32801	
1345	0	32826	32770	
1346	0	32856	32742	
1347	0	32828	32846	
1348	0	32885	32825	
1349	0	32784	32852	
1350	0	32788	32798	
1351	0	32844	32686	
1352	0	32866	32766	
1353	0	32836	32756	
1354	0	32816	32756	
1355	0	32828	32752	
1356	0	32792	32720	
1357	0	32788	32903	
1358	0	32816	32764	
1359	0	32868	32775	
1360	0	32772	32733	
1361	0	32720	32740	
1362	0	32802	32792	
1363	0	32748	32775	
1364	0	32866	32816	
1365	0	32812	32754	
1366	0	32836	32788	
1367	0	32888	32836	
1368	0	32792	32788	
1369	0	32770	32823	
1370	0	32732	32676	
1371	0	32754	32712	
1372	0	32850	32766	
1373	0	32852	32789	
1374	0	32756	32830	
1375	0	32774	32751	
1376	0	32808	32860	
1377	0	32804	32768	
1378	0	32824	32754	
1379	0	32828	32775	
1380	0	32800	32726	
1381	0	32772	32704	
1382	0	32824	32876	
1383	0	32792	32732	
1384	0	32832	32740	
1385	0	32844	32726	
1386	0	32858	32775	
1387	0	32836	32688	
1388	0	32802	32688	
1389	0	32805	32804	
1390	0	32788	32756	
1391	0	32778	32766	
1392	0	32800	32732	
1393	0	32840	32836	
1394	0	32788	32874	
1395	0	32776	32792	
1396	0	32796	32668	
1397	0	32800	32807	
1398	0	32826	32756	
1399	0	32816	32748	
1400	0	32862	32737	
1401	0	32836	32697	
1402	0	32788	32752	
1403	0	32876	32800	
1404	0	32868	32818	
1405	0	32837	32679	
1406	0	32792	32858	
1407	0	32798	32836	
1408	0	32772	32730	
1409	0	32814	32796	
1410	0	32794	32718	
1411	0	32812	32852	
1412	0	32806	32766	
1413	0	32770	32720	
1414	0	32744	32742	
1415	0	32792	32720	
1416	0	32752	32801	
1417	0	32876	32822	
1418	0	32796	32672	
1419	0	32806	32746	
1420	0	32810	32807	
1421	0	32854	32791	
1422	0	32852	32732	
1423	0	32882	32712	
1424	0	32816	32807	
1425	0	32776	32772	
1426	0	32726	32655	
1427	0	32842	32740	
1428	0	32758	32802	
1429	0	32832	32856	
1430	0	32846	32714	
1431	0	32808	32859	
1432	0	32724	32740	
1433	0	32704	32692	
1434	0	32800	32659	
1435	0	32856	32738	
1436	0	32841	32662	
1437	0	32872	32832	
1438	0	32840	32760	
1439	0	32808	32738	
1440	0	32848	32886	
1441	0	32808	32728	
1442	0	32866	32728	
1443	0	32840	32857	
1444	0	32832	32886	
1445	0	32833	32737	
1446	0	32800	32822	
1447	0	32772	32695	
1448	0	32798	32714	
1449	0	32798	32698	
1450	0	32818	32774	
1451	0	32814	32740	
1452	0	32836	32868	
1453	0	32768	32898	
1454	0	32714	32724	
1455	0	32810	32706	
1456	0	32788	32790	
1457	0	32768	32799	
1458	0	32812	32794	
1459	0	32824	32796	
1460	0	32840	32734	
1461	0	32764	32588	
1462	0	32768	32716	
1463	0	32864	32803	
1464	0	32812	32836	
1465	0	32878	32810	
1466	0	32812	32762	
1467	0	32818	32822	
1468	0	32830	32767	
1469	0	32828	32755	
1470	0	32776	32736	
1471	0	32820	32766	
1472	0	32788	32834	
1473	0	32788	32730	
1474	0	32844	32881	
1475	0	32852	32676	
1476	0	32824	32644	
1477	0	32820	32822	
1478	0	32864	32822	
1479	0	32792	32775	
1480	0	32808	32758	
1481	0	32826	32764	
1482	0	32832	32667	
1483	0	32866	32814	
1484	0	32888	32758	
1485	0	32780	32775	
1486	0	32780	32808	
1487	0	32852	32720	
1488	0	32878	32881	
1489	0	32832	32772	
1490	0	32800	32841	
1491	0	32804	32736	
1492	0	32824	32804	
1493	0	32786	32775	
1494	0	32804	32823	
1495	0	32736	32714	
1496	0	32816	32647	
1497	0	32880	32788	
1498	0	32776	32762	
1499	0	32794	32716	
1500	0	32778	32806	
1501	0	32820	32656	
1502	0	32804	32810	
1503	0	32788	32830	
1504	0	32784	32830	
1505	0	32836	32841	
1506	0	32800	32682	
1507	0	32852	32646	
1508	0	32848	32748	
1509	0	32756	32839	
1510	0	32820	32805	
1511	0	32828	32743	
1512	0	32792	32788	
1513	0	32908	32670	
1514	0	32840	32800	
1515	0	32840	32848	
1516	0	32868	32772	
1517	0	32816	32772	
1518	0	32842	32668	
1519	0	32782	32850	
1520	0	32828	32791	
1521	0	32774	32817	
1522	0	32792	32710	
1523	0	32820	32810	
1524	0	32800	32760	
1525	0	32858	32850	
1526	0	32816	32642	
1527	0	32804	32750	
1528	0	32864	32748	
1529	0	32812	32794	
1530	0	32752	32742	
1531	0	32852	32727	
1532	0	32792	32800	
1533	0	32756	32816	
1534	0	32788	32750	
1535	0	32804	32711	
1536	0	32793	32652	
1537	0	32784	32750	
1538	0	32776	32895	
1539	0	32822	32715	
1540	0	32808	32676	
1541	0	32780	32942	
1542	0	32764	32828	
1543	0	32796	32755	
1544	0	32820	32775	
1545	0	32856	32770	
1546	0	32808	32697	
1547	0	32862	32800	
1548	0	32842	32746	
1549	0	32804	32700	
1550	0	32844	32775	
1551	0	32836	32762	
1552	0	32866	32775	
1553	0	32860	32704	
1554	0	32874	32806	
1555	0	32836	32764	
1556	0	32784	32736	
1557	0	32716	32720	
1558	0	32752	32675	
1559	0	32740	32808	
1560	0	32796	32696	
1561	0	32792	32807	
1562	0	32872	32836	
1563	0	32865	32678	
1564	0	32812	32831	
1565	0	32800	32840	
1566	0	32872	32743	
1567	0	32822	32792	
1568	0	32852	32851	
1569	0	32870	32826	
1570	0	32856	32764	
1571	0	32817	32788	
1572	0	32736	32644	
1573	0	32844	32710	
1574	0	32812	32775	
1575	0	32754	32775	
1576	0	32808	32722	
1577	0	32776	32718	
1578	0	32794	32775	
1579	0	32812	32805	
1580	0	32862	32820	
1581	0	32740	32852	
1582	0	32812	32728	
1583	0	32832	32807	
1584	0	32840	32836	
1585	0	32824	32697	
1586	0	32842	32772	
1587	0	32832	32734	
1588	0	32844	32682	
1589	0	32798	32803	
1590	0	32828	32772	
1591	0	32780	32800	
1592	0	32804	32737	
1593	0	32772	32756	
1594	0	32820	32852	
1595	0	32827	32751	
1596	0	32828	32716	
1597	0	32766	32790	
1598	0	32702	32772	
1599	0	32808	32761	
1600	0	32842	32798	
1601	0	32874	32751	
1602	0	32844	32758	
1603	0	32810	32760	
1604	0	32820	32772	
1605	0	32788	32775	
1606	0	32852	32652	
1607	0	32778	32758	
1608	0	32768	32760	
1609	0	32808	32775	
1610	0	32760	32811	
1611	0	32764	32700	
1612	0	32814	32743	
1613	0	32792	32715	
1614	0	32766	32824	
1615	0	32820	32742	
1616	0	32826	32799	
1617	0	32844	32770	
1618	0	32870	32814	
1619	0	32784	32794	
1620	0	32818	32796	
1621	0	32846	32750	
1622	0	32912	32858	
1623	0	32846	32748	
1624	0	32880	32804	
1625	0	32800	32808	
1626	0	32816	32710	
1627	0	32798	32714	
1628	0	32767	32804	
1629	0	32832	32838	
1630	0	32760	32879	
1631	0	32778	32743	
1632	0	32768	32868	
1633	0	32789	32822	
1634	0	32844	32824	
1635	0	32876	32655	
1636	0	32853	32708	
1637	0	32754	32810	
1638	0	32768	32830	
1639	0	32850	32660	
1640	0	32816	32705	
1641	0	32868	32746	
1642	0	32818	32762	
1643	0	32882	32708	
1644	0	32796	32788	
1645	0	32872	32756	
1646	0	32804	32804	
1647	0	32814	32636	
1648	0	32848	32766	
1649	0	32840	32768	
1650	0	32808	32830	
1651	0	32800	32718	
1652	0	32824	32686	
1653	0	32868	32844	
1654	0	32776	32684	
1655	0	32834	32774	
1656	0	32784	32812	
1657	0	32772	32712	
1658	0	32836	32804	
1659	0	32814	32684	
1660	0	32864	32766	
1661	0	32816	32730	
1662	0	32808	32791	
1663	0	32868	32742	
1664	0	32834	32770	
1665	0	32796	32817	
1666	0	32856	32700	
1667	0	32852	32694	
1668	0	32792	32839	
1669	0	32730	32830	
1670	0	32792	32794	
1671	0	32800	32746	
1672	0	32789	32822	
1673	0	32804	32741	
1674	0	32842	32702	
1675	0	32817	32772	
1676	0	32900	32775	
1677	0	32772	32791	
1678	0	32824	32700	
1679	0	32776	32712	
1680	0	32814	32830	
1681	0	32804	32732	
1682	0	32828	32790	
1683	0	32852	32742	
1684	0	32818	32788	
1685	0	32820	32832	
1686	0	32821	32696	
1687	0	32780	32751	
1688	0	32804	32703	
1689	0	32808	32775	
1690	0	32752	32810	
1691	0	32821	32757	
1692	0	32836	32773	
1693	0	32812	32707	
1694	0	32788	32756	
1695	0	32772	32816	
1696	0	32828	32872	
1697	0	32780	32687	
1698	0	32744	32764	
1699	0	32724	32810	
1700	0	32752	32732	
1701	0	32820	32758	
1702	0	32820	32647	
1703	0	32846	32759	
1704	0	32780	32774	
1705	0	32868	32804	
1706	0	32832	32740	
1707	0	32822	32884	
1708	0	32852	32785	
1709	0	32864	32728	
1710	0	32804	32708	
1711	0	32788	32710	
1712	0	32760	32692	
1713	0	32788	32832	
1714	0	32734	32775	
1715	0	32860	32834	
1716	0	32808	32724	
1717	0	32824	32740	
1718	0	32780	32850	
1719	0	32798	32860	
1720	0	32868	32900	
1721	0	32836	32743	
1722	0	32810	32830	
1723	0	32868	32746	
1724	0	32830	32686	
1725	0	32868	32692	
1726	0	32804	32830	
1727	0	32748	32874	
1728	0	32844	32813	
1729	0	32760	32788	
1730	0	32828	32775	
1731	0	32756	32847	
1732	0	32704	32721	
1733	0	32804	32700	
1734	0	32768	32775	
1735	0	32808	32770	
1736	0	32832	32745	
1737	0	32788	32743	
1738	0	32832	32647	
1739	0	32832	32711	
1740	0	32812	32710	
1741	0	32844	32822	
1742	0	32884	32732	
1743	0	32804	32814	
1744	0	32780	32794	
1745	0	32800	32695	
1746	0	32864	32802	
1747	0	32826	32849	
1748	0	32780	32791	
1749	0	32840	32823	
1750	0	32920	32860	
1751	0	32838	32756	
1752	0	32744	32775	
1753	0	32768	32772	
1754	0	32716	32644	
1755	0	32756	32775	
1756	0	32832	32814	
1757	0	32804	32676	
1758	0	32872	32788	
1759	0	32808	32646	
1760	0	32768	32839	
1761	0	32760	32774	
1762	0	32864	32830	
1763	0	32860	32657	
1764	0	32845	32826	
1765	0	32798	32766	
1766	0	32760	32790	
1767	0	32792	32764	
1768	0	32796	32734	
1769	0	32804	32730	
1770	0	32744	32684	
1771	0	32788	32648	
1772	0	32760	32679	
1773	0	32796	32748	
1774	0	32736	32859	
1775	0	32772	32692	
1776	0	32780	32874	
1777	0	32834	32839	
1778	0	32880	32750	
1779	0	32772	32756	
1780	0	32804	32783	
1781	0	32824	32858	
1782	0	32808	32702	
1783	0	32844	32775	
1784	0	32776	32816	
1785	0	32856	32728	
1786	0	32836	32853	
1787	0	32830	32721	
1788	0	32804	32685	
1789	0	32804	32840	
1790	0	32796	32838	
1791	0	32820	32775	
1792	0	32886	32808	
1793	0	32856	32692	
1794	0	32798	32750	
1795	0	32820	32864	
1796	0	32780	32801	
1797	0	32782	32839	
1798	0	32756	32695	
1799	0	32752	32649	
1800	0	32742	32793	
1801	0	32756	32750	
1802	0	32767	32832	
1803	0	32844	32744	
1804	0	32824	32774	
1805	0	32884	32746	
1806	0	32820	32760	
1807	0	32885	32710	
1808	0	32792	32710	
1809	0	32896	32828	
1810	0	32820	32769	
1811	0	32834	32766	
1812	0	32874	32663	
1813	0	32844	32656	
1814	0	32892	32718	
1815	0	32876	32647	
1816	0	32908	32728	
1817	0	32934	32742	
1818	0	32887	32664	
1819	0	32960	32588	
1820	0	32904	32638	
1821	0	32924	32639	
1822	0	32950	32616	
1823	0	32980	32687	
1824	0	32880	32638	
1825	0	32848	32679	
1826	0	32944	32596	
1827	0	32768	32583	
1828	0	32852	32670	
1829	0	32806	32727	
1830	0	32798	32750	
1831	0	32828	32775	
1832	0	32750	32886	
1833	0	32532	32966	
1834	0	32522	33068	
1835	0	32456	33148	
1836	0	32470	33094	
1837	0	32348	33200	
1838	0	32242	33410	
1839	0	32274	33583	
1840	0	32424	33400	
1841	0	32632	32998	
1842	0	32696	32926	
1843	0	32752	32988	
1844	0	32722	32814	
1845	0	32798	32890	
1846	0	32808	32775	
1847	0	32796	32807	
1848	0	32804	32775	
1849	0	32908	32679	
1850	0	32864	32648	
1851	0	32892	32547	
1852	0	32994	32474	
1853	0	32940	32528	
1854	0	32984	32502	
1855	0	33002	32606	
1856	0	33020	32486	
1857	0	32948	32552	
1858	0	32988	32655	
1859	0	32932	32684	
1860	0	32912	32622	
1861	0	32944	32592	
1862	0	32920	32670	
1863	0	32940	32590	
1864	0	32818	32676	
1865	0	32848	32678	
1866	0	32884	32704	
1867	0	32776	32721	
1868	0	32848	32612	
1869	0	32814	32825	
1870	0	32880	32692	
1871	0	32860	32711	
1872	0	32782	32692	
1873	0	32834	32861	
1874	0	32808	32794	
1875	0	32790	32934	
1876	0	32862	32690	
1877	0	32752	32862	
1878	0	32816	32807	
1879	0	32796	32742	
1880	0	32720	32668	
1881	0	32794	32732	
1882	0	32846	32866	
1883	0	32840	32692	
1884	0	32860	32836	
1885	0	32864	32834	
1886	0	32868	32902	
1887	0	32816	32716	
1888	0	32752	32820	
1889	0	32826	32782	
1890	0	32772	32746	
1891	0	32804	32762	
1892	0	32780	32818	
1893	0	32778	32844	
1894	0	32776	32662	
1895	0	32808	32748	
1896	0	32844	32826	
1897	0	32840	32844	
1898	0	32806	32764	
1899	0	32712	32815	
1900	0	32820	32692	
1901	0	32760	32676	
1902	0	32764	32666	
1903	0	32820	32911	
1904	0	32816	32678	
1905	0	32858	32812	
1906	0	32772	32732	
1907	0	32746	32728	
1908	0	32778	32860	
1909	0	32832	32724	
1910	0	32784	32884	
1911	0	32832	32696	
1912	0	32798	32775	
1913	0	32776	32740	
1914	0	32804	32772	
1915	0	32818	32764	
1916	0	32752	32738	
1917	0	32844	32734	
1918	0	32844	32834	
1919	0	32828	32772	
1920	0	32804	32775	
1921	0	32854	32714	
1922	0	32936	32684	
1923	0	32790	32810	
1924	0	32830	32774	
1925	0	32838	32820	
1926	0	32872	32732	
1927	0	32884	32671	
1928	0	32836	32840	
1929	0	32862	32790	
1930	0	32766	32846	
1931	0	32804	32660	
1932	0	32744	32693	
1933	0	32768	32834	
1934	0	32764	32758	
1935	0	32864	32788	
1936	0	32830	32662	
1937	0	32836	32703	
1938	0	32850	32702	
1939	0	32790	32830	
1940	0	32752	32872	
1941	0	32757	32800	
1942	0	32896	32862	
1943	0	32812	32711	
1944	0	32822	32864	
1945	0	32820	32678	
1946	0	32782	32646	
1947	0	32848	32652	
1948	0	32848	32810	
1949	0	32789	32772	
1950	0	32696	32771	
1951	0	32740	32772	
1952	0	32804	32647	
1953	0	32792	32748	
1954	0	32788	32740	
1955	0	32744	32820	
1956	0	32838	32679	
1957	0	32782	32700	
1958	0	32774	32868	
1959	0	32844	32824	
1960	0	32800	32756	
1961	0	32838	32728	
1962	0	32856	32757	
1963	0	32868	32804	
1964	0	32856	32737	
1965	0	32768	32844	
1966	0	32768	32712	
1967	0	32770	32732	
1968	0	32812	32724	
1969	0	32758	32796	
1970	0	32826	32840	
1971	0	32796	32722	
1972	0	32820	32740	
1973	0	32770	32820	
1974	0	32775	32775	
1975	0	32816	32684	
1976	0	32832	32666	
1977	0	32826	32710	
1978	0	32872	32767	
1979	0	32906	32816	
1980	0	32732	32774	
1981	0	32844	32744	
1982	0	32848	32728	
1983	0	32802	32805	
1984	0	32856	32732	
1985	0	32852	32722	
1986	0	32814	32817	
1987	0	32786	32807	
1988	0	32782	32871	
1989	0	32820	32820	
1990	0	32858	32754	
1991	0	32860	32748	
1992	0	32808	32800	
1993	0	32808	32838	
1994	0	32768	32743	
1995	0	32796	32749	
1996	0	32784	32824	
1997	0	32848	32726	
1998	0	32872	32702	
1999	0	32820	32846	
2000	0	32892	32844	
2001	0	32868	32775	
2002	0	32792	32832	
2003	0	32822	32728	
2004	0	32848	32719	
2005	0	32788	32702	
2006	0	32834	32775	
2007	0	32833	32852	
2008	0	32776	32870	
2009	0	32728	32807	
2010	0	32800	32760	
2011	0	32812	32775	
2012	0	32758	32844	
2013	0	32738	32724	
2014	0	32792	32658	
2015	0	32790	32746	
2016	0	32798	32830	
2017	0	32724	32758	
2018	0	32796	32810	
2019	0	32752	32766	
2020	0	32834	32788	
2021	0	32832	32688	
2022	0	32804	32660	
2023	0	32870	32738	
2024	0	32752	32807	
2025	0	32844	32770	
2026	0	32896	32852	
2027	0	32872	32839	
2028	0	32804	32842	
2029	0	32858	32698	
2030	0	32822	32691	
2031	0	32738	32744	
2032	0	32756	32863	
2033	0	32836	32748	
2034	0	32828	32706	
2035	0	32804	32788	
2036	0	32794	32831	
2037	0	32784	32756	
2038	0	32824	32734	
2039	0	32772	32903	
2040	0	32812	32692	
2041	0	32862	32668	
2042	0	32884	32680	
2043	0	32896	32706	
2044	0	32768	32882	
2045	0	32806	32792	
2046	0	32832	32804	
2047	0	32772	32796	
2048	0	32836	32864	
2049	0	32868	32839	
2050	0	32784	32810	
2051	0	32821	32796	
2052	0	32796	32718	
2053	0	32844	32708	
2054	0	32864	32672	
2055	0	32798	32753	
2056	0	32856	32768	
2057	0	32792	32824	
2058	0	32784	32804	
2059	0	32756	32790	
2060	0	32800	32748	
2061	0	32808	32820	
2062	0	32804	32647	
2063	0	32846	32714	
2064	0	32824	32744	
2065	0	32838	32833	
2066	0	32818	32768	
2067	0	32846	32802	
2068	0	32806	32766	
2069	0	32800	32744	
2070	0	32782	32762	
2071	0	32904	32754	
2072	0	32784	32767	
2073	0	32772	32844	
2074	0	32772	32746	
2075	0	32808	32886	
2076	0	32792	32846	
2077	0	32754	32684	
2078	0	32796	32724	
2079	0	32756	32856	
2080	0	32848	32790	
2081	0	32840	32710	
2082	0	32868	32764	
2083	0	32846	32728	
2084	0	32804	32716	
2085	0	32828	32704	
2086	0	32800	32796	
2087	0	32796	32842	
2088	0	32816	32836	
2089	0	32824	32732	
2090	0	32824	32775	
2091	0	32880	32822	
2092	0	32792	32697	
2093	0	32798	32652	
2094	0	32792	32636	
2095	0	32840	32846	
2096	0	32840	32772	
2097	0	32824	32834	
2098	0	32712	32775	
2099	0	32804	32724	
2100	0	32744	32847	
2101	0	32726	32814	
2102	0	32788	32815	
2103	0	32814	32688	
2104	0	32808	32736	
2105	0	32808	32636	
2106	0	32760	32732	
2107	0	32802	32839	
2108	0	32816	32818	
2109	0	32836	32828	
2110	0	32784	32856	
2111	0	32804	32756	
2112	0	32816	32726	
2113	0	32820	32708	
2114	0	32780	32761	
2115	0	32852	32876	
2116	0	32800	32775	
2117	0	32792	32756	
2118	0	32756	32769	
2119	0	32824	32791	
2120	0	32804	32824	
2121	0	32812	32804	
2122	0	32824	32828	
2123	0	32836	32670	
2124	0	32820	32680	
2125	0	32692	32620	
2126	0	32768	32688	
2127	0	32770	32842	
2128	0	32836	32950	
2129	0	32828	32804	
2130	0	32804	32744	
2131	0	32852	32844	
2132	0	32812	32748	
2133	0	32752	32679	
2134	0	32764	32852	
2135	0	32816	32784	
2136	0	32848	32742	
2137	0	32830	32775	
2138	0	32821	32878	
2139	0	32820	32700	
2140	0	32816	32692	
2141	0	32832	32838	
2142	0	32852	32775	
2143	0	32862	32775	
2144	0	32856	32842	
2145	0	32822	32671	
2146	0	32868	32784	
2147	0	32716	32816	
2148	0	32824	32740	
2149	0	32842	32734	
2150	0	32922	32686	
2151	0	32877	32852	
2152	0	32832	32742	
2153	0	32760	32792	
2154	0	32734	32759	
2155	0	32864	32676	
2156	0	32786	32850	
2157	0	32816	32775	
2158	0	32916	32871	
2159	0	32852	32718	
2160	0	32830	32764	
2161	0	32824	32820	
2162	0	32888	32800	
2163	0	32823	32795	
2164	0	32844	32806	
2165	0	32812	32726	
2166	0	32788	32775	
2167	0	32782	32876	
2168	0	32820	32799	
2169	0	32816	32831	
2170	0	32764	32817	
2171	0	32780	32704	
2172	0	32775	32698	
2173	0	32800	32762	
2174	0	32804	32711	
2175	0	32818	32807	
2176	0	32822	32726	
2177	0	32808	32730	
2178	0	32790	32786	
2179	0	32750	32766	
2180	0	32788	32807	
2181	0	32844	32808	
2182	0	32792	32826	
2183	0	32836	32758	
2184	0	32764	32775	
2185	0	32820	32750	
2186	0	32782	32727	
2187	0	32748	32644	
2188	0	32820	32644	
2189	0	32836	32758	
2190	0	32812	32807	
2191	0	32844	32820	
2192	0	32842	32790	
2193	0	32824	32746	
2194	0	32802	32772	
2195	0	32742	32638	
2196	0	32832	32884	
2197	0	32796	32815	
2198	0	32774	32788	
2199	0	32836	32762	
2200	0	32816	32764	
2201	0	32864	32726	
2202	0	32844	32720	
2203	0	32884	32752	
2204	0	32810	32767	
2205	0	32840	32847	
2206	0	32764	32750	
2207	0	32800	32748	
2208	0	32782	32775	
2209	0	32792	32756	
2210	0	32808	32766	
2211	0	32800	32750	
2212	0	32864	32846	
2213	0	32788	32796	
2214	0	32756	32794	
2215	0	32842	32820	
2216	0	32764	32876	
2217	0	32764	32828	
2218	0	32808	32708	
2219	0	32821	32714	
2220	0	32869	32746	
2221	0	32910	32796	
2222	0	32860	32717	
2223	0	32836	32820	
2224	0	32816	32844	
2225	0	32816	32722	
2226	0	32766	32686	
2227	0	32788	32804	
2228	0	32870	32844	
2229	0	32796	32775	
2230	0	32788	32775	
2231	0	32836	32671	
2232	0	32832	32662	
2233	0	32740	32808	
2234	0	32824	32802	
2235	0	32790	32742	
2236	0	32792	32686	
2237	0	32812	32710	
2238	0	32812	32794	
2239	0	32824	32824	
2240	0	32688	32815	
2241	0	32796	32743	
2242	0	32881	32796	
2243	0	32900	32648	
2244	0	32884	32722	
2245	0	32844	32692	
2246	0	32804	32766	
2247	0	32828	32799	
2248	0	32836	32756	
2249	0	32736	32780	
2250	0	32692	32817	
2251	0	32744	32706	
2252	0	32798	32719	
2253	0	32816	32736	
2254	0	32734	32824	
2255	0	32708	32775	
2256	0	32784	32859	
2257	0	32832	32788	
2258	0	32836	32756	
2259	0	32784	32752	
2260	0	32812	32735	
2261	0	32884	32692	
2262	0	32884	32852	
2263	0	32916	32752	
2264	0	32804	32775	
2265	0	32840	32743	
2266	0	32830	32798	
2267	0	32820	32716	
2268	0	32806	32719	
2269	0	32816	32826	
2270	0	32810	32796	
2271	0	32828	32772	
2272	0	32828	32808	
2273	0	32796	32868	
2274	0	32844	32772	
2275	0	32884	32718	
2276	0	32828	32720	
2277	0	32816	32666	
2278	0	32794	32804	
2279	0	32872	32775	
2280	0	32836	32730	
2281	0	32824	32694	
2282	0	32826	32727	
2283	0	32820	32822	
2284	0	32828	32730	
2285	0	32788	32752	
2286	0	32804	32814	
2287	0	32776	32736	
2288	0	32780	32742	
2289	0	32844	32831	
2290	0	32768	32711	
2291	0	32770	32832	
2292	0	32812	32746	
2293	0	32824	32688	
2294	0	32832	32784	
2295	0	32820	32756	
2296	0	32725	32754	
2297	0	32768	32818	
2298	0	32775	32688	
2299	0	32790	32753	
2300	0	32854	32796	
2301	0	32856	32852	
2302	0	32856	32833	
2303	0	32792	32750	
2304	0	32828	32750	
2305	0	32820	32822	
2306	0	32836	32711	
2307	0	32884	32810	
2308	0	32888	32842	
2309	0	32856	32812	
2310	0	32840	32826	
2311	0	32774	32767	
2312	0	32800	32692	
2313	0	32816	32774	
2314	0	32784	32822	
2315	0	32816	32736	
2316	0	32840	32735	
2317	0	32774	32647	
2318	0	32850	32800	
2319	0	32820	32788	
2320	0	32760	32718	
2321	0	32846	32692	
2322	0	32784	32692	
2323	0	32852	32732	
2324	0	32824	32724	
2325	0	32816	32871	
2326	0	32824	32816	
2327	0	32912	32800	
2328	0	32832	32748	
2329	0	32806	32823	
2330	0	32840	32684	
2331	0	32744	32697	
2332	0	32852	32823	
2333	0	32828	32798	
2334	0	32748	32868	
2335	0	32736	32687	
2336	0	32828	32714	
2337	0	32844	32788	
2338	0	32852	32840	
2339	0	32772	32849	
2340	0	32760	32775	
2341	0	32854	32788	
2342	0	32736	32823	
2343	0	32698	32756	
2344	0	32776	32750	
2345	0	32816	32716	
2346	0	32810	32688	
2347	0	32752	32730	
2348	0	32808	32738	
2349	0	32802	32840	
2350	0	32848	32780	
2351	0	32846	32772	
2352	0	32848	32792	
2353	0	32836	32868	
2354	0	32848	32732	
2355	0	32764	32684	
2356	0	32762	32676	
2357	0	32718	32744	
2358	0	32760	32818	
2359	0	32799	32768	
2360	0	32764	32850	
2361	0	32778	32775	
2362	0	32816	32868	
2363	0	32804	32718	
2364	0	32800	32839	
2365	0	32920	32695	
2366	0	32800	32660	
2367	0	32780	32756	
2368	0	32804	32880	
2369	0	32794	32796	
2370	0	32804	32796	
2371	0	32786	32807	
2372	0	32836	32830	
2373	0	32808	32674	
2374	0	32878	32696	
2375	0	32804	32684	
2376	0	32768	32718	
2377	0	32840	32662	
2378	0	32832	32760	
2379	0	32842	32863	
2380	0	32876	32858	
2381	0	32814	32837	
2382	0	32840	32814	
2383	0	32792	32814	
2384	0	32894	32792	
2385	0	32864	32700	
2386	0	32840	32686	
2387	0	32768	32742	
2388	0	32796	32704	
2389	0	32782	32679	
2390	0	32768	32700	
2391	0	32726	32760	
2392	0	32772	32762	
2393	0	32774	32689	
2394	0	32810	32748	
2395	0	32832	32817	
2396	0	32868	32842	
2397	0	32816	32816	
2398	0	32777	32734	
2399	0	32872	32775	
2400	0	32796	32775	
2401	0	32794	32810	
2402	0	32840	32740	
2403	0	32800	32665	
2404	0	32784	32710	
2405	0	32840	32692	
2406	0	32830	32756	
2407	0	32820	32914	
2408	0	32894	32798	
2409	0	32874	32775	
2410	0	32818	32894	
2411	0	32772	32770	
2412	0	32850	32700	
2413	0	32832	32674	
2414	0	32778	32830	
2415	0	32748	32676	
2416	0	32790	32775	
2417	0	32748	32750	
2418	0	32812	32716	
2419	0	32808	32730	
2420	0	32856	32708	
2421	0	32792	32756	
2422	0	32828	32687	
2423	0	32774	32712	
2424	0	32774	32726	
2425	0	32814	32702	
2426	0	32750	32775	
2427	0	32838	32836	
2428	0	32846	32812	
2429	0	32812	32840	
2430	0	32806	32700	
2431	0	32838	32775	
2432	0	32790	32786	
2433	0	32752	32775	
2434	0	32784	32724	
2435	0	32844	32724	
2436	0	32778	32702	
2437	0	32764	32838	
2438	0	32776	32775	
2439	0	32830	32757	
2440	0	32868	32704	
2441	0	32840	32753	
2442	0	32816	32775	
2443	0	32836	32770	
2444	0	32804	32802	
2445	0	32782	32762	
2446	0	32808	32724	
2447	0	32800	32666	
2448	0	32776	32775	
2449	0	32806	32863	
2450	0	32866	32808	
2451	0	32836	32847	
2452	0	32796	32760	
2453	0	32830	32740	
2454	0	32874	32822	
2455	0	32856	32766	
2456	0	32802	32860	
2457	0	32804	32750	
2458	0	32828	32768	
2459	0	32828	32880	
2460	0	32768	32714	
2461	0	32752	32788	
2462	0	32734	32647	
2463	0	32786	32655	
2464	0	32792	32788	
2465	0	32802	32775	
2466	0	32860	32719	
2467	0	32844	32775	
2468	0	32770	32817	
2469	0	32788	32703	
2470	0	32818	32732	
2471	0	32836	32684	
2472	0	32768	32634	
2473	0	32844	32772	
2474	0	32796	32890	
2475	0	32804	32775	
2476	0	32766	32785	
2477	0	32804	32711	
2478	0	32824	32696	
2479	0	32724	32806	
2480	0	32872	32842	
2481	0	32894	32723	
2482	0	32808	32820	
2483	0	32864	32802	
2484	0	32840	32736	
2485	0	32848	32746	
2486	0	32790	32762	
2487	0	32860	32842	
2488	0	32832	32823	
2489	0	32782	32728	
2490	0	32828	32743	
2491	0	32800	32846	
2492	0	32712	32894	
2493	0	32848	32706	
2494	0	32804	32713	
2495	0	32752	32799	
2496	0	32798	32800	
2497	0	32804	32888	
2498	0	32842	32806	
2499	0	32808	32760	
2500	0	32828	32732	
2501	0	32794	32711	
2502	0	32784	32755	
2503	0	32782	32755	
2504	0	32790	32886	
2505	0	32830	32775	
2506	0	32840	32718	
2507	0	32844	32764	
2508	0	32784	32775	
2509	0	32776	32775	
2510	0	32800	32798	
2511	0	32772	32831	
2512	0	32780	32684	
2513	0	32748	32676	
2514	0	32724	32663	
2515	0	32830	32852	
2516	0	32824	32775	
2517	0	32800	32808	
2518	0	32792	32804	
2519	0	32824	32794	
2520	0	32780	32679	
2521	0	32816	32702	
2522	0	32836	32840	
2523	0	32784	32770	
2524	0	32744	32754	
2525	0	32880	32766	
2526	0	32856	32764	
2527	0	32849	32662	
2528	0	32794	32862	
2529	0	32760	32826	
2530	0	32856	32746	
2531	0	32832	32818	
2532	0	32798	32756	
2533	0	32844	32703	
2534	0	32820	32732	
2535	0	32816	32847	
2536	0	32772	32770	
2537	0	32804	32775	
2538	0	32834	32694	
2539	0	32900	32647	
2540	0	32828	32644	
2541	0	32796	32856	
2542	0	32788	32798	
2543	0	32824	32834	
2544	0	32854	32775	
2545	0	32774	32741	
2546	0	32844	32839	
2547	0	32824	32810	
2548	0	32840	32796	
2549	0	32818	32806	
2550	0	32776	32775	
2551	0	32744	32706	
2552	0	32736	32835	
2553	0	32774	32775	
2554	0	32783	32743	
2555	0	32836	32890	
2556	0	32866	32700	
2557	0	32888	32743	
2558	0	32934	32796	
2559	0	32834	32743	
2560	0	32852	32775	
2561	0	32806	32798	
2562	0	32784	32794	
2563	0	32730	32858	
2564	0	32848	32775	
2565	0	32828	32839	
2566	0	32836	32814	
2567	0	32816	32766	
2568	0	32804	32692	
2569	0	32832	32760	
2570	0	32856	32743	
2571	0	32828	32838	
2572	0	32780	32793	
2573	0	32736	32716	
2574	0	32874	32738	
2575	0	32872	32682	
2576	0	32812	32679	
2577	0	32794	32816	
2578	0	32737	32832	
2579	0	32780	32828	
2580	0	32798	32711	
2581	0	32820	32849	
2582	0	32776	32647	
2583	0	32752	32726	
2584	0	32748	32640	
2585	0	32788	32639	
2586	0	32848	32732	
2587	0	32820	32807	
2588	0	32904	32796	
2589	0	32824	32814	
2590	0	32836	32742	
2591	0	32808	32691	
2592	0	32816	32812	
2593	0	32792	32792	
2594	0	32860	32760	
2595	0	32864	32712	
2596	0	32848	32774	
2597	0	32832	32804	
2598	0	32801	32787	
2599	0	32760	32807	
2600	0	32830	32775	
2601	0	32816	32855	
2602	0	32928	32743	
2603	0	32840	32748	
2604	0	32758	32654	
2605	0	32788	32740	
2606	0	32814	32774	
2607	0	32772	32886	
2608	0	32764	32796	
2609	0	32800	32729	
2610	0	32824	32711	
2611	0	32792	32728	
2612	0	32820	32692	
2613	0	32790	32704	
2614	0	32840	32798	
2615	0	32820	32775	
2616	0	32796	32792	
2617	0	32816	32775	
2618	0	32756	32772	
2619	0	32748	32705	
2620	0	32862	32647	
2621	0	32752	32794	
2622	0	32872	32766	
2623	0	32784	32844	
2624	0	32806	32893	
2625	0	32754	32756	
2626	0	32853	32836	
2627	0	32830	32740	
2628	0	32840	32807	
2629	0	32840	32775	
2630	0	32930	32756	
2631	0	32884	32790	
2632	0	32804	32790	
2633	0	32774	32674	
2634	0	32794	32676	
2635	0	32716	32834	
2636	0	32756	32761	
2637	0	32812	32748	
2638	0	32664	32711	
2639	0	32696	32735	
2640	0	32764	32704	
2641	0	32768	32680	
2642	0	32759	32628	
2643	0	32836	32724	
2644	0	32858	32705	
2645	0	32936	32846	
2646	0	32876	32920	
2647	0	32824	32864	
2648	0	32862	32846	
2649	0	32852	32839	
2650	0	32780	32788	
2651	0	32760	32679	
2652	0	32740	32668	
2653	0	32796	32708	
2654	0	32744	32810	
2655	0	32776	32836	
2656	0	32854	32775	
2657	0	32818	32795	
2658	0	32788	32792	
2659	0	32857	32788	
2660	0	32864	32775	
2661	0	32756	32860	
2662	0	32774	32718	
2663	0	32872	32668	
2664	0	32868	32678	
2665	0	32815	32746	
2666	0	32872	32798	
2667	0	32752	32885	
2668	0	32708	32796	
2669	0	32848	32852	
2670	0	32840	32828	
2671	0	32844	32805	
2672	0	32852	32698	
2673	0	32772	32652	
2674	0	32784	32903	
2675	0	32810	32815	
2676	0	32792	32810	
2677	0	32772	32736	
2678	0	32830	32694	
2679	0	32728	32804	
2680	0	32816	32775	
2681	0	32820	32775	
2682	0	32820	32724	
2683	0	32770	32668	
2684	0	32836	32908	
2685	0	32864	32768	
2686	0	32848	32756	
2687	0	32756	32758	
2688	0	32794	32720	
2689	0	32894	32730	
2690	0	32818	32767	
2691	0	32870	32838	
2692	0	32774	32750	
2693	0	32760	32814	
2694	0	32816	32752	
2695	0	32784	32764	
2696	0	32788	32814	
2697	0	32740	32876	
2698	0	32828	32854	
2699	0	32796	32766	
2700	0	32720	32774	
2701	0	32676	32800	
2702	0	32700	32774	
2703	0	32838	32708	
2704	0	32849	32684	
2705	0	32800	32804	
2706	0	32792	32879	
2707	0	32762	32775	
2708	0	32802	32788	
2709	0	32834	32655	
2710	0	32794	32673	
2711	0	32860	32800	
2712	0	32892	32836	
2713	0	32804	32817	
2714	0	32840	32830	
2715	0	32864	32758	
2716	0	32804	32762	
2717	0	32820	32622	
2718	0	32808	32820	
2719	0	32860	32786	
2720	0	32856	32822	
2721	0	32824	32714	
2722	0	32808	32696	
2723	0	32820	32678	
2724	0	32774	32734	
2725	0	32828	32760	
2726	0	32874	32802	
2727	0	32848	32764	
2728	0	32854	32887	
2729	0	32797	32810	
2730	0	32820	32644	
2731	0	32788	32772	
2732	0	32776	32772	
2733	0	32740	32734	
2734	0	32792	32816	
2735	0	32796	32728	
2736	0	32898	32794	
2737	0	32828	32803	
2738	0	32760	32774	
2739	0	32800	32728	
2740	0	32768	32783	
2741	0	32808	32820	
2742	0	32768	32730	
2743	0	32820	32876	
2744	0	32808	32654	
2745	0	32860	32730	
2746	0	32836	32834	
2747	0	32862	32766	
2748	0	32792	32764	
2749	0	32812	32712	
2750	0	32788	32684	
2751	0	32744	32711	
2752	0	32810	32840	
2753	0	32740	32871	
2754	0	32756	32775	
2755	0	32768	32806	
2756	0	32868	32832	
2757	0	32844	32775	
2758	0	32888	32824	
2759	0	32804	32682	
2760	0	32856	32652	
2761	0	32864	32742	
2762	0	32844	32847	
2763	0	32816	32732	
2764	0	32832	32752	
2765	0	32842	32732	
2766	0	32898	32761	
2767	0	32766	32772	
2768	0	32756	32700	
2769	0	32752	32790	
2770	0	32704	32719	
2771	0	32778	32767	
2772	0	32728	32804	
2773	0	32782	32735	
2774	0	32820	32844	
2775	0	32812	32866	
2776	0	32764	32728	
2777	0	32760	32720	
2778	0	32810	32762	
2779	0	32784	32775	
2780	0	32856	32775	
2781	0	32862	32752	
2782	0	32860	32674	
2783	0	32844	32656	
2784	0	32812	32704	
2785	0	32894	32764	
2786	0	32848	32724	
2787	0	32884	32799	
2788	0	32912	32634	
2789	0	32930	32604	
2790	0	32928	32696	
2791	0	32936	32679	
2792	0	32940	32647	
2793	0	32972	32624	
2794	0	32904	32562	
2795	0	32968	32532	
2796	0	32892	32604	
2797	0	33014	32640	
2798	0	33010	32620	
2799	0	32916	32696	
2800	0	32928	32638	
2801	0	32936	32594	
2802	0	32900	32708	
2803	0	32820	32775	
2804	0	32800	32698	
2805	0	32792	32820	
2806	0	32794	32822	
2807	0	32708	32938	
2808	0	32578	33030	
2809	0	32552	33020	
2810	0	32464	33136	
2811	0	32458	33268	
2812	0	32332	33226	
2813	0	32212	33428	
2814	0	32264	33535	
2815	0	32468	33246	
2816	0	32598	33028	
2817	0	32632	32900	
2818	0	32716	32839	
2819	0	32840	32831	
2820	0	32676	32932	
2821	0	32842	32864	
2822	0	32834	32828	
2823	0	32868	32757	
2824	0	32872	32639	
2825	0	32884	32620	
2826	0	32882	32669	
2827	0	32988	32530	
2828	0	33028	32535	
2829	0	32924	32544	
2830	0	32938	32439	
2831	0	32944	32538	
2832	0	32980	32646	
2833	0	32956	32606	
2834	0	32920	32574	
2835	0	32950	32556	
2836	0	32985	32679	
2837	0	32918	32674	
2838	0	32846	32680	
2839	0	32892	32583	
2840	0	32856	32698	
2841	0	32810	32634	
2842	0	32858	32743	
2843	0	32828	32722	
2844	0	32870	32775	
2845	0	32864	32631	
2846	0	32908	32760	
2847	0	32804	32740	
2848	0	32818	32852	
2849	0	32708	32750	
2850	0	32788	32732	
2851	0	32766	32756	
2852	0	32796	32838	
2853	0	32800	32918	
2854	0	32818	32682	
2855	0	32830	32716	
2856	0	32776	32775	
2857	0	32856	32862	
2858	0	32824	32810	
2859	0	32774	32839	
2860	0	32798	32729	
2861	0	32744	32790	
2862	0	32808	32846	
2863	0	32836	32775	
2864	0	32776	32883	
2865	0	32794	32679	
2866	0	32800	32810	
2867	0	32868	32796	
2868	0	32778	32724	
2869	0	32852	32712	
2870	0	32830	32720	
2871	0	32772	32824	
2872	0	32820	32824	
2873	0	32820	32824	
2874	0	32780	32710	
2875	0	32858	32751	
2876	0	32764	32726	
2877	0	32760	32928	
2878	0	32776	32791	
2879	0	32881	32848	
2880	0	32828	32796	
2881	0	32854	32926	
2882	0	32892	32695	
2883	0	32880	32744	
2884	0	32808	32760	
2885	0	32832	32807	
2886	0	32860	32775	
2887	0	32778	32686	
2888	0	32821	32742	
2889	0	32732	32878	
2890	0	32752	32744	
2891	0	32876	32748	
2892	0	32822	32720	
2893	0	32812	32736	
2894	0	32856	32719	
2895	0	32866	32774	
2896	0	32856	32772	
2897	0	32824	32702	
2898	0	32842	32804	
2899	0	32774	32711	
2900	0	32792	32734	
2901	0	32800	32692	
2902	0	32806	32866	
2903	0	32876	32751	
2904	0	32838	32681	
2905	0	32820	32764	
2906	0	32704	32762	
2907	0	32800	32724	
2908	0	32818	32738	
2909	0	32804	32886	
2910	0	32848	32902	
2911	0	32776	32730	
2912	0	32804	32678	
2913	0	32838	32718	
2914	0	32732	32822	
2915	0	32816	32820	
2916	0	32824	32758	
2917	0	32768	32814	
2918	0	32822	32736	
2919	0	32784	32892	
2920	0	32832	32719	
2921	0	32820	32810	
2922	0	32816	32807	
2923	0	32848	32689	
2924	0	32854	32724	
2925	0	32822	32856	
2926	0	32832	32798	
2927	0	32792	32800	
2928	0	32792	32736	
2929	0	32832	32746	
2930	0	32796	32756	
2931	0	32864	32812	
2932	0	32834	32724	
2933	0	32772	32660	
2934	0	32810	32775	
2935	0	32796	32830	
2936	0	32792	32774	
2937	0	32756	32684	
2938	0	32804	32751	
2939	0	32800	32774	
2940	0	32856	32766	
2941	0	32810	32772	
2942	0	32790	32788	
2943	0	32816	32702	
2944	0	32848	32822	
2945	0	32826	32763	
2946	0	32826	32760	
2947	0	32830	32764	
2948	0	32848	32725	
2949	0	32820	32772	
2950	0	32817	32775	
2951	0	32740	32806	
2952	0	32872	32668	
2953	0	32780	32717	
2954	0	32828	32734	
2955	0	32800	32836	
2956	0	32868	32754	
2957	0	32852	32868	
2958	0	32804	32692	
2959	0	32790	32728	
2960	0	32880	32836	
2961	0	32844	32775	
2962	0	32808	32812	
2963	0	32812	32700	
2964	0	32836	32822	
2965	0	32776	32752	
2966	0	32784	32784	
2967	0	32828	32821	
2968	0	32792	32768	
2969	0	32796	32660	
2970	0	32820	32821	
2971	0	32764	32734	
2972	0	32828	32828	
2973	0	32790	32679	
2974	0	32822	32775	
2975	0	32840	32874	
2976	0	32836	32711	
2977	0	32806	32794	
2978	0	32788	32794	
2979	0	32852	32746	
2980	0	32806	32694	
2981	0	32796	32838	
2982	0	32740	32798	
2983	0	32832	32798	
2984	0	32798	32775	
2985	0	32822	32744	
2986	0	32800	32728	
2987	0	32808	32824	
2988	0	32775	32742	
2989	0	32792	32752	
2990	0	32808	32730	
2991	0	32806	32718	
2992	0	32760	32775	
2993	0	32812	32807	
2994	0	32752	32740	
2995	0	32732	32789	
2996	0	32884	32710	
2997	0	32844	32775	
2998	0	32880	32680	
2999	0	32872	32769	
3000	0	32832	32775	
3001	0	32852	32811	
3002	0	32808	32822	
3003	0	32852	32680	
3004	0	32872	32775	
3005	0	32736	32736	
3006	0	32824	32788	
3007	0	32756	32867	
3008	0	32818	32748	
3009	0	32812	32674	
3010	0	32788	32732	
3011	0	32828	32876	
3012	0	32830	32796	
3013	0	32822	32718	
3014	0	32796	32736	
3015	0	32790	32796	
3016	0	32866	32798	
3017	0	32868	32758	
3018	0	32804	32801	
3019	0	32798	32716	
3020	0	32784	32688	
3021	0	32793	32892	
3022	0	32814	32793	
3023	0	32820	32867	
3024	0	32786	32827	
3025	0	32862	32692	
3026	0	32762	32805	
3027	0	32828	32775	
3028	0	32775	32820	
3029	0	32804	32679	
3030	0	32757	32734	
3031	0	32796	32774	
3032	0	32772	32812	
3033	0	32838	32806	
3034	0	32840	32752	
3035	0	32784	32654	
3036	0	32776	32806	
3037	0	32775	32823	
3038	0	32832	32802	
3039	0	32806	32840	
3040	0	32832	32759	
3041	0	32804	32799	
3042	0	32804	32816	
3043	0	32804	32775	
3044	0	32840	32716	
3045	0	32768	32793	
3046	0	32828	32736	
3047	0	32842	32638	
3048	0	32780	32868	
3049	0	32740	32849	
3050	0	32830	32806	
3051	0	32728	32850	
3052	0	32782	32868	
3053	0	32780	32676	
3054	0	32770	32673	
3055	0	32842	32654	
3056	0	32832	32807	
3057	0	32880	32850	
3058	0	32832	32775	
3059	0	32788	32740	
3060	0	32808	32772	
3061	0	32828	32734	
3062	0	32800	32800	
3063	0	32794	32842	
3064	0	32792	32888	
3065	0	32798	32678	
3066	0	32820	32800	
3067	0	32788	32836	
3068	0	32896	32800	
3069	0	32820	32735	
3070	0	32810	32806	
3071	0	32796	32826	
3072	0	32860	32743	
3073	0	32844	32703	
3074	0	32828	32742	
3075	0	32738	32756	
3076	0	32800	32830	
3077	0	32808	32802	
3078	0	32816	32788	
3079	0	32870	32748	
3080	0	32792	32830	
3081	0	32772	32726	
3082	0	32744	32730	
3083	0	32772	32788	
3084	0	32884	32755	
3085	0	32836	32746	
3086	0	32822	32656	
3087	0	32772	32846	
3088	0	32706	32866	
3089	0	32793	32860	
3090	0	32818	32804	
3091	0	32736	32820	
3092	0	32750	32710	
3093	0	32888	32704	
3094	0	32806	32868	
3095	0	32778	32840	
3096	0	32776	32822	
3097	0	32814	32788	
3098	0	32792	32730	
3099	0	32847	32730	
3100	0	32826	32708	
3101	0	32844	32810	
3102	0	32726	32671	
3103	0	32780	32752	
3104	0	32842	32782	
3105	0	32788	32708	
3106	0	32870	32790	
3107	0	32836	32730	
3108	0	32788	32746	
3109	0	32764	32688	
3110	0	32848	32711	
3111	0	32836	32838	
3112	0	32784	32834	
3113	0	32780	32810	
3114	0	32768	32858	
3115	0	32786	32708	
3116	0	32840	32740	
3117	0	32808	32800	
3118	0	32816	32826	
3119	0	32868	32654	
3120	0	32816	32656	
3121	0	32868	32766	
3122	0	32772	32805	
3123	0	32786	32760	
3124	0	32736	32738	
3125	0	32878	32756	
3126	0	32830	32821	
3127	0	32772	32692	
3128	0	32838	32807	
3129	0	32818	32700	
3130	0	32844	32688	
3131	0	32790	32740	
3132	0	32784	32850	
3133	0	32808	32798	
3134	0	32820	32790	
3135	0	32780	32770	
3136	0	32742	32785	
3137	0	32784	32718	
3138	0	32758	32815	
3139	0	32810	32866	
3140	0	32908	32647	
3141	0	32804	32836	
3142	0	32804	32828	
3143	0	32816	32868	
3144	0	32864	32634	
3145	0	32827	32756	
3146	0	32856	32732	
3147	0	32812	32810	
3148	0	32796	32708	
3149	0	32780	32807	
3150	0	32756	32775	
3151	0	32784	32796	
3152	0	32824	32726	
3153	0	32868	32825	
3154	0	32872	32800	
3155	0	32881	32732	
3156	0	32817	32656	
3157	0	32801	32835	
3158	0	32796	32761	
3159	0	32884	32657	
3160	0	32776	32700	
3161	0	32828	32768	
3162	0	32842	32801	
3163	0	32748	32720	
3164	0	32818	32759	
3165	0	32858	32788	
3166	0	32788	32775	
3167	0	32820	32788	
3168	0	32762	32636	
3169	0	32768	32790	
3170	0	32870	32876	
3171	0	32852	32804	
3172	0	32790	32680	
3173	0	32792	32718	
3174	0	32766	32794	
3175	0	32876	32844	
3176	0	32790	32687	
3177	0	32784	32855	
3178	0	32814	32752	
3179	0	32748	32858	
3180	0	32828	32710	
3181	0	32826	32647	
3182	0	32878	32796	
3183	0	32752	32740	
3184	0	32808	32789	
3185	0	32782	32710	
3186	0	32822	32675	
3187	0	32762	32863	
3188	0	32844	32752	
3189	0	32792	32852	
3190	0	32844	32726	
3191	0	32788	32660	
3192	0	32768	32712	
3193	0	32788	32737	
3194	0	32900	32750	
3195	0	32912	32775	
3196	0	32772	32636	
3197	0	32864	32719	
3198	0	32836	32884	
3199	0	32782	32784	
3200	0	32846	32877	
3201	0	32830	32694	
3202	0	32808	32814	
3203	0	32792	32806	
3204	0	32820	32821	
3205	0	32808	32742	
3206	0	32880	32756	
3207	0	32829	32788	
3208	0	32832	32824	
3209	0	32860	32791	
3210	0	32712	32742	
3211	0	32785	32856	
3212	0	32810	32742	
3213	0	32764	32794	
3214	0	32792	32818	
3215	0	32856	32708	
3216	0	32844	32672	
3217	0	32816	32739	
3218	0	32876	32828	
3219	0	32812	32768	
3220	0	32833	32720	
3221	0	32804	32795	
3222	0	32744	32748	
3223	0	32824	32801	
3224	0	32810	32718	
3225	0	32840	32680	
3226	0	32824	32732	
3227	0	32836	32848	
3228	0	32806	32728	
3229	0	32864	32788	
3230	0	32850	32743	
3231	0	32756	32782	
3232	0	32708	32812	
3233	0	32772	32739	
3234	0	32776	32890	
3235	0	32820	32736	
3236	0	32816	32728	
3237	0	32796	32791	
3238	0	32868	32858	
3239	0	32844	32842	
3240	0	32774	32662	
3241	0	32784	32718	
3242	0	32810	32744	
3243	0	32846	32756	
3244	0	32788	32795	
3245	0	32848	32698	
3246	0	32804	32767	
3247	0	32820	32792	
3248	0	32824	32863	
3249	0	32802	32870	
3250	0	32816	32692	
3251	0	32780	32766	
3252	0	32752	32822	
3253	0	32842	32740	
3254	0	32820	32826	
3255	0	32820	32700	
3256	0	32852	32736	
3257	0	32760	32876	
3258	0	32784	32722	
3259	0	32780	32764	
3260	0	32872	32717	
3261	0	32832	32688	
3262	0	32792	32802	
3263	0	32825	32748	
3264	0	32816	32784	
3265	0	32788	32850	
3266	0	32780	32750	
3267	0	32772	32814	
3268	0	32776	32808	
3269	0	32750	32762	
3270	0	32780	32743	
3271	0	32750	32660	
3272	0	32760	32751	
3273	0	32816	32772	
3274	0	32828	32798	
3275	0	32832	32760	
3276	0	32848	32671	
3277	0	32864	32700	
3278	0	32820	32694	
3279	0	32876	32794	
3280	0	32842	32763	
3281	0	32753	32804	
3282	0	32824	32772	
3283	0	32798	32678	
3284	0	32824	32708	
3285	0	32860	32775	
3286	0	32780	32860	
3287	0	32740	32793	
3288	0	32796	32646	
3289	0	32796	32796	
3290	0	32768	32832	
3291	0	32782	32743	
3292	0	32800	32684	
3293	0	32801	32824	
3294	0	32784	32796	
3295	0	32816	32824	
3296	0	32756	32711	
3297	0	32798	32737	
3298	0	32768	32710	
3299	0	32804	32870	
3300	0	32824	32747	
3301	0	32820	32762	
3302	0	32844	32798	
3303	0	32800	32838	
3304	0	32792	32739	
3305	0	32776	32868	
3306	0	32780	32816	
3307	0	32810	32823	
3308	0	32804	32774	
3309	0	32756	32736	
3310	0	32796	32820	
3311	0	32855	32716	
3312	0	32880	32704	
3313	0	32824	32807	
3314	0	32852	32774	
3315	0	32812	32775	
3316	0	32828	32775	
3317	0	32808	32631	
3318	0	32844	32816	
3319	0	32836	32775	
3320	0	32846	32794	
3321	0	32780	32718	
3322	0	32774	32624	
3323	0	32800	32802	
3324	0	32820	32800	
3325	0	32776	32800	
3326	0	32814	32743	
3327	0	32732	32706	
3328	0	32872	32849	
3329	0	32792	32895	
3330	0	32806	32743	
3331	0	32764	32872	
3332	0	32866	32796	
3333	0	32794	32814	
3334	0	32852	32686	
3335	0	32876	32674	
3336	0	32796	32724	
3337	0	32812	32839	
3338	0	32816	32607	
3339	0	32778	32820	
3340	0	32792	32822	
3341	0	32728	32738	
3342	0	32828	32732	
3343	0	32850	32750	
3344	0	32814	32791	
3345	0	32788	32839	
3346	0	32812	32732	
3347	0	32849	32769	
3348	0	32708	32712	
3349	0	32798	32768	
3350	0	32832	32676	
3351	0	32840	32830	
3352	0	32800	32804	
3353	0	32842	32692	
3354	0	32806	32788	
3355	0	32802	32816	
3356	0	32870	32834	
3357	0	32788	32703	
3358	0	32872	32836	
3359	0	32822	32742	
3360	0	32768	32666	
3361	0	32784	32752	
3362	0	32826	32804	
3363	0	32814	32800	
3364	0	32828	32728	
3365	0	32776	32756	
3366	0	32828	32764	
3367	0	32816	32692	
3368	0	32826	32720	
3369	0	32820	32740	
3370	0	32852	32775	
3371	0	32786	32743	
3372	0	32820	32758	
3373	0	32786	32764	
3374	0	32776	32836	
3375	0	32772	32668	
3376	0	32796	32838	
3377	0	32862	32710	
3378	0	32780	32774	
3379	0	32864	32710	
3380	0	32780	32855	
3381	0	32884	32756	
3382	0	32858	32774	
3383	0	32812	32770	
3384	0	32804	32818	
3385	0	32818	32756	
3386	0	32786	32807	
3387	0	32832	32766	
3388	0	32812	32698	
3389	0	32801	32798	
3390	0	32872	32748	
3391	0	32814	32842	
3392	0	32804	32706	
3393	0	32848	32818	
3394	0	32856	32844	
3395	0	32800	32737	
3396	0	32852	32846	
3397	0	32844	32711	
3398	0	32824	32759	
3399	0	32792	32798	
3400	0	32834	32772	
3401	0	32782	32758	
3402	0	32832	32654	
3403	0	32772	32828	
3404	0	32778	32756	
3405	0	32876	32870	
3406	0	32760	32768	
3407	0	32860	32828	
3408	0	32788	32798	
3409	0	32856	32724	
3410	0	32830	32642	
3411	0	32810	32918	
3412	0	32794	32706	
3413	0	32737	32736	
3414	0	32766	32732	
3415	0	32816	32708	
3416	0	32852	32820	
3417	0	32764	32759	
3418	0	32808	32817	
3419	0	32836	32740	
3420	0	32836	32662	
3421	0	32844	32852	
3422	0	32784	32866	
3423	0	32810	32824	
3424	0	32876	32820	
3425	0	32816	32762	
3426	0	32708	32702	
3427	0	32772	32828	
3428	0	32804	32823	
3429	0	32776	32790	
3430	0	32788	32871	
3431	0	32860	32703	
3432	0	32844	32695	
3433	0	32792	32794	
3434	0	32814	32775	
3435	0	32788	32810	
3436	0	32780	32696	
3437	0	32852	32828	
3438	0	32808	32857	
3439	0	32821	32732	
3440	0	32768	32650	
3441	0	32848	32836	
3442	0	32772	32724	
3443	0	32805	32775	
3444	0	32876	32770	
3445	0	32840	32730	
3446	0	32824	32804	
3447	0	32846	32774	
3448	0	32820	32894	
3449	0	32844	32725	
3450	0	32806	32692	
3451	0	32788	32831	
3452	0	32852	32820	
3453	0	32740	32796	
3454	0	32876	32724	
3455	0	32776	32832	
3456	0	32774	32752	
3457	0	32772	32748	
3458	0	32788	32620	
3459	0	32884	32872	
3460	0	32792	32808	
3461	0	32828	32806	
3462	0	32812	32772	
3463	0	32858	32700	
3464	0	32748	32822	
3465	0	32772	32800	
3466	0	32738	32748	
3467	0	32824	32695	
3468	0	32816	32677	
3469	0	32816	32734	
3470	0	32804	32738	
3471	0	32804	32760	
3472	0	32852	32796	
3473	0	32748	32711	
3474	0	32816	32679	
3475	0	32740	32806	
3476	0	32814	32692	
3477	0	32838	32783	
3478	0	32808	32628	
3479	0	32905	32775	
3480	0	32836	32841	
3481	0	32820	32846	
3482	0	32792	32820	
3483	0	32776	32734	
3484	0	32778	32768	
3485	0	32852	32828	
3486	0	32812	32688	
3487	0	32788	32736	
3488	0	32820	32896	
3489	0	32760	32775	
3490	0	32820	32855	
3491	0	32772	32767	
3492	0	32860	32828	
3493	0	32840	32762	
3494	0	32852	32834	
3495	0	32806	32711	
3496	0	32820	32830	
3497	0	32802	32783	
3498	0	32764	32815	
3499	0	32780	32678	
3500	0	32810	32752	
3501	0	32846	32856	
3502	0	32836	32750	
3503	0	32896	32758	
3504	0	32820	32698	
3505	0	32818	32698	
3506	0	32826	32792	
3507	0	32856	32828	
3508	0	32850	32750	
3509	0	32778	32828	
3510	0	32804	32711	
3511	0	32836	32846	
3512	0	32816	32736	
3513	0	32764	32768	
3514	0	32852	32980	
3515	0	32800	32862	
3516	0	32752	32828	
3517	0	32804	32766	
3518	0	32825	32775	
3519	0	32752	32740	
3520	0	32784	32724	
3521	0	32880	32794	
3522	0	32832	32815	
3523	0	32776	32742	
3524	0	32784	32820	
3525	0	32810	32868	
3526	0	32820	32714	
3527	0	32840	32664	
3528	0	32844	32719	
3529	0	32820	32804	
3530	0	32872	32761	
3531	0	32848	32786	
3532	0	32824	32710	
3533	0	32836	32694	
3534	0	32862	32830	
3535	0	32748	32854	
3536	0	32784	32918	
3537	0	32812	32912	
3538	0	32736	32836	
3539	0	32792	32846	
3540	0	32760	32839	
3541	0	32775	32775	
3542	0	32810	32723	
3543	0	32729	32662	
3544	0	32720	32672	
3545	0	32836	32519	
3546	0	32824	32666	
3547	0	32900	32722	
3548	0	32916	32504	
3549	0	32946	32540	
3550	0	32808	32628	
3551	0	32864	32710	
3552	0	32752	32679	
3553	0	32652	32734	
3554	0	32782	32727	
3555	0	32880	32800	
3556	0	32906	32802	
3557	0	32976	32844	
3558	0	32840	32831	
3559	0	32712	32768	
3560	0	32766	32758	
3561	0	32804	32742	
3562	0	32784	32766	
3563	0	32774	32911	
3564	0	32708	32952	
3565	0	32772	33031	
3566	0	32784	32826	
3567	0	32776	32788	
3568	0	32834	32754	
3569	0	32878	32711	
3570	0	32740	32506	
3571	0	32772	32636	
3572	0	32780	32881	
3573	0	32788	32871	
3574	0	32708	32871	
3575	0	32669	32815	
3576	0	32744	32645	
3577	0	32736	32679	
3578	0	32724	32714	
3579	0	32792	32884	
3580	0	32814	32804	
3581	0	32900	32820	
3582	0	32884	32790	
3583	0	32876	32762	
3584	0	32912	32714	
3585	0	32870	32745	
3586	0	32836	32632	
3587	0	32788	32806	
3588	0	32798	32726	
3589	0	32886	32760	
3590	0	32836	32700	
3591	0	32782	32844	
3592	0	32842	32786	
3593	0	32794	32607	
3594	0	32888	32774	
3595	0	32838	32752	
3596	0	32860	32774	
3597	0	32878	32660	
3598	0	32842	32898	
3599	0	32952	32915	
3600	0	32913	32693	
3601	0	32900	32742	
3602	0	32920	32807	
3603	0	32864	32836	
3604	0	32912	32802	
3605	0	32912	32752	
3606	0	32918	32647	
3607	0	32878	32800	
3608	0	32824	32766	
3609	0	32852	32764	
3610	0	32812	32719	
3611	0	32864	32884	
3612	0	32844	32836	
3613	0	32788	32836	
3614	0	32786	32708	
3615	0	32748	32850	
3616	0	32716	32766	
3617	0	32824	32738	
3618	0	32792	32732	
3619	0	32806	32825	
3620	0	32826	32819	
3621	0	32752	32772	
3622	0	32708	32756	
3623	0	32766	32666	
3624	0	32760	32686	
3625	0	32788	32790	
3626	0	32764	32764	
3627	0	32788	32775	
3628	0	32798	32718	
3629	0	32764	32762	
3630	0	32800	32746	
3631	0	32820	32794	
3632	0	32748	32660	
3633	0	32782	32782	
3634	0	32784	32760	
3635	0	32740	32696	
3636	0	32802	32670	
3637	0	32816	32694	
3638	0	32856	32839	
3639	0	32808	32647	
3640	0	32716	32746	
3641	0	32820	32796	
3642	0	32802	32874	
3643	0	32781	32720	
3644	0	32784	32916	
3645	0	32820	32824	
3646	0	32764	32884	
3647	0	32794	33012	
3648	0	32722	32880	
3649	0	32738	32896	
3650	0	32770	32591	
3651	0	32800	32356	
3652	0	32872	32596	
3653	0	32852	32519	
3654	0	32772	32568	
3655	0	32774	32506	
3656	0	32856	32903	
3657	0	32874	32880	
3658	0	32834	32800	
3659	0	32845	32652	
3660	0	32872	32676	
3661	0	32842	32798	
3662	0	32748	32938	
3663	0	32668	32903	
3664	0	32678	32874	
3665	0	32676	32710	
3666	0	32712	32719	
3667	0	32782	32735	
3668	0	32860	32812	
3669	0	32892	32864	
3670	0	32888	32812	
3671	0	32842	33006	
3672	0	32769	32932	
3673	0	32800	32913	
3674	0	32770	32986	
3675	0	32764	32730	
3676	0	32782	32680	
3677	0	32828	32690	
3678	0	32868	32744	
3679	0	32920	32666	
3680	0	32872	32658	
3681	0	32822	32704	
3682	0	32856	32748	
3683	0	32846	32748	
3684	0	32824	32743	
3685	0	32786	32817	
3686	0	32794	32756	
3687	0	32892	32804	
3688	0	32790	32724	
3689	0	32856	32809	
3690	0	32836	32756	
3691	0	32840	32802	
3692	0	32790	32682	
3693	0	32804	32810	
3694	0	32882	32764	
3695	0	32873	32798	
3696	0	32848	32805	
3697	0	32834	32760	
3698	0	32780	32839	
3699	0	32862	32821	
3700	0	32840	32774	
3701	0	32770	32769	
3702	0	32864	32752	
3703	0	32880	32879	
3704	0	32928	32716	
3705	0	32888	32852	
3706	0	32842	32876	
3707	0	32756	32822	
3708	0	32680	32839	
3709	0	32672	32924	
3710	0	32684	32676	
3711	0	32712	32636	
3712	0	32756	32588	
3713	0	32704	32674	
3714	0	32792	32742	
3715	0	32848	32740	
3716	0	32850	32945	
3717	0	32770	32885	
3718	0	32736	32762	
3719	0	32720	32720	
3720	0	32835	32582	
3721	0	32906	32696	
3722	0	33064	32694	
3723	0	32976	32740	
3724	0	32908	32662	
3725	0	32820	32752	
3726	0	32813	32848	
3727	0	32744	32738	
3728	0	32700	32768	
3729	0	32672	32671	
3730	0	32780	32695	
3731	0	32746	32682	
3732	0	32762	32775	
3733	0	32784	32775	
3734	0	32800	32717	
3735	0	32804	32903	
3736	0	32834	33018	
3737	0	32874	33020	
3738	0	32808	32903	
3739	0	32864	32487	
3740	0	32944	32646	
3741	0	32916	32631	
3742	0	32828	32885	
3743	0	32798	32816	
3744	0	32736	33130	
3745	0	32744	32999	
3746	0	32714	32656	
3747	0	32708	32678	
3748	0	32764	32606	
3749	0	32906	32494	
3750	0	32980	32510	
3751	0	32864	32626	
3752	0	32684	32716	
3753	0	32612	32690	
3754	0	32624	32764	
3755	0	32638	32775	
3756	0	32692	32877	
3757	0	32698	32880	
3758	0	32724	32788	
3759	0	32856	32854	
3760	0	32838	32825	
3761	0	32834	32702	
3762	0	32792	32694	
3763	0	32862	32775	
3764	0	32896	32772	
3765	0	32812	32743	
3766	0	32908	32774	
3767	0	32952	32839	
3768	0	32966	32686	
3769	0	32906	32594	
3770	0	32870	32575	
3771	0	32872	32662	
3772	0	32894	32694	
3773	0	32888	32580	
3774	0	32970	32582	
3775	0	33008	32670	
3776	0	32968	32614	
3777	0	32972	32620	
3778	0	32976	32609	
3779	0	32954	32638	
3780	0	32943	32537	
3781	0	32910	32690	
3782	0	32944	32740	
3783	0	32957	32710	
3784	0	32920	32753	
3785	0	32824	32721	
3786	0	32948	32714	
3787	0	32796	32860	
3788	0	32668	32889	
3789	0	32654	32917	
3790	0	32576	33060	
3791	0	32484	33031	
3792	0	32444	33172	
3793	0	32372	33164	
3794	0	32238	33383	
3795	0	32154	33536	
3796	0	32324	33486	
3797	0	32472	33158	
3798	0	32666	32814	
3799	0	32728	32894	
3800	0	32756	32796	
3801	0	32852	33036	
3802	0	32944	33072	
3803	0	32845	32746	
3804	0	32844	32844	
3805	0	32904	32551	
3806	0	32804	32460	
3807	0	32806	32678	
3808	0	32822	32606	
3809	0	32865	32807	
3810	0	32972	32540	
3811	0	32940	32661	
3812	0	33012	32868	
3813	0	32850	32796	
3814	0	32826	32610	
3815	0	32908	32414	
3816	0	33140	32620	
3817	0	33226	32510	
3818	0	33010	32370	
3819	0	32858	32248	
3820	0	32684	32206	
3821	0	32564	32360	
3822	0	32728	32572	
3823	0	32812	32680	
3824	0	33066	32568	
3825	0	33024	32657	
3826	0	32824	32728	
3827	0	32836	32868	
3828	0	32792	32820	
3829	0	32798	32948	
3830	0	32794	32918	
3831	0	32782	32900	
3832	0	32842	32804	
3833	0	32832	32914	
3834	0	32776	32858	
3835	0	32856	32764	
3836	0	32840	32844	
3837	0	32786	32826	
3838	0	32842	32926	
3839	0	32892	32799	
3840	0	32834	32678	
3841	0	32892	32764	
3842	0	32832	32735	
3843	0	32834	32740	
3844	0	32908	32768	
3845	0	32998	32824	
3846	0	32996	32826	
3847	0	32944	32759	
3848	0	32924	32850	
3849	0	32740	32932	
3850	0	32618	33008	
3851	0	32564	32836	
3852	0	32580	32676	
3853	0	32564	32702	
3854	0	32572	32982	
3855	0	32692	32660	
3856	0	32812	32580	
3857	0	32894	32574	
3858	0	32876	32565	
3859	0	32856	32732	
3860	0	33006	33095	
3861	0	33096	33104	
3862	0	32888	32864	
3863	0	32716	32806	
3864	0	32569	32743	
3865	0	32830	32476	
3866	0	32834	32628	
3867	0	32776	32806	
3868	0	32792	32878	
3869	0	32804	32870	
3870	0	32820	32738	
3871	0	32880	32719	
3872	0	32748	32872	
3873	0	32770	32586	
3874	0	32816	32480	
3875	0	32780	32574	
3876	0	32792	32836	
3877	0	32806	32870	
3878	0	32763	32789	
3879	0	32714	32647	
3880	0	32868	32572	
3881	0	32872	32924	
3882	0	32812	32903	
3883	0	32756	33114	
3884	0	32766	32988	
3885	0	32784	32884	
3886	0	32854	32826	
3887	0	32912	32732	
3888	0	32884	32714	
3889	0	32804	32544	
3890	0	32816	32634	
3891	0	32794	32572	
3892	0	32756	32596	
3893	0	32717	32606	
3894	0	32846	32760	
3895	0	32801	32754	
3896	0	32924	32775	
3897	0	32912	32756	
3898	0	32850	32736	
3899	0	32764	32758	
3900	0	32848	32794	
3901	0	32788	32657	
3902	0	32796	32831	
3903	0	32804	32684	
3904	0	32804	32728	
3905	0	32796	32750	
3906	0	32732	32720	
3907	0	32752	32791	
3908	0	32800	32834	
3909	0	32802	32736	
3910	0	32792	32814	
3911	0	32810	32836	
3912	0	32784	32768	
3913	0	32828	32756	
3914	0	32844	32831	
3915	0	32926	32982	
3916	0	32753	33039	
3917	0	32768	32608	
3918	0	32901	32468	
3919	0	32964	32655	
3920	0	32924	32810	
3921	0	33016	33098	
3922	0	32832	32775	
3923	0	32757	32974	
3924	0	32398	33080	
3925	0	32194	32876	
3926	0	32688	32648	
3927	0	33144	32671	
3928	0	33160	32646	
3929	0	32888	32663	
3930	0	32772	32622	
3931	0	32828	32630	
3932	0	32832	32727	
3933	0	32846	32810	
3934	0	32800	32632	
3935	0	32808	32740	
3936	0	32804	32746	
3937	0	32812	32696	
3938	0	32832	32664	
3939	0	32788	32844	
3940	0	32801	32800	
3941	0	32668	32827	
3942	0	32674	32844	
3943	0	32768	32734	
3944	0	32984	32612	
3945	0	32920	32696	
3946	0	32820	32962	
3947	0	32884	32836	
3948	0	33086	32986	
3949	0	32884	32906	
3950	0	32824	32750	
3951	0	32824	32764	
3952	0	32774	32732	
3953	0	32696	32768	
3954	0	32736	32636	
3955	0	32657	32762	
3956	0	32800	32775	
3957	0	32754	32704	
3958	0	32868	32700	
3959	0	32740	32679	
3960	0	32774	32790	
3961	0	32784	32792	
3962	0	32822	32730	
3963	0	32834	32652	
3964	0	32828	32846	
3965	0	32840	32754	
3966	0	32804	32884	
3967	0	32812	32760	
3968	0	32772	32788	
3969	0	32830	32660	
3970	0	32798	32662	
3971	0	32800	32775	
3972	0	32784	33008	
3973	0	32780	32939	
3974	0	32768	32892	
3975	0	32796	32764	
3976	0	32860	32698	
3977	0	32759	32692	
3978	0	33006	32888	
3979	0	33220	33026	
3980	0	32956	32690	
3981	0	32828	32800	
3982	0	32753	32828	
3983	0	32774	33002	
3984	0	32721	32748	
3985	0	32736	32679	
3986	0	32831	32650	
3987	0	32820	32720	
3988	0	32856	32858	
3989	0	32836	33063	
3990	0	32846	32746	
3991	0	32772	32454	
3992	0	32632	32388	
3993	0	32356	32112	
3994	0	32612	32134	
3995	0	32824	32616	
3996	0	32913	33365	
3997	0	33076	33378	
3998	0	33145	33298	
3999	0	33048	32772	
4000	0	32845	32582	
4001	0	33002	32478	
4002	0	32974	32624	
4003	0	32820	32534	
4004	0	32706	32646	
4005	0	32714	32812	
4006	0	32648	33132	
4007	0	32586	33012	
4008	0	32542	32938	
4009	0	32664	32678	
4010	0	32676	32734	
4011	0	32704	32674	
4012	0	32838	32774	
4013	0	32591	32590	
4014	0	32564	32720	
4015	0	32884	32818	
4016	0	33292	32853	
4017	0	33152	32604	
4018	0	33036	32512	
4019	0	32868	32766	
4020	0	32720	32868	
4021	0	32846	32880	
4022	0	32744	32924	
4023	0	32748	32956	
4024	0	32760	32919	
4025	0	32744	32732	
4026	0	32740	32762	
4027	0	32812	32767	
4028	0	32792	32736	
4029	0	32740	32728	
4030	0	32788	32711	
4031	0	32868	32790	
4032	0	32810	32791	
4033	0	32838	32864	
4034	0	32788	32828	
4035	0	32798	32746	
4036	0	32624	32682	
4037	0	32758	32663	
4038	0	32946	32775	
4039	0	33016	33031	
4040	0	32980	32964	
4041	0	32836	32750	
4042	0	32900	32226	
4043	0	33030	32550	
4044	0	33116	32820	
4045	0	33084	32808	
4046	0	32728	32832	
4047	0	32648	32960	
4048	0	32600	32896	
4049	0	32590	32772	
4050	0	32694	32730	
4051	0	32720	32678	
4052	0	32808	32647	
4053	0	32722	32746	
4054	0	32772	32724	
4055	0	32898	32608	
4056	0	32994	32828	
4057	0	32792	32944	
4058	0	32720	32984	
4059	0	32722	33036	
4060	0	32992	33058	
4061	0	32876	32732	
4062	0	33000	32524	
4063	0	33012	32335	
4064	0	32792	32600	
4065	0	32652	33126	
4066	0	32484	33262	
4067	0	32510	32900	
4068	0	32584	32726	
4069	0	32760	32454	
4070	0	32960	32599	
4071	0	32876	32512	
4072	0	32788	32713	
4073	0	32900	32868	
4074	0	32816	33215	
4075	0	32788	33157	
4076	0	33100	32740	
4077	0	33122	32650	
4078	0	32872	32470	
4079	0	32792	32254	
4080	0	32536	32513	
4081	0	32504	32556	
4082	0	32384	32734	
4083	0	32504	32727	
4084	0	32634	32812	
4085	0	32868	32832	
4086	0	33084	32702	
4087	0	33074	32887	
4088	0	32948	32823	
4089	0	32896	32794	
4090	0	32808	32811	
4091	0	32790	32679	
4092	0	32876	32586	
4093	0	32884	32903	
4094	0	32798	33204	
4095	0	32764	33094	
4096	0	32748	32768	
4097	0	32856	32722	
4098	0	32856	32679	
4099	0	32792	32692	
4100	0	32784	32599	
4101	0	32688	32772	
4102	0	32784	32756	
4103	0	32951	32686	
4104	0	33076	32808	
4105	0	32976	32876	
4106	0	32800	32759	
4107	0	32740	32771	
4108	0	32744	32704	
4109	0	32736	32528	
4110	0	32840	32860	
4111	0	32824	33026	
4112	0	32888	32759	
4113	0	32716	32710	
4114	0	32776	32628	
4115	0	32824	32549	
4116	0	32767	32992	
4117	0	32680	33042	
4118	0	32752	33159	
4119	0	32970	33016	
4120	0	33004	32812	
4121	0	33040	32527	
4122	0	32972	32615	
4123	0	32700	32470	
4124	0	32592	32207	
4125	0	32618	32719	
4126	0	32792	33194	
4127	0	32828	33130	
4128	0	32904	33062	
4129	0	32900	32816	
4130	0	32964	32664	
4131	0	32956	32646	
4132	0	32924	32596	
4133	0	32988	32603	
4134	0	32634	32814	
4135	0	32738	33000	
4136	0	32544	33136	
4137	0	32596	32700	
4138	0	33136	32722	
4139	0	33128	32544	
4140	0	32980	32647	
4141	0	32763	32375	
4142	0	32708	32228	
4143	0	32700	32638	
4144	0	32684	32982	
4145	0	32652	33012	
4146	0	32756	32930	
4147	0	32768	32862	
4148	0	32892	32892	
4149	0	32788	32726	
4150	0	32832	32800	
4151	0	32820	32838	
4152	0	32860	32820	
4153	0	32740	32840	
4154	0	32852	32896	
4155	0	32868	32898	
4156	0	32836	32876	
4157	0	32878	32838	
4158	0	32836	32928	
4159	0	32760	32230	
4160	0	32692	32281	
4161	0	32934	33202	
4162	0	32804	33435	
4163	0	32692	33302	
4164	0	32900	32822	
4165	0	32986	32483	
4166	0	32892	32653	
4167	0	32890	32806	
4168	0	32926	32742	
4169	0	32744	32488	
4170	0	32616	32558	
4171	0	32554	32519	
4172	0	32662	32430	
4173	0	32708	32647	
4174	0	32618	32660	
4175	0	32612	32748	
4176	0	32812	32968	
4177	0	32834	33076	
4178	0	33046	33042	
4179	0	33128	33000	
4180	0	33024	32631	
4181	0	32860	32768	
4182	0	32832	32872	
4183	0	32840	32804	
4184	0	32646	33080	
4185	0	32618	32652	
4186	0	32764	32652	
4187	0	32716	32762	
4188	0	32830	32868	
4189	0	32808	32640	
4190	0	32816	32496	
4191	0	32890	32500	
4192	0	32876	32594	
4193	0	32806	32801	
4194	0	32824	33040	
4195	0	32786	32928	
4196	0	32736	32742	
4197	0	32780	32792	
4198	0	32736	32775	
4199	0	32796	32692	
4200	0	32800	32719	
4201	0	32904	32836	
4202	0	32872	32847	
4203	0	32744	32682	
4204	0	32760	32415	
4205	0	32826	32390	
4206	0	32812	32600	
4207	0	32816	32628	
4208	0	33184	33178	
4209	0	33064	33462	
4210	0	32292	33381	
4211	0	32584	33090	
4212	0	33208	32807	
4213	0	33316	32498	
4214	0	33192	32370	
4215	0	32808	32248	
4216	0	32632	32484	
4217	0	32598	32741	
4218	0	32614	32986	
4219	0	32536	32934	
4220	0	32692	32678	
4221	0	32712	32646	
4222	0	32760	32702	
4223	0	32952	32618	
4224	0	32956	32742	
4225	0	33090	32848	
4226	0	32872	32894	
4227	0	32820	33080	
4228	0	32810	32844	
4229	0	32812	32900	
4230	0	32612	32674	
4231	0	32644	32576	
4232	0	32788	32694	
4233	0	32856	32800	
4234	0	33002	32807	
4235	0	33024	32678	
4236	0	32864	32705	
4237	0	32736	32796	
4238	0	32816	32810	
4239	0	32680	32725	
4240	0	32494	32756	
4241	0	32760	32722	
4242	0	32884	32652	
4243	0	32928	32762	
4244	0	32813	32948	
4245	0	32884	32676	
4246	0	32844	32518	
4247	0	32804	32812	
4248	0	32804	33060	
4249	0	32654	33126	
4250	0	32708	32682	
4251	0	32916	32804	
4252	0	33108	32647	
4253	0	33116	32516	
4254	0	32956	32511	
4255	0	32632	32682	
4256	0	32444	32725	
4257	0	32596	32868	
4258	0	32900	32856	
4259	0	33156	32924	
4260	0	33208	32784	
4261	0	32976	32820	
4262	0	32856	32818	
4263	0	32732	32810	
4264	0	32644	32836	
4265	0	32636	32767	
4266	0	32682	32842	
4267	0	32864	32775	
4268	0	32832	32700	
4269	0	32720	32692	
4270	0	32664	32647	
4271	0	32564	32748	
4272	0	32540	32689	
4273	0	32634	32588	
4274	0	32724	32727	
4275	0	32844	32808	
4276	0	33040	32743	
4277	0	33052	32702	
4278	0	33042	32740	
4279	0	32784	32620	
4280	0	32852	32871	
4281	0	32834	32792	
4282	0	32724	32704	
4283	0	32756	32720	
4284	0	32820	32497	
4285	0	32930	32856	
4286	0	32988	32982	
4287	0	32776	32918	
4288	0	32784	32936	
4289	0	32732	32832	
4290	0	32832	32884	
4291	0	32929	32876	
4292	0	32840	32739	
4293	0	32728	32634	
4294	0	32658	32662	
4295	0	32660	32671	
4296	0	32604	32799	
4297	0	32788	32726	
4298	0	32992	32711	
4299	0	32848	32505	
4300	0	32894	32609	
4301	0	32912	33026	
4302	0	32776	33073	
4303	0	32736	32788	
4304	0	32740	32830	
4305	0	32816	32932	
4306	0	32976	32801	
4307	0	32900	32734	
4308	0	32832	32568	
4309	0	32892	32538	
4310	0	32820	32775	
4311	0	32788	32876	
4312	0	32838	32800	
4313	0	32832	32806	
4314	0	32844	33058	
4315	0	32706	33200	
4316	0	32520	32895	
4317	0	32436	32597	
4318	0	32708	32739	
4319	0	32934	32806	
4320	0	32908	32612	
4321	0	33280	32486	
4322	0	33349	32486	
4323	0	33186	32529	
4324	0	32972	32551	
4325	0	32940	32914	
4326	0	32506	32484	
4327	0	32264	32552	
4328	0	32308	32614	
4329	0	32480	32572	
4330	0	32664	32607	
4331	0	32734	33278	
4332	0	32760	33384	
4333	0	32798	33163	
4334	0	32960	32922	
4335	0	32916	32836	
4336	0	32888	32752	
4337	0	32916	32828	
4338	0	32904	32736	
4339	0	32766	32620	
4340	0	32678	32652	
4341	0	32728	32662	
4342	0	32780	32519	
4343	0	32772	32724	
4344	0	32852	32756	
4345	0	32958	32668	
4346	0	32936	32646	
4347	0	32948	32812	
4348	0	32890	32767	
4349	0	32920	32964	
4350	0	32720	32702	
4351	0	32862	32702	
4352	0	32888	32583	
4353	0	32768	32902	
4354	0	32704	32932	
4355	0	32662	32948	
4356	0	32600	32764	
4357	0	32812	32838	
4358	0	33072	32909	
4359	0	32928	32766	
4360	0	32808	32738	
4361	0	32776	32718	
4362	0	32826	32775	
4363	0	32724	32711	
4364	0	32712	32736	
4365	0	32860	32720	
4366	0	32846	32823	
4367	0	32924	32822	
4368	0	32864	32935	
4369	0	32852	32718	
4370	0	32828	32794	
4371	0	32446	32588	
4372	0	32312	32404	
4373	0	32746	32684	
4374	0	33270	33119	
4375	0	33180	32940	
4376	0	33024	32792	
4377	0	32804	32988	
4378	0	32724	33006	
4379	0	32740	32806	
4380	0	32840	32678	
4381	0	32998	32632	
4382	0	32881	32679	
4383	0	32712	32574	
4384	0	32784	32670	
4385	0	32776	32967	
4386	0	32648	32741	
4387	0	32432	32692	
4388	0	32592	32942	
4389	0	32928	33038	
4390	0	32970	33144	
4391	0	32968	32775	
4392	0	32916	32454	
4393	0	32840	32268	
4394	0	32806	32028	
4395	0	32754	32583	
4396	0	32708	32916	
4397	0	32768	33258	
4398	0	32884	33268	
4399	0	32848	33046	
4400	0	32664	32676	
4401	0	32548	32596	
4402	0	32644	32423	
4403	0	32664	32594	
4404	0	32600	32708	
4405	0	32620	32655	
4406	0	32600	32929	
4407	0	32682	32823	
4408	0	32886	32742	
4409	0	32776	32774	
4410	0	33220	32954	
4411	0	33492	32976	
4412	0	33399	32710	
4413	0	33048	32732	
4414	0	32792	32616	
4415	0	32656	32768	
4416	0	32696	33054	
4417	0	32708	32980	
4418	0	32676	32775	
4419	0	32776	32818	
4420	0	32788	32768	
4421	0	32878	32868	
4422	0	32810	32756	
4423	0	32664	32732	
4424	0	32740	32894	
4425	0	32608	32496	
4426	0	32796	32406	
4427	0	32820	32766	
4428	0	32772	33182	
4429	0	32836	32884	
4430	0	32888	32589	
4431	0	32832	32460	
4432	0	32978	32519	
4433	0	33028	32559	
4434	0	32748	32820	
4435	0	32728	33031	
4436	0	32814	32840	
4437	0	32752	32596	
4438	0	32744	32682	
4439	0	32774	32734	
4440	0	32800	32618	
4441	0	32812	32849	
4442	0	32820	32948	
4443	0	32805	32934	
4444	0	32878	32922	
4445	0	32844	32796	
4446	0	32876	32618	
4447	0	32864	32718	
4448	0	32788	32746	
4449	0	32764	32756	
4450	0	32776	32703	
4451	0	32844	32826	
4452	0	32796	32812	
4453	0	32812	33028	
4454	0	32812	33006	
4455	0	32590	32730	
4456	0	32592	32808	
4457	0	32928	32594	
4458	0	33178	32668	
4459	0	33108	32718	
4460	0	32944	32548	
4461	0	32884	32790	
4462	0	32800	32854	
4463	0	32720	32974	
4464	0	32756	32812	
4465	0	32700	32647	
4466	0	32700	32775	
4467	0	32712	32692	
4468	0	32782	32692	
4469	0	32824	32775	
4470	0	32784	32746	
4471	0	32788	32698	
4472	0	32952	32974	
4473	0	32980	32828	
4474	0	32916	32850	
4475	0	32612	32728	
4476	0	32658	32998	
4477	0	33108	32966	
4478	0	33184	33375	
4479	0	33108	33084	
4480	0	32848	32312	
4481	0	32512	32578	
4482	0	32308	32671	
4483	0	32724	32500	
4484	0	32776	32164	
4485	0	32832	32390	
4486	0	32822	32576	
4487	0	32672	32622	
4488	0	32568	32700	
4489	0	32676	32735	
4490	0	32860	32664	
4491	0	32814	32648	
4492	0	32912	32804	
4493	0	33054	32722	
4494	0	32900	32935	
4495	0	32780	33114	
4496	0	32754	33089	
4497	0	32742	32877	
4498	0	32562	32791	
4499	0	32560	32664	
4500	0	32468	32512	
4501	0	32752	32802	
4502	0	33212	32912	
4503	0	33492	33038	
4504	0	33252	33376	
4505	0	32897	32999	
4506	0	32622	32768	
4507	0	32512	32615	
4508	0	32736	32325	
4509	0	32790	32431	
4510	0	32810	32479	
4511	0	32784	32519	
4512	0	32928	32806	
4513	0	32868	32750	
4514	0	32730	32692	
4515	0	32756	32732	
4516	0	32678	32758	
4517	0	32684	32861	
4518	0	32736	32752	
4519	0	32758	32900	
4520	0	32765	32788	
4521	0	32828	32670	
4522	0	32812	32820	
4523	0	32771	32556	
4524	0	32824	32624	
4525	0	32792	32895	
4526	0	32808	33334	
4527	0	32840	33110	
4528	0	32932	32516	
4529	0	32692	32564	
4530	0	32704	32775	
4531	0	32758	32916	
4532	0	33050	33062	
4533	0	32962	32846	
4534	0	32948	32570	
4535	0	32946	32498	
4536	0	32838	32720	
4537	0	32876	32822	
4538	0	32848	32816	
4539	0	32748	32598	
4540	0	32864	32656	
4541	0	32770	33038	
4542	0	32780	33067	
4543	0	32704	32886	
4544	0	32678	32728	
4545	0	32764	32542	
4546	0	32720	32448	
4547	0	32789	32468	
4548	0	33098	32124	
4549	0	33361	32382	
4550	0	33310	33684	
4551	0	33120	34160	
4552	0	32680	33836	
4553	0	32592	32808	
4554	0	32480	32200	
4555	0	32565	32424	
4556	0	32532	32631	
4557	0	32488	32660	
4558	0	32696	32625	
4559	0	32694	32374	
4560	0	32740	32396	
4561	0	32780	32720	
4562	0	32836	32785	
4563	0	32898	32612	
4564	0	33088	32476	
4565	0	33104	32618	
4566	0	33012	32746	
4567	0	32892	32806	
4568	0	32848	32775	
4569	0	32772	32756	
4570	0	32508	32696	
4571	0	32632	32689	
4572	0	32810	32527	
4573	0	32788	32812	
4574	0	33144	32788	
4575	0	33172	32448	
4576	0	33052	32662	
4577	0	32618	33704	
4578	0	32616	33902	
4579	0	32878	33432	
4580	0	32978	33265	
4581	0	32932	33116	
4582	0	32582	32678	
4583	0	32430	32444	
4584	0	32432	32391	
4585	0	32641	32308	
4586	0	32754	32344	
4587	0	32884	32496	
4588	0	32856	32599	
4589	0	32840	32734	
4590	0	32880	32763	
4591	0	32850	32702	
4592	0	32752	32663	
4593	0	32764	32722	
4594	0	32752	32840	
4595	0	32764	32748	
4596	0	32770	32828	
4597	0	32862	32764	
4598	0	32874	32692	
4599	0	32868	32710	
4600	0	32996	32898	
4601	0	32972	32886	
4602	0	32928	32775	
4603	0	32800	32866	
4604	0	32734	32796	
4605	0	32826	32820	
4606	0	32810	32798	
4607	0	32840	32737	
4608	0	32914	32820	
4609	0	32876	32881	
4610	0	32772	32796	
4611	0	32676	32791	
4612	0	32732	32714	
4613	0	32692	32707	
4614	0	32632	32764	
4615	0	32868	32858	
4616	0	32986	32700	
4617	0	32948	32664	
4618	0	32800	32788	
4619	0	32704	32946	
4620	0	32616	32806	
4621	0	32646	32679	
4622	0	32464	32526	
4623	0	32681	32646	
4624	0	33312	32344	
4625	0	33646	32848	
4626	0	33312	33311	
4627	0	32764	33338	
4628	0	32656	32836	
4629	0	32564	32810	
4630	0	32752	33319	
4631	0	32942	32787	
4632	0	32480	32242	
4633	0	31936	32050	
4634	0	32384	32154	
4635	0	32860	32448	
4636	0	33216	32895	
4637	0	33336	33020	
4638	0	33094	32706	
4639	0	32992	32519	
4640	0	32810	32524	
4641	0	32932	32460	
4642	0	32948	32678	
4643	0	32962	32679	
4644	0	33044	32647	
4645	0	33036	32532	
4646	0	32984	32684	
4647	0	32858	32756	
4648	0	32988	32730	
4649	0	33012	32672	
4650	0	33020	32543	
4651	0	33008	32764	
4652	0	32940	33098	
4653	0	32752	32972	
4654	0	32672	33050	
4655	0	32442	33190	
4656	0	32536	33268	
4657	0	32604	33008	
4658	0	32584	32876	
4659	0	32324	32927	
4660	0	32132	33108	
4661	0	31998	33380	
4662	0	32120	33575	
4663	0	32520	33338	
4664	0	32956	32986	
4665	0	32804	32924	
4666	0	32884	32693	
4667	0	32928	32788	
4668	0	33006	32684	
4669	0	32874	32839	
4670	0	32724	32750	
4671	0	32884	32735	
4672	0	32884	32532	
4673	0	32734	32519	
4674	0	32672	32516	
4675	0	32606	32618	
4676	0	32644	32600	
4677	0	32826	32869	
4678	0	33052	32871	
4679	0	33012	32544	
4680	0	32952	32172	
4681	0	33168	32592	
4682	0	33462	33031	
4683	0	33068	32999	
4684	0	32788	32554	
4685	0	32708	32294	
4686	0	33012	32448	
4687	0	33140	32542	
4688	0	32928	32602	
4689	0	32808	32794	
4690	0	32652	32572	
4691	0	32588	32785	
4692	0	32744	32671	
4693	0	33188	32734	
4694	0	33152	32678	
4695	0	32976	32588	
4696	0	32680	32756	
4697	0	32512	32944	
4698	0	32548	32786	
4699	0	32572	32860	
4700	0	32548	32970	
4701	0	32636	32956	
4702	0	32836	32912	
4703	0	32878	32535	
4704	0	32930	32751	
4705	0	32832	32839	
4706	0	32824	32807	
4707	0	32872	32860	
4708	0	32836	32840	
4709	0	32828	32876	
4710	0	32916	32752	
4711	0	32820	32820	
4712	0	32753	32735	
4713	0	32780	32812	
4714	0	32796	32702	
4715	0	32872	32732	
4716	0	32890	32814	
4717	0	32824	32816	
4718	0	32864	32666	
4719	0	32858	32746	
4720	0	32760	32783	
4721	0	32768	32818	
4722	0	32704	32850	
4723	0	32740	32852	
4724	0	32872	32784	
4725	0	32918	32879	
4726	0	32924	32544	
4727	0	32974	32612	
4728	0	32980	32842	
4729	0	32784	33204	
4730	0	32460	33223	
4731	0	32656	33370	
4732	0	33096	33068	
4733	0	33092	32800	
4734	0	33176	32788	
4735	0	32888	32572	
4736	0	32628	32660	
4737	0	32512	32248	
4738	0	32648	32116	
4739	0	32716	32804	
4740	0	32920	32914	
4741	0	32826	32844	
4742	0	32648	32716	
4743	0	32776	32798	
4744	0	32824	32440	
4745	0	32786	32460	
4746	0	32780	32704	
4747	0	32668	33012	
4748	0	32910	33016	
4749	0	33112	32584	
4750	0	32865	32263	
4751	0	32882	32610	
4752	0	33128	33446	
4753	0	32528	33200	
4754	0	32212	33080	
4755	0	32772	33036	
4756	0	33153	32538	
4757	0	32964	32657	
4758	0	32834	32683	
4759	0	32754	32734	
4760	0	32690	32823	
4761	0	32660	32730	
4762	0	32779	32672	
4763	0	32808	32494	
4764	0	32796	32638	
4765	0	32860	32822	
4766	0	32764	32775	
4767	0	32700	32903	
4768	0	32696	32806	
4769	0	32756	32728	
4770	0	32908	32846	
4771	0	32928	32903	
4772	0	32836	32754	
4773	0	32808	32590	
4774	0	32694	32644	
4775	0	32718	32647	
4776	0	32844	32670	
4777	0	32888	32782	
4778	0	32824	32812	
4779	0	32720	32622	
4780	0	32896	32518	
4781	0	32966	32630	
4782	0	32882	32700	
4783	0	32948	32817	
4784	0	32768	33018	
4785	0	32862	33240	
4786	0	33212	33063	
4787	0	33360	32801	
4788	0	33004	32894	
4789	0	32584	32756	
4790	0	32550	32318	
4791	0	32542	32230	
4792	0	32472	32796	
4793	0	32324	33244	
4794	0	32494	33176	
4795	0	32832	32962	
4796	0	33042	32742	
4797	0	33032	32655	
4798	0	32849	32660	
4799	0	32914	32836	
4800	0	32814	33020	
4801	0	32800	32956	
4802	0	32448	32730	
4803	0	32384	32417	
4804	0	32654	32272	
4805	0	33064	32516	
4806	0	33292	32752	
4807	0	33530	32566	
4808	0	33300	32488	
4809	0	32828	32610	
4810	0	32658	32770	
4811	0	32664	32788	
4812	0	32712	32730	
4813	0	32662	32654	
4814	0	32564	32633	
4815	0	32508	32860	
4816	0	32676	32992	
4817	0	32788	32908	
4818	0	32696	32884	
4819	0	32836	32826	
4820	0	32808	32814	
4821	0	32800	32946	
4822	0	32868	32838	
4823	0	32968	32622	
4824	0	32836	32652	
4825	0	32852	32884	
4826	0	32800	32658	
4827	0	32816	32590	
4828	0	32980	32810	
4829	0	32824	32502	
4830	0	32612	32545	
4831	0	32424	32896	
4832	0	32682	32988	
4833	0	33310	33330	
4834	0	33276	33028	
4835	0	32984	32808	
4836	0	32820	32596	
4837	0	32776	32775	
4838	0	32816	32980	
4839	0	32656	32934	
4840	0	32614	32756	
4841	0	32678	32596	
4842	0	32720	32964	
4843	0	32592	33052	
4844	0	32564	32823	
4845	0	32405	32257	
4846	0	32652	32174	
4847	0	33136	32192	
4848	0	32990	32222	
4849	0	33000	32774	
4850	0	33092	33038	
4851	0	32964	32839	
4852	0	32824	32636	
4853	0	32616	32775	
4854	0	32668	33012	
4855	0	32720	33084	
4856	0	32784	32900	
4857	0	32772	32604	
4858	0	32804	32782	
4859	0	32882	32836	
4860	0	32996	32908	
4861	0	32920	32902	
4862	0	32868	32663	
4863	0	32776	32702	
4864	0	32786	32821	
4865	0	32828	32815	
4866	0	32772	32890	
4867	0	32770	32817	
4868	0	32790	32763	
4869	0	32828	32720	
4870	0	32892	32556	
4871	0	32770	32667	
4872	0	32680	32718	
4873	0	32820	32802	
4874	0	32856	32964	
4875	0	32798	32914	
4876	0	32832	32936	
4877	0	32842	32652	
4878	0	32790	32775	
4879	0	32804	32766	
4880	0	32876	32831	
4881	0	32872	32800	
4882	0	32888	32820	
4883	0	32860	32710	
4884	0	32768	32754	
4885	0	32897	32639	
4886	0	32840	32818	
4887	0	32776	32772	
4888	0	32796	32871	
4889	0	32732	32830	
4890	0	32786	32712	
4891	0	32734	32704	
4892	0	32788	32769	
4893	0	32600	32823	
4894	0	32642	32760	
4895	0	32712	32494	
4896	0	32556	32636	
4897	0	32748	32730	
4898	0	33212	33020	
4899	0	33432	33322	
4900	0	33260	32996	
4901	0	32868	32730	
4902	0	32732	32328	
4903	0	32792	32516	
4904	0	32916	32474	
4905	0	32952	32810	
4906	0	32778	33194	
4907	0	32684	33386	
4908	0	32752	33168	
4909	0	32728	32860	
4910	0	32480	32580	
4911	0	32404	32548	
4912	0	32686	32478	
4913	0	32845	32503	
4914	0	32804	32680	
4915	0	32848	32714	
4916	0	32912	32617	
4917	0	32853	32886	
4918	0	32726	32786	
4919	0	32908	32460	
4920	0	32888	32708	
4921	0	32836	33111	
4922	0	32768	33142	
4923	0	32600	32932	
4924	0	32752	32880	
4925	0	33012	32690	
4926	0	32834	32676	
4927	0	33052	32718	
4928	0	32996	32964	
4929	0	32632	32908	
4930	0	32640	32716	
4931	0	32824	32692	
4932	0	32948	32574	
4933	0	32764	32474	
4934	0	32732	32646	
4935	0	32760	33024	
4936	0	32734	33215	
4937	0	32980	32890	
4938	0	32902	32956	
4939	0	33067	32820	
4940	0	32688	32812	
4941	0	32452	32630	
4942	0	32700	32789	
4943	0	33096	32988	
4944	0	32920	32820	
4945	0	32944	32233	
4946	0	32856	31864	
4947	0	32740	32326	
4948	0	32688	32472	
4949	0	32640	32854	
4950	0	32780	32992	
4951	0	32668	33170	
4952	0	32648	32994	
4953	0	32442	32816	
4954	0	32632	32704	
4955	0	33080	32854	
4956	0	33422	32860	
4957	0	33130	32849	
4958	0	32940	32696	
4959	0	33024	32774	
4960	0	32936	32620	
4961	0	32848	32938	
4962	0	32566	33103	
4963	0	32289	33158	
4964	0	32508	32868	
4965	0	32834	32510	
4966	0	32998	32868	
4967	0	32676	32903	
4968	0	32466	32758	
4969	0	32420	32592	
4970	0	32614	32616	
4971	0	32844	32407	
4972	0	32892	32346	
4973	0	32832	32679	
4974	0	32748	32830	
4975	0	32666	32615	
4976	0	32824	32900	
4977	0	33156	32862	
4978	0	33000	32874	
4979	0	32888	32706	
4980	0	32900	32526	
4981	0	32805	32768	
4982	0	32844	32676	
4983	0	32884	32836	
4984	0	32916	32866	
4985	0	32872	33028	
4986	0	32782	33250	
4987	0	32754	33031	
4988	0	32820	32814	
4989	0	32832	32556	
4990	0	32714	32542	
4991	0	32784	32548	
4992	0	32624	32734	
4993	0	33020	32712	
4994	0	33228	32852	
4995	0	33040	32789	
4996	0	32880	32938	
4997	0	32880	32700	
4998	0	32736	32553	
4999	0	32646	32660	
5000	0	32532	32796	
5001	0	32606	32680	
5002	0	32592	32758	
5003	0	32564	32647	
5004	0	32616	32861	
5005	0	33084	33046	
5006	0	33484	32788	
5007	0	33264	32479	
5008	0	33008	32580	
5009	0	32748	32986	
5010	0	32504	33092	
5011	0	32424	32671	
5012	0	32640	32764	
5013	0	32420	32664	
5014	0	32776	32502	
5015	0	33312	32858	
5016	0	33348	32726	
5017	0	33034	33064	
5018	0	32906	32748	
5019	0	32772	32954	
5020	0	32628	32788	
5021	0	32680	32726	
5022	0	32576	32842	
5023	0	32668	32471	
5024	0	32732	32612	
5025	0	32760	33072	
5026	0	32824	32999	
5027	0	32750	32808	
5028	0	32684	32692	
5029	0	32736	32609	
5030	0	32791	32766	
5031	0	32964	32810	
5032	0	33044	32844	
5033	0	32928	32647	
5034	0	32894	32519	
5035	0	32736	32391	
5036	0	32664	32962	
5037	0	32342	33170	
5038	0	32404	33156	
5039	0	32828	32736	
5040	0	33070	32456	
5041	0	33070	32516	
5042	0	32912	32796	
5043	0	32912	32903	
5044	0	32820	32940	
5045	0	32800	32772	
5046	0	32784	32762	
5047	0	32800	32679	
5048	0	32826	32796	
5049	0	32780	32696	
5050	0	32848	32736	
5051	0	32876	32832	
5052	0	32742	32788	
5053	0	32810	32762	
5054	0	32692	32802	
5055	0	32866	32757	
5056	0	33004	32711	
5057	0	32828	32647	
5058	0	32920	32647	
5059	0	32756	32796	
5060	0	32612	32815	
5061	0	32534	32796	
5062	0	32616	32486	
5063	0	32516	32444	
5064	0	32984	32836	
5065	0	33320	33056	
5066	0	32940	33052	
5067	0	32846	32934	
5068	0	32802	32988	
5069	0	32700	33002	
5070	0	32830	32762	
5071	0	32968	32302	
5072	0	32954	32284	
5073	0	32832	32766	
5074	0	32668	32974	
5075	0	32460	33174	
5076	0	32544	33174	
5077	0	32866	32946	
5078	0	32806	32626	
5079	0	32676	32636	
5080	0	32593	32519	
5081	0	32714	32550	
5082	0	32778	32602	
5083	0	33184	32828	
5084	0	33332	33014	
5085	0	33244	32972	
5086	0	33138	32645	
5087	0	32848	32444	
5088	0	32582	32812	
5089	0	32576	32807	
5090	0	32462	32519	
5091	0	32528	32638	
5092	0	32530	32822	
5093	0	32464	33052	
5094	0	32598	32594	
5095	0	32764	32724	
5096	0	33012	32928	
5097	0	33050	32839	
5098	0	32926	32708	
5099	0	33084	32846	
5100	0	32946	32839	
5101	0	32850	32668	
5102	0	32824	32762	
5103	0	32984	32416	
5104	0	32856	32652	
5105	0	32760	32908	
5106	0	32752	33238	
5107	0	32780	32888	
5108	0	32700	32848	
5109	0	32768	32714	
5110	0	32896	32614	
5111	0	32884	32812	
5112	0	32752	32751	
5113	0	32716	32598	
5114	0	32868	32700	
5115	0	32852	32690	
5116	0	32938	32798	
5117	0	33088	32816	
5118	0	32904	32868	
5119	0	32686	32722	
5120	0	32738	32630	
5121	0	32528	32600	
5122	0	32560	32751	
5123	0	32834	33063	
5124	0	32892	33276	
5125	0	33060	33074	
5126	0	32941	32768	
5127	0	32724	32548	
5128	0	32710	32634	
5129	0	32772	32760	
5130	0	32762	32689	
5131	0	32724	32572	
5132	0	32866	32378	
5133	0	32792	32720	
5134	0	32984	32492	
5135	0	32994	32887	
5136	0	32968	33141	
5137	0	33148	33444	
5138	0	32936	33106	
5139	0	32748	32519	
5140	0	32740	32273	
5141	0	32648	32426	
5142	0	32594	32601	
5143	0	32678	32548	
5144	0	32596	32814	
5145	0	32598	32898	
5146	0	32616	32872	
5147	0	32828	32704	
5148	0	32892	32816	
5149	0	33020	32806	
5150	0	32928	32740	
5151	0	32808	32775	
5152	0	32812	32775	
5153	0	32724	32700	
5154	0	32812	32775	
5155	0	32940	32860	
5156	0	32716	32699	
5157	0	32874	32910	
5158	0	33112	32872	
5159	0	32940	32828	
5160	0	32844	32763	
5161	0	32844	32752	
5162	0	32844	32794	
5163	0	32756	32736	
5164	0	32740	32774	
5165	0	32660	32794	
5166	0	32680	32703	
5167	0	32752	32786	
5168	0	32844	32936	
5169	0	32828	32958	
5170	0	32868	32846	
5171	0	32860	32823	
5172	0	32823	32934	
5173	0	32584	32934	
5174	0	32460	32724	
5175	0	32852	32406	
5176	0	33104	32634	
5177	0	33108	33057	
5178	0	33221	32924	
5179	0	32836	32630	
5180	0	32552	32588	
5181	0	32686	32728	
5182	0	32854	32820	
5183	0	33032	32724	
5184	0	33057	32722	
5185	0	32830	32769	
5186	0	32692	32637	
5187	0	32544	32728	
5188	0	32512	32660	
5189	0	32634	32604	
5190	0	32788	32627	
5191	0	32884	32782	
5192	0	32952	32582	
5193	0	32784	32743	
5194	0	32584	32576	
5195	0	32728	32500	
5196	0	32888	33013	
5197	0	32760	33320	
5198	0	32826	33359	
5199	0	33046	33058	
5200	0	33168	32960	
5201	0	33056	32817	
5202	0	32966	32668	
5203	0	32804	32404	
5204	0	32800	32503	
5205	0	32676	32652	
5206	0	32648	32712	
5207	0	32672	32580	
5208	0	32728	32640	
5209	0	32680	32748	
5210	0	32730	32710	
5211	0	32794	32902	
5212	0	32844	32750	
5213	0	32772	32682	
5214	0	32732	32754	
5215	0	32782	32909	
5216	0	32844	32740	
5217	0	32836	32748	
5218	0	32802	32480	
5219	0	32980	32836	
5220	0	32836	33049	
5221	0	32784	32990	
5222	0	32704	32558	
5223	0	32846	32802	
5224	0	32864	32887	
5225	0	32660	32892	
5226	0	33020	32788	
5227	0	33476	32750	
5228	0	33152	32732	
5229	0	32712	32714	
5230	0	32608	32839	
5231	0	32476	32830	
5232	0	32578	32855	
5233	0	32848	32903	
5234	0	33016	32602	
5235	0	32806	32353	
5236	0	32706	32255	
5237	0	32650	32656	
5238	0	32506	32882	
5239	0	32394	33016	
5240	0	32888	33015	
5241	0	33112	32824	
5242	0	33002	32823	
5243	0	32924	32748	
5244	0	32896	32824	
5245	0	32902	32856	
5246	0	32776	32508	
5247	0	32774	32868	
5248	0	32732	32742	
5249	0	32870	32766	
5250	0	32832	32940	
5251	0	32800	32977	
5252	0	32852	32775	
5253	0	32744	32791	
5254	0	32796	32807	
5255	0	32784	32746	
5256	0	32966	32686	
5257	0	32912	32692	
5258	0	32964	32652	
5259	0	32938	32663	
5260	0	33014	32804	
5261	0	32704	32622	
5262	0	32620	32730	
5263	0	32576	32988	
5264	0	32588	33084	
5265	0	32508	32727	
5266	0	32608	32494	
5267	0	32612	32644	
5268	0	32724	32512	
5269	0	32764	32644	
5270	0	33068	32878	
5271	0	33077	32928	
5272	0	32881	33031	
5273	0	32840	32816	
5274	0	32764	32432	
5275	0	32602	32318	
5276	0	32726	33018	
5277	0	32988	33384	
5278	0	33050	33082	
5279	0	32942	32665	
5280	0	32806	32550	
5281	0	32830	32816	
5282	0	32806	32638	
5283	0	32916	32679	
5284	0	32936	32766	
5285	0	32958	32800	
5286	0	32944	32746	
5287	0	32852	32687	
5288	0	32796	32733	
5289	0	32824	32854	
5290	0	32704	33034	
5291	0	32734	32848	
5292	0	32727	32440	
5293	0	32554	32066	
5294	0	32420	32356	
5295	0	32892	32872	
5296	0	32984	33404	
5297	0	32896	33132	
5298	0	32840	32858	
5299	0	32934	32852	
5300	0	33016	32814	
5301	0	33050	32688	
5302	0	32876	32804	
5303	0	32594	32756	
5304	0	32514	32751	
5305	0	32692	32710	
5306	0	32772	32598	
5307	0	32920	32806	
5308	0	32814	32834	
5309	0	32760	32931	
5310	0	32858	32888	
5311	0	32816	33054	
5312	0	32792	32748	
5313	0	32800	32510	
5314	0	32708	32440	
5315	0	32676	32518	
5316	0	32721	32892	
5317	0	32914	33088	
5318	0	32880	32972	
5319	0	32702	32839	
5320	0	32785	32694	
5321	0	32464	32710	
5322	0	32596	32834	
5323	0	33108	32476	
5324	0	33086	32704	
5325	0	32842	32775	
5326	0	32828	32591	
5327	0	32864	32618	
5328	0	32968	32812	
5329	0	32764	32839	
5330	0	32680	32769	
5331	0	32662	32670	
5332	0	32748	32678	
5333	0	32788	32935	
5334	0	32932	32948	
5335	0	32912	32838	
5336	0	32878	32680	
5337	0	32760	32538	
5338	0	32552	32660	
5339	0	32720	32922	
5340	0	32596	32908	
5341	0	32732	32532	
5342	0	33304	32868	
5343	0	33650	32926	
5344	0	33412	33142	
5345	0	32844	32928	
5346	0	32580	32910	
5347	0	32592	32900	
5348	0	32534	32616	
5349	0	32560	32650	
5350	0	32468	32572	
5351	0	32582	32716	
5352	0	32634	32601	
5353	0	32728	32598	
5354	0	32808	32750	
5355	0	32860	32828	
5356	0	32848	32836	
5357	0	32932	32700	
5358	0	32944	32666	
5359	0	32972	32770	
5360	0	32904	32839	
5361	0	32796	32722	
5362	0	32668	32852	
5363	0	32698	32993	
5364	0	32964	33119	
5365	0	33226	32966	
5366	0	33244	32295	
5367	0	32852	32326	
5368	0	32766	32632	
5369	0	32676	32630	
5370	0	32644	32660	
5371	0	32497	32762	
5372	0	32748	32948	
5373	0	33014	32938	
5374	0	32778	32830	
5375	0	32720	32820	
5376	0	32692	32702	
5377	0	32756	32822	
5378	0	32826	32740	
5379	0	32730	32712	
5380	0	32640	32604	
5381	0	32664	32834	
5382	0	32916	32818	
5383	0	32948	32850	
5384	0	32840	32775	
5385	0	32960	32596	
5386	0	32952	32607	
5387	0	32832	32842	
5388	0	32806	32929	
5389	0	32800	32948	
5390	0	32810	32852	
5391	0	32798	32756	
5392	0	32804	32670	
5393	0	32688	32828	
5394	0	32796	32762	
5395	0	32916	32846	
5396	0	32788	32806	
5397	0	32812	32836	
5398	0	32946	32775	
5399	0	32830	32826	
5400	0	32736	32538	
5401	0	33008	32638	
5402	0	32808	32647	
5403	0	32884	32526	
5404	0	33016	32754	
5405	0	33048	33002	
5406	0	32974	32892	
5407	0	32854	32751	
5408	0	32814	32598	
5409	0	32818	32556	
5410	0	32788	32500	
5411	0	32764	32460	
5412	0	33138	32608	
5413	0	33168	32656	
5414	0	33048	32623	
5415	0	32902	32837	
5416	0	32848	32762	
5417	0	32778	32766	
5418	0	32785	32239	
5419	0	32724	32068	
5420	0	32868	32839	
5421	0	32988	33380	
5422	0	33016	32942	
5423	0	33082	32824	
5424	0	32956	32956	
5425	0	32744	33078	
5426	0	32660	33185	
5427	0	32544	33100	
5428	0	32180	33272	
5429	0	32000	33336	
5430	0	31968	33508	
5431	0	32138	33287	
5432	0	32292	33246	
5433	0	32580	33056	
5434	0	32558	32870	
5435	0	32674	32864	
5436	0	32824	32746	
5437	0	32828	32550	
5438	0	32732	32567	
5439	0	32784	32663	
5440	0	32836	33156	
5441	0	32888	33040	
5442	0	33028	32536	
5443	0	32812	32468	
5444	0	32908	32572	
5445	0	32970	32612	
5446	0	33118	32546	
5447	0	33128	32468	
5448	0	33072	32546	
5449	0	33120	32654	
5450	0	33060	32636	
5451	0	32952	32463	
5452	0	32868	32343	
5453	0	32780	32423	
5454	0	32844	32598	
5455	0	32980	32800	
5456	0	32632	33016	
5457	0	32698	32959	
5458	0	33152	32950	
5459	0	33156	32874	
5460	0	32896	32476	
5461	0	32774	32706	
5462	0	32737	32708	
5463	0	32770	32614	
5464	0	32844	32726	
5465	0	32700	32538	
5466	0	32636	32580	
5467	0	32700	32768	
5468	0	32792	32865	
5469	0	32926	32764	
5470	0	32856	32966	
5471	0	32744	32838	
5472	0	32818	32692	
5473	0	32816	32694	
5474	0	32828	32932	
5475	0	32890	32838	
5476	0	32856	32860	
5477	0	32784	32815	
5478	0	32804	32852	
5479	0	32784	32750	
5480	0	32759	32933	
5481	0	32808	32775	
5482	0	32840	32790	
5483	0	32804	32876	
5484	0	32736	32706	
5485	0	32784	32704	
5486	0	32804	32852	
5487	0	32790	32804	
5488	0	32704	32774	
5489	0	32724	32664	
5490	0	32860	32567	
5491	0	32760	32436	
5492	0	32876	32506	
5493	0	33108	32775	
5494	0	33088	33304	
5495	0	32897	33318	
5496	0	32785	32817	
5497	0	32769	32732	
5498	0	32620	32775	
5499	0	32640	32632	
5500	0	32952	32999	
5501	0	32932	33036	
5502	0	32788	32938	
5503	0	32596	32543	
5504	0	32448	32286	
5505	0	32716	32538	
5506	0	32928	32863	
5507	0	32972	33048	
5508	0	32816	33007	
5509	0	32764	32774	
5510	0	32760	32654	
5511	0	32834	32438	
5512	0	32697	32551	
5513	0	32836	32786	
5514	0	33032	32775	
5515	0	33208	32614	
5516	0	32848	32415	
5517	0	32704	33015	
5518	0	32592	32972	
5519	0	32836	32814	
5520	0	33080	32644	
5521	0	32672	32895	
5522	0	32698	32938	
5523	0	32700	32735	
5524	0	32400	32712	
5525	0	32750	32722	
5526	0	32880	32750	
5527	0	32820	32708	
5528	0	32698	32816	
5529	0	32578	32892	
5530	0	32784	32775	
5531	0	32900	32719	
5532	0	32874	32751	
5533	0	32866	32688	
5534	0	32808	32751	
5535	0	32844	32756	
5536	0	32844	32654	
5537	0	32830	32770	
5538	0	32753	32756	
5539	0	32884	32822	
5540	0	32876	32788	
5541	0	32954	32892	
5542	0	32882	32874	
5543	0	32796	32789	
5544	0	32708	32878	
5545	0	32737	32775	
5546	0	32816	32609	
5547	0	32932	32712	
5548	0	33146	32820	
5549	0	33018	32708	
5550	0	32724	32420	
5551	0	32662	32533	
5552	0	32648	32663	
5553	0	32804	32866	
5554	0	32724	33023	
5555	0	32772	33058	
5556	0	32828	32991	
5557	0	32778	32790	
5558	0	32850	32814	
5559	0	32800	32743	
5560	0	32752	32698	
5561	0	32756	32678	
5562	0	32798	32519	
5563	0	32871	32446	
5564	0	32798	32632	
5565	0	32750	32679	
5566	0	32820	33146	
5567	0	32878	33151	
5568	0	33088	32942	
5569	0	33002	32840	
5570	0	32814	32670	
5571	0	32860	32698	
5572	0	32614	32687	
5573	0	32894	32694	
5574	0	33260	32709	
5575	0	33084	32774	
5576	0	32878	32616	
5577	0	32664	32775	
5578	0	32552	32708	
5579	0	32634	32640	
5580	0	32574	32708	
5581	0	32692	32770	
5582	0	32720	32908	
5583	0	32744	32764	
5584	0	32744	32775	
5585	0	32768	32693	
5586	0	32812	32760	
5587	0	32908	32816	
5588	0	32904	32640	
5589	0	32920	32788	
5590	0	32900	32630	
5591	0	32888	32692	
5592	0	32718	32887	
5593	0	32724	32908	
5594	0	32764	32792	
5595	0	32832	32714	
5596	0	32932	32822	
5597	0	32738	32682	
5598	0	32716	32632	
5599	0	32732	32724	
5600	0	32806	32846	
5601	0	33016	32982	
5602	0	32860	32919	
5603	0	32784	32766	
5604	0	32820	32660	
5605	0	32704	32799	
5606	0	32664	32726	
5607	0	32728	32671	
5608	0	32852	32691	
5609	0	32762	32682	
5610	0	33106	32798	
5611	0	32988	32755	
5612	0	32826	32766	
5613	0	32724	32733	
5614	0	32680	32900	
5615	0	32738	32964	
5616	0	32708	33060	
5617	0	32672	32804	
5618	0	32752	32666	
5619	0	32748	32645	
5620	0	32824	32644	
5621	0	32928	32716	
5622	0	32928	32828	
5623	0	32872	32684	
5624	0	32732	32640	
5625	0	32728	32708	
5626	0	32764	32694	
5627	0	33038	32732	
5628	0	32938	32743	
5629	0	32932	32752	
5630	0	32872	32804	
5631	0	32828	32732	
5632	0	32706	32740	
5633	0	32734	32742	
5634	0	32756	32714	
5635	0	32838	32814	
5636	0	32674	32785	
5637	0	32752	32785	
5638	0	32823	32801	
5639	0	32774	32494	
5640	0	32958	32871	
5641	0	32908	33383	
5642	0	32808	33447	
5643	0	32834	32927	
5644	0	32556	32668	
5645	0	32500	32585	
5646	0	33322	32524	
5647	0	33454	32358	
5648	0	33172	32647	
5649	0	32828	32900	
5650	0	32488	32647	
5651	0	32620	32664	
5652	0	32524	32684	
5653	0	32562	32713	
5654	0	32620	32756	
5655	0	32680	32656	
5656	0	32750	32511	
5657	0	32804	32584	
5658	0	32964	32855	
5659	0	32974	33040	
5660	0	32884	33120	
5661	0	32724	32940	
5662	0	32740	32674	
5663	0	32816	32486	
5664	0	32860	32412	
5665	0	32842	32439	
5666	0	33064	32849	
5667	0	33088	33434	
5668	0	32864	33159	
5669	0	32633	32692	
5670	0	32660	32808	
5671	0	32800	32831	
5672	0	32860	32680	
5673	0	32796	32679	
5674	0	32744	32584	
5675	0	32732	32604	
5676	0	32778	32772	
5677	0	32732	32758	
5678	0	32680	32678	
5679	0	32712	32812	
5680	0	32748	32735	
5681	0	32760	32702	
5682	0	32660	32798	
5683	0	32946	32948	
5684	0	33154	33030	
5685	0	33008	32928	
5686	0	33020	32804	
5687	0	32868	32244	
5688	0	32821	32434	
5689	0	32838	32830	
5690	0	32772	33238	
5691	0	32356	32978	
5692	0	32268	32660	
5693	0	32890	32436	
5694	0	33048	32564	
5695	0	32954	32900	
5696	0	32796	32895	
5697	0	32820	32924	
5698	0	32756	32737	
5699	0	32712	32782	
5700	0	32796	32831	
5701	0	32840	32844	
5702	0	32816	32894	
5703	0	32780	32694	
5704	0	32800	32788	
5705	0	32804	32634	
5706	0	32778	32727	
5707	0	32752	32775	
5708	0	32784	32942	
5709	0	32816	32987	
5710	0	32800	33000	
5711	0	32850	32486	
5712	0	32940	32111	
5713	0	32682	32524	
5714	0	32828	32995	
5715	0	33216	33308	
5716	0	33052	33116	
5717	0	32678	32976	
5718	0	32736	32766	
5719	0	32736	32711	
5720	0	32812	32660	
5721	0	32932	32647	
5722	0	32934	32612	
5723	0	32804	32634	
5724	0	32682	32828	
5725	0	32742	32827	
5726	0	32864	32926	
5727	0	32860	32948	
5728	0	32752	32903	
5729	0	32716	32680	
5730	0	32868	32494	
5731	0	32864	32208	
5732	0	32948	32732	
5733	0	33204	32930	
5734	0	32862	33127	
5735	0	32464	32940	
5736	0	32356	32620	
5737	0	32322	32680	
5738	0	32824	32690	
5739	0	33108	32668	
5740	0	33130	32766	
5741	0	32942	32807	
5742	0	32872	32897	
5743	0	32852	32619	
5744	0	32692	32722	
5745	0	32558	32903	
5746	0	32732	32604	
5747	0	32888	32406	
5748	0	32780	32534	
5749	0	32820	32718	
5750	0	32776	32926	
5751	0	32700	33010	
5752	0	32680	32953	
5753	0	32628	32922	
5754	0	32794	32764	
5755	0	33408	32772	
5756	0	33304	32820	
5757	0	32908	32734	
5758	0	32876	32794	
5759	0	32800	32814	
5760	0	32754	32852	
5761	0	32780	32839	
5762	0	32888	32758	
5763	0	33044	32911	
5764	0	32716	32735	
5765	0	32432	32754	
5766	0	32580	32598	
5767	0	32740	32502	
5768	0	32689	32324	
5769	0	32780	32764	
5770	0	32728	33335	
5771	0	32726	33084	
5772	0	32826	32766	
5773	0	32892	32542	
5774	0	32822	32628	
5775	0	32854	32772	
5776	0	32854	32825	
5777	0	32784	32837	
5778	0	32834	32582	
5779	0	32873	32756	
5780	0	32875	32684	
5781	0	32898	32812	
5782	0	32964	32660	
5783	0	32774	32554	
5784	0	32704	32814	
5785	0	32818	32926	
5786	0	32812	32999	
5787	0	32884	33274	
5788	0	32888	33004	
5789	0	32818	32639	
5790	0	32702	32636	
5791	0	32304	32579	
5792	0	32708	32246	
5793	0	33278	32422	
5794	0	33096	32761	
5795	0	32918	32982	
5796	0	32812	32923	
5797	0	32772	32898	
5798	0	32816	33108	
5799	0	32816	33104	
5800	0	32800	32960	
5801	0	32804	32566	
5802	0	32927	32636	
5803	0	32894	32631	
5804	0	32576	32230	
5805	0	32778	32558	
5806	0	32986	32670	
5807	0	33016	33016	
5808	0	32888	32914	
5809	0	32672	32786	
5810	0	32540	32801	
5811	0	32628	32654	
5812	0	32808	32720	
5813	0	32852	32836	
5814	0	32788	32788	
5815	0	32844	32874	
5816	0	32828	32884	
5817	0	32770	32846	
5818	0	32769	32704	
5819	0	32936	32775	
5820	0	32676	32716	
5821	0	32706	32767	
5822	0	32920	32666	
5823	0	33028	32775	
5824	0	33024	32716	
5825	0	32769	32870	
5826	0	32710	32772	
5827	0	32720	32889	
5828	0	32804	32606	
5829	0	32796	32542	
5830	0	32836	32775	
5831	0	32736	33176	
5832	0	32836	33028	
5833	0	32804	32718	
5834	0	32848	32828	
5835	0	32708	32826	
5836	0	32756	32796	
5837	0	32788	32710	
5838	0	32782	32580	
5839	0	32756	32775	
5840	0	33062	32774	
5841	0	32976	32774	
5842	0	32756	32852	
5843	0	32752	32836	
5844	0	32790	32689	
5845	0	32820	32628	
5846	0	32868	32838	
5847	0	32816	32876	
5848	0	32808	32860	
5849	0	32724	32519	
5850	0	32804	32244	
5851	0	32824	32712	
5852	0	32741	33124	
5853	0	32792	33284	
5854	0	32800	33049	
5855	0	32906	32492	
5856	0	32904	32481	
5857	0	32906	32932	
5858	0	32888	32871	
5859	0	32848	32794	
5860	0	32794	32591	
5861	0	32656	32590	
5862	0	32452	32692	
5863	0	32294	32766	
5864	0	32650	32810	
5865	0	33056	32996	
5866	0	33128	32712	
5867	0	32892	32790	
5868	0	32868	32788	
5869	0	32904	32763	
5870	0	32852	32788	
5871	0	32916	32774	
5872	0	32836	32800	
5873	0	32648	32570	
5874	0	32516	32433	
5875	0	32508	32706	
5876	0	32736	32919	
5877	0	32835	32836	
5878	0	32822	32718	
5879	0	32836	32839	
5880	0	33188	32928	
5881	0	33294	33040	
5882	0	33172	32900	
5883	0	32756	32656	
5884	0	32586	32551	
5885	0	32426	32631	
5886	0	32404	32756	
5887	0	32264	32708	
5888	0	32398	32566	
5889	0	32724	32680	
5890	0	33008	32884	
5891	0	33032	32990	
5892	0	32936	32775	
5893	0	32798	32644	
5894	0	32850	32510	
5895	0	32864	32782	
5896	0	33022	32888	
5897	0	32998	32871	
5898	0	32840	32714	
5899	0	32836	32860	
5900	0	32830	32848	
5901	0	32728	32846	
5902	0	32722	32756	
5903	0	32756	32775	
5904	0	32784	32680	
5905	0	32942	32630	
5906	0	32896	32548	
5907	0	32960	32878	
5908	0	32950	32869	
5909	0	32664	32849	
5910	0	32632	32698	
5911	0	32908	33123	
5912	0	33176	33310	
5913	0	32996	32967	
5914	0	32980	32413	
5915	0	32956	31908	
5916	0	32972	32076	
5917	0	32760	32868	
5918	0	32252	33391	
5919	0	32620	33346	
5920	0	32652	32847	
5921	0	32460	32718	
5922	0	32382	32465	
5923	0	32672	32810	
5924	0	33000	32730	
5925	0	32976	32732	
5926	0	32850	32584	
5927	0	32912	32644	
5928	0	32818	32762	
5929	0	32780	32740	
5930	0	32774	32775	
5931	0	32836	32852	
5932	0	33130	32758	
5933	0	33122	32884	
5934	0	32928	32850	
5935	0	32816	32775	
5936	0	32698	32942	
5937	0	32692	32690	
5938	0	32736	32647	
5939	0	32822	32794	
5940	0	32818	32802	
5941	0	32912	32700	
5942	0	32940	32828	
5943	0	32868	32804	
5944	0	32841	32871	
5945	0	32816	32716	
5946	0	32748	32671	
5947	0	32774	32796	
5948	0	32830	32790	
5949	0	32792	32814	
5950	0	32776	32718	
5951	0	32788	32708	
5952	0	32774	32830	
5953	0	32818	32818	
5954	0	32760	32862	
5955	0	32804	32684	
5956	0	32732	32682	
5957	0	32794	32790	
5958	0	32844	32884	
5959	0	32842	32841	
5960	0	32740	32804	
5961	0	32792	32614	
5962	0	32696	32564	
5963	0	32580	32740	
5964	0	32632	32913	
5965	0	32776	32830	
5966	0	33196	32722	
5967	0	33228	32576	
5968	0	33168	32623	
5969	0	33108	32710	
5970	0	32834	32910	
5971	0	32520	32908	
5972	0	32646	33002	
5973	0	32954	32948	
5974	0	32962	32624	
5975	0	32874	32602	
5976	0	32406	32884	
5977	0	32364	33350	
5978	0	32536	33310	
5979	0	32580	32932	
5980	0	32750	32296	
5981	0	32756	31830	
5982	0	32928	32239	
5983	0	32956	32710	
5984	0	32960	32834	
5985	0	32924	32712	
5986	0	32820	32820	
5987	0	32868	32903	
5988	0	32816	32932	
5989	0	32666	32944	
5990	0	32632	32736	
5991	0	32780	32648	
5992	0	32856	32734	
5993	0	32864	32628	
5994	0	32936	32774	
5995	0	32910	32954	
5996	0	32900	32888	
5997	0	33124	32808	
5998	0	33076	32620	
5999	0	32924	32687	
6000	0	32684	32746	
6001	0	32756	32876	
6002	0	32876	32716	
6003	0	32732	32792	
6004	0	32760	32768	
6005	0	32776	32744	
6006	0	32548	32868	
6007	0	32744	32903	
6008	0	33006	32668	
6009	0	32756	32727	
6010	0	32607	32700	
6011	0	32554	32894	
6012	0	32944	33023	
