# OpenSignals Text File Format. Version 1
# {"00:07:80:8C:0A:39": {"position": 0, "device": "biosignalsplux", "device name": "00:07:80:8C:0A:39", "device connection": "BTH00:07:80:8C:0A:39", "sampling rate": 1000, "resolution": [16, 16], "firmware version": 776, "comments": "", "keywords": "", "mode": 0, "sync interval": 2, "date": "2023-3-20", "time": "19:37:12.799", "channels": [1, 2], "sensor": ["EMG", "EMG"], "label": ["CH1", "CH2"], "column": ["nSeq", "DI", "CH1", "CH2"], "special": [{"SpO2": [80, 40, 5, 4, 3, 3]}, {"SpO2": [80, 40, 5, 4, 3, 3]}, {"SpO2": [80, 40, 5, 4, 3, 3]}, {"SpO2": [80, 40, 5, 4, 3, 3]}, {"SpO2": [80, 40, 5, 4, 3, 3]}, {"SpO2": [80, 40, 5, 4, 3, 3]}, {"SpO2": [80, 40, 5, 4, 3, 3]}, {"SpO2": [80, 40, 5, 4, 3, 3]}], "digital IO": [0, 1], "sleeve color": ["gray", "yellow"], "convertedValues": 0}}
# EndOfHeader
0	0	32916	32732	
1	0	32794	32746	
2	0	32788	32799	
3	0	32808	32791	
4	0	32772	32846	
5	0	32808	32800	
6	0	32844	32862	
7	0	32856	32738	
8	0	32800	32769	
9	0	32832	32741	
10	0	32854	32771	
11	0	32832	32695	
12	0	32760	32834	
13	0	32832	32836	
14	0	32821	32774	
15	0	32788	32748	
16	0	32800	32823	
17	0	32768	32727	
18	0	32804	32808	
19	0	32836	32750	
20	0	32804	32759	
21	0	32816	32702	
22	0	32788	32792	
23	0	32792	32872	
24	0	32828	32820	
25	0	32814	32844	
26	0	32872	32834	
27	0	32750	32788	
28	0	32814	32836	
29	0	32798	32806	
30	0	32764	32821	
31	0	32826	32886	
32	0	32792	32828	
33	0	32796	32774	
34	0	32848	32839	
35	0	32792	32795	
36	0	32860	32836	
37	0	32830	32887	
38	0	32824	32758	
39	0	32828	32710	
40	0	32836	32676	
41	0	32784	32679	
42	0	32920	32732	
43	0	32780	32842	
44	0	32852	32728	
45	0	32812	32732	
46	0	32840	32775	
47	0	32764	32828	
48	0	32708	32756	
49	0	32744	32664	
50	0	32844	32767	
51	0	32788	32806	
52	0	32832	32806	
53	0	32750	32721	
54	0	32847	32726	
55	0	32784	32828	
56	0	32884	32775	
57	0	32808	32724	
58	0	32824	32722	
59	0	32848	32636	
60	0	32842	32689	
61	0	32888	32640	
62	0	32852	32790	
63	0	32780	32721	
64	0	32820	32839	
65	0	32908	32810	
66	0	32914	32826	
67	0	32788	32799	
68	0	32800	32771	
69	0	32774	32687	
70	0	32820	32706	
71	0	32720	32752	
72	0	32792	32790	
73	0	32758	32770	
74	0	32796	32682	
75	0	32828	32678	
76	0	32866	32832	
77	0	32824	32854	
78	0	32804	32848	
79	0	32804	32764	
80	0	32732	32704	
81	0	32810	32752	
82	0	32816	32663	
83	0	32752	32823	
84	0	32860	32698	
85	0	32837	32712	
86	0	32821	32750	
87	0	32804	32740	
88	0	32856	32676	
89	0	32868	32642	
90	0	32828	32700	
91	0	32852	32868	
92	0	32868	32748	
93	0	32800	32775	
94	0	32868	32848	
95	0	32780	32822	
96	0	32832	32871	
97	0	32800	32727	
98	0	32820	32724	
99	0	32724	32798	
100	0	32780	32750	
101	0	32729	32770	
102	0	32776	32736	
103	0	32776	32775	
104	0	32812	32708	
105	0	32828	32754	
106	0	32764	32728	
107	0	32820	32844	
108	0	32830	32903	
109	0	32752	32860	
110	0	32796	32838	
111	0	32832	32750	
112	0	32804	32711	
113	0	32817	32762	
114	0	32858	32672	
115	0	32786	32705	
116	0	32790	32841	
117	0	32802	32788	
118	0	32768	32748	
119	0	32804	32796	
120	0	32802	32762	
121	0	32869	32772	
122	0	32880	32746	
123	0	32816	32708	
124	0	32868	32816	
125	0	32825	32789	
126	0	32788	32801	
127	0	32756	32804	
128	0	32834	32774	
129	0	32764	32775	
130	0	32792	32743	
131	0	32770	32706	
132	0	32768	32747	
133	0	32780	32810	
134	0	32830	32751	
135	0	32826	32814	
136	0	32828	32812	
137	0	32812	32772	
138	0	32822	32772	
139	0	32788	32807	
140	0	32864	32808	
141	0	32842	32804	
142	0	32818	32769	
143	0	32850	32838	
144	0	32788	32676	
145	0	32744	32718	
146	0	32788	32775	
147	0	32836	32806	
148	0	32828	32714	
149	0	32824	32748	
150	0	32832	32792	
151	0	32800	32738	
152	0	32804	32732	
153	0	32768	32719	
154	0	32836	32737	
155	0	32836	32775	
156	0	32800	32708	
157	0	32796	32724	
158	0	32820	32712	
159	0	32800	32792	
160	0	32940	32703	
161	0	32816	32680	
162	0	32892	32732	
163	0	32823	32816	
164	0	32864	32700	
165	0	32832	32798	
166	0	32816	32772	
167	0	32832	32736	
168	0	32822	32730	
169	0	32860	32836	
170	0	32788	32775	
171	0	32760	32698	
172	0	32836	32729	
173	0	32810	32740	
174	0	32764	32772	
175	0	32785	32820	
176	0	32764	32847	
177	0	32758	32823	
178	0	32808	32738	
179	0	32820	32844	
180	0	32794	32822	
181	0	32792	32679	
182	0	32856	32656	
183	0	32876	32652	
184	0	32770	32646	
185	0	32824	32709	
186	0	32808	32874	
187	0	32814	32899	
188	0	32833	32784	
189	0	32812	32775	
190	0	32848	32746	
191	0	32817	32820	
192	0	32816	32830	
193	0	32764	32775	
194	0	32770	32775	
195	0	32820	32690	
196	0	32826	32688	
197	0	32824	32636	
198	0	32848	32702	
199	0	32764	32730	
200	0	32916	32683	
201	0	32812	32660	
202	0	32828	32697	
203	0	32812	32704	
204	0	32824	32812	
205	0	32848	32820	
206	0	32834	32830	
207	0	32793	32754	
208	0	32828	32743	
209	0	32750	32730	
210	0	32772	32796	
211	0	32836	32754	
212	0	32784	32724	
213	0	32828	32772	
214	0	32804	32820	
215	0	32832	32810	
216	0	32872	32702	
217	0	32868	32711	
218	0	32884	32732	
219	0	32768	32744	
220	0	32804	32693	
221	0	32842	32770	
222	0	32798	32838	
223	0	32752	32746	
224	0	32768	32686	
225	0	32828	32801	
226	0	32792	32774	
227	0	32800	32750	
228	0	32824	32775	
229	0	32800	32766	
230	0	32776	32753	
231	0	32784	32796	
232	0	32816	32804	
233	0	32812	32775	
234	0	32789	32748	
235	0	32804	32866	
236	0	32768	32844	
237	0	32853	32828	
238	0	32834	32775	
239	0	32770	32744	
240	0	32822	32698	
241	0	32864	32742	
242	0	32832	32735	
243	0	32832	32736	
244	0	32894	32706	
245	0	32736	32870	
246	0	32780	32798	
247	0	32774	32688	
248	0	32826	32682	
249	0	32785	32742	
250	0	32820	32741	
251	0	32836	32742	
252	0	32816	32743	
253	0	32816	32758	
254	0	32810	32865	
255	0	32828	32852	
256	0	32848	32730	
257	0	32808	32838	
258	0	32816	32802	
259	0	32778	32756	
260	0	32768	32753	
261	0	32784	32716	
262	0	32852	32700	
263	0	32782	32708	
264	0	32808	32842	
265	0	32812	32775	
266	0	32852	32782	
267	0	32804	32770	
268	0	32800	32790	
269	0	32792	32891	
270	0	32800	32860	
271	0	32771	32774	
272	0	32796	32712	
273	0	32765	32768	
274	0	32746	32767	
275	0	32824	32775	
276	0	32836	32812	
277	0	32800	32814	
278	0	32808	32724	
279	0	32824	32668	
280	0	32837	32856	
281	0	32812	32734	
282	0	32836	32724	
283	0	32815	32815	
284	0	32792	32828	
285	0	32872	32775	
286	0	32766	32800	
287	0	32768	32775	
288	0	32804	32702	
289	0	32796	32748	
290	0	32804	32791	
291	0	32812	32690	
292	0	32878	32824	
293	0	32808	32804	
294	0	32816	32734	
295	0	32784	32752	
296	0	32804	32804	
297	0	32808	32859	
298	0	32838	32798	
299	0	32820	32690	
300	0	32832	32672	
301	0	32872	32706	
302	0	32736	32850	
303	0	32792	32732	
304	0	32844	32804	
305	0	32820	32788	
306	0	32734	32762	
307	0	32828	32812	
308	0	32860	32720	
309	0	32801	32788	
310	0	32792	32791	
311	0	32832	32806	
312	0	32858	32848	
313	0	32844	32744	
314	0	32868	32722	
315	0	32804	32892	
316	0	32764	32775	
317	0	32810	32775	
318	0	32832	32790	
319	0	32796	32784	
320	0	32740	32815	
321	0	32772	32802	
322	0	32792	32755	
323	0	32832	32826	
324	0	32768	32832	
325	0	32828	32738	
326	0	32814	32760	
327	0	32834	32740	
328	0	32836	32690	
329	0	32802	32714	
330	0	32824	32662	
331	0	32760	32764	
332	0	32784	32695	
333	0	32840	32702	
334	0	32814	32775	
335	0	32822	32802	
336	0	32780	32838	
337	0	32852	32775	
338	0	32804	32868	
339	0	32820	32739	
340	0	32832	32728	
341	0	32886	32722	
342	0	32806	32728	
343	0	32798	32751	
344	0	32762	32737	
345	0	32778	32800	
346	0	32821	32775	
347	0	32820	32792	
348	0	32820	32760	
349	0	32868	32790	
350	0	32804	32830	
351	0	32876	32826	
352	0	32840	32710	
353	0	32876	32711	
354	0	32774	32676	
355	0	32812	32726	
356	0	32858	32718	
357	0	32736	32653	
358	0	32784	32708	
359	0	32808	32708	
360	0	32728	32671	
361	0	32744	32674	
362	0	32860	32719	
363	0	32784	32820	
364	0	32816	32807	
365	0	32860	32799	
366	0	32762	32822	
367	0	32802	32799	
368	0	32816	32767	
369	0	32808	32812	
370	0	32852	32820	
371	0	32816	32757	
372	0	32820	32722	
373	0	32818	32828	
374	0	32804	32794	
375	0	32808	32790	
376	0	32816	32775	
377	0	32844	32798	
378	0	32841	32822	
379	0	32843	32901	
380	0	32860	32784	
381	0	32866	32775	
382	0	32816	32758	
383	0	32768	32678	
384	0	32824	32753	
385	0	32770	32734	
386	0	32758	32692	
387	0	32784	32804	
388	0	32800	32727	
389	0	32838	32788	
390	0	32802	32826	
391	0	32766	32767	
392	0	32798	32798	
393	0	32806	32816	
394	0	32848	32790	
395	0	32792	32792	
396	0	32792	32892	
397	0	32814	32706	
398	0	32764	32820	
399	0	32872	32753	
400	0	32828	32784	
401	0	32860	32732	
402	0	32782	32755	
403	0	32824	32726	
404	0	32776	32742	
405	0	32826	32772	
406	0	32800	32816	
407	0	32788	32775	
408	0	32820	32822	
409	0	32856	32760	
410	0	32796	32692	
411	0	32775	32642	
412	0	32840	32743	
413	0	32808	32732	
414	0	32752	32788	
415	0	32860	32792	
416	0	32848	32770	
417	0	32814	32789	
418	0	32818	32816	
419	0	32768	32775	
420	0	32716	32728	
421	0	32786	32745	
422	0	32810	32839	
423	0	32824	32814	
424	0	32774	32770	
425	0	32784	32702	
426	0	32806	32802	
427	0	32860	32668	
428	0	32860	32759	
429	0	32858	32766	
430	0	32844	32794	
431	0	32794	32924	
432	0	32868	32903	
433	0	32768	32752	
434	0	32870	32812	
435	0	32816	32812	
436	0	32764	32726	
437	0	32868	32856	
438	0	32804	32898	
439	0	32818	32836	
440	0	32800	32847	
441	0	32788	32798	
442	0	32842	32778	
443	0	32810	32834	
444	0	32828	32846	
445	0	32740	32804	
446	0	32790	32748	
447	0	32760	32760	
448	0	32820	32710	
449	0	32718	32628	
450	0	32736	32560	
451	0	32776	32567	
452	0	32764	32682	
453	0	32754	32702	
454	0	32732	32614	
455	0	32732	32662	
456	0	32708	32598	
457	0	32752	32679	
458	0	32680	32648	
459	0	32724	32647	
460	0	32690	32650	
461	0	32664	32636	
462	0	32716	32544	
463	0	32688	32612	
464	0	32752	32732	
465	0	32828	32742	
466	0	32848	32738	
467	0	32860	32802	
468	0	32842	32775	
469	0	32782	32654	
470	0	32868	32631	
471	0	33000	32784	
472	0	33076	32858	
473	0	33086	32986	
474	0	33144	33072	
475	0	33164	33112	
476	0	33168	33268	
477	0	33184	33308	
478	0	33100	33336	
479	0	32968	33265	
480	0	33008	33127	
481	0	32832	33112	
482	0	32850	33094	
483	0	32776	32975	
484	0	32716	32812	
485	0	32706	32612	
486	0	32650	32593	
487	0	32734	32642	
488	0	32738	32638	
489	0	32736	32500	
490	0	32722	32560	
491	0	32672	32608	
492	0	32708	32607	
493	0	32728	32612	
494	0	32724	32536	
495	0	32672	32604	
496	0	32636	32620	
497	0	32650	32679	
498	0	32692	32655	
499	0	32758	32660	
500	0	32774	32798	
501	0	32796	32754	
502	0	32796	32764	
503	0	32782	32768	
504	0	32792	32770	
505	0	32812	32770	
506	0	32909	32746	
507	0	32836	32801	
508	0	32816	32839	
509	0	32838	32752	
510	0	32874	32696	
511	0	32776	32719	
512	0	32784	32738	
513	0	32808	32732	
514	0	32776	32732	
515	0	32838	32756	
516	0	32816	32828	
517	0	32806	32828	
518	0	32820	32775	
519	0	32892	32838	
520	0	32868	32746	
521	0	32744	32679	
522	0	32748	32696	
523	0	32808	32799	
524	0	32784	32761	
525	0	32890	32812	
526	0	32852	32752	
527	0	32850	32674	
528	0	32832	32668	
529	0	32828	32741	
530	0	32798	32682	
531	0	32760	32814	
532	0	32788	32791	
533	0	32848	32804	
534	0	32816	32812	
535	0	32812	32887	
536	0	32820	32878	
537	0	32792	32756	
538	0	32760	32762	
539	0	32760	32692	
540	0	32834	32864	
541	0	32804	32775	
542	0	32832	32798	
543	0	32832	32750	
544	0	32834	32768	
545	0	32830	32844	
546	0	32796	32822	
547	0	32852	32805	
548	0	32832	32734	
549	0	32828	32714	
550	0	32812	32788	
551	0	32792	32764	
552	0	32800	32798	
553	0	32826	32862	
554	0	32749	32753	
555	0	32858	32762	
556	0	32784	32714	
557	0	32892	32748	
558	0	32826	32796	
559	0	32798	32696	
560	0	32796	32908	
561	0	32804	32850	
562	0	32800	32743	
563	0	32916	32756	
564	0	32786	32750	
565	0	32748	32807	
566	0	32792	32845	
567	0	32840	32790	
568	0	32758	32858	
569	0	32840	32775	
570	0	32832	32724	
571	0	32810	32722	
572	0	32828	32756	
573	0	32748	32793	
574	0	32802	32678	
575	0	32833	32707	
576	0	32840	32810	
577	0	32814	32769	
578	0	32836	32734	
579	0	32858	32756	
580	0	32830	32724	
581	0	32868	32719	
582	0	32806	32698	
583	0	32856	32871	
584	0	32798	32833	
585	0	32792	32842	
586	0	32748	32736	
587	0	32842	32740	
588	0	32762	32724	
589	0	32772	32725	
590	0	32836	32710	
591	0	32780	32806	
592	0	32828	32880	
593	0	32744	32814	
594	0	32848	32713	
595	0	32766	32768	
596	0	32776	32884	
597	0	32844	32711	
598	0	32793	32750	
599	0	32844	32775	
600	0	32824	32785	
601	0	32898	32764	
602	0	32848	32690	
603	0	32820	32630	
604	0	32841	32662	
605	0	32820	32746	
606	0	32800	32592	
607	0	32860	32714	
608	0	32820	32730	
609	0	32825	32775	
610	0	32814	32870	
611	0	32760	32838	
612	0	32772	32766	
613	0	32812	32794	
614	0	32816	32835	
615	0	32764	32772	
616	0	32788	32770	
617	0	32776	32748	
618	0	32752	32748	
619	0	32820	32760	
620	0	32860	32836	
621	0	32798	32861	
622	0	32800	32716	
623	0	32774	32684	
624	0	32796	32746	
625	0	32852	32740	
626	0	32808	32726	
627	0	32808	32792	
628	0	32768	32788	
629	0	32844	32720	
630	0	32842	32712	
631	0	32852	32615	
632	0	32782	32690	
633	0	32768	32711	
634	0	32792	32726	
635	0	32818	32738	
636	0	32796	32652	
637	0	32841	32647	
638	0	32908	32674	
639	0	32812	32682	
640	0	32824	32697	
641	0	32732	32676	
642	0	32796	32770	
643	0	32840	32761	
644	0	32850	32737	
645	0	32840	32742	
646	0	32828	32670	
647	0	32756	32866	
648	0	32796	32847	
649	0	32820	32842	
650	0	32810	32730	
651	0	32780	32855	
652	0	32754	32799	
653	0	32872	32758	
654	0	32812	32775	
655	0	32852	32808	
656	0	32780	32770	
657	0	32760	32774	
658	0	32800	32814	
659	0	32752	32853	
660	0	32766	32752	
661	0	32828	32710	
662	0	32816	32708	
663	0	32822	32702	
664	0	32762	32752	
665	0	32856	32676	
666	0	32878	32805	
667	0	32856	32838	
668	0	32884	32755	
669	0	32884	32718	
670	0	32752	32808	
671	0	32862	32801	
672	0	32822	32762	
673	0	32860	32702	
674	0	32808	32768	
675	0	32808	32766	
676	0	32764	32708	
677	0	32818	32728	
678	0	32762	32817	
679	0	32828	32756	
680	0	32798	32790	
681	0	32784	32760	
682	0	32752	32812	
683	0	32844	32841	
684	0	32804	32830	
685	0	32856	32807	
686	0	32868	32732	
687	0	32826	32775	
688	0	32800	32756	
689	0	32832	32839	
690	0	32800	32862	
691	0	32844	32775	
692	0	32840	32831	
693	0	32804	32815	
694	0	32826	32799	
695	0	32764	32800	
696	0	32782	32775	
697	0	32844	32688	
698	0	32804	32746	
699	0	32792	32730	
700	0	32816	32713	
701	0	32806	32679	
702	0	32820	32740	
703	0	32772	32830	
704	0	32876	32795	
705	0	32806	32737	
706	0	32796	32775	
707	0	32784	32837	
708	0	32768	32712	
709	0	32824	32819	
710	0	32830	32789	
711	0	32828	32724	
712	0	32838	32719	
713	0	32804	32756	
714	0	32832	32822	
715	0	32792	32790	
716	0	32822	32756	
717	0	32844	32812	
718	0	32774	32836	
719	0	32842	32679	
720	0	32832	32646	
721	0	32868	32678	
722	0	32762	32753	
723	0	32840	32832	
724	0	32894	32870	
725	0	32800	32836	
726	0	32824	32836	
727	0	32824	32774	
728	0	32794	32870	
729	0	32840	32826	
730	0	32784	32774	
731	0	32776	32832	
732	0	32810	32748	
733	0	32780	32816	
734	0	32812	32743	
735	0	32788	32646	
736	0	32800	32700	
737	0	32794	32882	
738	0	32872	32823	
739	0	32852	32758	
740	0	32832	32854	
741	0	32846	32804	
742	0	32796	32759	
743	0	32848	32775	
744	0	32848	32792	
745	0	32740	32732	
746	0	32808	32842	
747	0	32844	32830	
748	0	32824	32788	
749	0	32780	32822	
750	0	32848	32775	
751	0	32794	32775	
752	0	32748	32849	
753	0	32817	32832	
754	0	32780	32828	
755	0	32758	32775	
756	0	32784	32775	
757	0	32762	32858	
758	0	32790	32770	
759	0	32734	32794	
760	0	32830	32799	
761	0	32848	32754	
762	0	32808	32762	
763	0	32804	32812	
764	0	32864	32759	
765	0	32808	32761	
766	0	32809	32679	
767	0	32760	32628	
768	0	32812	32684	
769	0	32792	32674	
770	0	32800	32652	
771	0	32776	32648	
772	0	32808	32702	
773	0	32784	32750	
774	0	32800	32764	
775	0	32836	32750	
776	0	32752	32682	
777	0	32820	32807	
778	0	32848	32848	
779	0	32920	32847	
780	0	32734	32820	
781	0	32764	32700	
782	0	32868	32796	
783	0	32840	32748	
784	0	32816	32738	
785	0	32808	32846	
786	0	32826	32824	
787	0	32806	32725	
788	0	32940	32784	
789	0	32852	32852	
790	0	32764	32783	
791	0	32804	32775	
792	0	32788	32788	
793	0	32804	32807	
794	0	32836	32724	
795	0	32840	32760	
796	0	32708	32752	
797	0	32832	32784	
798	0	32844	32852	
799	0	32780	32822	
800	0	32824	32767	
801	0	32828	32746	
802	0	32772	32796	
803	0	32806	32824	
804	0	32828	32772	
805	0	32768	32788	
806	0	32800	32808	
807	0	32832	32852	
808	0	32832	32759	
809	0	32870	32769	
810	0	32764	32806	
811	0	32838	32876	
812	0	32816	32831	
813	0	32800	32792	
814	0	32784	32703	
815	0	32774	32736	
816	0	32792	32759	
817	0	32826	32687	
818	0	32784	32720	
819	0	32844	32716	
820	0	32836	32862	
821	0	32810	32800	
822	0	32848	32746	
823	0	32828	32790	
824	0	32780	32775	
825	0	32760	32806	
826	0	32802	32774	
827	0	32792	32687	
828	0	32828	32662	
829	0	32812	32684	
830	0	32804	32754	
831	0	32817	32892	
832	0	32802	32753	
833	0	32808	32810	
834	0	32772	32796	
835	0	32798	32714	
836	0	32836	32736	
837	0	32828	32678	
838	0	32778	32814	
839	0	32798	32754	
840	0	32800	32798	
841	0	32796	32772	
842	0	32820	32703	
843	0	32866	32710	
844	0	32790	32719	
845	0	32832	32647	
846	0	32796	32752	
847	0	32884	32759	
848	0	32844	32722	
849	0	32768	32722	
850	0	32820	32879	
851	0	32816	32838	
852	0	32792	32800	
853	0	32780	32815	
854	0	32824	32807	
855	0	32834	32816	
856	0	32781	32798	
857	0	32804	32850	
858	0	32792	32782	
859	0	32814	32692	
860	0	32866	32666	
861	0	32812	32702	
862	0	32756	32860	
863	0	32784	32834	
864	0	32780	32815	
865	0	32856	32752	
866	0	32838	32760	
867	0	32712	32805	
868	0	32768	32820	
869	0	32812	32832	
870	0	32831	32762	
871	0	32810	32740	
872	0	32848	32740	
873	0	32818	32688	
874	0	32796	32711	
875	0	32768	32756	
876	0	32808	32769	
877	0	32852	32761	
878	0	32818	32806	
879	0	32840	32860	
880	0	32816	32790	
881	0	32812	32770	
882	0	32804	32790	
883	0	32716	32766	
884	0	32804	32702	
885	0	32808	32760	
886	0	32834	32728	
887	0	32800	32728	
888	0	32800	32834	
889	0	32802	32752	
890	0	32766	32728	
891	0	32786	32790	
892	0	32808	32748	
893	0	32778	32801	
894	0	32816	32799	
895	0	32856	32884	
896	0	32856	32812	
897	0	32776	32740	
898	0	32790	32798	
899	0	32756	32708	
900	0	32836	32852	
901	0	32848	32797	
902	0	32826	32798	
903	0	32828	32876	
904	0	32752	32835	
905	0	32820	32845	
906	0	32860	32766	
907	0	32848	32758	
908	0	32868	32684	
909	0	32752	32640	
910	0	32840	32687	
911	0	32810	32839	
912	0	32848	32759	
913	0	32812	32800	
914	0	32772	32788	
915	0	32802	32783	
916	0	32892	32767	
917	0	32758	32792	
918	0	32752	32742	
919	0	32800	32704	
920	0	32848	32674	
921	0	32842	32866	
922	0	32821	32854	
923	0	32848	32810	
924	0	32828	32788	
925	0	32784	32844	
926	0	32784	32830	
927	0	32762	32839	
928	0	32836	32726	
929	0	32897	32796	
930	0	32866	32784	
931	0	32874	32762	
932	0	32820	32699	
933	0	32800	32788	
934	0	32772	32812	
935	0	32796	32725	
936	0	32824	32878	
937	0	32844	32766	
938	0	32758	32720	
939	0	32884	32734	
940	0	32820	32684	
941	0	32764	32625	
942	0	32766	32740	
943	0	32856	32690	
944	0	32786	32672	
945	0	32768	32722	
946	0	32816	32807	
947	0	32830	32761	
948	0	32789	32750	
949	0	32820	32882	
950	0	32785	32839	
951	0	32816	32806	
952	0	32798	32883	
953	0	32746	32871	
954	0	32784	32810	
955	0	32800	32756	
956	0	32808	32688	
957	0	32816	32721	
958	0	32844	32755	
959	0	32830	32754	
960	0	32846	32724	
961	0	32782	32838	
962	0	32836	32798	
963	0	32844	32826	
964	0	32844	32711	
965	0	32878	32686	
966	0	32792	32711	
967	0	32848	32702	
968	0	32824	32748	
969	0	32864	32832	
970	0	32752	32750	
971	0	32820	32834	
972	0	32812	32794	
973	0	32774	32716	
974	0	32810	32734	
975	0	32862	32703	
976	0	32804	32860	
977	0	32806	32814	
978	0	32816	32850	
979	0	32808	32902	
980	0	32736	32775	
981	0	32800	32629	
982	0	32780	32672	
983	0	32828	32758	
984	0	32824	32742	
985	0	32784	32791	
986	0	32760	32684	
987	0	32800	32674	
988	0	32804	32803	
989	0	32764	32786	
990	0	32788	32788	
991	0	32844	32828	
992	0	32780	32775	
993	0	32764	32686	
994	0	32776	32732	
995	0	32856	32792	
996	0	32801	32824	
997	0	32816	32871	
998	0	32836	32892	
999	0	32836	32790	
1000	0	32792	32734	
1001	0	32852	32698	
1002	0	32892	32682	
1003	0	32860	32712	
1004	0	32820	32694	
1005	0	32800	32702	
1006	0	32842	32814	
1007	0	32782	32838	
1008	0	32788	32802	
1009	0	32740	32790	
1010	0	32812	32805	
1011	0	32744	32814	
1012	0	32796	32740	
1013	0	32744	32772	
1014	0	32774	32633	
1015	0	32820	32727	
1016	0	32850	32825	
1017	0	32865	32718	
1018	0	32836	32745	
1019	0	32800	32826	
1020	0	32802	32814	
1021	0	32840	32719	
1022	0	32886	32710	
1023	0	32934	32730	
1024	0	32752	32775	
1025	0	32796	32775	
1026	0	32884	32740	
1027	0	32834	32722	
1028	0	32852	32768	
1029	0	32814	32775	
1030	0	32820	32727	
1031	0	32756	32726	
1032	0	32850	32792	
1033	0	32800	32831	
1034	0	32776	32762	
1035	0	32816	32785	
1036	0	32858	32852	
1037	0	32876	32847	
1038	0	32782	32804	
1039	0	32804	32738	
1040	0	32848	32622	
1041	0	32808	32684	
1042	0	32852	32650	
1043	0	32816	32708	
1044	0	32800	32775	
1045	0	32768	32790	
1046	0	32834	32775	
1047	0	32864	32742	
1048	0	32808	32790	
1049	0	32734	32822	
1050	0	32800	32858	
1051	0	32812	32726	
1052	0	32754	32712	
1053	0	32794	32864	
1054	0	32870	32760	
1055	0	32786	32839	
1056	0	32864	32852	
1057	0	32808	32838	
1058	0	32824	32742	
1059	0	32832	32801	
1060	0	32804	32807	
1061	0	32848	32768	
1062	0	32774	32724	
1063	0	32784	32818	
1064	0	32832	32828	
1065	0	32856	32711	
1066	0	32824	32663	
1067	0	32792	32671	
1068	0	32852	32804	
1069	0	32828	32756	
1070	0	32760	32804	
1071	0	32820	32806	
1072	0	32842	32790	
1073	0	32832	32721	
1074	0	32816	32835	
1075	0	32832	32858	
1076	0	32864	32872	
1077	0	32814	32871	
1078	0	32840	32865	
1079	0	32852	32794	
1080	0	32796	32820	
1081	0	32838	32836	
1082	0	32760	32916	
1083	0	32822	32812	
1084	0	32846	32714	
1085	0	32910	32642	
1086	0	32900	32708	
1087	0	32804	32672	
1088	0	32812	32644	
1089	0	32792	32765	
1090	0	32806	32768	
1091	0	32842	32766	
1092	0	32752	32808	
1093	0	32720	32750	
1094	0	32676	32742	
1095	0	32810	32642	
1096	0	32768	32807	
1097	0	32762	32824	
1098	0	32798	32844	
1099	0	32794	32871	
1100	0	32814	32868	
1101	0	32802	32836	
1102	0	32814	32814	
1103	0	32864	32751	
1104	0	32928	32860	
1105	0	32784	32708	
1106	0	32796	32902	
1107	0	32820	32760	
1108	0	32798	32882	
1109	0	32848	32744	
1110	0	32880	32614	
1111	0	32836	32602	
1112	0	32748	32671	
1113	0	32778	32692	
1114	0	32852	32700	
1115	0	32832	32791	
1116	0	32788	32864	
1117	0	32752	32808	
1118	0	32844	32836	
1119	0	32756	32839	
1120	0	32862	32716	
1121	0	32804	32810	
1122	0	32808	32868	
1123	0	32832	32808	
1124	0	32822	32788	
1125	0	32806	32708	
1126	0	32832	32818	
1127	0	32764	32774	
1128	0	32920	32900	
1129	0	32794	32870	
1130	0	32830	32775	
1131	0	32780	32952	
1132	0	32752	32866	
1133	0	32804	32775	
1134	0	32846	32804	
1135	0	32792	32684	
1136	0	32732	32647	
1137	0	32764	32638	
1138	0	32748	32748	
1139	0	32736	32693	
1140	0	32832	32644	
1141	0	32700	32574	
1142	0	32724	32646	
1143	0	32758	32722	
1144	0	32806	32618	
1145	0	32772	32544	
1146	0	32720	32612	
1147	0	32768	32565	
1148	0	32756	32623	
1149	0	32764	32606	
1150	0	32666	32690	
1151	0	32696	32720	
1152	0	32728	32700	
1153	0	32728	32708	
1154	0	32800	32747	
1155	0	32826	32720	
1156	0	32847	32756	
1157	0	32860	32738	
1158	0	32794	32660	
1159	0	32986	32680	
1160	0	32992	32724	
1161	0	33100	32879	
1162	0	33048	33052	
1163	0	33168	33173	
1164	0	33148	33220	
1165	0	33136	33383	
1166	0	33100	33382	
1167	0	32984	33234	
1168	0	32958	33159	
1169	0	32824	33066	
1170	0	32832	33045	
1171	0	32808	32880	
1172	0	32764	32806	
1173	0	32672	32735	
1174	0	32718	32620	
1175	0	32656	32588	
1176	0	32634	32548	
1177	0	32672	32602	
1178	0	32692	32584	
1179	0	32688	32534	
1180	0	32712	32543	
1181	0	32724	32582	
1182	0	32740	32534	
1183	0	32720	32598	
1184	0	32640	32758	
1185	0	32766	32856	
1186	0	32716	32767	
1187	0	32724	32676	
1188	0	32748	32708	
1189	0	32764	32775	
1190	0	32792	32772	
1191	0	32812	32755	
1192	0	32832	32817	
1193	0	32876	32660	
1194	0	32790	32618	
1195	0	32794	32640	
1196	0	32852	32692	
1197	0	32840	32620	
1198	0	32934	32608	
1199	0	32772	32718	
1200	0	32828	32740	
1201	0	32793	32814	
1202	0	32832	32794	
1203	0	32906	32871	
1204	0	32808	32828	
1205	0	32784	32892	
1206	0	32824	32748	
1207	0	32806	32816	
1208	0	32800	32830	
1209	0	32804	32784	
1210	0	32732	32734	
1211	0	32780	32791	
1212	0	32820	32764	
1213	0	32840	32823	
1214	0	32832	32806	
1215	0	32750	32742	
1216	0	32836	32760	
1217	0	32756	32766	
1218	0	32876	32727	
1219	0	32812	32734	
1220	0	32780	32660	
1221	0	32808	32688	
1222	0	32800	32706	
1223	0	32864	32647	
1224	0	32832	32830	
1225	0	32848	32740	
1226	0	32844	32775	
1227	0	32774	32796	
1228	0	32788	32876	
1229	0	32844	32734	
1230	0	32832	32752	
1231	0	32864	32704	
1232	0	32836	32706	
1233	0	32772	32726	
1234	0	32796	32732	
1235	0	32796	32740	
1236	0	32780	32686	
1237	0	32752	32660	
1238	0	32836	32692	
1239	0	32804	32700	
1240	0	32869	32636	
1241	0	32764	32719	
1242	0	32816	32679	
1243	0	32721	32743	
1244	0	32768	32708	
1245	0	32804	32807	
1246	0	32864	32802	
1247	0	32850	32812	
1248	0	32780	32852	
1249	0	32788	32868	
1250	0	32804	32890	
1251	0	32796	32820	
1252	0	32800	32800	
1253	0	32816	32836	
1254	0	32846	32753	
1255	0	32778	32706	
1256	0	32740	32775	
1257	0	32842	32783	
1258	0	32774	32794	
1259	0	32770	32886	
1260	0	32812	32775	
1261	0	32836	32850	
1262	0	32770	32746	
1263	0	32758	32704	
1264	0	32792	32846	
1265	0	32764	32839	
1266	0	32916	32755	
1267	0	32876	32814	
1268	0	32830	32782	
1269	0	32872	32823	
1270	0	32840	32794	
1271	0	32800	32802	
1272	0	32833	32826	
1273	0	32788	32772	
1274	0	32804	32846	
1275	0	32822	32830	
1276	0	32750	32807	
1277	0	32864	32788	
1278	0	32846	32708	
1279	0	32816	32722	
1280	0	32768	32792	
1281	0	32854	32808	
1282	0	32852	32826	
1283	0	32770	32832	
1284	0	32762	32881	
1285	0	32756	32822	
1286	0	32816	32719	
1287	0	32796	32784	
1288	0	32822	32807	
1289	0	32838	32736	
1290	0	32856	32692	
1291	0	32780	32716	
1292	0	32828	32714	
1293	0	32820	32807	
1294	0	32796	32804	
1295	0	32800	32822	
1296	0	32828	32811	
1297	0	32852	32798	
1298	0	32834	32730	
1299	0	32796	32862	
1300	0	32774	32756	
1301	0	32828	32702	
1302	0	32772	32799	
1303	0	32780	32775	
1304	0	32816	32840	
1305	0	32818	32843	
1306	0	32832	32830	
1307	0	32784	32810	
1308	0	32768	32710	
1309	0	32820	32734	
1310	0	32856	32758	
1311	0	32856	32852	
1312	0	32818	32836	
1313	0	32836	32838	
1314	0	32824	32871	
1315	0	32892	32720	
1316	0	32836	32820	
1317	0	32808	32721	
1318	0	32796	32750	
1319	0	32768	32730	
1320	0	32800	32775	
1321	0	32838	32688	
1322	0	32856	32760	
1323	0	32820	32798	
1324	0	32790	32814	
1325	0	32792	32807	
1326	0	32844	32812	
1327	0	32876	32856	
1328	0	32820	32742	
1329	0	32740	32729	
1330	0	32810	32664	
1331	0	32764	32734	
1332	0	32832	32694	
1333	0	32788	32758	
1334	0	32778	32822	
1335	0	32782	32775	
1336	0	32768	32829	
1337	0	32768	32708	
1338	0	32876	32722	
1339	0	32789	32794	
1340	0	32816	32806	
1341	0	32842	32710	
1342	0	32848	32662	
1343	0	32772	32822	
1344	0	32812	32775	
1345	0	32808	32792	
1346	0	32840	32728	
1347	0	32812	32865	
1348	0	32832	32791	
1349	0	32848	32839	
1350	0	32792	32772	
1351	0	32852	32710	
1352	0	32780	32671	
1353	0	32832	32753	
1354	0	32837	32820	
1355	0	32796	32750	
1356	0	32784	32764	
1357	0	32796	32682	
1358	0	32868	32814	
1359	0	32888	32862	
1360	0	32800	32756	
1361	0	32792	32775	
1362	0	32846	32844	
1363	0	32830	32854	
1364	0	32830	32788	
1365	0	32808	32798	
1366	0	32824	32824	
1367	0	32824	32854	
1368	0	32832	32883	
1369	0	32824	32902	
1370	0	32836	32848	
1371	0	32712	32806	
1372	0	32806	32820	
1373	0	32832	32839	
1374	0	32776	32871	
1375	0	32792	32864	
1376	0	32804	32836	
1377	0	32796	32806	
1378	0	32804	32806	
1379	0	32834	32772	
1380	0	32756	32794	
1381	0	32760	32762	
1382	0	32788	32831	
1383	0	32752	32822	
1384	0	32820	32762	
1385	0	32786	32800	
1386	0	32794	32790	
1387	0	32808	32714	
1388	0	32846	32796	
1389	0	32776	32775	
1390	0	32792	32826	
1391	0	32836	32705	
1392	0	32836	32802	
1393	0	32832	32837	
1394	0	32838	32728	
1395	0	32832	32740	
1396	0	32836	32788	
1397	0	32832	32816	
1398	0	32814	32815	
1399	0	32836	32808	
1400	0	32796	32703	
1401	0	32832	32730	
1402	0	32796	32694	
1403	0	32748	32766	
1404	0	32826	32743	
1405	0	32764	32752	
1406	0	32786	32816	
1407	0	32796	32799	
1408	0	32796	32867	
1409	0	32812	32814	
1410	0	32789	32863	
1411	0	32786	32838	
1412	0	32776	32858	
1413	0	32888	32889	
1414	0	32784	32756	
1415	0	32800	32699	
1416	0	32788	32822	
1417	0	32820	32804	
1418	0	32848	32798	
1419	0	32864	32862	
1420	0	32850	32838	
1421	0	32788	32788	
1422	0	32832	32751	
1423	0	32776	32734	
1424	0	32756	32826	
1425	0	32826	32746	
1426	0	32836	32700	
1427	0	32780	32750	
1428	0	32812	32746	
1429	0	32844	32742	
1430	0	32808	32679	
1431	0	32758	32677	
1432	0	32804	32628	
1433	0	32824	32708	
1434	0	32776	32706	
1435	0	32808	32738	
1436	0	32764	32770	
1437	0	32940	32846	
1438	0	32836	32796	
1439	0	32860	32711	
1440	0	32788	32757	
1441	0	32788	32700	
1442	0	32772	32775	
1443	0	32800	32814	
1444	0	32756	32804	
1445	0	32916	32828	
1446	0	32864	32846	
1447	0	32828	32808	
1448	0	32824	32806	
1449	0	32764	32872	
1450	0	32815	32796	
1451	0	32777	32820	
1452	0	32836	32832	
1453	0	32752	32800	
1454	0	32844	32823	
1455	0	32820	32822	
1456	0	32792	32806	
1457	0	32828	32748	
1458	0	32788	32756	
1459	0	32804	32806	
1460	0	32818	32771	
1461	0	32820	32761	
1462	0	32788	32740	
1463	0	32868	32750	
1464	0	32824	32756	
1465	0	32824	32736	
1466	0	32758	32814	
1467	0	32844	32743	
1468	0	32808	32730	
1469	0	32778	32764	
1470	0	32780	32754	
1471	0	32824	32775	
1472	0	32836	32805	
1473	0	32792	32863	
1474	0	32792	32828	
1475	0	32804	32847	
1476	0	32830	32796	
1477	0	32832	32822	
1478	0	32760	32900	
1479	0	32848	32846	
1480	0	32756	32736	
1481	0	32754	32758	
1482	0	32804	32846	
1483	0	32848	32695	
1484	0	32820	32772	
1485	0	32869	32796	
1486	0	32896	32775	
1487	0	32876	32728	
1488	0	32868	32775	
1489	0	32876	32799	
1490	0	32808	32760	
1491	0	32800	32826	
1492	0	32836	32868	
1493	0	32740	32852	
1494	0	32750	32830	
1495	0	32770	32775	
1496	0	32840	32788	
1497	0	32896	32796	
1498	0	32752	32816	
1499	0	32808	32820	
1500	0	32860	32812	
1501	0	32868	32736	
1502	0	32760	32775	
1503	0	32822	32716	
1504	0	32728	32772	
1505	0	32748	32752	
1506	0	32864	32774	
1507	0	32860	32796	
1508	0	32836	32810	
1509	0	32812	32816	
1510	0	32816	32826	
1511	0	32830	32834	
1512	0	32858	32705	
1513	0	32800	32900	
1514	0	32792	32812	
1515	0	32762	32847	
1516	0	32740	32788	
1517	0	32774	32768	
1518	0	32792	32792	
1519	0	32860	32804	
1520	0	32853	32762	
1521	0	32836	32799	
1522	0	32788	32842	
1523	0	32856	32896	
1524	0	32778	32743	
1525	0	32792	32775	
1526	0	32836	32798	
1527	0	32802	32740	
1528	0	32768	32820	
1529	0	32754	32856	
1530	0	32820	32865	
1531	0	32810	32830	
1532	0	32776	32814	
1533	0	32776	32850	
1534	0	32810	32826	
1535	0	32796	32796	
1536	0	32780	32740	
1537	0	32782	32730	
1538	0	32792	32720	
1539	0	32784	32743	
1540	0	32804	32684	
1541	0	32750	32751	
1542	0	32753	32781	
1543	0	32800	32852	
1544	0	32798	32828	
1545	0	32798	32831	
1546	0	32860	32788	
1547	0	32804	32802	
1548	0	32792	32794	
1549	0	32808	32711	
1550	0	32800	32753	
1551	0	32774	32746	
1552	0	32740	32705	
1553	0	32776	32702	
1554	0	32796	32728	
1555	0	32824	32862	
1556	0	32806	32839	
1557	0	32776	32774	
1558	0	32792	32754	
1559	0	32884	32806	
1560	0	32804	32802	
1561	0	32824	32728	
1562	0	32804	32775	
1563	0	32858	32762	
1564	0	32852	32718	
1565	0	32808	32786	
1566	0	32828	32696	
1567	0	32788	32860	
1568	0	32858	32799	
1569	0	32804	32751	
1570	0	32784	32834	
1571	0	32820	32711	
1572	0	32790	32826	
1573	0	32776	32832	
1574	0	32752	32820	
1575	0	32768	32741	
1576	0	32848	32767	
1577	0	32810	32772	
1578	0	32780	32774	
1579	0	32876	32768	
1580	0	32818	32727	
1581	0	32804	32834	
1582	0	32804	32856	
1583	0	32836	32774	
1584	0	32842	32801	
1585	0	32824	32744	
1586	0	32849	32848	
1587	0	32768	32774	
1588	0	32766	32764	
1589	0	32794	32682	
1590	0	32802	32668	
1591	0	32848	32775	
1592	0	32784	32696	
1593	0	32844	32754	
1594	0	32870	32770	
1595	0	32798	32770	
1596	0	32822	32774	
1597	0	32832	32824	
1598	0	32876	32759	
1599	0	32732	32729	
1600	0	32864	32846	
1601	0	32756	32836	
1602	0	32828	32836	
1603	0	32840	32948	
1604	0	32796	32808	
1605	0	32844	32894	
1606	0	32836	32794	
1607	0	32748	32775	
1608	0	32836	32775	
1609	0	32800	32818	
1610	0	32816	32815	
1611	0	32824	32700	
1612	0	32868	32668	
1613	0	32796	32743	
1614	0	32728	32662	
1615	0	32804	32762	
1616	0	32818	32724	
1617	0	32832	32758	
1618	0	32816	32824	
1619	0	32876	32728	
1620	0	32824	32828	
1621	0	32821	32744	
1622	0	32784	32884	
1623	0	32796	32768	
1624	0	32805	32788	
1625	0	32784	32903	
1626	0	32852	32816	
1627	0	32860	32734	
1628	0	32768	32877	
1629	0	32792	32796	
1630	0	32804	32704	
1631	0	32786	32774	
1632	0	32785	32766	
1633	0	32778	32792	
1634	0	32858	32838	
1635	0	32804	32839	
1636	0	32920	32806	
1637	0	32808	32831	
1638	0	32800	32802	
1639	0	32800	32834	
1640	0	32836	32811	
1641	0	32802	32815	
1642	0	32870	32753	
1643	0	32862	32839	
1644	0	32784	32862	
1645	0	32780	32818	
1646	0	32866	32730	
1647	0	32832	32743	
1648	0	32816	32754	
1649	0	32852	32716	
1650	0	32780	32770	
1651	0	32756	32796	
1652	0	32808	32716	
1653	0	32762	32826	
1654	0	32768	32742	
1655	0	32802	32755	
1656	0	32766	32786	
1657	0	32858	32830	
1658	0	32804	32796	
1659	0	32856	32790	
1660	0	32752	32734	
1661	0	32816	32784	
1662	0	32844	32775	
1663	0	32840	32836	
1664	0	32796	32820	
1665	0	32784	32807	
1666	0	32826	32740	
1667	0	32788	32673	
1668	0	32814	32838	
1669	0	32848	32828	
1670	0	32830	32740	
1671	0	32858	32839	
1672	0	32780	32814	
1673	0	32844	32711	
1674	0	32832	32756	
1675	0	32776	32698	
1676	0	32808	32727	
1677	0	32812	32664	
1678	0	32808	32710	
1679	0	32818	32652	
1680	0	32840	32704	
1681	0	32780	32706	
1682	0	32846	32732	
1683	0	32772	32772	
1684	0	32816	32822	
1685	0	32774	32775	
1686	0	32826	32821	
1687	0	32794	32796	
1688	0	32860	32916	
1689	0	32838	32842	
1690	0	32849	32866	
1691	0	32848	32814	
1692	0	32788	32760	
1693	0	32706	32775	
1694	0	32820	32766	
1695	0	32776	32765	
1696	0	32824	32727	
1697	0	32777	32801	
1698	0	32732	32818	
1699	0	32838	32775	
1700	0	32848	32830	
1701	0	32834	32775	
1702	0	32825	32742	
1703	0	32784	32768	
1704	0	32802	32839	
1705	0	32832	32814	
1706	0	32816	32774	
1707	0	32850	32796	
1708	0	32808	32728	
1709	0	32840	32766	
1710	0	32764	32798	
1711	0	32756	32764	
1712	0	32808	32718	
1713	0	32788	32744	
1714	0	32764	32718	
1715	0	32788	32711	
1716	0	32770	32855	
1717	0	32817	32788	
1718	0	32784	32766	
1719	0	32796	32732	
1720	0	32792	32708	
1721	0	32792	32794	
1722	0	32832	32769	
1723	0	32856	32858	
1724	0	32822	32748	
1725	0	32808	32775	
1726	0	32766	32716	
1727	0	32816	32757	
1728	0	32848	32711	
1729	0	32876	32687	
1730	0	32868	32790	
1731	0	32804	32734	
1732	0	32865	32768	
1733	0	32828	32742	
1734	0	32806	32756	
1735	0	32824	32744	
1736	0	32804	32707	
1737	0	32752	32716	
1738	0	32800	32716	
1739	0	32860	32737	
1740	0	32772	32726	
1741	0	32726	32705	
1742	0	32848	32830	
1743	0	32868	32798	
1744	0	32872	32807	
1745	0	32828	32743	
1746	0	32896	32751	
1747	0	32775	32752	
1748	0	32832	32750	
1749	0	32840	32741	
1750	0	32792	32804	
1751	0	32824	32812	
1752	0	32876	32860	
1753	0	32784	32816	
1754	0	32814	32764	
1755	0	32850	32832	
1756	0	32808	32802	
1757	0	32762	32800	
1758	0	32834	32828	
1759	0	32834	32774	
1760	0	32868	32756	
1761	0	32842	32836	
1762	0	32708	32840	
1763	0	32868	32838	
1764	0	32830	32760	
1765	0	32776	32752	
1766	0	32820	32775	
1767	0	32874	32724	
1768	0	32744	32765	
1769	0	32792	32838	
1770	0	32852	32840	
1771	0	32836	32772	
1772	0	32852	32804	
1773	0	32774	32766	
1774	0	32758	32823	
1775	0	32808	32838	
1776	0	32770	32814	
1777	0	32758	32836	
1778	0	32804	32868	
1779	0	32782	32774	
1780	0	32790	32806	
1781	0	32856	32768	
1782	0	32860	32862	
1783	0	32796	32766	
1784	0	32832	32775	
1785	0	32872	32855	
1786	0	32856	32708	
1787	0	32844	32810	
1788	0	32792	32748	
1789	0	32798	32725	
1790	0	32862	32759	
1791	0	32808	32736	
1792	0	32788	32788	
1793	0	32846	32732	
1794	0	32812	32794	
1795	0	32836	32798	
1796	0	32872	32824	
1797	0	32840	32812	
1798	0	32836	32828	
1799	0	32812	32727	
1800	0	32752	32806	
1801	0	32838	32842	
1802	0	32834	32775	
1803	0	32784	32799	
1804	0	32816	32732	
1805	0	32776	32694	
1806	0	32828	32801	
1807	0	32846	32792	
1808	0	32790	32775	
1809	0	32756	32746	
1810	0	32720	32775	
1811	0	32768	32790	
1812	0	32814	32746	
1813	0	32740	32751	
1814	0	32816	32830	
1815	0	32804	32772	
1816	0	32792	32742	
1817	0	32864	32820	
1818	0	32832	32775	
1819	0	32804	32722	
1820	0	32776	32751	
1821	0	32812	32775	
1822	0	32832	32860	
1823	0	32828	32830	
1824	0	32854	32766	
1825	0	32753	32742	
1826	0	32789	32716	
1827	0	32798	32698	
1828	0	32805	32722	
1829	0	32762	32768	
1830	0	32772	32792	
1831	0	32808	32774	
1832	0	32846	32755	
1833	0	32794	32775	
1834	0	32788	32672	
1835	0	32794	32774	
1836	0	32816	32694	
1837	0	32788	32662	
1838	0	32804	32610	
1839	0	32784	32647	
1840	0	32752	32676	
1841	0	32720	32604	
1842	0	32718	32577	
1843	0	32660	32584	
1844	0	32732	32700	
1845	0	32760	32634	
1846	0	32780	32582	
1847	0	32700	32564	
1848	0	32788	32618	
1849	0	32698	32746	
1850	0	32728	32775	
1851	0	32694	32768	
1852	0	32652	32695	
1853	0	32692	32714	
1854	0	32800	32731	
1855	0	32792	32766	
1856	0	32788	32728	
1857	0	32890	32740	
1858	0	32880	32647	
1859	0	32862	32658	
1860	0	32972	32641	
1861	0	33056	32722	
1862	0	33014	32958	
1863	0	33128	32872	
1864	0	33156	33076	
1865	0	33176	33216	
1866	0	33256	33199	
1867	0	33106	33346	
1868	0	33090	33234	
1869	0	32992	33116	
1870	0	32900	33159	
1871	0	32788	33098	
1872	0	32784	33047	
1873	0	32732	32916	
1874	0	32720	32719	
1875	0	32704	32634	
1876	0	32736	32599	
1877	0	32636	32580	
1878	0	32628	32602	
1879	0	32682	32542	
1880	0	32670	32543	
1881	0	32712	32572	
1882	0	32692	32579	
1883	0	32686	32589	
1884	0	32674	32591	
1885	0	32692	32716	
1886	0	32756	32647	
1887	0	32792	32647	
1888	0	32732	32628	
1889	0	32740	32706	
1890	0	32740	32612	
1891	0	32816	32726	
1892	0	32836	32690	
1893	0	32796	32700	
1894	0	32756	32702	
1895	0	32836	32674	
1896	0	32858	32684	
1897	0	32864	32710	
1898	0	32818	32672	
1899	0	32802	32676	
1900	0	32834	32684	
1901	0	32842	32761	
1902	0	32810	32796	
1903	0	32830	32794	
1904	0	32900	32775	
1905	0	32848	32768	
1906	0	32844	32855	
1907	0	32808	32772	
1908	0	32782	32868	
1909	0	32840	32816	
1910	0	32824	32896	
1911	0	32756	32795	
1912	0	32794	32889	
1913	0	32818	32870	
1914	0	32846	32774	
1915	0	32808	32704	
1916	0	32798	32654	
1917	0	32824	32680	
1918	0	32794	32690	
1919	0	32840	32636	
1920	0	32792	32738	
1921	0	32876	32700	
1922	0	32828	32724	
1923	0	32800	32718	
1924	0	32844	32680	
1925	0	32800	32708	
1926	0	32802	32718	
1927	0	32862	32773	
1928	0	32828	32732	
1929	0	32772	32674	
1930	0	32806	32692	
1931	0	32829	32714	
1932	0	32793	32730	
1933	0	32778	32828	
1934	0	32768	32805	
1935	0	32756	32787	
1936	0	32884	32761	
1937	0	32852	32825	
1938	0	32828	32768	
1939	0	32796	32838	
1940	0	32853	32760	
1941	0	32812	32843	
1942	0	32824	32836	
1943	0	32884	32718	
1944	0	32863	32747	
1945	0	32804	32775	
1946	0	32814	32711	
1947	0	32836	32746	
1948	0	32804	32712	
1949	0	32844	32766	
1950	0	32790	32679	
1951	0	32736	32756	
1952	0	32752	32647	
1953	0	32768	32732	
1954	0	32776	32876	
1955	0	32820	32638	
1956	0	32846	32818	
1957	0	32816	32866	
1958	0	32770	32775	
1959	0	32860	32775	
1960	0	32840	32772	
1961	0	32834	32798	
1962	0	32822	32822	
1963	0	32820	32826	
1964	0	32844	32764	
1965	0	32820	32844	
1966	0	32896	32854	
1967	0	32772	32764	
1968	0	32788	32822	
1969	0	32752	32804	
1970	0	32740	32751	
1971	0	32824	32871	
1972	0	32790	32876	
1973	0	32854	32752	
1974	0	32806	32807	
1975	0	32762	32834	
1976	0	32852	32855	
1977	0	32852	32814	
1978	0	32769	32662	
1979	0	32828	32744	
1980	0	32772	32665	
1981	0	32770	32720	
1982	0	32796	32738	
1983	0	32844	32790	
1984	0	32832	32746	
1985	0	32884	32711	
1986	0	32852	32686	
1987	0	32778	32663	
1988	0	32841	32704	
1989	0	32844	32670	
1990	0	32820	32668	
1991	0	32846	32771	
1992	0	32858	32784	
1993	0	32736	32836	
1994	0	32828	32796	
1995	0	32816	32804	
1996	0	32844	32820	
1997	0	32820	32775	
1998	0	32806	32754	
1999	0	32832	32774	
2000	0	32896	32764	
2001	0	32810	32758	
2002	0	32860	32759	
2003	0	32816	32815	
2004	0	32832	32810	
2005	0	32784	32807	
2006	0	32804	32718	
2007	0	32782	32791	
2008	0	32800	32810	
2009	0	32742	32772	
2010	0	32832	32727	
2011	0	32796	32656	
2012	0	32792	32670	
2013	0	32780	32775	
2014	0	32816	32748	
2015	0	32820	32808	
2016	0	32864	32794	
2017	0	32818	32824	
2018	0	32788	32870	
2019	0	32774	32775	
2020	0	32824	32771	
2021	0	32828	32736	
2022	0	32784	32699	
2023	0	32750	32720	
2024	0	32792	32822	
2025	0	32790	32775	
2026	0	32896	32775	
2027	0	32808	32741	
2028	0	32836	32772	
2029	0	32808	32772	
2030	0	32864	32775	
2031	0	32800	32730	
2032	0	32808	32740	
2033	0	32817	32704	
2034	0	32824	32836	
2035	0	32804	32824	
2036	0	32816	32741	
2037	0	32880	32759	
2038	0	32864	32810	
2039	0	32800	32774	
2040	0	32826	32727	
2041	0	32828	32678	
2042	0	32800	32670	
2043	0	32826	32737	
2044	0	32784	32814	
2045	0	32792	32798	
2046	0	32810	32791	
2047	0	32816	32788	
2048	0	32786	32788	
2049	0	32812	32754	
2050	0	32836	32791	
2051	0	32816	32838	
2052	0	32864	32676	
2053	0	32772	32775	
2054	0	32804	32806	
2055	0	32780	32724	
2056	0	32844	32740	
2057	0	32820	32678	
2058	0	32896	32752	
2059	0	32816	32759	
2060	0	32886	32824	
2061	0	32812	32826	
2062	0	32836	32799	
2063	0	32856	32812	
2064	0	32808	32724	
2065	0	32776	32712	
2066	0	32796	32876	
2067	0	32782	32796	
2068	0	32880	32702	
2069	0	32808	32707	
2070	0	32816	32788	
2071	0	32828	32816	
2072	0	32744	32831	
2073	0	32842	32835	
2074	0	32808	32716	
2075	0	32828	32655	
2076	0	32802	32746	
2077	0	32804	32775	
2078	0	32760	32676	
2079	0	32798	32813	
2080	0	32772	32790	
2081	0	32804	32862	
2082	0	32793	32775	
2083	0	32856	32889	
2084	0	32808	32775	
2085	0	32836	32711	
2086	0	32868	32772	
2087	0	32816	32831	
2088	0	32804	32687	
2089	0	32824	32726	
2090	0	32750	32702	
2091	0	32804	32720	
2092	0	32844	32742	
2093	0	32782	32736	
2094	0	32836	32810	
2095	0	32876	32740	
2096	0	32845	32798	
2097	0	32816	32852	
2098	0	32852	32796	
2099	0	32764	32756	
2100	0	32812	32884	
2101	0	32812	32744	
2102	0	32804	32748	
2103	0	32900	32760	
2104	0	32798	32788	
2105	0	32808	32764	
2106	0	32800	32803	
2107	0	32884	32715	
2108	0	32768	32748	
2109	0	32860	32766	
2110	0	32788	32798	
2111	0	32840	32767	
2112	0	32788	32807	
2113	0	32792	32791	
2114	0	32856	32678	
2115	0	32836	32768	
2116	0	32776	32738	
2117	0	32814	32636	
2118	0	32808	32692	
2119	0	32798	32721	
2120	0	32768	32756	
2121	0	32852	32808	
2122	0	32776	32808	
2123	0	32726	32764	
2124	0	32772	32814	
2125	0	32816	32839	
2126	0	32864	32730	
2127	0	32800	32775	
2128	0	32822	32820	
2129	0	32780	32804	
2130	0	32828	32802	
2131	0	32884	32756	
2132	0	32742	32796	
2133	0	32760	32727	
2134	0	32800	32606	
2135	0	32808	32619	
2136	0	32814	32586	
2137	0	32830	32758	
2138	0	32794	32756	
2139	0	32780	32740	
2140	0	32796	32750	
2141	0	32863	32769	
2142	0	32740	32655	
2143	0	32782	32690	
2144	0	32884	32642	
2145	0	32802	32753	
2146	0	32804	32670	
2147	0	32704	32870	
2148	0	32808	32775	
2149	0	32788	32890	
2150	0	32860	32807	
2151	0	32836	32852	
2152	0	32864	32818	
2153	0	32808	32822	
2154	0	32834	32756	
2155	0	32750	32796	
2156	0	32824	32724	
2157	0	32792	32750	
2158	0	32846	32708	
2159	0	32792	32656	
2160	0	32792	32694	
2161	0	32800	32706	
2162	0	32762	32812	
2163	0	32872	32788	
2164	0	32868	32812	
2165	0	32840	32812	
2166	0	32864	32820	
2167	0	32828	32908	
2168	0	32728	32839	
2169	0	32776	32847	
2170	0	32772	32751	
2171	0	32792	32808	
2172	0	32880	32859	
2173	0	32858	32734	
2174	0	32800	32694	
2175	0	32802	32697	
2176	0	32788	32871	
2177	0	32820	32808	
2178	0	32876	32790	
2179	0	32800	32824	
2180	0	32888	32762	
2181	0	32736	32784	
2182	0	32752	32768	
2183	0	32788	32806	
2184	0	32860	32838	
2185	0	32872	32770	
2186	0	32805	32770	
2187	0	32758	32784	
2188	0	32824	32812	
2189	0	32784	32842	
2190	0	32762	32832	
2191	0	32826	32863	
2192	0	32796	32812	
2193	0	32812	32804	
2194	0	32762	32718	
2195	0	32768	32760	
2196	0	32768	32771	
2197	0	32792	32788	
2198	0	32848	32828	
2199	0	32816	32775	
2200	0	32820	32826	
2201	0	32786	32828	
2202	0	32854	32774	
2203	0	32825	32871	
2204	0	32868	32756	
2205	0	32800	32810	
2206	0	32796	32817	
2207	0	32820	32766	
2208	0	32788	32775	
2209	0	32762	32828	
2210	0	32816	32746	
2211	0	32810	32775	
2212	0	32808	32706	
2213	0	32832	32852	
2214	0	32840	32775	
2215	0	32762	32796	
2216	0	32828	32784	
2217	0	32810	32804	
2218	0	32788	32812	
2219	0	32832	32708	
2220	0	32868	32670	
2221	0	32824	32652	
2222	0	32818	32742	
2223	0	32836	32692	
2224	0	32828	32721	
2225	0	32780	32690	
2226	0	32794	32682	
2227	0	32788	32740	
2228	0	32860	32750	
2229	0	32804	32686	
2230	0	32780	32790	
2231	0	32708	32722	
2232	0	32748	32765	
2233	0	32800	32814	
2234	0	32902	32676	
2235	0	32808	32752	
2236	0	32816	32820	
2237	0	32868	32775	
2238	0	32826	32698	
2239	0	32788	32822	
2240	0	32792	32740	
2241	0	32808	32703	
2242	0	32800	32775	
2243	0	32828	32812	
2244	0	32798	32793	
2245	0	32836	32818	
2246	0	32824	32671	
2247	0	32738	32704	
2248	0	32876	32718	
2249	0	32788	32760	
2250	0	32776	32746	
2251	0	32780	32800	
2252	0	32868	32721	
2253	0	32774	32772	
2254	0	32849	32719	
2255	0	32800	32750	
2256	0	32794	32794	
2257	0	32800	32856	
2258	0	32760	32775	
2259	0	32840	32824	
2260	0	32798	32812	
2261	0	32790	32904	
2262	0	32816	32872	
2263	0	32816	32721	
2264	0	32800	32848	
2265	0	32796	32810	
2266	0	32872	32752	
2267	0	32785	32816	
2268	0	32788	32851	
2269	0	32828	32866	
2270	0	32842	32806	
2271	0	32840	32719	
2272	0	32800	32754	
2273	0	32776	32724	
2274	0	32820	32695	
2275	0	32838	32646	
2276	0	32780	32643	
2277	0	32788	32745	
2278	0	32894	32866	
2279	0	32916	32803	
2280	0	32828	32804	
2281	0	32876	32820	
2282	0	32776	32884	
2283	0	32832	32775	
2284	0	32784	32775	
2285	0	32776	32764	
2286	0	32820	32775	
2287	0	32848	32765	
2288	0	32844	32838	
2289	0	32840	32815	
2290	0	32822	32814	
2291	0	32796	32772	
2292	0	32772	32750	
2293	0	32884	32704	
2294	0	32852	32758	
2295	0	32832	32756	
2296	0	32824	32745	
2297	0	32780	32748	
2298	0	32776	32815	
2299	0	32792	32816	
2300	0	32808	32794	
2301	0	32744	32832	
2302	0	32852	32742	
2303	0	32852	32742	
2304	0	32846	32756	
2305	0	32800	32766	
2306	0	32832	32724	
2307	0	32840	32769	
2308	0	32814	32743	
2309	0	32830	32757	
2310	0	32804	32796	
2311	0	32792	32796	
2312	0	32748	32732	
2313	0	32820	32768	
2314	0	32800	32814	
2315	0	32804	32794	
2316	0	32756	32725	
2317	0	32808	32754	
2318	0	32796	32732	
2319	0	32844	32736	
2320	0	32804	32775	
2321	0	32838	32830	
2322	0	32786	32828	
2323	0	32814	32798	
2324	0	32756	32746	
2325	0	32836	32839	
2326	0	32824	32863	
2327	0	32848	32826	
2328	0	32768	32823	
2329	0	32792	32764	
2330	0	32780	32838	
2331	0	32820	32790	
2332	0	32764	32756	
2333	0	32826	32750	
2334	0	32868	32794	
2335	0	32842	32719	
2336	0	32824	32806	
2337	0	32846	32748	
2338	0	32828	32838	
2339	0	32866	32805	
2340	0	32832	32800	
2341	0	32826	32760	
2342	0	32848	32820	
2343	0	32776	32824	
2344	0	32916	32822	
2345	0	32824	32764	
2346	0	32841	32742	
2347	0	32810	32682	
2348	0	32770	32742	
2349	0	32788	32676	
2350	0	32720	32638	
2351	0	32804	32719	
2352	0	32768	32790	
2353	0	32804	32679	
2354	0	32868	32742	
2355	0	32814	32795	
2356	0	32808	32742	
2357	0	32780	32763	
2358	0	32824	32629	
2359	0	32830	32743	
2360	0	32822	32658	
2361	0	32772	32630	
2362	0	32788	32610	
2363	0	32778	32696	
2364	0	32860	32623	
2365	0	32830	32671	
2366	0	32748	32710	
2367	0	32862	32747	
2368	0	32744	32702	
2369	0	32759	32767	
2370	0	32788	32741	
2371	0	32768	32743	
2372	0	32764	32774	
2373	0	32776	32697	
2374	0	32816	32792	
2375	0	32808	32802	
2376	0	32862	32775	
2377	0	32800	32823	
2378	0	32824	32775	
2379	0	32872	32720	
2380	0	32808	32860	
2381	0	32799	32718	
2382	0	32924	32726	
2383	0	32812	32676	
2384	0	32837	32678	
2385	0	32834	32704	
2386	0	32834	32652	
2387	0	32800	32705	
2388	0	32800	32679	
2389	0	32740	32724	
2390	0	32792	32836	
2391	0	32804	32708	
2392	0	32788	32852	
2393	0	32768	32808	
2394	0	32724	32810	
2395	0	32734	32882	
2396	0	32750	32820	
2397	0	32814	32775	
2398	0	32759	32718	
2399	0	32848	32736	
2400	0	32846	32742	
2401	0	32836	32865	
2402	0	32794	32848	
2403	0	32804	32750	
2404	0	32802	32775	
2405	0	32864	32752	
2406	0	32834	32760	
2407	0	32828	32788	
2408	0	32844	32775	
2409	0	32856	32738	
2410	0	32772	32780	
2411	0	32782	32698	
2412	0	32798	32728	
2413	0	32772	32719	
2414	0	32794	32743	
2415	0	32744	32668	
2416	0	32836	32708	
2417	0	32860	32748	
2418	0	32816	32732	
2419	0	32822	32689	
2420	0	32892	32720	
2421	0	32768	32775	
2422	0	32824	32835	
2423	0	32844	32804	
2424	0	32825	32836	
2425	0	32812	32874	
2426	0	32828	32807	
2427	0	32784	32775	
2428	0	32750	32772	
2429	0	32884	32772	
2430	0	32748	32716	
2431	0	32838	32839	
2432	0	32822	32762	
2433	0	32806	32696	
2434	0	32876	32717	
2435	0	32752	32732	
2436	0	32780	32878	
2437	0	32840	32772	
2438	0	32808	32832	
2439	0	32896	32775	
2440	0	32836	32698	
2441	0	32778	32711	
2442	0	32788	32679	
2443	0	32818	32700	
2444	0	32768	32714	
2445	0	32768	32756	
2446	0	32776	32916	
2447	0	32848	32875	
2448	0	32780	32849	
2449	0	32822	32810	
2450	0	32792	32730	
2451	0	32852	32736	
2452	0	32832	32755	
2453	0	32796	32756	
2454	0	32752	32722	
2455	0	32788	32712	
2456	0	32814	32784	
2457	0	32800	32746	
2458	0	32800	32706	
2459	0	32804	32760	
2460	0	32788	32775	
2461	0	32894	32834	
2462	0	32866	32753	
2463	0	32774	32758	
2464	0	32820	32695	
2465	0	32796	32775	
2466	0	32844	32708	
2467	0	32801	32807	
2468	0	32884	32750	
2469	0	32889	32838	
2470	0	32808	32824	
2471	0	32764	32712	
2472	0	32780	32688	
2473	0	32744	32647	
2474	0	32806	32774	
2475	0	32818	32750	
2476	0	32838	32724	
2477	0	32772	32775	
2478	0	32816	32748	
2479	0	32810	32862	
2480	0	32848	32750	
2481	0	32824	32863	
2482	0	32804	32792	
2483	0	32817	32731	
2484	0	32836	32727	
2485	0	32865	32775	
2486	0	32804	32870	
2487	0	32828	32832	
2488	0	32754	32746	
2489	0	32802	32743	
2490	0	32806	32700	
2491	0	32780	32810	
2492	0	32774	32788	
2493	0	32804	32792	
2494	0	32830	32838	
2495	0	32852	32772	
2496	0	32750	32760	
2497	0	32860	32834	
2498	0	32808	32752	
2499	0	32806	32766	
2500	0	32816	32799	
2501	0	32780	32826	
2502	0	32824	32702	
2503	0	32824	32716	
2504	0	32796	32694	
2505	0	32856	32702	
2506	0	32825	32678	
2507	0	32804	32706	
2508	0	32804	32772	
2509	0	32808	32806	
2510	0	32789	32825	
2511	0	32808	32852	
2512	0	32860	32732	
2513	0	32756	32806	
2514	0	32832	32735	
2515	0	32796	32824	
2516	0	32862	32785	
2517	0	32824	32796	
2518	0	32764	32830	
2519	0	32780	32742	
2520	0	32840	32750	
2521	0	32806	32710	
2522	0	32760	32804	
2523	0	32844	32775	
2524	0	32788	32732	
2525	0	32932	32810	
2526	0	32855	32854	
2527	0	32792	32884	
2528	0	32876	32818	
2529	0	32832	32775	
2530	0	32808	32938	
2531	0	32805	32768	
2532	0	32785	32775	
2533	0	32766	32735	
2534	0	32816	32775	
2535	0	32750	32678	
2536	0	32770	32628	
2537	0	32748	32666	
2538	0	32756	32625	
2539	0	32724	32502	
2540	0	32789	32544	
2541	0	32704	32609	
2542	0	32672	32620	
2543	0	32692	32486	
2544	0	32753	32622	
2545	0	32718	32636	
2546	0	32700	32700	
2547	0	32784	32774	
2548	0	32724	32775	
2549	0	32740	32711	
2550	0	32690	32614	
2551	0	32740	32706	
2552	0	32740	32832	
2553	0	32800	32759	
2554	0	32788	32844	
2555	0	32814	32784	
2556	0	32824	32608	
2557	0	32950	32647	
2558	0	33030	32680	
2559	0	33056	32823	
2560	0	33178	32971	
2561	0	33154	33044	
2562	0	33220	33262	
2563	0	33156	33316	
2564	0	33148	33350	
2565	0	33066	33308	
2566	0	32952	33199	
2567	0	32908	33168	
2568	0	32856	33126	
2569	0	32812	33064	
2570	0	32800	32898	
2571	0	32764	32712	
2572	0	32740	32625	
2573	0	32772	32572	
2574	0	32688	32601	
2575	0	32714	32462	
2576	0	32688	32414	
2577	0	32680	32504	
2578	0	32686	32512	
2579	0	32672	32469	
2580	0	32728	32658	
2581	0	32704	32638	
2582	0	32685	32658	
2583	0	32634	32660	
2584	0	32752	32775	
2585	0	32768	32760	
2586	0	32762	32743	
2587	0	32784	32718	
2588	0	32718	32772	
2589	0	32772	32726	
2590	0	32824	32930	
2591	0	32832	32696	
2592	0	32792	32655	
2593	0	32742	32741	
2594	0	32842	32734	
2595	0	32828	32692	
2596	0	32786	32754	
2597	0	32894	32720	
2598	0	32844	32750	
2599	0	32848	32732	
2600	0	32854	32705	
2601	0	32880	32682	
2602	0	32792	32703	
2603	0	32810	32614	
2604	0	32740	32676	
2605	0	32824	32732	
2606	0	32844	32806	
2607	0	32820	32814	
2608	0	32820	32768	
2609	0	32754	32746	
2610	0	32835	32856	
2611	0	32840	32756	
2612	0	32840	32814	
2613	0	32830	32862	
2614	0	32804	32775	
2615	0	32868	32748	
2616	0	32806	32852	
2617	0	32752	32743	
2618	0	32852	32735	
2619	0	32812	32743	
2620	0	32824	32784	
2621	0	32848	32799	
2622	0	32804	32739	
2623	0	32888	32807	
2624	0	32852	32803	
2625	0	32840	32788	
2626	0	32772	32766	
2627	0	32836	32719	
2628	0	32784	32836	
2629	0	32732	32676	
2630	0	32808	32714	
2631	0	32812	32820	
2632	0	32840	32758	
2633	0	32840	32775	
2634	0	32788	32798	
2635	0	32832	32818	
2636	0	32752	32786	
2637	0	32816	32814	
2638	0	32836	32906	
2639	0	32826	32807	
2640	0	32792	32702	
2641	0	32764	32736	
2642	0	32752	32708	
2643	0	32780	32660	
2644	0	32756	32792	
2645	0	32830	32888	
2646	0	32864	32832	
2647	0	32796	32742	
2648	0	32928	32762	
2649	0	32884	32774	
2650	0	32780	32800	
2651	0	32760	32766	
2652	0	32824	32676	
2653	0	32877	32816	
2654	0	32832	32775	
2655	0	32766	32788	
2656	0	32820	32878	
2657	0	32748	32711	
2658	0	32842	32718	
2659	0	32792	32724	
2660	0	32800	32695	
2661	0	32864	32678	
2662	0	32764	32718	
2663	0	32870	32614	
2664	0	32884	32695	
2665	0	32792	32682	
2666	0	32812	32716	
2667	0	32816	32695	
2668	0	32824	32620	
2669	0	32816	32700	
2670	0	32816	32734	
2671	0	32808	32614	
2672	0	32760	32734	
2673	0	32800	32689	
2674	0	32847	32685	
2675	0	32804	32708	
2676	0	32798	32743	
2677	0	32804	32726	
2678	0	32732	32736	
2679	0	32828	32723	
2680	0	32804	32775	
2681	0	32812	32889	
2682	0	32838	32825	
2683	0	32816	32839	
2684	0	32752	32847	
2685	0	32770	32775	
2686	0	32780	32818	
2687	0	32821	32743	
2688	0	32892	32854	
2689	0	32808	32828	
2690	0	32788	32750	
2691	0	32844	32770	
2692	0	32748	32711	
2693	0	32856	32760	
2694	0	32788	32742	
2695	0	32760	32727	
2696	0	32860	32738	
2697	0	32840	32724	
2698	0	32804	32768	
2699	0	32790	32792	
2700	0	32784	32754	
2701	0	32764	32826	
2702	0	32738	32804	
2703	0	32768	32724	
2704	0	32804	32799	
2705	0	32846	32794	
2706	0	32880	32835	
2707	0	32816	32766	
2708	0	32804	32847	
2709	0	32844	32798	
2710	0	32772	32769	
2711	0	32840	32714	
2712	0	32868	32762	
2713	0	32796	32820	
2714	0	32836	32752	
2715	0	32794	32744	
2716	0	32802	32714	
2717	0	32832	32666	
2718	0	32860	32692	
2719	0	32830	32660	
2720	0	32816	32736	
2721	0	32880	32746	
2722	0	32752	32766	
2723	0	32836	32775	
2724	0	32764	32775	
2725	0	32826	32826	
2726	0	32820	32807	
2727	0	32778	32775	
2728	0	32726	32839	
2729	0	32810	32826	
2730	0	32856	32838	
2731	0	32857	32866	
2732	0	32798	32732	
2733	0	32826	32616	
2734	0	32846	32692	
2735	0	32864	32638	
2736	0	32828	32712	
2737	0	32784	32765	
2738	0	32828	32750	
2739	0	32756	32720	
2740	0	32848	32680	
2741	0	32812	32708	
2742	0	32844	32744	
2743	0	32748	32796	
2744	0	32762	32727	
2745	0	32858	32742	
2746	0	32824	32746	
2747	0	32800	32692	
2748	0	32862	32718	
2749	0	32854	32686	
2750	0	32832	32775	
2751	0	32846	32727	
2752	0	32802	32764	
2753	0	32764	32751	
2754	0	32770	32698	
2755	0	32906	32658	
2756	0	32812	32724	
2757	0	32792	32682	
2758	0	32804	32759	
2759	0	32806	32652	
2760	0	32800	32788	
2761	0	32784	32692	
2762	0	32824	32664	
2763	0	32820	32695	
2764	0	32808	32624	
2765	0	32836	32655	
2766	0	32816	32743	
2767	0	32876	32703	
2768	0	32824	32672	
2769	0	32771	32714	
2770	0	32768	32742	
2771	0	32804	32711	
2772	0	32788	32806	
2773	0	32796	32772	
2774	0	32817	32848	
2775	0	32920	32795	
2776	0	32874	32833	
2777	0	32828	32836	
2778	0	32790	32772	
2779	0	32808	32775	
2780	0	32748	32742	
2781	0	32804	32824	
2782	0	32842	32775	
2783	0	32844	32894	
2784	0	32848	32804	
2785	0	32780	32812	
2786	0	32808	32775	
2787	0	32854	32826	
2788	0	32812	32764	
2789	0	32802	32807	
2790	0	32784	32805	
2791	0	32770	32812	
2792	0	32860	32805	
2793	0	32842	32902	
2794	0	32768	32903	
2795	0	32828	32816	
2796	0	32830	32872	
2797	0	32892	32775	
2798	0	32844	32844	
2799	0	32816	32842	
2800	0	32852	32844	
2801	0	32820	32772	
2802	0	32868	32782	
2803	0	32764	32726	
2804	0	32790	32686	
2805	0	32804	32836	
2806	0	32840	32882	
2807	0	32828	32789	
2808	0	32808	32794	
2809	0	32858	32744	
2810	0	32844	32788	
2811	0	32820	32734	
2812	0	32786	32720	
2813	0	32824	32734	
2814	0	32800	32718	
2815	0	32804	32694	
2816	0	32802	32620	
2817	0	32800	32716	
2818	0	32784	32820	
2819	0	32732	32775	
2820	0	32862	32775	
2821	0	32808	32791	
2822	0	32928	32759	
2823	0	32784	32770	
2824	0	32772	32767	
2825	0	32814	32899	
2826	0	32792	32755	
2827	0	32818	32764	
2828	0	32862	32652	
2829	0	32772	32775	
2830	0	32884	32744	
2831	0	32804	32795	
2832	0	32760	32814	
2833	0	32836	32794	
2834	0	32818	32740	
2835	0	32812	32758	
2836	0	32798	32839	
2837	0	32784	32736	
2838	0	32800	32676	
2839	0	32816	32662	
2840	0	32784	32668	
2841	0	32833	32896	
2842	0	32808	32762	
2843	0	32780	32754	
2844	0	32832	32740	
2845	0	32825	32794	
2846	0	32856	32827	
2847	0	32868	32752	
2848	0	32816	32750	
2849	0	32810	32700	
2850	0	32776	32748	
2851	0	32760	32708	
2852	0	32818	32775	
2853	0	32800	32712	
2854	0	32844	32684	
2855	0	32784	32712	
2856	0	32720	32833	
2857	0	32740	32823	
2858	0	32796	32728	
2859	0	32808	32748	
2860	0	32840	32784	
2861	0	32772	32804	
2862	0	32860	32770	
2863	0	32809	32775	
2864	0	32876	32775	
2865	0	32804	32656	
2866	0	32776	32702	
2867	0	32816	32660	
2868	0	32788	32695	
2869	0	32810	32852	
2870	0	32866	32838	
2871	0	32836	32838	
2872	0	32814	32774	
2873	0	32880	32812	
2874	0	32802	32871	
2875	0	32888	32748	
2876	0	32837	32796	
2877	0	32740	32824	
2878	0	32792	32762	
2879	0	32784	32808	
2880	0	32824	32740	
2881	0	32736	32835	
2882	0	32788	32818	
2883	0	32860	32714	
2884	0	32774	32751	
2885	0	32778	32852	
2886	0	32825	32775	
2887	0	32736	32762	
2888	0	32760	32849	
2889	0	32804	32838	
2890	0	32824	32740	
2891	0	32842	32692	
2892	0	32794	32706	
2893	0	32772	32662	
2894	0	32806	32773	
2895	0	32906	32758	
2896	0	32820	32742	
2897	0	32816	32764	
2898	0	32790	32692	
2899	0	32812	32730	
2900	0	32788	32614	
2901	0	32812	32760	
2902	0	32838	32718	
2903	0	32788	32748	
2904	0	32856	32714	
2905	0	32814	32774	
2906	0	32818	32774	
2907	0	32804	32684	
2908	0	32856	32702	
2909	0	32884	32676	
2910	0	32826	32768	
2911	0	32784	32706	
2912	0	32896	32706	
2913	0	32770	32705	
2914	0	32814	32737	
2915	0	32768	32742	
2916	0	32775	32848	
2917	0	32720	32767	
2918	0	32756	32746	
2919	0	32812	32846	
2920	0	32852	32760	
2921	0	32810	32704	
2922	0	32780	32775	
2923	0	32838	32756	
2924	0	32778	32770	
2925	0	32822	32818	
2926	0	32740	32826	
2927	0	32784	32807	
2928	0	32840	32768	
2929	0	32832	32716	
2930	0	32866	32746	
2931	0	32848	32744	
2932	0	32852	32802	
2933	0	32858	32770	
2934	0	32778	32806	
2935	0	32808	32828	
2936	0	32852	32831	
2937	0	32868	32676	
2938	0	32808	32870	
2939	0	32814	32718	
2940	0	32872	32839	
2941	0	32800	32760	
2942	0	32734	32750	
2943	0	32756	32820	
2944	0	32864	32896	
2945	0	32764	32793	
2946	0	32848	32786	
2947	0	32841	32646	
2948	0	32802	32692	
2949	0	32836	32718	
2950	0	32758	32661	
2951	0	32798	32610	
2952	0	32832	32675	
2953	0	32848	32732	
2954	0	32812	32698	
2955	0	32824	32682	
2956	0	32788	32712	
2957	0	32780	32718	
2958	0	32840	32689	
2959	0	32770	32764	
2960	0	32792	32698	
2961	0	32808	32720	
2962	0	32836	32724	
2963	0	32888	32708	
2964	0	32768	32770	
2965	0	32762	32718	
2966	0	32756	32754	
2967	0	32756	32711	
2968	0	32868	32744	
2969	0	32760	32676	
2970	0	32828	32685	
2971	0	32796	32688	
2972	0	32884	32678	
2973	0	32796	32748	
2974	0	32810	32729	
2975	0	32826	32748	
2976	0	32806	32758	
2977	0	32804	32630	
2978	0	32784	32718	
2979	0	32792	32698	
2980	0	32800	32711	
2981	0	32804	32639	
2982	0	32748	32690	
2983	0	32810	32736	
2984	0	32842	32718	
2985	0	32802	32724	
2986	0	32790	32704	
2987	0	32836	32836	
2988	0	32836	32800	
2989	0	32854	32722	
2990	0	32812	32700	
2991	0	32826	32740	
2992	0	32780	32744	
2993	0	32892	32870	
2994	0	32812	32858	
2995	0	32852	32774	
2996	0	32788	32798	
2997	0	32854	32680	
2998	0	32821	32694	
2999	0	32848	32664	
3000	0	32816	32662	
3001	0	32814	32732	
3002	0	32784	32718	
3003	0	32792	32820	
3004	0	32782	32735	
3005	0	32810	32780	
3006	0	32796	32842	
3007	0	32844	32849	
3008	0	32728	32773	
3009	0	32756	32828	
3010	0	32744	32754	
3011	0	32784	32741	
3012	0	32852	32748	
3013	0	32796	32692	
3014	0	32814	32758	
3015	0	32848	32822	
3016	0	32792	32811	
3017	0	32760	32816	
3018	0	32836	32760	
3019	0	32752	32799	
3020	0	32810	32810	
3021	0	32844	32760	
3022	0	32780	32796	
3023	0	32840	32816	
3024	0	32836	32806	
3025	0	32832	32853	
3026	0	32832	32830	
3027	0	32816	32855	
3028	0	32864	32743	
3029	0	32788	32847	
3030	0	32852	32762	
3031	0	32846	32844	
3032	0	32754	32726	
3033	0	32824	32678	
3034	0	32788	32700	
3035	0	32746	32646	
3036	0	32800	32705	
3037	0	32814	32841	
3038	0	32804	32792	
3039	0	32804	32858	
3040	0	32768	32814	
3041	0	32816	32892	
3042	0	32826	32804	
3043	0	32796	32775	
3044	0	32798	32719	
3045	0	32804	32806	
3046	0	32840	32798	
3047	0	32772	32790	
3048	0	32828	32774	
3049	0	32846	32824	
3050	0	32802	32820	
3051	0	32826	32812	
3052	0	32868	32794	
3053	0	32844	32807	
3054	0	32814	32804	
3055	0	32830	32806	
3056	0	32820	32822	
3057	0	32784	32737	
3058	0	32888	32836	
3059	0	32872	32798	
3060	0	32800	32754	
3061	0	32832	32780	
3062	0	32796	32775	
3063	0	32792	32816	
3064	0	32792	32884	
3065	0	32794	32768	
3066	0	32836	32796	
3067	0	32880	32743	
3068	0	32808	32655	
3069	0	32722	32656	
3070	0	32729	32708	
3071	0	32818	32647	
3072	0	32844	32750	
3073	0	32848	32812	
3074	0	32848	32846	
3075	0	32788	32766	
3076	0	32880	32775	
3077	0	32900	32857	
3078	0	32852	32839	
3079	0	32792	32808	
3080	0	32796	32799	
3081	0	32787	32760	
3082	0	32810	32826	
3083	0	32814	32824	
3084	0	32728	32752	
3085	0	32838	32836	
3086	0	32864	32855	
3087	0	32836	32885	
3088	0	32816	32748	
3089	0	32712	32738	
3090	0	32780	32670	
3091	0	32784	32704	
3092	0	32844	32740	
3093	0	32860	32682	
3094	0	32812	32618	
3095	0	32792	32764	
3096	0	32840	32654	
3097	0	32770	32682	
3098	0	32808	32724	
3099	0	32784	32678	
3100	0	32828	32696	
3101	0	32790	32672	
3102	0	32872	32666	
3103	0	32782	32689	
3104	0	32828	32664	
3105	0	32810	32725	
3106	0	32780	32726	
3107	0	32846	32653	
3108	0	32846	32656	
3109	0	32816	32784	
3110	0	32864	32746	
3111	0	32762	32790	
3112	0	32784	32692	
3113	0	32844	32746	
3114	0	32806	32680	
3115	0	32824	32726	
3116	0	32844	32870	
3117	0	32769	32844	
3118	0	32812	32804	
3119	0	32828	32788	
3120	0	32880	32762	
3121	0	32860	32818	
3122	0	32868	32866	
3123	0	32808	32802	
3124	0	32836	32676	
3125	0	32792	32724	
3126	0	32852	32700	
3127	0	32880	32767	
3128	0	32838	32826	
3129	0	32768	32772	
3130	0	32812	32782	
3131	0	32848	32856	
3132	0	32848	32800	
3133	0	32804	32775	
3134	0	32801	32800	
3135	0	32824	32816	
3136	0	32808	32708	
3137	0	32794	32671	
3138	0	32840	32661	
3139	0	32818	32764	
3140	0	32798	32792	
3141	0	32754	32760	
3142	0	32816	32710	
3143	0	32780	32690	
3144	0	32820	32814	
3145	0	32830	32750	
3146	0	32800	32753	
3147	0	32822	32826	
3148	0	32842	32830	
3149	0	32782	32782	
3150	0	32784	32742	
3151	0	32876	32759	
3152	0	32744	32791	
3153	0	32812	32799	
3154	0	32824	32892	
3155	0	32856	32840	
3156	0	32856	32796	
3157	0	32748	32798	
3158	0	32810	32734	
3159	0	32802	32754	
3160	0	32830	32716	
3161	0	32812	32754	
3162	0	32752	32799	
3163	0	32794	32852	
3164	0	32748	32762	
3165	0	32786	32820	
3166	0	32802	32736	
3167	0	32828	32831	
3168	0	32724	32790	
3169	0	32780	32749	
3170	0	32756	32708	
3171	0	32808	32759	
3172	0	32816	32786	
3173	0	32741	32775	
3174	0	32856	32839	
3175	0	32868	32762	
3176	0	32840	32744	
3177	0	32820	32775	
3178	0	32792	32814	
3179	0	32866	32674	
3180	0	32772	32687	
3181	0	32828	32764	
3182	0	32844	32720	
3183	0	32806	32802	
3184	0	32858	32746	
3185	0	32820	32733	
3186	0	32776	32768	
3187	0	32740	32708	
3188	0	32792	32736	
3189	0	32828	32677	
3190	0	32870	32805	
3191	0	32860	32836	
3192	0	32800	32760	
3193	0	32766	32751	
3194	0	32804	32743	
3195	0	32808	32743	
3196	0	32792	32738	
3197	0	32828	32756	
3198	0	32724	32788	
3199	0	32776	32857	
3200	0	32820	32673	
3201	0	32802	32723	
3202	0	32884	32706	
3203	0	32824	32718	
3204	0	32872	32839	
3205	0	32810	32839	
3206	0	32868	32774	
3207	0	32810	32756	
3208	0	32782	32718	
3209	0	32760	32824	
3210	0	32736	32879	
3211	0	32844	32742	
3212	0	32814	32815	
3213	0	32794	32628	
3214	0	32784	32748	
3215	0	32756	32752	
3216	0	32820	32798	
3217	0	32814	32754	
3218	0	32896	32839	
3219	0	32826	32830	
3220	0	32768	32824	
3221	0	32792	32790	
3222	0	32776	32807	
3223	0	32900	32732	
3224	0	32888	32775	
3225	0	32812	32851	
3226	0	32868	32792	
3227	0	32796	32799	
3228	0	32820	32770	
3229	0	32808	32838	
3230	0	32824	32846	
3231	0	32849	32802	
3232	0	32824	32734	
3233	0	32774	32775	
3234	0	32844	32743	
3235	0	32700	32711	
3236	0	32756	32642	
3237	0	32756	32660	
3238	0	32752	32614	
3239	0	32698	32658	
3240	0	32682	32602	
3241	0	32796	32584	
3242	0	32668	32551	
3243	0	32720	32544	
3244	0	32732	32541	
3245	0	32736	32587	
3246	0	32724	32667	
3247	0	32681	32664	
3248	0	32676	32678	
3249	0	32688	32654	
3250	0	32709	32700	
3251	0	32708	32748	
3252	0	32818	32754	
3253	0	32896	32775	
3254	0	32892	32820	
3255	0	32798	32760	
3256	0	32849	32760	
3257	0	32934	32758	
3258	0	32992	32824	
3259	0	33118	32868	
3260	0	33172	32938	
3261	0	33157	32959	
3262	0	33194	33168	
3263	0	33168	33254	
3264	0	33136	33359	
3265	0	33052	33382	
3266	0	32998	33252	
3267	0	32916	33172	
3268	0	32808	33095	
3269	0	32808	33018	
3270	0	32736	32858	
3271	0	32724	32676	
3272	0	32672	32622	
3273	0	32720	32558	
3274	0	32708	32550	
3275	0	32716	32580	
3276	0	32748	32558	
3277	0	32710	32578	
3278	0	32744	32540	
3279	0	32736	32572	
3280	0	32732	32616	
3281	0	32702	32647	
3282	0	32728	32660	
3283	0	32772	32740	
3284	0	32700	32675	
3285	0	32740	32732	
3286	0	32714	32698	
3287	0	32716	32671	
3288	0	32756	32664	
3289	0	32736	32734	
3290	0	32788	32826	
3291	0	32753	32775	
3292	0	32784	32838	
3293	0	32840	32746	
3294	0	32892	32775	
3295	0	32765	32780	
3296	0	32862	32815	
3297	0	32820	32784	
3298	0	32822	32812	
3299	0	32844	32812	
3300	0	32814	32847	
3301	0	32780	32766	
3302	0	32800	32724	
3303	0	32824	32751	
3304	0	32840	32722	
3305	0	32818	32814	
3306	0	32814	32775	
3307	0	32788	32706	
3308	0	32904	32775	
3309	0	32868	32811	
3310	0	32772	32879	
3311	0	32876	32694	
3312	0	32828	32831	
3313	0	32860	32786	
3314	0	32756	32714	
3315	0	32786	32692	
3316	0	32796	32806	
3317	0	32776	32671	
3318	0	32784	32767	
3319	0	32820	32682	
3320	0	32800	32716	
3321	0	32776	32664	
3322	0	32816	32758	
3323	0	32866	32790	
3324	0	32868	32830	
3325	0	32804	32762	
3326	0	32830	32824	
3327	0	32784	32807	
3328	0	32826	32830	
3329	0	32864	32766	
3330	0	32854	32708	
3331	0	32840	32736	
3332	0	32844	32623	
3333	0	32838	32700	
3334	0	32840	32713	
3335	0	32832	32756	
3336	0	32852	32710	
3337	0	32784	32750	
3338	0	32800	32697	
3339	0	32780	32647	
3340	0	32848	32636	
3341	0	32836	32700	
3342	0	32812	32655	
3343	0	32823	32690	
3344	0	32792	32692	
3345	0	32824	32668	
3346	0	32756	32825	
3347	0	32844	32856	
3348	0	32748	32834	
3349	0	32856	32808	
3350	0	32752	32775	
3351	0	32738	32818	
3352	0	32722	32775	
3353	0	32778	32775	
3354	0	32748	32800	
3355	0	32856	32816	
3356	0	32808	32789	
3357	0	32840	32866	
3358	0	32854	32810	
3359	0	32860	32818	
3360	0	32804	32784	
3361	0	32800	32714	
3362	0	32816	32740	
3363	0	32810	32852	
3364	0	32764	32791	
3365	0	32800	32806	
3366	0	32808	32796	
3367	0	32812	32760	
3368	0	32818	32828	
3369	0	32820	32808	
3370	0	32792	32767	
3371	0	32790	32764	
3372	0	32816	32774	
3373	0	32800	32750	
3374	0	32800	32767	
3375	0	32868	32700	
3376	0	32844	32711	
3377	0	32756	32768	
3378	0	32788	32774	
3379	0	32792	32646	
3380	0	32822	32700	
3381	0	32820	32712	
3382	0	32818	32824	
3383	0	32776	32850	
3384	0	32782	32794	
3385	0	32816	32796	
3386	0	32860	32807	
3387	0	32796	32818	
3388	0	32792	32774	
3389	0	32788	32720	
3390	0	32796	32790	
3391	0	32775	32870	
3392	0	32868	32785	
3393	0	32748	32775	
3394	0	32870	32760	
3395	0	32826	32708	
3396	0	32868	32724	
3397	0	32788	32748	
3398	0	32776	32810	
3399	0	32832	32883	
3400	0	32766	32891	
3401	0	32848	32834	
3402	0	32806	32840	
3403	0	32814	32817	
3404	0	32846	32830	
3405	0	32752	32788	
3406	0	32828	32740	
3407	0	32808	32727	
3408	0	32900	32727	
3409	0	32849	32682	
3410	0	32832	32692	
3411	0	32824	32660	
3412	0	32756	32694	
3413	0	32768	32688	
3414	0	32788	32718	
3415	0	32852	32640	
3416	0	32808	32678	
3417	0	32830	32622	
3418	0	32846	32716	
3419	0	32842	32668	
3420	0	32788	32710	
3421	0	32828	32698	
3422	0	32816	32679	
3423	0	32814	32772	
3424	0	32856	32733	
3425	0	32776	32751	
3426	0	32792	32792	
3427	0	32820	32846	
3428	0	32792	32786	
3429	0	32812	32782	
3430	0	32770	32798	
3431	0	32800	32818	
3432	0	32828	32820	
3433	0	32830	32766	
3434	0	32747	32740	
3435	0	32744	32815	
3436	0	32774	32762	
3437	0	32844	32774	
3438	0	32784	32720	
3439	0	32768	32826	
3440	0	32832	32856	
3441	0	32840	32748	
3442	0	32800	32727	
3443	0	32792	32679	
3444	0	32776	32658	
3445	0	32844	32692	
3446	0	32866	32674	
3447	0	32863	32633	
3448	0	32872	32840	
3449	0	32828	32839	
3450	0	32846	32834	
3451	0	32774	32768	
3452	0	32812	32826	
3453	0	32822	32740	
3454	0	32800	32756	
3455	0	32760	32832	
3456	0	32804	32687	
3457	0	32828	32702	
3458	0	32890	32720	
3459	0	32866	32726	
3460	0	32832	32708	
3461	0	32810	32724	
3462	0	32704	32647	
3463	0	32792	32710	
3464	0	32824	32832	
3465	0	32838	32839	
3466	0	32766	32775	
3467	0	32792	32802	
3468	0	32744	32804	
3469	0	32800	32903	
3470	0	32908	32718	
3471	0	32854	32815	
3472	0	32848	32791	
3473	0	32856	32775	
3474	0	32820	32791	
3475	0	32844	32714	
3476	0	32838	32700	
3477	0	32808	32702	
3478	0	32828	32684	
3479	0	32776	32806	
3480	0	32824	32828	
3481	0	32866	32764	
3482	0	32812	32883	
3483	0	32832	32823	
3484	0	32858	32804	
3485	0	32804	32707	
3486	0	32781	32743	
3487	0	32834	32798	
3488	0	32820	32836	
3489	0	32834	32806	
3490	0	32788	32790	
3491	0	32864	32820	
3492	0	32840	32854	
3493	0	32836	32788	
3494	0	32800	32852	
3495	0	32772	32868	
3496	0	32796	32667	
3497	0	32796	32737	
3498	0	32816	32774	
3499	0	32900	32843	
3500	0	32854	32826	
3501	0	32870	32668	
3502	0	32832	32791	
3503	0	32810	32834	
3504	0	32812	32700	
3505	0	32818	32686	
3506	0	32732	32708	
3507	0	32828	32759	
3508	0	32800	32758	
3509	0	32762	32711	
3510	0	32808	32818	
3511	0	32780	32743	
3512	0	32812	32828	
3513	0	32868	32704	
3514	0	32805	32696	
3515	0	32788	32640	
3516	0	32816	32720	
3517	0	32816	32692	
3518	0	32864	32804	
3519	0	32800	32838	
3520	0	32888	32790	
3521	0	32848	32724	
3522	0	32804	32718	
3523	0	32780	32728	
3524	0	32848	32887	
3525	0	32829	32775	
3526	0	32800	32871	
3527	0	32852	32716	
3528	0	32834	32720	
3529	0	32818	32743	
3530	0	32844	32678	
3531	0	32846	32711	
3532	0	32785	32844	
3533	0	32885	32823	
3534	0	32864	32689	
3535	0	32770	32769	
3536	0	32792	32799	
3537	0	32800	32868	
3538	0	32784	32692	
3539	0	32762	32662	
3540	0	32788	32706	
3541	0	32796	32739	
3542	0	32760	32732	
3543	0	32824	32767	
3544	0	32846	32818	
3545	0	32802	32853	
3546	0	32808	32703	
3547	0	32788	32885	
3548	0	32836	32804	
3549	0	32764	32775	
3550	0	32900	32786	
3551	0	32866	32764	
3552	0	32808	32695	
3553	0	32757	32738	
3554	0	32832	32752	
3555	0	32816	32766	
3556	0	32804	32807	
3557	0	32824	32887	
3558	0	32848	32718	
3559	0	32804	32725	
3560	0	32828	32750	
3561	0	32840	32712	
3562	0	32760	32628	
3563	0	32824	32684	
3564	0	32788	32724	
3565	0	32774	32702	
3566	0	32816	32686	
3567	0	32824	32710	
3568	0	32840	32851	
3569	0	32828	32798	
3570	0	32816	32722	
3571	0	32760	32700	
3572	0	32760	32730	
3573	0	32788	32807	
3574	0	32852	32806	
3575	0	32768	32782	
3576	0	32788	32800	
3577	0	32814	32836	
3578	0	32816	32802	
3579	0	32880	32809	
3580	0	32780	32724	
3581	0	32812	32703	
3582	0	32844	32678	
3583	0	32752	32670	
3584	0	32810	32655	
3585	0	32772	32770	
3586	0	32802	32788	
3587	0	32844	32788	
3588	0	32804	32762	
3589	0	32822	32830	
3590	0	32756	32775	
3591	0	32820	32747	
3592	0	32854	32791	
3593	0	32846	32825	
3594	0	32832	32638	
3595	0	32798	32738	
3596	0	32846	32797	
3597	0	32790	32710	
3598	0	32776	32748	
3599	0	32828	32744	
3600	0	32868	32728	
3601	0	32824	32682	
3602	0	32876	32890	
3603	0	32820	32794	
3604	0	32802	32766	
3605	0	32760	32775	
3606	0	32786	32846	
3607	0	32842	32730	
3608	0	32744	32679	
3609	0	32842	32716	
3610	0	32772	32798	
3611	0	32868	32876	
3612	0	32808	32792	
3613	0	32828	32879	
3614	0	32802	32811	
3615	0	32816	32743	
3616	0	32772	32768	
3617	0	32820	32828	
3618	0	32796	32820	
3619	0	32806	32734	
3620	0	32856	32654	
3621	0	32791	32680	
3622	0	32816	32671	
3623	0	32846	32724	
3624	0	32744	32718	
3625	0	32822	32722	
3626	0	32740	32628	
3627	0	32832	32668	
3628	0	32844	32792	
3629	0	32824	32775	
3630	0	32840	32794	
3631	0	32828	32774	
3632	0	32806	32788	
3633	0	32830	32846	
3634	0	32784	32828	
3635	0	32728	32836	
3636	0	32816	32732	
3637	0	32858	32828	
3638	0	32800	32772	
3639	0	32806	32816	
3640	0	32832	32766	
3641	0	32824	32823	
3642	0	32812	32775	
3643	0	32804	32794	
3644	0	32782	32673	
3645	0	32826	32610	
3646	0	32784	32708	
3647	0	32764	32657	
3648	0	32862	32816	
3649	0	32812	32710	
3650	0	32812	32704	
3651	0	32844	32758	
3652	0	32798	32800	
3653	0	32782	32788	
3654	0	32776	32775	
3655	0	32820	32775	
3656	0	32842	32838	
3657	0	32870	32791	
3658	0	32775	32782	
3659	0	32814	32772	
3660	0	32836	32836	
3661	0	32882	32824	
3662	0	32796	32736	
3663	0	32776	32876	
3664	0	32797	32772	
3665	0	32774	32614	
3666	0	32789	32682	
3667	0	32788	32802	
3668	0	32860	32846	
3669	0	32890	32784	
3670	0	32866	32701	
3671	0	32836	32754	
3672	0	32792	32822	
3673	0	32826	32842	
3674	0	32744	32706	
3675	0	32808	32700	
3676	0	32832	32668	
3677	0	32816	32802	
3678	0	32788	32804	
3679	0	32840	32806	
3680	0	32868	32788	
3681	0	32768	32831	
3682	0	32820	32743	
3683	0	32858	32728	
3684	0	32802	32755	
3685	0	32872	32803	
3686	0	32720	32768	
3687	0	32804	32800	
3688	0	32780	32813	
3689	0	32780	32871	
3690	0	32801	32791	
3691	0	32856	32724	
3692	0	32890	32823	
3693	0	32798	32748	
3694	0	32780	32810	
3695	0	32832	32871	
3696	0	32800	32766	
3697	0	32864	32756	
3698	0	32808	32743	
3699	0	32784	32836	
3700	0	32808	32756	
3701	0	32808	32711	
3702	0	32826	32674	
3703	0	32792	32710	
3704	0	32820	32722	
3705	0	32864	32718	
3706	0	32832	32740	
3707	0	32804	32728	
3708	0	32806	32750	
3709	0	32858	32818	
3710	0	32796	32815	
3711	0	32874	32812	
3712	0	32868	32775	
3713	0	32810	32758	
3714	0	32812	32826	
3715	0	32816	32767	
3716	0	32788	32820	
3717	0	32844	32742	
3718	0	32860	32764	
3719	0	32792	32775	
3720	0	32780	32801	
3721	0	32860	32764	
3722	0	32792	32902	
3723	0	32876	32826	
3724	0	32836	32828	
3725	0	32744	32871	
3726	0	32824	32812	
3727	0	32748	32730	
3728	0	32774	32775	
3729	0	32812	32846	
3730	0	32800	32826	
3731	0	32836	32767	
3732	0	32794	32774	
3733	0	32794	32832	
3734	0	32816	32746	
3735	0	32802	32790	
3736	0	32856	32763	
3737	0	32836	32750	
3738	0	32860	32775	
3739	0	32768	32804	
3740	0	32806	32743	
3741	0	32832	32796	
3742	0	32794	32753	
3743	0	32808	32754	
3744	0	32772	32791	
3745	0	32788	32758	
3746	0	32816	32822	
3747	0	32846	32771	
3748	0	32820	32852	
3749	0	32824	32700	
3750	0	32780	32716	
3751	0	32742	32694	
3752	0	32794	32721	
3753	0	32822	32820	
3754	0	32816	32828	
3755	0	32764	32815	
3756	0	32804	32814	
3757	0	32869	32827	
3758	0	32736	32775	
3759	0	32888	32838	
3760	0	32836	32826	
3761	0	32856	32738	
3762	0	32894	32720	
3763	0	32786	32724	
3764	0	32858	32687	
3765	0	32792	32702	
3766	0	32796	32712	
3767	0	32880	32822	
3768	0	32798	32810	
3769	0	32830	32788	
3770	0	32808	32843	
3771	0	32800	32821	
3772	0	32824	32694	
3773	0	32836	32794	
3774	0	32775	32860	
3775	0	32772	32871	
3776	0	32772	32780	
3777	0	32844	32842	
3778	0	32756	32828	
3779	0	32816	32760	
3780	0	32828	32796	
3781	0	32800	32826	
3782	0	32754	32769	
3783	0	32836	32718	
3784	0	32860	32759	
3785	0	32820	32800	
3786	0	32816	32759	
3787	0	32788	32817	
3788	0	32824	32708	
3789	0	32800	32711	
3790	0	32824	32660	
3791	0	32760	32725	
3792	0	32724	32772	
3793	0	32809	32729	
3794	0	32792	32692	
3795	0	32816	32629	
3796	0	32784	32748	
3797	0	32736	32750	
3798	0	32844	32700	
3799	0	32846	32710	
3800	0	32828	32736	
3801	0	32764	32680	
3802	0	32830	32708	
3803	0	32820	32775	
3804	0	32868	32762	
3805	0	32848	32836	
3806	0	32828	32818	
3807	0	32860	32760	
3808	0	32828	32800	
3809	0	32856	32816	
3810	0	32756	32790	
3811	0	32841	32758	
3812	0	32828	32786	
3813	0	32850	32870	
3814	0	32808	32821	
3815	0	32846	32808	
3816	0	32756	32900	
3817	0	32864	32860	
3818	0	32800	32793	
3819	0	32777	32846	
3820	0	32732	32846	
3821	0	32776	32775	
3822	0	32808	32810	
3823	0	32804	32775	
3824	0	32832	32788	
3825	0	32757	32754	
3826	0	32824	32820	
3827	0	32814	32750	
3828	0	32784	32847	
3829	0	32860	32815	
3830	0	32882	32806	
3831	0	32788	32786	
3832	0	32840	32791	
3833	0	32846	32775	
3834	0	32852	32752	
3835	0	32844	32770	
3836	0	32812	32736	
3837	0	32772	32710	
3838	0	32896	32663	
3839	0	32840	32738	
3840	0	32758	32775	
3841	0	32796	32822	
3842	0	32798	32810	
3843	0	32780	32748	
3844	0	32816	32796	
3845	0	32776	32817	
3846	0	32856	32775	
3847	0	32780	32844	
3848	0	32816	32737	
3849	0	32836	32792	
3850	0	32784	32824	
3851	0	32796	32708	
3852	0	32820	32799	
3853	0	32852	32742	
3854	0	32784	32775	
3855	0	32760	32796	
3856	0	32788	32789	
3857	0	32854	32804	
3858	0	32768	32775	
3859	0	32800	32740	
3860	0	32838	32788	
3861	0	32796	32751	
3862	0	32804	32799	
3863	0	32800	32790	
3864	0	32754	32783	
3865	0	32792	32740	
3866	0	32794	32758	
3867	0	32748	32743	
3868	0	32880	32790	
3869	0	32804	32818	
3870	0	32810	32798	
3871	0	32857	32850	
3872	0	32864	32871	
3873	0	32912	32856	
3874	0	32830	32788	
3875	0	32842	32736	
3876	0	32761	32770	
3877	0	32776	32804	
3878	0	32800	32762	
3879	0	32898	32726	
3880	0	32792	32686	
3881	0	32808	32668	
3882	0	32812	32698	
3883	0	32828	32698	
3884	0	32890	32730	
3885	0	32788	32710	
3886	0	32804	32775	
3887	0	32784	32708	
3888	0	32752	32726	
3889	0	32826	32742	
3890	0	32808	32701	
3891	0	32864	32662	
3892	0	32804	32808	
3893	0	32808	32756	
3894	0	32816	32775	
3895	0	32848	32722	
3896	0	32808	32725	
3897	0	32824	32775	
3898	0	32778	32730	
3899	0	32840	32831	
3900	0	32866	32746	
3901	0	32780	32863	
3902	0	32780	32752	
3903	0	32776	32750	
3904	0	32816	32836	
3905	0	32848	32822	
3906	0	32856	32700	
3907	0	32796	32847	
3908	0	32818	32840	
3909	0	32793	32775	
3910	0	32775	32830	
3911	0	32848	32862	
3912	0	32846	32826	
3913	0	32844	32838	
3914	0	32802	32850	
3915	0	32824	32724	
3916	0	32852	32796	
3917	0	32784	32978	
3918	0	32738	32854	
3919	0	32864	32729	
3920	0	32848	32774	
3921	0	32800	32706	
3922	0	32784	32738	
3923	0	32788	32679	
3924	0	32764	32744	
3925	0	32740	32675	
3926	0	32760	32670	
3927	0	32782	32668	
3928	0	32754	32664	
3929	0	32700	32614	
3930	0	32736	32646	
3931	0	32760	32602	
3932	0	32756	32647	
3933	0	32736	32609	
3934	0	32738	32687	
3935	0	32740	32639	
3936	0	32740	32708	
3937	0	32720	32695	
3938	0	32768	32734	
3939	0	32736	32720	
3940	0	32820	32712	
3941	0	32782	32692	
3942	0	32832	32656	
3943	0	32744	32606	
3944	0	32864	32614	
3945	0	32916	32775	
3946	0	32926	32746	
3947	0	33080	32919	
3948	0	33076	32904	
3949	0	33156	33100	
3950	0	33198	33208	
3951	0	33168	33318	
3952	0	33096	33350	
3953	0	33080	33350	
3954	0	32912	33056	
3955	0	32912	33044	
3956	0	32804	33052	
3957	0	32836	32986	
3958	0	32830	32863	
3959	0	32744	32820	
3960	0	32736	32688	
3961	0	32718	32596	
3962	0	32710	32600	
3963	0	32762	32497	
3964	0	32724	32548	
3965	0	32740	32560	
3966	0	32712	32639	
3967	0	32719	32558	
3968	0	32758	32534	
3969	0	32724	32637	
3970	0	32624	32639	
3971	0	32722	32788	
3972	0	32677	32716	
3973	0	32676	32670	
3974	0	32724	32678	
3975	0	32832	32735	
3976	0	32796	32752	
3977	0	32780	32680	
3978	0	32792	32766	
3979	0	32688	32774	
3980	0	32782	32754	
3981	0	32732	32770	
3982	0	32781	32882	
3983	0	32828	32852	
3984	0	32860	32792	
3985	0	32794	32756	
3986	0	32800	32876	
3987	0	32816	32804	
3988	0	32784	32832	
3989	0	32870	32719	
3990	0	32792	32740	
3991	0	32816	32844	
3992	0	32904	32775	
3993	0	32888	32807	
3994	0	32816	32740	
3995	0	32854	32694	
3996	0	32837	32824	
3997	0	32864	32759	
3998	0	32804	32784	
3999	0	32864	32804	
4000	0	32836	32839	
4001	0	32844	32788	
4002	0	32854	32870	
4003	0	32800	32739	
4004	0	32792	32736	
4005	0	32824	32775	
4006	0	32804	32791	
4007	0	32778	32756	
4008	0	32772	32886	
4009	0	32872	32734	
4010	0	32852	32774	
4011	0	32874	32794	
4012	0	32828	32788	
4013	0	32824	32764	
4014	0	32810	32758	
4015	0	32748	32762	
4016	0	32836	32775	
4017	0	32824	32720	
4018	0	32840	32762	
4019	0	32828	32752	
4020	0	32874	32794	
4021	0	32892	32762	
4022	0	32848	32802	
4023	0	32836	32772	
4024	0	32760	32744	
4025	0	32712	32753	
4026	0	32804	32810	
4027	0	32736	32822	
4028	0	32796	32862	
4029	0	32772	32844	
4030	0	32836	32796	
4031	0	32836	32788	
4032	0	32740	32836	
4033	0	32832	32860	
4034	0	32784	32900	
4035	0	32832	32794	
4036	0	32796	32752	
4037	0	32822	32676	
4038	0	32801	32758	
4039	0	32744	32752	
4040	0	32752	32708	
4041	0	32772	32746	
4042	0	32796	32744	
4043	0	32820	32742	
4044	0	32790	32796	
4045	0	32772	32678	
4046	0	32846	32748	
4047	0	32820	32815	
4048	0	32816	32770	
4049	0	32888	32839	
4050	0	32820	32864	
4051	0	32856	32773	
4052	0	32724	32768	
4053	0	32728	32736	
4054	0	32796	32848	
4055	0	32836	32759	
4056	0	32796	32766	
4057	0	32746	32775	
4058	0	32692	32755	
4059	0	32612	32831	
4060	0	32464	32835	
4061	0	32376	32748	
4062	0	32300	32708	
4063	0	32268	32682	
4064	0	32444	32694	
4065	0	32580	32670	
4066	0	32798	32752	
4067	0	32764	32775	
4068	0	32984	32730	
4069	0	33060	32928	
4070	0	33052	32868	
4071	0	33080	32775	
4072	0	33048	32747	
4073	0	33026	32759	
4074	0	32964	32750	
4075	0	32988	32748	
4076	0	32962	32826	
4077	0	32992	32844	
4078	0	32962	32746	
4079	0	32974	32856	
4080	0	32980	32662	
4081	0	32920	32714	
4082	0	32924	32751	
4083	0	32940	32727	
4084	0	32984	32743	
4085	0	32966	32743	
4086	0	32952	32734	
4087	0	32926	32784	
4088	0	32988	32760	
4089	0	32890	32756	
4090	0	32874	32852	
4091	0	32868	32814	
4092	0	32908	32810	
4093	0	32837	32767	
4094	0	32805	32816	
4095	0	32782	32775	
4096	0	32744	32740	
4097	0	32744	32684	
4098	0	32724	32740	
4099	0	32782	32756	
4100	0	32800	32720	
4101	0	32884	32750	
4102	0	32812	32820	
4103	0	32826	32826	
4104	0	32764	32727	
4105	0	32868	32724	
4106	0	32840	32760	
4107	0	32868	32614	
4108	0	32821	32644	
4109	0	32826	32662	
4110	0	32892	32838	
4111	0	32768	32878	
4112	0	32826	32732	
4113	0	32812	32802	
4114	0	32858	32772	
4115	0	32878	32762	
4116	0	32842	32871	
4117	0	32808	32706	
4118	0	32809	32790	
4119	0	32724	32982	
4120	0	32830	33054	
4121	0	32772	32944	
4122	0	32748	32842	
4123	0	32834	32680	
4124	0	32714	32671	
4125	0	32737	32700	
4126	0	32702	32700	
4127	0	32700	32764	
4128	0	32752	32988	
4129	0	32782	33004	
4130	0	32718	32866	
4131	0	32700	32770	
4132	0	32744	32775	
4133	0	32758	32740	
4134	0	32810	32774	
4135	0	32836	32704	
4136	0	32872	32756	
4137	0	32855	32631	
4138	0	32794	32584	
4139	0	32852	32564	
4140	0	32806	32702	
4141	0	32792	32718	
4142	0	32837	32732	
4143	0	32840	32775	
4144	0	32780	32858	
4145	0	32808	32820	
4146	0	32802	32866	
4147	0	32816	32807	
4148	0	32796	32772	
4149	0	32840	32748	
4150	0	32768	32724	
4151	0	32724	32695	
4152	0	32848	32800	
4153	0	32778	32874	
4154	0	32836	32858	
4155	0	32782	32758	
4156	0	32852	32700	
4157	0	32808	32772	
4158	0	32756	32810	
4159	0	32824	32758	
4160	0	32778	32795	
4161	0	32808	32850	
4162	0	32834	32676	
4163	0	32874	32684	
4164	0	32784	32664	
4165	0	32858	32684	
4166	0	32844	32628	
4167	0	32776	32839	
4168	0	32760	32808	
4169	0	32820	32951	
4170	0	32788	32942	
4171	0	32844	32844	
4172	0	32766	32758	
4173	0	32776	32796	
4174	0	32808	32750	
4175	0	32794	32792	
4176	0	32856	32748	
4177	0	32808	32756	
4178	0	32800	32775	
4179	0	32864	32772	
4180	0	32840	32844	
4181	0	32900	32792	
4182	0	32836	32802	
4183	0	32788	32806	
4184	0	32830	32734	
4185	0	32780	32848	
4186	0	32793	32760	
4187	0	32820	32858	
4188	0	32820	32786	
4189	0	32852	32726	
4190	0	32896	32724	
4191	0	32784	32726	
4192	0	32808	32786	
4193	0	32792	32842	
4194	0	32872	32838	
4195	0	32896	32759	
4196	0	32896	32764	
4197	0	32892	32766	
4198	0	32860	32650	
4199	0	32808	32764	
4200	0	32788	32806	
4201	0	32770	32761	
4202	0	32800	32775	
4203	0	32812	32665	
4204	0	32786	32703	
4205	0	32720	32676	
4206	0	32752	32667	
4207	0	32876	32759	
4208	0	32740	32670	
4209	0	32744	32646	
4210	0	32778	32706	
4211	0	32796	32772	
4212	0	32802	32803	
4213	0	32810	32832	
4214	0	32722	32770	
4215	0	32792	32802	
4216	0	32804	32775	
4217	0	32802	32789	
4218	0	32796	32840	
4219	0	32802	32775	
4220	0	32832	32746	
4221	0	32774	32770	
4222	0	32810	32700	
4223	0	32806	32734	
4224	0	32768	32663	
4225	0	32848	32702	
4226	0	32808	32759	
4227	0	32820	32754	
4228	0	32816	32760	
4229	0	32880	32828	
4230	0	32820	32792	
4231	0	32804	32830	
4232	0	32762	32725	
4233	0	32784	32734	
4234	0	32752	32678	
4235	0	32840	32756	
4236	0	32800	32748	
4237	0	32798	32808	
4238	0	32820	32820	
4239	0	32802	32844	
4240	0	32784	32775	
4241	0	32804	32716	
4242	0	32808	32768	
4243	0	32820	32775	
4244	0	32824	32775	
4245	0	32800	32838	
4246	0	32802	32775	
4247	0	32858	32807	
4248	0	32832	32759	
4249	0	32852	32762	
4250	0	32868	32706	
4251	0	32892	32860	
4252	0	32816	32668	
4253	0	32800	32666	
4254	0	32832	32742	
4255	0	32820	32816	
4256	0	32812	32854	
4257	0	32768	32774	
4258	0	32782	32734	
4259	0	32856	32804	
4260	0	32842	32800	
4261	0	32828	32759	
4262	0	32810	32846	
4263	0	32824	32852	
4264	0	32816	32774	
4265	0	32800	32775	
4266	0	32784	32706	
4267	0	32806	32760	
4268	0	32792	32739	
4269	0	32762	32675	
4270	0	32856	32760	
4271	0	32780	32641	
4272	0	32756	32668	
4273	0	32820	32679	
4274	0	32768	32679	
4275	0	32816	32684	
4276	0	32848	32704	
4277	0	32876	32808	
4278	0	32796	32848	
4279	0	32880	32743	
4280	0	32860	32796	
4281	0	32752	32842	
4282	0	32828	32831	
4283	0	32912	32736	
4284	0	32812	32676	
4285	0	32856	32728	
4286	0	32764	32762	
4287	0	32820	32892	
4288	0	32804	32762	
4289	0	32800	32835	
4290	0	32792	32812	
4291	0	32724	32788	
4292	0	32764	32824	
4293	0	32784	32714	
4294	0	32760	32759	
4295	0	32836	32706	
4296	0	32848	32647	
4297	0	32788	32786	
4298	0	32846	32775	
4299	0	32858	32802	
4300	0	32816	32742	
4301	0	32756	32800	
4302	0	32844	32714	
4303	0	32812	32810	
4304	0	32798	32766	
4305	0	32808	32708	
4306	0	32812	32710	
4307	0	32784	32661	
4308	0	32860	32674	
4309	0	32856	32702	
4310	0	32720	32738	
4311	0	32770	32716	
4312	0	32804	32698	
4313	0	32808	32766	
4314	0	32808	32736	
4315	0	32820	32790	
4316	0	32738	32839	
4317	0	32784	32804	
4318	0	32806	32798	
4319	0	32842	32834	
4320	0	32832	32830	
4321	0	32770	32802	
4322	0	32804	32702	
4323	0	32806	32706	
4324	0	32888	32762	
4325	0	32750	32764	
4326	0	32788	32727	
4327	0	32840	32768	
4328	0	32812	32775	
4329	0	32850	32835	
4330	0	32824	32798	
4331	0	32780	32854	
4332	0	32822	32806	
4333	0	32812	32676	
4334	0	32748	32725	
4335	0	32760	32750	
4336	0	32844	32705	
4337	0	32772	32822	
4338	0	32844	32762	
4339	0	32854	32840	
4340	0	32870	32856	
4341	0	32828	32764	
4342	0	32844	32720	
4343	0	32784	32806	
4344	0	32846	32766	
4345	0	32884	32695	
4346	0	32862	32847	
4347	0	32810	32746	
4348	0	32800	32826	
4349	0	32864	32898	
4350	0	32852	32766	
4351	0	32800	32727	
4352	0	32756	32775	
4353	0	32836	32744	
4354	0	32812	32775	
4355	0	32824	32752	
4356	0	32790	32750	
4357	0	32688	32751	
4358	0	32738	32752	
4359	0	32832	32772	
4360	0	32864	32808	
4361	0	32888	32806	
4362	0	32838	32647	
4363	0	32758	32632	
4364	0	32788	32674	
4365	0	32858	32624	
4366	0	32804	32748	
4367	0	32816	32744	
4368	0	32812	32890	
4369	0	32858	32884	
4370	0	32756	32879	
4371	0	32800	32794	
4372	0	32744	32775	
4373	0	32808	32836	
4374	0	32852	32750	
4375	0	32814	32662	
4376	0	32842	32678	
4377	0	32780	32760	
4378	0	32812	32794	
4379	0	32820	32848	
4380	0	32778	32800	
4381	0	32800	32724	
4382	0	32880	32768	
4383	0	32810	32794	
4384	0	32796	32706	
4385	0	32772	32737	
4386	0	32832	32774	
4387	0	32756	32820	
4388	0	32844	32791	
4389	0	32852	32766	
4390	0	32830	32742	
4391	0	32822	32868	
4392	0	32920	32914	
4393	0	32836	32860	
4394	0	32828	32802	
4395	0	32884	32805	
4396	0	32736	32842	
4397	0	32776	32835	
4398	0	32738	32774	
4399	0	32866	32726	
4400	0	32832	32657	
4401	0	32832	32734	
4402	0	32841	32799	
4403	0	32816	32834	
4404	0	32782	32774	
4405	0	32832	32764	
4406	0	32764	32840	
4407	0	32792	32775	
4408	0	32756	32688	
4409	0	32732	32748	
4410	0	32804	32766	
4411	0	32836	32818	
4412	0	32816	32746	
4413	0	32792	32775	
4414	0	32780	32678	
4415	0	32796	32692	
4416	0	32852	32775	
4417	0	32804	32772	
4418	0	32826	32807	
4419	0	32820	32775	
4420	0	32868	32836	
4421	0	32828	32874	
4422	0	32844	32829	
4423	0	32808	32827	
4424	0	32836	32773	
4425	0	32820	32836	
4426	0	32876	32822	
4427	0	32832	32713	
4428	0	32812	32742	
4429	0	32793	32716	
4430	0	32802	32604	
4431	0	32830	32670	
4432	0	32794	32680	
4433	0	32808	32728	
4434	0	32784	32742	
4435	0	32830	32775	
4436	0	32828	32806	
4437	0	32802	32806	
4438	0	32808	32756	
4439	0	32876	32766	
4440	0	32764	32743	
4441	0	32764	32718	
4442	0	32744	32802	
4443	0	32801	32806	
4444	0	32784	32842	
4445	0	32740	32839	
4446	0	32796	32806	
4447	0	32820	32662	
4448	0	32784	32742	
4449	0	32804	32724	
4450	0	32834	32697	
4451	0	32788	32846	
4452	0	32818	32754	
4453	0	32798	32788	
4454	0	32842	32760	
4455	0	32820	32798	
4456	0	32852	32774	
4457	0	32820	32698	
4458	0	32784	32679	
4459	0	32844	32775	
4460	0	32832	32748	
4461	0	32802	32756	
4462	0	32804	32864	
4463	0	32824	32798	
4464	0	32812	32800	
4465	0	32798	32800	
4466	0	32804	32775	
4467	0	32800	32726	
4468	0	32774	32686	
4469	0	32724	32774	
4470	0	32800	32790	
4471	0	32752	32775	
4472	0	32782	32781	
4473	0	32862	32774	
4474	0	32842	32798	
4475	0	32804	32713	
4476	0	32840	32719	
4477	0	32704	32695	
4478	0	32864	32766	
4479	0	32868	32879	
4480	0	32900	32784	
4481	0	32812	32772	
4482	0	32816	32688	
4483	0	32798	32800	
4484	0	32832	32740	
4485	0	32820	32767	
4486	0	32800	32758	
4487	0	32812	32720	
4488	0	32864	32796	
4489	0	32872	32830	
4490	0	32720	32839	
4491	0	32752	32679	
4492	0	32784	32704	
4493	0	32748	32647	
4494	0	32804	32775	
4495	0	32800	32647	
4496	0	32776	32676	
4497	0	32844	32756	
4498	0	32748	32753	
4499	0	32864	32705	
4500	0	32770	32869	
4501	0	32734	32862	
4502	0	32798	32806	
4503	0	32820	32819	
4504	0	32860	32828	
4505	0	32808	32852	
4506	0	32852	32791	
4507	0	32837	32832	
4508	0	32844	32692	
4509	0	32878	32742	
4510	0	32896	32722	
4511	0	32840	32828	
4512	0	32864	32742	
4513	0	32848	32740	
4514	0	32876	32834	
4515	0	32820	32890	
4516	0	32802	32792	
4517	0	32792	32788	
4518	0	32768	32775	
4519	0	32772	32767	
4520	0	32772	32744	
4521	0	32737	32775	
4522	0	32798	32764	
4523	0	32826	32788	
4524	0	32820	32818	
4525	0	32812	32830	
4526	0	32760	32775	
4527	0	32808	32762	
4528	0	32836	32732	
4529	0	32836	32808	
4530	0	32834	32784	
4531	0	32820	32746	
4532	0	32780	32651	
4533	0	32774	32750	
4534	0	32820	32691	
4535	0	32816	32740	
4536	0	32804	32653	
4537	0	32772	32680	
4538	0	32780	32674	
4539	0	32882	32709	
4540	0	32848	32647	
4541	0	32830	32692	
4542	0	32802	32730	
4543	0	32840	32652	
4544	0	32872	32754	
4545	0	32804	32736	
4546	0	32836	32716	
4547	0	32840	32655	
4548	0	32804	32734	
4549	0	32796	32711	
4550	0	32810	32711	
4551	0	32746	32743	
4552	0	32760	32791	
4553	0	32812	32804	
4554	0	32776	32926	
4555	0	32848	32850	
4556	0	32812	32796	
4557	0	32772	32744	
4558	0	32864	32772	
4559	0	32842	32820	
4560	0	32802	32810	
4561	0	32800	32775	
4562	0	32814	32888	
4563	0	32782	32871	
4564	0	32828	32788	
4565	0	32822	32760	
4566	0	32768	32770	
4567	0	32824	32712	
4568	0	32814	32780	
4569	0	32876	32808	
4570	0	32896	32775	
4571	0	32720	32792	
4572	0	32900	32734	
4573	0	32896	32750	
4574	0	32858	32756	
4575	0	32820	32748	
4576	0	32796	32710	
4577	0	32760	32758	
4578	0	32750	32812	
4579	0	32760	32692	
4580	0	32824	32796	
4581	0	32746	32689	
4582	0	32790	32736	
4583	0	32844	32836	
4584	0	32828	32758	
4585	0	32818	32736	
4586	0	32790	32792	
4587	0	32761	32724	
4588	0	32812	32720	
4589	0	32760	32775	
4590	0	32748	32828	
4591	0	32836	32766	
4592	0	32832	32848	
4593	0	32814	32790	
4594	0	32802	32826	
4595	0	32864	32784	
4596	0	32784	32710	
4597	0	32818	32742	
4598	0	32816	32782	
4599	0	32750	32746	
4600	0	32716	32775	
4601	0	32654	32740	
4602	0	32706	32732	
4603	0	32736	32788	
4604	0	32772	32800	
4605	0	32828	32769	
4606	0	32876	32822	
4607	0	32826	32852	
4608	0	32910	32756	
4609	0	32996	32890	
4610	0	32892	32884	
4611	0	32940	32818	
4612	0	32847	32804	
4613	0	32808	32812	
4614	0	32816	32718	
4615	0	32878	32775	
4616	0	32784	32718	
4617	0	32846	32647	
4618	0	32808	32671	
4619	0	32832	32730	
4620	0	32684	32668	
4621	0	32704	32596	
4622	0	32768	32614	
4623	0	32716	32620	
4624	0	32769	32566	
4625	0	32772	32600	
4626	0	32716	32699	
4627	0	32660	32698	
4628	0	32674	32746	
4629	0	32704	32643	
4630	0	32676	32764	
4631	0	32696	32720	
4632	0	32808	32754	
4633	0	32847	32708	
4634	0	32824	32754	
4635	0	32810	32632	
4636	0	32856	32638	
4637	0	32892	32612	
4638	0	32958	32666	
4639	0	32952	32734	
4640	0	33066	32822	
4641	0	33148	32864	
4642	0	33180	33004	
4643	0	33156	33118	
4644	0	33152	33274	
4645	0	33132	33180	
4646	0	33002	33116	
4647	0	32920	33148	
4648	0	32948	33090	
4649	0	32872	32968	
4650	0	32836	32932	
4651	0	32776	32806	
4652	0	32732	32706	
4653	0	32658	32572	
4654	0	32672	32598	
4655	0	32672	32557	
4656	0	32674	32578	
4657	0	32670	32532	
4658	0	32738	32562	
4659	0	32660	32647	
4660	0	32720	32692	
4661	0	32684	32668	
4662	0	32692	32664	
4663	0	32740	32682	
4664	0	32718	32701	
4665	0	32732	32640	
4666	0	32776	32686	
4667	0	32836	32695	
4668	0	32784	32676	
4669	0	32812	32684	
4670	0	32836	32704	
4671	0	32804	32775	
4672	0	32828	32700	
4673	0	32796	32764	
4674	0	32696	32686	
4675	0	32792	32702	
4676	0	32840	32693	
4677	0	32848	32694	
4678	0	32868	32850	
4679	0	32816	32752	
4680	0	32808	32806	
4681	0	32768	32704	
4682	0	32756	32766	
4683	0	32808	32786	
4684	0	32824	32764	
4685	0	32796	32815	
4686	0	32774	32865	
4687	0	32820	32810	
4688	0	32864	32732	
4689	0	32774	32668	
4690	0	32820	32708	
4691	0	32816	32775	
4692	0	32832	32828	
4693	0	32864	32790	
4694	0	32902	32784	
4695	0	32808	32716	
4696	0	32772	32712	
4697	0	32794	32738	
4698	0	32878	32782	
4699	0	32768	32810	
4700	0	32808	32812	
4701	0	32808	32816	
4702	0	32792	32842	
4703	0	32789	32820	
4704	0	32768	32678	
4705	0	32808	32726	
4706	0	32832	32732	
4707	0	32846	32772	
4708	0	32836	32775	
4709	0	32796	32762	
4710	0	32822	32828	
4711	0	32884	32870	
4712	0	32814	32856	
4713	0	32776	32868	
4714	0	32764	32826	
4715	0	32820	32808	
4716	0	32752	32823	
4717	0	32816	32880	
4718	0	32846	32848	
4719	0	32798	32743	
4720	0	32794	32805	
4721	0	32876	32775	
4722	0	32836	32800	
4723	0	32808	32656	
4724	0	32764	32630	
4725	0	32820	32711	
4726	0	32792	32712	
4727	0	32748	32788	
4728	0	32776	32799	
4729	0	32816	32807	
4730	0	32752	32772	
4731	0	32780	32899	
4732	0	32880	32756	
4733	0	32842	32766	
4734	0	32704	32788	
4735	0	32780	32807	
4736	0	32826	32796	
4737	0	32884	32846	
4738	0	32905	32726	
4739	0	32960	32792	
4740	0	32872	32836	
4741	0	32840	32762	
4742	0	32836	32840	
4743	0	32804	32774	
4744	0	32814	32823	
4745	0	32854	32831	
4746	0	32816	32694	
4747	0	32808	32788	
4748	0	32698	32775	
4749	0	32838	32812	
4750	0	32806	32775	
4751	0	32801	32796	
4752	0	32768	32876	
4753	0	32788	32790	
4754	0	32790	32804	
4755	0	32814	32796	
4756	0	32868	32708	
4757	0	32862	32732	
4758	0	32840	32774	
4759	0	32816	32814	
4760	0	32840	32750	
4761	0	32832	32807	
4762	0	32832	32676	
4763	0	32710	32820	
4764	0	32780	32774	
4765	0	32744	32790	
4766	0	32724	32887	
4767	0	32784	32806	
4768	0	32744	32794	
4769	0	32826	32799	
4770	0	32730	32748	
4771	0	32784	32844	
4772	0	32794	32817	
4773	0	32888	32850	
4774	0	32856	32830	
4775	0	32844	32822	
4776	0	32840	32682	
4777	0	32824	32772	
4778	0	32816	32670	
4779	0	32844	32730	
4780	0	32724	32804	
4781	0	32794	32695	
4782	0	32812	32766	
4783	0	32848	32768	
4784	0	32816	32730	
4785	0	32790	32567	
4786	0	32758	32588	
4787	0	32789	32564	
4788	0	32796	32680	
4789	0	32808	32772	
4790	0	32806	32772	
4791	0	32808	32815	
4792	0	32836	32998	
4793	0	32860	33044	
4794	0	32836	32986	
4795	0	32754	32913	
4796	0	32852	32887	
4797	0	32768	32834	
4798	0	32818	32767	
4799	0	32732	32704	
4800	0	32808	32774	
4801	0	32712	32720	
4802	0	32748	32684	
4803	0	32816	32732	
4804	0	32812	32702	
4805	0	32846	32736	
4806	0	32804	32850	
4807	0	32808	32804	
4808	0	32822	32801	
4809	0	32860	32808	
4810	0	32832	32759	
4811	0	32782	32798	
4812	0	32816	32749	
4813	0	32896	32828	
4814	0	32844	32810	
4815	0	32768	32822	
4816	0	32764	32806	
4817	0	32772	32736	
4818	0	32756	32754	
4819	0	32736	32740	
4820	0	32752	32760	
4821	0	32772	32764	
4822	0	32832	32786	
4823	0	32834	32800	
4824	0	32840	32744	
4825	0	32768	32838	
4826	0	32840	32764	
4827	0	32848	32746	
4828	0	32800	32798	
4829	0	32866	32775	
4830	0	32800	32775	
4831	0	32800	32697	
4832	0	32798	32749	
4833	0	32888	32719	
4834	0	32764	32750	
4835	0	32868	32724	
4836	0	32856	32784	
4837	0	32784	32705	
4838	0	32848	32720	
4839	0	32857	32698	
4840	0	32812	32750	
4841	0	32847	32754	
4842	0	32820	32736	
4843	0	32696	32754	
4844	0	32784	32810	
4845	0	32768	32767	
4846	0	32844	32820	
4847	0	32692	32748	
4848	0	32656	32786	
4849	0	32746	32831	
4850	0	32864	32788	
4851	0	32908	32774	
4852	0	32768	32750	
4853	0	32796	32711	
4854	0	32848	32755	
4855	0	32850	32704	
4856	0	32832	32710	
4857	0	32885	32750	
4858	0	32864	32742	
4859	0	32952	32676	
4860	0	32848	32647	
4861	0	32860	32689	
4862	0	32872	32742	
4863	0	32804	32722	
4864	0	32816	32703	
4865	0	32785	32758	
4866	0	32808	32758	
4867	0	32784	32751	
4868	0	32852	32775	
4869	0	32792	32775	
4870	0	32816	32702	
4871	0	32772	32748	
4872	0	32800	32728	
4873	0	32756	32728	
4874	0	32714	32775	
4875	0	32796	32814	
4876	0	32820	32740	
4877	0	32784	32806	
4878	0	32732	32764	
4879	0	32814	32702	
4880	0	32820	32690	
4881	0	32810	32737	
4882	0	32924	32790	
4883	0	32804	32768	
4884	0	32816	32700	
4885	0	32820	32722	
4886	0	32730	32822	
4887	0	32775	32791	
4888	0	32868	32782	
4889	0	32844	32798	
4890	0	32838	32839	
4891	0	32775	32800	
4892	0	32828	32807	
4893	0	32776	32806	
4894	0	32844	32716	
4895	0	32816	32726	
4896	0	32822	32725	
4897	0	32872	32708	
4898	0	32812	32767	
4899	0	32784	32853	
4900	0	32798	32814	
4901	0	32824	32858	
4902	0	32826	32738	
4903	0	32820	32750	
4904	0	32776	32792	
4905	0	32801	32796	
4906	0	32860	32800	
4907	0	32814	32820	
4908	0	32830	32807	
4909	0	32792	32831	
4910	0	32834	32822	
4911	0	32764	32768	
4912	0	32790	32839	
4913	0	32806	32831	
4914	0	32772	32828	
4915	0	32788	32884	
4916	0	32856	32919	
4917	0	32772	32846	
4918	0	32808	32882	
4919	0	32792	32828	
4920	0	32832	32691	
4921	0	32756	32775	
4922	0	32788	32890	
4923	0	32822	32670	
4924	0	32732	32636	
4925	0	32752	32642	
4926	0	32846	32696	
4927	0	32832	32742	
4928	0	32848	32756	
4929	0	32784	32760	
4930	0	32814	32759	
4931	0	32826	32794	
4932	0	32868	32766	
4933	0	32872	32836	
4934	0	32860	32804	
4935	0	32772	32756	
4936	0	32808	32820	
4937	0	32804	32740	
4938	0	32768	32838	
4939	0	32808	32786	
4940	0	32832	32784	
4941	0	32750	32807	
4942	0	32820	32812	
4943	0	32736	32698	
4944	0	32750	32722	
4945	0	32790	32766	
4946	0	32816	32743	
4947	0	32794	32662	
4948	0	32776	32696	
4949	0	32784	32696	
4950	0	32796	32775	
4951	0	32840	32678	
4952	0	32812	32800	
4953	0	32782	32775	
4954	0	32804	32743	
4955	0	32864	32663	
4956	0	32896	32687	
4957	0	32888	32663	
4958	0	32870	32698	
4959	0	32878	32628	
4960	0	32870	32647	
4961	0	32804	32626	
4962	0	32820	32670	
4963	0	32752	32670	
4964	0	32852	32743	
4965	0	32840	32722	
4966	0	32788	32664	
4967	0	32772	32770	
4968	0	32778	32748	
4969	0	32770	32775	
4970	0	32836	32660	
4971	0	32896	32799	
4972	0	32864	32787	
4973	0	32784	32645	
4974	0	32788	32628	
4975	0	32748	32716	
4976	0	32750	32718	
4977	0	32752	32604	
4978	0	32824	32711	
4979	0	32814	32738	
4980	0	32792	32658	
4981	0	32804	32687	
4982	0	32894	32818	
4983	0	32882	32721	
4984	0	32848	32708	
4985	0	32840	32716	
4986	0	32858	32662	
4987	0	32846	32738	
4988	0	32772	32796	
4989	0	32880	32724	
4990	0	32880	32690	
4991	0	32756	32743	
4992	0	32737	32897	
4993	0	32756	32811	
4994	0	32736	32824	
4995	0	32816	32753	
4996	0	32832	32692	
4997	0	32788	32820	
4998	0	32828	32687	
4999	0	32780	32742	
5000	0	32772	32800	
5001	0	32928	32762	
5002	0	32836	32788	
5003	0	32840	32775	
5004	0	32810	32740	
5005	0	32884	32688	
5006	0	32904	32742	
5007	0	32828	32775	
5008	0	32798	32765	
5009	0	32832	32839	
5010	0	32860	32751	
5011	0	32856	32710	
5012	0	32788	32728	
5013	0	32718	32824	
5014	0	32796	32748	
5015	0	32820	32769	
5016	0	32816	32799	
5017	0	32748	32775	
5018	0	32800	32848	
5019	0	32816	32812	
5020	0	32762	32795	
5021	0	32756	32759	
5022	0	32724	32808	
5023	0	32782	32832	
5024	0	32810	32850	
5025	0	32864	32846	
5026	0	32840	32844	
5027	0	32752	32836	
5028	0	32812	32775	
5029	0	32870	32800	
5030	0	32844	32750	
5031	0	32802	32906	
5032	0	32844	32816	
5033	0	32764	32762	
5034	0	32760	32708	
5035	0	32757	32773	
5036	0	32780	32788	
5037	0	32726	32772	
5038	0	32798	32675	
5039	0	32850	32770	
5040	0	32924	32732	
5041	0	32836	32807	
5042	0	32780	32858	
5043	0	32852	32818	
5044	0	32824	32807	
5045	0	32830	32682	
5046	0	32796	32775	
5047	0	32864	32808	
5048	0	32876	32774	
5049	0	32784	32774	
5050	0	32788	32756	
5051	0	32740	32696	
5052	0	32782	32714	
5053	0	32794	32680	
5054	0	32792	32682	
5055	0	32844	32800	
5056	0	32896	32780	
5057	0	32784	32772	
5058	0	32856	32768	
5059	0	32880	32740	
5060	0	32868	32862	
5061	0	32832	32801	
5062	0	32826	32742	
5063	0	32836	32804	
5064	0	32816	32791	
5065	0	32804	32753	
5066	0	32804	32712	
5067	0	32872	32742	
5068	0	32800	32704	
5069	0	32788	32719	
5070	0	32828	32706	
5071	0	32816	32668	
5072	0	32800	32706	
5073	0	32736	32831	
5074	0	32760	32748	
5075	0	32800	32768	
5076	0	32744	32772	
5077	0	32772	32806	
5078	0	32772	32775	
5079	0	32816	32842	
5080	0	32860	32775	
5081	0	32792	32765	
5082	0	32924	32700	
5083	0	32808	32678	
5084	0	32888	32647	
5085	0	32806	32676	
5086	0	32768	32789	
5087	0	32784	32720	
5088	0	32878	32734	
5089	0	32846	32732	
5090	0	32812	32640	
5091	0	32786	32760	
5092	0	32836	32732	
5093	0	32728	32709	
5094	0	32734	32732	
5095	0	32832	32748	
5096	0	32780	32742	
5097	0	32782	32708	
5098	0	32828	32798	
5099	0	32840	32740	
5100	0	32792	32751	
5101	0	32772	32693	
5102	0	32806	32730	
5103	0	32748	32696	
5104	0	32812	32647	
5105	0	32752	32715	
5106	0	32716	32644	
5107	0	32780	32630	
5108	0	32810	32726	
5109	0	32800	32707	
5110	0	32812	32718	
5111	0	32806	32742	
5112	0	32772	32714	
5113	0	32870	32714	
5114	0	32816	32674	
5115	0	32794	32775	
5116	0	32800	32660	
5117	0	32760	32702	
5118	0	32841	32802	
5119	0	32896	32828	
5120	0	32814	32743	
5121	0	32837	32758	
5122	0	32716	32839	
5123	0	32808	32769	
5124	0	32880	32746	
5125	0	32860	32840	
5126	0	32822	32828	
5127	0	32824	32719	
5128	0	32872	32861	
5129	0	32800	32734	
5130	0	32856	32722	
5131	0	32842	32688	
5132	0	32892	32764	
5133	0	32812	32740	
5134	0	32736	32732	
5135	0	32870	32738	
5136	0	32788	32624	
5137	0	32820	32692	
5138	0	32741	32753	
5139	0	32784	32764	
5140	0	32826	32720	
5141	0	32800	32754	
5142	0	32792	32714	
5143	0	32752	32775	
5144	0	32788	32815	
5145	0	32876	32746	
5146	0	32826	32751	
5147	0	32868	32740	
5148	0	32790	32813	
5149	0	32916	32800	
5150	0	32864	32763	
5151	0	32842	32900	
5152	0	32832	32775	
5153	0	32812	32807	
5154	0	32800	32804	
5155	0	32822	32808	
5156	0	32792	32793	
5157	0	32784	32810	
5158	0	32784	32844	
5159	0	32830	32802	
5160	0	32840	32810	
5161	0	32785	32744	
5162	0	32846	32711	
5163	0	32772	32660	
5164	0	32828	32752	
5165	0	32822	32660	
5166	0	32776	32740	
5167	0	32776	32646	
5168	0	32738	32784	
5169	0	32848	32692	
5170	0	32836	32828	
5171	0	32836	32785	
5172	0	32844	32804	
5173	0	32832	32802	
5174	0	32852	32775	
5175	0	32832	32775	
5176	0	32848	32734	
5177	0	32850	32670	
5178	0	32782	32724	
5179	0	32760	32700	
5180	0	32888	32784	
5181	0	32844	32804	
5182	0	32876	32804	
5183	0	32828	32802	
5184	0	32842	32838	
5185	0	32806	32727	
5186	0	32800	32807	
5187	0	32852	32748	
5188	0	32852	32798	
5189	0	32820	32864	
5190	0	32796	32702	
5191	0	32852	32759	
5192	0	32802	32720	
5193	0	32782	32695	
5194	0	32792	32692	
5195	0	32814	32679	
5196	0	32820	32700	
5197	0	32852	32768	
5198	0	32724	32847	
5199	0	32796	32810	
5200	0	32774	32798	
5201	0	32836	32816	
5202	0	32759	32866	
5203	0	32802	32829	
5204	0	32806	32831	
5205	0	32696	32772	
5206	0	32790	32775	
5207	0	32836	32696	
5208	0	32712	32770	
5209	0	32776	32775	
5210	0	32812	32775	
5211	0	32780	32706	
5212	0	32876	32806	
5213	0	32812	32769	
5214	0	32798	32775	
5215	0	32861	32732	
5216	0	32836	32758	
5217	0	32856	32862	
5218	0	32876	32807	
5219	0	32868	32736	
5220	0	32796	32736	
5221	0	32812	32759	
5222	0	32830	32759	
5223	0	32804	32728	
5224	0	32892	32862	
5225	0	32804	32816	
5226	0	32792	32775	
5227	0	32758	32791	
5228	0	32806	32748	
5229	0	32779	32736	
5230	0	32752	32852	
5231	0	32816	32834	
5232	0	32774	32815	
5233	0	32832	32687	
5234	0	32826	32670	
5235	0	32808	32654	
5236	0	32796	32746	
5237	0	32824	32710	
5238	0	32784	32719	
5239	0	32832	32702	
5240	0	32784	32762	
5241	0	32804	32662	
5242	0	32848	32689	
5243	0	32756	32775	
5244	0	32820	32792	
5245	0	32760	32804	
5246	0	32808	32798	
5247	0	32764	32775	
5248	0	32760	32708	
5249	0	32825	32712	
5250	0	32776	32756	
5251	0	32810	32838	
5252	0	32812	32788	
5253	0	32922	32794	
5254	0	32834	32775	
5255	0	32848	32742	
5256	0	32822	32759	
5257	0	32748	32666	
5258	0	32780	32726	
5259	0	32828	32690	
5260	0	32786	32768	
5261	0	32828	32689	
5262	0	32760	32848	
5263	0	32816	32816	
5264	0	32808	32736	
5265	0	32784	32794	
5266	0	32784	32761	
5267	0	32824	32774	
5268	0	32856	32805	
5269	0	32840	32807	
5270	0	32858	32847	
5271	0	32864	32799	
5272	0	32860	32713	
5273	0	32764	32752	
5274	0	32825	32724	
5275	0	32810	32698	
5276	0	32810	32766	
5277	0	32828	32743	
5278	0	32796	32825	
5279	0	32876	32696	
5280	0	32800	32878	
5281	0	32886	32860	
5282	0	32752	32794	
5283	0	32842	32824	
5284	0	32760	32828	
5285	0	32836	32840	
5286	0	32822	32846	
5287	0	32864	32760	
5288	0	32824	32830	
5289	0	32796	32826	
5290	0	32801	32828	
5291	0	32769	32800	
5292	0	32770	32698	
5293	0	32680	32736	
5294	0	32752	32796	
5295	0	32728	32720	
5296	0	32706	32748	
5297	0	32746	32710	
5298	0	32750	32687	
5299	0	32766	32612	
5300	0	32716	32508	
5301	0	32680	32529	
5302	0	32721	32590	
5303	0	32770	32550	
5304	0	32770	32662	
5305	0	32764	32642	
5306	0	32652	32500	
5307	0	32632	32550	
5308	0	32736	32604	
5309	0	32692	32652	
5310	0	32812	32704	
5311	0	32848	32740	
5312	0	32848	32742	
5313	0	32821	32803	
5314	0	32848	32775	
5315	0	32822	32764	
5316	0	32960	32775	
5317	0	33160	32887	
5318	0	33184	32932	
5319	0	33168	32927	
5320	0	33114	33136	
5321	0	33172	33180	
5322	0	33173	33198	
5323	0	33156	33258	
5324	0	33030	33180	
5325	0	32916	33144	
5326	0	32832	33078	
5327	0	32840	33030	
5328	0	32792	33047	
5329	0	32800	32871	
5330	0	32710	32694	
5331	0	32688	32604	
5332	0	32638	32700	
5333	0	32650	32567	
5334	0	32672	32540	
5335	0	32716	32600	
5336	0	32688	32574	
5337	0	32586	32641	
5338	0	32682	32637	
5339	0	32736	32656	
5340	0	32726	32696	
5341	0	32720	32656	
5342	0	32704	32618	
5343	0	32710	32673	
5344	0	32676	32716	
5345	0	32748	32615	
5346	0	32768	32675	
5347	0	32826	32700	
5348	0	32870	32692	
5349	0	32836	32694	
5350	0	32852	32720	
5351	0	32792	32692	
5352	0	32828	32694	
5353	0	32786	32671	
5354	0	32848	32754	
5355	0	32800	32754	
5356	0	32776	32692	
5357	0	32792	32775	
5358	0	32852	32740	
5359	0	32809	32647	
5360	0	32834	32679	
5361	0	32828	32712	
5362	0	32870	32719	
5363	0	32864	32688	
5364	0	32784	32731	
5365	0	32884	32838	
5366	0	32844	32808	
5367	0	32888	32834	
5368	0	32838	32774	
5369	0	32804	32828	
5370	0	32846	32769	
5371	0	32778	32815	
5372	0	32788	32822	
5373	0	32845	32772	
5374	0	32784	32772	
5375	0	32800	32775	
5376	0	32784	32872	
5377	0	32909	32864	
5378	0	32832	32799	
5379	0	32820	32673	
5380	0	32824	32714	
5381	0	32768	32736	
5382	0	32862	32704	
5383	0	32810	32820	
5384	0	32794	32670	
5385	0	32808	32800	
5386	0	32868	32801	
5387	0	32810	32732	
5388	0	32799	32924	
5389	0	32798	32712	
5390	0	32804	32719	
5391	0	32772	32712	
5392	0	32812	32720	
5393	0	32852	32712	
5394	0	32860	32808	
5395	0	32788	32796	
5396	0	32778	32832	
5397	0	32868	32867	
5398	0	32770	32815	
5399	0	32856	32805	
5400	0	32868	32814	
5401	0	32775	32814	
5402	0	32826	32862	
5403	0	32798	32852	
5404	0	32757	32788	
5405	0	32812	32838	
5406	0	32764	32836	
5407	0	32780	32696	
5408	0	32876	32732	
5409	0	32808	32688	
5410	0	32826	32692	
5411	0	32748	32775	
5412	0	32799	32860	
5413	0	32812	32764	
5414	0	32849	32736	
5415	0	32740	32794	
5416	0	32800	32699	
5417	0	32836	32694	
5418	0	32844	32730	
5419	0	32852	32732	
5420	0	32788	32700	
5421	0	32844	32772	
5422	0	32848	32751	
5423	0	32828	32870	
5424	0	32900	32870	
5425	0	32788	32772	
5426	0	32836	32711	
5427	0	32900	32748	
5428	0	32954	32744	
5429	0	32838	32764	
5430	0	32764	32742	
5431	0	32780	32740	
5432	0	32804	32656	
5433	0	32768	32718	
5434	0	32788	32704	
5435	0	32716	32726	
5436	0	32782	32730	
5437	0	32754	32732	
5438	0	32782	32804	
5439	0	32810	32711	
5440	0	32854	32714	
5441	0	32834	32834	
5442	0	32790	32883	
5443	0	32804	32804	
5444	0	32840	32775	
5445	0	32812	32630	
5446	0	32780	32766	
5447	0	32800	32716	
5448	0	32822	32788	
5449	0	32800	32879	
5450	0	32816	32980	
5451	0	32748	32962	
5452	0	32792	32917	
5453	0	32775	32929	
5454	0	32792	32783	
5455	0	32822	32714	
5456	0	32854	32796	
5457	0	32884	32752	
5458	0	32838	32806	
5459	0	32808	32790	
5460	0	32840	32766	
5461	0	32812	32700	
5462	0	32801	32780	
5463	0	32770	32800	
5464	0	32764	32763	
5465	0	32784	32758	
5466	0	32788	32788	
5467	0	32800	32808	
5468	0	32880	32855	
5469	0	32776	32791	
5470	0	32840	32832	
5471	0	32884	32832	
5472	0	32736	32834	
5473	0	32828	32790	
5474	0	32768	32796	
5475	0	32826	32764	
5476	0	32830	32838	
5477	0	32818	32772	
5478	0	32776	32747	
5479	0	32814	32746	
5480	0	32772	32756	
5481	0	32804	32806	
5482	0	32862	32844	
5483	0	32828	32874	
5484	0	32798	32793	
5485	0	32759	32742	
5486	0	32816	32848	
5487	0	32824	32736	
5488	0	32792	32831	
5489	0	32820	32734	
5490	0	32844	32711	
5491	0	32892	32735	
5492	0	32842	32633	
5493	0	32840	32655	
5494	0	32872	32636	
5495	0	32976	32711	
5496	0	32800	32695	
5497	0	32808	32742	
5498	0	32808	32696	
5499	0	32856	32666	
5500	0	32728	32676	
5501	0	32756	32694	
5502	0	32728	32695	
5503	0	32746	32756	
5504	0	32816	32718	
5505	0	32810	32813	
5506	0	32788	32799	
5507	0	32792	32804	
5508	0	32754	32878	
5509	0	32760	32890	
5510	0	32830	32806	
5511	0	32778	32734	
5512	0	32808	32794	
5513	0	32840	32743	
5514	0	32796	32726	
5515	0	32816	32790	
5516	0	32852	32836	
5517	0	32824	32855	
5518	0	32800	32730	
5519	0	32894	32766	
5520	0	32838	32775	
5521	0	32800	32647	
5522	0	32892	32764	
5523	0	32764	32793	
5524	0	32820	32746	
5525	0	32834	32678	
5526	0	32800	32692	
5527	0	32810	32714	
5528	0	32812	32858	
5529	0	32828	32812	
5530	0	32800	32772	
5531	0	32780	32810	
5532	0	32872	32830	
5533	0	32822	32808	
5534	0	32896	32814	
5535	0	32828	32896	
5536	0	32826	32839	
5537	0	32800	32772	
5538	0	32844	32752	
5539	0	32864	32824	
5540	0	32836	32870	
5541	0	32744	32807	
5542	0	32790	32816	
5543	0	32836	32774	
5544	0	32808	32813	
5545	0	32830	32775	
5546	0	32804	32746	
5547	0	32816	32775	
5548	0	32844	32876	
5549	0	32832	32806	
5550	0	32788	32815	
5551	0	32804	32826	
5552	0	32784	32896	
5553	0	32798	32839	
5554	0	32844	32878	
5555	0	32776	32746	
5556	0	32826	32810	
5557	0	32840	32834	
5558	0	32800	32830	
5559	0	32832	32724	
5560	0	32868	32601	
5561	0	32868	32764	
5562	0	32800	32636	
5563	0	32732	32688	
5564	0	32832	32662	
5565	0	32830	32716	
5566	0	32846	32652	
5567	0	32857	32748	
5568	0	32841	32737	
5569	0	32792	32736	
5570	0	32832	32762	
5571	0	32772	32817	
5572	0	32894	32818	
5573	0	32804	32862	
5574	0	32812	32756	
5575	0	32800	32763	
5576	0	32824	32756	
5577	0	32814	32796	
5578	0	32820	32756	
5579	0	32780	32724	
5580	0	32808	32773	
5581	0	32810	32834	
5582	0	32816	32796	
5583	0	32756	32792	
5584	0	32868	32746	
5585	0	32748	32711	
5586	0	32808	32748	
5587	0	32792	32774	
5588	0	32766	32714	
5589	0	32804	32714	
5590	0	32844	32718	
5591	0	32782	32734	
5592	0	32836	32722	
5593	0	32772	32684	
5594	0	32772	32700	
5595	0	32784	32696	
5596	0	32756	32768	
5597	0	32816	32622	
5598	0	32810	32644	
5599	0	32846	32618	
5600	0	32732	32692	
5601	0	32828	32690	
5602	0	32796	32872	
5603	0	32840	32902	
5604	0	32764	32720	
5605	0	32856	32724	
5606	0	32796	32772	
5607	0	32866	32788	
5608	0	32840	32724	
5609	0	32842	32740	
5610	0	32872	32707	
5611	0	32808	32744	
5612	0	32792	32766	
5613	0	32796	32868	
5614	0	32834	32818	
5615	0	32848	32814	
5616	0	32848	32811	
5617	0	32724	32704	
5618	0	32740	32760	
5619	0	32792	32774	
5620	0	32784	32711	
5621	0	32812	32696	
5622	0	32750	32750	
5623	0	32788	32756	
5624	0	32804	32807	
5625	0	32752	32824	
5626	0	32860	32748	
5627	0	32876	32775	
5628	0	32800	32788	
5629	0	32776	32775	
5630	0	32764	32824	
5631	0	32772	32775	
5632	0	32832	32808	
5633	0	32796	32751	
5634	0	32820	32668	
5635	0	32896	32682	
5636	0	32844	32746	
5637	0	32836	32699	
5638	0	32804	32686	
5639	0	32780	32700	
5640	0	32816	32682	
5641	0	32834	32679	
5642	0	32812	32612	
5643	0	32852	32684	
5644	0	32768	32695	
5645	0	32748	32828	
5646	0	32820	32734	
5647	0	32852	32794	
5648	0	32800	32868	
5649	0	32852	32771	
5650	0	32868	32860	
5651	0	32780	32836	
5652	0	32808	32764	
5653	0	32832	32796	
5654	0	32772	32824	
5655	0	32824	32848	
5656	0	32844	32852	
5657	0	32788	32816	
5658	0	32828	32872	
5659	0	32862	32912	
5660	0	32788	32775	
5661	0	32804	32798	
5662	0	32832	32810	
5663	0	32818	32740	
5664	0	32794	32700	
5665	0	32884	32768	
5666	0	32828	32668	
5667	0	32734	32762	
5668	0	32808	32730	
5669	0	32852	32785	
5670	0	32860	32862	
5671	0	32800	32747	
5672	0	32836	32774	
5673	0	32804	32714	
5674	0	32786	32790	
5675	0	32814	32775	
5676	0	32868	32652	
5677	0	32828	32636	
5678	0	32832	32694	
5679	0	32888	32743	
5680	0	32836	32716	
5681	0	32752	32836	
5682	0	32728	32820	
5683	0	32812	32860	
5684	0	32752	32866	
5685	0	32778	32838	
5686	0	32750	32775	
5687	0	32820	32748	
5688	0	32838	32801	
5689	0	32816	32724	
5690	0	32756	32736	
5691	0	32798	32757	
5692	0	32816	32800	
5693	0	32804	32758	
5694	0	32784	32838	
5695	0	32834	32753	
5696	0	32844	32772	
5697	0	32792	32764	
5698	0	32800	32656	
5699	0	32844	32744	
5700	0	32764	32663	
5701	0	32826	32705	
5702	0	32776	32850	
5703	0	32788	32775	
5704	0	32740	32875	
5705	0	32832	32903	
5706	0	32802	32824	
5707	0	32832	32764	
5708	0	32728	32750	
5709	0	32826	32826	
5710	0	32884	32758	
5711	0	32856	32772	
5712	0	32788	32806	
5713	0	32832	32870	
5714	0	32808	32775	
5715	0	32828	32668	
5716	0	32780	32758	
5717	0	32760	32714	
5718	0	32830	32750	
5719	0	32764	32679	
5720	0	32832	32703	
5721	0	32748	32751	
5722	0	32756	32682	
5723	0	32776	32748	
5724	0	32808	32730	
5725	0	32834	32721	
5726	0	32844	32711	
5727	0	32800	32727	
5728	0	32798	32840	
5729	0	32840	32775	
5730	0	32849	32800	
5731	0	32868	32761	
5732	0	32842	32736	
5733	0	32834	32720	
5734	0	32792	32768	
5735	0	32816	32775	
5736	0	32810	32745	
5737	0	32832	32740	
5738	0	32792	32800	
5739	0	32704	32694	
5740	0	32880	32758	
5741	0	32836	32864	
5742	0	32742	32774	
5743	0	32822	32727	
5744	0	32841	32900	
5745	0	32784	32870	
5746	0	32832	32808	
5747	0	32750	32730	
5748	0	32828	32702	
5749	0	32832	32632	
5750	0	32852	32694	
5751	0	32796	32722	
5752	0	32816	32620	
5753	0	32836	32790	
5754	0	32847	32784	
5755	0	32840	32801	
5756	0	32848	32822	
5757	0	32828	32881	
5758	0	32808	32708	
5759	0	32814	32798	
5760	0	32774	32746	
5761	0	32856	32821	
5762	0	32784	32728	
5763	0	32768	32718	
5764	0	32800	32752	
5765	0	32866	32718	
5766	0	32756	32675	
5767	0	32822	32780	
5768	0	32788	32642	
5769	0	32832	32727	
5770	0	32808	32668	
5771	0	32756	32702	
5772	0	32768	32702	
5773	0	32848	32722	
5774	0	32828	32750	
5775	0	32804	32711	
5776	0	32872	32686	
5777	0	32818	32738	
5778	0	32816	32768	
5779	0	32805	32794	
5780	0	32832	32818	
5781	0	32852	32854	
5782	0	32856	32824	
5783	0	32796	32840	
5784	0	32772	32790	
5785	0	32760	32762	
5786	0	32816	32655	
5787	0	32782	32654	
5788	0	32796	32878	
5789	0	32826	32838	
5790	0	32844	32818	
5791	0	32836	32802	
5792	0	32760	32802	
5793	0	32788	32892	
5794	0	32788	32838	
5795	0	32790	32774	
5796	0	32844	32670	
5797	0	32808	32744	
5798	0	32848	32859	
5799	0	32764	32868	
5800	0	32796	32912	
5801	0	32824	32902	
5802	0	32768	32806	
5803	0	32832	32767	
5804	0	32760	32839	
5805	0	32870	32775	
5806	0	32724	32791	
5807	0	32844	32817	
5808	0	32816	32824	
5809	0	32832	32734	
5810	0	32794	32736	
5811	0	32798	32816	
5812	0	32854	32852	
5813	0	32824	32884	
5814	0	32856	32885	
5815	0	32848	32788	
5816	0	32832	32775	
5817	0	32796	32890	
5818	0	32826	32775	
5819	0	32836	32799	
5820	0	32872	32788	
5821	0	32844	32775	
5822	0	32828	32802	
5823	0	32824	32774	
5824	0	32644	32770	
5825	0	32804	32732	
5826	0	32784	32742	
5827	0	32734	32708	
5828	0	32708	32684	
5829	0	32848	32756	
5830	0	32758	32638	
5831	0	32836	32656	
5832	0	32844	32660	
5833	0	32916	32734	
5834	0	32846	32766	
5835	0	32808	32732	
5836	0	32832	32775	
5837	0	32846	32698	
5838	0	32876	32774	
5839	0	32736	32768	
5840	0	32772	32712	
5841	0	32808	32807	
5842	0	32794	32684	
5843	0	32812	32682	
5844	0	32740	32671	
5845	0	32740	32680	
5846	0	32752	32647	
5847	0	32826	32711	
5848	0	32814	32720	
5849	0	32844	32830	
5850	0	32764	32810	
5851	0	32820	32814	
5852	0	32794	32743	
5853	0	32816	32785	
5854	0	32868	32750	
5855	0	32836	32765	
5856	0	32800	32775	
5857	0	32836	32719	
5858	0	32846	32700	
5859	0	32870	32798	
5860	0	32876	32836	
5861	0	32808	32824	
5862	0	32788	32798	
5863	0	32836	32882	
5864	0	32820	32898	
5865	0	32824	32886	
5866	0	32809	32711	
5867	0	32834	32750	
5868	0	32788	32758	
5869	0	32800	32704	
5870	0	32760	32708	
5871	0	32796	32736	
5872	0	32820	32860	
5873	0	32854	32724	
5874	0	32874	32760	
5875	0	32754	32804	
5876	0	32832	32807	
5877	0	32760	32764	
5878	0	32866	32774	
5879	0	32860	32816	
5880	0	32844	32748	
5881	0	32766	32690	
5882	0	32778	32772	
5883	0	32796	32871	
5884	0	32760	32738	
5885	0	32760	32802	
5886	0	32832	32839	
5887	0	32772	32714	
5888	0	32758	32678	
5889	0	32832	32760	
5890	0	32872	32775	
5891	0	32808	32720	
5892	0	32748	32699	
5893	0	32856	32764	
5894	0	32792	32722	
5895	0	32730	32660	
5896	0	32812	32772	
5897	0	32860	32842	
5898	0	32852	32686	
5899	0	32808	32650	
5900	0	32848	32698	
5901	0	32889	32662	
5902	0	32820	32729	
5903	0	32872	32719	
5904	0	32784	32746	
5905	0	32766	32758	
5906	0	32801	32722	
5907	0	32846	32690	
5908	0	32820	32702	
5909	0	32814	32711	
5910	0	32780	32846	
5911	0	32856	32842	
5912	0	32840	32775	
5913	0	32840	32788	
5914	0	32800	32821	
5915	0	32818	32838	
5916	0	32832	32734	
5917	0	32812	32841	
5918	0	32800	32804	
5919	0	32742	32804	
5920	0	32884	32842	
5921	0	32900	32790	
5922	0	32810	32790	
5923	0	32808	32730	
5924	0	32868	32725	
5925	0	32774	32823	
5926	0	32772	32788	
5927	0	32800	32830	
5928	0	32740	32772	
5929	0	32764	32828	
5930	0	32792	32775	
5931	0	32864	32832	
5932	0	32816	32746	
5933	0	32838	32749	
5934	0	32764	32820	
5935	0	32752	32876	
5936	0	32864	32887	
5937	0	32890	32855	
5938	0	32848	32750	
5939	0	32832	32743	
5940	0	32798	32798	
5941	0	32806	32743	
5942	0	32836	32724	
5943	0	32756	32756	
5944	0	32808	32753	
5945	0	32790	32769	
5946	0	32788	32818	
5947	0	32824	32810	
5948	0	32786	32810	
5949	0	32774	32772	
5950	0	32852	32766	
5951	0	32784	32862	
5952	0	32852	32802	
5953	0	32824	32789	
5954	0	32862	32798	
5955	0	32812	32852	
5956	0	32766	32836	
5957	0	32816	32767	
5958	0	32780	32836	
5959	0	32865	32824	
5960	0	32840	32775	
5961	0	32842	32838	
5962	0	32772	32775	
5963	0	32736	32740	
5964	0	32816	32735	
5965	0	32728	32836	
5966	0	32778	32882	
5967	0	32836	32846	
5968	0	32808	32836	
5969	0	32812	32816	
5970	0	32800	32810	
5971	0	32772	32840	
5972	0	32804	32742	
5973	0	32808	32726	
5974	0	32692	32702	
5975	0	32748	32626	
5976	0	32758	32666	
5977	0	32796	32702	
5978	0	32777	32608	
5979	0	32768	32706	
5980	0	32736	32572	
5981	0	32752	32606	
5982	0	32776	32662	
5983	0	32702	32654	
5984	0	32700	32608	
5985	0	32664	32615	
5986	0	32670	32692	
5987	0	32736	32636	
5988	0	32694	32654	
5989	0	32736	32642	
5990	0	32738	32738	
5991	0	32760	32775	
5992	0	32792	32656	
5993	0	32848	32796	
5994	0	32836	32756	
5995	0	32808	32754	
5996	0	32888	32686	
5997	0	32940	32828	
5998	0	33056	32812	
5999	0	33136	32996	
6000	0	33104	33098	
6001	0	33162	33142	
6002	0	33158	33191	
6003	0	33180	33287	
6004	0	33112	33300	
6005	0	33064	33216	
6006	0	33064	33262	
6007	0	32898	33143	
6008	0	32818	33057	
6009	0	32794	32988	
6010	0	32790	32855	
6011	0	32720	32694	
6012	0	32692	32542	
