# OpenSignals Text File Format. Version 1
# {"00:07:80:8C:0A:39": {"position": 0, "device": "biosignalsplux", "device name": "00:07:80:8C:0A:39", "device connection": "BTH00:07:80:8C:0A:39", "sampling rate": 1000, "resolution": [16, 16], "firmware version": 776, "comments": "", "keywords": "", "mode": 0, "sync interval": 2, "date": "2023-3-20", "time": "9:46:59.206", "channels": [1, 2], "sensor": ["EMG", "EMG"], "label": ["CH1", "CH2"], "column": ["nSeq", "DI", "CH1", "CH2"], "special": [{"SpO2": [80, 40, 5, 4, 3, 3]}, {"SpO2": [80, 40, 5, 4, 3, 3]}, {"SpO2": [80, 40, 5, 4, 3, 3]}, {"SpO2": [80, 40, 5, 4, 3, 3]}, {"SpO2": [80, 40, 5, 4, 3, 3]}, {"SpO2": [80, 40, 5, 4, 3, 3]}, {"SpO2": [80, 40, 5, 4, 3, 3]}, {"SpO2": [80, 40, 5, 4, 3, 3]}], "digital IO": [0, 1], "sleeve color": ["gray", "yellow"], "convertedValues": 0}}
# EndOfHeader
0	0	32816	32794	
1	0	32816	32710	
2	0	32814	32736	
3	0	32756	32702	
4	0	32782	32716	
5	0	32780	32750	
6	0	32826	32817	
7	0	32818	32788	
8	0	32860	32815	
9	0	32828	32807	
10	0	32814	32807	
11	0	32796	32801	
12	0	32792	32822	
13	0	32748	32828	
14	0	32840	32743	
15	0	32762	32644	
16	0	32808	32704	
17	0	32816	32710	
18	0	32754	32862	
19	0	32822	32804	
20	0	32778	32846	
21	0	32752	32854	
22	0	32817	32836	
23	0	32748	32831	
24	0	32836	32775	
25	0	32866	32673	
26	0	32812	32840	
27	0	32768	32743	
28	0	32828	32868	
29	0	32814	32775	
30	0	32756	32839	
31	0	32792	32775	
32	0	32810	32774	
33	0	32824	32680	
34	0	32790	32719	
35	0	32836	32806	
36	0	32780	32737	
37	0	32760	32647	
38	0	32812	32856	
39	0	32832	32818	
40	0	32760	32758	
41	0	32836	32775	
42	0	32838	32757	
43	0	32768	32812	
44	0	32806	32770	
45	0	32824	32839	
46	0	32788	32773	
47	0	32804	32700	
48	0	32792	32673	
49	0	32801	32719	
50	0	32832	32684	
51	0	32820	32766	
52	0	32848	32775	
53	0	32790	32775	
54	0	32804	32830	
55	0	32810	32775	
56	0	32818	32736	
57	0	32872	32794	
58	0	32870	32800	
59	0	32786	32772	
60	0	32767	32708	
61	0	32836	32832	
62	0	32838	32768	
63	0	32838	32819	
64	0	32814	32804	
65	0	32814	32775	
66	0	32900	32732	
67	0	32796	32828	
68	0	32852	32802	
69	0	32836	32788	
70	0	32772	32839	
71	0	32804	32735	
72	0	32790	32775	
73	0	32792	32726	
74	0	32766	32816	
75	0	32792	32775	
76	0	32848	32759	
77	0	32782	32847	
78	0	32932	32911	
79	0	32800	32775	
80	0	32796	32858	
81	0	32844	32846	
82	0	32874	32798	
83	0	32776	32828	
84	0	32756	32772	
85	0	32796	32687	
86	0	32834	32678	
87	0	32808	32696	
88	0	32849	32694	
89	0	32876	32766	
90	0	32788	32756	
91	0	32896	32775	
92	0	32864	32750	
93	0	32808	32740	
94	0	32816	32768	
95	0	32794	32712	
96	0	32768	32800	
97	0	32792	32821	
98	0	32784	32812	
99	0	32856	32818	
100	0	32801	32900	
101	0	32750	32678	
102	0	32840	32798	
103	0	32820	32807	
104	0	32804	32832	
105	0	32838	32634	
106	0	32798	32756	
107	0	32840	32796	
108	0	32780	32666	
109	0	32800	32799	
110	0	32804	32810	
111	0	32872	32850	
112	0	32760	32768	
113	0	32854	32716	
114	0	32842	32772	
115	0	32792	32687	
116	0	32800	32742	
117	0	32786	32716	
118	0	32816	32862	
119	0	32868	32775	
120	0	32798	32724	
121	0	32780	32816	
122	0	32856	32756	
123	0	32744	32762	
124	0	32796	32710	
125	0	32737	32697	
126	0	32870	32860	
127	0	32788	32752	
128	0	32776	32678	
129	0	32798	32870	
130	0	32858	32796	
131	0	32760	32838	
132	0	32884	32692	
133	0	32828	32802	
134	0	32840	32775	
135	0	32808	32825	
136	0	32806	32860	
137	0	32792	32748	
138	0	32764	32782	
139	0	32824	32684	
140	0	32848	32744	
141	0	32840	32764	
142	0	32820	32824	
143	0	32852	32692	
144	0	32828	32775	
145	0	32824	32790	
146	0	32854	32788	
147	0	32756	32840	
148	0	32768	32808	
149	0	32820	32814	
150	0	32804	32832	
151	0	32772	32805	
152	0	32846	32791	
153	0	32822	32800	
154	0	32824	32820	
155	0	32824	32825	
156	0	32788	32750	
157	0	32784	32804	
158	0	32836	32756	
159	0	32788	32814	
160	0	32844	32693	
161	0	32822	32786	
162	0	32814	32704	
163	0	32804	32806	
164	0	32788	32740	
165	0	32804	32805	
166	0	32868	32775	
167	0	32776	32775	
168	0	32784	32764	
169	0	32820	32758	
170	0	32768	32800	
171	0	32802	32708	
172	0	32824	32770	
173	0	32816	32738	
174	0	32742	32738	
175	0	32896	32692	
176	0	32756	32742	
177	0	32847	32693	
178	0	32888	32852	
179	0	32872	32827	
180	0	32806	32812	
181	0	32824	32770	
182	0	32776	32775	
183	0	32841	32716	
184	0	32744	32732	
185	0	32836	32596	
186	0	32816	32706	
187	0	32768	32734	
188	0	32766	32720	
189	0	32834	32734	
190	0	32924	32762	
191	0	32868	32711	
192	0	32792	32726	
193	0	32781	32682	
194	0	32784	32863	
195	0	32800	32815	
196	0	32830	32746	
197	0	32840	32838	
198	0	32806	32769	
199	0	32788	32743	
200	0	32820	32772	
201	0	32804	32766	
202	0	32882	32858	
203	0	32772	32704	
204	0	32816	32654	
205	0	32858	32702	
206	0	32802	32764	
207	0	32816	32846	
208	0	32743	32766	
209	0	32800	32768	
210	0	32790	32839	
211	0	32826	32820	
212	0	32824	32790	
213	0	32774	32764	
214	0	32740	32692	
215	0	32768	32686	
216	0	32828	32748	
217	0	32850	32764	
218	0	32768	32871	
219	0	32812	32836	
220	0	32732	32870	
221	0	32814	32724	
222	0	32792	32710	
223	0	32814	32723	
224	0	32868	32892	
225	0	32806	32820	
226	0	32824	32732	
227	0	32802	32676	
228	0	32844	32858	
229	0	32828	32750	
230	0	32822	32746	
231	0	32842	32790	
232	0	32712	32727	
233	0	32736	32772	
234	0	32804	32788	
235	0	32800	32806	
236	0	32828	32768	
237	0	32868	32774	
238	0	32860	32676	
239	0	32821	32734	
240	0	32728	32743	
241	0	32844	32661	
242	0	32836	32781	
243	0	32852	32743	
244	0	32804	32679	
245	0	32708	32620	
246	0	32790	32718	
247	0	32800	32666	
248	0	32824	32718	
249	0	32828	32728	
250	0	32816	32802	
251	0	32824	32791	
252	0	32836	32804	
253	0	32832	32732	
254	0	32778	32821	
255	0	32832	32808	
256	0	32824	32806	
257	0	32750	32879	
258	0	32852	32788	
259	0	32765	32844	
260	0	32768	32832	
261	0	32794	32816	
262	0	32760	32839	
263	0	32824	32862	
264	0	32788	32762	
265	0	32816	32911	
266	0	32852	32760	
267	0	32840	32804	
268	0	32804	32806	
269	0	32812	32706	
270	0	32860	32732	
271	0	32860	32805	
272	0	32810	32704	
273	0	32824	32751	
274	0	32797	32828	
275	0	32858	32804	
276	0	32782	32766	
277	0	32852	32800	
278	0	32816	32774	
279	0	32802	32810	
280	0	32860	32839	
281	0	32808	32826	
282	0	32844	32878	
283	0	32800	32732	
284	0	32750	32698	
285	0	32828	32725	
286	0	32786	32753	
287	0	32838	32724	
288	0	32844	32754	
289	0	32836	32724	
290	0	32850	32690	
291	0	32756	32700	
292	0	32788	32676	
293	0	32792	32679	
294	0	32780	32715	
295	0	32776	32796	
296	0	32786	32820	
297	0	32814	32775	
298	0	32852	32806	
299	0	32856	32854	
300	0	32884	32764	
301	0	32812	32768	
302	0	32840	32772	
303	0	32810	32713	
304	0	32724	32822	
305	0	32768	32756	
306	0	32804	32668	
307	0	32788	32728	
308	0	32822	32704	
309	0	32816	32832	
310	0	32880	32839	
311	0	32732	32826	
312	0	32856	32790	
313	0	32808	32796	
314	0	32796	32754	
315	0	32812	32820	
316	0	32832	32868	
317	0	32840	32824	
318	0	32832	32878	
319	0	32808	32838	
320	0	32840	32750	
321	0	32792	32681	
322	0	32776	32724	
323	0	32798	32767	
324	0	32720	32775	
325	0	32822	32816	
326	0	32768	32735	
327	0	32810	32622	
328	0	32772	32754	
329	0	32846	32784	
330	0	32884	32790	
331	0	32796	32756	
332	0	32814	32761	
333	0	32872	32855	
334	0	32740	32816	
335	0	32836	32836	
336	0	32828	32808	
337	0	32774	32740	
338	0	32860	32824	
339	0	32764	32748	
340	0	32802	32798	
341	0	32836	32747	
342	0	32854	32807	
343	0	32816	32798	
344	0	32820	32798	
345	0	32828	32768	
346	0	32768	32760	
347	0	32740	32810	
348	0	32804	32748	
349	0	32808	32796	
350	0	32840	32816	
351	0	32820	32667	
352	0	32888	32675	
353	0	32780	32803	
354	0	32812	32710	
355	0	32772	32775	
356	0	32804	32735	
357	0	32914	32812	
358	0	32844	32771	
359	0	32788	32850	
360	0	32812	32848	
361	0	32880	32820	
362	0	32788	32724	
363	0	32852	32775	
364	0	32832	32691	
365	0	32769	32748	
366	0	32812	32884	
367	0	32832	32862	
368	0	32856	32764	
369	0	32812	32836	
370	0	32834	32710	
371	0	32824	32800	
372	0	32742	32775	
373	0	32756	32853	
374	0	32860	32740	
375	0	32776	32847	
376	0	32832	32795	
377	0	32881	32751	
378	0	32836	32796	
379	0	32774	32738	
380	0	32774	32865	
381	0	32854	32682	
382	0	32834	32772	
383	0	32802	32774	
384	0	32754	32756	
385	0	32768	32850	
386	0	32796	32814	
387	0	32756	32719	
388	0	32876	32680	
389	0	32752	32690	
390	0	32770	32766	
391	0	32910	32794	
392	0	32786	32746	
393	0	32736	32708	
394	0	32784	32730	
395	0	32768	32774	
396	0	32900	32836	
397	0	32804	32775	
398	0	32846	32724	
399	0	32784	32750	
400	0	32828	32743	
401	0	32816	32750	
402	0	32756	32775	
403	0	32796	32800	
404	0	32834	32871	
405	0	32804	32802	
406	0	32908	32781	
407	0	32892	32704	
408	0	32860	32746	
409	0	32795	32674	
410	0	32900	32728	
411	0	32804	32743	
412	0	32812	32764	
413	0	32804	32684	
414	0	32752	32728	
415	0	32847	32725	
416	0	32786	32822	
417	0	32768	32682	
418	0	32796	32720	
419	0	32801	32740	
420	0	32845	32712	
421	0	32876	32798	
422	0	32814	32791	
423	0	32793	32752	
424	0	32780	32807	
425	0	32760	32804	
426	0	32784	32760	
427	0	32741	32724	
428	0	32836	32756	
429	0	32836	32750	
430	0	32872	32786	
431	0	32822	32817	
432	0	32746	32844	
433	0	32822	32775	
434	0	32736	32802	
435	0	32872	32754	
436	0	32772	32800	
437	0	32804	32796	
438	0	32852	32814	
439	0	32816	32846	
440	0	32766	32822	
441	0	32772	32775	
442	0	32816	32828	
443	0	32804	32820	
444	0	32752	32820	
445	0	32784	32838	
446	0	32808	32732	
447	0	32766	32764	
448	0	32845	32735	
449	0	32876	32668	
450	0	32880	32708	
451	0	32921	32668	
452	0	32864	32618	
453	0	32960	32518	
454	0	32928	32581	
455	0	32896	32544	
456	0	32908	32498	
457	0	32972	32575	
458	0	32964	32696	
459	0	32884	32583	
460	0	32972	32747	
461	0	32992	32712	
462	0	32802	32775	
463	0	32862	32798	
464	0	32920	32735	
465	0	32936	32794	
466	0	32936	32722	
467	0	32944	32652	
468	0	32856	32714	
469	0	32764	32752	
470	0	32744	32760	
471	0	32688	32748	
472	0	32580	32775	
473	0	32584	33042	
474	0	32506	33052	
475	0	32504	33031	
476	0	32464	33137	
477	0	32404	33166	
478	0	32400	33246	
479	0	32424	33138	
480	0	32524	32976	
481	0	32586	32996	
482	0	32648	32898	
483	0	32748	32774	
484	0	32786	32730	
485	0	32778	32770	
486	0	32784	32775	
487	0	32820	32705	
488	0	32912	32726	
489	0	32886	32668	
490	0	32990	32706	
491	0	32919	32664	
492	0	32968	32596	
493	0	33010	32636	
494	0	32944	32529	
495	0	32980	32576	
496	0	32952	32652	
497	0	32956	32767	
498	0	32906	32772	
499	0	32904	32663	
500	0	32822	32702	
501	0	32800	32690	
502	0	32924	32812	
503	0	32840	32790	
504	0	32812	32702	
505	0	32848	32743	
506	0	32820	32804	
507	0	32862	32672	
508	0	32832	32712	
509	0	32844	32666	
510	0	32836	32742	
511	0	32808	32815	
512	0	32836	32772	
513	0	32791	32775	
514	0	32726	32800	
515	0	32748	32892	
516	0	32736	32826	
517	0	32768	32771	
518	0	32770	32724	
519	0	32776	32684	
520	0	32924	32732	
521	0	32900	32818	
522	0	32828	32751	
523	0	32800	32809	
524	0	32824	32839	
525	0	32820	32792	
526	0	32854	32908	
527	0	32788	32868	
528	0	32840	32792	
529	0	32804	32767	
530	0	32816	32772	
531	0	32774	32823	
532	0	32788	32676	
533	0	32780	32775	
534	0	32756	32794	
535	0	32814	32847	
536	0	32836	32826	
537	0	32864	32822	
538	0	32820	32823	
539	0	32829	32830	
540	0	32832	32754	
541	0	32828	32764	
542	0	32736	32724	
543	0	32750	32704	
544	0	32850	32734	
545	0	32720	32724	
546	0	32830	32660	
547	0	32796	32774	
548	0	32844	32746	
549	0	32848	32800	
550	0	32816	32842	
551	0	32798	32775	
552	0	32784	32752	
553	0	32788	32794	
554	0	32848	32775	
555	0	32760	32800	
556	0	32828	32750	
557	0	32872	32742	
558	0	32840	32828	
559	0	32824	32754	
560	0	32824	32871	
561	0	32802	32775	
562	0	32750	32744	
563	0	32804	32799	
564	0	32748	32775	
565	0	32844	32816	
566	0	32784	32802	
567	0	32766	32788	
568	0	32824	32768	
569	0	32824	32711	
570	0	32794	32703	
571	0	32840	32775	
572	0	32794	32761	
573	0	32782	32775	
574	0	32828	32775	
575	0	32788	32807	
576	0	32776	32761	
577	0	32824	32721	
578	0	32820	32716	
579	0	32876	32635	
580	0	32836	32716	
581	0	32816	32772	
582	0	32846	32736	
583	0	32772	32738	
584	0	32840	32806	
585	0	32810	32772	
586	0	32836	32748	
587	0	32880	32744	
588	0	32804	32740	
589	0	32842	32736	
590	0	32844	32852	
591	0	32830	32790	
592	0	32760	32862	
593	0	32769	32748	
594	0	32822	32802	
595	0	32872	32822	
596	0	32792	32840	
597	0	32784	32820	
598	0	32750	32758	
599	0	32748	32692	
600	0	32820	32698	
601	0	32872	32750	
602	0	32768	32812	
603	0	32816	32770	
604	0	32810	32744	
605	0	32832	32758	
606	0	32808	32636	
607	0	32788	32736	
608	0	32866	32798	
609	0	32816	32870	
610	0	32792	32800	
611	0	32774	32783	
612	0	32868	32748	
613	0	32872	32798	
614	0	32828	32780	
615	0	32852	32710	
616	0	32808	32703	
617	0	32796	32732	
618	0	32784	32772	
619	0	32816	32751	
620	0	32788	32791	
621	0	32826	32766	
622	0	32764	32813	
623	0	32814	32839	
624	0	32828	32750	
625	0	32846	32724	
626	0	32878	32730	
627	0	32854	32762	
628	0	32832	32772	
629	0	32826	32762	
630	0	32814	32770	
631	0	32876	32750	
632	0	32832	32756	
633	0	32856	32820	
634	0	32760	32732	
635	0	32830	32716	
636	0	32796	32740	
637	0	32784	32796	
638	0	32824	32774	
639	0	32869	32823	
640	0	32816	32871	
641	0	32792	32750	
642	0	32788	32738	
643	0	32752	32671	
644	0	32728	32736	
645	0	32792	32714	
646	0	32808	32660	
647	0	32782	32684	
648	0	32840	32695	
649	0	32820	32721	
650	0	32920	32686	
651	0	32829	32680	
652	0	32852	32774	
653	0	32768	32772	
654	0	32814	32796	
655	0	32878	32788	
656	0	32778	32812	
657	0	32852	32862	
658	0	32900	32830	
659	0	32816	32812	
660	0	32784	32814	
661	0	32726	32674	
662	0	32812	32736	
663	0	32798	32692	
664	0	32804	32750	
665	0	32816	32796	
666	0	32912	32796	
667	0	32818	32826	
668	0	32796	32856	
669	0	32778	32712	
670	0	32858	32590	
671	0	32868	32695	
672	0	32878	32702	
673	0	32777	32732	
674	0	32784	32874	
675	0	32776	32791	
676	0	32772	32802	
677	0	32860	32735	
678	0	32910	32742	
679	0	32927	32700	
680	0	32812	32748	
681	0	32840	32788	
682	0	32804	32786	
683	0	32794	32790	
684	0	32798	32761	
685	0	32760	32852	
686	0	32788	32770	
687	0	32810	32775	
688	0	32732	32876	
689	0	32792	32740	
690	0	32720	32743	
691	0	32824	32804	
692	0	32756	32708	
693	0	32816	32640	
694	0	32793	32663	
695	0	32868	32725	
696	0	32830	32655	
697	0	32812	32748	
698	0	32744	32646	
699	0	32804	32752	
700	0	32808	32801	
701	0	32844	32780	
702	0	32801	32724	
703	0	32758	32710	
704	0	32812	32738	
705	0	32800	32761	
706	0	32804	32806	
707	0	32776	32804	
708	0	32800	32866	
709	0	32788	32846	
710	0	32872	32847	
711	0	32804	32762	
712	0	32816	32718	
713	0	32804	32606	
714	0	32772	32775	
715	0	32832	32844	
716	0	32828	32838	
717	0	32854	32812	
718	0	32848	32748	
719	0	32836	32792	
720	0	32840	32799	
721	0	32820	32762	
722	0	32712	32746	
723	0	32816	32790	
724	0	32774	32792	
725	0	32788	32710	
726	0	32834	32772	
727	0	32804	32824	
728	0	32810	32804	
729	0	32804	32756	
730	0	32774	32756	
731	0	32808	32764	
732	0	32792	32750	
733	0	32808	32720	
734	0	32814	32735	
735	0	32776	32732	
736	0	32826	32818	
737	0	32745	32798	
738	0	32812	32768	
739	0	32784	32810	
740	0	32832	32816	
741	0	32868	32823	
742	0	32784	32768	
743	0	32742	32775	
744	0	32832	32775	
745	0	32808	32750	
746	0	32826	32775	
747	0	32804	32788	
748	0	32870	32826	
749	0	32820	32868	
750	0	32750	32752	
751	0	32824	32830	
752	0	32780	32826	
753	0	32766	32834	
754	0	32774	32735	
755	0	32788	32700	
756	0	32780	32792	
757	0	32780	32848	
758	0	32746	32790	
759	0	32753	32750	
760	0	32872	32820	
761	0	32856	32788	
762	0	32814	32750	
763	0	32836	32775	
764	0	32888	32728	
765	0	32788	32636	
766	0	32828	32775	
767	0	32860	32756	
768	0	32794	32837	
769	0	32810	32806	
770	0	32852	32758	
771	0	32800	32827	
772	0	32732	32752	
773	0	32744	32647	
774	0	32776	32752	
775	0	32804	32824	
776	0	32816	32845	
777	0	32836	32855	
778	0	32812	32764	
779	0	32826	32792	
780	0	32856	32782	
781	0	32875	32732	
782	0	32832	32820	
783	0	32830	32796	
784	0	32800	32752	
785	0	32800	32848	
786	0	32720	32810	
787	0	32852	32847	
788	0	32788	32872	
789	0	32868	32738	
790	0	32834	32736	
791	0	32855	32696	
792	0	32804	32775	
793	0	32678	32679	
794	0	32824	32840	
795	0	32788	32802	
796	0	32784	32839	
797	0	32856	32735	
798	0	32814	32862	
799	0	32836	32819	
800	0	32802	32694	
801	0	32784	32788	
802	0	32892	32752	
803	0	32820	32808	
804	0	32780	32839	
805	0	32768	32791	
806	0	32870	32786	
807	0	32780	32775	
808	0	32812	32742	
809	0	32798	32750	
810	0	32832	32786	
811	0	32804	32734	
812	0	32856	32734	
813	0	32802	32744	
814	0	32810	32876	
815	0	32824	32815	
816	0	32820	32810	
817	0	32830	32740	
818	0	32812	32868	
819	0	32828	32772	
820	0	32817	32806	
821	0	32768	32868	
822	0	32836	32804	
823	0	32760	32812	
824	0	32786	32796	
825	0	32822	32647	
826	0	32766	32668	
827	0	32836	32713	
828	0	32820	32723	
829	0	32808	32789	
830	0	32826	32762	
831	0	32872	32736	
832	0	32800	32679	
833	0	32772	32684	
834	0	32824	32655	
835	0	32796	32656	
836	0	32716	32748	
837	0	32816	32756	
838	0	32832	32775	
839	0	32814	32766	
840	0	32796	32810	
841	0	32778	32792	
842	0	32900	32718	
843	0	32820	32750	
844	0	32844	32798	
845	0	32772	32814	
846	0	32840	32774	
847	0	32750	32808	
848	0	32794	32718	
849	0	32877	32764	
850	0	32868	32772	
851	0	32892	32714	
852	0	32804	32733	
853	0	32892	32749	
854	0	32830	32816	
855	0	32796	32828	
856	0	32876	32862	
857	0	32764	32796	
858	0	32768	32726	
859	0	32792	32861	
860	0	32798	32794	
861	0	32748	32743	
862	0	32846	32824	
863	0	32780	32746	
864	0	32814	32732	
865	0	32792	32662	
866	0	32728	32804	
867	0	32844	32810	
868	0	32832	32878	
869	0	32806	32764	
870	0	32862	32732	
871	0	32822	32843	
872	0	32800	32720	
873	0	32734	32759	
874	0	32741	32734	
875	0	32810	32786	
876	0	32830	32732	
877	0	32776	32848	
878	0	32886	32850	
879	0	32822	32768	
880	0	32868	32724	
881	0	32828	32693	
882	0	32876	32841	
883	0	32768	32850	
884	0	32810	32769	
885	0	32744	32742	
886	0	32804	32758	
887	0	32788	32791	
888	0	32860	32775	
889	0	32822	32714	
890	0	32868	32680	
891	0	32788	32740	
892	0	32848	32725	
893	0	32838	32790	
894	0	32852	32775	
895	0	32828	32775	
896	0	32788	32860	
897	0	32736	32862	
898	0	32776	32813	
899	0	32754	32775	
900	0	32864	32740	
901	0	32784	32810	
902	0	32800	32758	
903	0	32854	32804	
904	0	32804	32888	
905	0	32892	32793	
906	0	32812	32780	
907	0	32808	32798	
908	0	32736	32766	
909	0	32808	32763	
910	0	32854	32794	
911	0	32852	32756	
912	0	32832	32790	
913	0	32812	32671	
914	0	32784	32697	
915	0	32832	32743	
916	0	32846	32752	
917	0	32848	32838	
918	0	32760	32774	
919	0	32798	32796	
920	0	32800	32744	
921	0	32820	32729	
922	0	32749	32768	
923	0	32844	32775	
924	0	32776	32836	
925	0	32788	32833	
926	0	32736	32726	
927	0	32850	32786	
928	0	32820	32808	
929	0	32800	32775	
930	0	32864	32855	
931	0	32902	32775	
932	0	32896	32752	
933	0	32820	32741	
934	0	32756	32647	
935	0	32800	32688	
936	0	32712	32692	
937	0	32768	32804	
938	0	32778	32763	
939	0	32852	32764	
940	0	32804	32786	
941	0	32842	32808	
942	0	32832	32846	
943	0	32852	32826	
944	0	32842	32820	
945	0	32808	32804	
946	0	32764	32622	
947	0	32838	32656	
948	0	32820	32743	
949	0	32818	32812	
950	0	32766	32720	
951	0	32800	32802	
952	0	32788	32846	
953	0	32802	32769	
954	0	32772	32775	
955	0	32740	32748	
956	0	32780	32824	
957	0	32864	32772	
958	0	32800	32684	
959	0	32816	32676	
960	0	32870	32730	
961	0	32740	32737	
962	0	32804	32838	
963	0	32900	32798	
964	0	32804	32775	
965	0	32778	32864	
966	0	32832	32775	
967	0	32764	32762	
968	0	32856	32724	
969	0	32860	32744	
970	0	32828	32751	
971	0	32772	32699	
972	0	32810	32711	
973	0	32800	32714	
974	0	32820	32770	
975	0	32800	32684	
976	0	32844	32740	
977	0	32838	32774	
978	0	32762	32733	
979	0	32816	32808	
980	0	32828	32751	
981	0	32800	32806	
982	0	32748	32846	
983	0	32788	32756	
984	0	32864	32774	
985	0	32780	32760	
986	0	32832	32775	
987	0	32768	32734	
988	0	32852	32730	
989	0	32812	32784	
990	0	32816	32768	
991	0	32780	32791	
992	0	32810	32748	
993	0	32774	32816	
994	0	32748	32752	
995	0	32768	32768	
996	0	32794	32844	
997	0	32770	32742	
998	0	32772	32728	
999	0	32858	32874	
1000	0	32832	32790	
1001	0	32800	32846	
1002	0	32860	32807	
1003	0	32824	32775	
1004	0	32844	32806	
1005	0	32852	32774	
1006	0	32845	32746	
1007	0	32792	32747	
1008	0	32826	32798	
1009	0	32872	32760	
1010	0	32798	32736	
1011	0	32820	32834	
1012	0	32840	32708	
1013	0	32882	32737	
1014	0	32764	32818	
1015	0	32828	32775	
1016	0	32849	32808	
1017	0	32756	32873	
1018	0	32832	32775	
1019	0	32816	32775	
1020	0	32794	32711	
1021	0	32798	32718	
1022	0	32884	32692	
1023	0	32792	32740	
1024	0	32836	32830	
1025	0	32768	32814	
1026	0	32806	32767	
1027	0	32802	32836	
1028	0	32744	32868	
1029	0	32800	32728	
1030	0	32820	32775	
1031	0	32864	32758	
1032	0	32748	32855	
1033	0	32816	32743	
1034	0	32752	32750	
1035	0	32812	32812	
1036	0	32826	32825	
1037	0	32824	32804	
1038	0	32848	32813	
1039	0	32816	32758	
1040	0	32766	32804	
1041	0	32756	32775	
1042	0	32812	32704	
1043	0	32792	32734	
1044	0	32808	32692	
1045	0	32898	32719	
1046	0	32804	32738	
1047	0	32800	32682	
1048	0	32836	32858	
1049	0	32720	32810	
1050	0	32820	32788	
1051	0	32807	32816	
1052	0	32804	32718	
1053	0	32796	32798	
1054	0	32752	32786	
1055	0	32792	32808	
1056	0	32868	32922	
1057	0	32828	32796	
1058	0	32865	32794	
1059	0	32824	32726	
1060	0	32793	32696	
1061	0	32804	32720	
1062	0	32856	32748	
1063	0	32804	32666	
1064	0	32844	32696	
1065	0	32852	32654	
1066	0	32824	32692	
1067	0	32788	32695	
1068	0	32832	32692	
1069	0	32892	32646	
1070	0	32852	32696	
1071	0	32862	32732	
1072	0	32852	32680	
1073	0	32814	32664	
1074	0	32780	32682	
1075	0	32820	32884	
1076	0	32852	32791	
1077	0	32776	32795	
1078	0	32828	32870	
1079	0	32822	32852	
1080	0	32814	32846	
1081	0	32802	32821	
1082	0	32810	32743	
1083	0	32774	32740	
1084	0	32820	32711	
1085	0	32832	32662	
1086	0	32792	32668	
1087	0	32856	32652	
1088	0	32760	32814	
1089	0	32806	32822	
1090	0	32808	32798	
1091	0	32788	32680	
1092	0	32816	32831	
1093	0	32784	32871	
1094	0	32762	32680	
1095	0	32740	32708	
1096	0	32788	32710	
1097	0	32760	32689	
1098	0	32860	32646	
1099	0	32796	32802	
1100	0	32874	32818	
1101	0	32868	32775	
1102	0	32818	32798	
1103	0	32864	32769	
1104	0	32764	32831	
1105	0	32844	32772	
1106	0	32868	32839	
1107	0	32816	32840	
1108	0	32786	32812	
1109	0	32876	32784	
1110	0	32848	32788	
1111	0	32752	32774	
1112	0	32872	32736	
1113	0	32828	32634	
1114	0	32860	32620	
1115	0	32792	32746	
1116	0	32844	32775	
1117	0	32860	32726	
1118	0	32800	32828	
1119	0	32792	32767	
1120	0	32864	32808	
1121	0	32806	32798	
1122	0	32740	32757	
1123	0	32825	32774	
1124	0	32764	32724	
1125	0	32792	32775	
1126	0	32728	32764	
1127	0	32778	32743	
1128	0	32788	32764	
1129	0	32774	32775	
1130	0	32860	32744	
1131	0	32852	32808	
1132	0	32836	32825	
1133	0	32774	32775	
1134	0	32748	32724	
1135	0	32804	32830	
1136	0	32872	32762	
1137	0	32828	32839	
1138	0	32830	32738	
1139	0	32848	32796	
1140	0	32820	32840	
1141	0	32772	32764	
1142	0	32844	32808	
1143	0	32752	32762	
1144	0	32801	32740	
1145	0	32852	32775	
1146	0	32756	32786	
1147	0	32790	32784	
1148	0	32778	32774	
1149	0	32720	32848	
1150	0	32796	32775	
1151	0	32802	32831	
1152	0	32784	32831	
1153	0	32744	32887	
1154	0	32826	32863	
1155	0	32708	32870	
1156	0	32736	32903	
1157	0	32740	32834	
1158	0	32806	32798	
1159	0	32840	32725	
1160	0	32874	32660	
1161	0	32936	32702	
1162	0	32938	32664	
1163	0	32938	32728	
1164	0	32920	32603	
1165	0	32944	32644	
1166	0	32986	32498	
1167	0	32964	32487	
1168	0	33012	32558	
1169	0	32976	32708	
1170	0	32944	32724	
1171	0	32908	32753	
1172	0	32884	32775	
1173	0	32894	32679	
1174	0	32868	32636	
1175	0	32868	32614	
1176	0	32944	32637	
1177	0	32884	32736	
1178	0	32852	32867	
1179	0	32836	32903	
1180	0	32740	32912	
1181	0	32616	32948	
1182	0	32608	32970	
1183	0	32578	32948	
1184	0	32470	33031	
1185	0	32520	33090	
1186	0	32332	33188	
1187	0	32400	33232	
1188	0	32468	33156	
1189	0	32476	33143	
1190	0	32550	32982	
1191	0	32664	32903	
1192	0	32672	32919	
1193	0	32680	32828	
1194	0	32650	32874	
1195	0	32828	32888	
1196	0	32744	32852	
1197	0	32828	32772	
1198	0	32884	32702	
1199	0	32894	32660	
1200	0	32952	32620	
1201	0	32962	32602	
1202	0	32958	32561	
1203	0	33036	32690	
1204	0	32980	32592	
1205	0	32944	32622	
1206	0	32880	32674	
1207	0	32952	32676	
1208	0	32870	32616	
1209	0	32940	32689	
1210	0	32920	32747	
1211	0	32848	32762	
1212	0	32862	32757	
1213	0	32844	32744	
1214	0	32820	32762	
1215	0	32880	32775	
1216	0	32788	32814	
1217	0	32812	32808	
1218	0	32836	32660	
1219	0	32762	32693	
1220	0	32800	32708	
1221	0	32840	32706	
1222	0	32830	32770	
1223	0	32800	32695	
1224	0	32772	32708	
1225	0	32856	32702	
1226	0	32801	32754	
1227	0	32828	32887	
1228	0	32864	32775	
1229	0	32868	32822	
1230	0	32821	32796	
1231	0	32834	32770	
1232	0	32772	32758	
1233	0	32776	32860	
1234	0	32790	32774	
1235	0	32756	32819	
1236	0	32772	32751	
1237	0	32848	32791	
1238	0	32836	32796	
1239	0	32808	32814	
1240	0	32844	32772	
1241	0	32776	32766	
1242	0	32810	32836	
1243	0	32804	32772	
1244	0	32868	32824	
1245	0	32818	32770	
1246	0	32740	32692	
1247	0	32824	32687	
1248	0	32836	32728	
1249	0	32792	32807	
1250	0	32788	32800	
1251	0	32836	32791	
1252	0	32840	32764	
1253	0	32772	32847	
1254	0	32808	32799	
1255	0	32788	32797	
1256	0	32744	32863	
1257	0	32782	32746	
1258	0	32754	32706	
1259	0	32864	32798	
1260	0	32776	32775	
1261	0	32824	32744	
1262	0	32842	32724	
1263	0	32810	32765	
1264	0	32841	32670	
1265	0	32788	32732	
1266	0	32888	32732	
1267	0	32821	32703	
1268	0	32728	32754	
1269	0	32816	32807	
1270	0	32820	32830	
1271	0	32820	32692	
1272	0	32790	32756	
1273	0	32782	32711	
1274	0	32788	32852	
1275	0	32836	32775	
1276	0	32798	32768	
1277	0	32836	32796	
1278	0	32856	32743	
1279	0	32888	32844	
1280	0	32812	32812	
1281	0	32784	32862	
1282	0	32796	32775	
1283	0	32800	32743	
1284	0	32856	32831	
1285	0	32845	32718	
1286	0	32808	32727	
1287	0	32792	32726	
1288	0	32842	32756	
1289	0	32812	32719	
1290	0	32870	32711	
1291	0	32778	32679	
1292	0	32792	32650	
1293	0	32838	32695	
1294	0	32760	32775	
1295	0	32814	32694	
1296	0	32737	32756	
1297	0	32836	32642	
1298	0	32834	32746	
1299	0	32830	32682	
1300	0	32842	32758	
1301	0	32852	32623	
1302	0	32836	32768	
1303	0	32794	32699	
1304	0	32800	32736	
1305	0	32756	32676	
1306	0	32714	32786	
1307	0	32786	32732	
1308	0	32768	32856	
1309	0	32804	32770	
1310	0	32820	32712	
1311	0	32792	32775	
1312	0	32824	32904	
1313	0	32836	32806	
1314	0	32816	32855	
1315	0	32772	32762	
1316	0	32852	32836	
1317	0	32752	32808	
1318	0	32756	32860	
1319	0	32816	32794	
1320	0	32836	32775	
1321	0	32820	32711	
1322	0	32820	32726	
1323	0	32780	32752	
1324	0	32808	32813	
1325	0	32718	32833	
1326	0	32808	32806	
1327	0	32860	32793	
1328	0	32768	32775	
1329	0	32798	32736	
1330	0	32836	32800	
1331	0	32764	32864	
1332	0	32848	32810	
1333	0	32846	32751	
1334	0	32878	32706	
1335	0	32846	32687	
1336	0	32749	32668	
1337	0	32740	32836	
1338	0	32792	32775	
1339	0	32856	32769	
1340	0	32796	32830	
1341	0	32754	32775	
1342	0	32834	32791	
1343	0	32808	32872	
1344	0	32782	32812	
1345	0	32844	32758	
1346	0	32810	32717	
1347	0	32736	32700	
1348	0	32820	32710	
1349	0	32824	32711	
1350	0	32812	32747	
1351	0	32832	32746	
1352	0	32801	32702	
1353	0	32798	32660	
1354	0	32836	32687	
1355	0	32786	32900	
1356	0	32780	32804	
1357	0	32848	32826	
1358	0	32830	32769	
1359	0	32820	32738	
1360	0	32862	32804	
1361	0	32846	32714	
1362	0	32812	32769	
1363	0	32816	32775	
1364	0	32824	32804	
1365	0	32772	32742	
1366	0	32856	32718	
1367	0	32788	32714	
1368	0	32824	32716	
1369	0	32788	32678	
1370	0	32740	32799	
1371	0	32802	32775	
1372	0	32908	32770	
1373	0	32800	32808	
1374	0	32768	32726	
1375	0	32856	32791	
1376	0	32808	32891	
1377	0	32778	32849	
1378	0	32772	32772	
1379	0	32816	32774	
1380	0	32788	32679	
1381	0	32808	32679	
1382	0	32840	32622	
1383	0	32814	32688	
1384	0	32808	32739	
1385	0	32800	32775	
1386	0	32756	32732	
1387	0	32754	32802	
1388	0	32804	32679	
1389	0	32877	32707	
1390	0	32848	32700	
1391	0	32840	32660	
1392	0	32820	32722	
1393	0	32756	32804	
1394	0	32785	32822	
1395	0	32824	32788	
1396	0	32784	32854	
1397	0	32816	32764	
1398	0	32884	32837	
1399	0	32784	32834	
1400	0	32822	32748	
1401	0	32836	32764	
1402	0	32744	32754	
1403	0	32824	32820	
1404	0	32772	32746	
1405	0	32792	32764	
1406	0	32858	32742	
1407	0	32780	32794	
1408	0	32776	32812	
1409	0	32776	32807	
1410	0	32860	32824	
1411	0	32896	32814	
1412	0	32900	32744	
1413	0	32784	32743	
1414	0	32789	32775	
1415	0	32774	32804	
1416	0	32800	32786	
1417	0	32812	32757	
1418	0	32848	32648	
1419	0	32826	32706	
1420	0	32836	32612	
1421	0	32756	32743	
1422	0	32734	32788	
1423	0	32836	32720	
1424	0	32856	32742	
1425	0	32756	32742	
1426	0	32784	32820	
1427	0	32800	32732	
1428	0	32772	32775	
1429	0	32804	32800	
1430	0	32824	32811	
1431	0	32788	32807	
1432	0	32860	32769	
1433	0	32764	32802	
1434	0	32840	32811	
1435	0	32760	32775	
1436	0	32792	32821	
1437	0	32828	32774	
1438	0	32782	32820	
1439	0	32812	32865	
1440	0	32804	32750	
1441	0	32808	32743	
1442	0	32810	32724	
1443	0	32764	32704	
1444	0	32788	32718	
1445	0	32820	32688	
1446	0	32804	32722	
1447	0	32784	32770	
1448	0	32784	32716	
1449	0	32766	32702	
1450	0	32808	32734	
1451	0	32888	32725	
1452	0	32792	32838	
1453	0	32730	32830	
1454	0	32800	32788	
1455	0	32816	32818	
1456	0	32876	32812	
1457	0	32741	32750	
1458	0	32812	32696	
1459	0	32840	32775	
1460	0	32784	32794	
1461	0	32822	32720	
1462	0	32794	32911	
1463	0	32772	32702	
1464	0	32816	32798	
1465	0	32878	32682	
1466	0	32810	32775	
1467	0	32856	32670	
1468	0	32796	32735	
1469	0	32856	32708	
1470	0	32832	32770	
1471	0	32772	32720	
1472	0	32804	32820	
1473	0	32792	32658	
1474	0	32868	32756	
1475	0	32775	32808	
1476	0	32818	32708	
1477	0	32844	32828	
1478	0	32936	32699	
1479	0	32768	32854	
1480	0	32834	32702	
1481	0	32876	32762	
1482	0	32818	32793	
1483	0	32728	32748	
1484	0	32864	32692	
1485	0	32812	32774	
1486	0	32838	32798	
1487	0	32804	32708	
1488	0	32808	32832	
1489	0	32820	32764	
1490	0	32880	32819	
1491	0	32792	32757	
1492	0	32856	32775	
1493	0	32820	32790	
1494	0	32864	32718	
1495	0	32748	32810	
1496	0	32760	32775	
1497	0	32786	32756	
1498	0	32820	32852	
1499	0	32894	32764	
1500	0	32828	32727	
1501	0	32832	32854	
1502	0	32820	32730	
1503	0	32808	32769	
1504	0	32868	32736	
1505	0	32810	32806	
1506	0	32780	32814	
1507	0	32821	32726	
1508	0	32808	32732	
1509	0	32854	32704	
1510	0	32832	32788	
1511	0	32825	32836	
1512	0	32716	32664	
1513	0	32788	32808	
1514	0	32812	32767	
1515	0	32808	32738	
1516	0	32764	32719	
1517	0	32856	32794	
1518	0	32772	32836	
1519	0	32860	32722	
1520	0	32864	32876	
1521	0	32816	32796	
1522	0	32824	32860	
1523	0	32768	32796	
1524	0	32868	32660	
1525	0	32784	32802	
1526	0	32796	32758	
1527	0	32768	32823	
1528	0	32798	32820	
1529	0	32804	32676	
1530	0	32872	32733	
1531	0	32804	32672	
1532	0	32870	32812	
1533	0	32804	32884	
1534	0	32796	32656	
1535	0	32720	32754	
1536	0	32880	32742	
1537	0	32806	32794	
1538	0	32770	32844	
1539	0	32860	32832	
1540	0	32802	32806	
1541	0	32766	32753	
1542	0	32793	32718	
1543	0	32792	32836	
1544	0	32832	32750	
1545	0	32846	32704	
1546	0	32847	32722	
1547	0	32868	32802	
1548	0	32838	32839	
1549	0	32820	32742	
1550	0	32844	32807	
1551	0	32812	32743	
1552	0	32808	32750	
1553	0	32820	32652	
1554	0	32765	32814	
1555	0	32772	32828	
1556	0	32804	32762	
1557	0	32808	32794	
1558	0	32840	32774	
1559	0	32840	32832	
1560	0	32806	32738	
1561	0	32812	32790	
1562	0	32818	32731	
1563	0	32808	32806	
1564	0	32840	32711	
1565	0	32756	32775	
1566	0	32820	32738	
1567	0	32852	32740	
1568	0	32786	32693	
1569	0	32852	32764	
1570	0	32804	32864	
1571	0	32829	32756	
1572	0	32816	32812	
1573	0	32800	32664	
1574	0	32832	32838	
1575	0	32832	32782	
1576	0	32784	32852	
1577	0	32792	32692	
1578	0	32841	32865	
1579	0	32864	32804	
1580	0	32794	32766	
1581	0	32752	32798	
1582	0	32818	32691	
1583	0	32842	32794	
1584	0	32792	32718	
1585	0	32828	32784	
1586	0	32794	32718	
1587	0	32760	32816	
1588	0	32816	32769	
1589	0	32812	32812	
1590	0	32822	32720	
1591	0	32914	32784	
1592	0	32926	32726	
1593	0	32728	32822	
1594	0	32832	32726	
1595	0	32761	32775	
1596	0	32836	32867	
1597	0	32808	32735	
1598	0	32824	32775	
1599	0	32784	32775	
1600	0	32834	32860	
1601	0	32784	32756	
1602	0	32798	32704	
1603	0	32838	32868	
1604	0	32800	32775	
1605	0	32772	32743	
1606	0	32769	32708	
1607	0	32762	32807	
1608	0	32788	32752	
1609	0	32848	32748	
1610	0	32820	32760	
1611	0	32786	32804	
1612	0	32756	32775	
1613	0	32812	32770	
1614	0	32836	32750	
1615	0	32816	32792	
1616	0	32776	32878	
1617	0	32836	32871	
1618	0	32821	32806	
1619	0	32840	32727	
1620	0	32842	32746	
1621	0	32854	32814	
1622	0	32830	32775	
1623	0	32812	32714	
1624	0	32772	32775	
1625	0	32762	32826	
1626	0	32848	32812	
1627	0	32786	32822	
1628	0	32817	32774	
1629	0	32832	32775	
1630	0	32873	32844	
1631	0	32898	32748	
1632	0	32865	32711	
1633	0	32808	32775	
1634	0	32788	32836	
1635	0	32808	32700	
1636	0	32796	32868	
1637	0	32814	32832	
1638	0	32804	32828	
1639	0	32784	32796	
1640	0	32856	32775	
1641	0	32832	32820	
1642	0	32756	32767	
1643	0	32750	32688	
1644	0	32820	32704	
1645	0	32852	32684	
1646	0	32880	32742	
1647	0	32804	32801	
1648	0	32840	32798	
1649	0	32852	32687	
1650	0	32724	32684	
1651	0	32850	32710	
1652	0	32841	32802	
1653	0	32794	32782	
1654	0	32808	32871	
1655	0	32772	32807	
1656	0	32824	32787	
1657	0	32772	32750	
1658	0	32736	32762	
1659	0	32796	32764	
1660	0	32836	32843	
1661	0	32808	32775	
1662	0	32792	32802	
1663	0	32824	32839	
1664	0	32852	32775	
1665	0	32806	32751	
1666	0	32876	32726	
1667	0	32818	32732	
1668	0	32778	32711	
1669	0	32832	32759	
1670	0	32816	32724	
1671	0	32840	32879	
1672	0	32840	32759	
1673	0	32800	32736	
1674	0	32781	32748	
1675	0	32836	32814	
1676	0	32836	32802	
1677	0	32856	32678	
1678	0	32753	32775	
1679	0	32832	32674	
1680	0	32800	32736	
1681	0	32824	32772	
1682	0	32772	32679	
1683	0	32800	32668	
1684	0	32772	32734	
1685	0	32816	32679	
1686	0	32872	32736	
1687	0	32748	32700	
1688	0	32754	32710	
1689	0	32784	32642	
1690	0	32804	32662	
1691	0	32798	32656	
1692	0	32832	32767	
1693	0	32792	32735	
1694	0	32742	32714	
1695	0	32792	32820	
1696	0	32824	32760	
1697	0	32776	32647	
1698	0	32896	32740	
1699	0	32848	32738	
1700	0	32824	32775	
1701	0	32826	32738	
1702	0	32864	32766	
1703	0	32836	32800	
1704	0	32800	32727	
1705	0	32828	32832	
1706	0	32808	32775	
1707	0	32802	32743	
1708	0	32836	32766	
1709	0	32788	32807	
1710	0	32832	32870	
1711	0	32817	32820	
1712	0	32840	32807	
1713	0	32824	32775	
1714	0	32820	32716	
1715	0	32824	32702	
1716	0	32892	32732	
1717	0	32792	32743	
1718	0	32768	32734	
1719	0	32740	32754	
1720	0	32856	32850	
1721	0	32796	32775	
1722	0	32828	32748	
1723	0	32788	32694	
1724	0	32824	32812	
1725	0	32820	32791	
1726	0	32762	32754	
1727	0	32796	32719	
1728	0	32918	32800	
1729	0	32794	32816	
1730	0	32840	32748	
1731	0	32816	32798	
1732	0	32840	32750	
1733	0	32816	32724	
1734	0	32805	32740	
1735	0	32862	32708	
1736	0	32744	32724	
1737	0	32750	32840	
1738	0	32863	32804	
1739	0	32792	32820	
1740	0	32840	32799	
1741	0	32750	32775	
1742	0	32878	32790	
1743	0	32862	32834	
1744	0	32788	32817	
1745	0	32764	32791	
1746	0	32840	32716	
1747	0	32816	32836	
1748	0	32804	32807	
1749	0	32824	32754	
1750	0	32804	32757	
1751	0	32876	32718	
1752	0	32783	32848	
1753	0	32768	32751	
1754	0	32866	32750	
1755	0	32736	32812	
1756	0	32768	32847	
1757	0	32820	32775	
1758	0	32819	32812	
1759	0	32802	32871	
1760	0	32800	32772	
1761	0	32768	32819	
1762	0	32744	32690	
1763	0	32790	32656	
1764	0	32764	32788	
1765	0	32800	32736	
1766	0	32838	32796	
1767	0	32780	32801	
1768	0	32784	32807	
1769	0	32868	32836	
1770	0	32824	32663	
1771	0	32864	32719	
1772	0	32792	32788	
1773	0	32778	32758	
1774	0	32865	32772	
1775	0	32776	32840	
1776	0	32776	32810	
1777	0	32760	32770	
1778	0	32812	32812	
1779	0	32846	32724	
1780	0	32840	32824	
1781	0	32780	32808	
1782	0	32853	32750	
1783	0	32802	32800	
1784	0	32828	32764	
1785	0	32776	32775	
1786	0	32812	32834	
1787	0	32760	32722	
1788	0	32824	32774	
1789	0	32740	32814	
1790	0	32804	32866	
1791	0	32868	32746	
1792	0	32824	32874	
1793	0	32796	32713	
1794	0	32801	32863	
1795	0	32820	32844	
1796	0	32852	32810	
1797	0	32884	32812	
1798	0	32804	32734	
1799	0	32816	32740	
1800	0	32876	32750	
1801	0	32780	32775	
1802	0	32804	32863	
1803	0	32820	32810	
1804	0	32784	32898	
1805	0	32804	32830	
1806	0	32762	32792	
1807	0	32856	32804	
1808	0	32830	32798	
1809	0	32808	32892	
1810	0	32848	32826	
1811	0	32780	32759	
1812	0	32860	32775	
1813	0	32788	32854	
1814	0	32768	32816	
1815	0	32748	32902	
1816	0	32860	32775	
1817	0	32830	32700	
1818	0	32852	32604	
1819	0	32760	32763	
1820	0	32820	32724	
1821	0	32816	32724	
1822	0	32828	32684	
1823	0	32838	32744	
1824	0	32728	32664	
1825	0	32784	32647	
1826	0	32760	32736	
1827	0	32806	32636	
1828	0	32792	32698	
1829	0	32828	32803	
1830	0	32848	32848	
1831	0	32772	32774	
1832	0	32868	32758	
1833	0	32848	32814	
1834	0	32824	32811	
1835	0	32800	32839	
1836	0	32822	32770	
1837	0	32830	32748	
1838	0	32778	32852	
1839	0	32736	32796	
1840	0	32842	32836	
1841	0	32820	32775	
1842	0	32780	32820	
1843	0	32756	32794	
1844	0	32816	32786	
1845	0	32868	32768	
1846	0	32832	32758	
1847	0	32788	32752	
1848	0	32790	32796	
1849	0	32776	32740	
1850	0	32818	32860	
1851	0	32876	32746	
1852	0	32810	32740	
1853	0	32816	32646	
1854	0	32748	32704	
1855	0	32784	32684	
1856	0	32826	32702	
1857	0	32802	32895	
1858	0	32808	32742	
1859	0	32804	32888	
1860	0	32792	32851	
1861	0	32773	32772	
1862	0	32732	32823	
1863	0	32824	32802	
1864	0	32832	32764	
1865	0	32804	32752	
1866	0	32868	32746	
1867	0	32838	32775	
1868	0	32792	32862	
1869	0	32772	32740	
1870	0	32802	32813	
1871	0	32748	32775	
1872	0	32816	32862	
1873	0	32778	32846	
1874	0	32720	32900	
1875	0	32822	32839	
1876	0	32768	32812	
1877	0	32758	32870	
1878	0	32820	32740	
1879	0	32876	32647	
1880	0	32892	32706	
1881	0	32878	32647	
1882	0	32872	32554	
1883	0	32928	32544	
1884	0	32992	32600	
1885	0	33066	32576	
1886	0	32962	32516	
1887	0	32980	32519	
1888	0	32942	32562	
1889	0	32980	32594	
1890	0	32892	32692	
1891	0	32952	32702	
1892	0	32836	32639	
1893	0	32880	32752	
1894	0	32952	32760	
1895	0	32936	32796	
1896	0	32936	32775	
1897	0	32944	32820	
1898	0	32844	32804	
1899	0	32712	32856	
1900	0	32672	32916	
1901	0	32624	32956	
1902	0	32658	32919	
1903	0	32610	33052	
1904	0	32538	32987	
1905	0	32464	32910	
1906	0	32432	33078	
1907	0	32352	33128	
1908	0	32404	33043	
1909	0	32510	32966	
1910	0	32580	33018	
1911	0	32616	32952	
1912	0	32670	32934	
1913	0	32692	32894	
1914	0	32680	32876	
1915	0	32750	32820	
1916	0	32876	32863	
1917	0	32776	32806	
1918	0	32870	32839	
1919	0	32934	32708	
1920	0	32944	32670	
1921	0	32970	32628	
1922	0	33016	32524	
1923	0	33028	32631	
1924	0	32912	32608	
1925	0	32956	32588	
1926	0	32872	32625	
1927	0	32846	32660	
1928	0	32908	32666	
1929	0	32862	32679	
1930	0	32896	32734	
1931	0	32870	32719	
1932	0	32880	32814	
1933	0	32774	32698	
1934	0	32846	32775	
1935	0	32860	32725	
1936	0	32820	32798	
1937	0	32812	32790	
1938	0	32834	32768	
1939	0	32842	32718	
1940	0	32820	32775	
1941	0	32808	32766	
1942	0	32783	32743	
1943	0	32828	32714	
1944	0	32822	32724	
1945	0	32794	32816	
1946	0	32764	32736	
1947	0	32830	32804	
1948	0	32740	32826	
1949	0	32865	32752	
1950	0	32878	32760	
1951	0	32856	32730	
1952	0	32870	32691	
1953	0	32824	32703	
1954	0	32764	32769	
1955	0	32788	32743	
1956	0	32844	32880	
1957	0	32788	32762	
1958	0	32800	32784	
1959	0	32848	32788	
1960	0	32800	32808	
1961	0	32810	32828	
1962	0	32808	32793	
1963	0	32804	32804	
1964	0	32836	32842	
1965	0	32828	32834	
1966	0	32796	32724	
1967	0	32800	32660	
1968	0	32792	32711	
1969	0	32772	32668	
1970	0	32866	32640	
1971	0	32889	32626	
1972	0	32800	32714	
1973	0	32744	32775	
1974	0	32758	32686	
1975	0	32788	32671	
1976	0	32834	32732	
1977	0	32778	32817	
1978	0	32880	32764	
1979	0	32892	32887	
1980	0	32828	32804	
1981	0	32818	32854	
1982	0	32804	32759	
1983	0	32820	32722	
1984	0	32764	32792	
1985	0	32832	32860	
1986	0	32816	32694	
1987	0	32832	32834	
1988	0	32776	32822	
1989	0	32824	32844	
1990	0	32780	32758	
1991	0	32772	32658	
1992	0	32860	32706	
1993	0	32802	32736	
1994	0	32804	32706	
1995	0	32880	32736	
1996	0	32878	32671	
1997	0	32792	32711	
1998	0	32864	32772	
1999	0	32847	32693	
2000	0	32816	32688	
2001	0	32812	32642	
2002	0	32792	32666	
2003	0	32826	32695	
2004	0	32812	32666	
2005	0	32828	32732	
2006	0	32896	32772	
2007	0	32832	32866	
2008	0	32808	32818	
2009	0	32804	32832	
2010	0	32794	32846	
2011	0	32834	32772	
2012	0	32734	32775	
2013	0	32796	32815	
2014	0	32768	32703	
2015	0	32816	32770	
2016	0	32824	32820	
2017	0	32820	32768	
2018	0	32772	32747	
2019	0	32805	32752	
2020	0	32800	32710	
2021	0	32820	32718	
2022	0	32828	32807	
2023	0	32856	32775	
2024	0	32864	32784	
2025	0	32876	32784	
2026	0	32780	32762	
2027	0	32728	32760	
2028	0	32810	32775	
2029	0	32764	32768	
2030	0	32784	32812	
2031	0	32792	32792	
2032	0	32816	32758	
2033	0	32848	32694	
2034	0	32726	32836	
2035	0	32804	32708	
2036	0	32764	32718	
2037	0	32784	32758	
2038	0	32757	32788	
2039	0	32822	32742	
2040	0	32868	32742	
2041	0	32858	32700	
2042	0	32836	32748	
2043	0	32842	32705	
2044	0	32766	32754	
2045	0	32792	32711	
2046	0	32832	32630	
2047	0	32772	32710	
2048	0	32810	32694	
2049	0	32820	32754	
2050	0	32836	32754	
2051	0	32856	32799	
2052	0	32848	32740	
2053	0	32730	32752	
2054	0	32810	32746	
2055	0	32844	32714	
2056	0	32748	32706	
2057	0	32820	32706	
2058	0	32820	32689	
2059	0	32826	32680	
2060	0	32768	32696	
2061	0	32820	32695	
2062	0	32816	32692	
2063	0	32804	32692	
2064	0	32754	32858	
2065	0	32764	32863	
2066	0	32790	32836	
2067	0	32780	32792	
2068	0	32816	32678	
2069	0	32812	32775	
2070	0	32903	32775	
2071	0	32846	32775	
2072	0	32828	32788	
2073	0	32818	32772	
2074	0	32836	32752	
2075	0	32772	32696	
2076	0	32800	32774	
2077	0	32856	32764	
2078	0	32860	32898	
2079	0	32833	32848	
2080	0	32836	32868	
2081	0	32792	32802	
2082	0	32813	32816	
2083	0	32822	32818	
2084	0	32782	32734	
2085	0	32804	32710	
2086	0	32720	32797	
2087	0	32814	32882	
2088	0	32735	32824	
2089	0	32840	32844	
2090	0	32864	32775	
2091	0	32892	32684	
2092	0	32850	32678	
2093	0	32826	32704	
2094	0	32792	32692	
2095	0	32760	32716	
2096	0	32780	32759	
2097	0	32872	32740	
2098	0	32798	32710	
2099	0	32842	32796	
2100	0	32780	32689	
2101	0	32868	32736	
2102	0	32822	32760	
2103	0	32780	32871	
2104	0	32784	32836	
2105	0	32798	32772	
2106	0	32752	32740	
2107	0	32816	32816	
2108	0	32778	32796	
2109	0	32824	32804	
2110	0	32830	32751	
2111	0	32830	32678	
2112	0	32780	32775	
2113	0	32768	32756	
2114	0	32804	32760	
2115	0	32848	32736	
2116	0	32772	32767	
2117	0	32846	32814	
2118	0	32816	32844	
2119	0	32828	32842	
2120	0	32846	32800	
2121	0	32780	32849	
2122	0	32760	32812	
2123	0	32760	32842	
2124	0	32804	32839	
2125	0	32768	32810	
2126	0	32788	32772	
2127	0	32868	32672	
2128	0	32818	32668	
2129	0	32812	32642	
2130	0	32849	32700	
2131	0	32804	32717	
2132	0	32836	32704	
2133	0	32780	32722	
2134	0	32756	32706	
2135	0	32872	32687	
2136	0	32798	32772	
2137	0	32848	32710	
2138	0	32792	32720	
2139	0	32880	32733	
2140	0	32810	32716	
2141	0	32766	32696	
2142	0	32804	32657	
2143	0	32858	32646	
2144	0	32884	32743	
2145	0	32804	32662	
2146	0	32812	32692	
2147	0	32752	32765	
2148	0	32820	32679	
2149	0	32832	32764	
2150	0	32800	32816	
2151	0	32824	32898	
2152	0	32852	32676	
2153	0	32804	32727	
2154	0	32844	32774	
2155	0	32846	32852	
2156	0	32832	32824	
2157	0	32768	32868	
2158	0	32770	32775	
2159	0	32796	32775	
2160	0	32816	32750	
2161	0	32792	32799	
2162	0	32800	32774	
2163	0	32820	32772	
2164	0	32802	32898	
2165	0	32768	32878	
2166	0	32718	32854	
2167	0	32728	32800	
2168	0	32774	32754	
2169	0	32776	32826	
2170	0	32808	32767	
2171	0	32816	32740	
2172	0	32820	32774	
2173	0	32852	32775	
2174	0	32786	32704	
2175	0	32816	32680	
2176	0	32756	32740	
2177	0	32756	32748	
2178	0	32768	32734	
2179	0	32808	32794	
2180	0	32846	32852	
2181	0	32876	32852	
2182	0	32780	32743	
2183	0	32776	32802	
2184	0	32788	32764	
2185	0	32796	32816	
2186	0	32852	32742	
2187	0	32792	32790	
2188	0	32832	32726	
2189	0	32848	32743	
2190	0	32896	32775	
2191	0	32824	32735	
2192	0	32832	32673	
2193	0	32860	32694	
2194	0	32760	32660	
2195	0	32756	32608	
2196	0	32793	32705	
2197	0	32824	32743	
2198	0	32848	32703	
2199	0	32772	32684	
2200	0	32802	32654	
2201	0	32791	32704	
2202	0	32860	32707	
2203	0	32804	32762	
2204	0	32868	32742	
2205	0	32820	32807	
2206	0	32808	32775	
2207	0	32828	32798	
2208	0	32844	32762	
2209	0	32798	32759	
2210	0	32784	32858	
2211	0	32882	32817	
2212	0	32832	32736	
2213	0	32804	32822	
2214	0	32824	32770	
2215	0	32856	32711	
2216	0	32808	32696	
2217	0	32856	32808	
2218	0	32804	32762	
2219	0	32734	32751	
2220	0	32774	32694	
2221	0	32792	32774	
2222	0	32760	32711	
2223	0	32836	32738	
2224	0	32828	32752	
2225	0	32880	32758	
2226	0	32752	32823	
2227	0	32832	32789	
2228	0	32856	32730	
2229	0	32842	32748	
2230	0	32810	32718	
2231	0	32890	32743	
2232	0	32884	32759	
2233	0	32772	32810	
2234	0	32784	32732	
2235	0	32882	32820	
2236	0	32792	32712	
2237	0	32856	32839	
2238	0	32682	32724	
2239	0	32764	32814	
2240	0	32824	32878	
2241	0	32802	32766	
2242	0	32830	32676	
2243	0	32820	32822	
2244	0	32796	32728	
2245	0	32810	32807	
2246	0	32804	32674	
2247	0	32808	32790	
2248	0	32806	32768	
2249	0	32808	32797	
2250	0	32806	32736	
2251	0	32846	32814	
2252	0	32808	32690	
2253	0	32840	32839	
2254	0	32776	32764	
2255	0	32808	32865	
2256	0	32792	32821	
2257	0	32800	32686	
2258	0	32788	32828	
2259	0	32849	32727	
2260	0	32840	32810	
2261	0	32868	32638	
2262	0	32760	32750	
2263	0	32740	32684	
2264	0	32796	32712	
2265	0	32844	32710	
2266	0	32804	32807	
2267	0	32848	32775	
2268	0	32798	32770	
2269	0	32816	32666	
2270	0	32832	32775	
2271	0	32840	32762	
2272	0	32802	32823	
2273	0	32836	32773	
2274	0	32808	32748	
2275	0	32856	32800	
2276	0	32800	32713	
2277	0	32774	32758	
2278	0	32832	32702	
2279	0	32836	32812	
2280	0	32840	32742	
2281	0	32870	32770	
2282	0	32778	32798	
2283	0	32868	32745	
2284	0	32824	32768	
2285	0	32796	32842	
2286	0	32796	32903	
2287	0	32774	32839	
2288	0	32808	32695	
2289	0	32820	32760	
2290	0	32856	32786	
2291	0	32824	32804	
2292	0	32792	32810	
2293	0	32804	32820	
2294	0	32782	32757	
2295	0	32776	32853	
2296	0	32818	32860	
2297	0	32858	32839	
2298	0	32820	32752	
2299	0	32808	32830	
2300	0	32750	32799	
2301	0	32832	32846	
2302	0	32852	32775	
2303	0	32772	32823	
2304	0	32804	32764	
2305	0	32796	32767	
2306	0	32834	32660	
2307	0	32852	32740	
2308	0	32841	32666	
2309	0	32804	32758	
2310	0	32788	32759	
2311	0	32824	32663	
2312	0	32784	32860	
2313	0	32762	32698	
2314	0	32840	32710	
2315	0	32812	32842	
2316	0	32714	32732	
2317	0	32784	32760	
2318	0	32880	32725	
2319	0	32820	32756	
2320	0	32840	32838	
2321	0	32792	32698	
2322	0	32816	32774	
2323	0	32866	32847	
2324	0	32732	32842	
2325	0	32808	32775	
2326	0	32828	32710	
2327	0	32836	32775	
2328	0	32742	32766	
2329	0	32836	32754	
2330	0	32840	32660	
2331	0	32832	32743	
2332	0	32852	32734	
2333	0	32792	32819	
2334	0	32849	32670	
2335	0	32840	32767	
2336	0	32824	32767	
2337	0	32816	32804	
2338	0	32760	32826	
2339	0	32864	32832	
2340	0	32784	32719	
2341	0	32832	32632	
2342	0	32816	32788	
2343	0	32792	32768	
2344	0	32830	32730	
2345	0	32820	32830	
2346	0	32764	32656	
2347	0	32780	32831	
2348	0	32766	32672	
2349	0	32786	32808	
2350	0	32782	32750	
2351	0	32880	32820	
2352	0	32816	32760	
2353	0	32742	32766	
2354	0	32804	32788	
2355	0	32804	32766	
2356	0	32792	32792	
2357	0	32838	32800	
2358	0	32854	32740	
2359	0	32804	32752	
2360	0	32821	32836	
2361	0	32816	32748	
2362	0	32804	32767	
2363	0	32860	32900	
2364	0	32856	32738	
2365	0	32778	32772	
2366	0	32800	32647	
2367	0	32788	32839	
2368	0	32800	32847	
2369	0	32844	32812	
2370	0	32756	32775	
2371	0	32800	32756	
2372	0	32844	32784	
2373	0	32804	32746	
2374	0	32780	32752	
2375	0	32814	32760	
2376	0	32768	32817	
2377	0	32804	32826	
2378	0	32824	32807	
2379	0	32810	32854	
2380	0	32808	32831	
2381	0	32826	32720	
2382	0	32806	32694	
2383	0	32826	32666	
2384	0	32794	32666	
2385	0	32788	32874	
2386	0	32866	32775	
2387	0	32794	32775	
2388	0	32840	32807	
2389	0	32724	32693	
2390	0	32852	32724	
2391	0	32801	32652	
2392	0	32844	32743	
2393	0	32856	32742	
2394	0	32832	32670	
2395	0	32834	32717	
2396	0	32756	32842	
2397	0	32812	32832	
2398	0	32760	32798	
2399	0	32784	32775	
2400	0	32820	32764	
2401	0	32814	32791	
2402	0	32732	32830	
2403	0	32900	32806	
2404	0	32870	32748	
2405	0	32786	32822	
2406	0	32808	32757	
2407	0	32848	32768	
2408	0	32764	32868	
2409	0	32784	32794	
2410	0	32864	32754	
2411	0	32836	32730	
2412	0	32820	32710	
2413	0	32848	32647	
2414	0	32852	32775	
2415	0	32820	32642	
2416	0	32800	32654	
2417	0	32792	32727	
2418	0	32796	32772	
2419	0	32862	32796	
2420	0	32780	32819	
2421	0	32806	32734	
2422	0	32836	32767	
2423	0	32770	32806	
2424	0	32789	32790	
2425	0	32764	32844	
2426	0	32838	32708	
2427	0	32760	32706	
2428	0	32844	32724	
2429	0	32816	32693	
2430	0	32832	32704	
2431	0	32834	32788	
2432	0	32816	32792	
2433	0	32760	32749	
2434	0	32796	32715	
2435	0	32817	32740	
2436	0	32825	32746	
2437	0	32808	32838	
2438	0	32808	32856	
2439	0	32776	32759	
2440	0	32792	32775	
2441	0	32764	32684	
2442	0	32768	32762	
2443	0	32820	32760	
2444	0	32804	32812	
2445	0	32824	32688	
2446	0	32774	32760	
2447	0	32784	32834	
2448	0	32764	32822	
2449	0	32844	32743	
2450	0	32872	32872	
2451	0	32832	32714	
2452	0	32764	32630	
2453	0	32912	32668	
2454	0	32868	32684	
2455	0	32810	32722	
2456	0	32826	32742	
2457	0	32868	32839	
2458	0	32806	32812	
2459	0	32862	32838	
2460	0	32780	32750	
2461	0	32784	32848	
2462	0	32834	32815	
2463	0	32786	32788	
2464	0	32832	32799	
2465	0	32862	32652	
2466	0	32816	32678	
2467	0	32782	32743	
2468	0	32752	32742	
2469	0	32852	32740	
2470	0	32830	32746	
2471	0	32836	32695	
2472	0	32814	32694	
2473	0	32748	32684	
2474	0	32782	32878	
2475	0	32836	32775	
2476	0	32820	32804	
2477	0	32796	32790	
2478	0	32860	32758	
2479	0	32746	32842	
2480	0	32798	32826	
2481	0	32820	32846	
2482	0	32836	32769	
2483	0	32776	32804	
2484	0	32808	32712	
2485	0	32809	32679	
2486	0	32812	32678	
2487	0	32788	32740	
2488	0	32840	32693	
2489	0	32789	32717	
2490	0	32776	32768	
2491	0	32820	32878	
2492	0	32868	32802	
2493	0	32780	32775	
2494	0	32775	32775	
2495	0	32792	32756	
2496	0	32792	32796	
2497	0	32748	32722	
2498	0	32774	32820	
2499	0	32828	32725	
2500	0	32780	32812	
2501	0	32748	32926	
2502	0	32828	32786	
2503	0	32764	32822	
2504	0	32816	32767	
2505	0	32816	32692	
2506	0	32788	32698	
2507	0	32804	32686	
2508	0	32810	32663	
2509	0	32826	32714	
2510	0	32916	32725	
2511	0	32848	32717	
2512	0	32852	32742	
2513	0	32764	32804	
2514	0	32852	32796	
2515	0	32810	32812	
2516	0	32844	32770	
2517	0	32852	32860	
2518	0	32808	32799	
2519	0	32764	32775	
2520	0	32820	32781	
2521	0	32800	32775	
2522	0	32816	32768	
2523	0	32824	32742	
2524	0	32812	32759	
2525	0	32832	32792	
2526	0	32852	32652	
2527	0	32782	32840	
2528	0	32782	32700	
2529	0	32782	32865	
2530	0	32768	32806	
2531	0	32804	32800	
2532	0	32832	32775	
2533	0	32798	32796	
2534	0	32820	32787	
2535	0	32776	32884	
2536	0	32780	32814	
2537	0	32752	32770	
2538	0	32882	32652	
2539	0	32839	32726	
2540	0	32800	32771	
2541	0	32810	32716	
2542	0	32750	32654	
2543	0	32842	32743	
2544	0	32836	32886	
2545	0	32760	32856	
2546	0	32818	32736	
2547	0	32841	32775	
2548	0	32792	32711	
2549	0	32860	32657	
2550	0	32814	32744	
2551	0	32852	32747	
2552	0	32812	32684	
2553	0	32792	32742	
2554	0	32772	32695	
2555	0	32780	32663	
2556	0	32824	32732	
2557	0	32804	32690	
2558	0	32858	32676	
2559	0	32824	32775	
2560	0	32832	32708	
2561	0	32780	32716	
2562	0	32748	32692	
2563	0	32785	32680	
2564	0	32820	32647	
2565	0	32784	32794	
2566	0	32800	32775	
2567	0	32830	32788	
2568	0	32846	32730	
2569	0	32853	32794	
2570	0	32848	32876	
2571	0	32784	32834	
2572	0	32850	32836	
2573	0	32792	32787	
2574	0	32776	32792	
2575	0	32804	32748	
2576	0	32852	32774	
2577	0	32816	32766	
2578	0	32862	32760	
2579	0	32804	32788	
2580	0	32794	32746	
2581	0	32766	32846	
2582	0	32752	32824	
2583	0	32818	32775	
2584	0	32834	32714	
2585	0	32768	32652	
2586	0	32822	32768	
2587	0	32749	32744	
2588	0	32826	32751	
2589	0	32868	32727	
2590	0	32872	32775	
2591	0	32844	32850	
2592	0	32890	32796	
2593	0	32832	32740	
2594	0	32788	32746	
2595	0	32788	32804	
2596	0	32712	32794	
2597	0	32728	32753	
2598	0	32740	32775	
2599	0	32838	32738	
2600	0	32826	32831	
2601	0	32788	32698	
2602	0	32823	32724	
2603	0	32860	32692	
2604	0	32856	32692	
2605	0	32960	32692	
2606	0	32972	32630	
2607	0	32930	32622	
2608	0	32910	32645	
2609	0	32994	32668	
2610	0	32992	32532	
2611	0	32954	32542	
2612	0	32929	32620	
2613	0	32952	32606	
2614	0	32876	32830	
2615	0	32840	32764	
2616	0	32864	32754	
2617	0	32924	32718	
2618	0	32986	32720	
2619	0	32920	32655	
2620	0	32948	32662	
2621	0	32862	32752	
2622	0	32734	32900	
2623	0	32732	32940	
2624	0	32636	32900	
2625	0	32614	32892	
2626	0	32576	32975	
2627	0	32550	33016	
2628	0	32524	32999	
2629	0	32508	33070	
2630	0	32462	33091	
2631	0	32492	33123	
2632	0	32572	33082	
2633	0	32536	32960	
2634	0	32580	32991	
2635	0	32612	32998	
2636	0	32708	32868	
2637	0	32706	32854	
2638	0	32714	32852	
2639	0	32824	32772	
2640	0	32796	32775	
2641	0	32816	32722	
2642	0	32842	32600	
2643	0	32960	32554	
2644	0	33038	32452	
2645	0	33040	32503	
2646	0	33016	32538	
2647	0	32980	32654	
2648	0	32940	32578	
2649	0	32848	32711	
2650	0	32886	32608	
2651	0	32924	32668	
2652	0	32870	32724	
2653	0	32888	32700	
2654	0	32878	32775	
2655	0	32848	32738	
2656	0	32804	32734	
2657	0	32832	32807	
2658	0	32816	32742	
2659	0	32848	32767	
2660	0	32848	32790	
2661	0	32824	32812	
2662	0	32778	32823	
2663	0	32820	32888	
2664	0	32844	32856	
2665	0	32792	32834	
2666	0	32800	32839	
2667	0	32780	32821	
2668	0	32776	32885	
2669	0	32804	32758	
2670	0	32776	32759	
2671	0	32832	32810	
2672	0	32830	32830	
2673	0	32823	32734	
2674	0	32798	32802	
2675	0	32778	32736	
2676	0	32792	32712	
2677	0	32816	32711	
2678	0	32836	32714	
2679	0	32812	32807	
2680	0	32816	32686	
2681	0	32821	32786	
2682	0	32776	32802	
2683	0	32794	32784	
2684	0	32820	32849	
2685	0	32788	32761	
2686	0	32848	32708	
2687	0	32784	32768	
2688	0	32828	32775	
2689	0	32808	32798	
2690	0	32821	32748	
2691	0	32792	32740	
2692	0	32818	32724	
2693	0	32836	32690	
2694	0	32820	32692	
2695	0	32820	32726	
2696	0	32762	32712	
2697	0	32856	32804	
2698	0	32812	32804	
2699	0	32812	32822	
2700	0	32820	32728	
2701	0	32808	32800	
2702	0	32804	32728	
2703	0	32766	32800	
2704	0	32800	32854	
2705	0	32750	32852	
2706	0	32821	32810	
2707	0	32800	32792	
2708	0	32822	32724	
2709	0	32868	32654	
2710	0	32780	32687	
2711	0	32800	32715	
2712	0	32820	32756	
2713	0	32784	32844	
2714	0	32860	32775	
2715	0	32860	32804	
2716	0	32768	32814	
2717	0	32848	32722	
2718	0	32794	32713	
2719	0	32842	32746	
2720	0	32836	32784	
2721	0	32864	32767	
2722	0	32740	32792	
2723	0	32824	32844	
2724	0	32812	32775	
2725	0	32784	32669	
2726	0	32792	32727	
2727	0	32718	32668	
2728	0	32864	32751	
2729	0	32775	32852	
2730	0	32856	32736	
2731	0	32780	32796	
2732	0	32808	32761	
2733	0	32738	32770	
2734	0	32844	32710	
2735	0	32804	32792	
2736	0	32804	32772	
2737	0	32820	32762	
2738	0	32792	32750	
2739	0	32814	32834	
2740	0	32832	32748	
2741	0	32804	32792	
2742	0	32780	32762	
2743	0	32856	32631	
2744	0	32800	32650	
2745	0	32864	32722	
2746	0	32912	32753	
2747	0	32796	32795	
2748	0	32796	32830	
2749	0	32806	32784	
2750	0	32844	32801	
2751	0	32796	32818	
2752	0	32766	32762	
2753	0	32808	32830	
2754	0	32812	32813	
2755	0	32692	32844	
2756	0	32840	32739	
2757	0	32780	32726	
2758	0	32768	32700	
2759	0	32816	32790	
2760	0	32890	32774	
2761	0	32870	32842	
2762	0	32842	32727	
2763	0	32832	32753	
2764	0	32810	32728	
2765	0	32786	32807	
2766	0	32802	32775	
2767	0	32850	32786	
2768	0	32881	32749	
2769	0	32804	32832	
2770	0	32856	32731	
2771	0	32804	32766	
2772	0	32758	32775	
2773	0	32808	32791	
2774	0	32804	32700	
2775	0	32764	32716	
2776	0	32786	32706	
2777	0	32748	32718	
2778	0	32864	32678	
2779	0	32828	32655	
2780	0	32824	32711	
2781	0	32812	32839	
2782	0	32838	32820	
2783	0	32784	32796	
2784	0	32780	32847	
2785	0	32822	32795	
2786	0	32840	32793	
2787	0	32848	32767	
2788	0	32862	32800	
2789	0	32784	32714	
2790	0	32804	32746	
2791	0	32888	32807	
2792	0	32804	32820	
2793	0	32760	32828	
2794	0	32792	32736	
2795	0	32860	32740	
2796	0	32822	32772	
2797	0	32816	32815	
2798	0	32788	32743	
2799	0	32804	32732	
2800	0	32808	32698	
2801	0	32824	32746	
2802	0	32848	32690	
2803	0	32828	32764	
2804	0	32824	32775	
2805	0	32789	32742	
2806	0	32824	32790	
2807	0	32802	32824	
2808	0	32824	32800	
2809	0	32844	32775	
2810	0	32840	32711	
2811	0	32856	32734	
2812	0	32804	32818	
2813	0	32772	32876	
2814	0	32776	32882	
2815	0	32740	32858	
2816	0	32786	32772	
2817	0	32782	32864	
2818	0	32808	32832	
2819	0	32816	32834	
2820	0	32812	32798	
2821	0	32782	32764	
2822	0	32774	32792	
2823	0	32786	32852	
2824	0	32844	32804	
2825	0	32798	32740	
2826	0	32849	32704	
2827	0	32844	32708	
2828	0	32793	32804	
2829	0	32768	32796	
2830	0	32832	32716	
2831	0	32772	32764	
2832	0	32826	32743	
2833	0	32798	32724	
2834	0	32774	32800	
2835	0	32809	32714	
2836	0	32804	32794	
2837	0	32794	32784	
2838	0	32869	32879	
2839	0	32812	32790	
2840	0	32844	32702	
2841	0	32778	32724	
2842	0	32838	32736	
2843	0	32764	32702	
2844	0	32776	32668	
2845	0	32796	32831	
2846	0	32748	32754	
2847	0	32820	32775	
2848	0	32844	32679	
2849	0	32825	32762	
2850	0	32864	32768	
2851	0	32904	32767	
2852	0	32814	32752	
2853	0	32834	32702	
2854	0	32812	32682	
2855	0	32785	32695	
2856	0	32793	32676	
2857	0	32784	32738	
2858	0	32856	32878	
2859	0	32828	32716	
2860	0	32860	32775	
2861	0	32836	32820	
2862	0	32768	32879	
2863	0	32841	32790	
2864	0	32856	32830	
2865	0	32808	32774	
2866	0	32890	32807	
2867	0	32800	32762	
2868	0	32776	32798	
2869	0	32772	32772	
2870	0	32752	32764	
2871	0	32832	32815	
2872	0	32836	32800	
2873	0	32806	32789	
2874	0	32816	32756	
2875	0	32792	32695	
2876	0	32864	32791	
2877	0	32808	32673	
2878	0	32804	32751	
2879	0	32804	32718	
2880	0	32828	32751	
2881	0	32764	32785	
2882	0	32824	32842	
2883	0	32856	32786	
2884	0	32784	32820	
2885	0	32768	32774	
2886	0	32794	32853	
2887	0	32804	32819	
2888	0	32800	32775	
2889	0	32796	32790	
2890	0	32800	32818	
2891	0	32792	32821	
2892	0	32836	32842	
2893	0	32855	32750	
2894	0	32798	32826	
2895	0	32776	32710	
2896	0	32830	32736	
2897	0	32802	32666	
2898	0	32798	32685	
2899	0	32788	32740	
2900	0	32737	32807	
2901	0	32816	32832	
2902	0	32772	32775	
2903	0	32782	32761	
2904	0	32792	32753	
2905	0	32836	32775	
2906	0	32846	32761	
2907	0	32800	32775	
2908	0	32768	32719	
2909	0	32746	32704	
2910	0	32822	32690	
2911	0	32888	32708	
2912	0	32792	32762	
2913	0	32878	32806	
2914	0	32784	32798	
2915	0	32816	32752	
2916	0	32776	32818	
2917	0	32816	32788	
2918	0	32788	32822	
2919	0	32804	32732	
2920	0	32860	32785	
2921	0	32778	32734	
2922	0	32820	32775	
2923	0	32748	32775	
2924	0	32838	32727	
2925	0	32742	32696	
2926	0	32816	32694	
2927	0	32832	32740	
2928	0	32808	32678	
2929	0	32912	32655	
2930	0	32852	32862	
2931	0	32840	32806	
2932	0	32840	32758	
2933	0	32788	32772	
2934	0	32767	32822	
2935	0	32772	32903	
2936	0	32736	32790	
2937	0	32820	32700	
2938	0	32828	32822	
2939	0	32816	32775	
2940	0	32806	32766	
2941	0	32748	32806	
2942	0	32868	32826	
2943	0	32797	32662	
2944	0	32804	32742	
2945	0	32812	32702	
2946	0	32812	32638	
2947	0	32840	32652	
2948	0	32844	32660	
2949	0	32760	32640	
2950	0	32810	32675	
2951	0	32772	32671	
2952	0	32816	32835	
2953	0	32836	32764	
2954	0	32802	32830	
2955	0	32818	32775	
2956	0	32812	32798	
2957	0	32836	32759	
2958	0	32884	32743	
2959	0	32768	32775	
2960	0	32832	32726	
2961	0	32840	32771	
2962	0	32794	32676	
2963	0	32780	32700	
2964	0	32802	32646	
2965	0	32816	32687	
2966	0	32832	32702	
2967	0	32870	32727	
2968	0	32824	32678	
2969	0	32824	32686	
2970	0	32800	32754	
2971	0	32804	32761	
2972	0	32814	32800	
2973	0	32769	32759	
2974	0	32828	32792	
2975	0	32802	32838	
2976	0	32852	32775	
2977	0	32776	32751	
2978	0	32824	32756	
2979	0	32806	32848	
2980	0	32816	32774	
2981	0	32804	32768	
2982	0	32776	32714	
2983	0	32774	32806	
2984	0	32874	32796	
2985	0	32800	32843	
2986	0	32800	32772	
2987	0	32854	32763	
2988	0	32842	32738	
2989	0	32812	32708	
2990	0	32818	32835	
2991	0	32822	32813	
2992	0	32806	32774	
2993	0	32760	32694	
2994	0	32824	32750	
2995	0	32820	32791	
2996	0	32788	32839	
2997	0	32760	32815	
2998	0	32844	32775	
2999	0	32794	32820	
3000	0	32824	32769	
3001	0	32756	32764	
3002	0	32776	32735	
3003	0	32792	32656	
3004	0	32858	32646	
3005	0	32840	32702	
3006	0	32810	32704	
3007	0	32768	32679	
3008	0	32752	32743	
3009	0	32768	32822	
3010	0	32816	32758	
3011	0	32824	32775	
3012	0	32846	32724	
3013	0	32802	32692	
3014	0	32800	32668	
3015	0	32780	32654	
3016	0	32800	32783	
3017	0	32840	32832	
3018	0	32860	32848	
3019	0	32832	32844	
3020	0	32822	32862	
3021	0	32740	32791	
3022	0	32872	32806	
3023	0	32826	32848	
3024	0	32728	32740	
3025	0	32832	32798	
3026	0	32812	32758	
3027	0	32770	32796	
3028	0	32788	32792	
3029	0	32820	32746	
3030	0	32812	32748	
3031	0	32810	32758	
3032	0	32764	32808	
3033	0	32784	32758	
3034	0	32808	32758	
3035	0	32874	32865	
3036	0	32796	32807	
3037	0	32778	32775	
3038	0	32752	32775	
3039	0	32820	32814	
3040	0	32828	32836	
3041	0	32868	32807	
3042	0	32750	32775	
3043	0	32804	32724	
3044	0	32796	32638	
3045	0	32792	32748	
3046	0	32868	32674	
3047	0	32820	32688	
3048	0	32748	32668	
3049	0	32782	32645	
3050	0	32788	32738	
3051	0	32872	32756	
3052	0	32868	32752	
3053	0	32854	32862	
3054	0	32832	32834	
3055	0	32768	32775	
3056	0	32816	32730	
3057	0	32820	32775	
3058	0	32768	32760	
3059	0	32802	32800	
3060	0	32744	32792	
3061	0	32846	32762	
3062	0	32810	32810	
3063	0	32780	32828	
3064	0	32794	32820	
3065	0	32854	32750	
3066	0	32852	32866	
3067	0	32804	32818	
3068	0	32796	32653	
3069	0	32816	32784	
3070	0	32794	32710	
3071	0	32840	32678	
3072	0	32822	32684	
3073	0	32764	32668	
3074	0	32791	32740	
3075	0	32716	32722	
3076	0	32800	32850	
3077	0	32832	32796	
3078	0	32794	32719	
3079	0	32848	32772	
3080	0	32812	32831	
3081	0	32830	32802	
3082	0	32812	32794	
3083	0	32760	32828	
3084	0	32813	32775	
3085	0	32784	32855	
3086	0	32808	32740	
3087	0	32720	32742	
3088	0	32806	32732	
3089	0	32858	32664	
3090	0	32858	32796	
3091	0	32856	32838	
3092	0	32822	32880	
3093	0	32836	32794	
3094	0	32810	32756	
3095	0	32768	32742	
3096	0	32828	32768	
3097	0	32833	32775	
3098	0	32806	32804	
3099	0	32820	32898	
3100	0	32804	32822	
3101	0	32868	32807	
3102	0	32836	32702	
3103	0	32788	32788	
3104	0	32859	32759	
3105	0	32832	32814	
3106	0	32844	32758	
3107	0	32804	32845	
3108	0	32846	32807	
3109	0	32824	32838	
3110	0	32780	32762	
3111	0	32806	32807	
3112	0	32836	32788	
3113	0	32804	32876	
3114	0	32812	32768	
3115	0	32837	32812	
3116	0	32814	32725	
3117	0	32780	32700	
3118	0	32768	32686	
3119	0	32792	32775	
3120	0	32804	32828	
3121	0	32838	32884	
3122	0	32736	32724	
3123	0	32876	32707	
3124	0	32804	32704	
3125	0	32860	32703	
3126	0	32864	32759	
3127	0	32816	32686	
3128	0	32836	32679	
3129	0	32832	32699	
3130	0	32796	32718	
3131	0	32834	32740	
3132	0	32818	32662	
3133	0	32836	32724	
3134	0	32788	32868	
3135	0	32772	32710	
3136	0	32800	32682	
3137	0	32810	32709	
3138	0	32794	32852	
3139	0	32848	32806	
3140	0	32816	32841	
3141	0	32824	32812	
3142	0	32808	32754	
3143	0	32836	32760	
3144	0	32852	32766	
3145	0	32862	32732	
3146	0	32808	32812	
3147	0	32808	32759	
3148	0	32808	32814	
3149	0	32864	32868	
3150	0	32856	32839	
3151	0	32770	32863	
3152	0	32762	32775	
3153	0	32772	32772	
3154	0	32700	32744	
3155	0	32804	32679	
3156	0	32756	32710	
3157	0	32778	32660	
3158	0	32794	32670	
3159	0	32836	32704	
3160	0	32862	32710	
3161	0	32788	32741	
3162	0	32838	32740	
3163	0	32800	32731	
3164	0	32816	32791	
3165	0	32858	32814	
3166	0	32769	32797	
3167	0	32810	32743	
3168	0	32858	32798	
3169	0	32792	32796	
3170	0	32796	32890	
3171	0	32772	32775	
3172	0	32812	32790	
3173	0	32842	32798	
3174	0	32794	32775	
3175	0	32784	32736	
3176	0	32740	32710	
3177	0	32932	32678	
3178	0	32860	32801	
3179	0	32824	32818	
3180	0	32868	32742	
3181	0	32832	32746	
3182	0	32796	32743	
3183	0	32812	32775	
3184	0	32836	32711	
3185	0	32776	32804	
3186	0	32804	32689	
3187	0	32808	32772	
3188	0	32844	32724	
3189	0	32752	32762	
3190	0	32748	32775	
3191	0	32834	32814	
3192	0	32776	32761	
3193	0	32810	32796	
3194	0	32792	32764	
3195	0	32796	32756	
3196	0	32740	32764	
3197	0	32842	32862	
3198	0	32728	32847	
3199	0	32866	32758	
3200	0	32774	32740	
3201	0	32766	32794	
3202	0	32798	32871	
3203	0	32804	32897	
3204	0	32818	32839	
3205	0	32824	32687	
3206	0	32840	32726	
3207	0	32804	32743	
3208	0	32775	32775	
3209	0	32754	32808	
3210	0	32830	32794	
3211	0	32872	32806	
3212	0	32856	32775	
3213	0	32744	32766	
3214	0	32862	32798	
3215	0	32858	32735	
3216	0	32785	32698	
3217	0	32820	32786	
3218	0	32756	32808	
3219	0	32836	32818	
3220	0	32844	32756	
3221	0	32824	32884	
3222	0	32828	32767	
3223	0	32752	32726	
3224	0	32750	32752	
3225	0	32798	32762	
3226	0	32832	32791	
3227	0	32830	32750	
3228	0	32757	32834	
3229	0	32816	32751	
3230	0	32836	32772	
3231	0	32776	32743	
3232	0	32828	32750	
3233	0	32800	32736	
3234	0	32868	32744	
3235	0	32854	32790	
3236	0	32788	32751	
3237	0	32780	32727	
3238	0	32856	32788	
3239	0	32798	32753	
3240	0	32828	32817	
3241	0	32810	32775	
3242	0	32852	32822	
3243	0	32820	32833	
3244	0	32766	32775	
3245	0	32766	32816	
3246	0	32800	32806	
3247	0	32764	32820	
3248	0	32752	32804	
3249	0	32848	32755	
3250	0	32830	32719	
3251	0	32866	32746	
3252	0	32844	32768	
3253	0	32856	32844	
3254	0	32828	32820	
3255	0	32832	32786	
3256	0	32838	32830	
3257	0	32802	32807	
3258	0	32816	32700	
3259	0	32810	32775	
3260	0	32820	32748	
3261	0	32828	32790	
3262	0	32798	32762	
3263	0	32834	32724	
3264	0	32752	32806	
3265	0	32804	32880	
3266	0	32832	32801	
3267	0	32852	32750	
3268	0	32832	32687	
3269	0	32832	32675	
3270	0	32862	32732	
3271	0	32808	32733	
3272	0	32788	32711	
3273	0	32780	32729	
3274	0	32846	32738	
3275	0	32866	32724	
3276	0	32842	32680	
3277	0	32752	32762	
3278	0	32764	32703	
3279	0	32816	32754	
3280	0	32821	32725	
3281	0	32824	32824	
3282	0	32788	32775	
3283	0	32784	32849	
3284	0	32824	32812	
3285	0	32820	32775	
3286	0	32832	32807	
3287	0	32800	32828	
3288	0	32844	32647	
3289	0	32784	32856	
3290	0	32802	32678	
3291	0	32864	32720	
3292	0	32834	32712	
3293	0	32798	32724	
3294	0	32836	32670	
3295	0	32784	32732	
3296	0	32756	32838	
3297	0	32756	32772	
3298	0	32764	32816	
3299	0	32856	32746	
3300	0	32832	32756	
3301	0	32800	32788	
3302	0	32796	32836	
3303	0	32802	32751	
3304	0	32764	32800	
3305	0	32788	32784	
3306	0	32772	32742	
3307	0	32796	32792	
3308	0	32798	32836	
3309	0	32832	32802	
3310	0	32748	32789	
3311	0	32876	32791	
3312	0	32848	32775	
3313	0	32804	32906	
3314	0	32804	32775	
3315	0	32762	32788	
3316	0	32784	32769	
3317	0	32848	32772	
3318	0	32832	32728	
3319	0	32848	32734	
3320	0	32800	32702	
3321	0	32714	32710	
3322	0	32724	32668	
3323	0	32793	32864	
3324	0	32816	32756	
3325	0	32736	32866	
3326	0	32750	32886	
3327	0	32800	32807	
3328	0	32784	32852	
3329	0	32798	32791	
3330	0	32824	32775	
3331	0	32920	32752	
3332	0	32911	32692	
3333	0	32900	32734	
3334	0	32850	32679	
3335	0	33028	32647	
3336	0	32970	32652	
3337	0	32968	32716	
3338	0	32976	32736	
3339	0	32966	32632	
3340	0	32948	32664	
3341	0	32880	32738	
3342	0	32956	32676	
3343	0	32892	32742	
3344	0	32836	32693	
3345	0	32878	32703	
3346	0	32924	32734	
3347	0	32964	32742	
3348	0	32916	32731	
3349	0	32864	32706	
3350	0	32840	32759	
3351	0	32756	32831	
3352	0	32696	32896	
3353	0	32660	32893	
3354	0	32620	32910	
3355	0	32638	32911	
3356	0	32502	33057	
3357	0	32516	33022	
3358	0	32420	33159	
3359	0	32424	33223	
3360	0	32484	33094	
3361	0	32508	33060	
3362	0	32528	33070	
3363	0	32592	32924	
3364	0	32648	32830	
3365	0	32672	32792	
3366	0	32726	32752	
3367	0	32772	32742	
3368	0	32784	32725	
3369	0	32897	32743	
3370	0	32844	32738	
3371	0	32906	32736	
3372	0	32956	32682	
3373	0	32968	32606	
3374	0	33008	32622	
3375	0	32990	32660	
3376	0	32924	32628	
3377	0	32924	32743	
3378	0	32904	32645	
3379	0	32908	32723	
3380	0	32844	32612	
3381	0	32936	32716	
3382	0	32910	32752	
3383	0	32866	32636	
3384	0	32856	32664	
3385	0	32848	32724	
3386	0	32900	32711	
3387	0	32784	32854	
3388	0	32782	32844	
3389	0	32848	32761	
3390	0	32812	32756	
3391	0	32810	32788	
3392	0	32812	32759	
3393	0	32870	32775	
3394	0	32764	32804	
3395	0	32796	32756	
3396	0	32812	32775	
3397	0	32832	32804	
3398	0	32800	32843	
3399	0	32832	32847	
3400	0	32868	32820	
3401	0	32786	32775	
3402	0	32864	32748	
3403	0	32774	32746	
3404	0	32868	32730	
3405	0	32868	32754	
3406	0	32852	32743	
3407	0	32824	32658	
3408	0	32780	32824	
3409	0	32800	32710	
3410	0	32760	32796	
3411	0	32848	32775	
3412	0	32740	32838	
3413	0	32860	32796	
3414	0	32844	32759	
3415	0	32816	32804	
3416	0	32784	32871	
3417	0	32788	32911	
3418	0	32734	32775	
3419	0	32805	32800	
3420	0	32856	32832	
3421	0	32852	32810	
3422	0	32834	32775	
3423	0	32760	32740	
3424	0	32814	32786	
3425	0	32810	32826	
3426	0	32836	32724	
3427	0	32792	32808	
3428	0	32840	32810	
3429	0	32816	32879	
3430	0	32808	32799	
3431	0	32836	32818	
3432	0	32806	32769	
3433	0	32830	32734	
3434	0	32832	32753	
3435	0	32776	32894	
3436	0	32724	32838	
3437	0	32820	32838	
3438	0	32852	32692	
3439	0	32884	32680	
3440	0	32842	32832	
3441	0	32820	32750	
3442	0	32860	32703	
3443	0	32822	32804	
3444	0	32834	32775	
3445	0	32806	32728	
3446	0	32798	32802	
3447	0	32803	32838	
3448	0	32792	32768	
3449	0	32822	32687	
3450	0	32776	32764	
3451	0	32800	32768	
3452	0	32812	32817	
3453	0	32804	32811	
3454	0	32748	32676	
3455	0	32816	32622	
3456	0	32826	32772	
3457	0	32776	32836	
3458	0	32784	32801	
3459	0	32788	32840	
3460	0	32796	32768	
3461	0	32786	32713	
3462	0	32848	32762	
3463	0	32860	32806	
3464	0	32776	32774	
3465	0	32817	32740	
3466	0	32778	32862	
3467	0	32832	32796	
3468	0	32912	32761	
3469	0	32828	32741	
3470	0	32769	32783	
3471	0	32796	32871	
3472	0	32848	32822	
3473	0	32820	32719	
3474	0	32896	32695	
3475	0	32784	32695	
3476	0	32780	32700	
3477	0	32856	32724	
3478	0	32796	32819	
3479	0	32808	32857	
3480	0	32844	32708	
3481	0	32848	32796	
3482	0	32802	32686	
3483	0	32772	32792	
3484	0	32804	32826	
3485	0	32808	32730	
3486	0	32772	32832	
3487	0	32760	32668	
3488	0	32740	32763	
3489	0	32808	32735	
3490	0	32804	32758	
3491	0	32880	32750	
3492	0	32823	32832	
3493	0	32894	32832	
3494	0	32798	32750	
3495	0	32748	32830	
3496	0	32752	32664	
3497	0	32862	32762	
3498	0	32806	32811	
3499	0	32775	32839	
3500	0	32866	32748	
3501	0	32752	32704	
3502	0	32837	32802	
3503	0	32756	32799	
3504	0	32816	32732	
3505	0	32744	32768	
3506	0	32816	32695	
3507	0	32820	32688	
3508	0	32784	32714	
3509	0	32812	32772	
3510	0	32780	32790	
3511	0	32836	32871	
3512	0	32858	32826	
3513	0	32848	32692	
3514	0	32792	32799	
3515	0	32821	32700	
3516	0	32774	32772	
3517	0	32840	32804	
3518	0	32868	32736	
3519	0	32848	32821	
3520	0	32826	32756	
3521	0	32832	32810	
3522	0	32812	32775	
3523	0	32816	32736	
3524	0	32776	32784	
3525	0	32804	32724	
3526	0	32834	32858	
3527	0	32804	32754	
3528	0	32840	32686	
3529	0	32780	32759	
3530	0	32804	32740	
3531	0	32820	32775	
3532	0	32760	32764	
3533	0	32800	32826	
3534	0	32868	32778	
3535	0	32816	32710	
3536	0	32812	32775	
3537	0	32832	32668	
3538	0	32842	32699	
3539	0	32740	32695	
3540	0	32750	32850	
3541	0	32828	32790	
3542	0	32820	32724	
3543	0	32794	32728	
3544	0	32821	32727	
3545	0	32820	32807	
3546	0	32912	32775	
3547	0	32772	32730	
3548	0	32798	32812	
3549	0	32800	32694	
3550	0	32836	32840	
3551	0	32836	32647	
3552	0	32804	32732	
3553	0	32802	32800	
3554	0	32816	32806	
3555	0	32744	32775	
3556	0	32726	32836	
3557	0	32836	32860	
3558	0	32800	32718	
3559	0	32786	32743	
3560	0	32790	32738	
3561	0	32828	32818	
3562	0	32808	32756	
3563	0	32816	32774	
3564	0	32792	32771	
3565	0	32788	32756	
3566	0	32856	32820	
3567	0	32804	32740	
3568	0	32806	32770	
3569	0	32796	32647	
3570	0	32820	32732	
3571	0	32764	32764	
3572	0	32832	32775	
3573	0	32796	32769	
3574	0	32816	32799	
3575	0	32728	32772	
3576	0	32824	32775	
3577	0	32782	32823	
3578	0	32796	32772	
3579	0	32794	32812	
3580	0	32852	32710	
3581	0	32810	32839	
3582	0	32844	32678	
3583	0	32788	32682	
3584	0	32784	32647	
3585	0	32776	32756	
3586	0	32746	32742	
3587	0	32800	32798	
3588	0	32808	32743	
3589	0	32824	32836	
3590	0	32764	32838	
3591	0	32814	32807	
3592	0	32778	32748	
3593	0	32898	32738	
3594	0	32816	32736	
3595	0	32804	32812	
3596	0	32812	32742	
3597	0	32832	32756	
3598	0	32818	32882	
3599	0	32796	32753	
3600	0	32774	32768	
3601	0	32820	32828	
3602	0	32800	32716	
3603	0	32824	32775	
3604	0	32814	32720	
3605	0	32760	32839	
3606	0	32760	32748	
3607	0	32856	32838	
3608	0	32820	32775	
3609	0	32764	32805	
3610	0	32725	32686	
3611	0	32860	32846	
3612	0	32832	32704	
3613	0	32870	32812	
3614	0	32748	32823	
3615	0	32830	32764	
3616	0	32840	32784	
3617	0	32783	32762	
3618	0	32768	32796	
3619	0	32820	32774	
3620	0	32822	32775	
3621	0	32856	32756	
3622	0	32792	32812	
3623	0	32824	32794	
3624	0	32792	32746	
3625	0	32796	32766	
3626	0	32824	32766	
3627	0	32808	32734	
3628	0	32752	32800	
3629	0	32780	32686	
3630	0	32812	32692	
3631	0	32766	32682	
3632	0	32810	32758	
3633	0	32862	32792	
3634	0	32788	32756	
3635	0	32746	32807	
3636	0	32826	32768	
3637	0	32784	32719	
3638	0	32830	32730	
3639	0	32812	32794	
3640	0	32844	32806	
3641	0	32806	32760	
3642	0	32828	32764	
3643	0	32760	32852	
3644	0	32804	32688	
3645	0	32816	32628	
3646	0	32838	32710	
3647	0	32846	32775	
3648	0	32772	32722	
3649	0	32752	32828	
3650	0	32764	32732	
3651	0	32902	32732	
3652	0	32820	32724	
3653	0	32818	32806	
3654	0	32780	32888	
3655	0	32774	32767	
3656	0	32750	32798	
3657	0	32792	32794	
3658	0	32816	32710	
3659	0	32832	32802	
3660	0	32794	32802	
3661	0	32820	32839	
3662	0	32752	32732	
3663	0	32836	32686	
3664	0	32898	32798	
3665	0	32836	32814	
3666	0	32782	32742	
3667	0	32856	32632	
3668	0	32842	32638	
3669	0	32772	32660	
3670	0	32880	32706	
3671	0	32792	32862	
3672	0	32816	32847	
3673	0	32774	32740	
3674	0	32800	32742	
3675	0	32846	32775	
3676	0	32804	32738	
3677	0	32812	32839	
3678	0	32796	32822	
3679	0	32832	32744	
3680	0	32734	32828	
3681	0	32774	32802	
3682	0	32824	32894	
3683	0	32840	32865	
3684	0	32770	32759	
3685	0	32874	32692	
3686	0	32792	32718	
3687	0	32700	32724	
3688	0	32780	32692	
3689	0	32788	32780	
3690	0	32836	32826	
3691	0	32800	32730	
3692	0	32904	32742	
3693	0	32810	32770	
3694	0	32788	32706	
3695	0	32772	32700	
3696	0	32844	32756	
3697	0	32808	32704	
3698	0	32764	32741	
3699	0	32836	32768	
3700	0	32770	32692	
3701	0	32796	32740	
3702	0	32824	32761	
3703	0	32808	32903	
3704	0	32796	32796	
3705	0	32808	32823	
3706	0	32808	32832	
3707	0	32840	32788	
3708	0	32800	32743	
3709	0	32826	32775	
3710	0	32816	32794	
3711	0	32860	32827	
3712	0	32892	32897	
3713	0	32832	32831	
3714	0	32823	32830	
3715	0	32780	32830	
3716	0	32812	32810	
3717	0	32870	32740	
3718	0	32788	32702	
3719	0	32782	32708	
3720	0	32821	32678	
3721	0	32833	32828	
3722	0	32820	32852	
3723	0	32808	32830	
3724	0	32762	32870	
3725	0	32788	32775	
3726	0	32780	32743	
3727	0	32776	32726	
3728	0	32872	32740	
3729	0	32806	32716	
3730	0	32744	32706	
3731	0	32792	32775	
3732	0	32762	32729	
3733	0	32786	32696	
3734	0	32828	32844	
3735	0	32776	32807	
3736	0	32777	32720	
3737	0	32758	32732	
3738	0	32872	32794	
3739	0	32857	32796	
3740	0	32832	32812	
3741	0	32836	32766	
3742	0	32784	32743	
3743	0	32778	32692	
3744	0	32790	32678	
3745	0	32828	32702	
3746	0	32756	32692	
3747	0	32828	32696	
3748	0	32828	32775	
3749	0	32872	32765	
3750	0	32804	32775	
3751	0	32820	32696	
3752	0	32824	32751	
3753	0	32840	32859	
3754	0	32800	32775	
3755	0	32816	32668	
3756	0	32798	32695	
3757	0	32820	32862	
3758	0	32880	32788	
3759	0	32882	32746	
3760	0	32822	32831	
3761	0	32814	32796	
3762	0	32752	32750	
3763	0	32778	32734	
3764	0	32790	32722	
3765	0	32834	32830	
3766	0	32756	32631	
3767	0	32760	32670	
3768	0	32804	32711	
3769	0	32764	32743	
3770	0	32788	32615	
3771	0	32788	32743	
3772	0	32772	32748	
3773	0	32852	32806	
3774	0	32800	32719	
3775	0	32804	32720	
3776	0	32784	32668	
3777	0	32832	32736	
3778	0	32812	32734	
3779	0	32846	32711	
3780	0	32830	32716	
3781	0	32804	32708	
3782	0	32828	32752	
3783	0	32784	32688	
3784	0	32872	32788	
3785	0	32812	32775	
3786	0	32804	32775	
3787	0	32808	32754	
3788	0	32752	32820	
3789	0	32852	32727	
3790	0	32732	32654	
3791	0	32843	32700	
3792	0	32856	32708	
3793	0	32873	32687	
3794	0	32836	32710	
3795	0	32796	32644	
3796	0	32776	32727	
3797	0	32774	32766	
3798	0	32810	32753	
3799	0	32784	32789	
3800	0	32800	32775	
3801	0	32832	32802	
3802	0	32772	32796	
3803	0	32776	32682	
3804	0	32808	32756	
3805	0	32836	32886	
3806	0	32836	32798	
3807	0	32772	32849	
3808	0	32796	32814	
3809	0	32740	32863	
3810	0	32854	32816	
3811	0	32818	32784	
3812	0	32816	32688	
3813	0	32832	32740	
3814	0	32776	32728	
3815	0	32840	32664	
3816	0	32892	32698	
3817	0	32806	32711	
3818	0	32848	32796	
3819	0	32828	32775	
3820	0	32772	32796	
3821	0	32794	32762	
3822	0	32856	32792	
3823	0	32768	32774	
3824	0	32768	32769	
3825	0	32836	32767	
3826	0	32790	32730	
3827	0	32740	32795	
3828	0	32852	32860	
3829	0	32820	32871	
3830	0	32866	32821	
3831	0	32796	32770	
3832	0	32810	32708	
3833	0	32804	32759	
3834	0	32778	32720	
3835	0	32784	32773	
3836	0	32812	32775	
3837	0	32812	32866	
3838	0	32860	32864	
3839	0	32804	32775	
3840	0	32884	32774	
3841	0	32784	32741	
3842	0	32792	32666	
3843	0	32764	32660	
3844	0	32778	32723	
3845	0	32814	32716	
3846	0	32800	32864	
3847	0	32886	32834	
3848	0	32796	32839	
3849	0	32804	32738	
3850	0	32852	32746	
3851	0	32828	32743	
3852	0	32782	32828	
3853	0	32832	32804	
3854	0	32792	32754	
3855	0	32786	32752	
3856	0	32826	32788	
3857	0	32722	32775	
3858	0	32836	32812	
3859	0	32810	32807	
3860	0	32804	32764	
3861	0	32780	32770	
3862	0	32834	32704	
3863	0	32868	32775	
3864	0	32732	32775	
3865	0	32864	32801	
3866	0	32872	32814	
3867	0	32738	32680	
3868	0	32780	32764	
3869	0	32828	32775	
3870	0	32716	32713	
3871	0	32804	32788	
3872	0	32856	32728	
3873	0	32856	32807	
3874	0	32772	32724	
3875	0	32808	32815	
3876	0	32788	32751	
3877	0	32804	32775	
3878	0	32849	32724	
3879	0	32832	32682	
3880	0	32845	32708	
3881	0	32804	32770	
3882	0	32796	32775	
3883	0	32834	32800	
3884	0	32812	32774	
3885	0	32812	32764	
3886	0	32804	32775	
3887	0	32808	32852	
3888	0	32812	32872	
3889	0	32720	32834	
3890	0	32846	32775	
3891	0	32818	32716	
3892	0	32832	32740	
3893	0	32864	32808	
3894	0	32796	32792	
3895	0	32816	32699	
3896	0	32808	32852	
3897	0	32772	32839	
3898	0	32790	32822	
3899	0	32794	32812	
3900	0	32758	32775	
3901	0	32804	32796	
3902	0	32772	32676	
3903	0	32844	32823	
3904	0	32906	32791	
3905	0	32828	32836	
3906	0	32856	32754	
3907	0	32776	32775	
3908	0	32892	32740	
3909	0	32812	32840	
3910	0	32732	32740	
3911	0	32764	32806	
3912	0	32808	32746	
3913	0	32792	32775	
3914	0	32800	32750	
3915	0	32842	32714	
3916	0	32816	32804	
3917	0	32884	32851	
3918	0	32846	32872	
3919	0	32846	32798	
3920	0	32796	32801	
3921	0	32812	32788	
3922	0	32772	32743	
3923	0	32754	32820	
3924	0	32806	32801	
3925	0	32780	32766	
3926	0	32717	32804	
3927	0	32800	32812	
3928	0	32864	32775	
3929	0	32820	32687	
3930	0	32844	32751	
3931	0	32780	32732	
3932	0	32864	32623	
3933	0	32892	32704	
3934	0	32860	32700	
3935	0	32759	32748	
3936	0	32804	32732	
3937	0	32792	32740	
3938	0	32836	32828	
3939	0	32802	32738	
3940	0	32824	32775	
3941	0	32744	32950	
3942	0	32780	32832	
3943	0	32784	32804	
3944	0	32828	32791	
3945	0	32788	32840	
3946	0	32828	32807	
3947	0	32823	32822	
3948	0	32776	32858	
3949	0	32828	32736	
3950	0	32858	32794	
3951	0	32783	32812	
3952	0	32930	32758	
3953	0	32888	32775	
3954	0	32902	32686	
3955	0	32804	32670	
3956	0	32744	32662	
3957	0	32840	32702	
3958	0	32802	32760	
3959	0	32830	32888	
3960	0	32768	32818	
3961	0	32744	32768	
3962	0	32804	32826	
3963	0	32858	32692	
3964	0	32852	32806	
3965	0	32804	32741	
3966	0	32828	32775	
3967	0	32788	32711	
3968	0	32858	32756	
3969	0	32800	32706	
3970	0	32856	32734	
3971	0	32769	32696	
3972	0	32800	32768	
3973	0	32865	32716	
3974	0	32792	32679	
3975	0	32788	32690	
3976	0	32760	32790	
3977	0	32839	32775	
3978	0	32792	32679	
3979	0	32816	32720	
3980	0	32804	32756	
3981	0	32838	32840	
3982	0	32840	32732	
3983	0	32818	32704	
3984	0	32823	32740	
3985	0	32804	32799	
3986	0	32808	32818	
3987	0	32775	32820	
3988	0	32848	32876	
3989	0	32788	32848	
3990	0	32788	32801	
3991	0	32810	32775	
3992	0	32864	32758	
3993	0	32806	32766	
3994	0	32846	32821	
3995	0	32826	32775	
3996	0	32746	32820	
3997	0	32850	32799	
3998	0	32834	32848	
3999	0	32820	32834	
4000	0	32860	32844	
4001	0	32770	32846	
4002	0	32828	32775	
4003	0	32822	32815	
4004	0	32774	32798	
4005	0	32808	32807	
4006	0	32866	32815	
4007	0	32856	32740	
4008	0	32800	32730	
4009	0	32820	32728	
4010	0	32834	32775	
4011	0	32752	32831	
4012	0	32806	32737	
4013	0	32844	32759	
4014	0	32810	32754	
4015	0	32792	32768	
4016	0	32790	32759	
4017	0	32776	32767	
4018	0	32796	32791	
4019	0	32828	32775	
4020	0	32804	32796	
4021	0	32816	32712	
4022	0	32792	32670	
4023	0	32812	32804	
4024	0	32832	32798	
4025	0	32870	32839	
4026	0	32808	32810	
4027	0	32780	32838	
4028	0	32840	32749	
4029	0	32752	32750	
4030	0	32831	32804	
4031	0	32824	32820	
4032	0	32844	32812	
4033	0	32798	32764	
4034	0	32804	32829	
4035	0	32740	32839	
4036	0	32721	32792	
4037	0	32784	32775	
4038	0	32789	32761	
4039	0	32776	32756	
4040	0	32772	32775	
4041	0	32808	32688	
4042	0	32860	32708	
4043	0	32881	32608	
4044	0	32868	32691	
4045	0	32984	32584	
4046	0	32984	32600	
4047	0	32900	32510	
4048	0	32992	32596	
4049	0	32980	32577	
4050	0	32948	32542	
4051	0	33016	32607	
4052	0	32904	32586	
4053	0	32852	32519	
4054	0	32834	32631	
4055	0	32836	32654	
4056	0	32887	32696	
4057	0	32904	32734	
4058	0	32888	32644	
4059	0	32856	32634	
4060	0	32936	32730	
4061	0	32944	32711	
4062	0	32750	32751	
4063	0	32714	32775	
4064	0	32596	32958	
4065	0	32608	32956	
4066	0	32646	32951	
4067	0	32538	33031	
4068	0	32482	33106	
4069	0	32458	33220	
4070	0	32464	33254	
4071	0	32432	33217	
4072	0	32600	32992	
4073	0	32545	33084	
4074	0	32664	32977	
4075	0	32762	32936	
4076	0	32718	32882	
4077	0	32696	32839	
4078	0	32812	32808	
4079	0	32768	32775	
4080	0	32828	32764	
4081	0	32932	32654	
4082	0	32884	32738	
4083	0	32932	32660	
4084	0	32917	32623	
4085	0	32988	32504	
4086	0	32948	32550	
4087	0	32984	32638	
4088	0	32910	32548	
4089	0	32944	32546	
4090	0	32878	32579	
4091	0	32896	32604	
4092	0	32938	32634	
4093	0	32865	32666	
4094	0	32824	32684	
4095	0	32802	32782	
4096	0	32844	32708	
4097	0	32794	32820	
4098	0	32800	32812	
4099	0	32860	32852	
4100	0	32780	32871	
4101	0	32796	32820	
4102	0	32741	32754	
4103	0	32804	32822	
4104	0	32792	32775	
4105	0	32857	32850	
4106	0	32792	32775	
4107	0	32804	32839	
4108	0	32840	32761	
4109	0	32768	32784	
4110	0	32752	32735	
4111	0	32712	32722	
4112	0	32820	32714	
4113	0	32856	32726	
4114	0	32844	32813	
4115	0	32780	32832	
4116	0	32816	32766	
4117	0	32910	32790	
4118	0	32808	32895	
4119	0	32800	32782	
4120	0	32812	32711	
4121	0	32792	32714	
4122	0	32855	32730	
4123	0	32848	32736	
4124	0	32780	32694	
4125	0	32752	32767	
4126	0	32788	32762	
4127	0	32822	32854	
4128	0	32813	32803	
4129	0	32746	32826	
4130	0	32806	32766	
4131	0	32832	32711	
4132	0	32828	32734	
4133	0	32820	32871	
4134	0	32856	32812	
4135	0	32772	32692	
4136	0	32828	32671	
4137	0	32800	32743	
4138	0	32818	32684	
4139	0	32794	32702	
4140	0	32832	32732	
4141	0	32888	32744	
4142	0	32772	32935	
4143	0	32800	32816	
4144	0	32780	32756	
4145	0	32852	32820	
4146	0	32812	32775	
4147	0	32828	32801	
4148	0	32780	32807	
4149	0	32716	32788	
4150	0	32816	32800	
4151	0	32794	32692	
4152	0	32800	32808	
4153	0	32845	32808	
4154	0	32752	32798	
4155	0	32772	32762	
4156	0	32808	32821	
4157	0	32784	32722	
4158	0	32778	32764	
4159	0	32766	32742	
4160	0	32842	32839	
4161	0	32796	32804	
4162	0	32786	32764	
4163	0	32796	32656	
4164	0	32800	32711	
4165	0	32804	32766	
4166	0	32808	32820	
4167	0	32801	32820	
4168	0	32840	32814	
4169	0	32852	32796	
4170	0	32804	32832	
4171	0	32870	32821	
4172	0	32802	32854	
4173	0	32850	32816	
4174	0	32788	32702	
4175	0	32816	32734	
4176	0	32812	32647	
4177	0	32764	32762	
4178	0	32824	32758	
4179	0	32850	32814	
4180	0	32874	32775	
4181	0	32836	32807	
4182	0	32774	32742	
4183	0	32729	32744	
4184	0	32738	32862	
4185	0	32836	32849	
4186	0	32836	32750	
4187	0	32808	32766	
4188	0	32804	32775	
4189	0	32804	32806	
4190	0	32874	32832	
4191	0	32802	32775	
4192	0	32808	32814	
4193	0	32848	32738	
4194	0	32848	32714	
4195	0	32832	32638	
4196	0	32742	32694	
4197	0	32824	32670	
4198	0	32770	32695	
4199	0	32757	32687	
4200	0	32812	32734	
4201	0	32784	32836	
4202	0	32852	32698	
4203	0	32832	32685	
4204	0	32796	32678	
4205	0	32804	32866	
4206	0	32804	32770	
4207	0	32798	32848	
4208	0	32832	32860	
4209	0	32816	32758	
4210	0	32804	32815	
4211	0	32900	32839	
4212	0	32794	32879	
4213	0	32792	32712	
4214	0	32902	32775	
4215	0	32824	32656	
4216	0	32770	32740	
4217	0	32826	32692	
4218	0	32720	32839	
4219	0	32824	32792	
4220	0	32768	32822	
4221	0	32796	32786	
4222	0	32776	32719	
4223	0	32794	32799	
4224	0	32864	32715	
4225	0	32820	32798	
4226	0	32812	32828	
4227	0	32858	32686	
4228	0	32788	32836	
4229	0	32848	32756	
4230	0	32798	32732	
4231	0	32780	32818	
4232	0	32896	32738	
4233	0	32820	32823	
4234	0	32864	32725	
4235	0	32836	32690	
4236	0	32756	32823	
4237	0	32800	32761	
4238	0	32766	32767	
4239	0	32800	32754	
4240	0	32785	32775	
4241	0	32785	32685	
4242	0	32816	32708	
4243	0	32714	32710	
4244	0	32834	32807	
4245	0	32828	32786	
4246	0	32816	32784	
4247	0	32804	32800	
4248	0	32780	32670	
4249	0	32826	32766	
4250	0	32768	32656	
4251	0	32836	32758	
4252	0	32878	32810	
4253	0	32824	32832	
4254	0	32892	32902	
4255	0	32768	32714	
4256	0	32768	32756	
4257	0	32824	32754	
4258	0	32814	32837	
4259	0	32792	32692	
4260	0	32784	32808	
4261	0	32806	32775	
4262	0	32816	32805	
4263	0	32816	32696	
4264	0	32820	32738	
4265	0	32820	32844	
4266	0	32836	32775	
4267	0	32856	32768	
4268	0	32820	32725	
4269	0	32800	32768	
4270	0	32760	32702	
4271	0	32778	32748	
4272	0	32818	32745	
4273	0	32800	32732	
4274	0	32844	32764	
4275	0	32812	32807	
4276	0	32776	32730	
4277	0	32794	32772	
4278	0	32814	32746	
4279	0	32892	32812	
4280	0	32812	32846	
4281	0	32832	32804	
4282	0	32820	32801	
4283	0	32908	32862	
4284	0	32856	32852	
4285	0	32792	32775	
4286	0	32812	32810	
4287	0	32780	32734	
4288	0	32784	32711	
4289	0	32754	32668	
4290	0	32860	32820	
4291	0	32828	32775	
4292	0	32806	32672	
4293	0	32808	32775	
4294	0	32836	32718	
4295	0	32792	32754	
4296	0	32840	32792	
4297	0	32792	32807	
4298	0	32828	32823	
4299	0	32858	32793	
4300	0	32782	32766	
4301	0	32816	32799	
4302	0	32810	32770	
4303	0	32796	32666	
4304	0	32768	32746	
4305	0	32802	32671	
4306	0	32857	32724	
4307	0	32772	32694	
4308	0	32816	32688	
4309	0	32878	32711	
4310	0	32736	32707	
4311	0	32762	32650	
4312	0	32844	32746	
4313	0	32808	32716	
4314	0	32776	32838	
4315	0	32872	32703	
4316	0	32854	32766	
4317	0	32788	32759	
4318	0	32820	32750	
4319	0	32888	32679	
4320	0	32828	32694	
4321	0	32788	32687	
4322	0	32800	32738	
4323	0	32838	32706	
4324	0	32780	32754	
4325	0	32828	32692	
4326	0	32772	32775	
4327	0	32754	32706	
4328	0	32764	32700	
4329	0	32800	32854	
4330	0	32760	32820	
4331	0	32822	32732	
4332	0	32824	32826	
4333	0	32800	32788	
4334	0	32786	32820	
4335	0	32760	32764	
4336	0	32764	32708	
4337	0	32788	32774	
4338	0	32786	32743	
4339	0	32842	32798	
4340	0	32754	32820	
4341	0	32820	32806	
4342	0	32740	32750	
4343	0	32774	32817	
4344	0	32816	32774	
4345	0	32790	32766	
4346	0	32784	32759	
4347	0	32836	32727	
4348	0	32810	32699	
4349	0	32770	32752	
4350	0	32740	32834	
4351	0	32820	32847	
4352	0	32824	32864	
4353	0	32792	32802	
4354	0	32828	32774	
4355	0	32832	32830	
4356	0	32820	32764	
4357	0	32800	32807	
4358	0	32796	32812	
4359	0	32788	32754	
4360	0	32849	32799	
4361	0	32844	32733	
4362	0	32808	32716	
4363	0	32842	32684	
4364	0	32772	32754	
4365	0	32772	32800	
4366	0	32818	32816	
4367	0	32824	32852	
4368	0	32808	32903	
4369	0	32808	32719	
4370	0	32772	32686	
4371	0	32816	32802	
4372	0	32812	32769	
4373	0	32830	32796	
4374	0	32824	32718	
4375	0	32808	32804	
4376	0	32756	32670	
4377	0	32780	32660	
4378	0	32862	32690	
4379	0	32860	32706	
4380	0	32812	32698	
4381	0	32828	32721	
4382	0	32812	32707	
4383	0	32804	32744	
4384	0	32816	32716	
4385	0	32822	32826	
4386	0	32880	32814	
4387	0	32810	32830	
4388	0	32866	32846	
4389	0	32764	32695	
4390	0	32800	32807	
4391	0	32796	32708	
4392	0	32828	32775	
4393	0	32868	32770	
4394	0	32868	32700	
4395	0	32776	32722	
4396	0	32784	32775	
4397	0	32752	32706	
4398	0	32804	32650	
4399	0	32810	32664	
4400	0	32804	32800	
4401	0	32840	32807	
4402	0	32896	32802	
4403	0	32858	32792	
4404	0	32880	32712	
4405	0	32824	32676	
4406	0	32860	32709	
4407	0	32884	32703	
4408	0	32780	32801	
4409	0	32840	32800	
4410	0	32826	32740	
4411	0	32812	32858	
4412	0	32804	32775	
4413	0	32840	32728	
4414	0	32796	32808	
4415	0	32798	32769	
4416	0	32764	32710	
4417	0	32788	32775	
4418	0	32852	32806	
4419	0	32816	32772	
4420	0	32876	32679	
4421	0	32800	32813	
4422	0	32836	32839	
4423	0	32828	32810	
4424	0	32796	32814	
4425	0	32780	32694	
4426	0	32768	32724	
4427	0	32776	32700	
4428	0	32792	32829	
4429	0	32796	32774	
4430	0	32788	32838	
4431	0	32752	32822	
4432	0	32812	32672	
4433	0	32852	32688	
4434	0	32824	32639	
4435	0	32776	32834	
4436	0	32822	32842	
4437	0	32801	32727	
4438	0	32812	32858	
4439	0	32768	32636	
4440	0	32784	32798	
4441	0	32868	32768	
4442	0	32804	32842	
4443	0	32836	32796	
4444	0	32804	32712	
4445	0	32780	32775	
4446	0	32760	32687	
4447	0	32800	32840	
4448	0	32788	32798	
4449	0	32836	32720	
4450	0	32788	32758	
4451	0	32870	32686	
4452	0	32830	32706	
4453	0	32832	32711	
4454	0	32852	32654	
4455	0	32832	32868	
4456	0	32828	32792	
4457	0	32808	32810	
4458	0	32854	32775	
4459	0	32786	32878	
4460	0	32808	32807	
4461	0	32816	32700	
4462	0	32780	32820	
4463	0	32810	32754	
4464	0	32768	32732	
4465	0	32788	32821	
4466	0	32808	32686	
4467	0	32786	32836	
4468	0	32814	32775	
4469	0	32836	32705	
4470	0	32824	32796	
4471	0	32784	32767	
4472	0	32826	32638	
4473	0	32780	32794	
4474	0	32832	32724	
4475	0	32752	32818	
4476	0	32816	32826	
4477	0	32822	32830	
4478	0	32812	32788	
4479	0	32806	32712	
4480	0	32821	32764	
4481	0	32800	32736	
4482	0	32774	32775	
4483	0	32762	32775	
4484	0	32802	32722	
4485	0	32820	32820	
4486	0	32786	32640	
4487	0	32826	32735	
4488	0	32828	32663	
4489	0	32704	32772	
4490	0	32820	32811	
4491	0	32820	32711	
4492	0	32804	32820	
4493	0	32812	32702	
4494	0	32860	32730	
4495	0	32820	32708	
4496	0	32784	32772	
4497	0	32775	32768	
4498	0	32854	32720	
4499	0	32832	32819	
4500	0	32834	32708	
4501	0	32778	32732	
4502	0	32828	32689	
4503	0	32826	32792	
4504	0	32804	32724	
4505	0	32728	32812	
4506	0	32832	32790	
4507	0	32738	32740	
4508	0	32846	32741	
4509	0	32829	32686	
4510	0	32776	32744	
4511	0	32894	32706	
4512	0	32800	32804	
4513	0	32744	32828	
4514	0	32878	32724	
4515	0	32804	32871	
4516	0	32796	32774	
4517	0	32798	32770	
4518	0	32844	32804	
4519	0	32854	32736	
4520	0	32831	32820	
4521	0	32856	32718	
4522	0	32846	32775	
4523	0	32833	32740	
4524	0	32784	32804	
4525	0	32770	32742	
4526	0	32824	32878	
4527	0	32784	32744	
4528	0	32744	32796	
4529	0	32756	32794	
4530	0	32844	32804	
4531	0	32834	32793	
4532	0	32800	32775	
4533	0	32760	32750	
4534	0	32814	32817	
4535	0	32796	32832	
4536	0	32818	32714	
4537	0	32868	32660	
4538	0	32788	32736	
4539	0	32862	32709	
4540	0	32818	32791	
4541	0	32784	32736	
4542	0	32814	32700	
4543	0	32881	32664	
4544	0	32830	32687	
4545	0	32792	32816	
4546	0	32790	32692	
4547	0	32830	32775	
4548	0	32780	32713	
4549	0	32876	32727	
4550	0	32800	32678	
4551	0	32842	32681	
4552	0	32834	32737	
4553	0	32836	32766	
4554	0	32908	32746	
4555	0	32780	32647	
4556	0	32812	32700	
4557	0	32764	32784	
4558	0	32801	32727	
4559	0	32848	32762	
4560	0	32804	32775	
4561	0	32824	32742	
4562	0	32772	32770	
4563	0	32798	32838	
4564	0	32816	32797	
4565	0	32808	32808	
4566	0	32746	32700	
4567	0	32768	32810	
4568	0	32788	32746	
4569	0	32772	32790	
4570	0	32853	32716	
4571	0	32774	32710	
4572	0	32798	32674	
4573	0	32888	32748	
4574	0	32868	32718	
4575	0	32864	32704	
4576	0	32784	32748	
4577	0	32748	32703	
4578	0	32804	32843	
4579	0	32808	32864	
4580	0	32804	32774	
4581	0	32788	32804	
4582	0	32862	32798	
4583	0	32792	32788	
4584	0	32872	32852	
4585	0	32804	32792	
4586	0	32794	32836	
4587	0	32782	32831	
4588	0	32822	32824	
4589	0	32852	32748	
4590	0	32798	32815	
4591	0	32756	32775	
4592	0	32852	32794	
4593	0	32864	32823	
4594	0	32812	32788	
4595	0	32792	32856	
4596	0	32840	32807	
4597	0	32820	32788	
4598	0	32772	32868	
4599	0	32782	32884	
4600	0	32808	32786	
4601	0	32784	32762	
4602	0	32769	32818	
4603	0	32820	32808	
4604	0	32774	32775	
4605	0	32874	32752	
4606	0	32840	32728	
4607	0	32812	32709	
4608	0	32756	32702	
4609	0	32852	32738	
4610	0	32844	32774	
4611	0	32808	32694	
4612	0	32852	32730	
4613	0	32872	32732	
4614	0	32858	32702	
4615	0	32808	32864	
4616	0	32802	32708	
4617	0	32792	32792	
4618	0	32772	32686	
4619	0	32820	32716	
4620	0	32844	32824	
4621	0	32770	32750	
4622	0	32804	32817	
4623	0	32810	32748	
4624	0	32840	32812	
4625	0	32752	32680	
4626	0	32828	32742	
4627	0	32860	32665	
4628	0	32800	32807	
4629	0	32796	32706	
4630	0	32740	32775	
4631	0	32744	32741	
4632	0	32852	32807	
4633	0	32780	32730	
4634	0	32804	32762	
4635	0	32770	32821	
4636	0	32860	32738	
4637	0	32824	32668	
4638	0	32870	32720	
4639	0	32778	32775	
4640	0	32752	32815	
4641	0	32880	32822	
4642	0	32828	32820	
4643	0	32774	32775	
4644	0	32836	32850	
4645	0	32808	32820	
4646	0	32816	32748	
4647	0	32868	32812	
4648	0	32860	32753	
4649	0	32749	32670	
4650	0	32812	32743	
4651	0	32808	32832	
4652	0	32820	32808	
4653	0	32797	32792	
4654	0	32796	32842	
4655	0	32790	32769	
4656	0	32748	32721	
4657	0	32816	32701	
4658	0	32800	32774	
4659	0	32788	32706	
4660	0	32766	32768	
4661	0	32776	32812	
4662	0	32864	32740	
4663	0	32820	32814	
4664	0	32764	32775	
4665	0	32864	32702	
4666	0	32756	32775	
4667	0	32780	32754	
4668	0	32788	32812	
4669	0	32780	32796	
4670	0	32884	32775	
4671	0	32846	32786	
4672	0	32848	32689	
4673	0	32916	32718	
4674	0	32912	32652	
4675	0	32826	32711	
4676	0	32760	32724	
4677	0	32804	32752	
4678	0	32804	32704	
4679	0	32796	32767	
4680	0	32812	32871	
4681	0	32792	32756	
4682	0	32804	32807	
4683	0	32868	32784	
4684	0	32808	32732	
4685	0	32864	32718	
4686	0	32860	32820	
4687	0	32778	32832	
4688	0	32832	32827	
4689	0	32736	32858	
4690	0	32864	32762	
4691	0	32852	32790	
4692	0	32892	32754	
4693	0	32868	32871	
4694	0	32792	32735	
4695	0	32768	32725	
4696	0	32852	32878	
4697	0	32776	32811	
4698	0	32728	32761	
4699	0	32780	32830	
4700	0	32828	32720	
4701	0	32792	32930	
4702	0	32828	32782	
4703	0	32816	32926	
4704	0	32764	32796	
4705	0	32832	32708	
4706	0	32808	32769	
4707	0	32864	32768	
4708	0	32832	32846	
4709	0	32808	32759	
4710	0	32826	32808	
4711	0	32818	32726	
4712	0	32808	32724	
4713	0	32744	32690	
4714	0	32864	32775	
4715	0	32744	32796	
4716	0	32814	32678	
4717	0	32816	32726	
4718	0	32836	32798	
4719	0	32852	32846	
4720	0	32840	32815	
4721	0	32784	32766	
4722	0	32816	32740	
4723	0	32800	32767	
4724	0	32796	32824	
4725	0	32796	32788	
4726	0	32820	32858	
4727	0	32810	32822	
4728	0	32752	32818	
4729	0	32817	32794	
4730	0	32852	32768	
4731	0	32788	32830	
4732	0	32794	32753	
4733	0	32820	32736	
4734	0	32780	32767	
4735	0	32854	32787	
4736	0	32828	32766	
4737	0	32778	32744	
4738	0	32760	32816	
4739	0	32780	32856	
4740	0	32830	32846	
4741	0	32812	32830	
4742	0	32762	32745	
4743	0	32838	32758	
4744	0	32848	32765	
4745	0	32826	32815	
4746	0	32818	32817	
4747	0	32838	32798	
4748	0	32760	32820	
4749	0	32798	32786	
4750	0	32782	32844	
4751	0	32804	32788	
4752	0	32772	32788	
4753	0	32876	32768	
4754	0	32816	32784	
4755	0	32824	32808	
4756	0	32848	32864	
4757	0	32804	32764	
4758	0	32702	32754	
4759	0	32852	32808	
4760	0	32818	32775	
4761	0	32750	32799	
4762	0	32806	32774	
4763	0	32776	32832	
4764	0	32872	32766	
4765	0	32744	32756	
4766	0	32852	32828	
4767	0	32872	32775	
4768	0	32868	32679	
4769	0	32928	32684	
4770	0	32908	32652	
4771	0	32932	32584	
4772	0	32968	32510	
4773	0	32938	32508	
4774	0	32982	32490	
4775	0	33008	32506	
4776	0	32988	32584	
4777	0	32924	32553	
4778	0	32924	32664	
4779	0	32934	32662	
4780	0	32904	32730	
4781	0	32940	32751	
4782	0	32924	32772	
4783	0	32848	32793	
4784	0	32884	32796	
4785	0	32876	32794	
4786	0	32800	32820	
4787	0	32762	32871	
4788	0	32614	32881	
4789	0	32616	32932	
4790	0	32626	32870	
4791	0	32608	33060	
4792	0	32536	33053	
4793	0	32502	33090	
4794	0	32364	33168	
4795	0	32388	33132	
4796	0	32404	33125	
4797	0	32450	33008	
4798	0	32630	32976	
4799	0	32628	32967	
4800	0	32696	32879	
4801	0	32612	32892	
4802	0	32716	32862	
4803	0	32806	32789	
4804	0	32852	32832	
4805	0	32888	32775	
4806	0	32896	32662	
4807	0	32880	32681	
4808	0	32922	32625	
4809	0	32938	32582	
4810	0	33054	32602	
4811	0	33060	32639	
4812	0	32992	32658	
4813	0	32988	32638	
4814	0	32956	32689	
4815	0	32942	32660	
4816	0	32914	32658	
4817	0	32880	32732	
4818	0	32860	32764	
4819	0	32858	32803	
4820	0	32852	32812	
4821	0	32904	32732	
4822	0	32878	32775	
4823	0	32832	32775	
4824	0	32828	32775	
4825	0	32746	32726	
4826	0	32772	32754	
4827	0	32792	32775	
4828	0	32808	32798	
4829	0	32830	32751	
4830	0	32756	32766	
4831	0	32760	32790	
4832	0	32770	32834	
4833	0	32808	32792	
4834	0	32884	32828	
4835	0	32796	32772	
4836	0	32800	32853	
4837	0	32744	32808	
4838	0	32872	32775	
4839	0	32810	32886	
4840	0	32876	32846	
4841	0	32836	32879	
4842	0	32812	32738	
4843	0	32816	32713	
4844	0	32796	32775	
4845	0	32800	32775	
4846	0	32862	32838	
4847	0	32836	32764	
4848	0	32745	32791	
4849	0	32802	32830	
4850	0	32837	32830	
4851	0	32824	32746	
4852	0	32826	32838	
4853	0	32822	32694	
4854	0	32782	32828	
4855	0	32784	32838	
4856	0	32840	32889	
4857	0	32822	32660	
4858	0	32804	32756	
4859	0	32776	32703	
4860	0	32756	32692	
4861	0	32796	32734	
4862	0	32844	32728	
4863	0	32800	32810	
4864	0	32884	32796	
4865	0	32812	32746	
4866	0	32800	32774	
4867	0	32784	32767	
4868	0	32784	32732	
4869	0	32784	32788	
4870	0	32808	32736	
4871	0	32844	32839	
4872	0	32848	32732	
4873	0	32886	32700	
4874	0	32804	32750	
4875	0	32804	32684	
4876	0	32756	32716	
4877	0	32808	32798	
4878	0	32772	32824	
4879	0	32806	32804	
4880	0	32832	32746	
4881	0	32792	32821	
4882	0	32836	32736	
4883	0	32776	32751	
4884	0	32790	32735	
4885	0	32812	32748	
4886	0	32864	32932	
4887	0	32772	32760	
4888	0	32832	32880	
4889	0	32852	32836	
4890	0	32798	32804	
4891	0	32788	32748	
4892	0	32880	32714	
4893	0	32818	32710	
4894	0	32852	32793	
4895	0	32734	32732	
4896	0	32792	32658	
4897	0	32796	32932	
4898	0	32794	32801	
4899	0	32804	32790	
4900	0	32868	32796	
4901	0	32884	32718	
4902	0	32872	32743	
4903	0	32864	32767	
4904	0	32824	32816	
4905	0	32754	32799	
4906	0	32820	32708	
4907	0	32736	32746	
4908	0	32812	32719	
4909	0	32810	32810	
4910	0	32774	32732	
4911	0	32816	32753	
4912	0	32746	32704	
4913	0	32800	32783	
4914	0	32852	32820	
4915	0	32758	32697	
4916	0	32818	32775	
4917	0	32824	32765	
4918	0	32838	32754	
4919	0	32804	32886	
4920	0	32756	32695	
4921	0	32782	32826	
4922	0	32856	32711	
4923	0	32832	32831	
4924	0	32806	32671	
4925	0	32816	32786	
4926	0	32866	32775	
4927	0	32860	32783	
4928	0	32796	32774	
4929	0	32796	32823	
4930	0	32862	32769	
4931	0	32812	32815	
4932	0	32774	32858	
4933	0	32936	32764	
4934	0	32836	32724	
4935	0	32844	32830	
4936	0	32792	32926	
4937	0	32814	32842	
4938	0	32816	32702	
4939	0	32800	32670	
4940	0	32760	32618	
4941	0	32832	32574	
4942	0	32764	32624	
4943	0	32784	32586	
4944	0	32812	32772	
4945	0	32804	32828	
4946	0	32746	32727	
4947	0	32782	32814	
4948	0	32788	32820	
4949	0	32733	32790	
4950	0	32846	32720	
4951	0	32860	32760	
4952	0	32830	32852	
4953	0	32862	32807	
4954	0	32808	32748	
4955	0	32844	32739	
4956	0	32774	32852	
4957	0	32776	32744	
4958	0	32762	32775	
4959	0	32804	32760	
4960	0	32832	32730	
4961	0	32840	32806	
4962	0	32842	32766	
4963	0	32824	32794	
4964	0	32804	32708	
4965	0	32820	32784	
4966	0	32772	32855	
4967	0	32824	32737	
4968	0	32824	32733	
4969	0	32800	32750	
4970	0	32784	32703	
4971	0	32844	32656	
4972	0	32862	32708	
4973	0	32877	32706	
4974	0	32828	32684	
4975	0	32804	32642	
4976	0	32808	32706	
4977	0	32740	32740	
4978	0	32756	32670	
4979	0	32789	32770	
4980	0	32792	32661	
4981	0	32812	32708	
4982	0	32750	32727	
4983	0	32800	32814	
4984	0	32772	32714	
4985	0	32798	32871	
4986	0	32786	32802	
4987	0	32936	32748	
4988	0	32960	32838	
4989	0	32876	32836	
4990	0	32898	32728	
4991	0	32881	32722	
4992	0	32916	32807	
4993	0	32816	32830	
4994	0	32728	32726	
4995	0	32580	32672	
4996	0	32616	32742	
4997	0	32680	32794	
4998	0	32784	32704	
4999	0	32760	32738	
5000	0	32740	32712	
5001	0	32772	32759	
5002	0	32852	32728	
5003	0	32902	32718	
5004	0	32912	32710	
5005	0	32794	32694	
5006	0	32904	32756	
5007	0	32838	32758	
5008	0	32832	32826	
5009	0	32700	32758	
5010	0	32870	32797	
5011	0	32812	32831	
5012	0	32847	32790	
5013	0	32764	32839	
5014	0	32780	32836	
5015	0	32880	32791	
5016	0	32838	32730	
5017	0	32886	32712	
5018	0	32904	32708	
5019	0	32800	32712	
5020	0	32802	32687	
5021	0	32832	32647	
5022	0	32756	32652	
5023	0	32876	32667	
5024	0	32804	32711	
5025	0	32772	32708	
5026	0	32769	32767	
5027	0	32834	32830	
5028	0	32706	32766	
5029	0	32766	32805	
5030	0	32818	32764	
5031	0	32808	32862	
5032	0	32820	32726	
5033	0	32796	32811	
5034	0	32878	32740	
5035	0	32748	32732	
5036	0	32820	32694	
5037	0	32844	32682	
5038	0	32812	32796	
5039	0	32844	32832	
5040	0	32756	32750	
5041	0	32816	32889	
5042	0	32828	32796	
5043	0	32764	32736	
5044	0	32810	32855	
5045	0	32780	32838	
5046	0	32780	32794	
5047	0	32794	32816	
5048	0	32830	32802	
5049	0	32784	32796	
5050	0	32804	32826	
5051	0	32777	32762	
5052	0	32800	32836	
5053	0	32788	32802	
5054	0	32740	32759	
5055	0	32780	32733	
5056	0	32781	32767	
5057	0	32842	32816	
5058	0	32876	32826	
5059	0	32804	32775	
5060	0	32846	32806	
5061	0	32916	32871	
5062	0	32808	32846	
5063	0	32796	32815	
5064	0	32791	32852	
5065	0	32798	32775	
5066	0	32816	32862	
5067	0	32841	32822	
5068	0	32862	32730	
5069	0	32840	32724	
5070	0	32836	32712	
5071	0	32764	32692	
5072	0	32784	32692	
5073	0	32788	32688	
5074	0	32800	32658	
5075	0	32848	32702	
5076	0	32700	32704	
5077	0	32800	32718	
5078	0	32789	32702	
5079	0	32792	32711	
5080	0	32834	32654	
5081	0	32814	32686	
5082	0	32856	32707	
5083	0	32776	32720	
5084	0	32828	32750	
5085	0	32836	32770	
5086	0	32880	32762	
5087	0	32804	32751	
5088	0	32864	32866	
5089	0	32826	32814	
5090	0	32804	32732	
5091	0	32764	32770	
5092	0	32834	32775	
5093	0	32832	32792	
5094	0	32840	32874	
5095	0	32800	32807	
5096	0	32749	32646	
5097	0	32780	32674	
5098	0	32880	32656	
5099	0	32896	32647	
5100	0	32820	32775	
5101	0	32808	32655	
5102	0	32812	32864	
5103	0	32830	32764	
5104	0	32784	32742	
5105	0	32838	32804	
5106	0	32764	32802	
5107	0	32868	32732	
5108	0	32912	32828	
5109	0	32800	32832	
5110	0	32852	32750	
5111	0	32866	32696	
5112	0	32876	32756	
5113	0	32814	32836	
5114	0	32800	32919	
5115	0	32814	32850	
5116	0	32836	32788	
5117	0	32788	32743	
5118	0	32792	32775	
5119	0	32768	32744	
5120	0	32756	32694	
5121	0	32856	32718	
5122	0	32838	32819	
5123	0	32780	32806	
5124	0	32778	32748	
5125	0	32804	32820	
5126	0	32836	32823	
5127	0	32848	32836	
5128	0	32768	32730	
5129	0	32900	32708	
5130	0	32876	32728	
5131	0	32814	32706	
5132	0	32804	32746	
5133	0	32852	32708	
5134	0	32816	32736	
5135	0	32868	32772	
5136	0	32764	32681	
5137	0	32774	32748	
5138	0	32882	32816	
5139	0	32720	32888	
5140	0	32806	32791	
5141	0	32874	32786	
5142	0	33008	32806	
5143	0	32964	32876	
5144	0	32892	32942	
5145	0	32856	32892	
5146	0	32860	32796	
5147	0	32788	32844	
5148	0	32880	32794	
5149	0	32734	32740	
5150	0	32664	32788	
5151	0	32692	32692	
5152	0	32724	32686	
5153	0	32692	32500	
5154	0	32688	32588	
5155	0	32648	32635	
5156	0	32668	32775	
5157	0	32744	32821	
5158	0	32756	32775	
5159	0	32840	32850	
5160	0	32832	32988	
5161	0	32944	32857	
5162	0	32920	32924	
5163	0	32828	32831	
5164	0	32740	32839	
5165	0	32712	32823	
5166	0	32852	32756	
5167	0	32798	32756	
5168	0	32808	32820	
5169	0	32812	32775	
5170	0	32854	32846	
5171	0	32964	32798	
5172	0	32952	32818	
5173	0	32892	32775	
5174	0	32900	32834	
5175	0	32920	32896	
5176	0	32860	32800	
5177	0	32824	32874	
5178	0	32812	32834	
5179	0	32832	32828	
5180	0	32758	32815	
5181	0	32750	32884	
5182	0	32758	32834	
5183	0	32712	32827	
5184	0	32772	32760	
5185	0	32730	32878	
5186	0	32768	32892	
5187	0	32820	32829	
5188	0	32842	32772	
5189	0	32772	32700	
5190	0	32818	32740	
5191	0	32858	32756	
5192	0	32838	32740	
5193	0	32858	32768	
5194	0	32778	32809	
5195	0	32804	32775	
5196	0	32792	32870	
5197	0	32826	32857	
5198	0	32801	32804	
5199	0	32790	32812	
5200	0	32785	32820	
5201	0	32792	32816	
5202	0	32746	32735	
5203	0	32752	32828	
5204	0	32732	32672	
5205	0	32830	32806	
5206	0	32774	32812	
5207	0	32844	32874	
5208	0	32924	32842	
5209	0	32840	32775	
5210	0	32906	32740	
5211	0	32808	32762	
5212	0	32732	32722	
5213	0	32624	32793	
5214	0	32668	32720	
5215	0	32692	32718	
5216	0	32740	32686	
5217	0	32780	32751	
5218	0	32852	32762	
5219	0	33012	32815	
5220	0	33159	32860	
5221	0	33160	32786	
5222	0	33028	32810	
5223	0	32878	32822	
5224	0	32856	32756	
5225	0	32856	32700	
5226	0	32724	32639	
5227	0	32768	32786	
5228	0	32736	32804	
5229	0	32774	32798	
5230	0	32713	32775	
5231	0	32792	32774	
5232	0	32848	32775	
5233	0	32986	32838	
5234	0	32864	32788	
5235	0	32804	32742	
5236	0	32852	32719	
5237	0	32740	32817	
5238	0	32672	32724	
5239	0	32658	32834	
5240	0	32656	32800	
5241	0	32740	32860	
5242	0	32736	32710	
5243	0	32744	32716	
5244	0	32700	32784	
5245	0	32712	32814	
5246	0	32792	32730	
5247	0	32810	32830	
5248	0	32842	32852	
5249	0	32832	32736	
5250	0	32820	32841	
5251	0	32828	32871	
5252	0	32912	32902	
5253	0	33052	32876	
5254	0	32978	32871	
5255	0	32920	32890	
5256	0	33060	32766	
5257	0	32968	32838	
5258	0	32920	32688	
5259	0	32744	32775	
5260	0	32636	32792	
5261	0	32612	32702	
5262	0	32546	32604	
5263	0	32488	32702	
5264	0	32532	32631	
5265	0	32568	32690	
5266	0	32606	32775	
5267	0	32822	32788	
5268	0	32808	32701	
5269	0	32762	32754	
5270	0	32910	32784	
5271	0	32916	32772	
5272	0	32972	32612	
5273	0	32920	32726	
5274	0	32813	32743	
5275	0	32910	32743	
5276	0	32906	32863	
5277	0	32830	32848	
5278	0	32854	32708	
5279	0	32884	32716	
5280	0	32832	32681	
5281	0	32872	32716	
5282	0	32970	32692	
5283	0	32914	32718	
5284	0	32896	32842	
5285	0	32854	32830	
5286	0	32768	32791	
5287	0	32880	32775	
5288	0	32852	32724	
5289	0	32832	32826	
5290	0	32800	32759	
5291	0	32866	32816	
5292	0	32816	32652	
5293	0	32780	32798	
5294	0	32824	32754	
5295	0	32820	32802	
5296	0	32844	32673	
5297	0	32808	32784	
5298	0	32740	32682	
5299	0	32794	32691	
5300	0	32762	32710	
5301	0	32836	32708	
5302	0	32786	32766	
5303	0	32760	32742	
5304	0	32840	32711	
5305	0	32808	32690	
5306	0	32810	32774	
5307	0	32816	32802	
5308	0	32804	32720	
5309	0	32784	32844	
5310	0	32828	32722	
5311	0	32798	32732	
5312	0	32812	32758	
5313	0	32812	32808	
5314	0	32804	32766	
5315	0	32768	32810	
5316	0	32780	32790	
5317	0	32784	32890	
5318	0	32798	32828	
5319	0	32814	32782	
5320	0	32840	32736	
5321	0	32832	32704	
5322	0	32876	32696	
5323	0	32838	32764	
5324	0	32816	32773	
5325	0	32768	32772	
5326	0	32832	32732	
5327	0	32846	32774	
5328	0	32864	32784	
5329	0	32868	32830	
5330	0	32848	32802	
5331	0	32848	32814	
5332	0	32900	32804	
5333	0	32880	32769	
5334	0	32870	32790	
5335	0	32798	32746	
5336	0	32816	32728	
5337	0	32721	32814	
5338	0	32766	32838	
5339	0	32806	32834	
5340	0	32828	32836	
5341	0	32840	32880	
5342	0	32936	32808	
5343	0	32840	32836	
5344	0	32868	32796	
5345	0	32842	32860	
5346	0	32796	32790	
5347	0	32868	32738	
5348	0	32832	32766	
5349	0	32836	32743	
5350	0	32780	32775	
5351	0	32758	32698	
5352	0	32686	32770	
5353	0	32716	32762	
5354	0	32736	32760	
5355	0	32800	32802	
5356	0	32716	32700	
5357	0	32780	32832	
5358	0	32804	32775	
5359	0	32866	32774	
5360	0	32872	32839	
5361	0	32896	32750	
5362	0	32824	32830	
5363	0	32832	32834	
5364	0	32900	32820	
5365	0	32821	32844	
5366	0	32748	32724	
5367	0	32824	32692	
5368	0	32816	32775	
5369	0	32852	32707	
5370	0	32756	32738	
5371	0	32884	32662	
5372	0	32799	32734	
5373	0	32808	32720	
5374	0	32888	32647	
5375	0	32832	32710	
5376	0	32764	32704	
5377	0	32885	32852	
5378	0	32777	32796	
5379	0	32850	32754	
5380	0	32816	32762	
5381	0	32775	32839	
5382	0	32796	32764	
5383	0	32812	32812	
5384	0	32832	32772	
5385	0	32744	32799	
5386	0	32780	32860	
5387	0	32816	32748	
5388	0	32842	32748	
5389	0	32794	32759	
5390	0	32840	32751	
5391	0	32865	32718	
5392	0	32888	32708	
5393	0	32862	32814	
5394	0	32796	32772	
5395	0	32822	32756	
5396	0	32724	32818	
5397	0	32748	32775	
5398	0	32792	32748	
5399	0	32872	32735	
5400	0	32892	32720	
5401	0	32880	32725	
5402	0	32902	32793	
5403	0	32896	32775	
5404	0	32870	32679	
5405	0	32748	32686	
5406	0	32752	32698	
5407	0	32632	32832	
5408	0	32548	32886	
5409	0	32642	32998	
5410	0	32756	32866	
5411	0	32748	32738	
5412	0	32728	32711	
5413	0	32876	32712	
5414	0	32856	32612	
5415	0	32940	32610	
5416	0	32910	32625	
5417	0	32834	32647	
5418	0	32824	32848	
5419	0	32804	32751	
5420	0	32788	32812	
5421	0	32856	32902	
5422	0	32860	32817	
5423	0	32762	32775	
5424	0	32780	32846	
5425	0	32816	32804	
5426	0	32792	32758	
5427	0	32938	32808	
5428	0	32796	32817	
5429	0	32804	32742	
5430	0	32804	32750	
5431	0	32775	32768	
5432	0	32816	32800	
5433	0	32820	32772	
5434	0	32758	32806	
5435	0	32792	32863	
5436	0	32848	32743	
5437	0	32836	32754	
5438	0	32836	32798	
5439	0	32800	32722	
5440	0	32804	32820	
5441	0	32800	32812	
5442	0	32812	32766	
5443	0	32800	32847	
5444	0	32872	32775	
5445	0	32808	32803	
5446	0	32828	32751	
5447	0	32834	32754	
5448	0	32810	32822	
5449	0	32802	32752	
5450	0	32770	32761	
5451	0	32830	32791	
5452	0	32832	32824	
5453	0	32816	32775	
5454	0	32842	32812	
5455	0	32800	32790	
5456	0	32748	32814	
5457	0	32725	32796	
5458	0	32836	32743	
5459	0	32820	32756	
5460	0	32852	32806	
5461	0	32820	32796	
5462	0	32820	32726	
5463	0	32774	32666	
5464	0	32800	32742	
5465	0	32870	32664	
5466	0	32794	32698	
5467	0	32760	32655	
5468	0	32784	32719	
5469	0	32756	32896	
5470	0	32820	32828	
5471	0	32852	32854	
5472	0	32816	32838	
5473	0	32852	32770	
5474	0	32808	32664	
5475	0	32816	32775	
5476	0	32804	32806	
5477	0	32766	32766	
5478	0	32808	32802	
5479	0	32736	32818	
5480	0	32820	32808	
5481	0	32809	32846	
5482	0	32830	32832	
5483	0	32810	32762	
5484	0	32864	32716	
5485	0	32844	32724	
5486	0	32796	32741	
5487	0	32848	32756	
5488	0	32801	32746	
5489	0	32836	32756	
5490	0	32784	32705	
5491	0	32764	32702	
5492	0	32816	32714	
5493	0	32824	32712	
5494	0	32756	32644	
5495	0	32872	32692	
5496	0	32752	32775	
5497	0	32756	32698	
5498	0	32838	32704	
5499	0	32865	32726	
5500	0	32796	32855	
5501	0	32776	32866	
5502	0	32828	32830	
5503	0	32804	32826	
5504	0	32728	32796	
5505	0	32800	32678	
5506	0	32856	32708	
5507	0	32752	32708	
5508	0	32764	32697	
5509	0	32836	32750	
5510	0	32792	32722	
5511	0	32808	32756	
5512	0	32860	32755	
5513	0	32898	32720	
5514	0	32956	32726	
5515	0	32912	32621	
5516	0	32980	32540	
5517	0	32964	32638	
5518	0	32940	32644	
5519	0	32922	32529	
5520	0	32980	32597	
5521	0	32984	32567	
5522	0	32968	32581	
5523	0	32976	32710	
5524	0	32846	32804	
5525	0	32828	32838	
5526	0	32860	32740	
5527	0	32904	32734	
5528	0	32968	32676	
5529	0	32946	32722	
5530	0	32860	32766	
5531	0	32856	32700	
5532	0	32682	32886	
5533	0	32706	32858	
5534	0	32666	32900	
5535	0	32652	32952	
5536	0	32536	32900	
5537	0	32512	32972	
5538	0	32542	32940	
5539	0	32440	33108	
5540	0	32440	33134	
5541	0	32417	33115	
5542	0	32548	33126	
5543	0	32564	33007	
5544	0	32552	32982	
5545	0	32644	32876	
5546	0	32724	32928	
5547	0	32678	32847	
5548	0	32710	32775	
5549	0	32760	32726	
5550	0	32908	32716	
5551	0	32876	32754	
5552	0	32844	32704	
5553	0	32924	32726	
5554	0	33012	32634	
5555	0	33026	32616	
5556	0	33020	32657	
5557	0	32972	32647	
5558	0	32956	32684	
5559	0	32908	32708	
5560	0	32884	32820	
5561	0	32894	32734	
5562	0	32836	32724	
5563	0	32952	32756	
5564	0	32857	32766	
5565	0	32874	32956	
5566	0	32858	32887	
5567	0	32804	32814	
5568	0	32844	32704	
5569	0	32886	32710	
5570	0	32820	32742	
5571	0	32820	32792	
5572	0	32757	32697	
5573	0	32760	32775	
5574	0	32736	32759	
5575	0	32814	32790	
5576	0	32840	32775	
5577	0	32708	32700	
5578	0	32796	32724	
5579	0	32876	32742	
5580	0	32828	32706	
5581	0	32836	32706	
5582	0	32838	32764	
5583	0	32792	32676	
5584	0	32812	32600	
5585	0	32774	32726	
5586	0	32808	32714	
5587	0	32840	32710	
5588	0	32784	32671	
5589	0	32862	32750	
5590	0	32868	32710	
5591	0	32868	32643	
5592	0	32798	32668	
5593	0	32770	32712	
5594	0	32732	32712	
5595	0	32780	32818	
5596	0	32808	32868	
5597	0	32764	32775	
5598	0	32852	32742	
5599	0	32792	32822	
5600	0	32772	32758	
5601	0	32818	32796	
5602	0	32860	32743	
5603	0	32900	32759	
5604	0	32804	32878	
5605	0	32788	32878	
5606	0	32884	32883	
5607	0	32874	32846	
5608	0	32808	32750	
5609	0	32868	32672	
5610	0	32796	32800	
5611	0	32828	32922	
5612	0	32828	32818	
5613	0	32704	32826	
5614	0	32670	32740	
5615	0	32682	32812	
5616	0	32640	32698	
5617	0	32612	32718	
5618	0	32772	32756	
5619	0	32888	32750	
5620	0	32880	32750	
5621	0	32896	32660	
5622	0	32960	32738	
5623	0	32932	32694	
5624	0	32860	32708	
5625	0	32826	32740	
5626	0	32772	32748	
5627	0	32852	32732	
5628	0	32849	32750	
5629	0	32756	32674	
5630	0	32744	32798	
5631	0	32725	32810	
5632	0	32760	32767	
5633	0	32766	32744	
5634	0	32820	32754	
5635	0	32864	32732	
5636	0	32816	32752	
5637	0	32844	32808	
5638	0	32847	32696	
5639	0	32804	32724	
5640	0	32820	32722	
5641	0	32816	32806	
5642	0	32830	32845	
5643	0	32844	32891	
5644	0	32702	32756	
5645	0	32784	32722	
5646	0	32828	32775	
5647	0	32786	32736	
5648	0	32828	32693	
5649	0	32844	32744	
5650	0	32832	32774	
5651	0	32796	32644	
5652	0	32834	32636	
5653	0	32900	32692	
5654	0	32836	32806	
5655	0	32844	32772	
5656	0	32836	32806	
5657	0	32826	32876	
5658	0	32824	32838	
5659	0	32828	32850	
5660	0	32764	32753	
5661	0	32732	32775	
5662	0	32754	32796	
5663	0	32828	32784	
5664	0	32902	32862	
5665	0	32876	32812	
5666	0	32832	32910	
5667	0	32812	32711	
5668	0	32828	32675	
5669	0	32754	32687	
5670	0	32706	32706	
5671	0	32616	32756	
5672	0	32704	32684	
5673	0	32760	32692	
5674	0	32789	32724	
5675	0	32802	32802	
5676	0	32744	32772	
5677	0	32739	32768	
5678	0	32788	32788	
5679	0	32878	32775	
5680	0	32864	32754	
5681	0	32858	32842	
5682	0	32844	32812	
5683	0	32837	32798	
5684	0	32833	32860	
5685	0	32828	32852	
5686	0	32876	32775	
5687	0	32820	32743	
5688	0	32832	32689	
5689	0	32836	32718	
5690	0	32816	32685	
5691	0	32780	32618	
5692	0	32772	32748	
5693	0	32814	32792	
5694	0	32836	32760	
5695	0	32842	32753	
5696	0	32802	32757	
5697	0	32784	32787	
5698	0	32760	32824	
5699	0	32862	32876	
5700	0	32854	32804	
5701	0	32818	32728	
5702	0	32864	32748	
5703	0	32802	32748	
5704	0	32840	32844	
5705	0	32798	32816	
5706	0	32754	32920	
5707	0	32846	32815	
5708	0	32832	32702	
5709	0	32776	32740	
5710	0	32794	32746	
5711	0	32768	32670	
5712	0	32828	32702	
5713	0	32842	32808	
5714	0	32832	32772	
5715	0	32848	32841	
5716	0	32778	32774	
5717	0	32730	32770	
5718	0	32777	32822	
5719	0	32800	32751	
5720	0	32788	32775	
5721	0	32808	32856	
5722	0	32888	32786	
5723	0	32896	32764	
5724	0	32872	32766	
5725	0	32768	32759	
5726	0	32744	32828	
5727	0	32836	32824	
5728	0	32848	32775	
5729	0	32752	32803	
5730	0	32768	32836	
5731	0	32744	32646	
5732	0	32878	32578	
5733	0	32800	32708	
5734	0	32892	32791	
5735	0	32824	32696	
5736	0	32800	32822	
5737	0	32796	32902	
5738	0	32824	32722	
5739	0	32836	32616	
5740	0	32780	32782	
5741	0	32738	32836	
5742	0	32782	32743	
5743	0	32822	32743	
5744	0	32804	32775	
5745	0	32728	32655	
5746	0	32770	32743	
5747	0	32852	32745	
5748	0	32796	32805	
5749	0	32841	32758	
5750	0	32764	32733	
5751	0	32774	32724	
5752	0	32856	32922	
5753	0	32848	32714	
5754	0	32868	32828	
5755	0	32820	32790	
5756	0	32868	32678	
5757	0	32826	32772	
5758	0	32852	32752	
5759	0	32788	32748	
5760	0	32836	32786	
5761	0	32820	32722	
5762	0	32828	32854	
5763	0	32847	32711	
5764	0	32868	32808	
5765	0	32836	32812	
5766	0	32826	32704	
5767	0	32840	32852	
5768	0	32746	32740	
5769	0	32788	32692	
5770	0	32776	32790	
5771	0	32824	32775	
5772	0	32888	32788	
5773	0	32888	32714	
5774	0	32816	32792	
5775	0	32866	32720	
5776	0	32820	32807	
5777	0	32745	32754	
5778	0	32804	32722	
5779	0	32816	32794	
5780	0	32772	32742	
5781	0	32880	32732	
5782	0	32810	32775	
5783	0	32790	32799	
5784	0	32766	32719	
5785	0	32782	32812	
5786	0	32790	32864	
5787	0	32772	32775	
5788	0	32830	32744	
5789	0	32720	32761	
5790	0	32700	32728	
5791	0	32850	32862	
5792	0	32868	32743	
5793	0	32836	32775	
5794	0	32912	32830	
5795	0	32826	32774	
5796	0	32860	32775	
5797	0	32796	32775	
5798	0	32848	32746	
5799	0	32856	32792	
5800	0	32792	32706	
5801	0	32788	32705	
5802	0	32784	32869	
5803	0	32764	32734	
5804	0	32816	32701	
5805	0	32720	32864	
5806	0	32740	32792	
5807	0	32700	32712	
5808	0	32748	32764	
5809	0	32758	32743	
5810	0	32724	32735	
5811	0	32716	32726	
5812	0	32866	32775	
5813	0	32854	32827	
5814	0	32876	32815	
5815	0	32844	32775	
5816	0	32756	32788	
5817	0	32876	32758	
5818	0	32798	32868	
5819	0	32836	32830	
5820	0	32808	32708	
5821	0	32832	32775	
5822	0	32842	32725	
5823	0	32862	32764	
5824	0	32852	32719	
5825	0	32828	32808	
5826	0	32768	32762	
5827	0	32805	32750	
5828	0	32772	32792	
5829	0	32804	32746	
5830	0	32796	32856	
5831	0	32824	32787	
5832	0	32840	32634	
5833	0	32772	32708	
5834	0	32804	32638	
5835	0	32871	32720	
5836	0	32796	32743	
5837	0	32738	32807	
5838	0	32832	32812	
5839	0	32864	32620	
5840	0	32781	32756	
5841	0	32736	32716	
5842	0	32756	32871	
5843	0	32800	32855	
5844	0	32736	32743	
5845	0	32816	32770	
5846	0	32820	32730	
5847	0	32922	32900	
5848	0	32864	32879	
5849	0	32848	32720	
5850	0	32956	32834	
5851	0	32864	32768	
5852	0	32828	32756	
5853	0	32808	32700	
5854	0	32804	32652	
5855	0	32776	32710	
5856	0	32748	32656	
5857	0	32834	32754	
5858	0	32856	32723	
5859	0	32874	32722	
5860	0	32872	32796	
5861	0	32816	32663	
5862	0	32828	32826	
5863	0	32832	32798	
5864	0	32824	32826	
5865	0	32804	32854	
5866	0	32792	32775	
5867	0	32812	32754	
5868	0	32872	32820	
5869	0	32784	32799	
5870	0	32720	32868	
5871	0	32804	32876	
5872	0	32876	32860	
5873	0	32806	32672	
5874	0	32844	32679	
5875	0	32816	32610	
5876	0	32740	32620	
5877	0	32810	32631	
5878	0	32792	32756	
5879	0	32832	32774	
5880	0	32884	32775	
5881	0	32814	32757	
5882	0	32786	32902	
5883	0	32762	32775	
5884	0	32844	32678	
5885	0	32836	32713	
5886	0	32844	32688	
5887	0	32876	32792	
5888	0	32868	32826	
5889	0	32844	32794	
5890	0	32838	32876	
5891	0	32796	32743	
5892	0	32788	32798	
5893	0	32864	32745	
5894	0	32784	32844	
5895	0	32868	32850	
5896	0	32812	32890	
5897	0	32792	32746	
5898	0	32772	32712	
5899	0	32740	32742	
5900	0	32832	32775	
5901	0	32884	32789	
5902	0	32796	32834	
5903	0	32806	32809	
5904	0	32778	32812	
5905	0	32776	32775	
5906	0	32800	32770	
5907	0	32832	32775	
5908	0	32816	32788	
5909	0	32772	32734	
5910	0	32692	32698	
5911	0	32672	32720	
5912	0	32684	32700	
5913	0	32780	32695	
5914	0	32900	32751	
5915	0	32894	32868	
5916	0	32888	32839	
5917	0	32908	32834	
5918	0	32904	32839	
5919	0	32836	32854	
5920	0	32800	32772	
5921	0	32816	32746	
5922	0	32790	32750	
5923	0	32864	32787	
5924	0	32848	32815	
5925	0	32856	32880	
5926	0	32920	32846	
5927	0	32784	32807	
5928	0	32816	32756	
5929	0	32772	32742	
5930	0	32740	32818	
5931	0	32704	32724	
5932	0	32740	32726	
5933	0	32772	32676	
5934	0	32836	32746	
5935	0	32792	32695	
5936	0	32784	32775	
5937	0	32800	32702	
5938	0	32784	32798	
5939	0	32788	32704	
5940	0	32814	32712	
5941	0	32834	32764	
5942	0	32860	32839	
5943	0	32794	32824	
5944	0	32848	32871	
5945	0	32840	32796	
5946	0	32769	32791	
5947	0	32800	32790	
5948	0	32838	32754	
5949	0	32800	32740	
5950	0	32820	32698	
5951	0	32844	32810	
5952	0	32816	32737	
5953	0	32820	32842	
5954	0	32754	32788	
5955	0	32800	32832	
5956	0	32792	32860	
5957	0	32796	32686	
5958	0	32756	32694	
5959	0	32708	32739	
5960	0	32784	32735	
5961	0	32796	32647	
5962	0	32780	32730	
5963	0	32752	32696	
5964	0	32876	32710	
5965	0	32812	32844	
5966	0	32876	32810	
5967	0	32802	32758	
5968	0	32810	32854	
5969	0	32774	32740	
5970	0	32824	32694	
5971	0	32814	32733	
5972	0	32864	32775	
5973	0	32836	32766	
5974	0	32796	32871	
5975	0	32826	32810	
5976	0	32844	32799	
5977	0	32828	32767	
5978	0	32840	32775	
5979	0	32838	32764	
5980	0	32815	32679	
5981	0	32792	32686	
5982	0	32760	32712	
5983	0	32824	32736	
5984	0	32722	32772	
5985	0	32800	32734	
5986	0	32848	32810	
5987	0	32840	32804	
5988	0	32784	32791	
5989	0	32812	32767	
5990	0	32792	32823	
5991	0	32772	32839	
5992	0	32780	32772	
5993	0	32804	32817	
5994	0	32794	32823	
5995	0	32790	32806	
5996	0	32786	32866	
5997	0	32798	32945	
5998	0	32816	32874	
5999	0	32832	32718	
6000	0	32776	32742	
6001	0	32816	32736	
6002	0	32838	32615	
6003	0	32800	32614	
6004	0	32872	32664	
6005	0	32810	32815	
6006	0	32780	32804	
6007	0	32832	32862	
6008	0	32794	32842	
6009	0	32798	32732	
6010	0	32844	32740	
6011	0	32884	32838	
6012	0	32804	32676	
