# OpenSignals Text File Format. Version 1
# {"00:07:80:8C:0A:39": {"position": 0, "device": "biosignalsplux", "device name": "00:07:80:8C:0A:39", "device connection": "BTH00:07:80:8C:0A:39", "sampling rate": 1000, "resolution": [16, 16], "firmware version": 776, "comments": "", "keywords": "", "mode": 0, "sync interval": 2, "date": "2023-3-10", "time": "15:27:23.611", "channels": [1, 2], "sensor": ["EMG", "EMG"], "label": ["CH1", "CH2"], "column": ["nSeq", "DI", "CH1", "CH2"], "special": [{"SpO2": [80, 40, 5, 4, 3, 3]}, {"SpO2": [80, 40, 5, 4, 3, 3]}, {"SpO2": [80, 40, 5, 4, 3, 3]}, {"SpO2": [80, 40, 5, 4, 3, 3]}, {"SpO2": [80, 40, 5, 4, 3, 3]}, {"SpO2": [80, 40, 5, 4, 3, 3]}, {"SpO2": [80, 40, 5, 4, 3, 3]}, {"SpO2": [80, 40, 5, 4, 3, 3]}], "digital IO": [0, 1], "sleeve color": ["gray", "yellow"], "convertedValues": 0}}
# EndOfHeader
0	0	32826	32810	
1	0	32896	32830	
2	0	32800	32810	
3	0	32820	32876	
4	0	32848	32760	
5	0	32786	32796	
6	0	32820	32772	
7	0	32762	32816	
8	0	32802	32720	
9	0	32836	32708	
10	0	32802	32748	
11	0	32804	32802	
12	0	32796	32807	
13	0	32866	32710	
14	0	32856	32744	
15	0	32824	32647	
16	0	32768	32724	
17	0	32780	32760	
18	0	32832	32772	
19	0	32758	32676	
20	0	32800	32798	
21	0	32810	32716	
22	0	32780	32694	
23	0	32832	32820	
24	0	32824	32660	
25	0	32820	32768	
26	0	32858	32759	
27	0	32844	32752	
28	0	32844	32708	
29	0	32863	32858	
30	0	32752	32728	
31	0	32788	32720	
32	0	32736	32768	
33	0	32788	32766	
34	0	32792	32823	
35	0	32792	32634	
36	0	32816	32696	
37	0	32780	32816	
38	0	32802	32871	
39	0	32846	32824	
40	0	32782	32710	
41	0	32844	32726	
42	0	32828	32834	
43	0	32808	32847	
44	0	32778	32820	
45	0	32826	32856	
46	0	32800	32690	
47	0	32772	32679	
48	0	32784	32704	
49	0	32880	32816	
50	0	32820	32742	
51	0	32772	32772	
52	0	32820	32775	
53	0	32794	32774	
54	0	32824	32799	
55	0	32796	32654	
56	0	32820	32682	
57	0	32792	32900	
58	0	32808	32758	
59	0	32752	32720	
60	0	32848	32759	
61	0	32788	32716	
62	0	32832	32764	
63	0	32840	32806	
64	0	32852	32740	
65	0	32832	32752	
66	0	32844	32682	
67	0	32856	32770	
68	0	32824	32722	
69	0	32834	32808	
70	0	32762	32822	
71	0	32884	32806	
72	0	32836	32788	
73	0	32812	32838	
74	0	32836	32708	
75	0	32816	32708	
76	0	32780	32896	
77	0	32752	32775	
78	0	32792	32684	
79	0	32764	32798	
80	0	32772	32708	
81	0	32808	32758	
82	0	32848	32708	
83	0	32821	32714	
84	0	32842	32874	
85	0	32808	32742	
86	0	32840	32792	
87	0	32770	32775	
88	0	32780	32818	
89	0	32774	32702	
90	0	32760	32706	
91	0	32798	32852	
92	0	32836	32786	
93	0	32812	32724	
94	0	32716	32836	
95	0	32796	32750	
96	0	32780	32775	
97	0	32778	32864	
98	0	32852	32894	
99	0	32816	32775	
100	0	32846	32728	
101	0	32840	32768	
102	0	32844	32748	
103	0	32854	32775	
104	0	32780	32796	
105	0	32832	32804	
106	0	32808	32814	
107	0	32800	32772	
108	0	32772	32744	
109	0	32792	32775	
110	0	32772	32658	
111	0	32864	32736	
112	0	32828	32694	
113	0	32832	32808	
114	0	32792	32786	
115	0	32804	32834	
116	0	32816	32775	
117	0	32760	32750	
118	0	32782	32818	
119	0	32732	32870	
120	0	32868	32774	
121	0	32784	32732	
122	0	32836	32768	
123	0	32804	32680	
124	0	32840	32692	
125	0	32884	32656	
126	0	32824	32718	
127	0	32790	32678	
128	0	32816	32728	
129	0	32820	32641	
130	0	32796	32718	
131	0	32828	32928	
132	0	32788	32796	
133	0	32736	32774	
134	0	32804	32800	
135	0	32804	32840	
136	0	32896	32846	
137	0	32904	32724	
138	0	32830	32732	
139	0	32788	32648	
140	0	32820	32808	
141	0	32840	32696	
142	0	32820	32762	
143	0	32856	32744	
144	0	32788	32738	
145	0	32764	32768	
146	0	32820	32748	
147	0	32864	32734	
148	0	32816	32775	
149	0	32820	32720	
150	0	32808	32838	
151	0	32798	32804	
152	0	32852	32844	
153	0	32812	32710	
154	0	32748	32670	
155	0	32776	32742	
156	0	32764	32716	
157	0	32792	32804	
158	0	32828	32878	
159	0	32824	32688	
160	0	32788	32740	
161	0	32732	32774	
162	0	32832	32742	
163	0	32756	32800	
164	0	32804	32768	
165	0	32792	32748	
166	0	32836	32743	
167	0	32836	32828	
168	0	32836	32744	
169	0	32788	32664	
170	0	32820	32754	
171	0	32846	32846	
172	0	32788	32838	
173	0	32756	32756	
174	0	32786	32646	
175	0	32846	32663	
176	0	32840	32732	
177	0	32868	32742	
178	0	32796	32798	
179	0	32840	32864	
180	0	32820	32836	
181	0	32800	32720	
182	0	32816	32775	
183	0	32796	32792	
184	0	32836	32780	
185	0	32744	32716	
186	0	32836	32768	
187	0	32828	32792	
188	0	32840	32684	
189	0	32746	32698	
190	0	32808	32678	
191	0	32768	32664	
192	0	32854	32746	
193	0	32828	32922	
194	0	32796	32708	
195	0	32852	32838	
196	0	32792	32768	
197	0	32816	32816	
198	0	32817	32792	
199	0	32848	32828	
200	0	32788	32862	
201	0	32816	32758	
202	0	32780	32756	
203	0	32792	32764	
204	0	32768	32807	
205	0	32840	32760	
206	0	32776	32820	
207	0	32862	32680	
208	0	32910	32692	
209	0	32848	32760	
210	0	32800	32732	
211	0	32798	32750	
212	0	32788	32798	
213	0	32812	32758	
214	0	32840	32694	
215	0	32854	32694	
216	0	32852	32804	
217	0	32852	32790	
218	0	32810	32772	
219	0	32792	32861	
220	0	32836	32721	
221	0	32724	32689	
222	0	32836	32716	
223	0	32856	32786	
224	0	32820	32794	
225	0	32784	32800	
226	0	32860	32756	
227	0	32810	32848	
228	0	32864	32676	
229	0	32760	32764	
230	0	32754	32840	
231	0	32852	32806	
232	0	32746	32764	
233	0	32828	32764	
234	0	32846	32710	
235	0	32768	32794	
236	0	32800	32768	
237	0	32830	32742	
238	0	32760	32732	
239	0	32816	32850	
240	0	32856	32740	
241	0	32796	32788	
242	0	32816	32740	
243	0	32844	32802	
244	0	32812	32708	
245	0	32784	32808	
246	0	32820	32746	
247	0	32796	32746	
248	0	32828	32727	
249	0	32772	32718	
250	0	32852	32688	
251	0	32840	32799	
252	0	32804	32864	
253	0	32836	32676	
254	0	32816	32740	
255	0	32796	32724	
256	0	32792	32804	
257	0	32776	32750	
258	0	32716	32846	
259	0	32852	32794	
260	0	32800	32858	
261	0	32848	32838	
262	0	32832	32712	
263	0	32872	32656	
264	0	32762	32716	
265	0	32772	32804	
266	0	32832	32802	
267	0	32816	32692	
268	0	32762	32816	
269	0	32840	32764	
270	0	32796	32740	
271	0	32884	32730	
272	0	32840	32846	
273	0	32788	32846	
274	0	32800	32804	
275	0	32846	32696	
276	0	32820	32708	
277	0	32766	32732	
278	0	32832	32802	
279	0	32866	32760	
280	0	32802	32784	
281	0	32864	32784	
282	0	32758	32769	
283	0	32770	32654	
284	0	32772	32732	
285	0	32840	32770	
286	0	32844	32806	
287	0	32778	32775	
288	0	32830	32796	
289	0	32792	32752	
290	0	32816	32730	
291	0	32794	32640	
292	0	32748	32744	
293	0	32692	32754	
294	0	32844	32711	
295	0	32824	32794	
296	0	32782	32806	
297	0	32810	32802	
298	0	32828	32740	
299	0	32802	32836	
300	0	32852	32788	
301	0	32824	32724	
302	0	32856	32726	
303	0	32836	32672	
304	0	32832	32732	
305	0	32866	32732	
306	0	32764	32798	
307	0	32870	32800	
308	0	32830	32740	
309	0	32796	32686	
310	0	32848	32712	
311	0	32836	32846	
312	0	32808	32792	
313	0	32854	32770	
314	0	32766	32775	
315	0	32834	32786	
316	0	32770	32644	
317	0	32808	32694	
318	0	32816	32772	
319	0	32812	32756	
320	0	32748	32810	
321	0	32764	32788	
322	0	32816	32730	
323	0	32804	32849	
324	0	32778	32775	
325	0	32824	32786	
326	0	32776	32775	
327	0	32708	32760	
328	0	32824	32692	
329	0	32798	32804	
330	0	32760	32796	
331	0	32784	32814	
332	0	32728	32836	
333	0	32764	32830	
334	0	32712	32775	
335	0	32692	32726	
336	0	32704	32724	
337	0	32756	32854	
338	0	32740	32744	
339	0	32716	32806	
340	0	32676	32878	
341	0	32672	32836	
342	0	32692	32732	
343	0	32740	32918	
344	0	32608	32836	
345	0	32720	32800	
346	0	32796	32888	
347	0	32688	32824	
348	0	32744	32740	
349	0	32860	32748	
350	0	32840	32708	
351	0	32908	32702	
352	0	32900	32834	
353	0	32900	32706	
354	0	32946	32692	
355	0	33000	32604	
356	0	33064	32600	
357	0	33136	32602	
358	0	33226	32484	
359	0	33192	32574	
360	0	33192	32568	
361	0	33248	32540	
362	0	33332	32586	
363	0	33376	32532	
364	0	33444	32566	
365	0	33288	32572	
366	0	33182	32646	
367	0	33024	32868	
368	0	32828	32852	
369	0	32776	32860	
370	0	32576	32870	
371	0	32524	32974	
372	0	32450	32948	
373	0	32478	32948	
374	0	32420	32906	
375	0	32408	32759	
376	0	32442	32906	
377	0	32470	32892	
378	0	32592	32860	
379	0	32576	32934	
380	0	32712	32794	
381	0	32696	32775	
382	0	32692	32775	
383	0	32688	32703	
384	0	32696	32775	
385	0	32792	32844	
386	0	32718	32708	
387	0	32778	32745	
388	0	32784	32758	
389	0	32788	32746	
390	0	32804	32716	
391	0	32800	32852	
392	0	32762	32729	
393	0	32808	32854	
394	0	32852	32788	
395	0	32868	32752	
396	0	32808	32806	
397	0	32804	32724	
398	0	32784	32676	
399	0	32804	32850	
400	0	32816	32726	
401	0	32780	32756	
402	0	32820	32820	
403	0	32774	32774	
404	0	32784	32720	
405	0	32832	32720	
406	0	32892	32844	
407	0	32788	32796	
408	0	32832	32775	
409	0	32822	32820	
410	0	32864	32752	
411	0	32878	32848	
412	0	32804	32750	
413	0	32844	32703	
414	0	32806	32702	
415	0	32788	32823	
416	0	32854	32724	
417	0	32844	32775	
418	0	32816	32708	
419	0	32844	32754	
420	0	32864	32844	
421	0	32802	32836	
422	0	32720	32702	
423	0	32848	32686	
424	0	32812	32836	
425	0	32820	32798	
426	0	32800	32720	
427	0	32832	32852	
428	0	32788	32724	
429	0	32844	32647	
430	0	32792	32827	
431	0	32772	32764	
432	0	32788	32756	
433	0	32832	32762	
434	0	32848	32672	
435	0	32834	32842	
436	0	32850	32855	
437	0	32836	32843	
438	0	32816	32775	
439	0	32772	32740	
440	0	32792	32752	
441	0	32874	32840	
442	0	32772	32838	
443	0	32816	32736	
444	0	32832	32758	
445	0	32824	32767	
446	0	32792	32832	
447	0	32778	32720	
448	0	32804	32726	
449	0	32752	32832	
450	0	32844	32830	
451	0	32778	32740	
452	0	32756	32830	
453	0	32800	32727	
454	0	32756	32676	
455	0	32800	32689	
456	0	32784	32796	
457	0	32820	32830	
458	0	32866	32800	
459	0	32808	32734	
460	0	32806	32856	
461	0	32806	32752	
462	0	32784	32788	
463	0	32854	32724	
464	0	32804	32692	
465	0	32798	32762	
466	0	32834	32806	
467	0	32812	32775	
468	0	32880	32711	
469	0	32816	32786	
470	0	32830	32736	
471	0	32768	32790	
472	0	32722	32766	
473	0	32850	32734	
474	0	32788	32732	
475	0	32856	32662	
476	0	32794	32760	
477	0	32824	32868	
478	0	32736	32820	
479	0	32836	32756	
480	0	32782	32736	
481	0	32744	32740	
482	0	32826	32870	
483	0	32798	32783	
484	0	32840	32768	
485	0	32885	32754	
486	0	32800	32656	
487	0	32856	32679	
488	0	32822	32816	
489	0	32792	32748	
490	0	32804	32760	
491	0	32766	32712	
492	0	32748	32808	
493	0	32808	32775	
494	0	32816	32884	
495	0	32778	32708	
496	0	32748	32648	
497	0	32824	32812	
498	0	32792	32870	
499	0	32800	32820	
500	0	32734	32748	
501	0	32856	32720	
502	0	32814	32820	
503	0	32814	32775	
504	0	32792	32800	
505	0	32828	32686	
506	0	32808	32760	
507	0	32804	32678	
508	0	32788	32775	
509	0	32746	32826	
510	0	32762	32692	
511	0	32836	32690	
512	0	32820	32879	
513	0	32824	32775	
514	0	32772	32828	
515	0	32774	32772	
516	0	32812	32690	
517	0	32796	32743	
518	0	32836	32802	
519	0	32780	32792	
520	0	32842	32816	
521	0	32750	32775	
522	0	32776	32754	
523	0	32868	32764	
524	0	32794	32838	
525	0	32860	32774	
526	0	32840	32796	
527	0	32844	32697	
528	0	32872	32774	
529	0	32832	32702	
530	0	32772	32814	
531	0	32794	32742	
532	0	32766	32842	
533	0	32788	32647	
534	0	32846	32724	
535	0	32822	32804	
536	0	32866	32748	
537	0	32788	32798	
538	0	32852	32756	
539	0	32792	32754	
540	0	32778	32818	
541	0	32782	32770	
542	0	32810	32686	
543	0	32782	32680	
544	0	32802	32820	
545	0	32817	32828	
546	0	32782	32804	
547	0	32716	32758	
548	0	32800	32856	
549	0	32824	32806	
550	0	32833	32708	
551	0	32828	32740	
552	0	32778	32734	
553	0	32793	32660	
554	0	32794	32740	
555	0	32808	32820	
556	0	32828	32801	
557	0	32816	32790	
558	0	32772	32786	
559	0	32800	32738	
560	0	32908	32760	
561	0	32800	32775	
562	0	32812	32846	
563	0	32856	32792	
564	0	32856	32750	
565	0	32832	32820	
566	0	32808	32775	
567	0	32808	32720	
568	0	32780	32775	
569	0	32840	32759	
570	0	32804	32790	
571	0	32812	32810	
572	0	32796	32774	
573	0	32816	32686	
574	0	32882	32711	
575	0	32768	32775	
576	0	32788	32775	
577	0	32806	32736	
578	0	32800	32884	
579	0	32754	32800	
580	0	32816	32710	
581	0	32896	32762	
582	0	32854	32807	
583	0	32876	32796	
584	0	32816	32812	
585	0	32844	32732	
586	0	32804	32736	
587	0	32880	32734	
588	0	32840	32640	
589	0	32760	32794	
590	0	32784	32718	
591	0	32772	32826	
592	0	32860	32726	
593	0	32818	32710	
594	0	32836	32752	
595	0	32848	32800	
596	0	32828	32804	
597	0	32836	32802	
598	0	32836	32796	
599	0	32814	32766	
600	0	32828	32664	
601	0	32832	32726	
602	0	32788	32850	
603	0	32866	32808	
604	0	32816	32708	
605	0	32898	32766	
606	0	32832	32820	
607	0	32842	32775	
608	0	32820	32650	
609	0	32724	32672	
610	0	32808	32752	
611	0	32856	32682	
612	0	32784	32712	
613	0	32792	32846	
614	0	32792	32885	
615	0	32788	32812	
616	0	32844	32686	
617	0	32740	32760	
618	0	32784	32856	
619	0	32834	32751	
620	0	32832	32714	
621	0	32790	32740	
622	0	32768	32799	
623	0	32774	32832	
624	0	32776	32775	
625	0	32864	32784	
626	0	32772	32849	
627	0	32800	32828	
628	0	32840	32836	
629	0	32832	32790	
630	0	32772	32738	
631	0	32820	32734	
632	0	32864	32668	
633	0	32858	32636	
634	0	32824	32726	
635	0	32828	32820	
636	0	32848	32792	
637	0	32820	32752	
638	0	32820	32775	
639	0	32816	32802	
640	0	32792	32696	
641	0	32792	32652	
642	0	32790	32808	
643	0	32800	32816	
644	0	32792	32698	
645	0	32768	32804	
646	0	32786	32732	
647	0	32752	32684	
648	0	32882	32676	
649	0	32778	32772	
650	0	32796	32768	
651	0	32804	32774	
652	0	32734	32760	
653	0	32726	32798	
654	0	32800	32722	
655	0	32812	32654	
656	0	32798	32639	
657	0	32828	32704	
658	0	32812	32775	
659	0	32822	32746	
660	0	32810	32834	
661	0	32774	32791	
662	0	32772	32790	
663	0	32836	32804	
664	0	32808	32775	
665	0	32764	32792	
666	0	32712	32796	
667	0	32820	32666	
668	0	32820	32654	
669	0	32852	32794	
670	0	32792	32792	
671	0	32812	32826	
672	0	32788	32796	
673	0	32808	32712	
674	0	32860	32858	
675	0	32824	32786	
676	0	32800	32684	
677	0	32770	32800	
678	0	32768	32838	
679	0	32862	32804	
680	0	32840	32736	
681	0	32812	32688	
682	0	32824	32868	
683	0	32790	32852	
684	0	32768	32796	
685	0	32806	32834	
686	0	32784	32716	
687	0	32745	32796	
688	0	32876	32822	
689	0	32784	32674	
690	0	32808	32666	
691	0	32838	32791	
692	0	32810	32767	
693	0	32784	32810	
694	0	32704	32740	
695	0	32796	32796	
696	0	32782	32622	
697	0	32812	32780	
698	0	32832	32818	
699	0	32872	32824	
700	0	32824	32788	
701	0	32806	32743	
702	0	32802	32816	
703	0	32768	32790	
704	0	32808	32743	
705	0	32780	32724	
706	0	32792	32671	
707	0	32800	32724	
708	0	32856	32802	
709	0	32746	32772	
710	0	32798	32858	
711	0	32810	32726	
712	0	32808	32650	
713	0	32806	32814	
714	0	32906	32775	
715	0	32800	32810	
716	0	32800	32788	
717	0	32836	32694	
718	0	32784	32753	
719	0	32820	32844	
720	0	32880	32800	
721	0	32876	32820	
722	0	32804	32792	
723	0	32782	32628	
724	0	32868	32746	
725	0	32790	32764	
726	0	32772	32812	
727	0	32844	32660	
728	0	32832	32708	
729	0	32774	32806	
730	0	32808	32775	
731	0	32836	32836	
732	0	32744	32762	
733	0	32868	32822	
734	0	32824	32752	
735	0	32800	32750	
736	0	32806	32826	
737	0	32768	32790	
738	0	32780	32802	
739	0	32774	32726	
740	0	32808	32630	
741	0	32832	32712	
742	0	32748	32802	
743	0	32812	32742	
744	0	32848	32784	
745	0	32824	32756	
746	0	32756	32698	
747	0	32862	32712	
748	0	32738	32752	
749	0	32800	32722	
750	0	32784	32676	
751	0	32848	32764	
752	0	32810	32806	
753	0	32760	32804	
754	0	32880	32796	
755	0	32772	32671	
756	0	32854	32758	
757	0	32750	32814	
758	0	32868	32780	
759	0	32844	32848	
760	0	32860	32820	
761	0	32828	32702	
762	0	32852	32792	
763	0	32856	32775	
764	0	32820	32810	
765	0	32690	32775	
766	0	32716	32807	
767	0	32752	32748	
768	0	32764	32708	
769	0	32860	32620	
770	0	32844	32852	
771	0	32836	32748	
772	0	32752	32788	
773	0	32796	32692	
774	0	32820	32686	
775	0	32832	32814	
776	0	32848	32808	
777	0	32830	32868	
778	0	32816	32652	
779	0	32872	32798	
780	0	32790	32770	
781	0	32804	32804	
782	0	32820	32849	
783	0	32816	32860	
784	0	32794	32824	
785	0	32738	32712	
786	0	32796	32686	
787	0	32776	32792	
788	0	32778	32732	
789	0	32782	32756	
790	0	32816	32724	
791	0	32850	32582	
792	0	32834	32724	
793	0	32852	32808	
794	0	32808	32784	
795	0	32824	32834	
796	0	32780	32762	
797	0	32766	32682	
798	0	32806	32692	
799	0	32748	32836	
800	0	32848	32818	
801	0	32752	32758	
802	0	32832	32796	
803	0	32782	32794	
804	0	32826	32800	
805	0	32804	32788	
806	0	32840	32884	
807	0	32824	32862	
808	0	32828	32740	
809	0	32848	32716	
810	0	32800	32750	
811	0	32788	32628	
812	0	32884	32802	
813	0	32812	32751	
814	0	32804	32858	
815	0	32860	32700	
816	0	32760	32864	
817	0	32828	32884	
818	0	32780	32790	
819	0	32738	32762	
820	0	32848	32708	
821	0	32816	32764	
822	0	32768	32820	
823	0	32791	32832	
824	0	32848	32725	
825	0	32768	32823	
826	0	32782	32764	
827	0	32816	32716	
828	0	32872	32720	
829	0	32868	32756	
830	0	32808	32806	
831	0	32782	32916	
832	0	32824	32740	
833	0	32818	32668	
834	0	32798	32784	
835	0	32766	32705	
836	0	32784	32688	
837	0	32796	32720	
838	0	32778	32816	
839	0	32865	32775	
840	0	32832	32812	
841	0	32808	32820	
842	0	32792	32678	
843	0	32848	32766	
844	0	32830	32682	
845	0	32828	32742	
846	0	32744	32866	
847	0	32740	32786	
848	0	32782	32820	
849	0	32810	32816	
850	0	32792	32750	
851	0	32820	32702	
852	0	32848	32838	
853	0	32762	32762	
854	0	32838	32756	
855	0	32828	32804	
856	0	32784	32668	
857	0	32816	32752	
858	0	32824	32788	
859	0	32888	32856	
860	0	32810	32728	
861	0	32832	32810	
862	0	32860	32736	
863	0	32841	32692	
864	0	32812	32856	
865	0	32846	32774	
866	0	32816	32842	
867	0	32846	32775	
868	0	32772	32776	
869	0	32856	32824	
870	0	32778	32678	
871	0	32772	32728	
872	0	32756	32676	
873	0	32804	32676	
874	0	32810	32708	
875	0	32752	32703	
876	0	32776	32708	
877	0	32788	32752	
878	0	32756	32798	
879	0	32888	32766	
880	0	32912	32822	
881	0	32768	32816	
882	0	32770	32832	
883	0	32752	32802	
884	0	32834	32724	
885	0	32820	32775	
886	0	32834	32756	
887	0	32820	32746	
888	0	32820	32791	
889	0	32750	32766	
890	0	32800	32724	
891	0	32836	32654	
892	0	32808	32686	
893	0	32736	32766	
894	0	32764	32678	
895	0	32852	32798	
896	0	32816	32818	
897	0	32816	32686	
898	0	32848	32676	
899	0	32832	32716	
900	0	32796	32744	
901	0	32848	32834	
902	0	32824	32736	
903	0	32868	32832	
904	0	32816	32822	
905	0	32824	32770	
906	0	32796	32740	
907	0	32864	32663	
908	0	32924	32830	
909	0	32824	32774	
910	0	32740	32770	
911	0	32748	32728	
912	0	32740	32664	
913	0	32788	32838	
914	0	32796	32768	
915	0	32852	32710	
916	0	32876	32732	
917	0	32708	32775	
918	0	32778	32748	
919	0	32808	32686	
920	0	32760	32767	
921	0	32808	32882	
922	0	32880	32788	
923	0	32856	32860	
924	0	32792	32775	
925	0	32778	32796	
926	0	32864	32786	
927	0	32742	32753	
928	0	32776	32628	
929	0	32796	32740	
930	0	32832	32736	
931	0	32830	32808	
932	0	32800	32802	
933	0	32828	32738	
934	0	32868	32822	
935	0	32764	32766	
936	0	32784	32718	
937	0	32788	32716	
938	0	32832	32843	
939	0	32796	32754	
940	0	32848	32817	
941	0	32800	32766	
942	0	32856	32830	
943	0	32860	32730	
944	0	32816	32625	
945	0	32808	32708	
946	0	32816	32736	
947	0	32832	32828	
948	0	32856	32765	
949	0	32742	32740	
950	0	32794	32812	
951	0	32788	32687	
952	0	32865	32676	
953	0	32826	32816	
954	0	32804	32794	
955	0	32780	32814	
956	0	32768	32736	
957	0	32820	32700	
958	0	32796	32792	
959	0	32936	32760	
960	0	32846	32810	
961	0	32836	32764	
962	0	32810	32781	
963	0	32780	32718	
964	0	32788	32646	
965	0	32744	32752	
966	0	32804	32761	
967	0	32840	32782	
968	0	32812	32908	
969	0	32832	32812	
970	0	32800	32780	
971	0	32825	32679	
972	0	32792	32702	
973	0	32824	32775	
974	0	32800	32804	
975	0	32792	32687	
976	0	32828	32840	
977	0	32776	32775	
978	0	32828	32738	
979	0	32840	32720	
980	0	32840	32804	
981	0	32800	32754	
982	0	32852	32812	
983	0	32806	32772	
984	0	32764	32922	
985	0	32824	32782	
986	0	32808	32736	
987	0	32784	32814	
988	0	32804	32828	
989	0	32784	32756	
990	0	32744	32750	
991	0	32760	32792	
992	0	32752	32816	
993	0	32768	32734	
994	0	32802	32708	
995	0	32796	32710	
996	0	32810	32724	
997	0	32856	32800	
998	0	32812	32734	
999	0	32794	32775	
1000	0	32774	32794	
1001	0	32824	32864	
1002	0	32821	32758	
1003	0	32800	32774	
1004	0	32780	32822	
1005	0	32828	32775	
1006	0	32756	32766	
1007	0	32792	32714	
1008	0	32852	32662	
1009	0	32836	32712	
1010	0	32801	32720	
1011	0	32804	32764	
1012	0	32826	32804	
1013	0	32800	32724	
1014	0	32856	32775	
1015	0	32812	32822	
1016	0	32776	32746	
1017	0	32900	32742	
1018	0	32848	32846	
1019	0	32808	32790	
1020	0	32778	32742	
1021	0	32848	32743	
1022	0	32840	32676	
1023	0	32844	32772	
1024	0	32832	32662	
1025	0	32784	32726	
1026	0	32836	32748	
1027	0	32816	32824	
1028	0	32860	32770	
1029	0	32792	32764	
1030	0	32808	32854	
1031	0	32732	32844	
1032	0	32820	32688	
1033	0	32836	32728	
1034	0	32826	32810	
1035	0	32784	32838	
1036	0	32764	32762	
1037	0	32764	32876	
1038	0	32858	32732	
1039	0	32804	32839	
1040	0	32838	32820	
1041	0	32780	32756	
1042	0	32830	32658	
1043	0	32804	32756	
1044	0	32848	32798	
1045	0	32788	32843	
1046	0	32828	32775	
1047	0	32758	32742	
1048	0	32800	32834	
1049	0	32792	32774	
1050	0	32876	32632	
1051	0	32832	32708	
1052	0	32892	32812	
1053	0	32852	32784	
1054	0	32828	32748	
1055	0	32796	32770	
1056	0	32792	32818	
1057	0	32816	32712	
1058	0	32796	32726	
1059	0	32780	32692	
1060	0	32872	32830	
1061	0	32804	32783	
1062	0	32772	32788	
1063	0	32834	32748	
1064	0	32820	32738	
1065	0	32810	32758	
1066	0	32788	32746	
1067	0	32832	32788	
1068	0	32744	32756	
1069	0	32840	32798	
1070	0	32808	32692	
1071	0	32818	32688	
1072	0	32768	32830	
1073	0	32824	32802	
1074	0	32776	32754	
1075	0	32796	32801	
1076	0	32798	32814	
1077	0	32792	32736	
1078	0	32840	32712	
1079	0	32818	32818	
1080	0	32830	32854	
1081	0	32896	32780	
1082	0	32800	32820	
1083	0	32800	32812	
1084	0	32832	32724	
1085	0	32832	32792	
1086	0	32816	32704	
1087	0	32782	32686	
1088	0	32838	32722	
1089	0	32817	32658	
1090	0	32852	32834	
1091	0	32788	32842	
1092	0	32828	32792	
1093	0	32800	32744	
1094	0	32798	32826	
1095	0	32756	32764	
1096	0	32840	32791	
1097	0	32736	32664	
1098	0	32800	32714	
1099	0	32816	32660	
1100	0	32792	32738	
1101	0	32800	32720	
1102	0	32820	32700	
1103	0	32816	32824	
1104	0	32740	32769	
1105	0	32734	32694	
1106	0	32820	32790	
1107	0	32804	32864	
1108	0	32792	32772	
1109	0	32808	32634	
1110	0	32786	32696	
1111	0	32784	32865	
1112	0	32828	32738	
1113	0	32788	32850	
1114	0	32800	32774	
1115	0	32844	32774	
1116	0	32836	32668	
1117	0	32836	32660	
1118	0	32794	32792	
1119	0	32824	32692	
1120	0	32760	32791	
1121	0	32800	32745	
1122	0	32788	32806	
1123	0	32824	32894	
1124	0	32752	32796	
1125	0	32824	32664	
1126	0	32800	32696	
1127	0	32784	32868	
1128	0	32764	32816	
1129	0	32736	32852	
1130	0	32744	32766	
1131	0	32676	32814	
1132	0	32748	32746	
1133	0	32648	32788	
1134	0	32704	32868	
1135	0	32732	32756	
1136	0	32736	32756	
1137	0	32746	32856	
1138	0	32686	32816	
1139	0	32678	32916	
1140	0	32630	32818	
1141	0	32688	32742	
1142	0	32688	32647	
1143	0	32724	32808	
1144	0	32756	32724	
1145	0	32752	32852	
1146	0	32668	32804	
1147	0	32800	32756	
1148	0	32836	32734	
1149	0	32860	32857	
1150	0	32884	32712	
1151	0	32832	32644	
1152	0	32960	32648	
1153	0	33024	32703	
1154	0	33084	32650	
1155	0	33096	32656	
1156	0	33208	32518	
1157	0	33296	32658	
1158	0	33258	32484	
1159	0	33324	32488	
1160	0	33440	32600	
1161	0	33464	32560	
1162	0	33444	32519	
1163	0	33352	32632	
1164	0	33254	32732	
1165	0	33116	32718	
1166	0	32906	32820	
1167	0	32744	32806	
1168	0	32612	32863	
1169	0	32508	32998	
1170	0	32368	33084	
1171	0	32386	32972	
1172	0	32324	32910	
1173	0	32404	32886	
1174	0	32416	32903	
1175	0	32484	32926	
1176	0	32552	32874	
1177	0	32596	32924	
1178	0	32628	32794	
1179	0	32684	32832	
1180	0	32668	32756	
1181	0	32720	32684	
1182	0	32728	32750	
1183	0	32782	32784	
1184	0	32692	32791	
1185	0	32700	32774	
1186	0	32766	32836	
1187	0	32740	32724	
1188	0	32792	32774	
1189	0	32864	32734	
1190	0	32834	32662	
1191	0	32770	32808	
1192	0	32856	32852	
1193	0	32852	32763	
1194	0	32828	32830	
1195	0	32792	32860	
1196	0	32760	32750	
1197	0	32768	32742	
1198	0	32816	32928	
1199	0	32778	32740	
1200	0	32864	32850	
1201	0	32832	32812	
1202	0	32824	32704	
1203	0	32824	32710	
1204	0	32836	32660	
1205	0	32784	32702	
1206	0	32848	32860	
1207	0	32810	32808	
1208	0	32812	32798	
1209	0	32802	32754	
1210	0	32792	32746	
1211	0	32838	32792	
1212	0	32812	32710	
1213	0	32852	32736	
1214	0	32800	32742	
1215	0	32854	32660	
1216	0	32944	32738	
1217	0	32836	32764	
1218	0	32846	32816	
1219	0	32792	32812	
1220	0	32856	32766	
1221	0	32852	32855	
1222	0	32816	32800	
1223	0	32864	32716	
1224	0	32824	32748	
1225	0	32812	32708	
1226	0	32788	32673	
1227	0	32837	32752	
1228	0	32784	32774	
1229	0	32782	32775	
1230	0	32796	32766	
1231	0	32790	32790	
1232	0	32808	32852	
1233	0	32814	32724	
1234	0	32828	32767	
1235	0	32874	32784	
1236	0	32796	32744	
1237	0	32776	32828	
1238	0	32796	32807	
1239	0	32818	32734	
1240	0	32768	32820	
1241	0	32820	32806	
1242	0	32774	32770	
1243	0	32820	32726	
1244	0	32858	32792	
1245	0	32836	32796	
1246	0	32804	32742	
1247	0	32808	32775	
1248	0	32792	32828	
1249	0	32812	32812	
1250	0	32792	32732	
1251	0	32782	32750	
1252	0	32744	32826	
1253	0	32816	32762	
1254	0	32834	32768	
1255	0	32740	32822	
1256	0	32876	32712	
1257	0	32842	32848	
1258	0	32872	32750	
1259	0	32778	32800	
1260	0	32808	32852	
1261	0	32820	32756	
1262	0	32864	32672	
1263	0	32822	32754	
1264	0	32810	32826	
1265	0	32780	32807	
1266	0	32832	32748	
1267	0	32830	32774	
1268	0	32788	32840	
1269	0	32828	32720	
1270	0	32834	32738	
1271	0	32854	32730	
1272	0	32808	32804	
1273	0	32820	32825	
1274	0	32834	32756	
1275	0	32764	32725	
1276	0	32764	32745	
1277	0	32834	32748	
1278	0	32790	32806	
1279	0	32804	32702	
1280	0	32904	32775	
1281	0	32772	32774	
1282	0	32808	32724	
1283	0	32840	32830	
1284	0	32810	32756	
1285	0	32804	32874	
1286	0	32800	32736	
1287	0	32792	32661	
1288	0	32808	32708	
1289	0	32860	32692	
1290	0	32796	32734	
1291	0	32820	32754	
1292	0	32796	32806	
1293	0	32810	32807	
1294	0	32784	32807	
1295	0	32804	32750	
1296	0	32808	32724	
1297	0	32756	32794	
1298	0	32800	32918	
1299	0	32766	32818	
1300	0	32864	32834	
1301	0	32792	32708	
1302	0	32852	32702	
1303	0	32874	32700	
1304	0	32868	32748	
1305	0	32760	32796	
1306	0	32868	32774	
1307	0	32824	32775	
1308	0	32804	32734	
1309	0	32736	32838	
1310	0	32804	32750	
1311	0	32852	32744	
1312	0	32784	32732	
1313	0	32780	32727	
1314	0	32816	32660	
1315	0	32846	32800	
1316	0	32772	32742	
1317	0	32798	32792	
1318	0	32788	32856	
1319	0	32788	32798	
1320	0	32742	32740	
1321	0	32816	32824	
1322	0	32838	32816	
1323	0	32832	32844	
1324	0	32776	32768	
1325	0	32774	32644	
1326	0	32820	32748	
1327	0	32802	32824	
1328	0	32862	32742	
1329	0	32852	32792	
1330	0	32832	32802	
1331	0	32828	32756	
1332	0	32774	32744	
1333	0	32792	32774	
1334	0	32782	32764	
1335	0	32777	32798	
1336	0	32796	32641	
1337	0	32760	32868	
1338	0	32788	32788	
1339	0	32780	32824	
1340	0	32818	32820	
1341	0	32866	32676	
1342	0	32800	32710	
1343	0	32740	32750	
1344	0	32744	32775	
1345	0	32836	32768	
1346	0	32872	32775	
1347	0	32768	32647	
1348	0	32790	32766	
1349	0	32820	32774	
1350	0	32820	32790	
1351	0	32764	32822	
1352	0	32788	32692	
1353	0	32878	32836	
1354	0	32792	32804	
1355	0	32824	32768	
1356	0	32824	32820	
1357	0	32800	32800	
1358	0	32744	32804	
1359	0	32866	32730	
1360	0	32848	32904	
1361	0	32816	32746	
1362	0	32812	32758	
1363	0	32876	32794	
1364	0	32848	32746	
1365	0	32828	32868	
1366	0	32830	32788	
1367	0	32768	32720	
1368	0	32772	32684	
1369	0	32800	32814	
1370	0	32782	32806	
1371	0	32836	32754	
1372	0	32816	32692	
1373	0	32748	32679	
1374	0	32788	32832	
1375	0	32786	32750	
1376	0	32842	32838	
1377	0	32816	32680	
1378	0	32830	32710	
1379	0	32804	32900	
1380	0	32840	32794	
1381	0	32816	32792	
1382	0	32840	32760	
1383	0	32900	32670	
1384	0	32788	32748	
1385	0	32780	32838	
1386	0	32881	32770	
1387	0	32776	32788	
1388	0	32812	32839	
1389	0	32772	32682	
1390	0	32856	32650	
1391	0	32788	32808	
1392	0	32860	32759	
1393	0	32836	32760	
1394	0	32846	32752	
1395	0	32840	32728	
1396	0	32745	32728	
1397	0	32836	32804	
1398	0	32830	32830	
1399	0	32796	32791	
1400	0	32794	32668	
1401	0	32760	32814	
1402	0	32902	32839	
1403	0	32840	32775	
1404	0	32852	32740	
1405	0	32768	32775	
1406	0	32844	32696	
1407	0	32764	32852	
1408	0	32782	32842	
1409	0	32788	32657	
1410	0	32848	32664	
1411	0	32824	32670	
1412	0	32822	32796	
1413	0	32820	32794	
1414	0	32844	32766	
1415	0	32846	32754	
1416	0	32836	32829	
1417	0	32836	32808	
1418	0	32772	32834	
1419	0	32812	32752	
1420	0	32750	32642	
1421	0	32834	32794	
1422	0	32848	32852	
1423	0	32804	32760	
1424	0	32804	32732	
1425	0	32800	32746	
1426	0	32804	32722	
1427	0	32742	32698	
1428	0	32824	32774	
1429	0	32816	32797	
1430	0	32766	32716	
1431	0	32800	32752	
1432	0	32764	32812	
1433	0	32756	32762	
1434	0	32788	32734	
1435	0	32764	32692	
1436	0	32866	32832	
1437	0	32808	32888	
1438	0	32844	32858	
1439	0	32816	32804	
1440	0	32784	32775	
1441	0	32844	32768	
1442	0	32794	32815	
1443	0	32808	32832	
1444	0	32860	32692	
1445	0	32884	32684	
1446	0	32788	32736	
1447	0	32842	32662	
1448	0	32792	32734	
1449	0	32796	32818	
1450	0	32740	32724	
1451	0	32750	32824	
1452	0	32801	32775	
1453	0	32816	32748	
1454	0	32788	32720	
1455	0	32864	32686	
1456	0	32772	32664	
1457	0	32870	32740	
1458	0	32816	32775	
1459	0	32838	32848	
1460	0	32748	32764	
1461	0	32774	32812	
1462	0	32788	32870	
1463	0	32852	32775	
1464	0	32796	32678	
1465	0	32816	32660	
1466	0	32816	32748	
1467	0	32784	32824	
1468	0	32856	32786	
1469	0	32816	32774	
1470	0	32816	32804	
1471	0	32814	32786	
1472	0	32736	32735	
1473	0	32848	32732	
1474	0	32816	32766	
1475	0	32866	32871	
1476	0	32754	32770	
1477	0	32802	32775	
1478	0	32852	32807	
1479	0	32800	32732	
1480	0	32864	32740	
1481	0	32796	32772	
1482	0	32820	32652	
1483	0	32856	32704	
1484	0	32812	32696	
1485	0	32784	32703	
1486	0	32826	32647	
1487	0	32768	32722	
1488	0	32730	32778	
1489	0	32738	32760	
1490	0	32842	32785	
1491	0	32804	32736	
1492	0	32860	32774	
1493	0	32855	32774	
1494	0	32780	32718	
1495	0	32712	32726	
1496	0	32856	32742	
1497	0	32792	32897	
1498	0	32852	32808	
1499	0	32822	32708	
1500	0	32872	32814	
1501	0	32792	32853	
1502	0	32810	32694	
1503	0	32836	32762	
1504	0	32808	32825	
1505	0	32852	32790	
1506	0	32826	32728	
1507	0	32772	32802	
1508	0	32836	32808	
1509	0	32772	32684	
1510	0	32832	32720	
1511	0	32792	32642	
1512	0	32784	32662	
1513	0	32722	32696	
1514	0	32872	32775	
1515	0	32820	32775	
1516	0	32790	32748	
1517	0	32812	32828	
1518	0	32816	32766	
1519	0	32788	32820	
1520	0	32880	32758	
1521	0	32888	32798	
1522	0	32808	32742	
1523	0	32776	32702	
1524	0	32820	32716	
1525	0	32844	32708	
1526	0	32780	32878	
1527	0	32786	32884	
1528	0	32836	32788	
1529	0	32800	32775	
1530	0	32792	32807	
1531	0	32826	32775	
1532	0	32796	32742	
1533	0	32846	32770	
1534	0	32840	32836	
1535	0	32856	32774	
1536	0	32764	32734	
1537	0	32756	32784	
1538	0	32776	32752	
1539	0	32800	32696	
1540	0	32780	32750	
1541	0	32860	32743	
1542	0	32842	32722	
1543	0	32808	32748	
1544	0	32924	32868	
1545	0	32812	32798	
1546	0	32844	32756	
1547	0	32864	32824	
1548	0	32802	32706	
1549	0	32796	32818	
1550	0	32808	32710	
1551	0	32850	32830	
1552	0	32756	32812	
1553	0	32816	32754	
1554	0	32760	32744	
1555	0	32816	32864	
1556	0	32756	32775	
1557	0	32816	32718	
1558	0	32780	32838	
1559	0	32876	32742	
1560	0	32772	32775	
1561	0	32812	32758	
1562	0	32780	32728	
1563	0	32786	32732	
1564	0	32796	32844	
1565	0	32838	32894	
1566	0	32884	32842	
1567	0	32852	32698	
1568	0	32800	32680	
1569	0	32832	32786	
1570	0	32786	32721	
1571	0	32780	32814	
1572	0	32838	32770	
1573	0	32800	32714	
1574	0	32868	32688	
1575	0	32802	32656	
1576	0	32844	32807	
1577	0	32788	32802	
1578	0	32834	32804	
1579	0	32800	32903	
1580	0	32816	32700	
1581	0	32778	32696	
1582	0	32780	32800	
1583	0	32808	32736	
1584	0	32800	32812	
1585	0	32860	32716	
1586	0	32820	32730	
1587	0	32794	32748	
1588	0	32880	32804	
1589	0	32866	32630	
1590	0	32805	32806	
1591	0	32816	32790	
1592	0	32784	32742	
1593	0	32768	32740	
1594	0	32808	32730	
1595	0	32804	32775	
1596	0	32748	32764	
1597	0	32810	32661	
1598	0	32800	32644	
1599	0	32836	32764	
1600	0	32836	32711	
1601	0	32856	32824	
1602	0	32812	32746	
1603	0	32820	32720	
1604	0	32898	32775	
1605	0	32836	32758	
1606	0	32804	32794	
1607	0	32824	32672	
1608	0	32680	32700	
1609	0	32820	32764	
1610	0	32810	32834	
1611	0	32812	32742	
1612	0	32832	32668	
1613	0	32758	32888	
1614	0	32816	32812	
1615	0	32796	32774	
1616	0	32788	32836	
1617	0	32836	32694	
1618	0	32856	32750	
1619	0	32852	32833	
1620	0	32812	32802	
1621	0	32760	32743	
1622	0	32884	32680	
1623	0	32798	32710	
1624	0	32800	32668	
1625	0	32864	32796	
1626	0	32732	32758	
1627	0	32830	32775	
1628	0	32868	32796	
1629	0	32820	32792	
1630	0	32800	32772	
1631	0	32792	32774	
1632	0	32840	32678	
1633	0	32828	32868	
1634	0	32820	32842	
1635	0	32748	32775	
1636	0	32808	32684	
1637	0	32866	32712	
1638	0	32836	32882	
1639	0	32870	32770	
1640	0	32828	32806	
1641	0	32872	32768	
1642	0	32832	32628	
1643	0	32828	32718	
1644	0	32792	32712	
1645	0	32808	32820	
1646	0	32772	32746	
1647	0	32832	32798	
1648	0	32820	32952	
1649	0	32852	32686	
1650	0	32840	32762	
1651	0	32842	32836	
1652	0	32816	32772	
1653	0	32780	32775	
1654	0	32764	32828	
1655	0	32802	32720	
1656	0	32752	32688	
1657	0	32776	32718	
1658	0	32790	32804	
1659	0	32832	32756	
1660	0	32764	32880	
1661	0	32820	32700	
1662	0	32832	32882	
1663	0	32808	32820	
1664	0	32836	32760	
1665	0	32852	32788	
1666	0	32878	32746	
1667	0	32868	32718	
1668	0	32760	32706	
1669	0	32788	32785	
1670	0	32860	32710	
1671	0	32804	32812	
1672	0	32766	32903	
1673	0	32820	32740	
1674	0	32808	32712	
1675	0	32798	32848	
1676	0	32784	32716	
1677	0	32820	32864	
1678	0	32824	32708	
1679	0	32772	32740	
1680	0	32800	32924	
1681	0	32846	32736	
1682	0	32820	32816	
1683	0	32820	32616	
1684	0	32834	32708	
1685	0	32812	32768	
1686	0	32812	32792	
1687	0	32768	32824	
1688	0	32856	32662	
1689	0	32824	32775	
1690	0	32846	32754	
1691	0	32844	32712	
1692	0	32820	32660	
1693	0	32794	32711	
1694	0	32758	32816	
1695	0	32736	32796	
1696	0	32828	32832	
1697	0	32784	32752	
1698	0	32822	32817	
1699	0	32796	32728	
1700	0	32792	32790	
1701	0	32908	32752	
1702	0	32846	32794	
1703	0	32830	32736	
1704	0	32818	32804	
1705	0	32852	32728	
1706	0	32788	32756	
1707	0	32768	32742	
1708	0	32744	32848	
1709	0	32790	32738	
1710	0	32820	32710	
1711	0	32812	32700	
1712	0	32794	32824	
1713	0	32856	32834	
1714	0	32784	32838	
1715	0	32810	32798	
1716	0	32834	32760	
1717	0	32836	32668	
1718	0	32840	32698	
1719	0	32736	32804	
1720	0	32808	32820	
1721	0	32788	32742	
1722	0	32816	32866	
1723	0	32756	32796	
1724	0	32844	32728	
1725	0	32798	32692	
1726	0	32862	32708	
1727	0	32790	32816	
1728	0	32838	32732	
1729	0	32792	32768	
1730	0	32782	32756	
1731	0	32880	32756	
1732	0	32826	32759	
1733	0	32820	32692	
1734	0	32816	32720	
1735	0	32790	32820	
1736	0	32782	32808	
1737	0	32800	32736	
1738	0	32796	32838	
1739	0	32896	32822	
1740	0	32754	32714	
1741	0	32816	32732	
1742	0	32828	32816	
1743	0	32756	32726	
1744	0	32884	32774	
1745	0	32826	32726	
1746	0	32794	32692	
1747	0	32832	32830	
1748	0	32804	32796	
1749	0	32764	32832	
1750	0	32810	32724	
1751	0	32784	32684	
1752	0	32840	32728	
1753	0	32804	32814	
1754	0	32784	32817	
1755	0	32820	32725	
1756	0	32846	32816	
1757	0	32848	32796	
1758	0	32822	32824	
1759	0	32804	32872	
1760	0	32766	32634	
1761	0	32812	32674	
1762	0	32880	32760	
1763	0	32800	32802	
1764	0	32764	32804	
1765	0	32848	32720	
1766	0	32812	32712	
1767	0	32840	32892	
1768	0	32768	32806	
1769	0	32784	32812	
1770	0	32764	32743	
1771	0	32760	32692	
1772	0	32840	32692	
1773	0	32740	32854	
1774	0	32816	32884	
1775	0	32844	32810	
1776	0	32756	32793	
1777	0	32816	32700	
1778	0	32852	32804	
1779	0	32816	32854	
1780	0	32832	32820	
1781	0	32788	32720	
1782	0	32856	32660	
1783	0	32830	32798	
1784	0	32896	32839	
1785	0	32784	32806	
1786	0	32820	32796	
1787	0	32788	32704	
1788	0	32780	32742	
1789	0	32840	32764	
1790	0	32804	32820	
1791	0	32836	32842	
1792	0	32796	32684	
1793	0	32770	32644	
1794	0	32792	32762	
1795	0	32840	32770	
1796	0	32788	32799	
1797	0	32720	32820	
1798	0	32788	32834	
1799	0	32780	32816	
1800	0	32836	32724	
1801	0	32786	32732	
1802	0	32808	32792	
1803	0	32832	32768	
1804	0	32848	32736	
1805	0	32784	32636	
1806	0	32822	32737	
1807	0	32836	32792	
1808	0	32820	32702	
1809	0	32800	32798	
1810	0	32824	32724	
1811	0	32778	32662	
1812	0	32786	32700	
1813	0	32826	32842	
1814	0	32810	32774	
1815	0	32778	32854	
1816	0	32862	32826	
1817	0	32834	32848	
1818	0	32772	32756	
1819	0	32848	32748	
1820	0	32792	32775	
1821	0	32840	32816	
1822	0	32808	32814	
1823	0	32820	32734	
1824	0	32804	32751	
1825	0	32828	32830	
1826	0	32806	32708	
1827	0	32804	32712	
1828	0	32784	32758	
1829	0	32752	32798	
1830	0	32810	32738	
1831	0	32820	32716	
1832	0	32760	32746	
1833	0	32800	32719	
1834	0	32820	32788	
1835	0	32778	32688	
1836	0	32804	32769	
1837	0	32804	32816	
1838	0	32752	32758	
1839	0	32844	32799	
1840	0	32784	32820	
1841	0	32808	32792	
1842	0	32816	32732	
1843	0	32832	32754	
1844	0	32892	32730	
1845	0	32794	32686	
1846	0	32740	32740	
1847	0	32780	32714	
1848	0	32812	32743	
1849	0	32804	32708	
1850	0	32812	32679	
1851	0	32772	32668	
1852	0	32800	32654	
1853	0	32872	32660	
1854	0	32832	32800	
1855	0	32824	32775	
1856	0	32824	32814	
1857	0	32828	32792	
1858	0	32844	32775	
1859	0	32800	32815	
1860	0	32768	32804	
1861	0	32834	32826	
1862	0	32816	32814	
1863	0	32821	32812	
1864	0	32808	32718	
1865	0	32816	32716	
1866	0	32848	32832	
1867	0	32814	32794	
1868	0	32788	32736	
1869	0	32808	32772	
1870	0	32808	32804	
1871	0	32825	32804	
1872	0	32778	32762	
1873	0	32834	32800	
1874	0	32808	32762	
1875	0	32844	32746	
1876	0	32792	32756	
1877	0	32818	32698	
1878	0	32836	32842	
1879	0	32842	32804	
1880	0	32870	32772	
1881	0	32880	32794	
1882	0	32886	32808	
1883	0	32820	32772	
1884	0	32874	32752	
1885	0	32832	32794	
1886	0	32864	32794	
1887	0	32764	32806	
1888	0	32772	32690	
1889	0	32740	32708	
1890	0	32884	32738	
1891	0	32840	32726	
1892	0	32842	32792	
1893	0	32854	32760	
1894	0	32808	32790	
1895	0	32844	32744	
1896	0	32820	32766	
1897	0	32732	32670	
1898	0	32780	32656	
1899	0	32822	32766	
1900	0	32806	32830	
1901	0	32816	32774	
1902	0	32780	32838	
1903	0	32784	32858	
1904	0	32780	32784	
1905	0	32840	32800	
1906	0	32744	32711	
1907	0	32800	32682	
1908	0	32770	32700	
1909	0	32756	32754	
1910	0	32860	32838	
1911	0	32760	32714	
1912	0	32744	32760	
1913	0	32736	32812	
1914	0	32728	32826	
1915	0	32716	32892	
1916	0	32718	32820	
1917	0	32640	32771	
1918	0	32668	32800	
1919	0	32774	32806	
1920	0	32742	32848	
1921	0	32688	32816	
1922	0	32640	32808	
1923	0	32620	32894	
1924	0	32666	32678	
1925	0	32646	32728	
1926	0	32674	32916	
1927	0	32708	32816	
1928	0	32736	32790	
1929	0	32742	32798	
1930	0	32810	32784	
1931	0	32744	32750	
1932	0	32780	32710	
1933	0	32828	32775	
1934	0	32866	32658	
1935	0	32876	32726	
1936	0	32968	32656	
1937	0	32942	32588	
1938	0	33176	32702	
1939	0	33136	32569	
1940	0	33280	32646	
1941	0	33280	32626	
1942	0	33332	32528	
1943	0	33436	32412	
1944	0	33396	32500	
1945	0	33396	32487	
1946	0	33408	32628	
1947	0	33220	32647	
1948	0	33090	32748	
1949	0	32968	32840	
1950	0	32834	32858	
1951	0	32824	32810	
1952	0	32630	32890	
1953	0	32558	32986	
1954	0	32416	32932	
1955	0	32448	32966	
1956	0	32444	32992	
1957	0	32426	32788	
1958	0	32486	32800	
1959	0	32542	32826	
1960	0	32556	32848	
1961	0	32564	32897	
1962	0	32622	32870	
1963	0	32728	32790	
1964	0	32632	32848	
1965	0	32692	32714	
1966	0	32688	32711	
1967	0	32784	32804	
1968	0	32778	32816	
1969	0	32702	32678	
1970	0	32724	32820	
1971	0	32770	32710	
1972	0	32804	32679	
1973	0	32852	32726	
1974	0	32808	32878	
1975	0	32766	32790	
1976	0	32776	32742	
1977	0	32792	32740	
1978	0	32788	32694	
1979	0	32810	32796	
1980	0	32776	32848	
1981	0	32874	32768	
1982	0	32920	32808	
1983	0	32816	32902	
1984	0	32834	32764	
1985	0	32844	32660	
1986	0	32884	32766	
1987	0	32818	32729	
1988	0	32784	32814	
1989	0	32828	32718	
1990	0	32828	32768	
1991	0	32868	32834	
1992	0	32846	32768	
1993	0	32816	32647	
1994	0	32836	32718	
1995	0	32824	32807	
1996	0	32808	32767	
1997	0	32864	32784	
1998	0	32848	32676	
1999	0	32786	32712	
2000	0	32818	32886	
2001	0	32776	32734	
2002	0	32858	32934	
2003	0	32804	32688	
2004	0	32776	32862	
2005	0	32776	32743	
2006	0	32836	32775	
2007	0	32754	32768	
2008	0	32852	32612	
2009	0	32812	32820	
2010	0	32826	32770	
2011	0	32804	32856	
2012	0	32782	32836	
2013	0	32764	32792	
2014	0	32792	32758	
2015	0	32868	32696	
2016	0	32840	32692	
2017	0	32828	32844	
2018	0	32728	32775	
2019	0	32760	32821	
2020	0	32828	32676	
2021	0	32844	32748	
2022	0	32768	32802	
2023	0	32724	32736	
2024	0	32868	32775	
2025	0	32810	32832	
2026	0	32800	32864	
2027	0	32752	32684	
2028	0	32772	32766	
2029	0	32856	32826	
2030	0	32770	32775	
2031	0	32828	32732	
2032	0	32882	32812	
2033	0	32826	32708	
2034	0	32792	32710	
2035	0	32836	32814	
2036	0	32860	32775	
2037	0	32732	32824	
2038	0	32808	32780	
2039	0	32794	32679	
2040	0	32852	32834	
2041	0	32812	32775	
2042	0	32840	32878	
2043	0	32788	32754	
2044	0	32804	32800	
2045	0	32870	32708	
2046	0	32824	32774	
2047	0	32856	32766	
2048	0	32800	32828	
2049	0	32816	32743	
2050	0	32744	32740	
2051	0	32800	32775	
2052	0	32810	32764	
2053	0	32796	32728	
2054	0	32808	32826	
2055	0	32817	32800	
2056	0	32860	32764	
2057	0	32856	32824	
2058	0	32868	32700	
2059	0	32840	32710	
2060	0	32794	32881	
2061	0	32840	32775	
2062	0	32828	32796	
2063	0	32828	32774	
2064	0	32788	32758	
2065	0	32796	32775	
2066	0	32804	32707	
2067	0	32850	32726	
2068	0	32828	32684	
2069	0	32748	32732	
2070	0	32820	32894	
2071	0	32752	32764	
2072	0	32860	32738	
2073	0	32780	32860	
2074	0	32800	32756	
2075	0	32756	32708	
2076	0	32776	32692	
2077	0	32856	32852	
2078	0	32812	32804	
2079	0	32796	32750	
2080	0	32832	32824	
2081	0	32792	32880	
2082	0	32828	32816	
2083	0	32768	32799	
2084	0	32844	32636	
2085	0	32820	32728	
2086	0	32868	32846	
2087	0	32776	32774	
2088	0	32774	32674	
2089	0	32796	32784	
2090	0	32800	32796	
2091	0	32798	32724	
2092	0	32780	32679	
2093	0	32788	32720	
2094	0	32796	32788	
2095	0	32788	32761	
2096	0	32738	32775	
2097	0	32744	32804	
2098	0	32852	32817	
2099	0	32816	32750	
2100	0	32840	32759	
2101	0	32826	32720	
2102	0	32816	32821	
2103	0	32804	32812	
2104	0	32858	32800	
2105	0	32848	32849	
2106	0	32744	32846	
2107	0	32802	32684	
2108	0	32804	32696	
2109	0	32866	32838	
2110	0	32868	32768	
2111	0	32856	32736	
2112	0	32796	32812	
2113	0	32852	32714	
2114	0	32840	32705	
2115	0	32796	32698	
2116	0	32846	32743	
2117	0	32782	32738	
2118	0	32764	32796	
2119	0	32826	32822	
2120	0	32876	32746	
2121	0	32800	32756	
2122	0	32834	32690	
2123	0	32791	32775	
2124	0	32812	32772	
2125	0	32744	32790	
2126	0	32738	32866	
2127	0	32800	32718	
2128	0	32828	32752	
2129	0	32848	32820	
2130	0	32792	32736	
2131	0	32762	32740	
2132	0	32812	32820	
2133	0	32754	32744	
2134	0	32772	32718	
2135	0	32800	32708	
2136	0	32820	32726	
2137	0	32785	32788	
2138	0	32816	32740	
2139	0	32848	32902	
2140	0	32828	32786	
2141	0	32772	32632	
2142	0	32858	32756	
2143	0	32804	32804	
2144	0	32840	32762	
2145	0	32860	32764	
2146	0	32862	32604	
2147	0	32832	32694	
2148	0	32816	32830	
2149	0	32858	32775	
2150	0	32856	32806	
2151	0	32798	32806	
2152	0	32788	32684	
2153	0	32764	32772	
2154	0	32804	32830	
2155	0	32848	32724	
2156	0	32854	32766	
2157	0	32818	32750	
2158	0	32760	32820	
2159	0	32814	32772	
2160	0	32840	32846	
2161	0	32778	32742	
2162	0	32804	32862	
2163	0	32804	32598	
2164	0	32928	32708	
2165	0	32796	32788	
2166	0	32806	32724	
2167	0	32800	32752	
2168	0	32772	32748	
2169	0	32822	32800	
2170	0	32828	32758	
2171	0	32800	32759	
2172	0	32806	32744	
2173	0	32832	32692	
2174	0	32828	32788	
2175	0	32788	32812	
2176	0	32808	32775	
2177	0	32864	32734	
2178	0	32826	32819	
2179	0	32842	32752	
2180	0	32810	32678	
2181	0	32892	32833	
2182	0	32836	32874	
2183	0	32868	32775	
2184	0	32810	32806	
2185	0	32804	32794	
2186	0	32850	32742	
2187	0	32818	32710	
2188	0	32828	32738	
2189	0	32892	32802	
2190	0	32854	32848	
2191	0	32804	32748	
2192	0	32784	32680	
2193	0	32816	32666	
2194	0	32808	32644	
2195	0	32804	32839	
2196	0	32812	32796	
2197	0	32756	32788	
2198	0	32808	32770	
2199	0	32840	32798	
2200	0	32796	32638	
2201	0	32836	32692	
2202	0	32784	32868	
2203	0	32834	32802	
2204	0	32792	32734	
2205	0	32820	32892	
2206	0	32770	32872	
2207	0	32792	32752	
2208	0	32806	32678	
2209	0	32768	32748	
2210	0	32800	32832	
2211	0	32856	32824	
2212	0	32808	32806	
2213	0	32776	32774	
2214	0	32812	32615	
2215	0	32776	32704	
2216	0	32844	32856	
2217	0	32816	32788	
2218	0	32716	32828	
2219	0	32828	32830	
2220	0	32880	32712	
2221	0	32840	32768	
2222	0	32816	32775	
2223	0	32842	32816	
2224	0	32798	32748	
2225	0	32794	32812	
2226	0	32756	32714	
2227	0	32774	32676	
2228	0	32756	32758	
2229	0	32728	32794	
2230	0	32812	32770	
2231	0	32784	32866	
2232	0	32828	32678	
2233	0	32788	32736	
2234	0	32764	32728	
2235	0	32780	32726	
2236	0	32802	32860	
2237	0	32778	32816	
2238	0	32800	32826	
2239	0	32804	32796	
2240	0	32828	32812	
2241	0	32840	32796	
2242	0	32840	32664	
2243	0	32876	32679	
2244	0	32832	32748	
2245	0	32828	32890	
2246	0	32824	32768	
2247	0	32792	32814	
2248	0	32820	32789	
2249	0	32796	32704	
2250	0	32796	32762	
2251	0	32826	32794	
2252	0	32768	32768	
2253	0	32774	32826	
2254	0	32870	32738	
2255	0	32876	32636	
2256	0	32808	32758	
2257	0	32808	32821	
2258	0	32760	32720	
2259	0	32790	32884	
2260	0	32724	32656	
2261	0	32808	32896	
2262	0	32820	32775	
2263	0	32870	32775	
2264	0	32900	32816	
2265	0	32824	32900	
2266	0	32832	32660	
2267	0	32836	32732	
2268	0	32812	32748	
2269	0	32822	32788	
2270	0	32736	32775	
2271	0	32824	32740	
2272	0	32904	32818	
2273	0	32808	32846	
2274	0	32744	32738	
2275	0	32744	32710	
2276	0	32868	32758	
2277	0	32904	32744	
2278	0	32808	32790	
2279	0	32780	32864	
2280	0	32788	32708	
2281	0	32796	32682	
2282	0	32806	32708	
2283	0	32812	32708	
2284	0	32828	32844	
2285	0	32824	32785	
2286	0	32800	32758	
2287	0	32810	32844	
2288	0	32826	32720	
2289	0	32846	32660	
2290	0	32806	32660	
2291	0	32800	32788	
2292	0	32794	32804	
2293	0	32916	32775	
2294	0	32828	32852	
2295	0	32768	32822	
2296	0	32820	32816	
2297	0	32798	32718	
2298	0	32848	32676	
2299	0	32836	32756	
2300	0	32832	32839	
2301	0	32816	32744	
2302	0	32808	32798	
2303	0	32834	32872	
2304	0	32768	32670	
2305	0	32754	32734	
2306	0	32774	32694	
2307	0	32794	32766	
2308	0	32816	32748	
2309	0	32776	32804	
2310	0	32812	32690	
2311	0	32788	32690	
2312	0	32826	32734	
2313	0	32804	32820	
2314	0	32828	32799	
2315	0	32796	32809	
2316	0	32836	32820	
2317	0	32868	32708	
2318	0	32824	32700	
2319	0	32832	32794	
2320	0	32876	32760	
2321	0	32844	32864	
2322	0	32846	32775	
2323	0	32840	32773	
2324	0	32840	32818	
2325	0	32856	32743	
2326	0	32804	32806	
2327	0	32780	32775	
2328	0	32836	32724	
2329	0	32828	32852	
2330	0	32752	32766	
2331	0	32728	32724	
2332	0	32868	32674	
2333	0	32840	32716	
2334	0	32788	32840	
2335	0	32805	32796	
2336	0	32816	32775	
2337	0	32816	32806	
2338	0	32822	32764	
2339	0	32780	32847	
2340	0	32804	32730	
2341	0	32856	32880	
2342	0	32880	32818	
2343	0	32880	32740	
2344	0	32852	32722	
2345	0	32800	32775	
2346	0	32848	32710	
2347	0	32802	32788	
2348	0	32788	32822	
2349	0	32730	32692	
2350	0	32808	32806	
2351	0	32788	32807	
2352	0	32804	32759	
2353	0	32772	32770	
2354	0	32836	32724	
2355	0	32817	32740	
2356	0	32840	32815	
2357	0	32824	32766	
2358	0	32820	32784	
2359	0	32802	32775	
2360	0	32834	32872	
2361	0	32804	32724	
2362	0	32822	32692	
2363	0	32892	32834	
2364	0	32848	32810	
2365	0	32828	32772	
2366	0	32874	32743	
2367	0	32828	32752	
2368	0	32808	32768	
2369	0	32828	32762	
2370	0	32804	32744	
2371	0	32808	32834	
2372	0	32774	32786	
2373	0	32778	32734	
2374	0	32766	32720	
2375	0	32808	32881	
2376	0	32880	32718	
2377	0	32778	32772	
2378	0	32798	32810	
2379	0	32832	32768	
2380	0	32832	32775	
2381	0	32832	32752	
2382	0	32820	32852	
2383	0	32828	32774	
2384	0	32816	32668	
2385	0	32776	32760	
2386	0	32800	32808	
2387	0	32826	32686	
2388	0	32794	32806	
2389	0	32790	32740	
2390	0	32828	32674	
2391	0	32848	32855	
2392	0	32768	32823	
2393	0	32760	32762	
2394	0	32780	32826	
2395	0	32820	32784	
2396	0	32792	32775	
2397	0	32796	32692	
2398	0	32846	32774	
2399	0	32834	32800	
2400	0	32854	32758	
2401	0	32824	32807	
2402	0	32840	32786	
2403	0	32808	32762	
2404	0	32804	32628	
2405	0	32888	32652	
2406	0	32816	32796	
2407	0	32856	32840	
2408	0	32840	32775	
2409	0	32780	32794	
2410	0	32804	32706	
2411	0	32820	32714	
2412	0	32786	32844	
2413	0	32764	32775	
2414	0	32912	32825	
2415	0	32776	32840	
2416	0	32864	32764	
2417	0	32780	32702	
2418	0	32822	32680	
2419	0	32768	32680	
2420	0	32820	32842	
2421	0	32864	32887	
2422	0	32770	32800	
2423	0	32860	32764	
2424	0	32864	32809	
2425	0	32808	32775	
2426	0	32780	32775	
2427	0	32836	32754	
2428	0	32796	32746	
2429	0	32830	32706	
2430	0	32800	32728	
2431	0	32856	32834	
2432	0	32776	32812	
2433	0	32836	32775	
2434	0	32772	32756	
2435	0	32772	32775	
2436	0	32788	32798	
2437	0	32776	32832	
2438	0	32848	32846	
2439	0	32760	32772	
2440	0	32820	32742	
2441	0	32830	32804	
2442	0	32820	32711	
2443	0	32794	32714	
2444	0	32804	32726	
2445	0	32900	32756	
2446	0	32890	32791	
2447	0	32828	32838	
2448	0	32780	32868	
2449	0	32852	32740	
2450	0	32788	32692	
2451	0	32820	32892	
2452	0	32776	32736	
2453	0	32774	32702	
2454	0	32804	32794	
2455	0	32773	32646	
2456	0	32808	32770	
2457	0	32824	32840	
2458	0	32816	32802	
2459	0	32830	32752	
2460	0	32798	32660	
2461	0	32784	32634	
2462	0	32788	32874	
2463	0	32844	32782	
2464	0	32757	32774	
2465	0	32756	32839	
2466	0	32824	32784	
2467	0	32832	32743	
2468	0	32844	32740	
2469	0	32860	32864	
2470	0	32828	32784	
2471	0	32840	32852	
2472	0	32744	32820	
2473	0	32820	32768	
2474	0	32842	32692	
2475	0	32790	32832	
2476	0	32868	32799	
2477	0	32800	32784	
2478	0	32804	32888	
2479	0	32748	32764	
2480	0	32760	32734	
2481	0	32724	32726	
2482	0	32812	32784	
2483	0	32824	32880	
2484	0	32856	32740	
2485	0	32752	32714	
2486	0	32876	32894	
2487	0	32774	32806	
2488	0	32824	32836	
2489	0	32780	32697	
2490	0	32796	32710	
2491	0	32796	32692	
2492	0	32856	32724	
2493	0	32790	32736	
2494	0	32856	32798	
2495	0	32774	32800	
2496	0	32840	32702	
2497	0	32816	32660	
2498	0	32824	32849	
2499	0	32832	32730	
2500	0	32820	32820	
2501	0	32812	32740	
2502	0	32816	32636	
2503	0	32808	32760	
2504	0	32924	32808	
2505	0	32836	32775	
2506	0	32896	32814	
2507	0	32784	32786	
2508	0	32764	32680	
2509	0	32810	32828	
2510	0	32800	32740	
2511	0	32810	32810	
2512	0	32832	32700	
2513	0	32794	32672	
2514	0	32904	32688	
2515	0	32800	32782	
2516	0	32804	32752	
2517	0	32794	32828	
2518	0	32836	32802	
2519	0	32916	32724	
2520	0	32824	32720	
2521	0	32772	32732	
2522	0	32812	32838	
2523	0	32796	32724	
2524	0	32804	32812	
2525	0	32834	32748	
2526	0	32748	32704	
2527	0	32798	32840	
2528	0	32752	32770	
2529	0	32768	32836	
2530	0	32868	32644	
2531	0	32806	32696	
2532	0	32810	32752	
2533	0	32804	32718	
2534	0	32808	32808	
2535	0	32762	32691	
2536	0	32866	32679	
2537	0	32852	32828	
2538	0	32720	32760	
2539	0	32804	32765	
2540	0	32856	32839	
2541	0	32824	32692	
2542	0	32864	32676	
2543	0	32820	32700	
2544	0	32844	32694	
2545	0	32796	32742	
2546	0	32796	32812	
2547	0	32808	32700	
2548	0	32852	32826	
2549	0	32824	32742	
2550	0	32820	32815	
2551	0	32786	32748	
2552	0	32766	32647	
2553	0	32798	32794	
2554	0	32870	32838	
2555	0	32812	32730	
2556	0	32818	32734	
2557	0	32734	32828	
2558	0	32820	32839	
2559	0	32836	32775	
2560	0	32856	32838	
2561	0	32821	32756	
2562	0	32756	32692	
2563	0	32798	32806	
2564	0	32832	32800	
2565	0	32798	32756	
2566	0	32700	32864	
2567	0	32840	32732	
2568	0	32788	32674	
2569	0	32892	32700	
2570	0	32850	32688	
2571	0	32820	32798	
2572	0	32804	32800	
2573	0	32846	32742	
2574	0	32816	32880	
2575	0	32820	32708	
2576	0	32772	32724	
2577	0	32816	32644	
2578	0	32816	32810	
2579	0	32808	32764	
2580	0	32796	32858	
2581	0	32736	32752	
2582	0	32754	32710	
2583	0	32788	32654	
2584	0	32814	32832	
2585	0	32792	32753	
2586	0	32824	32814	
2587	0	32836	32754	
2588	0	32760	32714	
2589	0	32808	32728	
2590	0	32784	32772	
2591	0	32830	32804	
2592	0	32804	32644	
2593	0	32790	32708	
2594	0	32820	32744	
2595	0	32858	32770	
2596	0	32816	32885	
2597	0	32824	32632	
2598	0	32856	32714	
2599	0	32804	32750	
2600	0	32800	32766	
2601	0	32796	32800	
2602	0	32804	32760	
2603	0	32778	32732	
2604	0	32788	32694	
2605	0	32784	32698	
2606	0	32810	32857	
2607	0	32790	32826	
2608	0	32784	32824	
2609	0	32820	32816	
2610	0	32812	32736	
2611	0	32800	32759	
2612	0	32852	32690	
2613	0	32804	32762	
2614	0	32842	32678	
2615	0	32802	32775	
2616	0	32810	32790	
2617	0	32842	32752	
2618	0	32828	32802	
2619	0	32804	32772	
2620	0	32836	32739	
2621	0	32804	32866	
2622	0	32804	32820	
2623	0	32856	32812	
2624	0	32812	32816	
2625	0	32822	32694	
2626	0	32812	32704	
2627	0	32846	32786	
2628	0	32764	32804	
2629	0	32816	32742	
2630	0	32764	32826	
2631	0	32764	32775	
2632	0	32778	32656	
2633	0	32780	32658	
2634	0	32824	32806	
2635	0	32764	32794	
2636	0	32820	32824	
2637	0	32816	32844	
2638	0	32828	32676	
2639	0	32756	32740	
2640	0	32808	32842	
2641	0	32774	32762	
2642	0	32756	32790	
2643	0	32904	32810	
2644	0	32796	32666	
2645	0	32821	32710	
2646	0	32802	32846	
2647	0	32804	32836	
2648	0	32848	32740	
2649	0	32832	32752	
2650	0	32808	32730	
2651	0	32880	32758	
2652	0	32770	32822	
2653	0	32820	32844	
2654	0	32762	32838	
2655	0	32796	32836	
2656	0	32772	32668	
2657	0	32848	32644	
2658	0	32824	32839	
2659	0	32844	32748	
2660	0	32816	32884	
2661	0	32792	32773	
2662	0	32834	32710	
2663	0	32756	32672	
2664	0	32812	32792	
2665	0	32832	32824	
2666	0	32812	32772	
2667	0	32834	32708	
2668	0	32778	32647	
2669	0	32790	32806	
2670	0	32768	32844	
2671	0	32798	32842	
2672	0	32864	32814	
2673	0	32812	32695	
2674	0	32834	32743	
2675	0	32806	32850	
2676	0	32788	32812	
2677	0	32804	32738	
2678	0	32816	32816	
2679	0	32738	32748	
2680	0	32824	32817	
2681	0	32808	32728	
2682	0	32864	32708	
2683	0	32804	32820	
2684	0	32812	32798	
2685	0	32860	32652	
2686	0	32784	32732	
2687	0	32820	32712	
2688	0	32876	32800	
2689	0	32872	32742	
2690	0	32824	32734	
2691	0	32744	32748	
2692	0	32832	32660	
2693	0	32832	32799	
2694	0	32748	32796	
2695	0	32800	32794	
2696	0	32842	32810	
2697	0	32780	32732	
2698	0	32810	32637	
2699	0	32788	32882	
2700	0	32814	32838	
2701	0	32748	32798	
2702	0	32804	32750	
2703	0	32796	32758	
2704	0	32822	32736	
2705	0	32814	32736	
2706	0	32728	32704	
2707	0	32768	32886	
2708	0	32754	32702	
2709	0	32792	32795	
2710	0	32788	32796	
2711	0	32866	32742	
2712	0	32848	32690	
2713	0	32804	32750	
2714	0	32748	32914	
2715	0	32698	32844	
2716	0	32700	32664	
2717	0	32760	32822	
2718	0	32856	32868	
2719	0	32789	32775	
2720	0	32708	32756	
2721	0	32674	32710	
2722	0	32724	32750	
2723	0	32756	32796	
2724	0	32816	32768	
2725	0	32680	32872	
2726	0	32752	32849	
2727	0	32676	32824	
2728	0	32612	32786	
2729	0	32692	32814	
2730	0	32628	32794	
2731	0	32670	32820	
2732	0	32744	32798	
2733	0	32704	32839	
2734	0	32724	32832	
2735	0	32814	32800	
2736	0	32790	32732	
2737	0	32764	32766	
2738	0	32876	32740	
2739	0	32872	32704	
2740	0	32924	32614	
2741	0	32988	32760	
2742	0	32932	32788	
2743	0	33082	32660	
2744	0	33124	32626	
2745	0	33220	32546	
2746	0	33312	32576	
2747	0	33312	32514	
2748	0	33332	32510	
2749	0	33332	32519	
2750	0	33344	32479	
2751	0	33248	32448	
2752	0	33300	32570	
2753	0	33064	32696	
2754	0	33042	32746	
2755	0	32916	32900	
2756	0	32828	32844	
2757	0	32672	32948	
2758	0	32526	32964	
2759	0	32520	32984	
2760	0	32568	32950	
2761	0	32516	32946	
2762	0	32532	32824	
2763	0	32472	32728	
2764	0	32470	32804	
2765	0	32556	32864	
2766	0	32558	32934	
2767	0	32624	32820	
2768	0	32660	32836	
2769	0	32674	32750	
2770	0	32708	32806	
2771	0	32698	32828	
2772	0	32772	32766	
2773	0	32736	32829	
2774	0	32734	32821	
2775	0	32740	32752	
2776	0	32772	32809	
2777	0	32764	32807	
2778	0	32772	32784	
2779	0	32880	32760	
2780	0	32820	32788	
2781	0	32800	32726	
2782	0	32816	32728	
2783	0	32824	32698	
2784	0	32790	32658	
2785	0	32808	32822	
2786	0	32796	32800	
2787	0	32828	32766	
2788	0	32804	32764	
2789	0	32832	32764	
2790	0	32846	32839	
2791	0	32820	32807	
2792	0	32834	32732	
2793	0	32810	32668	
2794	0	32806	32660	
2795	0	32849	32656	
2796	0	32820	32738	
2797	0	32838	32770	
2798	0	32868	32824	
2799	0	32866	32804	
2800	0	32812	32732	
2801	0	32748	32762	
2802	0	32834	32754	
2803	0	32818	32798	
2804	0	32788	32775	
2805	0	32868	32816	
2806	0	32830	32816	
2807	0	32900	32770	
2808	0	32796	32724	
2809	0	32828	32740	
2810	0	32808	32684	
2811	0	32782	32738	
2812	0	32798	32706	
2813	0	32836	32860	
2814	0	32808	32816	
2815	0	32834	32842	
2816	0	32780	32810	
2817	0	32792	32758	
2818	0	32782	32862	
2819	0	32848	32850	
2820	0	32778	32816	
2821	0	32780	32783	
2822	0	32786	32679	
2823	0	32796	32676	
2824	0	32858	32822	
2825	0	32808	32748	
2826	0	32840	32758	
2827	0	32804	32718	
2828	0	32891	32786	
2829	0	32756	32794	
2830	0	32804	32816	
2831	0	32786	32714	
2832	0	32792	32678	
2833	0	32878	32682	
2834	0	32856	32724	
2835	0	32856	32736	
2836	0	32784	32694	
2837	0	32796	32702	
2838	0	32716	32702	
2839	0	32796	32720	
2840	0	32700	32712	
2841	0	32860	32822	
2842	0	32798	32820	
2843	0	32810	32862	
2844	0	32816	32748	
2845	0	32862	32714	
2846	0	32896	32830	
2847	0	32792	32734	
2848	0	32862	32795	
2849	0	32882	32768	
2850	0	32856	32686	
2851	0	32844	32767	
2852	0	32814	32775	
2853	0	32844	32668	
2854	0	32752	32740	
2855	0	32840	32852	
2856	0	32730	32758	
2857	0	32816	32788	
2858	0	32902	32892	
2859	0	32820	32702	
2860	0	32804	32718	
2861	0	32840	32826	
2862	0	32844	32807	
2863	0	32842	32800	
2864	0	32818	32772	
2865	0	32808	32738	
2866	0	32794	32740	
2867	0	32854	32830	
2868	0	32848	32820	
2869	0	32768	32743	
2870	0	32728	32792	
2871	0	32778	32676	
2872	0	32784	32752	
2873	0	32796	32854	
2874	0	32788	32732	
2875	0	32800	32822	
2876	0	32788	32664	
2877	0	32812	32706	
2878	0	32864	32762	
2879	0	32720	32756	
2880	0	32844	32871	
2881	0	32832	32730	
2882	0	32864	32870	
2883	0	32812	32752	
2884	0	32762	32812	
2885	0	32824	32708	
2886	0	32776	32696	
2887	0	32836	32850	
2888	0	32775	32775	
2889	0	32864	32848	
2890	0	32804	32656	
2891	0	32892	32740	
2892	0	32840	32836	
2893	0	32796	32814	
2894	0	32792	32744	
2895	0	32746	32743	
2896	0	32848	32788	
2897	0	32844	32688	
2898	0	32792	32732	
2899	0	32740	32808	
2900	0	32844	32852	
2901	0	32804	32860	
2902	0	32724	32679	
2903	0	32724	32748	
2904	0	32800	32826	
2905	0	32852	32754	
2906	0	32812	32788	
2907	0	32824	32812	
2908	0	32738	32820	
2909	0	32764	32710	
2910	0	32828	32744	
2911	0	32842	32652	
2912	0	32852	32816	
2913	0	32880	32742	
2914	0	32734	32782	
2915	0	32785	32844	
2916	0	32840	32708	
2917	0	32844	32686	
2918	0	32798	32716	
2919	0	32822	32858	
2920	0	32792	32894	
2921	0	32824	32788	
2922	0	32834	32816	
2923	0	32824	32775	
2924	0	32852	32772	
2925	0	32826	32819	
2926	0	32814	32775	
2927	0	32808	32660	
2928	0	32836	32871	
2929	0	32748	32844	
2930	0	32789	32694	
2931	0	32830	32753	
2932	0	32836	32842	
2933	0	32770	32826	
2934	0	32802	32684	
2935	0	32836	32792	
2936	0	32832	32826	
2937	0	32812	32826	
2938	0	32852	32836	
2939	0	32794	32898	
2940	0	32880	32742	
2941	0	32830	32692	
2942	0	32702	32646	
2943	0	32810	32796	
2944	0	32844	32796	
2945	0	32834	32736	
2946	0	32832	32744	
2947	0	32788	32726	
2948	0	32808	32668	
2949	0	32778	32807	
2950	0	32810	32714	
2951	0	32798	32788	
2952	0	32812	32772	
2953	0	32828	32656	
2954	0	32852	32732	
2955	0	32792	32842	
2956	0	32872	32775	
2957	0	32830	32792	
2958	0	32800	32784	
2959	0	32816	32679	
2960	0	32800	32714	
2961	0	32820	32764	
2962	0	32884	32788	
2963	0	32816	32862	
2964	0	32808	32845	
2965	0	32772	32696	
2966	0	32886	32796	
2967	0	32716	32832	
2968	0	32772	32800	
2969	0	32780	32900	
2970	0	32794	32802	
2971	0	32792	32620	
2972	0	32808	32762	
2973	0	32896	32740	
2974	0	32828	32679	
2975	0	32840	32792	
2976	0	32896	32718	
2977	0	32796	32748	
2978	0	32816	32802	
2979	0	32868	32774	
2980	0	32830	32775	
2981	0	32902	32750	
2982	0	32804	32752	
2983	0	32796	32836	
2984	0	32828	32818	
2985	0	32928	32762	
2986	0	32824	32815	
2987	0	32836	32754	
2988	0	32832	32864	
2989	0	32832	32862	
2990	0	32852	32686	
2991	0	32788	32740	
2992	0	32856	32852	
2993	0	32804	32800	
2994	0	32852	32742	
2995	0	32801	32684	
2996	0	32834	32756	
2997	0	32740	32868	
2998	0	32896	32753	
2999	0	32822	32862	
3000	0	32864	32724	
3001	0	32844	32714	
3002	0	32798	32738	
3003	0	32768	32766	
3004	0	32798	32878	
3005	0	32844	32706	
3006	0	32872	32728	
3007	0	32780	32816	
3008	0	32784	32758	
3009	0	32844	32710	
3010	0	32876	32802	
3011	0	32720	32748	
3012	0	32772	32720	
3013	0	32788	32680	
3014	0	32778	32803	
3015	0	32840	32775	
3016	0	32868	32862	
3017	0	32732	32742	
3018	0	32736	32768	
3019	0	32884	32858	
3020	0	32760	32796	
3021	0	32796	32866	
3022	0	32864	32616	
3023	0	32778	32808	
3024	0	32832	32775	
3025	0	32792	32848	
3026	0	32816	32748	
3027	0	32768	32772	
3028	0	32784	32753	
3029	0	32746	32839	
3030	0	32796	32732	
3031	0	32790	32754	
3032	0	32736	32730	
3033	0	32834	32690	
3034	0	32740	32663	
3035	0	32740	32752	
3036	0	32834	32812	
3037	0	32756	32775	
3038	0	32780	32878	
3039	0	32784	32770	
3040	0	32862	32700	
3041	0	32796	32740	
3042	0	32814	32808	
3043	0	32816	32762	
3044	0	32804	32756	
3045	0	32814	32840	
3046	0	32768	32792	
3047	0	32748	32646	
3048	0	32808	32662	
3049	0	32842	32806	
3050	0	32842	32746	
3051	0	32772	32790	
3052	0	32800	32814	
3053	0	32796	32698	
3054	0	32808	32711	
3055	0	32768	32722	
3056	0	32800	32764	
3057	0	32808	32714	
3058	0	32836	32844	
3059	0	32822	32722	
3060	0	32784	32678	
3061	0	32836	32753	
3062	0	32816	32772	
3063	0	32760	32728	
3064	0	32848	32846	
3065	0	32752	32788	
3066	0	32872	32751	
3067	0	32816	32710	
3068	0	32860	32858	
3069	0	32816	32775	
3070	0	32768	32800	
3071	0	32820	32732	
3072	0	32868	32868	
3073	0	32828	32796	
3074	0	32828	32794	
3075	0	32818	32760	
3076	0	32772	32646	
3077	0	32772	32716	
3078	0	32794	32831	
3079	0	32802	32870	
3080	0	32824	32732	
3081	0	32768	32708	
3082	0	32830	32788	
3083	0	32800	32810	
3084	0	32850	32806	
3085	0	32748	32706	
3086	0	32846	32764	
3087	0	32820	32700	
3088	0	32844	32788	
3089	0	32780	32775	
3090	0	32768	32722	
3091	0	32892	32808	
3092	0	32760	32796	
3093	0	32796	32774	
3094	0	32790	32790	
3095	0	32840	32740	
3096	0	32704	32671	
3097	0	32864	32686	
3098	0	32752	32674	
3099	0	32884	32734	
3100	0	32864	32726	
3101	0	32824	32768	
3102	0	32768	32820	
3103	0	32796	32800	
3104	0	32808	32784	
3105	0	32794	32913	
3106	0	32756	32684	
3107	0	32840	32728	
3108	0	32792	32702	
3109	0	32878	32804	
3110	0	32900	32806	
3111	0	32784	32790	
3112	0	32832	32836	
3113	0	32842	32806	
3114	0	32884	32702	
3115	0	32828	32657	
3116	0	32784	32871	
3117	0	32762	32728	
3118	0	32812	32836	
3119	0	32752	32828	
3120	0	32768	32702	
3121	0	32852	32775	
3122	0	32880	32694	
3123	0	32772	32768	
3124	0	32808	32742	
3125	0	32800	32798	
3126	0	32820	32782	
3127	0	32828	32756	
3128	0	32760	32775	
3129	0	32808	32818	
3130	0	32804	32756	
3131	0	32836	32740	
3132	0	32814	32818	
3133	0	32802	32764	
3134	0	32828	32744	
3135	0	32806	32673	
3136	0	32810	32794	
3137	0	32844	32766	
3138	0	32774	32884	
3139	0	32790	32708	
3140	0	32804	32704	
3141	0	32814	32757	
3142	0	32784	32848	
3143	0	32836	32656	
3144	0	32828	32789	
3145	0	32864	32802	
3146	0	32872	32876	
3147	0	32888	32766	
3148	0	32852	32708	
3149	0	32792	32672	
3150	0	32760	32820	
3151	0	32772	32770	
3152	0	32724	32775	
3153	0	32846	32784	
3154	0	32840	32710	
3155	0	32824	32774	
3156	0	32768	32874	
3157	0	32774	32844	
3158	0	32816	32783	
3159	0	32752	32746	
3160	0	32824	32726	
3161	0	32828	32738	
3162	0	32800	32862	
3163	0	32816	32744	
3164	0	32856	32775	
3165	0	32828	32768	
3166	0	32820	32748	
3167	0	32792	32742	
3168	0	32776	32804	
3169	0	32856	32808	
3170	0	32706	32668	
3171	0	32816	32734	
3172	0	32760	32800	
3173	0	32808	32766	
3174	0	32760	32748	
3175	0	32764	32834	
3176	0	32812	32771	
3177	0	32860	32654	
3178	0	32788	32775	
3179	0	32824	32716	
3180	0	32900	32754	
3181	0	32852	32744	
3182	0	32816	32748	
3183	0	32782	32774	
3184	0	32804	32852	
3185	0	32728	32774	
3186	0	32812	32846	
3187	0	32820	32758	
3188	0	32836	32758	
3189	0	32840	32679	
3190	0	32770	32808	
3191	0	32880	32800	
3192	0	32804	32768	
3193	0	32822	32728	
3194	0	32828	32740	
3195	0	32796	32804	
3196	0	32804	32816	
3197	0	32762	32798	
3198	0	32804	32818	
3199	0	32804	32808	
3200	0	32814	32660	
3201	0	32864	32736	
3202	0	32778	32724	
3203	0	32840	32794	
3204	0	32798	32710	
3205	0	32866	32775	
3206	0	32852	32775	
3207	0	32836	32744	
3208	0	32852	32810	
3209	0	32816	32801	
3210	0	32716	32760	
3211	0	32840	32722	
3212	0	32800	32816	
3213	0	32840	32728	
3214	0	32796	32816	
3215	0	32836	32740	
3216	0	32848	32704	
3217	0	32798	32694	
3218	0	32816	32696	
3219	0	32900	32928	
3220	0	32744	32756	
3221	0	32784	32810	
3222	0	32760	32796	
3223	0	32848	32798	
3224	0	32772	32704	
3225	0	32764	32770	
3226	0	32812	32814	
3227	0	32832	32852	
3228	0	32804	32742	
3229	0	32814	32839	
3230	0	32860	32688	
3231	0	32838	32732	
3232	0	32824	32810	
3233	0	32788	32800	
3234	0	32814	32820	
3235	0	32848	32882	
3236	0	32780	32724	
3237	0	32784	32632	
3238	0	32836	32682	
3239	0	32816	32795	
3240	0	32820	32766	
3241	0	32822	32756	
3242	0	32780	32738	
3243	0	32816	32794	
3244	0	32852	32774	
3245	0	32778	32743	
3246	0	32836	32702	
3247	0	32814	32762	
3248	0	32788	32852	
3249	0	32768	32814	
3250	0	32840	32748	
3251	0	32804	32708	
3252	0	32842	32684	
3253	0	32862	32842	
3254	0	32846	32836	
3255	0	32744	32756	
3256	0	32856	32682	
3257	0	32798	32814	
3258	0	32768	32734	
3259	0	32760	32768	
3260	0	32902	32644	
3261	0	32868	32680	
3262	0	32856	32692	
3263	0	32840	32712	
3264	0	32864	32714	
3265	0	32852	32903	
3266	0	32824	32812	
3267	0	32828	32831	
3268	0	32836	32706	
3269	0	32840	32814	
3270	0	32740	32744	
3271	0	32800	32792	
3272	0	32806	32824	
3273	0	32820	32766	
3274	0	32792	32753	
3275	0	32814	32708	
3276	0	32820	32612	
3277	0	32776	32852	
3278	0	32760	32732	
3279	0	32816	32824	
3280	0	32828	32760	
3281	0	32808	32756	
3282	0	32832	32800	
3283	0	32792	32846	
3284	0	32800	32736	
3285	0	32814	32750	
3286	0	32834	32698	
3287	0	32828	32654	
3288	0	32832	32759	
3289	0	32848	32704	
3290	0	32804	32761	
3291	0	32804	32710	
3292	0	32812	32710	
3293	0	32792	32775	
3294	0	32828	32746	
3295	0	32798	32872	
3296	0	32760	32848	
3297	0	32816	32758	
3298	0	32868	32734	
3299	0	32824	32802	
3300	0	32836	32802	
3301	0	32772	32724	
3302	0	32792	32740	
3303	0	32820	32866	
3304	0	32816	32768	
3305	0	32732	32826	
3306	0	32816	32768	
3307	0	32872	32696	
3308	0	32788	32674	
3309	0	32836	32788	
3310	0	32748	32790	
3311	0	32810	32726	
3312	0	32800	32775	
3313	0	32788	32800	
3314	0	32744	32761	
3315	0	32784	32662	
3316	0	32760	32656	
3317	0	32784	32840	
3318	0	32846	32807	
3319	0	32836	32775	
3320	0	32832	32775	
3321	0	32762	32716	
3322	0	32800	32858	
3323	0	32868	32746	
3324	0	32808	32734	
3325	0	32868	32775	
3326	0	32802	32816	
3327	0	32752	32700	
3328	0	32800	32692	
3329	0	32808	32708	
3330	0	32844	32775	
3331	0	32764	32814	
3332	0	32796	32752	
3333	0	32846	32818	
3334	0	32744	32842	
3335	0	32740	32746	
3336	0	32772	32761	
3337	0	32764	32606	
3338	0	32788	32852	
3339	0	32804	32795	
3340	0	32816	32758	
3341	0	32790	32870	
3342	0	32798	32684	
3343	0	32774	32698	
3344	0	32797	32814	
3345	0	32840	32772	
3346	0	32848	32808	
3347	0	32824	32730	
3348	0	32788	32688	
3349	0	32740	32748	
3350	0	32756	32734	
3351	0	32836	32888	
3352	0	32842	32824	
3353	0	32898	32754	
3354	0	32736	32756	
3355	0	32858	32796	
3356	0	32820	32800	
3357	0	32786	32712	
3358	0	32908	32735	
3359	0	32778	32662	
3360	0	32852	32720	
3361	0	32828	32840	
3362	0	32740	32775	
3363	0	32812	32722	
3364	0	32876	32806	
3365	0	32812	32766	
3366	0	32832	32744	
3367	0	32836	32676	
3368	0	32792	32852	
3369	0	32820	32806	
3370	0	32734	32734	
3371	0	32798	32800	
3372	0	32844	32892	
3373	0	32772	32626	
3374	0	32840	32690	
3375	0	32850	32840	
3376	0	32768	32852	
3377	0	32816	32770	
3378	0	32820	32756	
3379	0	32854	32832	
3380	0	32820	32820	
3381	0	32836	32750	
3382	0	32810	32684	
3383	0	32809	32842	
3384	0	32858	32775	
3385	0	32890	32820	
3386	0	32788	32786	
3387	0	32900	32772	
3388	0	32852	32700	
3389	0	32772	32756	
3390	0	32806	32692	
3391	0	32742	32766	
3392	0	32806	32864	
3393	0	32788	32826	
3394	0	32784	32844	
3395	0	32788	32738	
3396	0	32794	32740	
3397	0	32776	32748	
3398	0	32792	32814	
3399	0	32798	32700	
3400	0	32852	32721	
3401	0	32808	32812	
3402	0	32782	32758	
3403	0	32774	32775	
3404	0	32812	32850	
3405	0	32832	32692	
3406	0	32808	32662	
3407	0	32780	32707	
3408	0	32796	32828	
3409	0	32814	32728	
3410	0	32778	32912	
3411	0	32852	32796	
3412	0	32760	32672	
3413	0	32808	32826	
3414	0	32784	32770	
3415	0	32772	32789	
3416	0	32816	32782	
3417	0	32864	32710	
3418	0	32760	32750	
3419	0	32856	32800	
3420	0	32825	32790	
3421	0	32780	32704	
3422	0	32844	32906	
3423	0	32784	32724	
3424	0	32808	32646	
3425	0	32850	32807	
3426	0	32908	32864	
3427	0	32840	32796	
3428	0	32834	32827	
3429	0	32798	32866	
3430	0	32756	32734	
3431	0	32846	32737	
3432	0	32824	32742	
3433	0	32766	32770	
3434	0	32768	32816	
3435	0	32828	32856	
3436	0	32796	32730	
3437	0	32874	32852	
3438	0	32800	32768	
3439	0	32772	32810	
3440	0	32864	32740	
3441	0	32786	32710	
3442	0	32818	32738	
3443	0	32786	32922	
3444	0	32824	32742	
3445	0	32774	32740	
3446	0	32832	32821	
3447	0	32860	32774	
3448	0	32752	32680	
3449	0	32796	32704	
3450	0	32784	32762	
3451	0	32860	32788	
3452	0	32900	32775	
3453	0	32870	32808	
3454	0	32788	32732	
3455	0	32792	32654	
3456	0	32814	32724	
3457	0	32778	32886	
3458	0	32832	32846	
3459	0	32848	32752	
3460	0	32834	32761	
3461	0	32760	32752	
3462	0	32880	32816	
3463	0	32760	32768	
3464	0	32836	32692	
3465	0	32812	32732	
3466	0	32806	32810	
3467	0	32840	32784	
3468	0	32844	32812	
3469	0	32820	32740	
3470	0	32788	32788	
3471	0	32780	32664	
3472	0	32912	32652	
3473	0	32796	32668	
3474	0	32772	32775	
3475	0	32820	32801	
3476	0	32812	32820	
3477	0	32756	32788	
3478	0	32780	32896	
3479	0	32764	32740	
3480	0	32732	32752	
3481	0	32840	32698	
3482	0	32842	32678	
3483	0	32872	32740	
3484	0	32866	32832	
3485	0	32824	32784	
3486	0	32832	32812	
3487	0	32840	32714	
3488	0	32778	32772	
3489	0	32852	32758	
3490	0	32824	32724	
3491	0	32892	32744	
3492	0	32816	32774	
3493	0	32852	32844	
3494	0	32852	32732	
3495	0	32788	32815	
3496	0	32804	32840	
3497	0	32768	32748	
3498	0	32742	32700	
3499	0	32804	32684	
3500	0	32828	32824	
3501	0	32864	32818	
3502	0	32768	32784	
3503	0	32768	32790	
3504	0	32856	32704	
3505	0	32744	32746	
3506	0	32846	32714	
3507	0	32834	32708	
3508	0	32864	32786	
3509	0	32844	32810	
3510	0	32824	32758	
3511	0	32792	32750	
3512	0	32804	32748	
3513	0	32790	32816	
3514	0	32824	32794	
3515	0	32816	32756	
3516	0	32800	32672	
3517	0	32836	32676	
3518	0	32736	32716	
3519	0	32778	32718	
3520	0	32824	32860	
3521	0	32808	32800	
3522	0	32808	32716	
3523	0	32836	32762	
3524	0	32782	32716	
3525	0	32852	32792	
3526	0	32832	32733	
3527	0	32836	32706	
3528	0	32852	32800	
3529	0	32812	32663	
3530	0	32808	32775	
3531	0	32820	32748	
3532	0	32784	32708	
3533	0	32778	32826	
3534	0	32802	32756	
3535	0	32860	32743	
3536	0	32852	32678	
3537	0	32748	32714	
3538	0	32804	32626	
3539	0	32782	32766	
3540	0	32776	32734	
3541	0	32816	32644	
3542	0	32814	32716	
3543	0	32800	32818	
3544	0	32784	32816	
3545	0	32776	32820	
3546	0	32768	32836	
3547	0	32812	32858	
3548	0	32846	32692	
3549	0	32812	32630	
3550	0	32808	32814	
3551	0	32848	32734	
3552	0	32868	32800	
3553	0	32808	32775	
3554	0	32836	32760	
3555	0	32810	32734	
3556	0	32776	32824	
3557	0	32784	32800	
3558	0	32800	32760	
3559	0	32778	32648	
3560	0	32836	32838	
3561	0	32844	32760	
3562	0	32788	32808	
3563	0	32818	32762	
3564	0	32832	32814	
3565	0	32808	32714	
3566	0	32780	32846	
3567	0	32822	32858	
3568	0	32776	32796	
3569	0	32772	32903	
3570	0	32784	32694	
3571	0	32736	32728	
3572	0	32720	32798	
3573	0	32718	32810	
3574	0	32718	32906	
3575	0	32728	32828	
3576	0	32762	32802	
3577	0	32692	32756	
3578	0	32706	32852	
3579	0	32704	32864	
3580	0	32778	32804	
3581	0	32804	32774	
3582	0	32716	32798	
3583	0	32696	32710	
3584	0	32652	32840	
3585	0	32668	32766	
3586	0	32668	32952	
3587	0	32648	32770	
3588	0	32660	32814	
3589	0	32636	32800	
3590	0	32656	32792	
3591	0	32788	32804	
3592	0	32820	32866	
3593	0	32772	32784	
3594	0	32884	32656	
3595	0	32884	32662	
3596	0	32938	32751	
3597	0	32996	32678	
3598	0	33064	32696	
3599	0	33066	32698	
3600	0	33112	32580	
3601	0	33264	32580	
3602	0	33268	32578	
3603	0	33340	32464	
3604	0	33344	32490	
3605	0	33288	32500	
3606	0	33308	32519	
3607	0	33272	32678	
3608	0	33130	32740	
3609	0	33028	32815	
3610	0	32916	32816	
3611	0	32844	32878	
3612	0	32704	32968	
3613	0	32652	32974	
3614	0	32508	32847	
3615	0	32484	32828	
3616	0	32512	32838	
3617	0	32516	32768	
3618	0	32536	32806	
3619	0	32548	32775	
3620	0	32608	32772	
3621	0	32620	32956	
3622	0	32576	32846	
3623	0	32696	32900	
3624	0	32672	32766	
3625	0	32674	32824	
3626	0	32740	32770	
3627	0	32742	32796	
3628	0	32672	32742	
3629	0	32698	32714	
3630	0	32704	32719	
3631	0	32774	32775	
3632	0	32714	32720	
3633	0	32745	32792	
3634	0	32824	32788	
3635	0	32852	32823	
3636	0	32848	32812	
3637	0	32772	32804	
3638	0	32858	32748	
3639	0	32770	32820	
3640	0	32788	32768	
3641	0	32768	32704	
3642	0	32792	32678	
3643	0	32884	32744	
3644	0	32776	32710	
3645	0	32856	32775	
3646	0	32798	32800	
3647	0	32818	32854	
3648	0	32834	32810	
3649	0	32900	32775	
3650	0	32804	32730	
3651	0	32828	32734	
3652	0	32826	32732	
3653	0	32856	32792	
3654	0	32838	32800	
3655	0	32820	32791	
3656	0	32856	32756	
3657	0	32812	32775	
3658	0	32848	32775	
3659	0	32832	32775	
3660	0	32884	32790	
3661	0	32872	32766	
3662	0	32802	32775	
3663	0	32808	32796	
3664	0	32796	32828	
3665	0	32780	32700	
3666	0	32784	32616	
3667	0	32848	32788	
3668	0	32796	32775	
3669	0	32864	32760	
3670	0	32720	32830	
3671	0	32794	32858	
3672	0	32816	32794	
3673	0	32844	32740	
3674	0	32768	32676	
3675	0	32780	32663	
3676	0	32816	32788	
3677	0	32904	32836	
3678	0	32840	32814	
3679	0	32826	32740	
3680	0	32836	32726	
3681	0	32730	32688	
3682	0	32816	32812	
3683	0	32824	32834	
3684	0	32788	32742	
3685	0	32832	32770	
3686	0	32832	32775	
3687	0	32854	32728	
3688	0	32792	32710	
3689	0	32808	32710	
3690	0	32834	32856	
3691	0	32804	32774	
3692	0	32852	32826	
3693	0	32828	32775	
3694	0	32816	32775	
3695	0	32808	32695	
3696	0	32714	32790	
3697	0	32806	32780	
3698	0	32804	32806	
3699	0	32896	32839	
3700	0	32856	32792	
3701	0	32804	32700	
3702	0	32776	32747	
3703	0	32768	32856	
3704	0	32792	32796	
3705	0	32778	32775	
3706	0	32810	32782	
3707	0	32768	32764	
3708	0	32812	32871	
3709	0	32788	32760	
3710	0	32766	32670	
3711	0	32792	32678	
3712	0	32874	32678	
3713	0	32841	32788	
3714	0	32820	32754	
3715	0	32846	32806	
3716	0	32808	32816	
3717	0	32812	32775	
3718	0	32828	32710	
3719	0	32816	32708	
3720	0	32816	32902	
3721	0	32866	32799	
3722	0	32836	32736	
3723	0	32778	32716	
3724	0	32792	32879	
3725	0	32720	32748	
3726	0	32800	32678	
3727	0	32800	32688	
3728	0	32864	32682	
3729	0	32840	32903	
3730	0	32832	32775	
3731	0	32828	32822	
3732	0	32828	32839	
3733	0	32818	32820	
3734	0	32788	32840	
3735	0	32836	32780	
3736	0	32788	32815	
3737	0	32872	32890	
3738	0	32800	32764	
3739	0	32820	32654	
3740	0	32790	32704	
3741	0	32808	32666	
3742	0	32882	32729	
3743	0	32796	32818	
3744	0	32768	32696	
3745	0	32812	32774	
3746	0	32782	32736	
3747	0	32784	32734	
3748	0	32760	32768	
3749	0	32742	32857	
3750	0	32804	32790	
3751	0	32836	32760	
3752	0	32840	32762	
3753	0	32746	32672	
3754	0	32836	32618	
3755	0	32874	32728	
3756	0	32836	32687	
3757	0	32792	32700	
3758	0	32778	32810	
3759	0	32806	32728	
3760	0	32784	32832	
3761	0	32832	32804	
3762	0	32782	32775	
3763	0	32772	32790	
3764	0	32796	32711	
3765	0	32792	32766	
3766	0	32800	32792	
3767	0	32796	32734	
3768	0	32784	32804	
3769	0	32812	32836	
3770	0	32816	32724	
3771	0	32804	32821	
3772	0	32746	32756	
3773	0	32792	32754	
3774	0	32872	32726	
3775	0	32838	32848	
3776	0	32776	32826	
3777	0	32804	32770	
3778	0	32822	32688	
3779	0	32788	32743	
3780	0	32800	32696	
3781	0	32794	32812	
3782	0	32768	32766	
3783	0	32768	32736	
3784	0	32836	32775	
3785	0	32828	32826	
3786	0	32772	32852	
3787	0	32838	32885	
3788	0	32824	32846	
3789	0	32836	32769	
3790	0	32868	32828	
3791	0	32804	32804	
3792	0	32864	32696	
3793	0	32836	32744	
3794	0	32840	32676	
3795	0	32828	32812	
3796	0	32816	32740	
3797	0	32744	32849	
3798	0	32812	32807	
3799	0	32858	32736	
3800	0	32776	32702	
3801	0	32820	32854	
3802	0	32804	32828	
3803	0	32776	32743	
3804	0	32808	32666	
3805	0	32776	32692	
3806	0	32814	32756	
3807	0	32840	32806	
3808	0	32796	32724	
3809	0	32812	32756	
3810	0	32876	32788	
3811	0	32764	32698	
3812	0	32854	32668	
3813	0	32782	32728	
3814	0	32798	32710	
3815	0	32820	32868	
3816	0	32780	32744	
3817	0	32774	32736	
3818	0	32820	32856	
3819	0	32804	32802	
3820	0	32776	32836	
3821	0	32778	32788	
3822	0	32800	32698	
3823	0	32856	32740	
3824	0	32852	32810	
3825	0	32808	32799	
3826	0	32896	32775	
3827	0	32860	32752	
3828	0	32848	32640	
3829	0	32800	32758	
3830	0	32842	32752	
3831	0	32816	32732	
3832	0	32800	32690	
3833	0	32770	32810	
3834	0	32800	32852	
3835	0	32754	32772	
3836	0	32824	32812	
3837	0	32798	32801	
3838	0	32832	32670	
3839	0	32812	32668	
3840	0	32844	32812	
3841	0	32858	32700	
3842	0	32816	32748	
3843	0	32888	32748	
3844	0	32880	32870	
3845	0	32770	32631	
3846	0	32852	32700	
3847	0	32760	32856	
3848	0	32804	32720	
3849	0	32700	32852	
3850	0	32804	32799	
3851	0	32822	32826	
3852	0	32814	32804	
3853	0	32836	32775	
3854	0	32848	32775	
3855	0	32800	32679	
3856	0	32870	32696	
3857	0	32824	32698	
3858	0	32880	32758	
3859	0	32770	32768	
3860	0	32840	32754	
3861	0	32840	32807	
3862	0	32772	32775	
3863	0	32844	32743	
3864	0	32792	32761	
3865	0	32852	32672	
3866	0	32848	32767	
3867	0	32708	32800	
3868	0	32780	32764	
3869	0	32772	32804	
3870	0	32836	32710	
3871	0	32804	32664	
3872	0	32768	32618	
3873	0	32784	32836	
3874	0	32828	32712	
3875	0	32824	32882	
3876	0	32808	32782	
3877	0	32820	32682	
3878	0	32752	32732	
3879	0	32776	32670	
3880	0	32768	32794	
3881	0	32784	32775	
3882	0	32852	32774	
3883	0	32808	32807	
3884	0	32786	32872	
3885	0	32780	32760	
3886	0	32762	32688	
3887	0	32800	32758	
3888	0	32782	32676	
3889	0	32772	32726	
3890	0	32796	32903	
3891	0	32820	32774	
3892	0	32786	32770	
3893	0	32852	32814	
3894	0	32820	32825	
3895	0	32724	32738	
3896	0	32820	32700	
3897	0	32816	32903	
3898	0	32818	32820	
3899	0	32822	32752	
3900	0	32856	32848	
3901	0	32796	32754	
3902	0	32896	32676	
3903	0	32790	32708	
3904	0	32772	32834	
3905	0	32912	32834	
3906	0	32832	32764	
3907	0	32780	32812	
3908	0	32724	32750	
3909	0	32814	32760	
3910	0	32808	32740	
3911	0	32792	32778	
3912	0	32796	32800	
3913	0	32792	32814	
3914	0	32856	32758	
3915	0	32824	32732	
3916	0	32848	32896	
3917	0	32794	32774	
3918	0	32864	32744	
3919	0	32864	32775	
3920	0	32794	32774	
3921	0	32782	32846	
3922	0	32830	32650	
3923	0	32810	32764	
3924	0	32798	32790	
3925	0	32802	32744	
3926	0	32840	32816	
3927	0	32894	32743	
3928	0	32734	32742	
3929	0	32768	32716	
3930	0	32870	32687	
3931	0	32796	32854	
3932	0	32802	32840	
3933	0	32732	32852	
3934	0	32804	32762	
3935	0	32852	32760	
3936	0	32814	32794	
3937	0	32756	32764	
3938	0	32756	32768	
3939	0	32790	32728	
3940	0	32880	32708	
3941	0	32768	32679	
3942	0	32820	32862	
3943	0	32816	32752	
3944	0	32792	32708	
3945	0	32784	32734	
3946	0	32806	32736	
3947	0	32848	32766	
3948	0	32792	32775	
3949	0	32724	32784	
3950	0	32840	32730	
3951	0	32816	32716	
3952	0	32788	32780	
3953	0	32770	32810	
3954	0	32816	32736	
3955	0	32798	32804	
3956	0	32806	32730	
3957	0	32786	32736	
3958	0	32736	32746	
3959	0	32792	32768	
3960	0	32800	32688	
3961	0	32776	32892	
3962	0	32832	32804	
3963	0	32844	32736	
3964	0	32834	32775	
3965	0	32780	32884	
3966	0	32784	32823	
3967	0	32772	32786	
3968	0	32760	32732	
3969	0	32828	32742	
3970	0	32810	32704	
3971	0	32756	32796	
3972	0	32804	32746	
3973	0	32872	32702	
3974	0	32772	32828	
3975	0	32840	32786	
3976	0	32778	32802	
3977	0	32896	32834	
3978	0	32824	32716	
3979	0	32816	32720	
3980	0	32792	32712	
3981	0	32864	32790	
3982	0	32804	32812	
3983	0	32802	32832	
3984	0	32815	32742	
3985	0	32824	32774	
3986	0	32804	32788	
3987	0	32856	32702	
3988	0	32854	32680	
3989	0	32812	32743	
3990	0	32762	32798	
3991	0	32820	32772	
3992	0	32802	32752	
3993	0	32788	32742	
3994	0	32806	32824	
3995	0	32796	32748	
3996	0	32792	32692	
3997	0	32764	32702	
3998	0	32808	32795	
3999	0	32808	32913	
4000	0	32822	32802	
4001	0	32886	32798	
4002	0	32784	32760	
4003	0	32816	32796	
4004	0	32800	32744	
4005	0	32740	32822	
4006	0	32804	32872	
4007	0	32812	32718	
4008	0	32860	32640	
4009	0	32770	32782	
4010	0	32736	32768	
4011	0	32860	32814	
4012	0	32912	32806	
4013	0	32830	32756	
4014	0	32804	32764	
4015	0	32818	32724	
4016	0	32796	32748	
4017	0	32800	32756	
4018	0	32870	32740	
4019	0	32814	32808	
4020	0	32850	32815	
4021	0	32880	32764	
4022	0	32754	32692	
4023	0	32818	32856	
4024	0	32768	32764	
4025	0	32832	32711	
4026	0	32868	32862	
4027	0	32808	32768	
4028	0	32836	32752	
4029	0	32784	32846	
4030	0	32802	32788	
4031	0	32852	32788	
4032	0	32860	32679	
4033	0	32850	32720	
4034	0	32864	32744	
4035	0	32808	32790	
4036	0	32804	32724	
4037	0	32780	32746	
4038	0	32772	32788	
4039	0	32820	32834	
4040	0	32820	32760	
4041	0	32830	32771	
4042	0	32832	32640	
4043	0	32816	32684	
4044	0	32798	32806	
4045	0	32796	32775	
4046	0	32840	32826	
4047	0	32880	32700	
4048	0	32828	32695	
4049	0	32800	32860	
4050	0	32796	32708	
4051	0	32786	32773	
4052	0	32828	32743	
4053	0	32776	32756	
4054	0	32784	32670	
4055	0	32866	32728	
4056	0	32844	32832	
4057	0	32796	32768	
4058	0	32788	32738	
4059	0	32832	32794	
4060	0	32820	32804	
4061	0	32772	32742	
4062	0	32826	32740	
4063	0	32828	32836	
4064	0	32852	32798	
4065	0	32756	32770	
4066	0	32792	32860	
4067	0	32756	32903	
4068	0	32776	32760	
4069	0	32794	32705	
4070	0	32808	32836	
4071	0	32820	32880	
4072	0	32816	32800	
4073	0	32776	32770	
4074	0	32840	32766	
4075	0	32820	32774	
4076	0	32804	32714	
4077	0	32810	32860	
4078	0	32840	32720	
4079	0	32832	32748	
4080	0	32860	32806	
4081	0	32888	32712	
4082	0	32808	32756	
4083	0	32796	32742	
4084	0	32744	32714	
4085	0	32824	32744	
4086	0	32816	32832	
4087	0	32812	32796	
4088	0	32782	32775	
4089	0	32764	32720	
4090	0	32816	32722	
4091	0	32808	32629	
4092	0	32744	32700	
4093	0	32844	32860	
4094	0	32786	32756	
4095	0	32768	32848	
4096	0	32780	32810	
4097	0	32834	32794	
4098	0	32884	32832	
4099	0	32816	32742	
4100	0	32790	32688	
4101	0	32852	32706	
4102	0	32840	32730	
4103	0	32796	32726	
4104	0	32938	32828	
4105	0	32768	32772	
4106	0	32850	32775	
4107	0	32800	32775	
4108	0	32828	32790	
4109	0	32792	32786	
4110	0	32780	32702	
4111	0	32756	32716	
4112	0	32748	32658	
4113	0	32816	32729	
4114	0	32840	32860	
4115	0	32804	32862	
4116	0	32772	32832	
4117	0	32808	32740	
4118	0	32820	32764	
4119	0	32836	32720	
4120	0	32800	32825	
4121	0	32866	32772	
4122	0	32818	32712	
4123	0	32822	32680	
4124	0	32836	32684	
4125	0	32850	32772	
4126	0	32872	32775	
4127	0	32816	32830	
4128	0	32802	32848	
4129	0	32896	32790	
4130	0	32780	32852	
4131	0	32854	32679	
4132	0	32800	32686	
4133	0	32744	32746	
4134	0	32768	32788	
4135	0	32796	32828	
4136	0	32828	32748	
4137	0	32774	32912	
4138	0	32828	32775	
4139	0	32824	32820	
4140	0	32824	32652	
4141	0	32860	32672	
4142	0	32824	32823	
4143	0	32772	32681	
4144	0	32820	32734	
4145	0	32826	32760	
4146	0	32780	32750	
4147	0	32818	32722	
4148	0	32772	32775	
4149	0	32828	32768	
4150	0	32816	32824	
4151	0	32836	32768	
4152	0	32824	32663	
4153	0	32826	32710	
4154	0	32821	32767	
4155	0	32800	32800	
4156	0	32800	32772	
4157	0	32776	32860	
4158	0	32761	32836	
4159	0	32778	32768	
4160	0	32790	32846	
4161	0	32780	32775	
4162	0	32804	32766	
4163	0	32840	32846	
4164	0	32804	32790	
4165	0	32788	32720	
4166	0	32864	32790	
4167	0	32852	32870	
4168	0	32864	32846	
4169	0	32852	32862	
4170	0	32806	32788	
4171	0	32798	32670	
4172	0	32788	32764	
4173	0	32858	32647	
4174	0	32806	32702	
4175	0	32756	32694	
4176	0	32680	32644	
4177	0	32678	32852	
4178	0	32690	32914	
4179	0	32680	33058	
4180	0	32860	32984	
4181	0	32840	32878	
4182	0	32776	32806	
4183	0	32938	32752	
4184	0	33150	32827	
4185	0	33044	32647	
4186	0	32944	32480	
4187	0	32926	32535	
4188	0	32672	32532	
4189	0	32496	32492	
4190	0	32420	32548	
4191	0	32464	32660	
4192	0	32496	32697	
4193	0	32593	32672	
4194	0	32912	32842	
4195	0	33320	32960	
4196	0	33448	32980	
4197	0	33408	33018	
4198	0	33122	33004	
4199	0	32804	32864	
4200	0	32588	32839	
4201	0	32436	32767	
4202	0	32472	32455	
4203	0	32592	32486	
4204	0	32746	32572	
4205	0	32716	32560	
4206	0	32916	32666	
4207	0	32794	32854	
4208	0	32636	32914	
4209	0	32540	32622	
4210	0	32596	32599	
4211	0	32800	32810	
4212	0	33170	32816	
4213	0	33328	32874	
4214	0	33250	32976	
4215	0	32996	32924	
4216	0	32654	32916	
4217	0	32608	32814	
4218	0	32526	32842	
4219	0	32552	32812	
4220	0	32520	32676	
4221	0	32748	32614	
4222	0	33130	32718	
4223	0	33040	32582	
4224	0	33020	32448	
4225	0	32904	32519	
4226	0	32780	32835	
4227	0	32757	32878	
4228	0	32716	32852	
4229	0	32676	33018	
4230	0	32620	32968	
4231	0	32644	32792	
4232	0	32592	32752	
4233	0	32636	32846	
4234	0	32908	32870	
4235	0	33044	32804	
4236	0	32956	32770	
4237	0	33160	32902	
4238	0	33124	33174	
4239	0	32952	33206	
4240	0	32784	33199	
4241	0	32676	33140	
4242	0	32514	32960	
4243	0	32376	32834	
4244	0	32436	32528	
4245	0	32496	32420	
4246	0	32792	32438	
4247	0	32864	32538	
4248	0	32968	32208	
4249	0	32812	32084	
4250	0	32838	32452	
4251	0	32820	32562	
4252	0	32824	32816	
4253	0	33184	32848	
4254	0	33176	32828	
4255	0	33036	33098	
4256	0	32920	32948	
4257	0	33040	32748	
4258	0	32982	32700	
4259	0	32968	32703	
4260	0	32708	32870	
4261	0	32638	32872	
4262	0	32608	32896	
4263	0	32348	32784	
4264	0	32164	32656	
4265	0	32288	32432	
4266	0	32792	32420	
4267	0	33356	32372	
4268	0	33380	32748	
4269	0	33428	32932	
4270	0	33300	32902	
4271	0	33160	33412	
4272	0	32876	33554	
4273	0	32444	33238	
4274	0	32288	33028	
4275	0	32488	32968	
4276	0	32308	32570	
4277	0	32350	32054	
4278	0	32448	31510	
4279	0	32416	31414	
4280	0	32912	31838	
4281	0	33102	32263	
4282	0	32856	32668	
4283	0	32902	32808	
4284	0	32904	33012	
4285	0	32848	32926	
4286	0	33064	32871	
4287	0	33392	33060	
4288	0	33350	33159	
4289	0	33086	33118	
4290	0	32910	33238	
4291	0	32776	33150	
4292	0	32816	33010	
4293	0	32752	32966	
4294	0	32588	32871	
4295	0	32572	32894	
4296	0	32512	32788	
4297	0	32574	32850	
4298	0	32616	32892	
4299	0	32884	32884	
4300	0	32870	32790	
4301	0	32912	32708	
4302	0	33036	32672	
4303	0	32972	32656	
4304	0	32704	32576	
4305	0	32504	32642	
4306	0	32608	32664	
4307	0	32592	32726	
4308	0	32686	32678	
4309	0	32780	32822	
4310	0	32868	32752	
4311	0	32934	32906	
4312	0	33032	32992	
4313	0	33060	33028	
4314	0	32968	32952	
4315	0	32860	32871	
4316	0	32854	32702	
4317	0	32918	32694	
4318	0	33092	32775	
4319	0	33068	32878	
4320	0	32900	32912	
4321	0	32866	32871	
4322	0	32488	32900	
4323	0	32196	32608	
4324	0	31956	32532	
4325	0	32428	32838	
4326	0	32640	32692	
4327	0	32636	32666	
4328	0	32880	32540	
4329	0	33192	32318	
4330	0	33088	32684	
4331	0	32992	33119	
4332	0	33044	33136	
4333	0	33096	32980	
4334	0	33076	32849	
4335	0	33048	32993	
4336	0	32798	32796	
4337	0	32580	32502	
4338	0	32700	32540	
4339	0	32768	32736	
4340	0	32936	32948	
4341	0	33132	33154	
4342	0	33042	32844	
4343	0	32848	32852	
4344	0	32736	32756	
4345	0	32620	32484	
4346	0	32528	32676	
4347	0	32708	32624	
4348	0	32832	32577	
4349	0	32872	32384	
4350	0	32840	32284	
4351	0	32900	32546	
4352	0	32656	32994	
4353	0	32452	33096	
4354	0	32816	33056	
4355	0	32900	32950	
4356	0	32868	32856	
4357	0	32780	32824	
4358	0	32912	32774	
4359	0	33098	32608	
4360	0	33077	32608	
4361	0	32960	32513	
4362	0	32846	32730	
4363	0	32914	32936	
4364	0	32764	32928	
4365	0	32564	32932	
4366	0	32486	32864	
4367	0	32352	32794	
4368	0	32496	32664	
4369	0	32777	32632	
4370	0	32800	32686	
4371	0	33152	32647	
4372	0	33300	32615	
4373	0	33112	32630	
4374	0	32664	32558	
4375	0	32548	32598	
4376	0	32714	32588	
4377	0	32768	32854	
4378	0	32992	33002	
4379	0	32928	32856	
4380	0	32764	32854	
4381	0	32698	32999	
4382	0	32920	32998	
4383	0	32938	32945	
4384	0	32868	33076	
4385	0	32636	33150	
4386	0	32520	32647	
4387	0	32420	32016	
4388	0	32408	32023	
4389	0	32648	32284	
4390	0	33188	32730	
4391	0	33496	33312	
4392	0	33616	33326	
4393	0	32988	32912	
4394	0	32376	32552	
4395	0	32364	32474	
4396	0	32420	32166	
4397	0	32564	32289	
4398	0	32996	32528	
4399	0	33196	32866	
4400	0	33220	33024	
4401	0	33158	33010	
4402	0	32962	33130	
4403	0	32736	33070	
4404	0	32772	32838	
4405	0	32740	32624	
4406	0	32586	32558	
4407	0	32580	32640	
4408	0	32544	32708	
4409	0	32520	32726	
4410	0	32648	32858	
4411	0	32738	32892	
4412	0	33060	32880	
4413	0	33088	32868	
4414	0	32978	32940	
4415	0	32868	33044	
4416	0	32752	32774	
4417	0	32712	32614	
4418	0	32584	32636	
4419	0	32556	32612	
4420	0	32658	32614	
4421	0	32880	32823	
4422	0	33004	33084	
4423	0	32964	33108	
4424	0	32952	33004	
4425	0	32784	32844	
4426	0	32698	32504	
4427	0	32604	32362	
4428	0	32644	32459	
4429	0	32888	32592	
4430	0	33050	32822	
4431	0	33080	32860	
4432	0	32964	32816	
4433	0	32714	32864	
4434	0	32526	32888	
4435	0	32442	32926	
4436	0	32696	33194	
4437	0	32832	33116	
4438	0	32810	32620	
4439	0	32844	32336	
4440	0	32673	32378	
4441	0	32216	32630	
4442	0	32202	32524	
4443	0	32788	32664	
4444	0	33720	33077	
4445	0	33856	32964	
4446	0	33640	32804	
4447	0	32968	32718	
4448	0	32624	32634	
4449	0	32592	32814	
4450	0	32772	32964	
4451	0	32625	32886	
4452	0	32664	32650	
4453	0	32728	32542	
4454	0	32632	32834	
4455	0	32924	32960	
4456	0	32964	32738	
4457	0	32894	32676	
4458	0	32820	32775	
4459	0	32718	32692	
4460	0	32696	32748	
4461	0	32804	32622	
4462	0	32704	32548	
4463	0	32736	32648	
4464	0	32736	32814	
4465	0	32724	32871	
4466	0	32678	33294	
4467	0	32828	33402	
4468	0	32924	33068	
4469	0	33052	33201	
4470	0	33076	32871	
4471	0	32914	32446	
4472	0	32736	32294	
4473	0	32712	32522	
4474	0	32420	32250	
4475	0	32360	31793	
4476	0	32466	31980	
4477	0	32500	32780	
4478	0	32724	33146	
4479	0	32892	33253	
4480	0	32898	33346	
4481	0	32666	33179	
4482	0	32736	32828	
4483	0	32872	32658	
4484	0	32738	32358	
4485	0	32820	32668	
4486	0	32924	32760	
4487	0	33016	32908	
4488	0	33060	33041	
4489	0	32986	33072	
4490	0	32990	33126	
4491	0	32860	32966	
4492	0	32800	33000	
4493	0	32466	32902	
4494	0	32202	32814	
4495	0	32398	32632	
4496	0	32576	32550	
4497	0	32688	32706	
4498	0	32992	32540	
4499	0	33260	32704	
4500	0	33308	32810	
4501	0	33194	32660	
4502	0	33178	32562	
4503	0	33128	32423	
4504	0	33188	32524	
4505	0	33260	32548	
4506	0	33372	32496	
4507	0	33366	32400	
4508	0	33406	32486	
4509	0	33396	32545	
4510	0	33096	32838	
4511	0	32920	33016	
4512	0	32896	33064	
4513	0	32788	33148	
4514	0	32736	33092	
4515	0	32568	33012	
4516	0	32372	32868	
4517	0	32304	32512	
4518	0	32392	32775	
4519	0	32538	33040	
4520	0	32442	33196	
4521	0	32520	33008	
4522	0	32420	33067	
4523	0	32464	32816	
4524	0	32472	32306	
4525	0	32840	32358	
4526	0	32864	32542	
4527	0	32972	32742	
4528	0	32940	32775	
4529	0	32764	32794	
4530	0	32564	32798	
4531	0	32452	33034	
4532	0	32728	32990	
4533	0	33018	32574	
4534	0	33116	32380	
4535	0	33148	32528	
4536	0	33056	32674	
4537	0	32884	32636	
4538	0	32706	32656	
4539	0	32580	32870	
4540	0	32632	32948	
4541	0	32504	33054	
4542	0	32554	33104	
4543	0	32912	32958	
4544	0	33212	32888	
4545	0	32846	32670	
4546	0	32640	32586	
4547	0	32500	32824	
4548	0	32538	32826	
4549	0	32884	32500	
4550	0	32938	32519	
4551	0	32680	32518	
4552	0	32508	32655	
4553	0	32540	32912	
4554	0	33076	32806	
4555	0	33348	32720	
4556	0	33268	32698	
4557	0	33046	32592	
4558	0	32788	32756	
4559	0	32728	32951	
4560	0	32694	33066	
4561	0	32606	32974	
4562	0	32608	32968	
4563	0	32660	32866	
4564	0	32704	32702	
4565	0	32800	32519	
4566	0	32916	32620	
4567	0	32950	32742	
4568	0	32852	32775	
4569	0	32796	32978	
4570	0	32892	33028	
4571	0	32886	32794	
4572	0	32912	32716	
4573	0	32848	32592	
4574	0	32716	32615	
4575	0	32620	32828	
4576	0	32612	33159	
4577	0	32606	32981	
4578	0	32796	32704	
4579	0	32892	32516	
4580	0	32780	32550	
4581	0	32654	32246	
4582	0	32820	32263	
4583	0	32750	32686	
4584	0	32900	32876	
4585	0	33208	32806	
4586	0	33484	32914	
4587	0	33010	32815	
4588	0	32588	32803	
4589	0	32628	32732	
4590	0	32744	32882	
4591	0	32746	33008	
4592	0	32800	33076	
4593	0	32908	32980	
4594	0	32666	32870	
4595	0	32612	32624	
4596	0	32620	32616	
4597	0	32628	32912	
4598	0	32880	33077	
4599	0	32996	32926	
4600	0	32980	32766	
4601	0	32994	32618	
4602	0	32784	32664	
4603	0	32742	32660	
4604	0	32756	32668	
4605	0	32736	32576	
4606	0	32658	32726	
4607	0	32728	32774	
4608	0	32764	32800	
4609	0	32584	32608	
4610	0	32864	32711	
4611	0	33098	32914	
4612	0	33064	32640	
4613	0	32766	32775	
4614	0	32606	32838	
4615	0	32792	32702	
4616	0	32878	32720	
4617	0	32856	32568	
4618	0	32826	32676	
4619	0	32804	32934	
4620	0	32868	32886	
4621	0	32880	32942	
4622	0	32688	32840	
4623	0	32712	32836	
4624	0	32918	32876	
4625	0	33056	32878	
4626	0	32996	32657	
4627	0	32972	32583	
4628	0	32820	32860	
4629	0	32532	32878	
4630	0	32340	32506	
4631	0	32292	32432	
4632	0	32532	32692	
4633	0	32888	32636	
4634	0	33090	32612	
4635	0	33180	32564	
4636	0	32890	32406	
4637	0	32784	32608	
4638	0	33004	33114	
4639	0	32748	33103	
4640	0	32676	32880	
4641	0	32664	32584	
4642	0	32910	32668	
4643	0	32892	32620	
4644	0	32880	32812	
4645	0	32990	32854	
4646	0	33176	32870	
4647	0	33052	32876	
4648	0	32904	33182	
4649	0	32836	33050	
4650	0	32436	32841	
4651	0	32304	32800	
4652	0	32472	32700	
4653	0	32564	32608	
4654	0	32792	32616	
4655	0	33044	32758	
4656	0	33196	32775	
4657	0	33112	32990	
4658	0	32900	32976	
4659	0	32764	32838	
4660	0	32696	32714	
4661	0	32648	32762	
4662	0	32840	32738	
4663	0	32664	32806	
4664	0	32356	32670	
4665	0	32416	32734	
4666	0	32776	32796	
4667	0	32940	32775	
4668	0	33048	32754	
4669	0	33180	32740	
4670	0	33020	32584	
4671	0	33044	32392	
4672	0	33000	32444	
4673	0	32756	32546	
4674	0	32736	32660	
4675	0	32752	32770	
4676	0	32740	32934	
4677	0	32776	32878	
4678	0	32746	32762	
4679	0	32792	32839	
4680	0	32740	32738	
4681	0	32760	32660	
4682	0	32766	32948	
4683	0	32812	32932	
4684	0	32832	32730	
4685	0	32810	32552	
4686	0	32690	32757	
4687	0	32886	32730	
4688	0	32948	32764	
4689	0	32780	32710	
4690	0	32742	32646	
4691	0	32680	32616	
4692	0	32476	32691	
4693	0	32658	32682	
4694	0	32994	32986	
4695	0	32916	33073	
4696	0	32924	33220	
4697	0	32996	33144	
4698	0	32880	32902	
4699	0	32646	32710	
4700	0	32640	32576	
4701	0	32544	32634	
4702	0	32720	32640	
4703	0	32868	32928	
4704	0	32780	32758	
4705	0	32788	32341	
4706	0	32780	32458	
4707	0	32890	32668	
4708	0	33220	32832	
4709	0	33220	32775	
4710	0	33148	32788	
4711	0	33072	32903	
4712	0	32824	32938	
4713	0	32704	32992	
4714	0	32676	33114	
4715	0	32752	33088	
4716	0	32664	32742	
4717	0	32600	32744	
4718	0	32438	32690	
4719	0	32652	32666	
4720	0	32704	32624	
4721	0	32852	32606	
4722	0	32982	32544	
4723	0	33016	32838	
4724	0	33016	32644	
4725	0	32990	32506	
4726	0	32752	32616	
4727	0	32712	32706	
4728	0	32686	32746	
4729	0	32516	32796	
4730	0	32522	32844	
4731	0	32740	32679	
4732	0	33066	32664	
4733	0	33124	32822	
4734	0	33022	32825	
4735	0	32850	32816	
4736	0	32854	32980	
4737	0	32924	33126	
4738	0	32862	33132	
4739	0	32884	32998	
4740	0	32832	32800	
4741	0	32680	32711	
4742	0	32768	32556	
4743	0	32884	32606	
4744	0	32860	32610	
4745	0	32984	32664	
4746	0	32970	32440	
4747	0	32958	32522	
4748	0	32890	32522	
4749	0	32776	32838	
4750	0	32752	32972	
4751	0	32642	32938	
4752	0	32542	32882	
4753	0	32680	32840	
4754	0	32784	32706	
4755	0	32892	32550	
4756	0	33216	32788	
4757	0	33272	32966	
4758	0	32818	32892	
4759	0	32506	32919	
4760	0	32348	32725	
4761	0	31976	32612	
4762	0	32192	32612	
4763	0	32920	32982	
4764	0	33274	32852	
4765	0	33224	32775	
4766	0	33302	32866	
4767	0	32962	32574	
4768	0	32824	32468	
4769	0	32752	32684	
4770	0	32778	32788	
4771	0	32664	32880	
4772	0	32844	32903	
4773	0	32932	32898	
4774	0	33012	32734	
4775	0	32872	32800	
4776	0	32782	32642	
4777	0	32682	32676	
4778	0	32596	32788	
4779	0	32460	32772	
4780	0	32696	32910	
4781	0	32808	32874	
4782	0	32962	33050	
4783	0	33020	32908	
4784	0	32942	32846	
4785	0	32836	32664	
4786	0	32760	32724	
4787	0	32776	32922	
4788	0	32624	32736	
4789	0	32474	32696	
4790	0	32704	32600	
4791	0	32808	32764	
4792	0	32824	32660	
4793	0	32632	32435	
4794	0	32602	32391	
4795	0	32880	32724	
4796	0	32911	32804	
4797	0	33172	32903	
4798	0	33276	32728	
4799	0	32976	32762	
4800	0	32962	32862	
4801	0	32904	32808	
4802	0	32722	32732	
4803	0	32732	32772	
4804	0	32670	32790	
4805	0	32666	32718	
4806	0	32664	32806	
4807	0	32676	32896	
4808	0	32724	32868	
4809	0	32756	33052	
4810	0	32850	33059	
4811	0	32842	33076	
4812	0	32816	32775	
4813	0	32688	32720	
4814	0	32728	32868	
4815	0	32868	33042	
4816	0	32736	32566	
4817	0	32708	32156	
4818	0	32756	32252	
4819	0	32806	32358	
4820	0	32644	32885	
4821	0	32692	32775	
4822	0	32852	32486	
4823	0	32896	32704	
4824	0	33102	32790	
4825	0	33050	32814	
4826	0	32984	32903	
4827	0	32984	32823	
4828	0	32928	32700	
4829	0	32762	32754	
4830	0	32652	32828	
4831	0	32632	32916	
4832	0	32756	32967	
4833	0	32960	32898	
4834	0	32936	32980	
4835	0	32780	32812	
4836	0	32746	32694	
4837	0	32660	32626	
4838	0	32660	32664	
4839	0	32832	32704	
4840	0	32884	32708	
4841	0	32968	32828	
4842	0	32866	32852	
4843	0	32936	32892	
4844	0	32816	32800	
4845	0	32824	32586	
4846	0	32800	32660	
4847	0	32778	32700	
4848	0	32712	32884	
4849	0	32720	32816	
4850	0	32964	32796	
4851	0	32888	32790	
4852	0	32720	32735	
4853	0	32756	32748	
4854	0	32752	32790	
4855	0	32812	32986	
4856	0	32724	32926	
4857	0	32748	32884	
4858	0	32754	32719	
4859	0	32616	32352	
4860	0	32658	32404	
4861	0	32906	32934	
4862	0	32984	32892	
4863	0	32856	32670	
4864	0	33000	32790	
4865	0	32868	32847	
4866	0	32796	32724	
4867	0	32684	32585	
4868	0	32800	32654	
4869	0	32856	32710	
4870	0	32828	32895	
4871	0	32840	32788	
4872	0	32860	32738	
4873	0	32750	32856	
4874	0	32692	32830	
4875	0	32660	32896	
4876	0	32872	32962	
4877	0	32908	32698	
4878	0	32812	32702	
4879	0	32864	32628	
4880	0	32918	32614	
4881	0	32948	32678	
4882	0	32972	32850	
4883	0	32704	33060	
4884	0	32684	32812	
4885	0	32740	32584	
4886	0	32640	32652	
4887	0	32628	32716	
4888	0	32756	32775	
4889	0	32934	32664	
4890	0	33072	32760	
4891	0	33036	32756	
4892	0	32884	32698	
4893	0	32800	32852	
4894	0	32664	32770	
4895	0	32532	32704	
4896	0	32668	32820	
4897	0	32880	32799	
4898	0	32968	32932	
4899	0	33060	32968	
4900	0	32884	33086	
4901	0	32884	32842	
4902	0	32724	32630	
4903	0	32696	32600	
4904	0	32688	32678	
4905	0	32716	32748	
4906	0	32864	32832	
4907	0	32824	32956	
4908	0	32736	32836	
4909	0	32792	32720	
4910	0	32824	32820	
4911	0	32883	32892	
4912	0	32872	32672	
4913	0	32778	32756	
4914	0	32900	32774	
4915	0	32776	32796	
4916	0	32728	32424	
4917	0	32792	32562	
4918	0	32948	32730	
4919	0	32768	32494	
4920	0	32628	32424	
4921	0	32682	32574	
4922	0	32752	32784	
4923	0	32912	32718	
4924	0	32900	32870	
4925	0	33016	33022	
4926	0	32944	32984	
4927	0	32962	32892	
4928	0	32742	32828	
4929	0	32548	32816	
4930	0	32704	32852	
4931	0	32828	32856	
4932	0	32856	32974	
4933	0	32864	33012	
4934	0	33040	32996	
4935	0	32960	32848	
4936	0	32660	32620	
4937	0	32568	32608	
4938	0	32872	32796	
4939	0	32872	32726	
4940	0	32872	32551	
4941	0	32848	32526	
4942	0	32836	32468	
4943	0	32760	32554	
4944	0	32524	32682	
4945	0	32594	33010	
4946	0	32636	32890	
4947	0	32668	32790	
4948	0	32742	32632	
4949	0	32968	32558	
4950	0	33276	32664	
4951	0	33330	32912	
4952	0	33008	33158	
4953	0	32672	32740	
4954	0	32580	32676	
4955	0	32684	32674	
4956	0	32988	32700	
4957	0	32954	32902	
4958	0	32696	32890	
4959	0	32586	32760	
4960	0	32656	32806	
4961	0	32772	32798	
4962	0	32932	32860	
4963	0	33066	32796	
4964	0	32994	32874	
4965	0	32884	32792	
4966	0	32868	32871	
4967	0	32808	32860	
4968	0	32724	32672	
4969	0	32686	32630	
4970	0	32740	32688	
4971	0	32768	32768	
4972	0	32770	32822	
4973	0	32812	32682	
4974	0	32860	32660	
4975	0	32806	32706	
4976	0	32884	32732	
4977	0	32864	32800	
4978	0	32852	32878	
4979	0	32800	33044	
4980	0	32752	32992	
4981	0	32734	32830	
4982	0	32704	32727	
4983	0	32762	32606	
4984	0	32724	32484	
4985	0	32812	32576	
4986	0	32938	32584	
4987	0	32952	32668	
4988	0	32920	32902	
4989	0	32924	32844	
4990	0	32836	32856	
4991	0	32800	32828	
4992	0	32773	32815	
4993	0	32678	32654	
4994	0	32708	32574	
4995	0	32834	32504	
4996	0	32856	32829	
4997	0	32820	32870	
4998	0	32888	32774	
4999	0	32868	32846	
5000	0	32812	32764	
5001	0	32792	32682	
5002	0	32808	32734	
5003	0	32758	32775	
5004	0	32700	32826	
5005	0	32652	32846	
5006	0	32706	32708	
5007	0	32828	32710	
5008	0	32996	32895	
5009	0	32836	32952	
5010	0	32696	32704	
5011	0	32888	32640	
5012	0	32870	32608	
5013	0	32932	32765	
5014	0	32936	32743	
5015	0	32848	32792	
5016	0	32668	32706	
5017	0	32698	32748	
5018	0	32712	32924	
5019	0	32754	32884	
5020	0	32900	32940	
5021	0	32808	32746	
5022	0	32796	32824	
5023	0	32692	32676	
5024	0	32648	32628	
5025	0	32652	32732	
5026	0	32792	32708	
5027	0	32884	32742	
5028	0	33040	32735	
5029	0	33116	32922	
5030	0	32968	32816	
5031	0	32804	32768	
5032	0	32665	32674	
5033	0	32576	32756	
5034	0	32716	32820	
5035	0	32868	32890	
5036	0	32878	32822	
5037	0	32644	32838	
5038	0	32612	32644	
5039	0	32852	32724	
5040	0	32720	32612	
5041	0	32900	32860	
5042	0	32882	32772	
5043	0	32860	32742	
5044	0	32820	32880	
5045	0	32824	32756	
5046	0	32740	32775	
5047	0	32840	32718	
5048	0	32940	32756	
5049	0	32794	32740	
5050	0	32848	32807	
5051	0	32776	32810	
5052	0	32738	32740	
5053	0	32670	32718	
5054	0	32732	32706	
5055	0	32800	32786	
5056	0	32778	32864	
5057	0	32892	32786	
5058	0	32836	32702	
5059	0	32836	32780	
5060	0	32780	32924	
5061	0	32748	32688	
5062	0	32744	32560	
5063	0	32810	32690	
5064	0	32730	32720	
5065	0	32596	33026	
5066	0	32900	33002	
5067	0	32900	32850	
5068	0	32884	32646	
5069	0	32922	32641	
5070	0	32864	32928	
5071	0	32910	32792	
5072	0	32840	32740	
5073	0	32810	32519	
5074	0	32878	32508	
5075	0	32812	32700	
5076	0	32708	32716	
5077	0	32680	32684	
5078	0	32680	32700	
5079	0	32698	32932	
5080	0	32800	32954	
5081	0	32946	32903	
5082	0	32952	32860	
5083	0	32788	32870	
5084	0	32906	32868	
5085	0	32938	32708	
5086	0	32948	32880	
5087	0	32848	32902	
5088	0	32774	32812	
5089	0	32717	32718	
5090	0	32656	32674	
5091	0	32608	32496	
5092	0	32592	32646	
5093	0	32768	32768	
5094	0	32892	32876	
5095	0	32916	32728	
5096	0	32884	32728	
5097	0	32832	32676	
5098	0	32858	32684	
5099	0	32790	32742	
5100	0	32820	32788	
5101	0	32756	32748	
5102	0	32820	32682	
5103	0	32852	32650	
5104	0	32864	32876	
5105	0	32808	32794	
5106	0	32768	32892	
5107	0	32764	32903	
5108	0	32852	32820	
5109	0	32880	32752	
5110	0	32748	32794	
5111	0	32808	32775	
5112	0	32710	32784	
5113	0	32828	32864	
5114	0	32796	32788	
5115	0	32696	32662	
5116	0	32808	32838	
5117	0	32960	32674	
5118	0	33016	32912	
5119	0	32884	32844	
5120	0	32704	32748	
5121	0	32648	32704	
5122	0	32728	32644	
5123	0	32816	32716	
5124	0	32752	32614	
5125	0	32724	32884	
5126	0	32720	32855	
5127	0	33008	32722	
5128	0	33092	32728	
5129	0	33000	32708	
5130	0	32856	32632	
5131	0	32780	32710	
5132	0	32696	32800	
5133	0	32678	32775	
5134	0	32748	32852	
5135	0	32762	32860	
5136	0	32796	32752	
5137	0	32776	32714	
5138	0	32804	32600	
5139	0	32772	32724	
5140	0	32748	32820	
5141	0	32704	32796	
5142	0	32792	32772	
5143	0	32980	32900	
5144	0	32932	32838	
5145	0	32900	32832	
5146	0	32832	32924	
5147	0	32644	32903	
5148	0	32776	32900	
5149	0	32884	32726	
5150	0	33024	32668	
5151	0	32938	32638	
5152	0	32872	32724	
5153	0	32772	32798	
5154	0	32800	32786	
5155	0	32786	32812	
5156	0	32768	32695	
5157	0	32714	32674	
5158	0	32720	32798	
5159	0	32686	32730	
5160	0	32708	32762	
5161	0	32768	32744	
5162	0	32986	32632	
5163	0	32964	32590	
5164	0	32884	32656	
5165	0	32768	32798	
5166	0	32742	32807	
5167	0	32668	32710	
5168	0	32660	32772	
5169	0	32782	32844	
5170	0	32832	32926	
5171	0	32896	32732	
5172	0	32856	32764	
5173	0	32708	32775	
5174	0	32800	32800	
5175	0	32964	32892	
5176	0	32952	32928	
5177	0	32988	32948	
5178	0	32752	33078	
5179	0	32554	32958	
5180	0	32516	32775	
5181	0	32672	32482	
5182	0	32776	32386	
5183	0	32832	32426	
5184	0	32904	32438	
5185	0	32932	32664	
5186	0	33032	32756	
5187	0	32902	32654	
5188	0	32970	32656	
5189	0	32986	32794	
5190	0	32780	32752	
5191	0	32724	32982	
5192	0	32732	32944	
5193	0	32852	32692	
5194	0	32904	32616	
5195	0	32858	32703	
5196	0	32692	32804	
5197	0	32746	32840	
5198	0	32952	32868	
5199	0	32932	32956	
5200	0	32900	33072	
5201	0	32800	32900	
5202	0	32668	32546	
5203	0	32592	32564	
5204	0	32712	32712	
5205	0	32808	32772	
5206	0	32804	32696	
5207	0	32894	32846	
5208	0	32896	32772	
5209	0	32936	32868	
5210	0	32954	32978	
5211	0	32744	32872	
5212	0	32688	32791	
5213	0	32686	32644	
5214	0	32680	32576	
5215	0	32674	32612	
5216	0	32776	32805	
5217	0	32740	32706	
5218	0	32980	32775	
5219	0	33062	32912	
5220	0	32956	32996	
5221	0	32800	32930	
5222	0	32558	32650	
5223	0	32520	32487	
5224	0	32728	32584	
5225	0	32858	32880	
5226	0	32962	32988	
5227	0	32902	32806	
5228	0	32936	32758	
5229	0	32824	32638	
5230	0	32864	32638	
5231	0	32908	32702	
5232	0	33184	32804	
5233	0	33168	32816	
5234	0	32922	32762	
5235	0	32724	32898	
5236	0	32554	32562	
5237	0	32644	32575	
5238	0	32706	32732	
5239	0	32732	32590	
5240	0	32786	32740	
5241	0	32998	32858	
5242	0	32916	32932	
5243	0	32720	32913	
5244	0	32632	32840	
5245	0	32664	32804	
5246	0	32760	32812	
5247	0	32694	32804	
5248	0	32748	32678	
5249	0	32842	32550	
5250	0	33016	32672	
5251	0	33128	32630	
5252	0	32844	32615	
5253	0	32734	32790	
5254	0	32644	32874	
5255	0	32576	32656	
5256	0	32664	32768	
5257	0	32864	32820	
5258	0	33032	32932	
5259	0	33148	32792	
5260	0	33076	32766	
5261	0	32878	32672	
5262	0	32844	32746	
5263	0	32880	32564	
5264	0	32804	32504	
5265	0	32640	32550	
5266	0	32556	32794	
5267	0	32584	32854	
5268	0	32604	32666	
5269	0	32751	32916	
5270	0	32908	33044	
5271	0	32928	33159	
5272	0	32888	33104	
5273	0	32848	32930	
5274	0	32864	32800	
5275	0	32796	32640	
5276	0	32640	32519	
5277	0	32408	32494	
5278	0	32256	32632	
5279	0	32340	32660	
5280	0	32700	32750	
5281	0	32760	32806	
5282	0	32912	32740	
5283	0	33120	32648	
5284	0	33292	32678	
5285	0	33600	32698	
5286	0	33720	32730	
5287	0	33346	32712	
5288	0	32984	32882	
5289	0	32790	32942	
5290	0	32596	32871	
5291	0	32404	32816	
5292	0	32538	32590	
5293	0	32548	32699	
5294	0	32600	32720	
5295	0	32756	32804	
5296	0	32680	32744	
5297	0	32726	32748	
5298	0	32844	32872	
5299	0	32912	32930	
5300	0	32856	32962	
5301	0	32694	32704	
5302	0	32728	32704	
5303	0	32640	32686	
5304	0	32888	32848	
5305	0	33300	32700	
5306	0	33256	32712	
5307	0	32924	32735	
5308	0	32670	32688	
5309	0	32632	32830	
5310	0	32560	32824	
5311	0	32472	32839	
5312	0	32520	32807	
5313	0	32704	32791	
5314	0	32852	32869	
5315	0	32740	32996	
5316	0	32888	32900	
5317	0	33008	32832	
5318	0	33188	32795	
5319	0	33090	32797	
5320	0	32878	32630	
5321	0	32748	32436	
5322	0	32756	32638	
5323	0	32704	32680	
5324	0	32668	32812	
5325	0	32536	32764	
5326	0	32440	32708	
5327	0	32508	32578	
5328	0	32704	32500	
5329	0	32912	32547	
5330	0	32960	32536	
5331	0	33140	32690	
5332	0	33018	33071	
5333	0	33140	33072	
5334	0	32984	32996	
5335	0	33104	32918	
5336	0	33076	32800	
5337	0	32864	32718	
5338	0	32720	32948	
5339	0	32458	32636	
5340	0	32322	32519	
5341	0	32400	32638	
5342	0	32268	32646	
5343	0	32778	32538	
5344	0	33068	32532	
5345	0	33208	32663	
5346	0	33044	33070	
5347	0	33196	33024	
5348	0	33280	33126	
5349	0	32872	32895	
5350	0	32752	32900	
5351	0	32508	33016	
5352	0	32144	32672	
5353	0	32572	32850	
5354	0	32752	32738	
5355	0	32854	32762	
5356	0	32894	32632	
5357	0	32688	32500	
5358	0	32784	32472	
5359	0	32800	32519	
5360	0	32928	32724	
5361	0	32896	32882	
5362	0	32716	32958	
5363	0	32576	32872	
5364	0	32456	33144	
5365	0	32500	33218	
5366	0	32672	33131	
5367	0	32656	32913	
5368	0	32766	32734	
5369	0	32896	32519	
5370	0	32520	32614	
5371	0	32408	32388	
5372	0	32513	32455	
5373	0	32554	32696	
5374	0	32676	32794	
5375	0	32894	32748	
5376	0	33152	32775	
5377	0	33396	32862	
5378	0	33336	32450	
5379	0	33226	32558	
5380	0	33340	32519	
5381	0	33386	32519	
5382	0	33434	32628	
5383	0	33432	32647	
5384	0	33070	32702	
5385	0	32996	32360	
5386	0	33404	32378	
5387	0	33640	32640	
5388	0	33380	32598	
5389	0	33024	32598	
5390	0	32796	32838	
5391	0	32688	32964	
5392	0	32630	33124	
5393	0	32540	33230	
5394	0	32408	33191	
5395	0	32314	33080	
5396	0	32154	32830	
5397	0	32312	32896	
5398	0	32470	32902	
5399	0	32752	32886	
5400	0	32612	32852	
5401	0	32596	32634	
5402	0	33002	32716	
5403	0	33224	32788	
5404	0	33236	32714	
5405	0	32894	32702	
5406	0	32624	32690	
5407	0	32640	32636	
5408	0	32684	32558	
5409	0	32704	32678	
5410	0	32714	32846	
5411	0	32732	32838	
5412	0	32596	33126	
5413	0	32692	33086	
5414	0	32584	32962	
5415	0	32564	33018	
5416	0	32700	32596	
5417	0	32800	32594	
5418	0	32868	32992	
5419	0	32668	32838	
5420	0	32676	32436	
5421	0	32834	32830	
5422	0	32968	32864	
5423	0	33064	32638	
5424	0	33018	32590	
5425	0	32800	32446	
5426	0	32786	32594	
5427	0	32732	32682	
5428	0	32716	32896	
5429	0	32676	32854	
5430	0	32832	32864	
5431	0	32748	32756	
5432	0	32692	32881	
5433	0	32872	32834	
5434	0	33028	33180	
5435	0	32930	33092	
5436	0	32600	32863	
5437	0	32660	32722	
5438	0	32743	32530	
5439	0	32968	32526	
5440	0	32968	32566	
5441	0	32940	32646	
5442	0	32988	32999	
5443	0	33208	33126	
5444	0	32762	32892	
5445	0	32320	32759	
5446	0	32580	32647	
5447	0	32728	32428	
5448	0	32928	32479	
5449	0	33008	32538	
5450	0	32812	32423	
5451	0	32848	32474	
5452	0	33128	32604	
5453	0	33076	32712	
5454	0	32820	32892	
5455	0	32704	32834	
5456	0	32768	32930	
5457	0	32708	32802	
5458	0	32634	32824	
5459	0	32754	32820	
5460	0	32946	32916	
5461	0	32880	32810	
5462	0	32752	32772	
5463	0	32756	33086	
5464	0	32680	32956	
5465	0	32776	32867	
5466	0	32662	32988	
5467	0	32552	32815	
5468	0	32616	32802	
5469	0	32880	32680	
5470	0	33242	32612	
5471	0	33192	32834	
5472	0	32970	32696	
5473	0	32772	32548	
5474	0	32664	32282	
5475	0	32670	32480	
5476	0	32600	32718	
5477	0	32472	32716	
5478	0	32804	33013	
5479	0	32946	32935	
5480	0	32732	32888	
5481	0	32876	32670	
5482	0	32876	32810	
5483	0	32912	32769	
5484	0	33004	32738	
5485	0	32962	32798	
5486	0	32740	32944	
5487	0	32568	32816	
5488	0	32640	32720	
5489	0	32936	32566	
5490	0	33008	32770	
5491	0	32924	32690	
5492	0	32952	32676	
5493	0	32888	32736	
5494	0	32818	32770	
5495	0	32922	32846	
5496	0	32892	32968	
5497	0	32750	32894	
5498	0	32548	32952	
5499	0	32548	33126	
5500	0	32688	32968	
5501	0	32704	32688	
5502	0	32836	32730	
5503	0	32992	32608	
5504	0	33114	32552	
5505	0	33076	32694	
5506	0	32892	32788	
5507	0	32384	32900	
5508	0	32004	32928	
5509	0	32256	32630	
5510	0	32484	32502	
5511	0	33134	32608	
5512	0	33436	32506	
5513	0	33316	32550	
5514	0	33074	32424	
5515	0	32884	32588	
5516	0	32536	32684	
5517	0	32444	32822	
5518	0	32744	32956	
5519	0	32976	32986	
5520	0	33062	32900	
5521	0	33020	32804	
5522	0	32912	32932	
5523	0	32892	32950	
5524	0	32846	32868	
5525	0	32614	32674	
5526	0	32714	32788	
5527	0	32858	32860	
5528	0	32504	32775	
5529	0	32352	32786	
5530	0	32510	33056	
5531	0	32836	33085	
5532	0	33008	33042	
5533	0	33186	32556	
5534	0	33296	32204	
5535	0	33020	32314	
5536	0	32896	32436	
5537	0	32912	32674	
5538	0	32744	32876	
5539	0	32656	32802	
5540	0	32684	33000	
5541	0	32760	32702	
5542	0	32784	32732	
5543	0	32732	32812	
5544	0	32588	32976	
5545	0	32464	33031	
5546	0	32580	32924	
5547	0	32898	33010	
5548	0	32856	33044	
5549	0	33037	32892	
5550	0	32928	32676	
5551	0	32816	32484	
5552	0	32926	32633	
5553	0	32860	32832	
5554	0	32664	32660	
5555	0	32586	32426	
5556	0	32748	32338	
5557	0	32812	32414	
5558	0	32984	32199	
5559	0	33288	32744	
5560	0	32912	33006	
5561	0	32709	32896	
5562	0	32820	32935	
5563	0	32636	32948	
5564	0	32796	32848	
5565	0	33024	32892	
5566	0	33102	32948	
5567	0	32954	32932	
5568	0	32560	32828	
5569	0	32492	32928	
5570	0	32514	32775	
5571	0	32638	32758	
5572	0	32648	32716	
5573	0	32916	32836	
5574	0	33088	32950	
5575	0	33200	32976	
5576	0	32988	32692	
5577	0	32664	32640	
5578	0	32704	32628	
5579	0	32724	32662	
5580	0	32632	32560	
5581	0	32478	32650	
5582	0	32624	32599	
5583	0	32960	32704	
5584	0	33164	32536	
5585	0	33000	32783	
5586	0	32816	33016	
5587	0	32908	32980	
5588	0	32784	32836	
5589	0	32558	32666	
5590	0	32560	32868	
5591	0	33048	32890	
5592	0	32952	32858	
5593	0	32996	32954	
5594	0	33036	32945	
5595	0	32508	33100	
5596	0	32356	33212	
5597	0	32504	32968	
5598	0	32772	32688	
5599	0	32804	32528	
5600	0	33476	32276	
5601	0	33588	32372	
5602	0	33304	32282	
5603	0	32878	32184	
5604	0	32452	32784	
5605	0	32660	32864	
5606	0	32780	32886	
5607	0	32628	32762	
5608	0	32452	32906	
5609	0	32820	32966	
5610	0	33076	32828	
5611	0	32942	32795	
5612	0	32648	32766	
5613	0	32540	32684	
5614	0	32810	32750	
5615	0	32930	32720	
5616	0	32736	32828	
5617	0	32848	32798	
5618	0	32954	32758	
5619	0	32810	32851	
5620	0	32924	32903	
5621	0	33044	32858	
5622	0	32908	32792	
5623	0	33004	32942	
5624	0	33130	32841	
5625	0	32964	32939	
5626	0	32740	32767	
5627	0	32312	32704	
5628	0	32416	32634	
5629	0	32486	32646	
5630	0	32540	32596	
5631	0	32720	32464	
5632	0	33108	32552	
5633	0	32980	32758	
5634	0	32908	32952	
5635	0	33126	32906	
5636	0	33048	32696	
5637	0	33210	32838	
5638	0	33090	32966	
5639	0	32698	32588	
5640	0	32576	32628	
5641	0	32664	32583	
5642	0	32720	32940	
5643	0	32528	32950	
5644	0	32522	32816	
5645	0	32672	33012	
5646	0	32752	32820	
5647	0	32788	32748	
5648	0	32958	32736	
5649	0	32992	32936	
5650	0	32664	32993	
5651	0	32652	32732	
5652	0	32608	32575	
5653	0	32470	32580	
5654	0	32812	32444	
5655	0	33338	32336	
5656	0	33364	32662	
5657	0	33040	32647	
5658	0	32812	32754	
5659	0	32892	32968	
5660	0	32892	32904	
5661	0	32912	32708	
5662	0	32900	32956	
5663	0	32824	32902	
5664	0	32628	32748	
5665	0	32422	32904	
5666	0	32512	32926	
5667	0	32596	32863	
5668	0	32740	32647	
5669	0	32740	32554	
5670	0	33030	32583	
5671	0	33192	32634	
5672	0	32946	32772	
5673	0	32676	33048	
5674	0	32604	32852	
5675	0	32676	32748	
5676	0	32856	32870	
5677	0	32846	32826	
5678	0	32832	32556	
5679	0	32826	32544	
5680	0	32864	32700	
5681	0	32740	32942	
5682	0	32724	32980	
5683	0	33100	32848	
5684	0	33096	32904	
5685	0	32932	32812	
5686	0	32704	32708	
5687	0	32738	32710	
5688	0	32724	32474	
5689	0	32632	32699	
5690	0	32536	32775	
5691	0	32510	32696	
5692	0	32652	32910	
5693	0	32484	33238	
5694	0	32568	33162	
5695	0	33120	32952	
5696	0	33452	32898	
5697	0	33568	32590	
5698	0	33390	32384	
5699	0	32944	32391	
5700	0	32614	32327	
5701	0	32484	32600	
5702	0	32546	32646	
5703	0	32580	32774	
5704	0	32620	32728	
5705	0	32744	32564	
5706	0	32812	32568	
5707	0	32684	33121	
5708	0	32362	33030	
5709	0	32540	33058	
5710	0	32888	32967	
5711	0	32920	32784	
5712	0	33296	32576	
5713	0	33252	32518	
5714	0	32968	32551	
5715	0	32816	32640	
5716	0	32936	32804	
5717	0	32780	32828	
5718	0	32672	32742	
5719	0	32756	32806	
5720	0	32646	32876	
5721	0	32688	33031	
5722	0	32778	33044	
5723	0	32676	32840	
5724	0	32664	32796	
5725	0	32696	32646	
5726	0	32704	32698	
5727	0	33006	32518	
5728	0	33104	32390	
5729	0	33152	32794	
5730	0	33048	32821	
5731	0	32816	32740	
5732	0	32696	32616	
5733	0	32468	32804	
5734	0	32404	32926	
5735	0	32588	32980	
5736	0	33128	32864	
5737	0	33168	32972	
5738	0	32980	32948	
5739	0	32676	33004	
5740	0	32604	33042	
5741	0	32300	33020	
5742	0	32278	32494	
5743	0	32718	32167	
5744	0	33406	32263	
5745	0	33596	32436	
5746	0	33218	32712	
5747	0	32708	32818	
5748	0	32804	33174	
5749	0	32658	33108	
5750	0	32568	32836	
5751	0	32800	32638	
5752	0	32700	32316	
5753	0	32612	32098	
5754	0	32778	32456	
5755	0	32857	32804	
5756	0	32816	32847	
5757	0	32852	32964	
5758	0	32832	33052	
5759	0	32864	32868	
5760	0	33004	32886	
5761	0	32924	32806	
5762	0	32816	32794	
5763	0	32668	32896	
5764	0	32552	32754	
5765	0	32454	32932	
5766	0	32582	32954	
5767	0	32744	32886	
5768	0	33080	32814	
5769	0	33104	32956	
5770	0	33096	33000	
5771	0	32734	32775	
5772	0	32640	32732	
5773	0	32984	32652	
5774	0	32920	32340	
5775	0	32940	32436	
5776	0	32840	32560	
5777	0	32812	32648	
5778	0	32904	32740	
5779	0	32800	32808	
5780	0	32712	32876	
5781	0	32774	32810	
5782	0	32848	32906	
5783	0	32684	32849	
5784	0	32692	32630	
5785	0	32780	32690	
5786	0	32692	32794	
5787	0	32615	33002	
5788	0	32720	32836	
5789	0	32840	32750	
5790	0	32936	32668	
5791	0	32972	32794	
5792	0	32970	32716	
5793	0	32644	32676	
5794	0	32496	32740	
5795	0	32580	32736	
5796	0	32880	32720	
5797	0	33076	32786	
5798	0	33084	32854	
5799	0	32992	32815	
5800	0	32768	32844	
5801	0	32752	32960	
5802	0	32626	32704	
5803	0	32764	32852	
5804	0	32769	32836	
5805	0	32960	32743	
5806	0	32932	32582	
5807	0	32944	32711	
5808	0	32794	32722	
5809	0	33016	32664	
5810	0	33196	32708	
5811	0	32880	32740	
5812	0	32552	32742	
5813	0	32620	32700	
5814	0	32760	32708	
5815	0	32736	32774	
5816	0	32636	32850	
5817	0	32630	32688	
5818	0	32476	32708	
5819	0	32552	32678	
5820	0	32814	32768	
5821	0	33012	32774	
5822	0	33112	32964	
5823	0	32888	32870	
5824	0	32848	32874	
5825	0	33032	32964	
5826	0	33012	32964	
5827	0	32824	32952	
5828	0	32580	32704	
5829	0	32492	32624	
5830	0	32616	32616	
5831	0	32734	32622	
5832	0	33012	32730	
5833	0	33040	32646	
5834	0	33020	32626	
5835	0	32836	32660	
5836	0	32789	32868	
5837	0	32668	32892	
5838	0	32796	32588	
5839	0	32748	32614	
5840	0	32772	32804	
5841	0	32984	32854	
5842	0	32872	32900	
5843	0	32792	32770	
5844	0	32724	32796	
5845	0	32736	32772	
5846	0	32796	32876	
5847	0	32750	32854	
5848	0	32704	32775	
5849	0	32752	33095	
5850	0	32756	32903	
5851	0	32672	32756	
5852	0	32636	32674	
5853	0	32764	32548	
5854	0	32890	32528	
5855	0	32680	32569	
5856	0	32560	32662	
5857	0	32728	32862	
5858	0	33068	32896	
5859	0	33440	33012	
5860	0	33112	32970	
5861	0	32960	32934	
5862	0	32908	32808	
5863	0	32836	32690	
5864	0	32632	32654	
5865	0	32648	32692	
5866	0	32816	32770	
5867	0	32732	32740	
5868	0	32884	32850	
5869	0	32892	32836	
5870	0	32852	32760	
5871	0	32522	32696	
5872	0	32280	32849	
5873	0	32472	32892	
5874	0	32904	33120	
5875	0	32944	33008	
5876	0	33280	32856	
5877	0	33260	32846	
5878	0	32952	32700	
5879	0	32584	32422	
5880	0	32544	32210	
5881	0	32744	32519	
5882	0	32924	32847	
5883	0	32880	32775	
5884	0	32784	32664	
5885	0	32784	32760	
5886	0	32808	32748	
5887	0	32824	32770	
5888	0	32900	32898	
5889	0	32962	32870	
5890	0	32836	32762	
5891	0	32820	32608	
5892	0	32748	32838	
5893	0	32576	32897	
5894	0	32604	32996	
5895	0	32832	33056	
5896	0	32786	33034	
5897	0	32838	32910	
5898	0	32788	32662	
5899	0	32821	32474	
5900	0	32824	32490	
5901	0	32860	32504	
5902	0	32894	32476	
5903	0	32900	32742	
5904	0	32848	32770	
5905	0	32792	32754	
5906	0	32840	33054	
5907	0	32992	32972	
5908	0	32884	32784	
5909	0	32828	32602	
5910	0	32728	32718	
5911	0	32488	32824	
5912	0	32442	32876	
5913	0	32706	33108	
5914	0	33030	32814	
5915	0	33132	32718	
5916	0	33022	32704	
5917	0	32922	32682	
5918	0	32724	32660	
5919	0	32676	32580	
5920	0	32712	32856	
5921	0	32756	32832	
5922	0	32852	32890	
5923	0	32732	32626	
5924	0	32775	32664	
5925	0	32900	32775	
5926	0	32886	32828	
5927	0	32876	32734	
5928	0	32566	32615	
5929	0	32544	32676	
5930	0	32488	32812	
5931	0	32738	32816	
5932	0	32932	32744	
5933	0	33204	32924	
5934	0	33312	32945	
5935	0	33180	32712	
5936	0	32784	32738	
5937	0	32594	32886	
5938	0	32470	32910	
5939	0	32588	32736	
5940	0	32732	32684	
5941	0	32804	32583	
5942	0	32936	32564	
5943	0	32860	32800	
5944	0	32716	32768	
5945	0	32724	32900	
5946	0	32844	32770	
5947	0	32844	32668	
5948	0	32824	32702	
5949	0	32840	32598	
5950	0	32856	32665	
5951	0	32784	32670	
5952	0	33008	32716	
5953	0	32898	32676	
5954	0	33060	32630	
5955	0	33060	32740	
5956	0	32878	33031	
5957	0	32872	32868	
5958	0	32554	32982	
5959	0	32586	32928	
5960	0	32774	32892	
5961	0	32872	32838	
5962	0	32912	32762	
5963	0	32820	32799	
5964	0	32680	32702	
5965	0	32788	32756	
5966	0	32788	32572	
5967	0	32642	32640	
5968	0	32712	32700	
5969	0	32756	32724	
5970	0	32800	32848	
5971	0	32952	32752	
5972	0	32794	32768	
5973	0	32800	32906	
5974	0	32750	32922	
5975	0	32782	32862	
5976	0	32952	32724	
5977	0	32928	32654	
5978	0	32852	32894	
5979	0	32980	32740	
5980	0	32912	32686	
5981	0	32756	32620	
5982	0	32742	32688	
5983	0	32752	32844	
5984	0	32852	32790	
5985	0	32808	32756	
5986	0	32708	32686	
5987	0	32728	32752	
5988	0	32588	32700	
5989	0	32588	32728	
5990	0	32724	32716	
5991	0	32860	32668	
5992	0	33060	32881	
5993	0	32928	33057	
5994	0	32882	33016	
5995	0	32812	32756	
5996	0	32480	32688	
5997	0	32224	32554	
5998	0	32346	32519	
5999	0	32800	32775	
