# OpenSignals Text File Format. Version 1
# {"00:07:80:8C:0A:39": {"position": 0, "device": "biosignalsplux", "device name": "00:07:80:8C:0A:39", "device connection": "BTH00:07:80:8C:0A:39", "sampling rate": 1000, "resolution": [16, 16], "firmware version": 776, "comments": "", "keywords": "", "mode": 0, "sync interval": 2, "date": "2023-3-17", "time": "10:51:47.432", "channels": [1, 2], "sensor": ["EMG", "EMG"], "label": ["CH1", "CH2"], "column": ["nSeq", "DI", "CH1", "CH2"], "special": [{"SpO2": [80, 40, 5, 4, 3, 3]}, {"SpO2": [80, 40, 5, 4, 3, 3]}, {"SpO2": [80, 40, 5, 4, 3, 3]}, {"SpO2": [80, 40, 5, 4, 3, 3]}, {"SpO2": [80, 40, 5, 4, 3, 3]}, {"SpO2": [80, 40, 5, 4, 3, 3]}, {"SpO2": [80, 40, 5, 4, 3, 3]}, {"SpO2": [80, 40, 5, 4, 3, 3]}], "digital IO": [0, 1], "sleeve color": ["gray", "yellow"], "convertedValues": 0}}
# EndOfHeader
0	0	32816	32790	
1	0	32836	32702	
2	0	32812	32836	
3	0	32880	32840	
4	0	32808	32798	
5	0	32768	32716	
6	0	32820	32805	
7	0	32780	32870	
8	0	32836	32906	
9	0	32764	32712	
10	0	32888	32794	
11	0	32790	32856	
12	0	32808	32660	
13	0	32784	32710	
14	0	32853	32830	
15	0	32836	32624	
16	0	32824	32752	
17	0	32782	32774	
18	0	32792	32666	
19	0	32788	32748	
20	0	32824	32711	
21	0	32840	32796	
22	0	32792	32795	
23	0	32828	32807	
24	0	32820	32830	
25	0	32780	32691	
26	0	32864	32836	
27	0	32804	32849	
28	0	32756	32788	
29	0	32856	32775	
30	0	32744	32727	
31	0	32828	32767	
32	0	32828	32826	
33	0	32828	32692	
34	0	32836	32758	
35	0	32856	32682	
36	0	32804	32734	
37	0	32805	32686	
38	0	32796	32743	
39	0	32832	32807	
40	0	32804	32647	
41	0	32834	32714	
42	0	32816	32771	
43	0	32846	32730	
44	0	32842	32760	
45	0	32858	32734	
46	0	32796	32832	
47	0	32780	32718	
48	0	32796	32844	
49	0	32828	32760	
50	0	32808	32775	
51	0	32822	32748	
52	0	32764	32684	
53	0	32840	32786	
54	0	32810	32720	
55	0	32824	32668	
56	0	32764	32750	
57	0	32806	32725	
58	0	32792	32718	
59	0	32800	32728	
60	0	32832	32736	
61	0	32882	32824	
62	0	32794	32775	
63	0	32834	32716	
64	0	32756	32850	
65	0	32860	32838	
66	0	32816	32799	
67	0	32826	32816	
68	0	32804	32820	
69	0	32818	32719	
70	0	32784	32812	
71	0	32784	32775	
72	0	32810	32742	
73	0	32786	32668	
74	0	32740	32762	
75	0	32776	32693	
76	0	32728	32792	
77	0	32792	32724	
78	0	32844	32767	
79	0	32858	32743	
80	0	32820	32684	
81	0	32800	32814	
82	0	32838	32804	
83	0	32846	32680	
84	0	32802	32858	
85	0	32808	32806	
86	0	32832	32740	
87	0	32808	32835	
88	0	32856	32860	
89	0	32754	32710	
90	0	32772	32832	
91	0	32804	32758	
92	0	32840	32693	
93	0	32752	32742	
94	0	32854	32672	
95	0	32814	32806	
96	0	32830	32768	
97	0	32834	32732	
98	0	32780	32756	
99	0	32780	32768	
100	0	32780	32774	
101	0	32816	32748	
102	0	32840	32810	
103	0	32812	32775	
104	0	32828	32710	
105	0	32774	32726	
106	0	32812	32722	
107	0	32793	32738	
108	0	32784	32634	
109	0	32856	32772	
110	0	32784	32712	
111	0	32768	32828	
112	0	32768	32804	
113	0	32748	32732	
114	0	32726	32767	
115	0	32746	32664	
116	0	32772	32711	
117	0	32800	32686	
118	0	32732	32718	
119	0	32746	32775	
120	0	32750	32647	
121	0	32716	32666	
122	0	32736	32622	
123	0	32682	32746	
124	0	32784	32775	
125	0	32740	32748	
126	0	32777	32694	
127	0	32772	32583	
128	0	32842	32708	
129	0	32840	32758	
130	0	32798	32679	
131	0	32788	32742	
132	0	32852	32655	
133	0	32926	32719	
134	0	32912	32757	
135	0	32896	32870	
136	0	32970	32791	
137	0	32870	32910	
138	0	33036	32866	
139	0	32966	32832	
140	0	33020	32840	
141	0	32992	32902	
142	0	32986	32874	
143	0	32980	32902	
144	0	32902	32870	
145	0	32892	32932	
146	0	32876	32903	
147	0	32868	32736	
148	0	32836	32844	
149	0	32812	32888	
150	0	32844	32775	
151	0	32840	32924	
152	0	32832	32916	
153	0	32804	32895	
154	0	32792	32732	
155	0	32802	32903	
156	0	32688	32772	
157	0	32748	32582	
158	0	32708	32807	
159	0	32708	32740	
160	0	32804	32622	
161	0	32676	32764	
162	0	32666	32743	
163	0	32712	32700	
164	0	32744	32737	
165	0	32798	32786	
166	0	32780	32732	
167	0	32814	32679	
168	0	32780	32702	
169	0	32844	32775	
170	0	32744	32696	
171	0	32812	32788	
172	0	32828	32760	
173	0	32788	32814	
174	0	32746	32652	
175	0	32828	32786	
176	0	32908	32684	
177	0	32836	32662	
178	0	32770	32805	
179	0	32848	32775	
180	0	32828	32808	
181	0	32768	32839	
182	0	32872	32838	
183	0	32856	32749	
184	0	32744	32753	
185	0	32856	32862	
186	0	32868	32668	
187	0	32776	32842	
188	0	32770	32738	
189	0	32816	32775	
190	0	32824	32745	
191	0	32832	32831	
192	0	32778	32730	
193	0	32828	32743	
194	0	32788	32696	
195	0	32816	32789	
196	0	32866	32732	
197	0	32820	32788	
198	0	32834	32746	
199	0	32786	32740	
200	0	32832	32871	
201	0	32796	32676	
202	0	32812	32768	
203	0	32778	32766	
204	0	32840	32718	
205	0	32800	32770	
206	0	32788	32760	
207	0	32812	32738	
208	0	32788	32754	
209	0	32760	32775	
210	0	32808	32812	
211	0	32784	32694	
212	0	32864	32772	
213	0	32866	32722	
214	0	32820	32638	
215	0	32812	32812	
216	0	32828	32775	
217	0	32834	32742	
218	0	32828	32792	
219	0	32742	32602	
220	0	32808	32770	
221	0	32840	32714	
222	0	32818	32800	
223	0	32816	32790	
224	0	32824	32868	
225	0	32844	32727	
226	0	32832	32828	
227	0	32792	32718	
228	0	32740	32824	
229	0	32840	32820	
230	0	32828	32688	
231	0	32808	32771	
232	0	32810	32794	
233	0	32844	32724	
234	0	32856	32814	
235	0	32856	32760	
236	0	32774	32708	
237	0	32750	32763	
238	0	32856	32775	
239	0	32816	32655	
240	0	32800	32762	
241	0	32834	32787	
242	0	32782	32768	
243	0	32820	32698	
244	0	32854	32711	
245	0	32802	32672	
246	0	32796	32814	
247	0	32812	32775	
248	0	32800	32706	
249	0	32836	32826	
250	0	32856	32838	
251	0	32798	32666	
252	0	32752	32775	
253	0	32814	32736	
254	0	32796	32664	
255	0	32801	32852	
256	0	32826	32820	
257	0	32852	32775	
258	0	32782	32820	
259	0	32788	32834	
260	0	32836	32828	
261	0	32794	32815	
262	0	32836	32736	
263	0	32852	32788	
264	0	32768	32775	
265	0	32824	32696	
266	0	32788	32758	
267	0	32812	32772	
268	0	32816	32634	
269	0	32820	32692	
270	0	32800	32645	
271	0	32852	32816	
272	0	32818	32748	
273	0	32776	32675	
274	0	32844	32801	
275	0	32786	32806	
276	0	32824	32656	
277	0	32852	32768	
278	0	32836	32775	
279	0	32820	32760	
280	0	32864	32772	
281	0	32792	32708	
282	0	32806	32670	
283	0	32796	32763	
284	0	32782	32775	
285	0	32808	32872	
286	0	32802	32800	
287	0	32840	32807	
288	0	32732	32722	
289	0	32812	32810	
290	0	32816	32808	
291	0	32856	32705	
292	0	32808	32814	
293	0	32772	32748	
294	0	32748	32682	
295	0	32809	32858	
296	0	32864	32794	
297	0	32870	32640	
298	0	32856	32742	
299	0	32808	32825	
300	0	32774	32703	
301	0	32796	32832	
302	0	32804	32792	
303	0	32808	32742	
304	0	32804	32774	
305	0	32762	32834	
306	0	32876	32764	
307	0	32804	32868	
308	0	32778	32756	
309	0	32869	32802	
310	0	32810	32782	
311	0	32822	32754	
312	0	32796	32668	
313	0	32800	32831	
314	0	32828	32820	
315	0	32864	32742	
316	0	32760	32773	
317	0	32766	32679	
318	0	32840	32743	
319	0	32852	32853	
320	0	32810	32740	
321	0	32808	32775	
322	0	32814	32804	
323	0	32788	32748	
324	0	32836	32746	
325	0	32800	32761	
326	0	32876	32680	
327	0	32888	32830	
328	0	32775	32862	
329	0	32806	32727	
330	0	32808	32804	
331	0	32796	32680	
332	0	32836	32806	
333	0	32836	32872	
334	0	32852	32736	
335	0	32822	32790	
336	0	32800	32774	
337	0	32812	32692	
338	0	32806	32900	
339	0	32804	32799	
340	0	32810	32640	
341	0	32774	32768	
342	0	32844	32712	
343	0	32800	32792	
344	0	32824	32763	
345	0	32772	32788	
346	0	32774	32775	
347	0	32884	32794	
348	0	32880	32770	
349	0	32804	32768	
350	0	32760	32806	
351	0	32804	32736	
352	0	32793	32678	
353	0	32756	32592	
354	0	32828	32708	
355	0	32916	32660	
356	0	32856	32812	
357	0	32832	32670	
358	0	32780	32828	
359	0	32848	32810	
360	0	32810	32634	
361	0	32800	32759	
362	0	32856	32775	
363	0	32860	32824	
364	0	32768	32772	
365	0	32776	32804	
366	0	32858	32789	
367	0	32801	32744	
368	0	32796	32805	
369	0	32846	32784	
370	0	32860	32676	
371	0	32820	32725	
372	0	32897	32736	
373	0	32784	32711	
374	0	32782	32820	
375	0	32800	32753	
376	0	32742	32754	
377	0	32820	32801	
378	0	32836	32793	
379	0	32802	32708	
380	0	32810	32718	
381	0	32880	32850	
382	0	32796	32775	
383	0	32762	32712	
384	0	32852	32802	
385	0	32820	32864	
386	0	32796	32754	
387	0	32868	32802	
388	0	32802	32686	
389	0	32848	32823	
390	0	32894	32794	
391	0	32798	32742	
392	0	32792	32775	
393	0	32836	32745	
394	0	32756	32666	
395	0	32792	32724	
396	0	32822	32794	
397	0	32782	32723	
398	0	32804	32894	
399	0	32848	32824	
400	0	32836	32702	
401	0	32740	32768	
402	0	32800	32775	
403	0	32834	32852	
404	0	32812	32807	
405	0	32864	32704	
406	0	32804	32852	
407	0	32748	32704	
408	0	32854	32769	
409	0	32798	32820	
410	0	32838	32725	
411	0	32806	32759	
412	0	32780	32738	
413	0	32824	32788	
414	0	32816	32734	
415	0	32780	32660	
416	0	32772	32871	
417	0	32770	32814	
418	0	32832	32742	
419	0	32816	32734	
420	0	32856	32726	
421	0	32764	32799	
422	0	32837	32732	
423	0	32788	32732	
424	0	32800	32803	
425	0	32794	32720	
426	0	32800	32834	
427	0	32692	32934	
428	0	32776	32849	
429	0	32752	32766	
430	0	32820	32618	
431	0	32748	32788	
432	0	32874	32806	
433	0	32800	32700	
434	0	32848	32788	
435	0	32868	32616	
436	0	32810	32775	
437	0	32866	32820	
438	0	32786	32702	
439	0	32836	32774	
440	0	32720	32712	
441	0	32802	32786	
442	0	32804	32838	
443	0	32796	32740	
444	0	32794	32750	
445	0	32760	32775	
446	0	32810	32794	
447	0	32788	32770	
448	0	32824	32805	
449	0	32792	32814	
450	0	32811	32660	
451	0	32789	32756	
452	0	32852	32730	
453	0	32852	32775	
454	0	32784	32816	
455	0	32854	32721	
456	0	32756	32658	
457	0	32772	32664	
458	0	32852	32775	
459	0	32840	32792	
460	0	32788	32723	
461	0	32840	32800	
462	0	32836	32756	
463	0	32784	32855	
464	0	32714	32720	
465	0	32824	32756	
466	0	32768	32836	
467	0	32826	32828	
468	0	32832	32696	
469	0	32828	32775	
470	0	32836	32688	
471	0	32788	32830	
472	0	32876	32815	
473	0	32820	32732	
474	0	32847	32754	
475	0	32800	32688	
476	0	32816	32722	
477	0	32865	32802	
478	0	32776	32790	
479	0	32780	32895	
480	0	32808	32812	
481	0	32856	32730	
482	0	32856	32696	
483	0	32725	32739	
484	0	32744	32816	
485	0	32804	32788	
486	0	32856	32724	
487	0	32794	32836	
488	0	32756	32788	
489	0	32782	32718	
490	0	32812	32738	
491	0	32814	32654	
492	0	32822	32772	
493	0	32832	32830	
494	0	32730	32724	
495	0	32801	32738	
496	0	32804	32884	
497	0	32856	32775	
498	0	32780	32802	
499	0	32836	32724	
500	0	32808	32807	
501	0	32844	32826	
502	0	32799	32788	
503	0	32808	32806	
504	0	32750	32842	
505	0	32748	32799	
506	0	32812	32704	
507	0	32874	32849	
508	0	32828	32796	
509	0	32842	32847	
510	0	32830	32775	
511	0	32772	32647	
512	0	32800	32712	
513	0	32826	32709	
514	0	32847	32754	
515	0	32844	32766	
516	0	32808	32710	
517	0	32816	32724	
518	0	32776	32647	
519	0	32768	32821	
520	0	32740	32655	
521	0	32832	32722	
522	0	32800	32722	
523	0	32754	32774	
524	0	32816	32769	
525	0	32836	32741	
526	0	32808	32806	
527	0	32848	32799	
528	0	32760	32786	
529	0	32816	32723	
530	0	32768	32860	
531	0	32846	32802	
532	0	32788	32810	
533	0	32856	32749	
534	0	32792	32848	
535	0	32824	32811	
536	0	32832	32742	
537	0	32832	32742	
538	0	32824	32725	
539	0	32844	32794	
540	0	32808	32719	
541	0	32788	32845	
542	0	32792	32707	
543	0	32764	32772	
544	0	32856	32775	
545	0	32832	32808	
546	0	32796	32808	
547	0	32770	32849	
548	0	32828	32818	
549	0	32820	32753	
550	0	32788	32740	
551	0	32808	32646	
552	0	32742	32700	
553	0	32798	32721	
554	0	32740	32746	
555	0	32768	32846	
556	0	32792	32792	
557	0	32844	32748	
558	0	32824	32822	
559	0	32856	32734	
560	0	32786	32762	
561	0	32840	32766	
562	0	32788	32788	
563	0	32855	32775	
564	0	32800	32836	
565	0	32848	32858	
566	0	32834	32926	
567	0	32820	32720	
568	0	32784	32872	
569	0	32792	32900	
570	0	32876	32732	
571	0	32784	32702	
572	0	32832	32647	
573	0	32772	32764	
574	0	32758	32705	
575	0	32852	32705	
576	0	32826	32731	
577	0	32760	32732	
578	0	32772	32647	
579	0	32744	32727	
580	0	32854	32686	
581	0	32812	32748	
582	0	32818	32728	
583	0	32878	32765	
584	0	32768	32743	
585	0	32833	32660	
586	0	32796	32796	
587	0	32874	32828	
588	0	32775	32696	
589	0	32832	32668	
590	0	32800	32687	
591	0	32800	32803	
592	0	32768	32644	
593	0	32824	32682	
594	0	32844	32647	
595	0	32790	32624	
596	0	32812	32686	
597	0	32856	32642	
598	0	32802	32729	
599	0	32782	32756	
600	0	32796	32738	
601	0	32832	32660	
602	0	32800	32634	
603	0	32748	32740	
604	0	32836	32744	
605	0	32784	32786	
606	0	32810	32840	
607	0	32824	32735	
608	0	32856	32815	
609	0	32796	32798	
610	0	32836	32688	
611	0	32816	32792	
612	0	32836	32670	
613	0	32764	32734	
614	0	32758	32724	
615	0	32860	32743	
616	0	32768	32834	
617	0	32828	32700	
618	0	32836	32839	
619	0	32804	32656	
620	0	32824	32846	
621	0	32840	32902	
622	0	32822	32820	
623	0	32794	32736	
624	0	32808	32824	
625	0	32816	32878	
626	0	32894	32752	
627	0	32810	32818	
628	0	32864	32759	
629	0	32800	32713	
630	0	32753	32704	
631	0	32818	32678	
632	0	32796	32866	
633	0	32752	32758	
634	0	32800	32810	
635	0	32794	32775	
636	0	32792	32647	
637	0	32796	32724	
638	0	32848	32734	
639	0	32810	32816	
640	0	32776	32855	
641	0	32808	32772	
642	0	32736	32756	
643	0	32848	32708	
644	0	32834	32775	
645	0	32902	32630	
646	0	32874	32751	
647	0	32786	32766	
648	0	32830	32836	
649	0	32804	32862	
650	0	32790	32647	
651	0	32852	32665	
652	0	32856	32758	
653	0	32820	32836	
654	0	32804	32830	
655	0	32784	32756	
656	0	32740	32738	
657	0	32775	32735	
658	0	32842	32775	
659	0	32833	32710	
660	0	32760	32824	
661	0	32820	32818	
662	0	32784	32808	
663	0	32792	32766	
664	0	32808	32680	
665	0	32788	32766	
666	0	32824	32852	
667	0	32840	32732	
668	0	32844	32730	
669	0	32812	32737	
670	0	32794	32802	
671	0	32740	32862	
672	0	32804	32796	
673	0	32838	32690	
674	0	32804	32762	
675	0	32810	32854	
676	0	32856	32814	
677	0	32814	32711	
678	0	32784	32796	
679	0	32826	32647	
680	0	32816	32727	
681	0	32830	32706	
682	0	32856	32807	
683	0	32798	32826	
684	0	32800	32751	
685	0	32858	32836	
686	0	32756	32702	
687	0	32776	32720	
688	0	32766	32728	
689	0	32836	32807	
690	0	32932	32768	
691	0	32768	32654	
692	0	32828	32740	
693	0	32808	32878	
694	0	32890	32775	
695	0	32768	32758	
696	0	32844	32696	
697	0	32798	32775	
698	0	32794	32775	
699	0	32806	32682	
700	0	32745	32735	
701	0	32858	32663	
702	0	32800	32807	
703	0	32856	32818	
704	0	32836	32692	
705	0	32748	32746	
706	0	32768	32734	
707	0	32836	32775	
708	0	32806	32692	
709	0	32732	32864	
710	0	32788	32844	
711	0	32760	32687	
712	0	32802	32808	
713	0	32752	32804	
714	0	32803	32775	
715	0	32810	32703	
716	0	32840	32711	
717	0	32840	32769	
718	0	32742	32775	
719	0	32784	32730	
720	0	32836	32807	
721	0	32812	32742	
722	0	32760	32756	
723	0	32830	32798	
724	0	32828	32663	
725	0	32813	32816	
726	0	32820	32879	
727	0	32828	32758	
728	0	32812	32814	
729	0	32816	32806	
730	0	32788	32630	
731	0	32796	32751	
732	0	32800	32754	
733	0	32806	32722	
734	0	32850	32788	
735	0	32852	32706	
736	0	32804	32688	
737	0	32852	32804	
738	0	32820	32860	
739	0	32846	32767	
740	0	32804	32728	
741	0	32792	32775	
742	0	32864	32742	
743	0	32876	32720	
744	0	32788	32716	
745	0	32788	32784	
746	0	32876	32811	
747	0	32836	32866	
748	0	32768	32775	
749	0	32806	32692	
750	0	32804	32745	
751	0	32776	32674	
752	0	32826	32764	
753	0	32860	32780	
754	0	32828	32754	
755	0	32792	32746	
756	0	32828	32647	
757	0	32816	32742	
758	0	32788	32706	
759	0	32844	32830	
760	0	32848	32775	
761	0	32828	32692	
762	0	32744	32835	
763	0	32832	32823	
764	0	32766	32655	
765	0	32849	32810	
766	0	32756	32882	
767	0	32748	32728	
768	0	32846	32820	
769	0	32804	32839	
770	0	32824	32787	
771	0	32856	32710	
772	0	32860	32724	
773	0	32828	32724	
774	0	32804	32785	
775	0	32788	32655	
776	0	32768	32774	
777	0	32866	32855	
778	0	32840	32796	
779	0	32764	32748	
780	0	32802	32767	
781	0	32736	32704	
782	0	32788	32730	
783	0	32788	32724	
784	0	32820	32828	
785	0	32828	32766	
786	0	32776	32716	
787	0	32822	32804	
788	0	32778	32696	
789	0	32828	32739	
790	0	32840	32844	
791	0	32778	32742	
792	0	32744	32799	
793	0	32836	32624	
794	0	32754	32762	
795	0	32832	32826	
796	0	32832	32684	
797	0	32830	32770	
798	0	32858	32682	
799	0	32816	32816	
800	0	32746	32792	
801	0	32808	32738	
802	0	32848	32760	
803	0	32794	32734	
804	0	32834	32711	
805	0	32784	32800	
806	0	32756	32871	
807	0	32800	32807	
808	0	32812	32775	
809	0	32800	32692	
810	0	32808	32801	
811	0	32790	32826	
812	0	32852	32674	
813	0	32832	32846	
814	0	32913	32750	
815	0	32874	32772	
816	0	32780	32827	
817	0	32760	32832	
818	0	32780	32660	
819	0	32828	32759	
820	0	32848	32720	
821	0	32868	32722	
822	0	32804	32796	
823	0	32804	32751	
824	0	32824	32818	
825	0	32814	32826	
826	0	32840	32620	
827	0	32760	32839	
828	0	32808	32775	
829	0	32828	32716	
830	0	32788	32700	
831	0	32786	32706	
832	0	32760	32788	
833	0	32746	32751	
834	0	32868	32814	
835	0	32804	32726	
836	0	32840	32715	
837	0	32836	32742	
838	0	32842	32684	
839	0	32828	32775	
840	0	32824	32794	
841	0	32772	32734	
842	0	32800	32775	
843	0	32828	32756	
844	0	32884	32806	
845	0	32912	32828	
846	0	32774	32890	
847	0	32818	32866	
848	0	32740	32717	
849	0	32812	32860	
850	0	32810	32760	
851	0	32814	32620	
852	0	32862	32846	
853	0	32848	32844	
854	0	32828	32775	
855	0	32736	32774	
856	0	32780	32774	
857	0	32834	32740	
858	0	32858	32728	
859	0	32804	32730	
860	0	32868	32775	
861	0	32818	32881	
862	0	32876	32818	
863	0	32888	32830	
864	0	32808	32733	
865	0	32766	32822	
866	0	32714	32788	
867	0	32760	32918	
868	0	32784	32775	
869	0	32798	32775	
870	0	32864	32882	
871	0	32796	32924	
872	0	32775	32735	
873	0	32794	32784	
874	0	32824	32636	
875	0	32828	32695	
876	0	32888	32636	
877	0	32782	32664	
878	0	32880	32702	
879	0	32806	32775	
880	0	32824	32728	
881	0	32780	32810	
882	0	32810	32816	
883	0	32785	32708	
884	0	32784	32640	
885	0	32844	32768	
886	0	32792	32854	
887	0	32774	32743	
888	0	32788	32868	
889	0	32822	32863	
890	0	32785	32715	
891	0	32880	32744	
892	0	32872	32725	
893	0	32776	32806	
894	0	32786	32852	
895	0	32814	32728	
896	0	32820	32770	
897	0	32860	32668	
898	0	32776	32816	
899	0	32796	32790	
900	0	32780	32719	
901	0	32770	32743	
902	0	32760	32826	
903	0	32764	32680	
904	0	32820	32702	
905	0	32760	32774	
906	0	32776	32678	
907	0	32768	32702	
908	0	32776	32730	
909	0	32760	32794	
910	0	32784	32652	
911	0	32736	32644	
912	0	32760	32679	
913	0	32728	32759	
914	0	32708	32610	
915	0	32832	32608	
916	0	32788	32639	
917	0	32868	32624	
918	0	32848	32836	
919	0	32764	32663	
920	0	32752	32682	
921	0	32784	32775	
922	0	32846	32775	
923	0	32898	32718	
924	0	32868	32670	
925	0	32875	32858	
926	0	32984	32891	
927	0	32958	32775	
928	0	32936	32775	
929	0	32940	32792	
930	0	32960	32870	
931	0	32940	32900	
932	0	33020	32716	
933	0	32988	32876	
934	0	32908	32930	
935	0	32880	32834	
936	0	32868	32892	
937	0	32876	32903	
938	0	32828	32806	
939	0	32856	32918	
940	0	32808	32808	
941	0	32884	33031	
942	0	32864	33039	
943	0	32856	32910	
944	0	32730	32836	
945	0	32654	32788	
946	0	32740	32920	
947	0	32672	32884	
948	0	32688	32698	
949	0	32676	32775	
950	0	32668	32686	
951	0	32662	32770	
952	0	32760	32722	
953	0	32760	32628	
954	0	32704	32647	
955	0	32737	32642	
956	0	32746	32816	
957	0	32852	32670	
958	0	32840	32740	
959	0	32818	32756	
960	0	32780	32703	
961	0	32886	32615	
962	0	32736	32665	
963	0	32752	32788	
964	0	32813	32696	
965	0	32838	32788	
966	0	32792	32754	
967	0	32852	32807	
968	0	32824	32862	
969	0	32768	32788	
970	0	32816	32846	
971	0	32894	32822	
972	0	32884	32864	
973	0	32880	32772	
974	0	32900	32728	
975	0	32800	32719	
976	0	32808	32768	
977	0	32780	32647	
978	0	32808	32794	
979	0	32832	32810	
980	0	32828	32718	
981	0	32800	32810	
982	0	32836	32918	
983	0	32812	32834	
984	0	32772	32791	
985	0	32896	32706	
986	0	32772	32732	
987	0	32828	32706	
988	0	32824	32743	
989	0	32804	32654	
990	0	32798	32768	
991	0	32784	32620	
992	0	32864	32748	
993	0	32772	32734	
994	0	32836	32664	
995	0	32904	32723	
996	0	32778	32672	
997	0	32774	32808	
998	0	32864	32806	
999	0	32870	32698	
1000	0	32800	32916	
1001	0	32798	32847	
1002	0	32836	32794	
1003	0	32768	32800	
1004	0	32820	32809	
1005	0	32844	32740	
1006	0	32814	32887	
1007	0	32725	32714	
1008	0	32800	32828	
1009	0	32846	32810	
1010	0	32782	32775	
1011	0	32824	32679	
1012	0	32788	32748	
1013	0	32824	32720	
1014	0	32852	32847	
1015	0	32830	32758	
1016	0	32824	32760	
1017	0	32862	32793	
1018	0	32816	32673	
1019	0	32864	32771	
1020	0	32760	32729	
1021	0	32796	32775	
1022	0	32864	32679	
1023	0	32852	32858	
1024	0	32814	32827	
1025	0	32784	32686	
1026	0	32732	32796	
1027	0	32806	32768	
1028	0	32790	32692	
1029	0	32774	32722	
1030	0	32846	32775	
1031	0	32750	32806	
1032	0	32760	32683	
1033	0	32764	32834	
1034	0	32838	32750	
1035	0	32800	32790	
1036	0	32846	32762	
1037	0	32854	32805	
1038	0	32788	32784	
1039	0	32772	32748	
1040	0	32807	32824	
1041	0	32820	32700	
1042	0	32904	32694	
1043	0	32820	32716	
1044	0	32816	32758	
1045	0	32814	32860	
1046	0	32828	32806	
1047	0	32776	32814	
1048	0	32858	32800	
1049	0	32784	32750	
1050	0	32840	32775	
1051	0	32846	32816	
1052	0	32822	32798	
1053	0	32788	32670	
1054	0	32824	32718	
1055	0	32792	32700	
1056	0	32810	32839	
1057	0	32729	32708	
1058	0	32810	32775	
1059	0	32820	32613	
1060	0	32816	32775	
1061	0	32872	32678	
1062	0	32798	32824	
1063	0	32760	32815	
1064	0	32832	32775	
1065	0	32846	32838	
1066	0	32828	32815	
1067	0	32736	32807	
1068	0	32830	32672	
1069	0	32836	32822	
1070	0	32810	32746	
1071	0	32826	32752	
1072	0	32736	32764	
1073	0	32818	32652	
1074	0	32922	32740	
1075	0	32760	32750	
1076	0	32780	32775	
1077	0	32832	32696	
1078	0	32804	32748	
1079	0	32808	32796	
1080	0	32812	32808	
1081	0	32804	32924	
1082	0	32806	32868	
1083	0	32796	32799	
1084	0	32842	32810	
1085	0	32823	32820	
1086	0	32872	32714	
1087	0	32788	32742	
1088	0	32848	32696	
1089	0	32824	32850	
1090	0	32772	32824	
1091	0	32820	32682	
1092	0	32800	32775	
1093	0	32776	32640	
1094	0	32772	32831	
1095	0	32816	32746	
1096	0	32832	32775	
1097	0	32800	32806	
1098	0	32836	32653	
1099	0	32744	32747	
1100	0	32822	32696	
1101	0	32778	32796	
1102	0	32808	32689	
1103	0	32822	32804	
1104	0	32820	32772	
1105	0	32778	32792	
1106	0	32868	32773	
1107	0	32856	32775	
1108	0	32832	32823	
1109	0	32824	32708	
1110	0	32780	32812	
1111	0	32808	32746	
1112	0	32806	32772	
1113	0	32764	32804	
1114	0	32790	32660	
1115	0	32740	32740	
1116	0	32800	32831	
1117	0	32738	32792	
1118	0	32748	32692	
1119	0	32840	32703	
1120	0	32856	32876	
1121	0	32870	32836	
1122	0	32822	32668	
1123	0	32864	32732	
1124	0	32892	32760	
1125	0	32846	32932	
1126	0	32770	32775	
1127	0	32804	32844	
1128	0	32848	32786	
1129	0	32832	32824	
1130	0	32812	32734	
1131	0	32824	32686	
1132	0	32844	32736	
1133	0	32812	32730	
1134	0	32722	32724	
1135	0	32868	32766	
1136	0	32828	32680	
1137	0	32852	32760	
1138	0	32736	32796	
1139	0	32864	32792	
1140	0	32816	32703	
1141	0	32784	32700	
1142	0	32836	32741	
1143	0	32834	32839	
1144	0	32784	32816	
1145	0	32826	32815	
1146	0	32808	32775	
1147	0	32806	32862	
1148	0	32804	32792	
1149	0	32764	32712	
1150	0	32904	32730	
1151	0	32828	32652	
1152	0	32832	32756	
1153	0	32858	32719	
1154	0	32830	32848	
1155	0	32868	32799	
1156	0	32852	32800	
1157	0	32844	32852	
1158	0	32804	32678	
1159	0	32812	32770	
1160	0	32788	32734	
1161	0	32812	32775	
1162	0	32834	32728	
1163	0	32798	32871	
1164	0	32784	32804	
1165	0	32720	32722	
1166	0	32885	32815	
1167	0	32774	32842	
1168	0	32842	32818	
1169	0	32852	32750	
1170	0	32828	32720	
1171	0	32812	32764	
1172	0	32840	32704	
1173	0	32798	32762	
1174	0	32748	32760	
1175	0	32822	32688	
1176	0	32800	32752	
1177	0	32786	32684	
1178	0	32768	32852	
1179	0	32736	32788	
1180	0	32814	32790	
1181	0	32836	32766	
1182	0	32804	32740	
1183	0	32824	32768	
1184	0	32840	32715	
1185	0	32868	32833	
1186	0	32842	32708	
1187	0	32824	32903	
1188	0	32802	32760	
1189	0	32756	32754	
1190	0	32804	32795	
1191	0	32756	32695	
1192	0	32828	32684	
1193	0	32752	32639	
1194	0	32852	32750	
1195	0	32896	32855	
1196	0	32741	32726	
1197	0	32860	32775	
1198	0	32852	32775	
1199	0	32756	32784	
1200	0	32774	32816	
1201	0	32778	32769	
1202	0	32750	32745	
1203	0	32800	32658	
1204	0	32763	32770	
1205	0	32792	32720	
1206	0	32848	32708	
1207	0	32816	32706	
1208	0	32852	32774	
1209	0	32852	32804	
1210	0	32846	32917	
1211	0	32820	32712	
1212	0	32832	32654	
1213	0	32780	32775	
1214	0	32828	32766	
1215	0	32724	32810	
1216	0	32812	32774	
1217	0	32838	32756	
1218	0	32884	32802	
1219	0	32784	32696	
1220	0	32804	32736	
1221	0	32804	32647	
1222	0	32836	32756	
1223	0	32794	32750	
1224	0	32754	32750	
1225	0	32775	32810	
1226	0	32780	32701	
1227	0	32782	32799	
1228	0	32794	32738	
1229	0	32776	32816	
1230	0	32774	32775	
1231	0	32864	32798	
1232	0	32804	32800	
1233	0	32869	32794	
1234	0	32728	32666	
1235	0	32822	32804	
1236	0	32838	32716	
1237	0	32816	32815	
1238	0	32822	32750	
1239	0	32840	32806	
1240	0	32788	32698	
1241	0	32852	32652	
1242	0	32836	32831	
1243	0	32782	32678	
1244	0	32810	32828	
1245	0	32768	32800	
1246	0	32828	32794	
1247	0	32850	32736	
1248	0	32794	32802	
1249	0	32764	32775	
1250	0	32806	32780	
1251	0	32888	32836	
1252	0	32840	32740	
1253	0	32752	32762	
1254	0	32804	32724	
1255	0	32812	32738	
1256	0	32828	32728	
1257	0	32812	32870	
1258	0	32880	32830	
1259	0	32868	32826	
1260	0	32760	32712	
1261	0	32784	32826	
1262	0	32788	32722	
1263	0	32832	32894	
1264	0	32908	32756	
1265	0	32788	32742	
1266	0	32784	32750	
1267	0	32812	32903	
1268	0	32824	32831	
1269	0	32768	32852	
1270	0	32824	32772	
1271	0	32816	32772	
1272	0	32858	32812	
1273	0	32816	32750	
1274	0	32848	32798	
1275	0	32830	32756	
1276	0	32804	32810	
1277	0	32757	32711	
1278	0	32775	32759	
1279	0	32762	32662	
1280	0	32852	32732	
1281	0	32864	32804	
1282	0	32812	32751	
1283	0	32852	32790	
1284	0	32824	32748	
1285	0	32832	32897	
1286	0	32804	32816	
1287	0	32804	32806	
1288	0	32808	32804	
1289	0	32796	32764	
1290	0	32808	32751	
1291	0	32888	32724	
1292	0	32804	32678	
1293	0	32794	32772	
1294	0	32800	32716	
1295	0	32762	32860	
1296	0	32796	32792	
1297	0	32788	32807	
1298	0	32820	32748	
1299	0	32760	32807	
1300	0	32812	32800	
1301	0	32864	32638	
1302	0	32740	32734	
1303	0	32760	32688	
1304	0	32808	32799	
1305	0	32820	32816	
1306	0	32780	32775	
1307	0	32836	32828	
1308	0	32764	32794	
1309	0	32770	32758	
1310	0	32868	32820	
1311	0	32808	32790	
1312	0	32884	32648	
1313	0	32790	32771	
1314	0	32780	32726	
1315	0	32848	32760	
1316	0	32848	32842	
1317	0	32824	32792	
1318	0	32806	32738	
1319	0	32814	32686	
1320	0	32768	32948	
1321	0	32812	32832	
1322	0	32875	32756	
1323	0	32812	32768	
1324	0	32844	32751	
1325	0	32816	32810	
1326	0	32828	32847	
1327	0	32824	32702	
1328	0	32808	32788	
1329	0	32796	32764	
1330	0	32834	32832	
1331	0	32868	32766	
1332	0	32880	32622	
1333	0	32772	32818	
1334	0	32813	32828	
1335	0	32804	32688	
1336	0	32788	32737	
1337	0	32768	32774	
1338	0	32840	32731	
1339	0	32804	32844	
1340	0	32794	32718	
1341	0	32868	32876	
1342	0	32784	32764	
1343	0	32738	32775	
1344	0	32806	32790	
1345	0	32834	32714	
1346	0	32868	32794	
1347	0	32870	32716	
1348	0	32800	32796	
1349	0	32860	32714	
1350	0	32848	32828	
1351	0	32800	32802	
1352	0	32800	32743	
1353	0	32804	32750	
1354	0	32788	32632	
1355	0	32782	32822	
1356	0	32848	32824	
1357	0	32760	32788	
1358	0	32812	32802	
1359	0	32836	32768	
1360	0	32824	32838	
1361	0	32844	32727	
1362	0	32775	32775	
1363	0	32772	32703	
1364	0	32796	32738	
1365	0	32804	32764	
1366	0	32788	32730	
1367	0	32748	32750	
1368	0	32846	32747	
1369	0	32824	32788	
1370	0	32812	32784	
1371	0	32816	32878	
1372	0	32794	32805	
1373	0	32777	32752	
1374	0	32820	32810	
1375	0	32836	32648	
1376	0	32804	32832	
1377	0	32800	32756	
1378	0	32792	32716	
1379	0	32840	32720	
1380	0	32860	32775	
1381	0	32868	32774	
1382	0	32778	32828	
1383	0	32812	32647	
1384	0	32788	32849	
1385	0	32770	32775	
1386	0	32805	32742	
1387	0	32838	32796	
1388	0	32846	32697	
1389	0	32904	32852	
1390	0	32804	32775	
1391	0	32816	32767	
1392	0	32764	32775	
1393	0	32788	32730	
1394	0	32736	32739	
1395	0	32778	32610	
1396	0	32806	32766	
1397	0	32834	32750	
1398	0	32744	32712	
1399	0	32816	32796	
1400	0	32760	32743	
1401	0	32772	32836	
1402	0	32876	32712	
1403	0	32808	32828	
1404	0	32840	32827	
1405	0	32822	32718	
1406	0	32788	32775	
1407	0	32818	32708	
1408	0	32804	32785	
1409	0	32846	32742	
1410	0	32800	32807	
1411	0	32808	32696	
1412	0	32814	32772	
1413	0	32824	32814	
1414	0	32774	32647	
1415	0	32844	32910	
1416	0	32718	32732	
1417	0	32868	32640	
1418	0	32816	32700	
1419	0	32860	32708	
1420	0	32796	32752	
1421	0	32804	32775	
1422	0	32780	32712	
1423	0	32764	32764	
1424	0	32832	32714	
1425	0	32824	32774	
1426	0	32812	32804	
1427	0	32772	32801	
1428	0	32864	32802	
1429	0	32804	32754	
1430	0	32842	32775	
1431	0	32790	32775	
1432	0	32860	32727	
1433	0	32748	32806	
1434	0	32852	32720	
1435	0	32796	32750	
1436	0	32820	32800	
1437	0	32815	32738	
1438	0	32832	32846	
1439	0	32784	32758	
1440	0	32824	32762	
1441	0	32822	32736	
1442	0	32866	32770	
1443	0	32796	32818	
1444	0	32770	32858	
1445	0	32820	32794	
1446	0	32816	32828	
1447	0	32842	32734	
1448	0	32778	32746	
1449	0	32836	32756	
1450	0	32792	32680	
1451	0	32820	32768	
1452	0	32806	32763	
1453	0	32840	32690	
1454	0	32772	32714	
1455	0	32804	32804	
1456	0	32796	32668	
1457	0	32764	32775	
1458	0	32836	32743	
1459	0	32814	32774	
1460	0	32748	32760	
1461	0	32868	32750	
1462	0	32848	32775	
1463	0	32854	32831	
1464	0	32766	32774	
1465	0	32792	32810	
1466	0	32816	32718	
1467	0	32868	32774	
1468	0	32784	32784	
1469	0	32820	32743	
1470	0	32772	32738	
1471	0	32800	32628	
1472	0	32778	32826	
1473	0	32748	32746	
1474	0	32786	32796	
1475	0	32788	32804	
1476	0	32850	32743	
1477	0	32868	32775	
1478	0	32816	32679	
1479	0	32788	32708	
1480	0	32820	32834	
1481	0	32848	32808	
1482	0	32876	32744	
1483	0	32824	32775	
1484	0	32760	32788	
1485	0	32852	32799	
1486	0	32832	32774	
1487	0	32804	32740	
1488	0	32804	32823	
1489	0	32778	32856	
1490	0	32808	32775	
1491	0	32828	32871	
1492	0	32826	32660	
1493	0	32792	32788	
1494	0	32828	32686	
1495	0	32828	32775	
1496	0	32824	32660	
1497	0	32790	32844	
1498	0	32856	32766	
1499	0	32804	32721	
1500	0	32868	32742	
1501	0	32844	32743	
1502	0	32776	32862	
1503	0	32744	32854	
1504	0	32744	32824	
1505	0	32820	32819	
1506	0	32790	32831	
1507	0	32772	32706	
1508	0	32736	32766	
1509	0	32762	32756	
1510	0	32802	32658	
1511	0	32840	32754	
1512	0	32876	32714	
1513	0	32908	32764	
1514	0	32764	32830	
1515	0	32844	32718	
1516	0	32775	32775	
1517	0	32804	32708	
1518	0	32832	32748	
1519	0	32796	32654	
1520	0	32830	32836	
1521	0	32888	32796	
1522	0	32758	32830	
1523	0	32778	32799	
1524	0	32804	32775	
1525	0	32792	32843	
1526	0	32832	32690	
1527	0	32826	32762	
1528	0	32788	32690	
1529	0	32880	32696	
1530	0	32814	32708	
1531	0	32812	32726	
1532	0	32840	32768	
1533	0	32832	32732	
1534	0	32808	32708	
1535	0	32778	32807	
1536	0	32812	32711	
1537	0	32832	32814	
1538	0	32764	32728	
1539	0	32840	32830	
1540	0	32849	32814	
1541	0	32846	32859	
1542	0	32824	32722	
1543	0	32780	32848	
1544	0	32754	32721	
1545	0	32834	32770	
1546	0	32856	32759	
1547	0	32762	32674	
1548	0	32852	32794	
1549	0	32820	32820	
1550	0	32900	32756	
1551	0	32818	32807	
1552	0	32778	32679	
1553	0	32772	32722	
1554	0	32860	32686	
1555	0	32792	32762	
1556	0	32774	32794	
1557	0	32820	32655	
1558	0	32836	32890	
1559	0	32832	32742	
1560	0	32804	32826	
1561	0	32774	32764	
1562	0	32828	32728	
1563	0	32836	32775	
1564	0	32860	32720	
1565	0	32834	32810	
1566	0	32842	32814	
1567	0	32724	32727	
1568	0	32782	32826	
1569	0	32834	32722	
1570	0	32796	32818	
1571	0	32858	32838	
1572	0	32828	32692	
1573	0	32852	32700	
1574	0	32784	32668	
1575	0	32860	32772	
1576	0	32804	32774	
1577	0	32822	32684	
1578	0	32802	32775	
1579	0	32842	32744	
1580	0	32769	32804	
1581	0	32848	32792	
1582	0	32847	32790	
1583	0	32801	32742	
1584	0	32816	32759	
1585	0	32866	32814	
1586	0	32752	32709	
1587	0	32820	32852	
1588	0	32760	32839	
1589	0	32820	32649	
1590	0	32824	32748	
1591	0	32788	32737	
1592	0	32772	32806	
1593	0	32868	32794	
1594	0	32780	32775	
1595	0	32849	32788	
1596	0	32848	32662	
1597	0	32836	32758	
1598	0	32812	32660	
1599	0	32809	32775	
1600	0	32748	32878	
1601	0	32816	32839	
1602	0	32820	32775	
1603	0	32804	32670	
1604	0	32768	32823	
1605	0	32838	32678	
1606	0	32856	32813	
1607	0	32808	32846	
1608	0	32796	32793	
1609	0	32804	32784	
1610	0	32740	32701	
1611	0	32756	32830	
1612	0	32804	32755	
1613	0	32864	32722	
1614	0	32768	32820	
1615	0	32816	32804	
1616	0	32780	32810	
1617	0	32798	32807	
1618	0	32821	32834	
1619	0	32764	32844	
1620	0	32828	32634	
1621	0	32796	32725	
1622	0	32798	32807	
1623	0	32832	32860	
1624	0	32840	32846	
1625	0	32852	32764	
1626	0	32832	32709	
1627	0	32852	32745	
1628	0	32800	32716	
1629	0	32824	32769	
1630	0	32838	32740	
1631	0	32800	32732	
1632	0	32788	32709	
1633	0	32856	32751	
1634	0	32740	32620	
1635	0	32804	32790	
1636	0	32822	32698	
1637	0	32760	32822	
1638	0	32846	32913	
1639	0	32892	32771	
1640	0	32768	32796	
1641	0	32848	32720	
1642	0	32834	32840	
1643	0	32812	32830	
1644	0	32820	32696	
1645	0	32840	32818	
1646	0	32858	32842	
1647	0	32842	32732	
1648	0	32826	32844	
1649	0	32796	32703	
1650	0	32816	32806	
1651	0	32806	32738	
1652	0	32808	32770	
1653	0	32768	32798	
1654	0	32796	32756	
1655	0	32784	32711	
1656	0	32792	32668	
1657	0	32806	32775	
1658	0	32800	32724	
1659	0	32828	32825	
1660	0	32792	32828	
1661	0	32742	32728	
1662	0	32780	32799	
1663	0	32756	32686	
1664	0	32740	32762	
1665	0	32844	32699	
1666	0	32824	32874	
1667	0	32796	32850	
1668	0	32778	32788	
1669	0	32916	32826	
1670	0	32840	32702	
1671	0	32884	32698	
1672	0	32820	32698	
1673	0	32824	32708	
1674	0	32800	32626	
1675	0	32738	32703	
1676	0	32815	32684	
1677	0	32824	32728	
1678	0	32768	32719	
1679	0	32904	32831	
1680	0	32796	32757	
1681	0	32836	32884	
1682	0	32828	32862	
1683	0	32798	32850	
1684	0	32737	32853	
1685	0	32749	32792	
1686	0	32764	32775	
1687	0	32788	32724	
1688	0	32810	32774	
1689	0	32756	32718	
1690	0	32788	32804	
1691	0	32790	32754	
1692	0	32820	32712	
1693	0	32760	32764	
1694	0	32732	32757	
1695	0	32784	32792	
1696	0	32764	32711	
1697	0	32768	32689	
1698	0	32728	32694	
1699	0	32764	32759	
1700	0	32764	32718	
1701	0	32724	32704	
1702	0	32766	32673	
1703	0	32800	32720	
1704	0	32788	32817	
1705	0	32738	32833	
1706	0	32746	32816	
1707	0	32854	32795	
1708	0	32932	32780	
1709	0	32924	32902	
1710	0	32898	32742	
1711	0	32944	32775	
1712	0	32944	32756	
1713	0	32930	32885	
1714	0	32968	32838	
1715	0	32976	32814	
1716	0	32968	32775	
1717	0	32916	32858	
1718	0	33072	32823	
1719	0	32976	32930	
1720	0	32952	32838	
1721	0	32892	32960	
1722	0	32912	32844	
1723	0	32876	32800	
1724	0	32772	32775	
1725	0	32804	32903	
1726	0	32832	32911	
1727	0	32848	32903	
1728	0	32826	32934	
1729	0	32762	32923	
1730	0	32732	32846	
1731	0	32724	32767	
1732	0	32690	32688	
1733	0	32736	32756	
1734	0	32764	32814	
1735	0	32692	32662	
1736	0	32676	32744	
1737	0	32692	32600	
1738	0	32740	32700	
1739	0	32708	32582	
1740	0	32724	32628	
1741	0	32706	32620	
1742	0	32778	32775	
1743	0	32774	32628	
1744	0	32788	32734	
1745	0	32782	32756	
1746	0	32848	32770	
1747	0	32772	32668	
1748	0	32802	32692	
1749	0	32828	32615	
1750	0	32816	32698	
1751	0	32848	32716	
1752	0	32872	32756	
1753	0	32775	32724	
1754	0	32812	32766	
1755	0	32824	32866	
1756	0	32813	32748	
1757	0	32864	32742	
1758	0	32840	32766	
1759	0	32852	32819	
1760	0	32782	32832	
1761	0	32856	32830	
1762	0	32764	32831	
1763	0	32832	32775	
1764	0	32890	32678	
1765	0	32810	32760	
1766	0	32812	32730	
1767	0	32766	32788	
1768	0	32794	32654	
1769	0	32860	32752	
1770	0	32860	32724	
1771	0	32796	32770	
1772	0	32812	32902	
1773	0	32806	32743	
1774	0	32824	32775	
1775	0	32848	32672	
1776	0	32786	32788	
1777	0	32836	32654	
1778	0	32816	32740	
1779	0	32756	32729	
1780	0	32848	32775	
1781	0	32802	32764	
1782	0	32824	32740	
1783	0	32812	32734	
1784	0	32812	32796	
1785	0	32800	32734	
1786	0	32864	32834	
1787	0	32794	32663	
1788	0	32828	32800	
1789	0	32844	32702	
1790	0	32772	32798	
1791	0	32808	32722	
1792	0	32768	32750	
1793	0	32808	32678	
1794	0	32782	32711	
1795	0	32818	32692	
1796	0	32838	32775	
1797	0	32804	32742	
1798	0	32832	32775	
1799	0	32852	32720	
1800	0	32804	32846	
1801	0	32768	32666	
1802	0	32792	32826	
1803	0	32852	32711	
1804	0	32820	32775	
1805	0	32868	32756	
1806	0	32798	32763	
1807	0	32872	32775	
1808	0	32800	32724	
1809	0	32812	32670	
1810	0	32800	32802	
1811	0	32828	32706	
1812	0	32812	32736	
1813	0	32746	32679	
1814	0	32784	32799	
1815	0	32818	32702	
1816	0	32842	32774	
1817	0	32856	32672	
1818	0	32866	32801	
1819	0	32791	32774	
1820	0	32760	32762	
1821	0	32758	32860	
1822	0	32766	32775	
1823	0	32836	32792	
1824	0	32824	32847	
1825	0	32824	32759	
1826	0	32840	32766	
1827	0	32756	32708	
1828	0	32808	32751	
1829	0	32826	32688	
1830	0	32828	32704	
1831	0	32784	32737	
1832	0	32844	32834	
1833	0	32796	32772	
1834	0	32822	32821	
1835	0	32824	32752	
1836	0	32746	32760	
1837	0	32788	32831	
1838	0	32800	32764	
1839	0	32810	32758	
1840	0	32804	32719	
1841	0	32764	32908	
1842	0	32760	32704	
1843	0	32842	32758	
1844	0	32816	32731	
1845	0	32804	32844	
1846	0	32796	32718	
1847	0	32752	32807	
1848	0	32766	32766	
1849	0	32798	32868	
1850	0	32826	32697	
1851	0	32800	32775	
1852	0	32740	32788	
1853	0	32876	32758	
1854	0	32770	32852	
1855	0	32784	32684	
1856	0	32852	32804	
1857	0	32832	32640	
1858	0	32808	32838	
1859	0	32804	32702	
1860	0	32786	32751	
1861	0	32744	32714	
1862	0	32780	32796	
1863	0	32820	32774	
1864	0	32792	32900	
1865	0	32798	32830	
1866	0	32794	32756	
1867	0	32834	32824	
1868	0	32824	32775	
1869	0	32824	32808	
1870	0	32812	32791	
1871	0	32836	32775	
1872	0	32820	32839	
1873	0	32752	32684	
1874	0	32816	32820	
1875	0	32894	32647	
1876	0	32822	32732	
1877	0	32876	32807	
1878	0	32800	32740	
1879	0	32808	32734	
1880	0	32798	32775	
1881	0	32824	32654	
1882	0	32768	32775	
1883	0	32780	32735	
1884	0	32804	32843	
1885	0	32736	32795	
1886	0	32754	32832	
1887	0	32772	32684	
1888	0	32828	32732	
1889	0	32738	32711	
1890	0	32798	32761	
1891	0	32824	32800	
1892	0	32796	32638	
1893	0	32780	32722	
1894	0	32792	32643	
1895	0	32924	32700	
1896	0	32786	32732	
1897	0	32812	32680	
1898	0	32804	32647	
1899	0	32736	32662	
1900	0	32828	32727	
1901	0	32796	32692	
1902	0	32816	32775	
1903	0	32852	32730	
1904	0	32868	32858	
1905	0	32856	32775	
1906	0	32772	32852	
1907	0	32786	32740	
1908	0	32824	32790	
1909	0	32832	32775	
1910	0	32788	32853	
1911	0	32784	32762	
1912	0	32784	32775	
1913	0	32788	32726	
1914	0	32812	32835	
1915	0	32808	32650	
1916	0	32868	32803	
1917	0	32824	32752	
1918	0	32868	32786	
1919	0	32834	32736	
1920	0	32776	32756	
1921	0	32808	32790	
1922	0	32820	32832	
1923	0	32768	32788	
1924	0	32816	32898	
1925	0	32812	32732	
1926	0	32852	32854	
1927	0	32834	32837	
1928	0	32812	32744	
1929	0	32776	32652	
1930	0	32783	32799	
1931	0	32822	32706	
1932	0	32768	32704	
1933	0	32836	32703	
1934	0	32862	32799	
1935	0	32818	32768	
1936	0	32828	32846	
1937	0	32828	32714	
1938	0	32840	32718	
1939	0	32808	32816	
1940	0	32772	32820	
1941	0	32806	32876	
1942	0	32804	32740	
1943	0	32858	32918	
1944	0	32748	32775	
1945	0	32826	32710	
1946	0	32790	32758	
1947	0	32864	32818	
1948	0	32856	32840	
1949	0	32806	32839	
1950	0	32796	32785	
1951	0	32768	32792	
1952	0	32834	32826	
1953	0	32884	32804	
1954	0	32764	32775	
1955	0	32804	32828	
1956	0	32778	32679	
1957	0	32856	32796	
1958	0	32820	32727	
1959	0	32826	32801	
1960	0	32820	32838	
1961	0	32856	32832	
1962	0	32840	32886	
1963	0	32800	32684	
1964	0	32872	32790	
1965	0	32860	32732	
1966	0	32800	32793	
1967	0	32784	32792	
1968	0	32740	32884	
1969	0	32834	32782	
1970	0	32796	32663	
1971	0	32810	32792	
1972	0	32808	32737	
1973	0	32780	32816	
1974	0	32800	32694	
1975	0	32840	32731	
1976	0	32782	32744	
1977	0	32852	32676	
1978	0	32830	32796	
1979	0	32836	32652	
1980	0	32824	32750	
1981	0	32844	32800	
1982	0	32764	32656	
1983	0	32796	32796	
1984	0	32806	32770	
1985	0	32780	32850	
1986	0	32754	32901	
1987	0	32784	32774	
1988	0	32875	32820	
1989	0	32780	32798	
1990	0	32740	32775	
1991	0	32832	32743	
1992	0	32788	32854	
1993	0	32812	32716	
1994	0	32844	32729	
1995	0	32794	32696	
1996	0	32752	32791	
1997	0	32800	32772	
1998	0	32880	32646	
1999	0	32792	32750	
2000	0	32784	32680	
2001	0	32860	32768	
2002	0	32834	32807	
2003	0	32804	32820	
2004	0	32792	32752	
2005	0	32804	32870	
2006	0	32754	32868	
2007	0	32780	32874	
2008	0	32802	32862	
2009	0	32869	32792	
2010	0	32814	32702	
2011	0	32844	32823	
2012	0	32816	32818	
2013	0	32770	32760	
2014	0	32754	32692	
2015	0	32868	32770	
2016	0	32828	32844	
2017	0	32808	32738	
2018	0	32830	32802	
2019	0	32762	32700	
2020	0	32854	32710	
2021	0	32754	32726	
2022	0	32832	32790	
2023	0	32820	32800	
2024	0	32850	32860	
2025	0	32740	32775	
2026	0	32742	32842	
2027	0	32856	32788	
2028	0	32812	32760	
2029	0	32816	32694	
2030	0	32844	32690	
2031	0	32858	32774	
2032	0	32816	32804	
2033	0	32788	32746	
2034	0	32775	32762	
2035	0	32826	32753	
2036	0	32880	32666	
2037	0	32884	32743	
2038	0	32768	32678	
2039	0	32762	32734	
2040	0	32780	32698	
2041	0	32800	32734	
2042	0	32828	32674	
2043	0	32828	32804	
2044	0	32804	32786	
2045	0	32856	32814	
2046	0	32794	32786	
2047	0	32816	32879	
2048	0	32812	32854	
2049	0	32740	32749	
2050	0	32824	32766	
2051	0	32804	32722	
2052	0	32830	32791	
2053	0	32748	32660	
2054	0	32804	32730	
2055	0	32824	32709	
2056	0	32884	32823	
2057	0	32792	32730	
2058	0	32906	32800	
2059	0	32782	32830	
2060	0	32796	32663	
2061	0	32880	32808	
2062	0	32800	32806	
2063	0	32804	32691	
2064	0	32856	32770	
2065	0	32830	32796	
2066	0	32820	32727	
2067	0	32804	32775	
2068	0	32788	32764	
2069	0	32800	32756	
2070	0	32876	32786	
2071	0	32816	32687	
2072	0	32816	32815	
2073	0	32792	32756	
2074	0	32794	32687	
2075	0	32836	32810	
2076	0	32824	32808	
2077	0	32816	32698	
2078	0	32770	32768	
2079	0	32836	32720	
2080	0	32852	32792	
2081	0	32796	32720	
2082	0	32824	32743	
2083	0	32780	32736	
2084	0	32812	32736	
2085	0	32800	32770	
2086	0	32864	32839	
2087	0	32806	32772	
2088	0	32808	32792	
2089	0	32802	32832	
2090	0	32804	32784	
2091	0	32806	32774	
2092	0	32832	32727	
2093	0	32794	32775	
2094	0	32760	32710	
2095	0	32850	32839	
2096	0	32788	32824	
2097	0	32852	32800	
2098	0	32768	32766	
2099	0	32788	32678	
2100	0	32800	32800	
2101	0	32792	32815	
2102	0	32834	32756	
2103	0	32828	32736	
2104	0	32728	32696	
2105	0	32804	32814	
2106	0	32764	32727	
2107	0	32826	32822	
2108	0	32800	32758	
2109	0	32882	32828	
2110	0	32770	32751	
2111	0	32844	32775	
2112	0	32832	32774	
2113	0	32838	32804	
2114	0	32764	32838	
2115	0	32784	32711	
2116	0	32808	32802	
2117	0	32744	32822	
2118	0	32748	32682	
2119	0	32804	32700	
2120	0	32814	32592	
2121	0	32754	32710	
2122	0	32804	32698	
2123	0	32880	32710	
2124	0	32788	32785	
2125	0	32854	32628	
2126	0	32880	32752	
2127	0	32844	32632	
2128	0	32772	32706	
2129	0	32788	32775	
2130	0	32820	32807	
2131	0	32784	32750	
2132	0	32800	32804	
2133	0	32816	32775	
2134	0	32880	32710	
2135	0	32808	32842	
2136	0	32766	32871	
2137	0	32810	32702	
2138	0	32752	32854	
2139	0	32834	32780	
2140	0	32786	32758	
2141	0	32816	32846	
2142	0	32860	32801	
2143	0	32852	32708	
2144	0	32836	32816	
2145	0	32788	32775	
2146	0	32812	32798	
2147	0	32760	32732	
2148	0	32780	32734	
2149	0	32740	32786	
2150	0	32896	32814	
2151	0	32838	32727	
2152	0	32780	32775	
2153	0	32876	32762	
2154	0	32804	32650	
2155	0	32812	32743	
2156	0	32776	32768	
2157	0	32792	32704	
2158	0	32844	32769	
2159	0	32896	32772	
2160	0	32774	32775	
2161	0	32772	32719	
2162	0	32830	32678	
2163	0	32804	32818	
2164	0	32872	32840	
2165	0	32816	32748	
2166	0	32776	32820	
2167	0	32810	32814	
2168	0	32798	32750	
2169	0	32756	32792	
2170	0	32820	32702	
2171	0	32860	32874	
2172	0	32756	32792	
2173	0	32822	32710	
2174	0	32780	32618	
2175	0	32816	32799	
2176	0	32860	32804	
2177	0	32816	32665	
2178	0	32860	32839	
2179	0	32872	32724	
2180	0	32758	32703	
2181	0	32784	32750	
2182	0	32784	32732	
2183	0	32864	32862	
2184	0	32810	32788	
2185	0	32816	32753	
2186	0	32772	32751	
2187	0	32798	32840	
2188	0	32764	32724	
2189	0	32804	32775	
2190	0	32778	32704	
2191	0	32820	32802	
2192	0	32780	32739	
2193	0	32784	32790	
2194	0	32756	32686	
2195	0	32858	32783	
2196	0	32756	32859	
2197	0	32780	32668	
2198	0	32796	32719	
2199	0	32810	32700	
2200	0	32793	32838	
2201	0	32858	32760	
2202	0	32832	32801	
2203	0	32823	32764	
2204	0	32764	32696	
2205	0	32768	32827	
2206	0	32768	32622	
2207	0	32876	32788	
2208	0	32834	32704	
2209	0	32866	32828	
2210	0	32852	32775	
2211	0	32842	32807	
2212	0	32792	32891	
2213	0	32775	32833	
2214	0	32836	32855	
2215	0	32852	32732	
2216	0	32860	32750	
2217	0	32852	32639	
2218	0	32836	32692	
2219	0	32820	32757	
2220	0	32820	32772	
2221	0	32772	32804	
2222	0	32750	32847	
2223	0	32776	32855	
2224	0	32828	32636	
2225	0	32772	32826	
2226	0	32840	32738	
2227	0	32800	32718	
2228	0	32828	32734	
2229	0	32828	32692	
2230	0	32834	32791	
2231	0	32816	32788	
2232	0	32828	32686	
2233	0	32752	32822	
2234	0	32804	32759	
2235	0	32832	32800	
2236	0	32876	32774	
2237	0	32865	32647	
2238	0	32840	32775	
2239	0	32784	32788	
2240	0	32750	32808	
2241	0	32824	32824	
2242	0	32802	32697	
2243	0	32838	32771	
2244	0	32776	32756	
2245	0	32826	32796	
2246	0	32790	32839	
2247	0	32826	32862	
2248	0	32840	32834	
2249	0	32792	32696	
2250	0	32828	32764	
2251	0	32816	32772	
2252	0	32822	32710	
2253	0	32780	32742	
2254	0	32810	32792	
2255	0	32782	32739	
2256	0	32820	32726	
2257	0	32838	32766	
2258	0	32784	32808	
2259	0	32792	32764	
2260	0	32800	32775	
2261	0	32836	32775	
2262	0	32808	32844	
2263	0	32749	32775	
2264	0	32790	32828	
2265	0	32737	32726	
2266	0	32796	32880	
2267	0	32788	32784	
2268	0	32846	32764	
2269	0	32788	32708	
2270	0	32756	32744	
2271	0	32864	32624	
2272	0	32798	32682	
2273	0	32760	32686	
2274	0	32932	32808	
2275	0	32782	32660	
2276	0	32794	32775	
2277	0	32720	32734	
2278	0	32758	32828	
2279	0	32816	32754	
2280	0	32812	32844	
2281	0	32824	32753	
2282	0	32812	32828	
2283	0	32836	32679	
2284	0	32816	32830	
2285	0	32792	32761	
2286	0	32760	32815	
2287	0	32780	32716	
2288	0	32808	32786	
2289	0	32804	32860	
2290	0	32780	32817	
2291	0	32858	32745	
2292	0	32832	32590	
2293	0	32834	32748	
2294	0	32840	32662	
2295	0	32864	32818	
2296	0	32810	32764	
2297	0	32804	32916	
2298	0	32800	32714	
2299	0	32808	32838	
2300	0	32800	32748	
2301	0	32816	32864	
2302	0	32788	32714	
2303	0	32740	32788	
2304	0	32840	32807	
2305	0	32776	32804	
2306	0	32772	32834	
2307	0	32772	32702	
2308	0	32860	32716	
2309	0	32836	32618	
2310	0	32864	32758	
2311	0	32748	32790	
2312	0	32832	32794	
2313	0	32824	32775	
2314	0	32788	32790	
2315	0	32782	32707	
2316	0	32812	32647	
2317	0	32860	32741	
2318	0	32808	32807	
2319	0	32830	32724	
2320	0	32804	32802	
2321	0	32854	32682	
2322	0	32808	32674	
2323	0	32826	32638	
2324	0	32804	32775	
2325	0	32840	32756	
2326	0	32808	32775	
2327	0	32852	32815	
2328	0	32756	32753	
2329	0	32856	32882	
2330	0	32812	32766	
2331	0	32806	32892	
2332	0	32816	32738	
2333	0	32826	32812	
2334	0	32780	32770	
2335	0	32836	32758	
2336	0	32800	32794	
2337	0	32845	32922	
2338	0	32842	32903	
2339	0	32748	32762	
2340	0	32800	32800	
2341	0	32828	32916	
2342	0	32778	32684	
2343	0	32775	32775	
2344	0	32778	32708	
2345	0	32828	32807	
2346	0	32768	32664	
2347	0	32792	32752	
2348	0	32744	32738	
2349	0	32784	32828	
2350	0	32834	32638	
2351	0	32868	32775	
2352	0	32844	32656	
2353	0	32820	32756	
2354	0	32856	32709	
2355	0	32830	32775	
2356	0	32832	32732	
2357	0	32836	32798	
2358	0	32836	32826	
2359	0	32784	32738	
2360	0	32784	32807	
2361	0	32808	32742	
2362	0	32768	32818	
2363	0	32816	32724	
2364	0	32772	32774	
2365	0	32796	32750	
2366	0	32868	32775	
2367	0	32793	32800	
2368	0	32774	32775	
2369	0	32772	32784	
2370	0	32840	32791	
2371	0	32817	32710	
2372	0	32872	32696	
2373	0	32812	32732	
2374	0	32834	32746	
2375	0	32788	32836	
2376	0	32804	32746	
2377	0	32848	32775	
2378	0	32858	32720	
2379	0	32834	32832	
2380	0	32830	32896	
2381	0	32841	32836	
2382	0	32752	32871	
2383	0	32803	32680	
2384	0	32750	32857	
2385	0	32854	32748	
2386	0	32860	32668	
2387	0	32786	32772	
2388	0	32832	32804	
2389	0	32724	32868	
2390	0	32812	32814	
2391	0	32738	32764	
2392	0	32804	32770	
2393	0	32812	32676	
2394	0	32856	32820	
2395	0	32760	32855	
2396	0	32826	32708	
2397	0	32888	32724	
2398	0	32836	32724	
2399	0	32772	32694	
2400	0	32797	32747	
2401	0	32798	32826	
2402	0	32788	32806	
2403	0	32816	32806	
2404	0	32830	32740	
2405	0	32780	32824	
2406	0	32814	32832	
2407	0	32796	32754	
2408	0	32800	32772	
2409	0	32836	32703	
2410	0	32789	32708	
2411	0	32788	32647	
2412	0	32800	32824	
2413	0	32796	32775	
2414	0	32864	32850	
2415	0	32844	32916	
2416	0	32884	32713	
2417	0	32796	32751	
2418	0	32728	32818	
2419	0	32836	32825	
2420	0	32838	32740	
2421	0	32824	32695	
2422	0	32778	32766	
2423	0	32778	32670	
2424	0	32794	32738	
2425	0	32704	32790	
2426	0	32790	32635	
2427	0	32766	32646	
2428	0	32744	32732	
2429	0	32768	32807	
2430	0	32738	32686	
2431	0	32702	32640	
2432	0	32742	32678	
2433	0	32692	32647	
2434	0	32788	32600	
2435	0	32838	32743	
2436	0	32720	32722	
2437	0	32804	32580	
2438	0	32840	32757	
2439	0	32808	32732	
2440	0	32768	32663	
2441	0	32812	32692	
2442	0	32930	32786	
2443	0	32884	32796	
2444	0	32842	32824	
2445	0	32900	32785	
2446	0	32872	32890	
2447	0	32942	32846	
2448	0	32916	32804	
2449	0	32904	32775	
2450	0	32936	32746	
2451	0	32908	32871	
2452	0	32970	32931	
2453	0	33060	32775	
2454	0	32968	32876	
2455	0	32912	32848	
2456	0	32856	32766	
2457	0	32836	32812	
2458	0	32872	32910	
2459	0	32838	32908	
2460	0	32844	32990	
2461	0	32822	32903	
2462	0	32796	32970	
2463	0	32808	32986	
2464	0	32728	32871	
2465	0	32740	32804	
2466	0	32752	32700	
2467	0	32712	32678	
2468	0	32688	32758	
2469	0	32632	32706	
2470	0	32700	32652	
2471	0	32672	32663	
2472	0	32618	32583	
2473	0	32736	32650	
2474	0	32704	32590	
2475	0	32688	32682	
2476	0	32704	32686	
2477	0	32792	32618	
2478	0	32804	32710	
2479	0	32808	32743	
2480	0	32846	32772	
2481	0	32804	32847	
2482	0	32814	32831	
2483	0	32822	32718	
2484	0	32808	32878	
2485	0	32788	32832	
2486	0	32864	32679	
2487	0	32816	32823	
2488	0	32791	32892	
2489	0	32824	32775	
2490	0	32784	32799	
2491	0	32840	32736	
2492	0	32832	32775	
2493	0	32850	32791	
2494	0	32824	32646	
2495	0	32748	32814	
2496	0	32762	32768	
2497	0	32874	32738	
2498	0	32810	32764	
2499	0	32892	32772	
2500	0	32800	32792	
2501	0	32768	32740	
2502	0	32842	32676	
2503	0	32836	32769	
2504	0	32824	32772	
2505	0	32880	32766	
2506	0	32775	32742	
2507	0	32792	32823	
2508	0	32764	32700	
2509	0	32846	32815	
2510	0	32820	32752	
2511	0	32792	32684	
2512	0	32868	32802	
2513	0	32792	32743	
2514	0	32856	32671	
2515	0	32856	32748	
2516	0	32798	32708	
2517	0	32790	32686	
2518	0	32788	32756	
2519	0	32862	32724	
2520	0	32794	32770	
2521	0	32868	32815	
2522	0	32804	32738	
2523	0	32744	32714	
2524	0	32811	32711	
2525	0	32768	32775	
2526	0	32748	32705	
2527	0	32842	32839	
2528	0	32830	32826	
2529	0	32782	32727	
2530	0	32800	32775	
2531	0	32812	32720	
2532	0	32834	32798	
2533	0	32784	32742	
2534	0	32890	32836	
2535	0	32826	32716	
2536	0	32790	32806	
2537	0	32812	32834	
2538	0	32820	32775	
2539	0	32900	32775	
2540	0	32834	32737	
2541	0	32820	32743	
2542	0	32782	32708	
2543	0	32784	32752	
2544	0	32788	32674	
2545	0	32812	32768	
2546	0	32840	32630	
2547	0	32824	32774	
2548	0	32814	32708	
2549	0	32766	32768	
2550	0	32832	32718	
2551	0	32812	32884	
2552	0	32828	32806	
2553	0	32812	32802	
2554	0	32842	32734	
2555	0	32716	32708	
2556	0	32825	32692	
2557	0	32800	32854	
2558	0	32818	32724	
2559	0	32766	32834	
2560	0	32756	32711	
2561	0	32802	32786	
2562	0	32820	32818	
2563	0	32796	32694	
2564	0	32832	32868	
2565	0	32814	32804	
2566	0	32854	32775	
2567	0	32778	32838	
2568	0	32814	32694	
2569	0	32810	32746	
2570	0	32854	32680	
2571	0	32812	32716	
2572	0	32844	32662	
2573	0	32868	32756	
2574	0	32836	32740	
2575	0	32772	32775	
2576	0	32794	32750	
2577	0	32864	32794	
2578	0	32808	32774	
2579	0	32808	32672	
2580	0	32820	32796	
2581	0	32782	32808	
2582	0	32844	32648	
2583	0	32822	32718	
2584	0	32860	32736	
2585	0	32752	32750	
2586	0	32832	32806	
2587	0	32816	32712	
2588	0	32740	32788	
2589	0	32866	32752	
2590	0	32793	32836	
2591	0	32804	32750	
2592	0	32868	32884	
2593	0	32750	32832	
2594	0	32815	32680	
2595	0	32775	32716	
2596	0	32812	32700	
2597	0	32804	32747	
2598	0	32762	32696	
2599	0	32852	32740	
2600	0	32810	32647	
2601	0	32804	32763	
2602	0	32812	32664	
2603	0	32844	32806	
2604	0	32804	32870	
2605	0	32788	32768	
2606	0	32858	32870	
2607	0	32856	32756	
2608	0	32764	32838	
2609	0	32808	32766	
2610	0	32788	32854	
2611	0	32778	32711	
2612	0	32800	32821	
2613	0	32854	32792	
2614	0	32772	32798	
2615	0	32740	32822	
2616	0	32764	32721	
2617	0	32840	32682	
2618	0	32792	32724	
2619	0	32840	32662	
2620	0	32868	32800	
2621	0	32820	32804	
2622	0	32792	32711	
2623	0	32816	32730	
2624	0	32768	32774	
2625	0	32792	32846	
2626	0	32792	32799	
2627	0	32860	32724	
2628	0	32800	32856	
2629	0	32854	32852	
2630	0	32874	32642	
2631	0	32804	32855	
2632	0	32816	32880	
2633	0	32730	32799	
2634	0	32764	32812	
2635	0	32788	32772	
2636	0	32768	32795	
2637	0	32856	32668	
2638	0	32820	32800	
2639	0	32862	32724	
2640	0	32792	32712	
2641	0	32868	32764	
2642	0	32814	32747	
2643	0	32788	32788	
2644	0	32846	32708	
2645	0	32858	32796	
2646	0	32832	32704	
2647	0	32804	32793	
2648	0	32776	32752	
2649	0	32785	32754	
2650	0	32830	32817	
2651	0	32812	32642	
2652	0	32806	32774	
2653	0	32836	32686	
2654	0	32840	32847	
2655	0	32808	32820	
2656	0	32830	32720	
2657	0	32800	32834	
2658	0	32794	32666	
2659	0	32792	32828	
2660	0	32782	32746	
2661	0	32786	32838	
2662	0	32844	32798	
2663	0	32850	32783	
2664	0	32876	32759	
2665	0	32796	32796	
2666	0	32786	32748	
2667	0	32824	32698	
2668	0	32788	32858	
2669	0	32780	32734	
2670	0	32810	32766	
2671	0	32872	32822	
2672	0	32768	32732	
2673	0	32800	32806	
2674	0	32870	32710	
2675	0	32860	32799	
2676	0	32808	32760	
2677	0	32824	32688	
2678	0	32872	32864	
2679	0	32836	32791	
2680	0	32804	32732	
2681	0	32816	32802	
2682	0	32820	32698	
2683	0	32834	32814	
2684	0	32764	32894	
2685	0	32793	32815	
2686	0	32784	32756	
2687	0	32792	32748	
2688	0	32736	32830	
2689	0	32806	32838	
2690	0	32796	32750	
2691	0	32814	32741	
2692	0	32820	32606	
2693	0	32808	32800	
2694	0	32768	32740	
2695	0	32816	32814	
2696	0	32758	32708	
2697	0	32828	32802	
2698	0	32846	32740	
2699	0	32784	32652	
2700	0	32828	32730	
2701	0	32862	32804	
2702	0	32844	32682	
2703	0	32794	32775	
2704	0	32832	32650	
2705	0	32894	32796	
2706	0	32768	32775	
2707	0	32796	32838	
2708	0	32804	32834	
2709	0	32848	32866	
2710	0	32808	32820	
2711	0	32784	32714	
2712	0	32800	32775	
2713	0	32758	32726	
2714	0	32808	32652	
2715	0	32774	32654	
2716	0	32832	32828	
2717	0	32822	32767	
2718	0	32796	32813	
2719	0	32816	32750	
2720	0	32808	32832	
2721	0	32812	32714	
2722	0	32810	32799	
2723	0	32824	32704	
2724	0	32826	32855	
2725	0	32804	32742	
2726	0	32772	32748	
2727	0	32808	32702	
2728	0	32856	32798	
2729	0	32754	32842	
2730	0	32780	32874	
2731	0	32788	32752	
2732	0	32776	32775	
2733	0	32816	32674	
2734	0	32802	32711	
2735	0	32858	32690	
2736	0	32796	32775	
2737	0	32804	32638	
2738	0	32762	32796	
2739	0	32806	32670	
2740	0	32852	32734	
2741	0	32884	32758	
2742	0	32800	32765	
2743	0	32844	32711	
2744	0	32852	32762	
2745	0	32838	32796	
2746	0	32892	32724	
2747	0	32768	32823	
2748	0	32772	32882	
2749	0	32800	32772	
2750	0	32760	32706	
2751	0	32784	32827	
2752	0	32784	32719	
2753	0	32824	32832	
2754	0	32846	32780	
2755	0	32824	32766	
2756	0	32816	32699	
2757	0	32854	32832	
2758	0	32792	32735	
2759	0	32796	32762	
2760	0	32768	32711	
2761	0	32840	32742	
2762	0	32832	32678	
2763	0	32808	32790	
2764	0	32808	32720	
2765	0	32800	32740	
2766	0	32816	32815	
2767	0	32802	32812	
2768	0	32808	32775	
2769	0	32804	32710	
2770	0	32836	32790	
2771	0	32816	32842	
2772	0	32786	32791	
2773	0	32788	32728	
2774	0	32810	32705	
2775	0	32806	32884	
2776	0	32788	32716	
2777	0	32826	32739	
2778	0	32784	32700	
2779	0	32812	32775	
2780	0	32834	32770	
2781	0	32808	32722	
2782	0	32816	32750	
2783	0	32832	32823	
2784	0	32834	32908	
2785	0	32776	32788	
2786	0	32830	32865	
2787	0	32808	32790	
2788	0	32852	32772	
2789	0	32800	32844	
2790	0	32864	32770	
2791	0	32824	32836	
2792	0	32784	32821	
2793	0	32848	32744	
2794	0	32852	32775	
2795	0	32810	32764	
2796	0	32768	32796	
2797	0	32720	32740	
2798	0	32736	32623	
2799	0	32800	32734	
2800	0	32860	32756	
2801	0	32804	32839	
2802	0	32808	32734	
2803	0	32810	32702	
2804	0	32828	32775	
2805	0	32750	32668	
2806	0	32876	32858	
2807	0	32864	32760	
2808	0	32812	32848	
2809	0	32780	32911	
2810	0	32782	32678	
2811	0	32744	32711	
2812	0	32816	32671	
2813	0	32832	32804	
2814	0	32792	32686	
2815	0	32800	32852	
2816	0	32910	32872	
2817	0	32788	32943	
2818	0	32730	32774	
2819	0	32808	32728	
2820	0	32832	32756	
2821	0	32862	32670	
2822	0	32802	32712	
2823	0	32868	32636	
2824	0	32830	32790	
2825	0	32812	32679	
2826	0	32768	32737	
2827	0	32780	32734	
2828	0	32808	32846	
2829	0	32848	32725	
2830	0	32800	32746	
2831	0	32780	32744	
2832	0	32834	32815	
2833	0	32820	32773	
2834	0	32780	32879	
2835	0	32800	32850	
2836	0	32756	32775	
2837	0	32758	32629	
2838	0	32768	32684	
2839	0	32856	32768	
2840	0	32790	32826	
2841	0	32792	32822	
2842	0	32816	32860	
2843	0	32804	32830	
2844	0	32844	32754	
2845	0	32880	32820	
2846	0	32806	32660	
2847	0	32804	32735	
2848	0	32844	32772	
2849	0	32866	32884	
2850	0	32836	32740	
2851	0	32808	32824	
2852	0	32724	32632	
2853	0	32780	32828	
2854	0	32834	32666	
2855	0	32754	32775	
2856	0	32800	32738	
2857	0	32856	32676	
2858	0	32800	32706	
2859	0	32784	32634	
2860	0	32830	32720	
2861	0	32740	32796	
2862	0	32848	32768	
2863	0	32884	32846	
2864	0	32836	32710	
2865	0	32792	32806	
2866	0	32798	32790	
2867	0	32758	32736	
2868	0	32848	32872	
2869	0	32780	32812	
2870	0	32774	32774	
2871	0	32792	32727	
2872	0	32836	32726	
2873	0	32796	32831	
2874	0	32824	32762	
2875	0	32768	32680	
2876	0	32828	32794	
2877	0	32829	32754	
2878	0	32780	32789	
2879	0	32766	32756	
2880	0	32784	32673	
2881	0	32812	32804	
2882	0	32832	32802	
2883	0	32788	32742	
2884	0	32820	32838	
2885	0	32776	32742	
2886	0	32740	32774	
2887	0	32770	32844	
2888	0	32868	32760	
2889	0	32774	32775	
2890	0	32792	32792	
2891	0	32894	32828	
2892	0	32724	32756	
2893	0	32912	32724	
2894	0	32796	32855	
2895	0	32820	32775	
2896	0	32782	32748	
2897	0	32844	32766	
2898	0	32850	32712	
2899	0	32846	32764	
2900	0	32860	32802	
2901	0	32810	32807	
2902	0	32830	32754	
2903	0	32908	32753	
2904	0	32826	32756	
2905	0	32844	32770	
2906	0	32776	32775	
2907	0	32780	32666	
2908	0	32812	32732	
2909	0	32736	32752	
2910	0	32768	32693	
2911	0	32818	32726	
2912	0	32821	32684	
2913	0	32880	32852	
2914	0	32778	32775	
2915	0	32852	32804	
2916	0	32768	32807	
2917	0	32764	32698	
2918	0	32760	32746	
2919	0	32808	32738	
2920	0	32804	32830	
2921	0	32790	32742	
2922	0	32786	32751	
2923	0	32756	32788	
2924	0	32874	32784	
2925	0	32812	32775	
2926	0	32832	32690	
2927	0	32816	32769	
2928	0	32821	32715	
2929	0	32792	32840	
2930	0	32782	32862	
2931	0	32792	32794	
2932	0	32847	32767	
2933	0	32856	32719	
2934	0	32804	32790	
2935	0	32824	32838	
2936	0	32818	32712	
2937	0	32732	32739	
2938	0	32744	32804	
2939	0	32800	32684	
2940	0	32832	32772	
2941	0	32790	32775	
2942	0	32834	32600	
2943	0	32830	32756	
2944	0	32748	32775	
2945	0	32772	32721	
2946	0	32768	32662	
2947	0	32844	32726	
2948	0	32780	32775	
2949	0	32856	32738	
2950	0	32792	32791	
2951	0	32820	32652	
2952	0	32832	32766	
2953	0	32852	32807	
2954	0	32824	32732	
2955	0	32796	32845	
2956	0	32828	32770	
2957	0	32720	32818	
2958	0	32792	32719	
2959	0	32792	32775	
2960	0	32820	32855	
2961	0	32796	32815	
2962	0	32826	32766	
2963	0	32816	32808	
2964	0	32808	32775	
2965	0	32784	32820	
2966	0	32812	32788	
2967	0	32820	32660	
2968	0	32764	32758	
2969	0	32856	32628	
2970	0	32824	32756	
2971	0	32834	32804	
2972	0	32865	32732	
2973	0	32804	32768	
2974	0	32852	32816	
2975	0	32820	32743	
2976	0	32808	32636	
2977	0	32796	32791	
2978	0	32782	32708	
2979	0	32766	32742	
2980	0	32846	32839	
2981	0	32816	32692	
2982	0	32812	32711	
2983	0	32820	32660	
2984	0	32808	32789	
2985	0	32796	32860	
2986	0	32884	32790	
2987	0	32774	32823	
2988	0	32810	32718	
2989	0	32824	32908	
2990	0	32788	32820	
2991	0	32830	32806	
2992	0	32856	32759	
2993	0	32788	32714	
2994	0	32704	32775	
2995	0	32794	32748	
2996	0	32788	32830	
2997	0	32834	32706	
2998	0	32776	32804	
2999	0	32848	32680	
3000	0	32708	32770	
3001	0	32848	32766	
3002	0	32820	32772	
3003	0	32798	32792	
3004	0	32828	32851	
3005	0	32876	32828	
3006	0	32774	32825	
3007	0	32860	32879	
3008	0	32802	32744	
3009	0	32832	32826	
3010	0	32824	32840	
3011	0	32798	32802	
3012	0	32804	32775	
3013	0	32836	32792	
3014	0	32842	32720	
3015	0	32820	32728	
3016	0	32820	32804	
3017	0	32776	32884	
3018	0	32756	32880	
3019	0	32862	32775	
3020	0	32800	32746	
3021	0	32864	32784	
3022	0	32790	32767	
3023	0	32814	32831	
3024	0	32740	32737	
3025	0	32728	32796	
3026	0	32828	32756	
3027	0	32750	32805	
3028	0	32820	32792	
3029	0	32868	32679	
3030	0	32838	32742	
3031	0	32774	32686	
3032	0	32856	32775	
3033	0	32796	32796	
3034	0	32836	32762	
3035	0	32844	32719	
3036	0	32858	32700	
3037	0	32786	32848	
3038	0	32824	32722	
3039	0	32800	32855	
3040	0	32760	32724	
3041	0	32828	32839	
3042	0	32775	32839	
3043	0	32804	32687	
3044	0	32814	32806	
3045	0	32804	32836	
3046	0	32786	32730	
3047	0	32848	32756	
3048	0	32812	32775	
3049	0	32810	32798	
3050	0	32864	32738	
3051	0	32784	32645	
3052	0	32824	32784	
3053	0	32866	32644	
3054	0	32818	32806	
3055	0	32774	32718	
3056	0	32816	32660	
3057	0	32720	32768	
3058	0	32796	32674	
3059	0	32760	32748	
3060	0	32776	32854	
3061	0	32832	32820	
3062	0	32820	32807	
3063	0	32800	32702	
3064	0	32828	32775	
3065	0	32780	32842	
3066	0	32842	32774	
3067	0	32784	32802	
3068	0	32884	32790	
3069	0	32804	32724	
3070	0	32842	32693	
3071	0	32818	32754	
3072	0	32804	32896	
3073	0	32772	32800	
3074	0	32780	32797	
3075	0	32804	32766	
3076	0	32816	32735	
3077	0	32816	32712	
3078	0	32860	32720	
3079	0	32828	32814	
3080	0	32872	32761	
3081	0	32792	32831	
3082	0	32836	32766	
3083	0	32828	32806	
3084	0	32780	32847	
3085	0	32804	32654	
3086	0	32804	32772	
3087	0	32846	32823	
3088	0	32806	32735	
3089	0	32810	32704	
3090	0	32882	32806	
3091	0	32786	32670	
3092	0	32776	32756	
3093	0	32816	32876	
3094	0	32764	32774	
3095	0	32784	32784	
3096	0	32868	32702	
3097	0	32856	32828	
3098	0	32768	32666	
3099	0	32842	32750	
3100	0	32868	32748	
3101	0	32833	32644	
3102	0	32916	32796	
3103	0	32766	32696	
3104	0	32830	32810	
3105	0	32800	32822	
3106	0	32888	32750	
3107	0	32732	32884	
3108	0	32784	32838	
3109	0	32808	32764	
3110	0	32848	32716	
3111	0	32880	32708	
3112	0	32778	32792	
3113	0	32804	32820	
3114	0	32774	32687	
3115	0	32876	32729	
3116	0	32812	32724	
3117	0	32882	32813	
3118	0	32834	32880	
3119	0	32846	32732	
3120	0	32738	32768	
3121	0	32768	32862	
3122	0	32774	32775	
3123	0	32810	32844	
3124	0	32808	32864	
3125	0	32844	32769	
3126	0	32792	32756	
3127	0	32848	32647	
3128	0	32824	32759	
3129	0	32732	32762	
3130	0	32746	32822	
3131	0	32764	32775	
3132	0	32842	32672	
3133	0	32776	32756	
3134	0	32774	32705	
3135	0	32768	32756	
3136	0	32812	32722	
3137	0	32820	32788	
3138	0	32858	32775	
3139	0	32856	32751	
3140	0	32870	32775	
3141	0	32852	32806	
3142	0	32870	32775	
3143	0	32824	32775	
3144	0	32792	32746	
3145	0	32720	32816	
3146	0	32760	32692	
3147	0	32820	32766	
3148	0	32768	32666	
3149	0	32836	32816	
3150	0	32774	32684	
3151	0	32892	32736	
3152	0	32782	32652	
3153	0	32760	32732	
3154	0	32808	32732	
3155	0	32864	32724	
3156	0	32800	32648	
3157	0	32760	32742	
3158	0	32820	32734	
3159	0	32804	32836	
3160	0	32824	32685	
3161	0	32820	32839	
3162	0	32770	32742	
3163	0	32876	32862	
3164	0	32872	32806	
3165	0	32820	32752	
3166	0	32828	32708	
3167	0	32864	32708	
3168	0	32828	32767	
3169	0	32812	32799	
3170	0	32744	32739	
3171	0	32828	32801	
3172	0	32780	32647	
3173	0	32860	32789	
3174	0	32812	32698	
3175	0	32824	32661	
3176	0	32850	32738	
3177	0	32852	32742	
3178	0	32780	32790	
3179	0	32798	32748	
3180	0	32840	32716	
3181	0	32784	32711	
3182	0	32820	32754	
3183	0	32820	32824	
3184	0	32844	32676	
3185	0	32789	32760	
3186	0	32828	32746	
3187	0	32764	32856	
3188	0	32752	32758	
3189	0	32838	32764	
3190	0	32816	32826	
3191	0	32858	32726	
3192	0	32838	32708	
3193	0	32772	32820	
3194	0	32792	32802	
3195	0	32828	32647	
3196	0	32768	32800	
3197	0	32776	32756	
3198	0	32784	32852	
3199	0	32820	32737	
3200	0	32775	32684	
3201	0	32724	32686	
3202	0	32702	32750	
3203	0	32768	32708	
3204	0	32768	32655	
3205	0	32808	32814	
3206	0	32760	32799	
3207	0	32724	32736	
3208	0	32800	32786	
3209	0	32752	32760	
3210	0	32780	32775	
3211	0	32725	32698	
3212	0	32764	32679	
3213	0	32820	32580	
3214	0	32808	32720	
3215	0	32744	32640	
3216	0	32760	32710	
3217	0	32808	32754	
3218	0	32904	32670	
3219	0	32822	32823	
3220	0	32892	32710	
3221	0	32914	32810	
3222	0	32913	32751	
3223	0	32916	32878	
3224	0	32936	32764	
3225	0	32934	32922	
3226	0	32938	32881	
3227	0	32976	32806	
3228	0	33000	32807	
3229	0	32990	32855	
3230	0	32888	32826	
3231	0	32946	32718	
3232	0	32908	32874	
3233	0	32928	32800	
3234	0	32832	32839	
3235	0	32764	32821	
3236	0	32840	32908	
3237	0	32860	32974	
3238	0	32800	32868	
3239	0	32772	32938	
3240	0	32736	32800	
3241	0	32836	32864	
3242	0	32750	32732	
3243	0	32740	32850	
3244	0	32646	32830	
3245	0	32702	32750	
3246	0	32692	32704	
3247	0	32704	32622	
3248	0	32672	32770	
3249	0	32728	32679	
3250	0	32736	32804	
3251	0	32688	32694	
3252	0	32756	32810	
3253	0	32810	32648	
3254	0	32770	32796	
3255	0	32816	32686	
3256	0	32796	32687	
3257	0	32782	32604	
3258	0	32764	32796	
3259	0	32784	32550	
3260	0	32774	32762	
3261	0	32768	32743	
3262	0	32836	32772	
3263	0	32824	32641	
3264	0	32862	32662	
3265	0	32842	32684	
3266	0	32856	32706	
3267	0	32912	32828	
3268	0	32820	32710	
3269	0	32874	32806	
3270	0	32816	32764	
3271	0	32812	32856	
3272	0	32808	32824	
3273	0	32836	32775	
3274	0	32844	32730	
3275	0	32810	32670	
3276	0	32800	32788	
3277	0	32776	32788	
3278	0	32760	32860	
3279	0	32816	32717	
3280	0	32822	32858	
3281	0	32824	32723	
3282	0	32826	32770	
3283	0	32840	32791	
3284	0	32798	32730	
3285	0	32812	32775	
3286	0	32832	32684	
3287	0	32848	32839	
3288	0	32838	32820	
3289	0	32762	32746	
3290	0	32804	32834	
3291	0	32802	32764	
3292	0	32826	32764	
3293	0	32790	32735	
3294	0	32792	32796	
3295	0	32798	32790	
3296	0	32822	32839	
3297	0	32788	32694	
3298	0	32802	32775	
3299	0	32812	32772	
3300	0	32792	32844	
3301	0	32844	32728	
3302	0	32844	32768	
3303	0	32800	32842	
3304	0	32808	32816	
3305	0	32868	32684	
3306	0	32768	32800	
3307	0	32816	32743	
3308	0	32806	32647	
3309	0	32858	32838	
3310	0	32808	32823	
3311	0	32828	32743	
3312	0	32813	32663	
3313	0	32728	32723	
3314	0	32780	32775	
3315	0	32784	32730	
3316	0	32802	32623	
3317	0	32832	32758	
3318	0	32828	32720	
3319	0	32908	32789	
3320	0	32792	32839	
3321	0	32824	32732	
3322	0	32866	32873	
3323	0	32808	32846	
3324	0	32774	32796	
3325	0	32788	32874	
3326	0	32836	32730	
3327	0	32832	32818	
3328	0	32788	32900	
3329	0	32816	32858	
3330	0	32772	32775	
3331	0	32884	32711	
3332	0	32733	32828	
3333	0	32824	32828	
3334	0	32784	32658	
3335	0	32752	32754	
3336	0	32744	32774	
3337	0	32804	32775	
3338	0	32828	32812	
3339	0	32844	32762	
3340	0	32800	32798	
3341	0	32798	32832	
3342	0	32824	32775	
3343	0	32804	32812	
3344	0	32860	32643	
3345	0	32820	32692	
3346	0	32832	32720	
3347	0	32804	32762	
3348	0	32788	32804	
3349	0	32768	32732	
3350	0	32838	32724	
3351	0	32842	32631	
3352	0	32824	32878	
3353	0	32812	32824	
3354	0	32810	32711	
3355	0	32812	32838	
3356	0	32772	32839	
3357	0	32854	32764	
3358	0	32808	32752	
3359	0	32832	32732	
3360	0	32852	32888	
3361	0	32838	32724	
3362	0	32788	32703	
3363	0	32836	32775	
3364	0	32856	32762	
3365	0	32790	32679	
3366	0	32804	32748	
3367	0	32839	32708	
3368	0	32804	32807	
3369	0	32790	32775	
3370	0	32820	32647	
3371	0	32768	32746	
3372	0	32820	32814	
3373	0	32768	32692	
3374	0	32816	32855	
3375	0	32782	32769	
3376	0	32776	32822	
3377	0	32804	32716	
3378	0	32864	32799	
3379	0	32760	32822	
3380	0	32844	32735	
3381	0	32836	32712	
3382	0	32834	32710	
3383	0	32820	32762	
3384	0	32724	32868	
3385	0	32788	32796	
3386	0	32820	32742	
3387	0	32816	32734	
3388	0	32874	32728	
3389	0	32840	32738	
3390	0	32868	32862	
3391	0	32774	32762	
3392	0	32776	32692	
3393	0	32866	32743	
3394	0	32864	32825	
3395	0	32848	32608	
3396	0	32850	32754	
3397	0	32772	32846	
3398	0	32786	32763	
3399	0	32842	32814	
3400	0	32796	32810	
3401	0	32740	32786	
3402	0	32820	32810	
3403	0	32768	32760	
3404	0	32816	32797	
3405	0	32776	32772	
3406	0	32770	32750	
3407	0	32752	32844	
3408	0	32902	32738	
3409	0	32800	32876	
3410	0	32784	32854	
3411	0	32768	32694	
3412	0	32828	32648	
3413	0	32852	32668	
3414	0	32894	32656	
3415	0	32844	32804	
3416	0	32772	32676	
3417	0	32778	32707	
3418	0	32808	32614	
3419	0	32856	32692	
3420	0	32848	32711	
3421	0	32804	32758	
3422	0	32828	32727	
3423	0	32796	32746	
3424	0	32806	32775	
3425	0	32812	32941	
3426	0	32802	32839	
3427	0	32800	32898	
3428	0	32764	32888	
3429	0	32852	32756	
3430	0	32816	32830	
3431	0	32908	32624	
3432	0	32768	32722	
3433	0	32812	32655	
3434	0	32818	32802	
3435	0	32878	32579	
3436	0	32781	32740	
3437	0	32808	32709	
3438	0	32788	32879	
3439	0	32810	32775	
3440	0	32824	32833	
3441	0	32864	32663	
3442	0	32844	32815	
3443	0	32866	32796	
3444	0	32866	32798	
3445	0	32828	32842	
3446	0	32864	32762	
3447	0	32768	32676	
3448	0	32728	32816	
3449	0	32752	32708	
3450	0	32804	32816	
3451	0	32776	32836	
3452	0	32812	32806	
3453	0	32865	32751	
3454	0	32774	32774	
3455	0	32864	32716	
3456	0	32832	32676	
3457	0	32802	32706	
3458	0	32882	32666	
3459	0	32804	32796	
3460	0	32752	32762	
3461	0	32804	32860	
3462	0	32792	32842	
3463	0	32832	32852	
3464	0	32804	32860	
3465	0	32798	32852	
3466	0	32836	32848	
3467	0	32870	32852	
3468	0	32808	32935	
3469	0	32864	32868	
3470	0	32814	32838	
3471	0	32780	32662	
3472	0	32826	32818	
3473	0	32820	32830	
3474	0	32776	32758	
3475	0	32832	32720	
3476	0	32858	32752	
3477	0	32852	32646	
3478	0	32852	32700	
3479	0	32834	32600	
3480	0	32774	32743	
3481	0	32820	32738	
3482	0	32816	32804	
3483	0	32784	32694	
3484	0	32782	32830	
3485	0	32796	32652	
3486	0	32774	32752	
3487	0	32820	32722	
3488	0	32784	32842	
3489	0	32790	32775	
3490	0	32756	32798	
3491	0	32810	32736	
3492	0	32820	32738	
3493	0	32878	32708	
3494	0	32814	32760	
3495	0	32800	32788	
3496	0	32840	32700	
3497	0	32814	32792	
3498	0	32800	32751	
3499	0	32844	32741	
3500	0	32762	32656	
3501	0	32796	32764	
3502	0	32800	32698	
3503	0	32872	32772	
3504	0	32838	32740	
3505	0	32772	32790	
3506	0	32756	32822	
3507	0	32748	32751	
3508	0	32785	32878	
3509	0	32848	32770	
3510	0	32820	32830	
3511	0	32846	32666	
3512	0	32808	32766	
3513	0	32820	32872	
3514	0	32824	32720	
3515	0	32788	32798	
3516	0	32788	32726	
3517	0	32860	32770	
3518	0	32868	32775	
3519	0	32818	32741	
3520	0	32894	32712	
3521	0	32748	32806	
3522	0	32838	32834	
3523	0	32768	32795	
3524	0	32820	32770	
3525	0	32808	32712	
3526	0	32776	32775	
3527	0	32832	32716	
3528	0	32830	32728	
3529	0	32775	32808	
3530	0	32740	32775	
3531	0	32796	32734	
3532	0	32748	32678	
3533	0	32796	32812	
3534	0	32840	32814	
3535	0	32836	32838	
3536	0	32880	32748	
3537	0	32826	32654	
3538	0	32796	32730	
3539	0	32826	32818	
3540	0	32862	32644	
3541	0	32692	32721	
3542	0	32872	32790	
3543	0	32822	32814	
3544	0	32746	32887	
3545	0	32801	32718	
3546	0	32830	32807	
3547	0	32834	32764	
3548	0	32824	32894	
3549	0	32800	32802	
3550	0	32812	32706	
3551	0	32770	32794	
3552	0	32820	32823	
3553	0	32732	32786	
3554	0	32796	32720	
3555	0	32776	32708	
3556	0	32774	32865	
3557	0	32836	32802	
3558	0	32776	32620	
3559	0	32804	32788	
3560	0	32806	32726	
3561	0	32808	32756	
3562	0	32808	32842	
3563	0	32860	32790	
3564	0	32841	32798	
3565	0	32892	32724	
3566	0	32824	32734	
3567	0	32780	32848	
3568	0	32800	32736	
3569	0	32834	32833	
3570	0	32756	32811	
3571	0	32764	32795	
3572	0	32792	32768	
3573	0	32780	32841	
3574	0	32740	32788	
3575	0	32764	32814	
3576	0	32772	32760	
3577	0	32816	32675	
3578	0	32840	32754	
3579	0	32892	32682	
3580	0	32868	32678	
3581	0	32828	32807	
3582	0	32812	32714	
3583	0	32860	32711	
3584	0	32792	32792	
3585	0	32830	32839	
3586	0	32840	32647	
3587	0	32802	32828	
3588	0	32776	32791	
3589	0	32754	32687	
3590	0	32768	32792	
3591	0	32834	32664	
3592	0	32834	32796	
3593	0	32872	32828	
3594	0	32820	32706	
3595	0	32788	32852	
3596	0	32800	32735	
3597	0	32788	32769	
3598	0	32820	32816	
3599	0	32856	32762	
3600	0	32784	32732	
3601	0	32836	32655	
3602	0	32824	32758	
3603	0	32776	32687	
3604	0	32820	32830	
3605	0	32800	32878	
3606	0	32852	32726	
3607	0	32774	32790	
3608	0	32864	32747	
3609	0	32778	32805	
3610	0	32792	32807	
3611	0	32792	32700	
3612	0	32810	32641	
3613	0	32836	32648	
3614	0	32892	32882	
3615	0	32800	32762	
3616	0	32836	32639	
3617	0	32824	32686	
3618	0	32776	32682	
3619	0	32856	32756	
3620	0	32788	32612	
3621	0	32796	32762	
3622	0	32798	32724	
3623	0	32812	32860	
3624	0	32836	32845	
3625	0	32810	32698	
3626	0	32868	32792	
3627	0	32816	32704	
3628	0	32816	32829	
3629	0	32804	32684	
3630	0	32725	32792	
3631	0	32756	32878	
3632	0	32736	32770	
3633	0	32784	32746	
3634	0	32856	32790	
3635	0	32824	32852	
3636	0	32720	32760	
3637	0	32684	32570	
3638	0	32848	32714	
3639	0	32940	32690	
3640	0	32928	32775	
3641	0	32872	32692	
3642	0	32880	32751	
3643	0	32854	32754	
3644	0	32809	32846	
3645	0	32836	32818	
3646	0	32808	32760	
3647	0	32776	32798	
3648	0	32854	32664	
3649	0	32794	32775	
3650	0	32754	32839	
3651	0	32856	32794	
3652	0	32824	32826	
3653	0	32786	32636	
3654	0	32760	32770	
3655	0	32792	32660	
3656	0	32750	32674	
3657	0	32802	32709	
3658	0	32804	32794	
3659	0	32832	32678	
3660	0	32752	32878	
3661	0	32814	32808	
3662	0	32818	32798	
3663	0	32804	32820	
3664	0	32774	32843	
3665	0	32784	32788	
3666	0	32884	32692	
3667	0	32816	32774	
3668	0	32794	32762	
3669	0	32772	32854	
3670	0	32764	32768	
3671	0	32828	32826	
3672	0	32820	32790	
3673	0	32856	32700	
3674	0	32800	32673	
3675	0	32832	32647	
3676	0	32728	32775	
3677	0	32828	32686	
3678	0	32840	32796	
3679	0	32848	32788	
3680	0	32824	32806	
3681	0	32740	32775	
3682	0	32804	32728	
3683	0	32792	32796	
3684	0	32836	32711	
3685	0	32852	32847	
3686	0	32804	32814	
3687	0	32782	32615	
3688	0	32774	32775	
3689	0	32798	32895	
3690	0	32836	32862	
3691	0	32810	32750	
3692	0	32836	32850	
3693	0	32820	32764	
3694	0	32834	32650	
3695	0	32754	32788	
3696	0	32876	32772	
3697	0	32852	32663	
3698	0	32802	32801	
3699	0	32826	32754	
3700	0	32808	32699	
3701	0	32784	32807	
3702	0	32810	32684	
3703	0	32764	32820	
3704	0	32800	32804	
3705	0	32848	32756	
3706	0	32848	32816	
3707	0	32832	32814	
3708	0	32812	32721	
3709	0	32794	32790	
3710	0	32792	32724	
3711	0	32812	32774	
3712	0	32870	32726	
3713	0	32752	32726	
3714	0	32768	32746	
3715	0	32832	32668	
3716	0	32858	32775	
3717	0	32828	32718	
3718	0	32790	32764	
3719	0	32892	32682	
3720	0	32808	32740	
3721	0	32818	32812	
3722	0	32816	32808	
3723	0	32786	32808	
3724	0	32772	32687	
3725	0	32780	32798	
3726	0	32842	32725	
3727	0	32852	32798	
3728	0	32760	32836	
3729	0	32740	32730	
3730	0	32836	32807	
3731	0	32732	32712	
3732	0	32798	32806	
3733	0	32868	32796	
3734	0	32796	32704	
3735	0	32804	32790	
3736	0	32810	32658	
3737	0	32772	32748	
3738	0	32834	32755	
3739	0	32848	32814	
3740	0	32802	32684	
3741	0	32840	32817	
3742	0	32824	32839	
3743	0	32766	32774	
3744	0	32790	32820	
3745	0	32834	32754	
3746	0	32834	32799	
3747	0	32744	32748	
3748	0	32824	32836	
3749	0	32797	32859	
3750	0	32724	32812	
3751	0	32764	32799	
3752	0	32808	32704	
3753	0	32776	32764	
3754	0	32856	32679	
3755	0	32836	32764	
3756	0	32764	32690	
3757	0	32806	32766	
3758	0	32800	32744	
3759	0	32794	32736	
3760	0	32836	32758	
3761	0	32844	32678	
3762	0	32818	32790	
3763	0	32808	32700	
3764	0	32840	32807	
3765	0	32826	32775	
3766	0	32828	32846	
3767	0	32856	32770	
3768	0	32862	32772	
3769	0	32788	32818	
3770	0	32824	32702	
3771	0	32744	32872	
3772	0	32668	32708	
3773	0	32772	32703	
3774	0	32808	32704	
3775	0	32844	32708	
3776	0	32838	32775	
3777	0	32836	32866	
3778	0	32820	32856	
3779	0	32832	32826	
3780	0	32864	32768	
3781	0	32798	32622	
3782	0	32848	32822	
3783	0	32772	32695	
3784	0	32834	32747	
3785	0	32834	32762	
3786	0	32782	32694	
3787	0	32816	32775	
3788	0	32810	32678	
3789	0	32872	32784	
3790	0	32854	32850	
3791	0	32830	32880	
3792	0	32800	32682	
3793	0	32738	32807	
3794	0	32748	32772	
3795	0	32854	32750	
3796	0	32814	32608	
3797	0	32828	32700	
3798	0	32784	32768	
3799	0	32816	32732	
3800	0	32872	32743	
3801	0	32824	32726	
3802	0	32766	32743	
3803	0	32792	32764	
3804	0	32864	32804	
3805	0	32802	32758	
3806	0	32864	32775	
3807	0	32802	32700	
3808	0	32832	32846	
3809	0	32824	32756	
3810	0	32832	32793	
3811	0	32804	32770	
3812	0	32804	32828	
3813	0	32762	32872	
3814	0	32804	32887	
3815	0	32836	32812	
3816	0	32828	32743	
3817	0	32816	32759	
3818	0	32760	32676	
3819	0	32838	32705	
3820	0	32834	32733	
3821	0	32782	32836	
3822	0	32840	32806	
3823	0	32836	32752	
3824	0	32766	32679	
3825	0	32772	32794	
3826	0	32708	32775	
3827	0	32804	32878	
3828	0	32840	32834	
3829	0	32832	32740	
3830	0	32846	32854	
3831	0	32840	32836	
3832	0	32778	32786	
3833	0	32812	32711	
3834	0	32848	32730	
3835	0	32844	32844	
3836	0	32794	32732	
3837	0	32736	32738	
3838	0	32856	32744	
3839	0	32932	32647	
3840	0	32884	32672	
3841	0	32884	32679	
3842	0	32798	32711	
3843	0	32836	32760	
3844	0	32716	32878	
3845	0	32688	32852	
3846	0	32754	32930	
3847	0	32752	32871	
3848	0	32775	32754	
3849	0	32776	32789	
3850	0	32850	32794	
3851	0	32864	32756	
3852	0	32836	32754	
3853	0	32780	32632	
3854	0	32832	32812	
3855	0	32761	32744	
3856	0	32870	32894	
3857	0	32782	32766	
3858	0	32792	32775	
3859	0	32838	32856	
3860	0	32804	32634	
3861	0	32832	32719	
3862	0	32808	32676	
3863	0	32800	32722	
3864	0	32888	32702	
3865	0	32840	32730	
3866	0	32880	32682	
3867	0	32876	32806	
3868	0	32900	32670	
3869	0	32816	32810	
3870	0	32800	32846	
3871	0	32852	32860	
3872	0	32822	32870	
3873	0	32700	32732	
3874	0	32668	32786	
3875	0	32780	32821	
3876	0	32780	32864	
3877	0	32816	32746	
3878	0	32888	32792	
3879	0	32880	32738	
3880	0	32812	32596	
3881	0	32808	32682	
3882	0	32800	32775	
3883	0	32846	32698	
3884	0	32800	32804	
3885	0	32880	32732	
3886	0	32868	32715	
3887	0	32828	32806	
3888	0	32752	32750	
3889	0	32844	32756	
3890	0	32778	32743	
3891	0	32892	32766	
3892	0	32804	32706	
3893	0	32792	32722	
3894	0	32776	32722	
3895	0	32876	32798	
3896	0	32834	32719	
3897	0	32834	32720	
3898	0	32834	32830	
3899	0	32832	32870	
3900	0	32866	32699	
3901	0	32788	32766	
3902	0	32854	32655	
3903	0	32828	32796	
3904	0	32796	32775	
3905	0	32828	32827	
3906	0	32786	32812	
3907	0	32792	32775	
3908	0	32828	32774	
3909	0	32842	32834	
3910	0	32744	32672	
3911	0	32814	32762	
3912	0	32880	32740	
3913	0	32800	32670	
3914	0	32800	32751	
3915	0	32808	32840	
3916	0	32736	32767	
3917	0	32852	32764	
3918	0	32830	32652	
3919	0	32844	32792	
3920	0	32828	32816	
3921	0	32760	32696	
3922	0	32784	32806	
3923	0	32812	32802	
3924	0	32800	32690	
3925	0	32760	32756	
3926	0	32742	32727	
3927	0	32816	32791	
3928	0	32772	32744	
3929	0	32764	32754	
3930	0	32764	32753	
3931	0	32744	32807	
3932	0	32836	32886	
3933	0	32812	32754	
3934	0	32832	32700	
3935	0	32864	32736	
3936	0	32832	32754	
3937	0	32788	32700	
3938	0	32864	32740	
3939	0	32876	32654	
3940	0	32882	32826	
3941	0	32836	32802	
3942	0	32836	32684	
3943	0	32796	32750	
3944	0	32840	32854	
3945	0	32746	32775	
3946	0	32794	32766	
3947	0	32756	32686	
3948	0	32756	32718	
3949	0	32864	32775	
3950	0	32786	32810	
3951	0	32820	32775	
3952	0	32800	32664	
3953	0	32868	32711	
3954	0	32924	32694	
3955	0	32956	32775	
3956	0	32892	32806	
3957	0	32972	32811	
3958	0	32816	32838	
3959	0	32738	32692	
3960	0	32728	32837	
3961	0	32704	32818	
3962	0	32696	32721	
3963	0	32644	32763	
3964	0	32716	32682	
3965	0	32732	32740	
3966	0	32800	32724	
3967	0	32688	32817	
3968	0	32694	32774	
3969	0	32820	32716	
3970	0	32924	32798	
3971	0	32976	32790	
3972	0	32868	32640	
3973	0	32820	32718	
3974	0	32836	32788	
3975	0	32932	32784	
3976	0	32884	32676	
3977	0	32824	32909	
3978	0	32772	32986	
3979	0	32823	32839	
3980	0	32720	32832	
3981	0	32854	32728	
3982	0	32774	32756	
3983	0	32760	32678	
3984	0	32826	32712	
3985	0	32782	32708	
3986	0	32770	32796	
3987	0	32716	32752	
3988	0	32816	32762	
3989	0	32796	32647	
3990	0	32800	32751	
3991	0	32806	32712	
3992	0	32772	32722	
3993	0	32744	32770	
3994	0	32836	32796	
3995	0	32752	32758	
3996	0	32800	32673	
3997	0	32740	32758	
3998	0	32664	32602	
3999	0	32686	32636	
4000	0	32786	32604	
4001	0	32828	32662	
4002	0	32836	32682	
4003	0	32828	32807	
4004	0	32738	32716	
4005	0	32744	32676	
4006	0	32812	32844	
4007	0	32856	32703	
4008	0	32926	32748	
4009	0	32900	32728	
4010	0	32892	32742	
4011	0	32936	32775	
4012	0	32928	32890	
4013	0	32998	32902	
4014	0	32968	32846	
4015	0	32856	32836	
4016	0	32916	32868	
4017	0	32936	32844	
4018	0	33032	32751	
4019	0	33010	32866	
4020	0	32897	32814	
4021	0	32868	32900	
4022	0	32932	32896	
4023	0	32900	32936	
4024	0	32818	32854	
4025	0	32860	32768	
4026	0	32864	32860	
4027	0	32884	32876	
4028	0	32814	32944	
4029	0	32790	32954	
4030	0	32828	32839	
4031	0	32736	32764	
4032	0	32726	32785	
4033	0	32720	32801	
4034	0	32708	32762	
4035	0	32700	32748	
4036	0	32710	32564	
4037	0	32608	32740	
4038	0	32692	32732	
4039	0	32490	32764	
4040	0	32628	32758	
4041	0	32668	32576	
4042	0	32764	32640	
4043	0	32896	32611	
4044	0	32906	32812	
4045	0	32847	32738	
4046	0	32814	32828	
4047	0	32836	32816	
4048	0	32868	32874	
4049	0	32749	32698	
4050	0	32714	32730	
4051	0	32714	32710	
4052	0	32736	32760	
4053	0	32800	32750	
4054	0	32844	32788	
4055	0	32842	32688	
4056	0	32852	32844	
4057	0	32828	32666	
4058	0	32816	32755	
4059	0	32976	32742	
4060	0	32856	32766	
4061	0	32808	32702	
4062	0	32826	32708	
4063	0	32874	32704	
4064	0	32828	32724	
4065	0	32854	32726	
4066	0	32790	32638	
4067	0	32866	32767	
4068	0	32806	32724	
4069	0	32784	32710	
4070	0	32814	32774	
4071	0	32808	32857	
4072	0	32780	32823	
4073	0	32812	32770	
4074	0	32846	32816	
4075	0	32716	32756	
4076	0	32820	32844	
4077	0	32792	32794	
4078	0	32788	32716	
4079	0	32824	32630	
4080	0	32746	32760	
4081	0	32844	32686	
4082	0	32844	32810	
4083	0	32822	32726	
4084	0	32892	32766	
4085	0	32820	32796	
4086	0	32896	32775	
4087	0	32778	32766	
4088	0	32774	32724	
4089	0	32788	32852	
4090	0	32816	32703	
4091	0	32780	32804	
4092	0	32758	32638	
4093	0	32740	32710	
4094	0	32820	32834	
4095	0	32864	32762	
4096	0	32836	32774	
4097	0	32850	32666	
4098	0	32896	32804	
4099	0	32872	32775	
4100	0	32870	32775	
4101	0	32812	32711	
4102	0	32821	32775	
4103	0	32696	32838	
4104	0	32764	32726	
4105	0	32844	32806	
4106	0	32856	32788	
4107	0	32836	32821	
4108	0	32884	32712	
4109	0	32840	32868	
4110	0	32780	32808	
4111	0	32854	32698	
4112	0	32784	32740	
4113	0	32782	32708	
4114	0	32814	32703	
4115	0	32806	32596	
4116	0	32824	32718	
4117	0	32834	32724	
4118	0	32776	32775	
4119	0	32846	32834	
4120	0	32814	32742	
4121	0	32788	32859	
4122	0	32844	32694	
4123	0	32860	32750	
4124	0	32816	32740	
4125	0	32784	32654	
4126	0	32856	32796	
4127	0	32798	32770	
4128	0	32810	32816	
4129	0	32864	32852	
4130	0	32840	32844	
4131	0	32856	32788	
4132	0	32768	32701	
4133	0	32796	32836	
4134	0	32708	32719	
4135	0	32746	32729	
4136	0	32882	32704	
4137	0	32764	32762	
4138	0	32804	32852	
4139	0	32832	32724	
4140	0	32868	32741	
4141	0	32832	32806	
4142	0	32845	32766	
4143	0	32768	32635	
4144	0	32744	32788	
4145	0	32740	32725	
4146	0	32754	32832	
4147	0	32758	32720	
4148	0	32816	32790	
4149	0	32868	32798	
4150	0	32784	32694	
4151	0	32860	32750	
4152	0	32788	32720	
4153	0	32775	32908	
4154	0	32828	32759	
4155	0	32842	32773	
4156	0	32788	32716	
4157	0	32846	32788	
4158	0	32724	32766	
4159	0	32792	32679	
4160	0	32866	32772	
4161	0	32804	32766	
4162	0	32774	32802	
4163	0	32756	32700	
4164	0	32796	32775	
4165	0	32812	32671	
4166	0	32862	32652	
4167	0	32792	32744	
4168	0	32770	32850	
4169	0	32824	32852	
4170	0	32780	32786	
4171	0	32812	32763	
4172	0	32838	32740	
4173	0	32820	32820	
4174	0	32782	32622	
4175	0	32822	32760	
4176	0	32802	32692	
4177	0	32788	32748	
4178	0	32816	32743	
4179	0	32804	32826	
4180	0	32768	32751	
4181	0	32814	32806	
4182	0	32868	32740	
4183	0	32828	32732	
4184	0	32786	32774	
4185	0	32764	32815	
4186	0	32760	32849	
4187	0	32860	32802	
4188	0	32820	32697	
4189	0	32834	32735	
4190	0	32796	32674	
4191	0	32904	32726	
4192	0	32844	32590	
4193	0	32818	32775	
4194	0	32856	32668	
4195	0	32810	32804	
4196	0	32826	32760	
4197	0	32840	32802	
4198	0	32792	32772	
4199	0	32782	32878	
4200	0	32714	32820	
4201	0	32712	32820	
4202	0	32788	32772	
4203	0	32842	32746	
4204	0	32796	32668	
4205	0	32888	32775	
4206	0	32791	32784	
4207	0	32885	32775	
4208	0	32764	32767	
4209	0	32852	32698	
4210	0	32853	32762	
4211	0	32812	32798	
4212	0	32816	32799	
4213	0	32861	32718	
4214	0	32792	32770	
4215	0	32794	32679	
4216	0	32790	32814	
4217	0	32794	32842	
4218	0	32814	32806	
4219	0	32776	32820	
4220	0	32874	32632	
4221	0	32804	32788	
4222	0	32856	32772	
4223	0	32854	32714	
4224	0	32812	32775	
4225	0	32784	32808	
4226	0	32816	32814	
4227	0	32864	32828	
4228	0	32846	32743	
4229	0	32872	32742	
4230	0	32796	32815	
4231	0	32724	32674	
4232	0	32796	32816	
4233	0	32799	32790	
4234	0	32816	32730	
4235	0	32804	32796	
4236	0	32836	32698	
4237	0	32832	32775	
4238	0	32852	32724	
4239	0	32830	32735	
4240	0	32832	32695	
4241	0	32805	32816	
4242	0	32908	32756	
4243	0	32784	32806	
4244	0	32864	32796	
4245	0	32836	32750	
4246	0	32852	32724	
4247	0	32806	32775	
4248	0	32812	32736	
4249	0	32824	32730	
4250	0	32816	32726	
4251	0	32860	32656	
4252	0	32834	32735	
4253	0	32800	32608	
4254	0	32776	32727	
4255	0	32864	32812	
4256	0	32834	32854	
4257	0	32720	32916	
4258	0	32736	32716	
4259	0	32806	32790	
4260	0	32842	32720	
4261	0	32876	32812	
4262	0	32808	32722	
4263	0	32820	32792	
4264	0	32792	32703	
4265	0	32810	32772	
4266	0	32896	32647	
4267	0	32836	32732	
4268	0	32844	32792	
4269	0	32780	32708	
4270	0	32828	32740	
4271	0	32792	32775	
4272	0	32744	32626	
4273	0	32836	32718	
4274	0	32740	32708	
4275	0	32816	32772	
4276	0	32756	32684	
4277	0	32752	32762	
4278	0	32776	32760	
4279	0	32824	32756	
4280	0	32774	32631	
4281	0	32808	32743	
4282	0	32808	32766	
4283	0	32848	32820	
4284	0	32832	32838	
4285	0	32806	32772	
4286	0	32806	32847	
4287	0	32806	32874	
4288	0	32844	32766	
4289	0	32864	32840	
4290	0	32816	32865	
4291	0	32758	32897	
4292	0	32776	32821	
4293	0	32852	32839	
4294	0	32836	32807	
4295	0	32872	32744	
4296	0	32810	32756	
4297	0	32878	32807	
4298	0	32798	32820	
4299	0	32828	32631	
4300	0	32808	32732	
4301	0	32804	32711	
4302	0	32822	32816	
4303	0	32864	32788	
4304	0	32874	32775	
4305	0	32828	32736	
4306	0	32798	32820	
4307	0	32800	32700	
4308	0	32840	32738	
4309	0	32828	32671	
4310	0	32840	32775	
4311	0	32805	32716	
4312	0	32804	32775	
4313	0	32784	32692	
4314	0	32820	32800	
4315	0	32782	32720	
4316	0	32844	32802	
4317	0	32768	32667	
4318	0	32772	32768	
4319	0	32824	32724	
4320	0	32820	32838	
4321	0	32784	32686	
4322	0	32816	32799	
4323	0	32836	32680	
4324	0	32822	32807	
4325	0	32846	32675	
4326	0	32780	32803	
4327	0	32756	32710	
4328	0	32836	32808	
4329	0	32852	32822	
4330	0	32796	32804	
4331	0	32792	32664	
4332	0	32856	32738	
4333	0	32764	32742	
4334	0	32784	32716	
4335	0	32830	32707	
4336	0	32754	32743	
4337	0	32824	32753	
4338	0	32812	32878	
4339	0	32788	32773	
4340	0	32852	32788	
4341	0	32780	32794	
4342	0	32824	32738	
4343	0	32764	32694	
4344	0	32788	32760	
4345	0	32752	32823	
4346	0	32794	32828	
4347	0	32828	32775	
4348	0	32794	32692	
4349	0	32776	32855	
4350	0	32808	32722	
4351	0	32754	32774	
4352	0	32778	32774	
4353	0	32864	32772	
4354	0	32808	32834	
4355	0	32822	32802	
4356	0	32817	32775	
4357	0	32864	32639	
4358	0	32814	32711	
4359	0	32904	32694	
4360	0	32828	32834	
4361	0	32838	32872	
4362	0	32808	32894	
4363	0	32770	32903	
4364	0	32760	32716	
4365	0	32842	32814	
4366	0	32832	32740	
4367	0	32860	32762	
4368	0	32760	32748	
4369	0	32804	32796	
4370	0	32772	32775	
4371	0	32800	32682	
4372	0	32781	32775	
4373	0	32772	32724	
4374	0	32816	32784	
4375	0	32780	32764	
4376	0	32846	32752	
4377	0	32812	32864	
4378	0	32808	32754	
4379	0	32800	32728	
4380	0	32844	32756	
4381	0	32828	32755	
4382	0	32824	32656	
4383	0	32802	32804	
4384	0	32818	32748	
4385	0	32772	32856	
4386	0	32768	32743	
4387	0	32740	32790	
4388	0	32864	32775	
4389	0	32910	32714	
4390	0	32868	32774	
4391	0	32868	32710	
4392	0	32882	32802	
4393	0	32832	32720	
4394	0	32740	32802	
4395	0	32778	32750	
4396	0	32866	32750	
4397	0	32788	32798	
4398	0	32834	32716	
4399	0	32836	32750	
4400	0	32806	32626	
4401	0	32808	32796	
4402	0	32744	32692	
4403	0	32790	32820	
4404	0	32740	32870	
4405	0	32832	32786	
4406	0	32804	32808	
4407	0	32809	32696	
4408	0	32820	32764	
4409	0	32814	32838	
4410	0	32792	32768	
4411	0	32820	32839	
4412	0	32817	32676	
4413	0	32800	32772	
4414	0	32820	32678	
4415	0	32732	32774	
4416	0	32844	32752	
4417	0	32814	32870	
4418	0	32772	32743	
4419	0	32824	32804	
4420	0	32852	32868	
4421	0	32842	32756	
4422	0	32842	32718	
4423	0	32844	32706	
4424	0	32864	32799	
4425	0	32864	32698	
4426	0	32840	32764	
4427	0	32792	32708	
4428	0	32796	32804	
4429	0	32800	32706	
4430	0	32790	32752	
4431	0	32788	32743	
4432	0	32794	32756	
4433	0	32812	32740	
4434	0	32808	32812	
4435	0	32766	32700	
4436	0	32812	32724	
4437	0	32804	32660	
4438	0	32818	32811	
4439	0	32836	32740	
4440	0	32796	32743	
4441	0	32888	32668	
4442	0	32850	32762	
4443	0	32852	32770	
4444	0	32790	32775	
4445	0	32792	32708	
4446	0	32856	32711	
4447	0	32880	32736	
4448	0	32818	32858	
4449	0	32746	32798	
4450	0	32756	32892	
4451	0	32776	32826	
4452	0	32844	32798	
4453	0	32792	32774	
4454	0	32736	32758	
4455	0	32836	32747	
4456	0	32816	32716	
4457	0	32876	32741	
4458	0	32828	32704	
4459	0	32894	32854	
4460	0	32720	32858	
4461	0	32755	32810	
4462	0	32778	32794	
4463	0	32914	32770	
4464	0	32816	32798	
4465	0	32844	32720	
4466	0	32784	32826	
4467	0	32758	32828	
4468	0	32700	32670	
4469	0	32785	32764	
4470	0	32804	32842	
4471	0	32818	32983	
4472	0	32820	32951	
4473	0	32764	32770	
4474	0	32816	32722	
4475	0	32816	32448	
4476	0	32826	32668	
4477	0	32864	32658	
4478	0	32808	32753	
4479	0	32788	32694	
4480	0	32864	32768	
4481	0	32970	32775	
4482	0	32848	32898	
4483	0	32804	32817	
4484	0	32760	32920	
4485	0	32792	32894	
4486	0	32812	32726	
4487	0	32758	32868	
4488	0	32740	32799	
4489	0	32884	32900	
4490	0	32860	32849	
4491	0	32860	32751	
4492	0	32822	32668	
4493	0	32860	32748	
4494	0	32816	32706	
4495	0	32894	32775	
4496	0	32828	32590	
4497	0	32850	32815	
4498	0	32712	32766	
4499	0	32720	32988	
4500	0	32732	32788	
4501	0	32818	32743	
4502	0	32724	32736	
4503	0	32800	32684	
4504	0	32750	32775	
4505	0	32726	32774	
4506	0	32748	32791	
4507	0	32846	32535	
4508	0	32744	32644	
4509	0	32892	32732	
4510	0	32858	32900	
4511	0	32784	32794	
4512	0	32864	32826	
4513	0	32960	32882	
4514	0	32880	32758	
4515	0	32920	32800	
4516	0	32808	32703	
4517	0	32804	32775	
4518	0	32860	32615	
4519	0	32844	32594	
4520	0	32894	32548	
4521	0	32892	32694	
4522	0	32766	32730	
4523	0	32796	32814	
4524	0	32752	32714	
4525	0	32750	32804	
4526	0	32752	32738	
4527	0	32748	32920	
4528	0	32674	32837	
4529	0	32766	32795	
4530	0	32824	32790	
4531	0	32852	32818	
4532	0	32869	32762	
4533	0	32840	32666	
4534	0	32892	32743	
4535	0	32830	32815	
4536	0	32784	32782	
4537	0	32804	32686	
4538	0	32732	32615	
4539	0	32692	32508	
4540	0	32796	32810	
4541	0	32736	32630	
4542	0	32856	32706	
4543	0	32966	32732	
4544	0	33000	32790	
4545	0	32920	32743	
4546	0	32792	32948	
4547	0	32816	32839	
4548	0	32814	32918	
4549	0	32844	32809	
4550	0	32788	32844	
4551	0	32698	32896	
4552	0	32638	32847	
4553	0	32736	32900	
4554	0	32756	32790	
4555	0	32882	32838	
4556	0	32872	32635	
4557	0	32888	32693	
4558	0	32824	32654	
4559	0	32776	32678	
4560	0	32804	32720	
4561	0	32752	32550	
4562	0	32746	32734	
4563	0	32712	32688	
4564	0	32870	32686	
4565	0	32778	32826	
4566	0	32824	32798	
4567	0	32816	32744	
4568	0	32796	32748	
4569	0	32868	32722	
4570	0	32868	32798	
4571	0	32860	32720	
4572	0	32844	32766	
4573	0	32866	32788	
4574	0	32770	32742	
4575	0	32758	32756	
4576	0	32884	32682	
4577	0	32834	32726	
4578	0	32824	32706	
4579	0	32804	32774	
4580	0	32834	32838	
4581	0	32836	32754	
4582	0	32842	32710	
4583	0	32852	32767	
4584	0	32780	32775	
4585	0	32826	32702	
4586	0	32822	32867	
4587	0	32772	32799	
4588	0	32824	32711	
4589	0	32754	32806	
4590	0	32804	32838	
4591	0	32816	32839	
4592	0	33016	32808	
4593	0	32912	32706	
4594	0	32752	32676	
4595	0	32844	32618	
4596	0	32806	32815	
4597	0	32736	32775	
4598	0	32736	32882	
4599	0	32790	32926	
4600	0	32694	32748	
4601	0	32768	32628	
4602	0	32869	32584	
4603	0	32832	32723	
4604	0	32918	32714	
4605	0	32832	32806	
4606	0	32764	32852	
4607	0	32816	32880	
4608	0	32842	32888	
4609	0	32796	32823	
4610	0	32734	32849	
4611	0	32796	32770	
4612	0	32868	32834	
4613	0	32864	32740	
4614	0	32836	32770	
4615	0	32808	32711	
4616	0	32828	32758	
4617	0	32812	32709	
4618	0	32788	32728	
4619	0	32810	32679	
4620	0	32797	32766	
4621	0	32838	32832	
4622	0	32868	32842	
4623	0	32814	32720	
4624	0	32838	32624	
4625	0	32788	32620	
4626	0	32744	32676	
4627	0	32818	32710	
4628	0	32776	32826	
4629	0	32780	32930	
4630	0	32724	32767	
4631	0	32768	32898	
4632	0	32730	32937	
4633	0	32700	32801	
4634	0	32848	32919	
4635	0	32784	32762	
4636	0	32794	32764	
4637	0	32844	32668	
4638	0	32792	32895	
4639	0	32814	32775	
4640	0	32800	32806	
4641	0	32857	32710	
4642	0	32864	32615	
4643	0	32832	32760	
4644	0	32854	32799	
4645	0	32824	32724	
4646	0	32756	32695	
4647	0	32772	32834	
4648	0	32812	32758	
4649	0	32804	32752	
4650	0	32846	32802	
4651	0	32888	32682	
4652	0	32862	32730	
4653	0	32790	32746	
4654	0	32768	32774	
4655	0	32760	32756	
4656	0	32752	32710	
4657	0	32828	32811	
4658	0	32842	32711	
4659	0	32794	32762	
4660	0	32880	32730	
4661	0	32780	32902	
4662	0	32776	32746	
4663	0	32860	32796	
4664	0	32816	32828	
4665	0	32746	32770	
4666	0	32740	32724	
4667	0	32782	32706	
4668	0	32768	32743	
4669	0	32746	32775	
4670	0	32776	32842	
4671	0	32788	32730	
4672	0	32804	32830	
4673	0	32736	32854	
4674	0	32836	32744	
4675	0	32836	32775	
4676	0	32894	32712	
4677	0	32808	32750	
4678	0	32750	32728	
4679	0	32760	32743	
4680	0	32724	32686	
4681	0	32842	32775	
4682	0	32784	32646	
4683	0	32824	32775	
4684	0	32824	32740	
4685	0	32884	32748	
4686	0	32812	32807	
4687	0	32864	32698	
4688	0	32831	32802	
4689	0	32848	32775	
4690	0	32846	32808	
4691	0	32880	32698	
4692	0	32776	32876	
4693	0	32770	32747	
4694	0	32824	32862	
4695	0	32806	32724	
4696	0	32760	32751	
4697	0	32720	32628	
4698	0	32768	32719	
4699	0	32880	32714	
4700	0	32834	32854	
4701	0	32780	32804	
4702	0	32852	32822	
4703	0	32836	32788	
4704	0	32756	32657	
4705	0	32728	32796	
4706	0	32772	32738	
4707	0	32828	32756	
4708	0	32802	32792	
4709	0	32764	32750	
4710	0	32826	32764	
4711	0	32900	32796	
4712	0	32872	32694	
4713	0	32868	32754	
4714	0	32809	32702	
4715	0	32706	32700	
4716	0	32752	32690	
4717	0	32824	32686	
4718	0	32832	32711	
4719	0	32836	32756	
4720	0	32836	32884	
4721	0	32928	32815	
4722	0	32878	32967	
4723	0	32816	32862	
4724	0	32792	32806	
4725	0	32668	32723	
4726	0	32692	32711	
4727	0	32875	32740	
4728	0	32874	32764	
4729	0	32820	32832	
4730	0	32704	32756	
4731	0	32852	32892	
4732	0	32852	32810	
4733	0	32828	32867	
4734	0	32928	32686	
4735	0	32838	32714	
4736	0	32804	32772	
4737	0	32824	32743	
4738	0	32848	32838	
4739	0	32792	32747	
4740	0	32804	32736	
4741	0	32775	32703	
4742	0	32784	32754	
4743	0	32862	32730	
4744	0	32948	32736	
4745	0	32784	32548	
4746	0	32856	32788	
4747	0	32840	32710	
4748	0	32768	32854	
4749	0	32654	32804	
4750	0	32672	32967	
4751	0	32728	32812	
4752	0	32798	32821	
4753	0	32760	32672	
4754	0	32712	32847	
4755	0	32832	32712	
4756	0	32784	32724	
4757	0	32756	32672	
4758	0	32712	32762	
4759	0	32796	32735	
4760	0	32760	32740	
4761	0	32668	32896	
4762	0	32704	32689	
4763	0	32770	32732	
4764	0	32800	32414	
4765	0	32720	32464	
4766	0	32812	32500	
4767	0	32702	32535	
4768	0	32718	32695	
4769	0	32708	32775	
4770	0	32830	32910	
4771	0	32746	32903	
4772	0	32706	32842	
4773	0	32768	32988	
4774	0	32775	32942	
4775	0	32916	32768	
4776	0	33008	32687	
4777	0	32994	32655	
4778	0	32914	32835	
4779	0	32954	32775	
4780	0	32932	32822	
4781	0	32936	32862	
4782	0	32924	32737	
4783	0	33077	32830	
4784	0	33118	32903	
4785	0	33050	32711	
4786	0	33012	32750	
4787	0	33060	32830	
4788	0	32932	32958	
4789	0	32888	32911	
4790	0	32824	32950	
4791	0	32817	32934	
4792	0	32832	33040	
4793	0	32780	33048	
4794	0	32866	32876	
4795	0	32774	32800	
4796	0	32878	32622	
4797	0	32704	32736	
4798	0	32658	32742	
4799	0	32696	32586	
4800	0	32584	32602	
4801	0	32616	32604	
4802	0	32676	32753	
4803	0	32672	32674	
4804	0	32618	32852	
4805	0	32528	32775	
4806	0	32674	32804	
4807	0	32702	32748	
4808	0	32788	32796	
4809	0	32822	32839	
4810	0	32870	32814	
4811	0	32924	32913	
4812	0	32846	32836	
4813	0	32768	32812	
4814	0	32838	32718	
4815	0	32898	32666	
4816	0	32754	32632	
4817	0	32800	32746	
4818	0	32860	32743	
4819	0	32858	32954	
4820	0	32904	32807	
4821	0	32782	32566	
4822	0	32788	32650	
4823	0	32740	32532	
4824	0	32908	32647	
4825	0	32934	32626	
4826	0	32966	32844	
4827	0	32912	32794	
4828	0	32824	32688	
4829	0	32778	32672	
4830	0	32704	32826	
4831	0	32716	32863	
4832	0	32746	32846	
4833	0	32748	32818	
4834	0	32711	32754	
4835	0	32780	32840	
4836	0	32852	32760	
4837	0	32920	32724	
4838	0	32872	32686	
4839	0	32894	32772	
4840	0	32904	32852	
4841	0	32868	32692	
4842	0	32830	32903	
4843	0	32896	32836	
4844	0	32858	32666	
4845	0	32892	32704	
4846	0	32806	32732	
4847	0	32758	32737	
4848	0	32744	32716	
4849	0	32883	32888	
4850	0	32836	32822	
4851	0	32792	32742	
4852	0	32764	32839	
4853	0	32653	32827	
4854	0	32676	32812	
4855	0	32590	32756	
4856	0	32690	32826	
4857	0	32750	32640	
4858	0	32780	32790	
4859	0	32816	32750	
4860	0	32916	32796	
4861	0	32790	32818	
4862	0	32830	32738	
4863	0	32872	32787	
4864	0	32888	32756	
4865	0	32868	32754	
4866	0	32852	32657	
4867	0	32824	32898	
4868	0	32756	32755	
4869	0	32900	32820	
4870	0	32816	32754	
4871	0	32798	32796	
4872	0	32770	32822	
4873	0	32842	32775	
4874	0	32762	32775	
4875	0	32760	32672	
4876	0	32934	32654	
4877	0	32916	32638	
4878	0	32842	32775	
4879	0	32770	32615	
4880	0	32672	32586	
4881	0	32728	32654	
4882	0	32758	32792	
4883	0	32796	32942	
4884	0	32880	32788	
4885	0	32884	32818	
4886	0	32823	32706	
4887	0	32796	32790	
4888	0	32760	32842	
4889	0	32800	32814	
4890	0	32816	32820	
4891	0	32804	32639	
4892	0	32868	32718	
4893	0	32824	32606	
4894	0	32754	32694	
4895	0	32748	32622	
4896	0	32766	32638	
4897	0	32854	32671	
4898	0	32756	32711	
4899	0	32800	32647	
4900	0	32757	32796	
4901	0	32788	32750	
4902	0	32780	32992	
4903	0	32772	32770	
4904	0	32830	32820	
4905	0	32768	32775	
4906	0	32836	32821	
4907	0	32842	32738	
4908	0	32844	32761	
4909	0	32870	32876	
4910	0	32916	32848	
4911	0	32978	32842	
4912	0	32776	32860	
4913	0	32756	32711	
4914	0	32788	32850	
4915	0	32780	32903	
4916	0	32804	32666	
4917	0	32778	32724	
4918	0	32738	32546	
4919	0	32780	32798	
4920	0	32812	32866	
4921	0	32842	32852	
4922	0	32770	32696	
4923	0	32697	32628	
4924	0	32794	32647	
4925	0	32820	32618	
4926	0	32916	32712	
4927	0	32920	32588	
4928	0	32920	32836	
4929	0	32864	33031	
4930	0	32820	32889	
4931	0	32732	32930	
4932	0	32756	32858	
4933	0	32728	32868	
4934	0	32688	32804	
4935	0	32808	32774	
4936	0	32880	32748	
4937	0	32788	32586	
4938	0	32724	32671	
4939	0	32726	32678	
4940	0	32804	32687	
4941	0	32790	32775	
4942	0	32760	32882	
4943	0	32774	32822	
4944	0	32798	32834	
4945	0	32724	32775	
4946	0	32804	32758	
4947	0	32812	32894	
4948	0	32900	32838	
4949	0	32816	32882	
4950	0	32792	32784	
4951	0	32852	32868	
4952	0	32832	32866	
4953	0	32820	32876	
4954	0	32828	32921	
4955	0	32896	32772	
4956	0	32869	32704	
4957	0	32840	32662	
4958	0	32804	32800	
4959	0	32872	32670	
4960	0	32878	32740	
4961	0	32814	32670	
4962	0	32804	32748	
4963	0	32806	32692	
4964	0	32764	32701	
4965	0	32788	32635	
4966	0	32872	32674	
4967	0	32912	32486	
4968	0	32860	32808	
4969	0	32852	32814	
4970	0	32760	32900	
4971	0	32712	32956	
4972	0	32756	32864	
4973	0	32672	32876	
4974	0	32762	32689	
4975	0	32806	32760	
4976	0	32822	32732	
4977	0	32825	32751	
4978	0	32756	32682	
4979	0	32816	32690	
4980	0	32864	32668	
4981	0	32842	32615	
4982	0	32796	32698	
4983	0	32758	32732	
4984	0	32804	32903	
4985	0	32748	32753	
4986	0	32756	32708	
4987	0	32836	32662	
4988	0	32832	32832	
4989	0	32841	32556	
4990	0	32836	32766	
4991	0	32812	32748	
4992	0	32874	32852	
4993	0	32910	32734	
4994	0	32864	32755	
4995	0	32762	32962	
4996	0	32774	32967	
4997	0	32852	32855	
4998	0	32856	32760	
4999	0	32804	32733	
5000	0	32868	32798	
5001	0	32828	32676	
5002	0	32826	32722	
5003	0	32804	32616	
5004	0	32882	32742	
5005	0	32880	32816	
5006	0	32816	32880	
5007	0	32712	32644	
5008	0	32788	32684	
5009	0	32672	32816	
5010	0	32800	32736	
5011	0	32856	32556	
5012	0	32788	32775	
5013	0	32836	32732	
5014	0	32888	32746	
5015	0	32876	32692	
5016	0	32856	32785	
5017	0	32804	32883	
5018	0	32744	32766	
5019	0	32640	32775	
5020	0	32518	32714	
5021	0	32696	32730	
5022	0	32888	32647	
5023	0	32912	32680	
5024	0	32921	32742	
5025	0	32824	32808	
5026	0	32906	32770	
5027	0	32945	32810	
5028	0	32868	32832	
5029	0	32892	32814	
5030	0	32876	32862	
5031	0	32834	32698	
5032	0	32772	32830	
5033	0	32780	32770	
5034	0	32836	32854	
5035	0	32769	32912	
5036	0	32796	32868	
5037	0	32816	32887	
5038	0	32884	32834	
5039	0	32908	32688	
5040	0	32836	32608	
5041	0	32816	32526	
5042	0	32796	32656	
5043	0	32736	32586	
5044	0	32618	32788	
5045	0	32672	32871	
5046	0	32728	33007	
5047	0	32722	32886	
5048	0	32864	32903	
5049	0	32876	32781	
5050	0	32824	32834	
5051	0	32864	32615	
5052	0	32890	32744	
5053	0	33024	32616	
5054	0	32936	32680	
5055	0	32886	32814	
5056	0	32864	32863	
5057	0	32812	32903	
5058	0	32732	32950	
5059	0	32662	32734	
5060	0	32664	32806	
5061	0	32724	32887	
5062	0	32696	32858	
5063	0	32768	32775	
5064	0	32856	32756	
5065	0	32860	32574	
5066	0	32796	32772	
5067	0	32720	32846	
5068	0	32744	32684	
5069	0	32744	32654	
5070	0	32940	32794	
5071	0	32822	32614	
5072	0	32784	32756	
5073	0	32862	32678	
5074	0	32956	32786	
5075	0	32870	32738	
5076	0	32886	32775	
5077	0	32846	32712	
5078	0	32864	32740	
5079	0	32784	32888	
5080	0	32728	32890	
5081	0	32856	32881	
5082	0	32750	32775	
5083	0	32822	32699	
5084	0	32654	32838	
5085	0	32716	32924	
5086	0	32740	32794	
5087	0	32668	32740	
5088	0	32716	32775	
5089	0	32812	32817	
5090	0	32788	32708	
5091	0	32928	32686	
5092	0	32948	32760	
5093	0	32864	32838	
5094	0	32896	32957	
5095	0	32864	32844	
5096	0	32852	32935	
5097	0	32840	32804	
5098	0	32800	32730	
5099	0	32884	32658	
5100	0	32828	32728	
5101	0	32756	32808	
5102	0	32764	32736	
5103	0	32792	32502	
5104	0	32798	32655	
5105	0	32742	32646	
5106	0	32772	32676	
5107	0	32792	32794	
5108	0	32836	32842	
5109	0	32900	32884	
5110	0	32870	32839	
5111	0	32768	32711	
5112	0	32820	32732	
5113	0	32728	32760	
5114	0	32756	32723	
5115	0	32874	32775	
5116	0	32882	32774	
5117	0	32762	32775	
5118	0	32804	32647	
5119	0	32876	32814	
5120	0	32924	32750	
5121	0	32748	32732	
5122	0	32724	32700	
5123	0	32784	32726	
5124	0	32696	32732	
5125	0	32820	32775	
5126	0	32852	32676	
5127	0	32784	32772	
5128	0	32756	32623	
5129	0	32744	32772	
5130	0	32904	32774	
5131	0	32960	32775	
5132	0	32824	32726	
5133	0	32804	32768	
5134	0	32760	32596	
5135	0	32974	32724	
5136	0	32888	32839	
5137	0	32676	32711	
5138	0	32636	32734	
5139	0	32704	32644	
5140	0	32776	32756	
5141	0	32780	32748	
5142	0	32732	32967	
5143	0	32804	32895	
5144	0	32918	32902	
5145	0	32928	32870	
5146	0	32928	32918	
5147	0	32806	32781	
5148	0	32768	32740	
5149	0	32804	32644	
5150	0	32784	32768	
5151	0	32782	32644	
5152	0	32760	32775	
5153	0	32824	32807	
5154	0	32922	32964	
5155	0	32944	32775	
5156	0	32932	32655	
5157	0	32838	32593	
5158	0	32832	32790	
5159	0	32830	32775	
5160	0	32816	32828	
5161	0	32868	32788	
5162	0	32772	32743	
5163	0	32782	32794	
5164	0	32804	32726	
5165	0	32788	32684	
5166	0	32718	32775	
5167	0	32698	32638	
5168	0	32680	32727	
5169	0	32794	32796	
5170	0	32968	32879	
5171	0	32956	32718	
5172	0	32860	32872	
5173	0	32868	32978	
5174	0	32776	32836	
5175	0	32775	32849	
5176	0	32684	32808	
5177	0	32654	32830	
5178	0	32670	32762	
5179	0	32770	32770	
5180	0	32852	32811	
5181	0	32872	32639	
5182	0	32870	32834	
5183	0	32824	32743	
5184	0	32868	32862	
5185	0	32900	32826	
5186	0	32880	32804	
5187	0	32919	32679	
5188	0	32804	32766	
5189	0	32664	32734	
5190	0	32756	32782	
5191	0	32872	32804	
5192	0	32812	32720	
5193	0	32778	32820	
5194	0	32780	32647	
5195	0	32904	32700	
5196	0	32812	32775	
5197	0	32796	32930	
5198	0	32749	32686	
5199	0	32778	32847	
5200	0	32864	32690	
5201	0	32932	32802	
5202	0	32700	32846	
5203	0	32832	32863	
5204	0	32726	32744	
5205	0	32772	32816	
5206	0	32924	32844	
5207	0	32824	32804	
5208	0	32864	32710	
5209	0	32674	32686	
5210	0	32788	32684	
5211	0	32832	32855	
5212	0	32854	32846	
5213	0	32836	32839	
5214	0	32748	32856	
5215	0	32884	32882	
5216	0	32860	32766	
5217	0	32902	32716	
5218	0	32866	32574	
5219	0	32824	32711	
5220	0	32784	32752	
5221	0	32674	32818	
5222	0	32756	32748	
5223	0	32774	32816	
5224	0	32836	32768	
5225	0	32752	32916	
5226	0	32820	32790	
5227	0	32982	32714	
5228	0	32824	32806	
5229	0	32798	32874	
5230	0	32882	33012	
5231	0	32806	32862	
5232	0	32660	32724	
5233	0	32672	32802	
5234	0	32668	32775	
5235	0	32898	32738	
5236	0	32770	32679	
5237	0	32793	32692	
5238	0	32848	32676	
5239	0	32830	32682	
5240	0	32822	32596	
5241	0	32812	32775	
5242	0	32912	32904	
5243	0	32950	32683	
5244	0	32812	32793	
5245	0	32720	32719	
5246	0	32704	32705	
5247	0	32708	32714	
5248	0	32830	32902	
5249	0	32942	32860	
5250	0	32820	32750	
5251	0	32880	32628	
5252	0	32824	32788	
5253	0	32824	32769	
5254	0	32872	32730	
5255	0	32748	32806	
5256	0	32932	32830	
5257	0	32913	32858	
5258	0	32789	32838	
5259	0	32802	32792	
5260	0	32664	32698	
5261	0	32721	32748	
5262	0	32798	32839	
5263	0	32680	32794	
5264	0	32736	32680	
5265	0	32908	32794	
5266	0	32852	32738	
5267	0	32840	32711	
5268	0	32846	32704	
5269	0	32776	32784	
5270	0	32798	32775	
5271	0	32852	32775	
5272	0	32802	32711	
5273	0	32836	32764	
5274	0	32892	32714	
5275	0	32836	32804	
5276	0	32794	32726	
5277	0	32664	32775	
5278	0	32746	32775	
5279	0	32820	32775	
5280	0	32884	32713	
5281	0	33000	32740	
5282	0	32892	32918	
5283	0	32769	32858	
5284	0	32864	32789	
5285	0	32884	32856	
5286	0	32912	32836	
5287	0	32772	32900	
5288	0	32748	32892	
5289	0	32700	32962	
5290	0	32744	32772	
5291	0	32878	32807	
5292	0	32756	32743	
5293	0	32812	32750	
5294	0	32804	32811	
5295	0	32692	32852	
5296	0	32764	32692	
5297	0	33012	32899	
5298	0	32864	32719	
5299	0	32736	32956	
5300	0	32760	32799	
5301	0	32894	32790	
5302	0	32826	32880	
5303	0	32838	32668	
5304	0	32902	32546	
5305	0	32900	32605	
5306	0	32738	32874	
5307	0	32688	32758	
5308	0	32732	32726	
5309	0	32970	32718	
5310	0	32896	32807	
5311	0	32884	32712	
5312	0	32744	32772	
5313	0	32744	32608	
5314	0	32854	32756	
5315	0	32878	32706	
5316	0	32954	32850	
5317	0	32880	32732	
5318	0	32786	32884	
5319	0	32852	32732	
5320	0	32872	32726	
5321	0	32816	32712	
5322	0	32740	32718	
5323	0	32720	32668	
5324	0	32709	32890	
5325	0	32624	32746	
5326	0	32726	32742	
5327	0	32920	32592	
5328	0	32796	32678	
5329	0	32752	32615	
5330	0	32804	32744	
5331	0	32840	32756	
5332	0	32946	32914	
5333	0	32938	32834	
5334	0	32900	32796	
5335	0	32888	32822	
5336	0	32758	32718	
5337	0	32872	32850	
5338	0	32759	32804	
5339	0	32872	32672	
5340	0	32910	32668	
5341	0	32828	32735	
5342	0	32816	32788	
5343	0	32854	32807	
5344	0	32748	32945	
5345	0	32740	32918	
5346	0	32756	32839	
5347	0	32720	32695	
5348	0	32722	32750	
5349	0	32800	32808	
5350	0	32804	32825	
5351	0	32780	32688	
5352	0	32732	32648	
5353	0	32748	32741	
5354	0	32804	32700	
5355	0	32860	32959	
5356	0	32962	32823	
5357	0	32868	32899	
5358	0	32734	32822	
5359	0	32720	32775	
5360	0	32910	32882	
5361	0	32876	32754	
5362	0	33032	32894	
5363	0	33121	32772	
5364	0	32928	32596	
5365	0	32876	32583	
5366	0	32932	32598	
5367	0	32858	32754	
5368	0	32770	33028	
5369	0	32654	32944	
5370	0	32672	32754	
5371	0	32738	32684	
5372	0	32740	32769	
5373	0	32758	32692	
5374	0	32654	32692	
5375	0	32502	32664	
5376	0	32730	32860	
5377	0	32896	32684	
5378	0	32862	32732	
5379	0	32870	32837	
5380	0	32844	32854	
5381	0	32832	32823	
5382	0	32804	32768	
5383	0	32901	32788	
5384	0	32788	32775	
5385	0	32748	32926	
5386	0	32832	32810	
5387	0	32836	32716	
5388	0	32894	32597	
5389	0	32852	32804	
5390	0	32968	32748	
5391	0	32956	32903	
5392	0	32892	32684	
5393	0	32710	32718	
5394	0	32736	32725	
5395	0	32790	32808	
5396	0	32756	32623	
5397	0	32764	32668	
5398	0	32832	32652	
5399	0	32810	32692	
5400	0	32884	32740	
5401	0	32820	32867	
5402	0	32772	32796	
5403	0	32698	32836	
5404	0	32752	32732	
5405	0	32732	32630	
5406	0	32748	32640	
5407	0	32846	32622	
5408	0	32890	32729	
5409	0	32906	32744	
5410	0	32954	32812	
5411	0	32792	32647	
5412	0	32696	32830	
5413	0	32728	32766	
5414	0	32821	32822	
5415	0	32788	32750	
5416	0	32784	32773	
5417	0	32840	32814	
5418	0	32844	32774	
5419	0	32844	32860	
5420	0	32856	32678	
5421	0	32790	32863	
5422	0	32794	32742	
5423	0	32920	32775	
5424	0	32828	32713	
5425	0	32748	32713	
5426	0	32808	32775	
5427	0	32876	32743	
5428	0	32928	32785	
5429	0	32880	32759	
5430	0	32828	32784	
5431	0	32692	32868	
5432	0	32790	32826	
5433	0	32696	32871	
5434	0	32724	33000	
5435	0	32808	32818	
5436	0	32820	32678	
5437	0	32816	32694	
5438	0	32836	32646	
5439	0	32856	32673	
5440	0	32828	32743	
5441	0	32832	32822	
5442	0	32752	32730	
5443	0	32810	32871	
5444	0	32842	32767	
5445	0	32792	32884	
5446	0	32812	32769	
5447	0	32848	32812	
5448	0	32808	32796	
5449	0	32808	32686	
5450	0	32860	32736	
5451	0	32824	32663	
5452	0	32864	32871	
5453	0	32808	32844	
5454	0	32760	32730	
5455	0	32768	32704	
5456	0	32708	32620	
5457	0	32812	32746	
5458	0	32868	32811	
5459	0	32792	32803	
5460	0	32780	32732	
5461	0	32704	32588	
5462	0	32836	32764	
5463	0	32808	32753	
5464	0	32894	32812	
5465	0	32824	32900	
5466	0	32750	32840	
5467	0	32872	32732	
5468	0	32912	32626	
5469	0	32748	32734	
5470	0	32894	32702	
5471	0	32948	32728	
5472	0	32932	32710	
5473	0	32960	32743	
5474	0	32836	32804	
5475	0	32716	32742	
5476	0	32756	32742	
5477	0	32836	32694	
5478	0	32760	32846	
5479	0	32902	32686	
5480	0	32768	32748	
5481	0	32636	32728	
5482	0	32680	32650	
5483	0	32728	32812	
5484	0	32780	32710	
5485	0	32828	32798	
5486	0	32856	32743	
5487	0	32828	32796	
5488	0	32792	32768	
5489	0	32872	32726	
5490	0	32840	32820	
5491	0	32728	32775	
5492	0	32728	32960	
5493	0	32800	32926	
5494	0	32820	32741	
5495	0	32976	32690	
5496	0	32834	32668	
5497	0	32832	32734	
5498	0	32820	32634	
5499	0	32868	32684	
5500	0	32864	32647	
5501	0	32700	32702	
5502	0	32736	32660	
5503	0	32766	32882	
5504	0	32840	32806	
5505	0	32840	32858	
5506	0	32872	32838	
5507	0	32782	32750	
5508	0	32744	32788	
5509	0	32820	32774	
5510	0	32868	32775	
5511	0	32660	32866	
5512	0	32764	32836	
5513	0	32862	32864	
5514	0	32770	32686	
5515	0	32756	32828	
5516	0	32710	32756	
5517	0	32772	32679	
5518	0	32772	32722	
5519	0	32784	32664	
5520	0	32796	32658	
5521	0	32752	32738	
5522	0	32766	32692	
5523	0	32788	32534	
5524	0	32753	32560	
5525	0	32700	32544	
5526	0	32708	32628	
5527	0	32706	32631	
5528	0	32868	32831	
5529	0	32804	32775	
5530	0	32738	32737	
5531	0	32748	32756	
5532	0	32908	32831	
5533	0	32944	32760	
5534	0	32932	32838	
5535	0	32720	32514	
5536	0	32688	32544	
5537	0	32792	32723	
5538	0	32938	32852	
5539	0	32932	32822	
5540	0	32932	32927	
5541	0	33100	32888	
5542	0	33172	32894	
5543	0	33118	32740	
5544	0	33046	32886	
5545	0	32948	32810	
5546	0	32846	32972	
5547	0	32804	32838	
5548	0	32746	32820	
5549	0	32752	32775	
5550	0	32768	32890	
5551	0	33040	33031	
5552	0	32908	33106	
5553	0	32846	32912	
5554	0	32793	32874	
5555	0	32878	32876	
5556	0	32694	32728	
5557	0	32720	32756	
5558	0	32884	32708	
5559	0	32740	32772	
5560	0	32712	32654	
5561	0	32692	32615	
5562	0	32761	32700	
5563	0	32760	32676	
5564	0	32644	32788	
5565	0	32592	32807	
5566	0	32558	32624	
5567	0	32640	32718	
5568	0	32704	32614	
5569	0	32802	32700	
5570	0	32816	32772	
5571	0	32808	32694	
5572	0	32964	32828	
5573	0	32770	32807	
5574	0	32680	32904	
5575	0	32878	32708	
5576	0	32838	32486	
5577	0	32764	32628	
5578	0	32784	32692	
5579	0	32834	32722	
5580	0	32996	32810	
5581	0	32884	32816	
5582	0	32900	32752	
5583	0	32860	32730	
5584	0	32958	32838	
5585	0	32800	32894	
5586	0	32740	32775	
5587	0	32718	32826	
5588	0	32696	32684	
5589	0	32692	32695	
5590	0	32812	32624	
5591	0	32880	32808	
5592	0	32870	32750	
5593	0	32846	32800	
5594	0	32944	32764	
5595	0	32826	32674	
5596	0	32764	32878	
5597	0	32818	32712	
5598	0	32725	32897	
5599	0	32708	33013	
5600	0	32761	32884	
5601	0	32934	32736	
5602	0	32708	32550	
5603	0	32792	32565	
5604	0	32854	32712	
5605	0	32816	32816	
5606	0	32764	32686	
5607	0	32730	32775	
5608	0	32768	32732	
5609	0	32676	32830	
5610	0	32716	32918	
5611	0	32846	32730	
5612	0	32900	32775	
5613	0	32856	32775	
5614	0	32860	32791	
5615	0	32872	32679	
5616	0	32804	32819	
5617	0	32838	32734	
5618	0	32804	32679	
5619	0	32864	32816	
5620	0	32938	32760	
5621	0	32756	32775	
5622	0	32774	32640	
5623	0	32788	32604	
5624	0	32860	32634	
5625	0	32828	32632	
5626	0	32800	32843	
5627	0	32796	32868	
5628	0	32800	32938	
5629	0	32844	32758	
5630	0	32808	32847	
5631	0	32808	32919	
5632	0	32772	32870	
5633	0	32894	32884	
5634	0	32876	32894	
5635	0	32748	32796	
5636	0	32836	32775	
5637	0	32772	32764	
5638	0	32820	32795	
5639	0	32712	32762	
5640	0	32808	32748	
5641	0	32876	32723	
5642	0	32768	32772	
5643	0	32840	32814	
5644	0	32776	32793	
5645	0	32754	32798	
5646	0	32784	32886	
5647	0	32816	32846	
5648	0	32856	32791	
5649	0	32784	32718	
5650	0	32770	32812	
5651	0	32842	32732	
5652	0	32846	32802	
5653	0	32778	32756	
5654	0	32772	32758	
5655	0	32896	32691	
5656	0	32838	32806	
5657	0	32750	32708	
5658	0	32852	32750	
5659	0	32772	32637	
5660	0	32828	32764	
5661	0	32844	32804	
5662	0	32772	32802	
5663	0	32788	32756	
5664	0	32748	32794	
5665	0	32824	32806	
5666	0	32852	32811	
5667	0	32824	32818	
5668	0	32698	32631	
5669	0	32820	32732	
5670	0	32792	32647	
5671	0	32774	32756	
5672	0	32816	32791	
5673	0	32796	32870	
5674	0	32780	32862	
5675	0	32712	32848	
5676	0	32798	32645	
5677	0	32920	32775	
5678	0	32900	32733	
5679	0	32824	32730	
5680	0	32896	32775	
5681	0	32844	32724	
5682	0	32836	32768	
5683	0	32810	32652	
5684	0	32794	32672	
5685	0	32736	32732	
5686	0	32600	32849	
5687	0	32656	32830	
5688	0	32772	32810	
5689	0	32832	32719	
5690	0	32862	32664	
5691	0	32736	32700	
5692	0	32704	32792	
5693	0	32776	32802	
5694	0	33032	32688	
5695	0	32876	32804	
5696	0	32868	32716	
5697	0	32898	32816	
5698	0	32852	32798	
5699	0	32792	32736	
5700	0	32732	32728	
5701	0	32746	32702	
5702	0	32684	32746	
5703	0	32816	32764	
5704	0	32744	32804	
5705	0	32876	32742	
5706	0	32876	32800	
5707	0	32882	32742	
5708	0	32796	32724	
5709	0	32740	32711	
5710	0	32804	32828	
5711	0	32788	32736	
5712	0	32744	32775	
5713	0	32852	32768	
5714	0	32760	32724	
5715	0	32808	32757	
5716	0	32804	32612	
5717	0	32874	32732	
5718	0	32774	32692	
5719	0	32843	32775	
5720	0	32772	32724	
5721	0	32820	32897	
5722	0	32796	32719	
5723	0	32700	32658	
5724	0	32584	32712	
5725	0	32752	32740	
5726	0	32832	32839	
5727	0	32984	32886	
5728	0	32932	32867	
5729	0	32944	32775	
5730	0	32944	32830	
5731	0	32774	32818	
5732	0	32728	32807	
5733	0	32682	32818	
5734	0	32762	32793	
5735	0	32810	32828	
5736	0	32780	32814	
5737	0	32852	32866	
5738	0	32716	32804	
5739	0	32816	32791	
5740	0	32849	32852	
5741	0	32924	32872	
5742	0	32810	32746	
5743	0	32776	32790	
5744	0	32856	32700	
5745	0	32780	32800	
5746	0	32832	32760	
5747	0	32776	32842	
5748	0	32796	32798	
5749	0	32844	32823	
5750	0	32848	32704	
5751	0	32844	32849	
5752	0	32770	32676	
5753	0	32816	32764	
5754	0	32840	32735	
5755	0	32800	32868	
5756	0	32936	32775	
5757	0	32928	32807	
5758	0	32832	32719	
5759	0	32818	32698	
5760	0	32824	32656	
5761	0	32810	32640	
5762	0	32788	32814	
5763	0	32812	32622	
5764	0	32708	32760	
5765	0	32824	32696	
5766	0	32776	32756	
5767	0	32814	32804	
5768	0	32976	32762	
5769	0	32840	32892	
5770	0	32760	32936	
5771	0	32812	32924	
5772	0	32770	32919	
5773	0	32824	32935	
5774	0	32792	32827	
5775	0	32768	32807	
5776	0	32752	32827	
5777	0	32724	32775	
5778	0	32866	32766	
5779	0	32888	32758	
5780	0	32914	32596	
5781	0	32836	32700	
5782	0	32816	32584	
5783	0	32798	32554	
5784	0	32872	32664	
5785	0	32808	32742	
5786	0	32842	32703	
5787	0	32826	32890	
5788	0	32803	32724	
5789	0	32780	32857	
5790	0	32840	32854	
5791	0	32802	32705	
5792	0	32774	32865	
5793	0	32800	32784	
5794	0	32818	32798	
5795	0	32758	32678	
5796	0	32762	32695	
5797	0	32812	32678	
5798	0	32852	32628	
5799	0	32812	32750	
5800	0	32800	32790	
5801	0	32752	32807	
5802	0	32852	32668	
5803	0	32900	32698	
5804	0	32796	32727	
5805	0	32730	32770	
5806	0	32728	32719	
5807	0	32800	32752	
5808	0	32832	32706	
5809	0	32672	32839	
5810	0	32826	32711	
5811	0	32792	32808	
5812	0	32746	32856	
5813	0	32868	32886	
5814	0	32788	32703	
5815	0	32886	32775	
5816	0	32772	32831	
5817	0	32796	32822	
5818	0	32796	32802	
5819	0	32804	32714	
5820	0	32832	32879	
5821	0	32888	32740	
5822	0	32836	32757	
5823	0	32832	32720	
5824	0	32817	32854	
5825	0	32828	32817	
5826	0	32821	32756	
5827	0	32710	32716	
5828	0	32752	32794	
5829	0	32794	32714	
5830	0	32800	32806	
5831	0	32832	32718	
5832	0	32779	32775	
5833	0	32788	32736	
5834	0	32852	32810	
5835	0	32912	32700	
5836	0	32808	32846	
5837	0	32808	32671	
5838	0	32788	32744	
5839	0	32738	32592	
5840	0	32646	32743	
5841	0	32756	32647	
5842	0	32810	32775	
5843	0	32872	32698	
5844	0	32848	32884	
5845	0	32789	32806	
5846	0	32856	32804	
5847	0	32868	32775	
5848	0	32852	32818	
5849	0	32816	32686	
5850	0	32852	32774	
5851	0	32816	32692	
5852	0	32820	32793	
5853	0	32816	32760	
5854	0	32820	32902	
5855	0	32792	32696	
5856	0	32724	32809	
5857	0	32718	32794	
5858	0	32748	32768	
5859	0	32854	32790	
5860	0	32988	32692	
5861	0	32824	32862	
5862	0	32786	32878	
5863	0	32776	32868	
5864	0	32836	32881	
5865	0	32904	32826	
5866	0	32892	32838	
5867	0	32800	32656	
5868	0	32772	32678	
5869	0	32908	32767	
5870	0	32900	32719	
5871	0	32772	32718	
5872	0	32728	32812	
5873	0	32850	32758	
5874	0	32724	32872	
5875	0	32694	32741	
5876	0	32714	32709	
5877	0	32724	32792	
5878	0	32760	32774	
5879	0	32820	32810	
5880	0	32824	32775	
5881	0	32912	32816	
5882	0	32768	32838	
5883	0	32846	32799	
5884	0	32852	32836	
5885	0	32932	32756	
5886	0	32884	32798	
5887	0	32816	32670	
5888	0	32792	32820	
5889	0	32730	32790	
5890	0	32808	32826	
5891	0	32743	32736	
5892	0	32820	32802	
5893	0	32868	32824	
5894	0	32836	32807	
5895	0	32816	32706	
5896	0	32808	32881	
5897	0	32752	32674	
5898	0	32884	32640	
5899	0	32880	32726	
5900	0	32840	32692	
5901	0	32860	32682	
5902	0	32868	32807	
5903	0	32800	32820	
5904	0	32816	32766	
5905	0	32782	32790	
5906	0	32850	32874	
5907	0	32776	32714	
5908	0	32836	32708	
5909	0	32800	32690	
5910	0	32804	32775	
5911	0	32832	32817	
5912	0	32800	32791	
5913	0	32750	32654	
5914	0	32688	32815	
5915	0	32704	32737	
5916	0	32728	32766	
5917	0	32728	32700	
5918	0	32842	32682	
5919	0	32800	32673	
5920	0	32824	32822	
5921	0	32980	32616	
5922	0	32804	32775	
5923	0	32870	32816	
5924	0	32806	32764	
5925	0	32792	32758	
5926	0	32878	32738	
5927	0	32712	32748	
5928	0	32700	32766	
5929	0	32712	32810	
5930	0	32852	32788	
5931	0	32798	32844	
5932	0	32888	32850	
5933	0	32938	32792	
5934	0	32900	32718	
5935	0	32853	32896	
5936	0	32652	32880	
5937	0	32636	32632	
5938	0	32654	32769	
5939	0	32756	32657	
5940	0	32904	32775	
5941	0	32832	32666	
5942	0	32892	32775	
5943	0	32840	32732	
5944	0	32904	32829	
5945	0	32826	32750	
5946	0	32812	32766	
5947	0	32772	32636	
5948	0	32694	32764	
5949	0	32742	32774	
5950	0	32790	32804	
5951	0	32900	32744	
5952	0	32948	32786	
5953	0	32816	32815	
5954	0	32832	32628	
5955	0	32812	32750	
5956	0	32808	32600	
5957	0	32790	32742	
5958	0	32796	32702	
5959	0	32740	32775	
5960	0	32712	32775	
5961	0	32736	32832	
5962	0	32880	32830	
5963	0	32906	32652	
5964	0	32854	32756	
5965	0	32774	32719	
5966	0	32704	32580	
5967	0	32802	32832	
5968	0	32864	32757	
5969	0	32882	32786	
5970	0	32824	32652	
5971	0	32832	32809	
5972	0	32804	32775	
5973	0	32820	32903	
5974	0	32896	32848	
5975	0	32796	32824	
5976	0	32822	32670	
5977	0	32636	32822	
5978	0	32720	32852	
5979	0	32808	32770	
5980	0	32874	32929	
5981	0	32930	32815	
5982	0	32840	32820	
5983	0	32804	32668	
5984	0	32800	32630	
5985	0	32756	32612	
5986	0	32794	32754	
5987	0	32848	32728	
5988	0	32828	32824	
5989	0	32832	32814	
5990	0	32852	32615	
5991	0	32912	32820	
5992	0	32868	32844	
5993	0	32840	32726	
5994	0	32816	32764	
5995	0	32806	32637	
5996	0	32756	32711	
5997	0	32748	32654	
5998	0	32822	32647	
5999	0	32860	32704	
6000	0	32738	32727	
6001	0	32864	32830	
6002	0	32840	32716	
6003	0	32775	32836	
6004	0	32830	32750	
6005	0	32868	32914	
6006	0	32792	32862	
6007	0	32716	32836	
6008	0	32642	32864	
6009	0	32712	32766	
6010	0	32836	32804	
6011	0	32876	32764	
6012	0	32910	32738	
