# OpenSignals Text File Format. Version 1
# {"00:07:80:8C:0A:39": {"position": 0, "device": "biosignalsplux", "device name": "00:07:80:8C:0A:39", "device connection": "BTH00:07:80:8C:0A:39", "sampling rate": 1000, "resolution": [16, 16], "firmware version": 776, "comments": "", "keywords": "", "mode": 0, "sync interval": 2, "date": "2023-3-10", "time": "12:30:3.948", "channels": [1, 2], "sensor": ["EMG", "EMG"], "label": ["CH1", "CH2"], "column": ["nSeq", "DI", "CH1", "CH2"], "special": [{"SpO2": [80, 40, 5, 4, 3, 3]}, {"SpO2": [80, 40, 5, 4, 3, 3]}, {"SpO2": [80, 40, 5, 4, 3, 3]}, {"SpO2": [80, 40, 5, 4, 3, 3]}, {"SpO2": [80, 40, 5, 4, 3, 3]}, {"SpO2": [80, 40, 5, 4, 3, 3]}, {"SpO2": [80, 40, 5, 4, 3, 3]}, {"SpO2": [80, 40, 5, 4, 3, 3]}], "digital IO": [0, 1], "sleeve color": ["gray", "yellow"], "convertedValues": 0}}
# EndOfHeader
0	0	32832	32724	
1	0	32776	32668	
2	0	32840	32684	
3	0	32872	32816	
4	0	32816	32756	
5	0	32800	32791	
6	0	32826	32786	
7	0	32784	32730	
8	0	32860	32708	
9	0	32748	32736	
10	0	32780	32844	
11	0	32784	32796	
12	0	32800	32828	
13	0	32828	32852	
14	0	32828	32801	
15	0	32836	32768	
16	0	32840	32696	
17	0	32864	32794	
18	0	32856	32756	
19	0	32786	32780	
20	0	32788	32832	
21	0	32800	32828	
22	0	32812	32852	
23	0	32776	32736	
24	0	32764	32748	
25	0	32864	32826	
26	0	32780	32815	
27	0	32752	32748	
28	0	32834	32764	
29	0	32848	32712	
30	0	32800	32686	
31	0	32810	32750	
32	0	32852	32812	
33	0	32820	32766	
34	0	32802	32828	
35	0	32864	32804	
36	0	32756	32720	
37	0	32732	32810	
38	0	32768	32748	
39	0	32712	32772	
40	0	32870	32624	
41	0	32820	32672	
42	0	32832	32844	
43	0	32792	32818	
44	0	32900	32728	
45	0	32834	32732	
46	0	32788	32652	
47	0	32844	32726	
48	0	32790	32786	
49	0	32783	32832	
50	0	32790	32838	
51	0	32712	32748	
52	0	32810	32838	
53	0	32860	32812	
54	0	32812	32911	
55	0	32772	32774	
56	0	32816	32724	
57	0	32850	32810	
58	0	32848	32612	
59	0	32772	32734	
60	0	32898	32784	
61	0	32874	32836	
62	0	32894	32774	
63	0	32860	32812	
64	0	32840	32770	
65	0	32792	32670	
66	0	32780	32722	
67	0	32700	32836	
68	0	32712	32825	
69	0	32786	32740	
70	0	32660	32630	
71	0	32744	32628	
72	0	32688	32599	
73	0	32676	32586	
74	0	32740	32724	
75	0	32744	32780	
76	0	32728	32792	
77	0	32636	32686	
78	0	32648	32761	
79	0	32608	32612	
80	0	32696	32618	
81	0	32736	32764	
82	0	32752	32740	
83	0	32780	32804	
84	0	32872	32836	
85	0	32818	32752	
86	0	32796	32715	
87	0	32860	32838	
88	0	32808	32752	
89	0	32788	32762	
90	0	32824	32816	
91	0	32796	32752	
92	0	32848	32664	
93	0	32840	32903	
94	0	33004	32846	
95	0	32976	32870	
96	0	33072	32948	
97	0	33052	33016	
98	0	33084	33022	
99	0	33120	32994	
100	0	33000	32984	
101	0	32928	33042	
102	0	32946	32922	
103	0	33002	32992	
104	0	32944	32894	
105	0	32924	32772	
106	0	32868	32794	
107	0	32864	32796	
108	0	32814	32673	
109	0	32860	32748	
110	0	32752	32608	
111	0	32714	32538	
112	0	32618	32624	
113	0	32660	32712	
114	0	32704	32668	
115	0	32740	32744	
116	0	32756	32750	
117	0	32750	32682	
118	0	32718	32664	
119	0	32704	32758	
120	0	32708	32774	
121	0	32762	32790	
122	0	32736	32788	
123	0	32740	32647	
124	0	32785	32676	
125	0	32778	32814	
126	0	32848	32796	
127	0	32784	32724	
128	0	32798	32814	
129	0	32868	32727	
130	0	32828	32708	
131	0	32732	32712	
132	0	32832	32748	
133	0	32800	32868	
134	0	32780	32788	
135	0	32796	32746	
136	0	32838	32836	
137	0	32784	32742	
138	0	32812	32752	
139	0	32824	32838	
140	0	32856	32758	
141	0	32840	32834	
142	0	32820	32832	
143	0	32816	32816	
144	0	32752	32730	
145	0	32752	32680	
146	0	32800	32720	
147	0	32792	32676	
148	0	32816	32732	
149	0	32832	32724	
150	0	32816	32802	
151	0	32808	32796	
152	0	32796	32775	
153	0	32820	32726	
154	0	32802	32647	
155	0	32745	32700	
156	0	32878	32836	
157	0	32788	32746	
158	0	32816	32820	
159	0	32748	32748	
160	0	32792	32744	
161	0	32824	32850	
162	0	32852	32888	
163	0	32820	32808	
164	0	32816	32694	
165	0	32840	32690	
166	0	32764	32766	
167	0	32744	32816	
168	0	32856	32718	
169	0	32816	32710	
170	0	32872	32796	
171	0	32788	32744	
172	0	32844	32668	
173	0	32820	32766	
174	0	32824	32814	
175	0	32828	32790	
176	0	32812	32748	
177	0	32832	32835	
178	0	32828	32839	
179	0	32804	32732	
180	0	32868	32708	
181	0	32816	32734	
182	0	32814	32746	
183	0	32860	32732	
184	0	32814	32857	
185	0	32796	32754	
186	0	32834	32708	
187	0	32770	32664	
188	0	32720	32666	
189	0	32818	32794	
190	0	32772	32686	
191	0	32816	32862	
192	0	32840	32844	
193	0	32864	32766	
194	0	32756	32814	
195	0	32804	32796	
196	0	32834	32744	
197	0	32808	32760	
198	0	32844	32840	
199	0	32816	32708	
200	0	32820	32682	
201	0	32832	32876	
202	0	32824	32807	
203	0	32790	32756	
204	0	32780	32838	
205	0	32860	32836	
206	0	32792	32670	
207	0	32770	32796	
208	0	32780	32752	
209	0	32772	32712	
210	0	32824	32792	
211	0	32812	32832	
212	0	32760	32750	
213	0	32796	32772	
214	0	32752	32806	
215	0	32840	32836	
216	0	32760	32764	
217	0	32796	32780	
218	0	32792	32792	
219	0	32804	32710	
220	0	32864	32748	
221	0	32752	32810	
222	0	32772	32794	
223	0	32834	32728	
224	0	32880	32766	
225	0	32792	32772	
226	0	32840	32684	
227	0	32796	32714	
228	0	32796	32720	
229	0	32804	32712	
230	0	32776	32760	
231	0	32830	32746	
232	0	32840	32832	
233	0	32832	32830	
234	0	32856	32816	
235	0	32864	32804	
236	0	32874	32718	
237	0	32794	32745	
238	0	32774	32724	
239	0	32778	32724	
240	0	32784	32892	
241	0	32804	32748	
242	0	32768	32844	
243	0	32792	32796	
244	0	32864	32766	
245	0	32776	32696	
246	0	32792	32762	
247	0	32856	32736	
248	0	32872	32712	
249	0	32788	32816	
250	0	32792	32700	
251	0	32808	32727	
252	0	32776	32790	
253	0	32800	32786	
254	0	32800	32808	
255	0	32812	32728	
256	0	32768	32687	
257	0	32826	32796	
258	0	32810	32794	
259	0	32796	32774	
260	0	32780	32732	
261	0	32792	32756	
262	0	32812	32884	
263	0	32754	32758	
264	0	32896	32740	
265	0	32770	32762	
266	0	32864	32804	
267	0	32788	32726	
268	0	32746	32760	
269	0	32796	32786	
270	0	32781	32690	
271	0	32852	32754	
272	0	32852	32676	
273	0	32788	32720	
274	0	32766	32800	
275	0	32856	32804	
276	0	32836	32696	
277	0	32782	32670	
278	0	32786	32700	
279	0	32834	32876	
280	0	32824	32798	
281	0	32820	32924	
282	0	32764	32736	
283	0	32874	32728	
284	0	32780	32819	
285	0	32810	32714	
286	0	32808	32766	
287	0	32824	32808	
288	0	32788	32752	
289	0	32798	32644	
290	0	32746	32628	
291	0	32788	32836	
292	0	32882	32832	
293	0	32774	32724	
294	0	32834	32830	
295	0	32818	32884	
296	0	32828	32804	
297	0	32840	32678	
298	0	32762	32706	
299	0	32820	32740	
300	0	32784	32782	
301	0	32752	32863	
302	0	32872	32830	
303	0	32844	32790	
304	0	32804	32774	
305	0	32790	32716	
306	0	32784	32719	
307	0	32848	32664	
308	0	32752	32632	
309	0	32846	32728	
310	0	32864	32702	
311	0	32800	32775	
312	0	32768	32894	
313	0	32756	32864	
314	0	32800	32794	
315	0	32860	32775	
316	0	32852	32688	
317	0	32870	32736	
318	0	32821	32808	
319	0	32798	32812	
320	0	32746	32752	
321	0	32824	32834	
322	0	32872	32815	
323	0	32748	32704	
324	0	32810	32764	
325	0	32838	32844	
326	0	32848	32801	
327	0	32804	32688	
328	0	32804	32798	
329	0	32860	32772	
330	0	32900	32800	
331	0	32848	32748	
332	0	32780	32798	
333	0	32768	32712	
334	0	32776	32772	
335	0	32816	32848	
336	0	32836	32792	
337	0	32808	32726	
338	0	32828	32742	
339	0	32842	32854	
340	0	32820	32836	
341	0	32864	32840	
342	0	32836	32848	
343	0	32824	32816	
344	0	32828	32804	
345	0	32844	32868	
346	0	32852	32886	
347	0	32808	32740	
348	0	32820	32794	
349	0	32838	32592	
350	0	32716	32678	
351	0	32822	32812	
352	0	32828	32804	
353	0	32856	32768	
354	0	32776	32740	
355	0	32848	32794	
356	0	32806	32822	
357	0	32816	32745	
358	0	32836	32804	
359	0	32764	32670	
360	0	32808	32692	
361	0	32762	32738	
362	0	32848	32784	
363	0	32826	32834	
364	0	32788	32808	
365	0	32902	32768	
366	0	32852	32744	
367	0	32860	32748	
368	0	32802	32816	
369	0	32736	32758	
370	0	32732	32750	
371	0	32756	32686	
372	0	32804	32750	
373	0	32796	32874	
374	0	32824	32786	
375	0	32772	32828	
376	0	32824	32716	
377	0	32864	32796	
378	0	32836	32892	
379	0	32796	32712	
380	0	32758	32822	
381	0	32776	32775	
382	0	32804	32672	
383	0	32776	32714	
384	0	32804	32636	
385	0	32784	32792	
386	0	32824	32775	
387	0	32872	32814	
388	0	32832	32750	
389	0	32842	32672	
390	0	32814	32647	
391	0	32796	32804	
392	0	32776	32734	
393	0	32788	32708	
394	0	32784	32814	
395	0	32842	32816	
396	0	32802	32740	
397	0	32832	32743	
398	0	32852	32720	
399	0	32796	32892	
400	0	32828	32870	
401	0	32800	32828	
402	0	32754	32840	
403	0	32792	32740	
404	0	32834	32722	
405	0	32810	32734	
406	0	32856	32684	
407	0	32820	32732	
408	0	32818	32732	
409	0	32892	32678	
410	0	32804	32732	
411	0	32856	32788	
412	0	32768	32862	
413	0	32785	32688	
414	0	32764	32712	
415	0	32808	32710	
416	0	32804	32888	
417	0	32770	32810	
418	0	32800	32820	
419	0	32816	32880	
420	0	32872	32812	
421	0	32812	32764	
422	0	32752	32725	
423	0	32792	32720	
424	0	32796	32740	
425	0	32824	32752	
426	0	32808	32790	
427	0	32796	32802	
428	0	32792	32842	
429	0	32850	32768	
430	0	32824	32775	
431	0	32854	32728	
432	0	32786	32708	
433	0	32788	32696	
434	0	32864	32784	
435	0	32868	32740	
436	0	32824	32774	
437	0	32776	32848	
438	0	32804	32812	
439	0	32784	32716	
440	0	32816	32696	
441	0	32816	32728	
442	0	32834	32754	
443	0	32784	32832	
444	0	32816	32752	
445	0	32760	32761	
446	0	32788	32775	
447	0	32752	32708	
448	0	32770	32764	
449	0	32840	32743	
450	0	32820	32702	
451	0	32832	32720	
452	0	32808	32810	
453	0	32808	32740	
454	0	32768	32788	
455	0	32868	32770	
456	0	32812	32790	
457	0	32808	32736	
458	0	32820	32754	
459	0	32776	32796	
460	0	32810	32836	
461	0	32760	32798	
462	0	32814	32760	
463	0	32890	32783	
464	0	32846	32724	
465	0	32776	32760	
466	0	32846	32783	
467	0	32796	32670	
468	0	32794	32782	
469	0	32816	32714	
470	0	32792	32672	
471	0	32840	32780	
472	0	32792	32786	
473	0	32856	32800	
474	0	32792	32882	
475	0	32760	32840	
476	0	32776	32766	
477	0	32844	32736	
478	0	32880	32772	
479	0	32848	32798	
480	0	32808	32872	
481	0	32820	32684	
482	0	32800	32678	
483	0	32800	32796	
484	0	32812	32812	
485	0	32848	32804	
486	0	32802	32766	
487	0	32848	32743	
488	0	32832	32808	
489	0	32888	32742	
490	0	32760	32744	
491	0	32804	32768	
492	0	32820	32698	
493	0	32836	32686	
494	0	32754	32868	
495	0	32904	32812	
496	0	32784	32894	
497	0	32824	32826	
498	0	32814	32816	
499	0	32704	32732	
500	0	32856	32660	
501	0	32816	32740	
502	0	32772	32784	
503	0	32848	32758	
504	0	32836	32818	
505	0	32864	32750	
506	0	32820	32740	
507	0	32800	32775	
508	0	32792	32838	
509	0	32766	32772	
510	0	32796	32746	
511	0	32792	32648	
512	0	32784	32788	
513	0	32876	32800	
514	0	32828	32840	
515	0	32836	32775	
516	0	32886	32683	
517	0	32800	32804	
518	0	32816	32788	
519	0	32744	32808	
520	0	32816	32758	
521	0	32808	32836	
522	0	32880	32780	
523	0	32824	32710	
524	0	32792	32758	
525	0	32856	32692	
526	0	32772	32788	
527	0	32778	32768	
528	0	32800	32716	
529	0	32850	32790	
530	0	32788	32718	
531	0	32766	32756	
532	0	32764	32682	
533	0	32782	32740	
534	0	32756	32788	
535	0	32828	32836	
536	0	32808	32793	
537	0	32856	32820	
538	0	32820	32846	
539	0	32778	32775	
540	0	32812	32738	
541	0	32760	32816	
542	0	32794	32782	
543	0	32756	32810	
544	0	32780	32808	
545	0	32856	32806	
546	0	32760	32743	
547	0	32876	32688	
548	0	32816	32718	
549	0	32868	32718	
550	0	32786	32838	
551	0	32848	32775	
552	0	32762	32710	
553	0	32812	32782	
554	0	32832	32808	
555	0	32838	32704	
556	0	32844	32820	
557	0	32812	32840	
558	0	32734	32752	
559	0	32826	32748	
560	0	32810	32726	
561	0	32852	32796	
562	0	32738	32756	
563	0	32784	32734	
564	0	32880	32824	
565	0	32788	32798	
566	0	32802	32802	
567	0	32844	32754	
568	0	32832	32704	
569	0	32834	32682	
570	0	32788	32714	
571	0	32740	32788	
572	0	32748	32724	
573	0	32828	32848	
574	0	32742	32760	
575	0	32752	32711	
576	0	32794	32786	
577	0	32868	32772	
578	0	32852	32772	
579	0	32776	32775	
580	0	32914	32816	
581	0	32817	32838	
582	0	32808	32728	
583	0	32852	32830	
584	0	32758	32846	
585	0	32792	32724	
586	0	32828	32671	
587	0	32872	32724	
588	0	32844	32679	
589	0	32794	32748	
590	0	32828	32678	
591	0	32750	32670	
592	0	32800	32870	
593	0	32782	32808	
594	0	32816	32748	
595	0	32848	32836	
596	0	32814	32838	
597	0	32840	32672	
598	0	32828	32816	
599	0	32832	32780	
600	0	32788	32768	
601	0	32858	32758	
602	0	32802	32800	
603	0	32768	32746	
604	0	32816	32680	
605	0	32784	32732	
606	0	32804	32774	
607	0	32820	32775	
608	0	32832	32668	
609	0	32820	32684	
610	0	32824	32784	
611	0	32794	32750	
612	0	32794	32718	
613	0	32832	32760	
614	0	32836	32788	
615	0	32736	32846	
616	0	32800	32692	
617	0	32846	32804	
618	0	32862	32822	
619	0	32820	32648	
620	0	32852	32800	
621	0	32784	32836	
622	0	32814	32766	
623	0	32844	32820	
624	0	32794	32800	
625	0	32792	32719	
626	0	32704	32746	
627	0	32814	32775	
628	0	32800	32720	
629	0	32784	32744	
630	0	32836	32704	
631	0	32780	32720	
632	0	32808	32784	
633	0	32812	32834	
634	0	32798	32696	
635	0	32810	32904	
636	0	32808	32758	
637	0	32832	32672	
638	0	32820	32796	
639	0	32776	32744	
640	0	32880	32798	
641	0	32800	32716	
642	0	32868	32848	
643	0	32816	32820	
644	0	32812	32734	
645	0	32880	32824	
646	0	32821	32834	
647	0	32890	32716	
648	0	32852	32800	
649	0	32754	32732	
650	0	32762	32754	
651	0	32760	32868	
652	0	32752	32814	
653	0	32804	32646	
654	0	32920	32743	
655	0	32864	32712	
656	0	32824	32620	
657	0	32800	32748	
658	0	32860	32817	
659	0	32760	32748	
660	0	32828	32808	
661	0	32768	32800	
662	0	32856	32732	
663	0	32834	32786	
664	0	32732	32736	
665	0	32724	32670	
666	0	32716	32854	
667	0	32716	32783	
668	0	32822	32868	
669	0	32864	32820	
670	0	32840	32846	
671	0	32964	32796	
672	0	32852	32734	
673	0	32896	32864	
674	0	32852	32678	
675	0	32880	32804	
676	0	32840	32698	
677	0	32744	32806	
678	0	32772	32720	
679	0	32820	32688	
680	0	32836	32784	
681	0	32840	32821	
682	0	32808	32798	
683	0	32820	32702	
684	0	32810	32680	
685	0	32818	32800	
686	0	32728	32640	
687	0	32816	32822	
688	0	32778	32775	
689	0	32816	32692	
690	0	32826	32760	
691	0	32936	32862	
692	0	32848	32924	
693	0	32846	32740	
694	0	32872	32920	
695	0	32840	32750	
696	0	32772	32543	
697	0	32756	32678	
698	0	32790	32692	
699	0	32780	32640	
700	0	32712	32774	
701	0	32752	32879	
702	0	32760	32812	
703	0	32758	32956	
704	0	32776	32990	
705	0	32736	32950	
706	0	32888	32846	
707	0	32960	32721	
708	0	32888	32708	
709	0	32868	32576	
710	0	32824	32726	
711	0	32794	32672	
712	0	32796	32682	
713	0	32752	32738	
714	0	32736	32840	
715	0	32718	32806	
716	0	32732	32692	
717	0	32686	32775	
718	0	32730	32744	
719	0	32708	32712	
720	0	32956	32668	
721	0	32928	32784	
722	0	32896	32672	
723	0	33000	32844	
724	0	33080	32794	
725	0	33036	32790	
726	0	32956	32714	
727	0	32906	32856	
728	0	32930	32808	
729	0	32868	32653	
730	0	32752	32766	
731	0	32648	32788	
732	0	32688	32679	
733	0	32572	32724	
734	0	32698	32750	
735	0	32752	32852	
736	0	32724	32788	
737	0	32684	32848	
738	0	32616	33024	
739	0	32628	32874	
740	0	32714	32896	
741	0	32720	32688	
742	0	32768	32604	
743	0	32922	32772	
744	0	33020	32832	
745	0	32912	32724	
746	0	32792	32848	
747	0	32888	32688	
748	0	32964	32460	
749	0	32988	32484	
750	0	32924	32382	
751	0	32672	32328	
752	0	32588	32811	
753	0	32724	32988	
754	0	32704	33104	
755	0	32918	33628	
756	0	32908	33710	
757	0	32908	33164	
758	0	33008	32842	
759	0	33034	32864	
760	0	32920	32638	
761	0	32708	32546	
762	0	32670	32452	
763	0	32556	32296	
764	0	32608	32244	
765	0	32784	32394	
766	0	32834	32464	
767	0	32778	32838	
768	0	32724	32952	
769	0	32774	32818	
770	0	32940	32714	
771	0	32892	32736	
772	0	32814	32810	
773	0	32836	32934	
774	0	33076	32954	
775	0	33016	32977	
776	0	32860	32996	
777	0	32848	33054	
778	0	32856	32908	
779	0	32880	33012	
780	0	32785	32638	
781	0	32846	32612	
782	0	32770	32804	
783	0	32638	32780	
784	0	32654	32544	
785	0	32576	32784	
786	0	32656	32582	
787	0	32664	32604	
788	0	32572	32662	
789	0	32684	32636	
790	0	32928	32600	
791	0	33072	32658	
792	0	33244	32696	
793	0	33088	32660	
794	0	33064	32728	
795	0	32848	32616	
796	0	32718	32686	
797	0	32752	32724	
798	0	32648	32724	
799	0	32782	32884	
800	0	32816	33080	
801	0	32747	32880	
802	0	33036	32828	
803	0	32984	32775	
804	0	32960	32832	
805	0	32636	32692	
806	0	32612	32806	
807	0	32660	32836	
808	0	32780	32968	
809	0	32902	32912	
810	0	32942	32554	
811	0	32830	32608	
812	0	32661	32775	
813	0	32418	32700	
814	0	32376	32670	
815	0	32584	32775	
816	0	32632	32746	
817	0	32884	32766	
818	0	33080	32634	
819	0	33248	32476	
820	0	33122	32726	
821	0	32878	32804	
822	0	32704	32806	
823	0	32724	32888	
824	0	32664	33152	
825	0	32592	33008	
826	0	32846	32798	
827	0	32964	32496	
828	0	33140	32634	
829	0	33120	32660	
830	0	33196	32554	
831	0	32896	32948	
832	0	32694	33002	
833	0	32584	32804	
834	0	32482	32776	
835	0	32466	32708	
836	0	32440	32612	
837	0	32632	32670	
838	0	32852	32835	
839	0	33034	32772	
840	0	33048	32892	
841	0	33140	32880	
842	0	32902	32708	
843	0	32824	32728	
844	0	32868	32796	
845	0	32936	32624	
846	0	32816	32522	
847	0	32676	32816	
848	0	32766	32826	
849	0	32852	32834	
850	0	32776	32790	
851	0	32728	32898	
852	0	32682	32794	
853	0	32608	32916	
854	0	32680	32980	
855	0	32836	32852	
856	0	32828	32704	
857	0	32866	32640	
858	0	32996	32752	
859	0	32844	32647	
860	0	32620	32728	
861	0	32704	32808	
862	0	32804	32698	
863	0	32804	32686	
864	0	32901	32686	
865	0	32808	32746	
866	0	32884	32652	
867	0	32820	32704	
868	0	32800	32744	
869	0	32776	32820	
870	0	32896	32820	
871	0	32702	32894	
872	0	32748	32860	
873	0	32808	32839	
874	0	32936	32928	
875	0	32890	32760	
876	0	32916	32554	
877	0	32932	32464	
878	0	32978	32704	
879	0	32880	32836	
880	0	32676	32836	
881	0	32600	32732	
882	0	32584	32964	
883	0	32740	32996	
884	0	32848	32928	
885	0	32784	32840	
886	0	32864	32726	
887	0	32812	32700	
888	0	32876	32572	
889	0	32844	32664	
890	0	32800	32638	
891	0	32804	32770	
892	0	32712	32752	
893	0	32696	32740	
894	0	32692	32748	
895	0	32800	32800	
896	0	32824	32796	
897	0	32932	32775	
898	0	32876	32798	
899	0	32960	32836	
900	0	33124	32864	
901	0	33000	32988	
902	0	32904	32906	
903	0	32732	32967	
904	0	32628	32994	
905	0	32580	32856	
906	0	32632	32580	
907	0	32656	32318	
908	0	32900	32439	
909	0	32898	32625	
910	0	32840	32792	
911	0	32720	32964	
912	0	32816	33004	
913	0	32840	32786	
914	0	32810	32738	
915	0	32744	32692	
916	0	32736	32724	
917	0	32768	32775	
918	0	32738	32700	
919	0	32808	32670	
920	0	32924	32825	
921	0	32794	32852	
922	0	32840	32802	
923	0	32938	32775	
924	0	33040	32796	
925	0	32916	32647	
926	0	32890	32576	
927	0	32920	32622	
928	0	32794	32666	
929	0	32706	32775	
930	0	32676	32854	
931	0	32612	32712	
932	0	32592	32932	
933	0	32704	32924	
934	0	32796	32964	
935	0	32716	32964	
936	0	32836	32810	
937	0	32944	32806	
938	0	32932	32832	
939	0	32836	32734	
940	0	32786	32548	
941	0	32800	32676	
942	0	32824	32752	
943	0	32764	32920	
944	0	32848	32718	
945	0	32888	32760	
946	0	32900	32836	
947	0	32816	32884	
948	0	32784	32846	
949	0	32848	32800	
950	0	32776	32578	
951	0	32904	32716	
952	0	32808	32754	
953	0	32852	32774	
954	0	32870	32762	
955	0	32884	32718	
956	0	32778	32704	
957	0	32724	32854	
958	0	32696	32888	
959	0	32744	32782	
960	0	32752	32596	
961	0	32672	32576	
962	0	32724	32738	
963	0	32672	32682	
964	0	32674	32598	
965	0	32754	32742	
966	0	32808	32706	
967	0	32784	32714	
968	0	32778	32582	
969	0	32776	32682	
970	0	32744	32792	
971	0	32625	32800	
972	0	32712	32816	
973	0	32720	32876	
974	0	32716	32728	
975	0	32680	32748	
976	0	32708	32676	
977	0	32838	32852	
978	0	32840	32897	
979	0	32944	32806	
980	0	32918	32756	
981	0	32852	32760	
982	0	32833	32840	
983	0	32804	32818	
984	0	32756	32924	
985	0	32864	32754	
986	0	32910	32756	
987	0	33012	32758	
988	0	33064	32816	
989	0	33112	32810	
990	0	33032	32992	
991	0	33014	33046	
992	0	33000	33016	
993	0	33012	32974	
994	0	32992	32921	
995	0	32872	32878	
996	0	32980	32798	
997	0	32904	32782	
998	0	32880	32764	
999	0	32888	32736	
1000	0	32852	32704	
1001	0	32760	32624	
1002	0	32721	32712	
1003	0	32746	32596	
1004	0	32750	32676	
1005	0	32704	32732	
1006	0	32692	32740	
1007	0	32744	32688	
1008	0	32804	32670	
1009	0	32744	32816	
1010	0	32720	32692	
1011	0	32724	32684	
1012	0	32762	32732	
1013	0	32816	32726	
1014	0	32818	32775	
1015	0	32756	32712	
1016	0	32708	32679	
1017	0	32804	32716	
1018	0	32810	32716	
1019	0	32782	32774	
1020	0	32756	32826	
1021	0	32810	32774	
1022	0	32756	32775	
1023	0	32806	32832	
1024	0	32796	32775	
1025	0	32844	32746	
1026	0	32866	32712	
1027	0	32868	32812	
1028	0	32764	32734	
1029	0	32782	32804	
1030	0	32760	32690	
1031	0	32746	32760	
1032	0	32748	32794	
1033	0	32762	32736	
1034	0	32852	32712	
1035	0	32822	32760	
1036	0	32820	32860	
1037	0	32868	32852	
1038	0	32800	32826	
1039	0	32804	32868	
1040	0	32876	32796	
1041	0	32832	32760	
1042	0	32866	32775	
1043	0	32848	32742	
1044	0	32836	32708	
1045	0	32762	32660	
1046	0	32698	32682	
1047	0	32700	32746	
1048	0	32798	32792	
1049	0	32868	32680	
1050	0	32776	32711	
1051	0	32853	32806	
1052	0	32834	32832	
1053	0	32832	32876	
1054	0	32860	32760	
1055	0	32820	32807	
1056	0	32772	32692	
1057	0	32762	32734	
1058	0	32732	32676	
1059	0	32822	32718	
1060	0	32780	32676	
1061	0	32792	32842	
1062	0	32760	32870	
1063	0	32868	32788	
1064	0	32784	32766	
1065	0	32772	32842	
1066	0	32908	32774	
1067	0	32946	32775	
1068	0	32968	32796	
1069	0	32896	32775	
1070	0	32802	32740	
1071	0	32740	32684	
1072	0	32752	32792	
1073	0	32690	32768	
1074	0	32692	32822	
1075	0	32754	32784	
1076	0	32814	32670	
1077	0	32862	32626	
1078	0	32836	32752	
1079	0	32810	32814	
1080	0	32848	32734	
1081	0	32836	32806	
1082	0	32842	32740	
1083	0	32828	32772	
1084	0	32892	32820	
1085	0	32724	32868	
1086	0	32738	32754	
1087	0	32680	32684	
1088	0	32644	32628	
1089	0	32638	32672	
1090	0	32736	32684	
1091	0	32676	32506	
1092	0	33076	32666	
1093	0	33022	32836	
1094	0	32920	32926	
1095	0	33040	33006	
1096	0	32962	33220	
1097	0	32884	33104	
1098	0	32770	32953	
1099	0	32876	32912	
1100	0	32944	32874	
1101	0	32934	32864	
1102	0	32908	32760	
1103	0	32782	32622	
1104	0	32704	32580	
1105	0	32588	32568	
1106	0	32632	32650	
1107	0	32544	32572	
1108	0	32428	32510	
1109	0	32352	32583	
1110	0	32602	32700	
1111	0	32524	32848	
1112	0	32668	33108	
1113	0	33176	33184	
1114	0	33612	33076	
1115	0	33548	32800	
1116	0	33348	32356	
1117	0	33120	32174	
1118	0	32672	32414	
1119	0	32480	32746	
1120	0	32596	32988	
1121	0	32576	32798	
1122	0	32506	32628	
1123	0	32624	32996	
1124	0	33066	33248	
1125	0	32964	33284	
1126	0	32784	32972	
1127	0	32786	32292	
1128	0	32634	31580	
1129	0	32612	31588	
1130	0	32618	32174	
1131	0	32856	33022	
1132	0	32824	33636	
1133	0	32510	33799	
1134	0	32936	33926	
1135	0	33124	33574	
1136	0	32976	33342	
1137	0	32804	33314	
1138	0	32584	33268	
1139	0	32369	32794	
1140	0	32620	32324	
1141	0	33092	32334	
1142	0	33592	32472	
1143	0	33264	32503	
1144	0	32928	32390	
1145	0	32872	32288	
1146	0	32952	32364	
1147	0	32832	32518	
1148	0	32804	32660	
1149	0	32894	32800	
1150	0	32780	32872	
1151	0	32740	32624	
1152	0	32620	32654	
1153	0	32532	32674	
1154	0	32546	32607	
1155	0	32618	32644	
1156	0	32696	32699	
1157	0	32696	32716	
1158	0	32730	32934	
1159	0	32734	33026	
1160	0	32684	33122	
1161	0	32838	32916	
1162	0	32834	32790	
1163	0	32702	32798	
1164	0	32816	32680	
1165	0	32744	32690	
1166	0	32788	32784	
1167	0	32740	32748	
1168	0	32804	32724	
1169	0	32730	32692	
1170	0	32896	32606	
1171	0	33086	32722	
1172	0	32960	32696	
1173	0	32996	32766	
1174	0	33152	32742	
1175	0	33308	32702	
1176	0	33100	32720	
1177	0	32848	32728	
1178	0	32818	32770	
1179	0	32660	32736	
1180	0	32584	32756	
1181	0	32608	32736	
1182	0	32426	32762	
1183	0	32188	32768	
1184	0	32170	32622	
1185	0	32444	32567	
1186	0	32828	32594	
1187	0	33207	32852	
1188	0	33492	32894	
1189	0	33476	32942	
1190	0	33754	32974	
1191	0	33200	32766	
1192	0	32724	32868	
1193	0	32524	32726	
1194	0	32472	32824	
1195	0	32360	32718	
1196	0	32450	32668	
1197	0	32666	32626	
1198	0	32860	32647	
1199	0	32834	32736	
1200	0	32870	32816	
1201	0	32904	32878	
1202	0	33172	32774	
1203	0	32964	32726	
1204	0	32928	32850	
1205	0	32800	32792	
1206	0	32708	32784	
1207	0	32712	32800	
1208	0	32744	32764	
1209	0	32752	32670	
1210	0	32724	32626	
1211	0	32740	32768	
1212	0	32728	32846	
1213	0	32764	32758	
1214	0	32794	32762	
1215	0	32744	32780	
1216	0	32825	32775	
1217	0	32828	32748	
1218	0	32896	32898	
1219	0	32864	32775	
1220	0	32776	32866	
1221	0	32834	32800	
1222	0	32800	32660	
1223	0	32841	32718	
1224	0	32824	32762	
1225	0	32904	32832	
1226	0	32824	32740	
1227	0	32746	32775	
1228	0	32782	32750	
1229	0	32670	32700	
1230	0	32656	32772	
1231	0	32840	32762	
1232	0	32836	32820	
1233	0	33000	32839	
1234	0	33077	32892	
1235	0	33016	32774	
1236	0	32976	32696	
1237	0	32824	32720	
1238	0	32844	32823	
1239	0	32736	32796	
1240	0	32676	32868	
1241	0	32704	32886	
1242	0	32704	32784	
1243	0	32812	32638	
1244	0	32788	32700	
1245	0	32944	32686	
1246	0	32812	32820	
1247	0	32808	32900	
1248	0	32672	32775	
1249	0	32590	32726	
1250	0	32530	32612	
1251	0	32544	32588	
1252	0	32688	32648	
1253	0	32872	32826	
1254	0	33198	32872	
1255	0	33092	32880	
1256	0	33186	32880	
1257	0	33136	32850	
1258	0	32988	32764	
1259	0	32868	32696	
1260	0	32704	32703	
1261	0	32708	32750	
1262	0	32828	32806	
1263	0	32760	32848	
1264	0	32744	32904	
1265	0	32736	32832	
1266	0	32528	32878	
1267	0	32656	32761	
1268	0	32632	32750	
1269	0	32728	32628	
1270	0	32826	32604	
1271	0	32956	32724	
1272	0	32948	32606	
1273	0	32864	32736	
1274	0	32760	32836	
1275	0	32792	32780	
1276	0	32728	32808	
1277	0	32712	32828	
1278	0	32750	32802	
1279	0	32732	32636	
1280	0	32748	32742	
1281	0	32698	32795	
1282	0	32820	32792	
1283	0	32896	32760	
1284	0	32920	32738	
1285	0	32916	32756	
1286	0	32812	32694	
1287	0	32828	32742	
1288	0	32964	32839	
1289	0	32896	32836	
1290	0	32820	32794	
1291	0	32740	32732	
1292	0	32772	32600	
1293	0	32836	32689	
1294	0	32784	32724	
1295	0	32764	32774	
1296	0	32816	32770	
1297	0	32784	32742	
1298	0	32752	32692	
1299	0	32728	32788	
1300	0	32732	32892	
1301	0	32772	32774	
1302	0	32864	32823	
1303	0	32820	32870	
1304	0	32816	32760	
1305	0	32784	32716	
1306	0	32760	32664	
1307	0	32736	32792	
1308	0	32792	32712	
1309	0	32808	32726	
1310	0	32868	32783	
1311	0	32816	32668	
1312	0	32788	32706	
1313	0	32776	32830	
1314	0	32856	32724	
1315	0	32870	32839	
1316	0	32810	32808	
1317	0	32772	32716	
1318	0	32804	32748	
1319	0	32776	32796	
1320	0	32810	32752	
1321	0	32808	32774	
1322	0	32832	32768	
1323	0	32824	32688	
1324	0	32880	32888	
1325	0	32884	32834	
1326	0	32844	32790	
1327	0	32802	32806	
1328	0	32852	32688	
1329	0	32804	32812	
1330	0	32796	32775	
1331	0	32756	32854	
1332	0	32786	32748	
1333	0	32824	32704	
1334	0	32828	32812	
1335	0	32832	32775	
1336	0	32818	32868	
1337	0	32884	32788	
1338	0	32736	32634	
1339	0	32762	32704	
1340	0	32770	32838	
1341	0	32752	32774	
1342	0	32820	32836	
1343	0	32820	32804	
1344	0	32834	32726	
1345	0	32744	32709	
1346	0	32852	32768	
1347	0	32768	32748	
1348	0	32748	32854	
1349	0	32866	32630	
1350	0	32836	32802	
1351	0	32804	32768	
1352	0	32792	32744	
1353	0	32832	32796	
1354	0	32812	32740	
1355	0	32766	32734	
1356	0	32828	32854	
1357	0	32792	32750	
1358	0	32844	32734	
1359	0	32848	32687	
1360	0	32858	32775	
1361	0	32778	32764	
1362	0	32748	32774	
1363	0	32720	32750	
1364	0	32810	32724	
1365	0	32865	32888	
1366	0	32805	32806	
1367	0	32820	32750	
1368	0	32838	32800	
1369	0	32820	32748	
1370	0	32788	32644	
1371	0	32808	32588	
1372	0	32800	32824	
1373	0	32734	32775	
1374	0	32812	32824	
1375	0	32792	32738	
1376	0	32796	32712	
1377	0	32860	32794	
1378	0	32808	32804	
1379	0	32798	32822	
1380	0	32808	32792	
1381	0	32758	32744	
1382	0	32820	32820	
1383	0	32864	32756	
1384	0	32840	32696	
1385	0	32822	32786	
1386	0	32852	32790	
1387	0	32872	32702	
1388	0	32816	32730	
1389	0	32820	32743	
1390	0	32826	32708	
1391	0	32836	32710	
1392	0	32828	32796	
1393	0	32802	32764	
1394	0	32764	32789	
1395	0	32764	32876	
1396	0	32706	32790	
1397	0	32828	32736	
1398	0	32836	32775	
1399	0	32792	32838	
1400	0	32820	32640	
1401	0	32816	32775	
1402	0	32790	32826	
1403	0	32820	32604	
1404	0	32840	32668	
1405	0	32850	32864	
1406	0	32800	32730	
1407	0	32922	32812	
1408	0	32788	32750	
1409	0	32864	32692	
1410	0	32776	32756	
1411	0	32812	32729	
1412	0	32762	32692	
1413	0	32846	32762	
1414	0	32820	32772	
1415	0	32812	32775	
1416	0	32816	32904	
1417	0	32824	32766	
1418	0	32798	32804	
1419	0	32840	32772	
1420	0	32820	32796	
1421	0	32756	32644	
1422	0	32724	32754	
1423	0	32888	32796	
1424	0	32768	32854	
1425	0	32800	32690	
1426	0	32780	32874	
1427	0	32796	32772	
1428	0	32848	32772	
1429	0	32776	32674	
1430	0	32784	32656	
1431	0	32828	32764	
1432	0	32780	32732	
1433	0	32808	32796	
1434	0	32760	32695	
1435	0	32716	32752	
1436	0	32772	32790	
1437	0	32840	32844	
1438	0	32832	32812	
1439	0	32858	32704	
1440	0	32920	32758	
1441	0	32862	32772	
1442	0	32908	32844	
1443	0	32814	32688	
1444	0	32832	32742	
1445	0	32724	32748	
1446	0	32838	32801	
1447	0	32800	32736	
1448	0	32816	32752	
1449	0	32832	32848	
1450	0	32842	32748	
1451	0	32868	32800	
1452	0	32802	32662	
1453	0	32740	32832	
1454	0	32864	32849	
1455	0	32764	32860	
1456	0	32776	32775	
1457	0	32834	32716	
1458	0	32852	32746	
1459	0	32840	32832	
1460	0	32838	32812	
1461	0	32808	32740	
1462	0	32740	32680	
1463	0	32816	32832	
1464	0	32752	32702	
1465	0	32746	32680	
1466	0	32794	32745	
1467	0	32782	32718	
1468	0	32796	32664	
1469	0	32860	32679	
1470	0	33040	32792	
1471	0	32806	32868	
1472	0	32744	32756	
1473	0	32712	32806	
1474	0	32757	32900	
1475	0	32752	32775	
1476	0	32808	32780	
1477	0	32844	32842	
1478	0	32932	32808	
1479	0	32752	32836	
1480	0	32712	32802	
1481	0	32848	32686	
1482	0	32904	32692	
1483	0	32808	32786	
1484	0	32866	32830	
1485	0	32828	32836	
1486	0	32764	32753	
1487	0	32788	32734	
1488	0	32794	32632	
1489	0	32792	32666	
1490	0	32895	32738	
1491	0	32748	32646	
1492	0	32770	32800	
1493	0	32704	32692	
1494	0	32772	32796	
1495	0	32748	32886	
1496	0	32740	32772	
1497	0	32820	32852	
1498	0	32856	32734	
1499	0	32852	32732	
1500	0	32996	32842	
1501	0	32948	32790	
1502	0	32860	32826	
1503	0	32860	32748	
1504	0	32710	32780	
1505	0	32804	32832	
1506	0	32856	32736	
1507	0	32778	32712	
1508	0	32764	32730	
1509	0	32844	32622	
1510	0	32750	32770	
1511	0	32836	32775	
1512	0	32804	32812	
1513	0	32840	32874	
1514	0	32808	32837	
1515	0	32776	32692	
1516	0	32740	32846	
1517	0	32816	32796	
1518	0	32848	32790	
1519	0	32840	32870	
1520	0	32860	32726	
1521	0	32812	32698	
1522	0	32888	32660	
1523	0	32836	32726	
1524	0	32740	32646	
1525	0	32666	32656	
1526	0	32624	32775	
1527	0	32652	32844	
1528	0	32768	32974	
1529	0	32740	32794	
1530	0	32844	32616	
1531	0	32880	32614	
1532	0	32964	32674	
1533	0	32952	32828	
1534	0	32806	32908	
1535	0	33020	33020	
1536	0	32992	33112	
1537	0	32968	33116	
1538	0	32776	32892	
1539	0	32648	32806	
1540	0	32652	32720	
1541	0	32834	32602	
1542	0	33064	32516	
1543	0	33016	32672	
1544	0	32938	32660	
1545	0	32664	32588	
1546	0	32646	32416	
1547	0	32676	32466	
1548	0	32624	32686	
1549	0	32776	32714	
1550	0	32870	32820	
1551	0	32824	32838	
1552	0	32708	32938	
1553	0	32788	32936	
1554	0	32770	32936	
1555	0	32900	32824	
1556	0	32776	32708	
1557	0	32736	32566	
1558	0	32744	32366	
1559	0	32724	32482	
1560	0	32712	32636	
1561	0	32632	32576	
1562	0	32872	32740	
1563	0	33108	32896	
1564	0	33012	33070	
1565	0	32640	33198	
1566	0	32536	33172	
1567	0	32650	33196	
1568	0	32696	33188	
1569	0	32812	33240	
1570	0	32652	33312	
1571	0	32532	32932	
1572	0	32756	32376	
1573	0	33120	32048	
1574	0	33004	32044	
1575	0	32820	32284	
1576	0	32980	32806	
1577	0	33028	33138	
1578	0	32948	33172	
1579	0	33104	32816	
1580	0	32842	32184	
1581	0	32792	32056	
1582	0	32636	32486	
1583	0	32864	32740	
1584	0	32948	33218	
1585	0	32324	33428	
1586	0	32606	33280	
1587	0	33072	33258	
1588	0	32984	33076	
1589	0	32572	32846	
1590	0	32996	32468	
1591	0	33116	32554	
1592	0	32680	32736	
1593	0	32612	32606	
1594	0	32724	32838	
1595	0	32628	32950	
1596	0	32949	33132	
1597	0	33392	33018	
1598	0	33088	32612	
1599	0	33388	32330	
1600	0	33264	32438	
1601	0	32116	32508	
1602	0	31308	32236	
1603	0	31336	32612	
1604	0	31948	33226	
1605	0	32828	33594	
1606	0	34520	33508	
1607	0	34792	32954	
1608	0	33928	32788	
1609	0	33652	32690	
1610	0	32828	32688	
1611	0	32540	32616	
1612	0	32408	32800	
1613	0	32508	32566	
1614	0	32142	32478	
1615	0	32544	32638	
1616	0	32868	32772	
1617	0	32800	32484	
1618	0	32756	32282	
1619	0	33176	32288	
1620	0	33292	32538	
1621	0	32594	32988	
1622	0	32368	33006	
1623	0	32374	32884	
1624	0	32336	32610	
1625	0	32440	32468	
1626	0	32612	32404	
1627	0	32688	32794	
1628	0	32864	32737	
1629	0	33196	32828	
1630	0	32900	32932	
1631	0	32672	32972	
1632	0	32590	32844	
1633	0	32700	32706	
1634	0	33032	32548	
1635	0	33352	32568	
1636	0	33116	32918	
1637	0	32960	33006	
1638	0	32774	32824	
1639	0	32560	32832	
1640	0	32564	32794	
1641	0	32776	32756	
1642	0	33042	32740	
1643	0	33006	32934	
1644	0	32960	32708	
1645	0	32708	32708	
1646	0	32710	32586	
1647	0	32736	32832	
1648	0	32708	32722	
1649	0	32712	32790	
1650	0	32786	32772	
1651	0	32612	32822	
1652	0	32542	32828	
1653	0	33112	32708	
1654	0	33116	32518	
1655	0	32704	32736	
1656	0	32818	32679	
1657	0	32860	32508	
1658	0	32576	32774	
1659	0	32228	32965	
1660	0	32452	33024	
1661	0	32448	32986	
1662	0	32816	32744	
1663	0	33260	32788	
1664	0	33270	32904	
1665	0	32942	32988	
1666	0	33080	32862	
1667	0	32852	32876	
1668	0	32396	32754	
1669	0	32554	32804	
1670	0	32904	32936	
1671	0	32858	32768	
1672	0	33188	32808	
1673	0	33120	32644	
1674	0	33180	32606	
1675	0	33188	32588	
1676	0	33264	32656	
1677	0	32930	32638	
1678	0	32456	32920	
1679	0	32549	32988	
1680	0	32884	32796	
1681	0	32512	32664	
1682	0	32248	32788	
1683	0	32618	32798	
1684	0	32768	32626	
1685	0	32928	32717	
1686	0	33228	32968	
1687	0	33234	32848	
1688	0	32961	32768	
1689	0	32568	32908	
1690	0	32460	32772	
1691	0	32508	32770	
1692	0	32732	32721	
1693	0	32919	32625	
1694	0	33180	32580	
1695	0	32964	32748	
1696	0	32736	32716	
1697	0	32636	32775	
1698	0	32640	32800	
1699	0	32464	32792	
1700	0	32360	32788	
1701	0	32420	32742	
1702	0	32632	32696	
1703	0	33024	32708	
1704	0	33196	32692	
1705	0	33224	32680	
1706	0	33080	32834	
1707	0	32912	32864	
1708	0	32592	32764	
1709	0	32512	32656	
1710	0	32610	32642	
1711	0	32656	32688	
1712	0	32528	32748	
1713	0	32380	32924	
1714	0	32258	32724	
1715	0	32340	32623	
1716	0	32792	32600	
1717	0	33624	32540	
1718	0	33772	32560	
1719	0	33356	32770	
1720	0	32908	33174	
1721	0	32800	33090	
1722	0	33168	32882	
1723	0	33280	32628	
1724	0	32948	32694	
1725	0	32514	32714	
1726	0	32528	32477	
1727	0	32116	32288	
1728	0	31254	32638	
1729	0	31400	33058	
1730	0	32160	33048	
1731	0	33194	32624	
1732	0	34240	32754	
1733	0	34300	33024	
1734	0	33716	33216	
1735	0	33636	32916	
1736	0	33048	32516	
1737	0	32968	32432	
1738	0	33232	32636	
1739	0	33220	32836	
1740	0	32752	33148	
1741	0	32440	33504	
1742	0	32596	33316	
1743	0	32452	32358	
1744	0	32208	32162	
1745	0	32420	32484	
1746	0	32190	32596	
1747	0	32276	33076	
1748	0	32316	33287	
1749	0	32620	33416	
1750	0	32666	33132	
1751	0	32984	32502	
1752	0	33356	31968	
1753	0	33868	32168	
1754	0	33120	32300	
1755	0	32616	32708	
1756	0	32398	32684	
1757	0	32612	33148	
1758	0	32596	33094	
1759	0	32352	32676	
1760	0	32192	32618	
1761	0	32882	32440	
1762	0	33828	32774	
1763	0	33964	33140	
1764	0	33478	33100	
1765	0	32936	33314	
1766	0	32452	33095	
1767	0	31888	33068	
1768	0	32060	32647	
1769	0	32310	32438	
1770	0	32896	32260	
1771	0	33496	32120	
1772	0	33512	32270	
1773	0	33680	32480	
1774	0	32988	32550	
1775	0	32628	32628	
1776	0	32556	32732	
1777	0	32564	33222	
1778	0	32602	33415	
1779	0	32592	32956	
1780	0	32568	32876	
1781	0	32724	32756	
1782	0	32820	32838	
1783	0	33020	32670	
1784	0	32896	32609	
1785	0	32672	32620	
1786	0	32616	32678	
1787	0	32488	32812	
1788	0	32528	32688	
1789	0	32484	32496	
1790	0	32468	32764	
1791	0	32610	32674	
1792	0	32772	32423	
1793	0	32852	32441	
1794	0	33116	32497	
1795	0	33362	32756	
1796	0	33184	32960	
1797	0	32868	33060	
1798	0	32368	33166	
1799	0	31828	33116	
1800	0	32244	32580	
1801	0	32664	32630	
1802	0	32946	32632	
1803	0	33204	32232	
1804	0	33470	31956	
1805	0	33384	32198	
1806	0	32576	32686	
1807	0	32442	32764	
1808	0	32596	32748	
1809	0	32916	33134	
1810	0	32504	33472	
1811	0	32480	33420	
1812	0	31650	33752	
1813	0	32144	32940	
1814	0	34112	32020	
1815	0	35500	32396	
1816	0	34120	32944	
1817	0	32884	32788	
1818	0	32884	32712	
1819	0	32704	32706	
1820	0	32668	32620	
1821	0	31982	32552	
1822	0	32298	33348	
1823	0	32420	33338	
1824	0	33072	32988	
1825	0	32764	32528	
1826	0	32484	32284	
1827	0	32696	32758	
1828	0	32668	32916	
1829	0	33384	32652	
1830	0	33452	32652	
1831	0	33836	32692	
1832	0	34126	32964	
1833	0	32944	32840	
1834	0	31944	33442	
1835	0	31936	33234	
1836	0	32580	33064	
1837	0	33072	33678	
1838	0	33136	33104	
1839	0	32832	32724	
1840	0	32674	32550	
1841	0	32062	32746	
1842	0	31784	32454	
1843	0	32220	32318	
1844	0	32530	32128	
1845	0	32720	32180	
1846	0	32896	32274	
1847	0	33062	32550	
1848	0	32992	33158	
1849	0	32930	33124	
1850	0	33132	33044	
1851	0	32910	32766	
1852	0	32828	32772	
1853	0	32876	32876	
1854	0	33038	32834	
1855	0	32872	32838	
1856	0	32668	32646	
1857	0	32748	32364	
1858	0	33314	32378	
1859	0	33434	32456	
1860	0	32936	32538	
1861	0	32824	32680	
1862	0	32820	32844	
1863	0	32692	33057	
1864	0	32560	32868	
1865	0	32412	32806	
1866	0	32550	32654	
1867	0	32944	32794	
1868	0	33044	32886	
1869	0	32752	32728	
1870	0	32568	32768	
1871	0	32368	32644	
1872	0	32372	32696	
1873	0	32612	32672	
1874	0	32592	32730	
1875	0	32410	32482	
1876	0	32820	32546	
1877	0	32912	32698	
1878	0	32682	32830	
1879	0	32372	32860	
1880	0	32504	33154	
1881	0	32864	32910	
1882	0	33232	32374	
1883	0	33672	32348	
1884	0	34188	32296	
1885	0	33621	32466	
1886	0	32820	32788	
1887	0	32464	33422	
1888	0	32304	33200	
1889	0	32479	33108	
1890	0	32640	33064	
1891	0	32004	32426	
1892	0	32140	32118	
1893	0	32644	32238	
1894	0	33348	32498	
1895	0	33018	32524	
1896	0	33156	32944	
1897	0	33292	33132	
1898	0	32916	33334	
1899	0	32416	32872	
1900	0	31316	32444	
1901	0	31394	32786	
1902	0	32148	33582	
1903	0	33684	33230	
1904	0	35320	32794	
1905	0	35930	32788	
1906	0	33444	32492	
1907	0	32336	31992	
1908	0	32220	31828	
1909	0	31832	32026	
1910	0	32248	32372	
1911	0	32130	33182	
1912	0	31984	33666	
1913	0	32008	33684	
1914	0	31924	33422	
1915	0	32722	32952	
1916	0	33378	32682	
1917	0	34224	31474	
1918	0	34848	31418	
1919	0	34814	32632	
1920	0	33812	33364	
1921	0	33496	33478	
1922	0	32856	33758	
1923	0	32222	33799	
1924	0	32600	33876	
1925	0	32306	34302	
1926	0	31752	34342	
1927	0	31596	33846	
1928	0	31712	32872	
1929	0	31404	32128	
1930	0	31616	31732	
1931	0	32232	31604	
1932	0	32820	31367	
1933	0	32916	31630	
1934	0	33128	31876	
1935	0	33718	32416	
1936	0	34044	32488	
1937	0	33652	32508	
1938	0	32728	32340	
1939	0	32496	32324	
1940	0	32436	32726	
1941	0	32880	33006	
1942	0	32976	33610	
1943	0	32948	34022	
1944	0	32780	33287	
1945	0	32452	32676	
1946	0	32560	32356	
1947	0	32494	32262	
1948	0	32556	32124	
1949	0	32722	32306	
1950	0	33220	32426	
1951	0	33600	32748	
1952	0	33116	32742	
1953	0	32958	32828	
1954	0	32904	32846	
1955	0	32612	32818	
1956	0	32624	32858	
1957	0	32692	32984	
1958	0	32592	32881	
1959	0	32810	32628	
1960	0	32684	32847	
1961	0	32304	32892	
1962	0	32174	33004	
1963	0	32184	33268	
1964	0	32688	32804	
1965	0	33384	32448	
1966	0	33744	32576	
1967	0	33528	32604	
1968	0	32774	32804	
1969	0	31876	32676	
1970	0	31960	32686	
1971	0	32764	32890	
1972	0	33752	32746	
1973	0	34218	32822	
1974	0	34130	33060	
1975	0	33952	33284	
1976	0	33040	33088	
1977	0	31924	32832	
1978	0	31700	32414	
1979	0	31838	32263	
1980	0	32298	32368	
1981	0	33098	32764	
1982	0	33572	32750	
1983	0	33344	32736	
1984	0	32804	32646	
1985	0	32580	32650	
1986	0	32404	32998	
1987	0	32490	33140	
1988	0	32856	32754	
1989	0	32858	32764	
1990	0	32718	32630	
1991	0	32372	32588	
1992	0	31898	32352	
1993	0	31708	32292	
1994	0	32202	32646	
1995	0	32976	32744	
1996	0	33356	32840	
1997	0	33788	32994	
1998	0	34242	33172	
1999	0	33601	33094	
2000	0	32958	33342	
2001	0	32848	33180	
2002	0	32524	32752	
2003	0	32112	32540	
2004	0	32236	32480	
2005	0	32784	32452	
2006	0	33086	32724	
2007	0	32928	33098	
2008	0	33114	33030	
2009	0	32920	33040	
2010	0	32792	32728	
2011	0	33012	32670	
2012	0	32632	32852	
2013	0	32538	32756	
2014	0	32704	32714	
2015	0	32604	32775	
2016	0	32512	32640	
2017	0	32552	32678	
2018	0	32820	32706	
2019	0	33064	32722	
2020	0	33028	32714	
2021	0	32916	32490	
2022	0	32628	32584	
2023	0	32508	32816	
2024	0	32596	32808	
2025	0	32484	32856	
2026	0	32580	33020	
2027	0	32556	32820	
2028	0	32536	32550	
2029	0	32956	32684	
2030	0	33304	32816	
2031	0	33466	32692	
2032	0	33372	32660	
2033	0	33292	32616	
2034	0	33414	32604	
2035	0	32952	32708	
2036	0	33172	32840	
2037	0	32636	32998	
2038	0	32160	32674	
2039	0	32004	32740	
2040	0	31674	32704	
2041	0	31980	32540	
2042	0	32272	32480	
2043	0	32720	32660	
2044	0	33250	32740	
2045	0	33792	32880	
2046	0	33696	32930	
2047	0	33492	33228	
2048	0	33136	33126	
2049	0	32960	33136	
2050	0	32784	32846	
2051	0	32504	32631	
2052	0	32704	32774	
2053	0	33196	32906	
2054	0	32972	32854	
2055	0	32692	32698	
2056	0	32788	32650	
2057	0	32832	32820	
2058	0	32778	32865	
2059	0	32564	32646	
2060	0	32526	32696	
2061	0	31876	32775	
2062	0	31432	32430	
2063	0	31671	32422	
2064	0	32482	32508	
2065	0	33770	32838	
2066	0	34272	33144	
2067	0	33976	32826	
2068	0	33640	32514	
2069	0	33116	32448	
2070	0	32784	32494	
2071	0	32584	32660	
2072	0	31464	33016	
2073	0	31496	33220	
2074	0	32706	32984	
2075	0	33726	33102	
2076	0	34320	33024	
2077	0	34048	32992	
2078	0	33224	32908	
2079	0	32858	32775	
2080	0	32452	32583	
2081	0	32360	32242	
2082	0	31840	32200	
2083	0	31616	32564	
2084	0	32168	32602	
2085	0	32856	32868	
2086	0	33316	33062	
2087	0	32992	32716	
2088	0	32888	32558	
2089	0	33028	32440	
2090	0	33460	32788	
2091	0	33448	32888	
2092	0	33372	32644	
2093	0	33304	32398	
2094	0	32528	32456	
2095	0	32128	32476	
2096	0	32056	32330	
2097	0	32416	32862	
2098	0	32204	33578	
2099	0	32400	34216	
2100	0	32416	34580	
2101	0	32828	33822	
2102	0	33320	32644	
2103	0	33168	32022	
2104	0	32976	31842	
2105	0	33484	32448	
2106	0	33358	32944	
2107	0	32988	32850	
2108	0	32865	32679	
2109	0	32984	32692	
2110	0	32240	32740	
2111	0	32128	32756	
2112	0	31692	32552	
2113	0	31854	31958	
2114	0	32452	31724	
2115	0	33052	31788	
2116	0	33008	32355	
2117	0	33269	33062	
2118	0	34064	33092	
2119	0	33976	33422	
2120	0	32740	33272	
2121	0	32394	33186	
2122	0	32176	33150	
2123	0	32308	32724	
2124	0	33116	32436	
2125	0	33420	32732	
2126	0	33572	32678	
2127	0	33840	32824	
2128	0	33122	32710	
2129	0	32480	32694	
2130	0	32552	32948	
2131	0	32264	33396	
2132	0	32212	33348	
2133	0	32469	33287	
2134	0	32264	33042	
2135	0	32654	32760	
2136	0	32854	32574	
2137	0	33192	32534	
2138	0	33396	32324	
2139	0	33234	32192	
2140	0	32760	32334	
2141	0	32608	32439	
2142	0	32518	32632	
2143	0	32404	32870	
2144	0	32728	32862	
2145	0	32758	33008	
2146	0	32676	32828	
2147	0	32664	32674	
2148	0	32584	32586	
2149	0	32740	32658	
2150	0	32696	32676	
2151	0	32870	32660	
2152	0	32756	32752	
2153	0	33008	32896	
2154	0	32822	32870	
2155	0	32756	32696	
2156	0	32648	32864	
2157	0	32734	32711	
2158	0	32736	32650	
2159	0	32774	32774	
2160	0	32788	32740	
2161	0	32856	32812	
2162	0	32980	32836	
2163	0	33062	32784	
2164	0	33006	32860	
2165	0	32820	32732	
2166	0	32772	32792	
2167	0	32720	32744	
2168	0	32844	32662	
2169	0	32878	32808	
2170	0	32902	32682	
2171	0	32764	32582	
2172	0	32750	32782	
2173	0	32572	32710	
2174	0	32548	32854	
2175	0	32858	32842	
2176	0	32956	32942	
2177	0	33064	32844	
2178	0	33204	32708	
2179	0	33202	32836	
2180	0	33232	32696	
2181	0	33098	32628	
2182	0	32878	32720	
2183	0	32480	32960	
2184	0	32496	32803	
2185	0	32556	32716	
2186	0	32492	32766	
2187	0	32552	32768	
2188	0	32640	32922	
2189	0	32736	32790	
2190	0	32828	32832	
2191	0	32868	32836	
2192	0	32784	32752	
2193	0	32588	32696	
2194	0	32576	32530	
2195	0	32908	32612	
2196	0	33288	32716	
2197	0	33230	32944	
2198	0	33152	32968	
2199	0	33258	32966	
2200	0	33084	32868	
2201	0	32788	32824	
2202	0	32488	32670	
2203	0	32208	32748	
2204	0	32364	32868	
2205	0	32488	32736	
2206	0	32576	32808	
2207	0	32772	32740	
2208	0	32968	32696	
2209	0	32896	32768	
2210	0	32832	32682	
2211	0	32780	32688	
2212	0	32640	32600	
2213	0	32684	32710	
2214	0	32948	32550	
2215	0	33305	32650	
2216	0	33648	32862	
2217	0	32996	32888	
2218	0	32486	32796	
2219	0	32518	32756	
2220	0	32608	32946	
2221	0	32700	32664	
2222	0	32916	32646	
2223	0	32944	32752	
2224	0	32664	32816	
2225	0	32364	32916	
2226	0	32150	32850	
2227	0	32700	32700	
2228	0	32912	32922	
2229	0	33136	33084	
2230	0	32976	33102	
2231	0	32720	32820	
2232	0	32858	32652	
2233	0	33592	32644	
2234	0	34194	32420	
2235	0	33764	32158	
2236	0	33442	32193	
2237	0	32528	32060	
2238	0	31698	32618	
2239	0	31728	32935	
2240	0	31928	33543	
2241	0	32156	33628	
2242	0	32384	33862	
2243	0	32836	33622	
2244	0	33164	33240	
2245	0	33384	32816	
2246	0	33126	32336	
2247	0	32788	32263	
2248	0	32120	32202	
2249	0	32182	32244	
2250	0	31940	32356	
2251	0	32228	32562	
2252	0	33128	32975	
2253	0	33258	32646	
2254	0	32976	32854	
2255	0	33242	32992	
2256	0	33416	32848	
2257	0	33376	32650	
2258	0	33408	32486	
2259	0	33656	32790	
2260	0	33812	32732	
2261	0	33770	32769	
2262	0	33088	33050	
2263	0	32510	32792	
2264	0	32110	32584	
2265	0	31983	32712	
2266	0	31848	32512	
2267	0	31883	32460	
2268	0	32462	32615	
2269	0	32900	32903	
2270	0	33744	33112	
2271	0	33889	33080	
2272	0	33086	32950	
2273	0	32396	32952	
2274	0	32290	32846	
2275	0	32376	32775	
2276	0	32570	32610	
2277	0	32636	32396	
2278	0	32832	32532	
2279	0	32712	32528	
2280	0	32676	32810	
2281	0	32852	32924	
2282	0	32644	32624	
2283	0	32218	32426	
2284	0	32040	32439	
2285	0	31952	32668	
2286	0	31542	32548	
2287	0	32616	32646	
2288	0	33600	32262	
2289	0	34202	32498	
2290	0	35156	33233	
2291	0	34640	33372	
2292	0	33324	33178	
2293	0	32152	32948	
2294	0	31580	32736	
2295	0	32306	32856	
2296	0	33414	32725	
2297	0	33216	33200	
2298	0	32872	33014	
2299	0	32404	33086	
2300	0	32532	33543	
2301	0	32476	33510	
2302	0	32788	33432	
2303	0	33146	33030	
2304	0	33164	32939	
2305	0	32688	32394	
2306	0	32376	32474	
2307	0	32292	32436	
2308	0	32808	32363	
2309	0	33060	32174	
2310	0	32984	32190	
2311	0	32900	32624	
2312	0	32696	32606	
2313	0	32824	32528	
2314	0	32662	32570	
2315	0	32788	32602	
2316	0	33196	32706	
2317	0	32832	32583	
2318	0	32574	32808	
2319	0	32848	32950	
2320	0	32840	32874	
2321	0	32706	32770	
2322	0	32418	32736	
2323	0	32362	32748	
2324	0	32512	32740	
2325	0	32668	32668	
2326	0	32680	32704	
2327	0	32794	32814	
2328	0	32912	32824	
2329	0	33102	32822	
2330	0	33092	32726	
2331	0	33096	32774	
2332	0	33092	32608	
2333	0	32909	32800	
2334	0	32798	32775	
2335	0	32732	32838	
2336	0	32732	32750	
2337	0	32736	32775	
2338	0	32792	32818	
2339	0	32984	32708	
2340	0	33100	32768	
2341	0	32856	32826	
2342	0	32821	32830	
2343	0	32897	32788	
2344	0	32926	32824	
2345	0	32788	32775	
2346	0	32764	32764	
2347	0	32754	32766	
2348	0	32796	32670	
2349	0	32640	32804	
2350	0	32780	32748	
2351	0	32644	32678	
2352	0	32642	32793	
2353	0	32650	32720	
2354	0	32854	32774	
2355	0	32890	32786	
2356	0	32756	32712	
2357	0	32764	32798	
2358	0	32692	32766	
2359	0	32720	32688	
2360	0	32958	32716	
2361	0	33096	32830	
2362	0	33048	32754	
2363	0	32824	32728	
2364	0	32756	32792	
2365	0	32748	32804	
2366	0	32752	32806	
2367	0	32660	32730	
2368	0	32978	32710	
2369	0	32976	32794	
2370	0	32808	32692	
2371	0	32764	32670	
2372	0	32776	32708	
2373	0	32752	32824	
2374	0	32714	32710	
2375	0	32644	32710	
2376	0	32412	32704	
2377	0	32388	32806	
2378	0	32624	32794	
2379	0	33004	32761	
2380	0	33348	32775	
2381	0	33328	32698	
2382	0	33108	32592	
2383	0	33046	32820	
2384	0	32800	32826	
2385	0	32826	32772	
2386	0	32580	32864	
2387	0	32560	32706	
2388	0	32880	32464	
2389	0	32634	32584	
2390	0	32388	32684	
2391	0	32490	32688	
2392	0	32377	32748	
2393	0	32678	32922	
2394	0	33408	32964	
2395	0	33276	32984	
2396	0	33232	32990	
2397	0	33148	33000	
2398	0	33060	32768	
2399	0	32852	32524	
2400	0	32968	32600	
2401	0	32740	32542	
2402	0	32634	32560	
2403	0	32848	32728	
2404	0	32676	32988	
2405	0	32620	32984	
2406	0	32476	33110	
2407	0	32769	32966	
2408	0	32720	32652	
2409	0	32794	32420	
2410	0	32856	32382	
2411	0	33030	32500	
2412	0	33064	32650	
2413	0	33264	32856	
2414	0	33204	33084	
2415	0	33040	33051	
2416	0	32816	33044	
2417	0	32416	33026	
2418	0	32200	32786	
2419	0	32092	32492	
2420	0	32236	32372	
2421	0	32582	32198	
2422	0	32936	32432	
2423	0	33050	32596	
2424	0	32910	32912	
2425	0	32616	33056	
2426	0	32614	33246	
2427	0	32720	33500	
2428	0	32782	33254	
2429	0	32884	32896	
2430	0	33500	32644	
2431	0	33460	32282	
2432	0	33040	32486	
2433	0	32436	32714	
2434	0	31832	32576	
2435	0	31456	32624	
2436	0	31744	32868	
2437	0	32900	32692	
2438	0	33680	32583	
2439	0	33556	32468	
2440	0	34436	32414	
2441	0	34264	32446	
2442	0	33864	32422	
2443	0	33176	32912	
2444	0	32446	33244	
2445	0	32052	33320	
2446	0	31728	33356	
2447	0	32420	33364	
2448	0	32753	33266	
2449	0	32802	33002	
2450	0	32868	32704	
2451	0	33154	32752	
2452	0	33173	32424	
2453	0	32600	32328	
2454	0	32438	32596	
2455	0	32752	32720	
2456	0	32650	32648	
2457	0	32706	32384	
2458	0	32984	32196	
2459	0	32644	32108	
2460	0	32052	32040	
2461	0	31652	32326	
2462	0	31488	32736	
2463	0	32468	32796	
2464	0	33130	32864	
2465	0	33940	32960	
2466	0	34004	32775	
2467	0	33264	32128	
2468	0	33170	32137	
2469	0	33140	32892	
2470	0	33092	33412	
2471	0	33380	33852	
2472	0	33088	34116	
2473	0	32404	33400	
2474	0	31700	32904	
2475	0	31546	33332	
2476	0	32364	33954	
2477	0	32740	33562	
2478	0	33086	33332	
2479	0	33536	33016	
2480	0	34152	32654	
2481	0	33560	32348	
2482	0	32952	32270	
2483	0	32682	32468	
2484	0	32308	32250	
2485	0	32202	32262	
2486	0	32340	32280	
2487	0	32060	32436	
2488	0	32354	32376	
2489	0	32352	32503	
2490	0	32362	32394	
2491	0	32828	32548	
2492	0	32864	32656	
2493	0	33300	32916	
2494	0	33476	32908	
2495	0	33336	32716	
2496	0	33340	32558	
2497	0	33256	32580	
2498	0	32912	32590	
2499	0	32810	32775	
2500	0	32940	32647	
2501	0	33244	32715	
2502	0	33348	32980	
2503	0	32870	32956	
2504	0	32460	32817	
2505	0	32368	32692	
2506	0	32394	32694	
2507	0	32844	32694	
2508	0	32844	32720	
2509	0	32554	32680	
2510	0	32530	32759	
2511	0	32596	32856	
2512	0	32770	32816	
2513	0	33148	32880	
2514	0	33124	32978	
2515	0	32808	32874	
2516	0	32784	32870	
2517	0	32725	32830	
2518	0	32676	32714	
2519	0	32696	32620	
2520	0	32744	32696	
2521	0	32720	32862	
2522	0	32796	32722	
2523	0	32748	32792	
2524	0	32766	32720	
2525	0	32744	32744	
2526	0	32810	32714	
2527	0	32828	32724	
2528	0	32848	32863	
2529	0	32792	32832	
2530	0	32690	32740	
2531	0	32720	32708	
2532	0	32656	32846	
2533	0	32729	32842	
2534	0	32880	32878	
2535	0	32976	32826	
2536	0	32836	32742	
2537	0	32832	32734	
2538	0	32856	32708	
2539	0	32846	32732	
2540	0	32854	32786	
2541	0	32804	32770	
2542	0	32860	32826	
2543	0	32844	32742	
2544	0	32796	32842	
2545	0	32828	32888	
2546	0	32832	32775	
2547	0	32824	32732	
2548	0	32772	32680	
2549	0	32854	32722	
2550	0	32848	32708	
2551	0	32878	32742	
2552	0	32830	32776	
2553	0	32720	32800	
2554	0	32802	32810	
2555	0	32796	32798	
2556	0	32820	32752	
2557	0	32784	32842	
2558	0	32756	32744	
2559	0	32900	32668	
2560	0	32868	32702	
2561	0	32900	32704	
2562	0	32812	32884	
2563	0	32760	32850	
2564	0	32720	32702	
2565	0	32692	32742	
2566	0	32692	32784	
2567	0	32698	32764	
2568	0	32728	32644	
2569	0	32880	32726	
2570	0	32848	32774	
2571	0	32962	32766	
2572	0	32928	32918	
2573	0	33024	32822	
2574	0	33070	32832	
2575	0	32912	32724	
2576	0	32620	32784	
2577	0	32560	32644	
2578	0	32616	32766	
2579	0	32396	32750	
2580	0	32436	32712	
2581	0	32740	32856	
2582	0	32970	32808	
2583	0	33204	32716	
2584	0	33328	32712	
2585	0	33232	32878	
2586	0	33144	32924	
2587	0	33072	32814	
2588	0	32800	32838	
2589	0	32720	32758	
2590	0	32484	32806	
2591	0	32296	32646	
2592	0	32324	32668	
2593	0	32452	32752	
2594	0	32746	32698	
2595	0	33140	32688	
2596	0	32778	32710	
2597	0	32656	32568	
2598	0	32706	32590	
2599	0	32720	32620	
2600	0	32748	32700	
2601	0	32766	32654	
2602	0	32720	32658	
2603	0	32720	32647	
2604	0	32600	32682	
2605	0	32604	32600	
2606	0	32640	32628	
2607	0	32916	32900	
2608	0	33072	32892	
2609	0	32884	32664	
2610	0	32808	32758	
2611	0	32924	32732	
2612	0	32828	32772	
2613	0	32760	32828	
2614	0	32840	32788	
2615	0	32778	32694	
2616	0	32742	32724	
2617	0	32676	32624	
2618	0	32520	32592	
2619	0	32649	32796	
2620	0	32816	32790	
2621	0	33068	32912	
2622	0	33200	32920	
2623	0	33176	33044	
2624	0	33114	33060	
2625	0	32940	33212	
2626	0	32940	33184	
2627	0	33084	33152	
2628	0	33256	33030	
2629	0	33208	32828	
2630	0	33232	32624	
2631	0	33408	32784	
2632	0	32960	32730	
2633	0	32888	32804	
2634	0	32688	32724	
2635	0	32624	32696	
2636	0	32324	32587	
2637	0	32312	32573	
2638	0	32562	32576	
2639	0	32694	32604	
2640	0	32808	32738	
2641	0	32780	32807	
2642	0	32600	32826	
2643	0	32708	32754	
2644	0	32732	32690	
2645	0	32706	32612	
2646	0	32828	32592	
2647	0	32848	32620	
2648	0	33168	32646	
2649	0	33090	32775	
2650	0	33088	32796	
2651	0	32924	32838	
2652	0	32764	32822	
2653	0	32856	32674	
2654	0	32858	32670	
2655	0	32672	32702	
2656	0	32544	32804	
2657	0	32512	32830	
2658	0	32472	32868	
2659	0	32560	32880	
2660	0	32664	32742	
2661	0	32812	32716	
2662	0	32860	32838	
2663	0	32828	32752	
2664	0	32704	32792	
2665	0	32804	32976	
2666	0	32822	32946	
2667	0	32804	32792	
2668	0	32772	32732	
2669	0	32852	32711	
2670	0	33152	32500	
2671	0	33104	32578	
2672	0	32860	32650	
2673	0	32600	32724	
2674	0	32492	32788	
2675	0	32696	32678	
2676	0	32690	32748	
2677	0	32692	32714	
2678	0	32832	32762	
2679	0	33016	32782	
2680	0	32930	32722	
2681	0	33076	32852	
2682	0	32944	32772	
2683	0	32658	32870	
2684	0	32420	32836	
2685	0	32836	32902	
2686	0	33092	32716	
2687	0	32832	32718	
2688	0	32772	32756	
2689	0	32776	32647	
2690	0	33000	32596	
2691	0	33064	32700	
2692	0	32652	32772	
2693	0	32636	32680	
2694	0	32696	32818	
2695	0	32804	32854	
2696	0	32526	32790	
2697	0	32634	32866	
2698	0	32724	32888	
2699	0	32968	32848	
2700	0	33176	32936	
2701	0	33324	32864	
2702	0	33376	32874	
2703	0	33064	32838	
2704	0	32936	32736	
2705	0	32764	32742	
2706	0	32674	32648	
2707	0	32586	32552	
2708	0	32636	32632	
2709	0	32786	32828	
2710	0	32824	32774	
2711	0	32724	32856	
2712	0	32480	32798	
2713	0	32432	32666	
2714	0	32402	32664	
2715	0	32496	32660	
2716	0	32652	32666	
2717	0	32900	32810	
2718	0	32848	32760	
2719	0	32916	32638	
2720	0	32924	32698	
2721	0	32870	32735	
2722	0	32744	32806	
2723	0	32820	32886	
2724	0	32916	32806	
2725	0	32800	32924	
2726	0	32700	32808	
2727	0	32840	32740	
2728	0	32886	32804	
2729	0	32900	32732	
2730	0	32842	32738	
2731	0	32938	32772	
2732	0	32908	32742	
2733	0	32900	32636	
2734	0	32704	32680	
2735	0	32822	32832	
2736	0	32816	32808	
2737	0	32872	32816	
2738	0	32962	32822	
2739	0	32820	32759	
2740	0	32884	32695	
2741	0	32836	32708	
2742	0	32712	32852	
2743	0	32764	32790	
2744	0	32622	32775	
2745	0	32692	32734	
2746	0	32860	32804	
2747	0	32836	32788	
2748	0	32882	32800	
2749	0	32846	32758	
2750	0	32944	32775	
2751	0	33002	32610	
2752	0	32910	32676	
2753	0	32766	32826	
2754	0	32760	32826	
2755	0	32800	32852	
2756	0	32756	32848	
2757	0	32756	32684	
2758	0	32770	32684	
2759	0	32780	32711	
2760	0	32788	32788	
2761	0	32700	32884	
2762	0	32836	32844	
2763	0	32868	32795	
2764	0	32874	32824	
2765	0	32832	32706	
2766	0	32784	32716	
2767	0	32718	32704	
2768	0	32844	32666	
2769	0	32868	32752	
2770	0	32782	32830	
2771	0	32792	32788	
2772	0	32740	32780	
2773	0	32804	32828	
2774	0	32764	32676	
2775	0	32720	32872	
2776	0	32786	32844	
2777	0	32832	32775	
2778	0	32726	32794	
2779	0	32736	32868	
2780	0	32736	32724	
2781	0	32696	32730	
2782	0	32738	32812	
2783	0	32956	32775	
2784	0	32980	32789	
2785	0	32854	32862	
2786	0	32930	32772	
2787	0	32832	32814	
2788	0	32868	32686	
2789	0	32910	32818	
2790	0	32882	32760	
2791	0	32824	32748	
2792	0	32852	32730	
2793	0	32746	32756	
2794	0	32760	32775	
2795	0	32716	32728	
2796	0	32712	32668	
2797	0	32753	32650	
2798	0	32748	32722	
2799	0	32804	32789	
2800	0	32868	32848	
2801	0	32828	32756	
2802	0	32752	32740	
2803	0	32756	32796	
2804	0	32744	32788	
2805	0	32742	32816	
2806	0	32832	32708	
2807	0	32944	32736	
2808	0	32812	32756	
2809	0	32944	32768	
2810	0	32918	32748	
2811	0	32952	32816	
2812	0	32814	32806	
2813	0	32776	32744	
2814	0	32844	32702	
2815	0	32832	32746	
2816	0	32764	32768	
2817	0	32852	32734	
2818	0	32744	32804	
2819	0	32764	32802	
2820	0	32764	32726	
2821	0	32868	32735	
2822	0	32848	32820	
2823	0	32810	32880	
2824	0	32808	32814	
2825	0	32748	32730	
2826	0	32744	32806	
2827	0	32792	32806	
2828	0	32860	32738	
2829	0	32820	32646	
2830	0	32802	32618	
2831	0	32766	32706	
2832	0	32818	32702	
2833	0	32798	32772	
2834	0	32820	32756	
2835	0	32806	32848	
2836	0	32834	32872	
2837	0	32840	32804	
2838	0	32796	32768	
2839	0	32800	32832	
2840	0	32866	32690	
2841	0	32865	32800	
2842	0	32808	32820	
2843	0	32824	32704	
2844	0	32800	32868	
2845	0	32786	32806	
2846	0	32836	32686	
2847	0	32790	32775	
2848	0	32824	32668	
2849	0	32774	32823	
2850	0	32832	32764	
2851	0	32816	32673	
2852	0	32788	32814	
2853	0	32776	32724	
2854	0	32712	32738	
2855	0	32830	32860	
2856	0	32932	32688	
2857	0	32820	32854	
2858	0	32786	32830	
2859	0	32844	32796	
2860	0	32768	32834	
2861	0	32836	32864	
2862	0	32802	32724	
2863	0	32840	32806	
2864	0	33000	32812	
2865	0	33008	32775	
2866	0	32708	32817	
2867	0	32840	32814	
2868	0	32952	32640	
2869	0	32839	32744	
2870	0	32788	32762	
2871	0	32860	32660	
2872	0	32882	32738	
2873	0	32864	32775	
2874	0	32734	32684	
2875	0	32784	32746	
2876	0	32752	32800	
2877	0	32792	32712	
2878	0	32800	32848	
2879	0	32828	32820	
2880	0	32712	32658	
2881	0	32706	32806	
2882	0	32740	32806	
2883	0	32822	32724	
2884	0	32828	32754	
2885	0	32794	32714	
2886	0	32864	32724	
2887	0	32844	32786	
2888	0	32836	32771	
2889	0	32760	32692	
2890	0	32750	32804	
2891	0	32800	32802	
2892	0	32772	32650	
2893	0	32808	32820	
2894	0	32870	32804	
2895	0	32816	32753	
2896	0	32794	32746	
2897	0	32822	32752	
2898	0	32884	32702	
2899	0	32872	32775	
2900	0	32796	32800	
2901	0	32726	32660	
2902	0	32858	32756	
2903	0	32824	32775	
2904	0	32844	32718	
2905	0	32772	32836	
2906	0	32784	32798	
2907	0	32848	32748	
2908	0	32744	32847	
2909	0	32878	32846	
2910	0	32896	32624	
2911	0	32832	32744	
2912	0	32784	32748	
2913	0	32846	32632	
2914	0	32804	32788	
2915	0	32768	32719	
2916	0	32834	32628	
2917	0	32802	32736	
2918	0	32848	32800	
2919	0	32740	32804	
2920	0	32810	32863	
2921	0	32820	32967	
2922	0	32800	32956	
2923	0	32842	32890	
2924	0	32832	32759	
2925	0	32840	32636	
2926	0	32860	32806	
2927	0	32780	32836	
2928	0	32702	32732	
2929	0	32824	32766	
2930	0	32796	32696	
2931	0	32760	32672	
2932	0	32896	32824	
2933	0	32816	32708	
2934	0	32844	32696	
2935	0	32826	32775	
2936	0	32772	32739	
2937	0	32792	32657	
2938	0	32832	32775	
2939	0	32826	32781	
2940	0	32820	32726	
2941	0	32832	32716	
2942	0	32684	32768	
2943	0	32820	32880	
2944	0	32748	32596	
2945	0	32774	32874	
2946	0	32920	32824	
2947	0	32856	32714	
2948	0	32784	32806	
2949	0	32840	32676	
2950	0	32800	32658	
2951	0	32820	32798	
2952	0	32764	32722	
2953	0	32804	32812	
2954	0	32824	32768	
2955	0	32812	32828	
2956	0	32812	32756	
2957	0	32856	32740	
2958	0	32776	32802	
2959	0	32820	32775	
2960	0	32824	32807	
2961	0	32808	32792	
2962	0	32828	32700	
2963	0	32862	32802	
2964	0	32812	32839	
2965	0	32796	32742	
2966	0	32780	32826	
2967	0	32728	32846	
2968	0	32820	32676	
2969	0	32852	32736	
2970	0	32880	32774	
2971	0	32864	32804	
2972	0	32818	32736	
2973	0	32806	32736	
2974	0	32836	32796	
2975	0	32764	32775	
2976	0	32772	32862	
2977	0	32766	32740	
2978	0	32788	32792	
2979	0	32764	32750	
2980	0	32792	32736	
2981	0	32930	32764	
2982	0	32860	32688	
2983	0	32836	32706	
2984	0	32802	32774	
2985	0	32854	32714	
2986	0	32866	32830	
2987	0	32792	32750	
2988	0	32760	32700	
2989	0	32848	32801	
2990	0	32852	32800	
2991	0	32780	32804	
2992	0	32788	32710	
2993	0	32804	32832	
2994	0	32744	32830	
2995	0	32808	32696	
2996	0	32744	32788	
2997	0	32816	32740	
2998	0	32828	32740	
2999	0	32846	32758	
3000	0	32840	32812	
3001	0	32832	32766	
3002	0	32792	32772	
3003	0	32794	32732	
3004	0	32788	32746	
3005	0	32800	32798	
3006	0	32862	32748	
3007	0	32856	32756	
3008	0	32808	32738	
3009	0	32852	32832	
3010	0	32858	32668	
3011	0	32864	32750	
3012	0	32848	32847	
3013	0	32834	32775	
3014	0	32806	32836	
3015	0	32792	32832	
3016	0	32828	32672	
3017	0	32812	32792	
3018	0	32848	32814	
3019	0	32820	32662	
3020	0	32816	32774	
3021	0	32780	32782	
3022	0	32716	32744	
3023	0	32764	32838	
3024	0	32832	32815	
3025	0	32852	32740	
3026	0	32824	32738	
3027	0	32782	32726	
3028	0	32780	32850	
3029	0	32894	32700	
3030	0	32926	32698	
3031	0	32850	32663	
3032	0	32828	32744	
3033	0	32756	32756	
3034	0	32704	32724	
3035	0	32756	32760	
3036	0	32748	32698	
3037	0	32804	32804	
3038	0	32760	32750	
3039	0	32752	32742	
3040	0	32742	32820	
3041	0	32868	32826	
3042	0	32854	32728	
3043	0	32876	32844	
3044	0	32792	32784	
3045	0	32820	32700	
3046	0	32788	32748	
3047	0	32898	32710	
3048	0	32830	32728	
3049	0	32794	32682	
3050	0	32828	32842	
3051	0	32798	32624	
3052	0	32794	32670	
3053	0	32792	32808	
3054	0	32804	32764	
3055	0	32824	32775	
3056	0	32828	32862	
3057	0	32846	32790	
3058	0	32808	32714	
3059	0	32732	32740	
3060	0	32788	32874	
3061	0	32802	32772	
3062	0	32792	32846	
3063	0	32756	32828	
3064	0	32794	32724	
3065	0	32764	32692	
3066	0	32836	32806	
3067	0	32864	32696	
3068	0	32812	32788	
3069	0	32848	32810	
3070	0	32930	32774	
3071	0	32768	32678	
3072	0	32904	32814	
3073	0	32848	32740	
3074	0	32824	32790	
3075	0	32812	32842	
3076	0	32796	32760	
3077	0	32748	32716	
3078	0	32784	32710	
3079	0	32808	32818	
3080	0	32748	32786	
3081	0	32832	32728	
3082	0	32808	32948	
3083	0	32798	32716	
3084	0	32800	32656	
3085	0	32784	32764	
3086	0	32844	32762	
3087	0	32752	32820	
3088	0	32752	32748	
3089	0	32784	32722	
3090	0	32844	32736	
3091	0	32882	32748	
3092	0	32900	32704	
3093	0	32948	32676	
3094	0	32864	32740	
3095	0	32720	32820	
3096	0	32766	32864	
3097	0	32740	32824	
3098	0	32632	32775	
3099	0	32736	32812	
3100	0	32804	32870	
3101	0	32842	32836	
3102	0	32828	32844	
3103	0	32766	32728	
3104	0	32802	32688	
3105	0	32792	32742	
3106	0	32808	32836	
3107	0	32876	32820	
3108	0	32908	32828	
3109	0	32892	32794	
3110	0	32840	32766	
3111	0	32792	32616	
3112	0	32828	32716	
3113	0	32720	32774	
3114	0	32766	32772	
3115	0	32824	32720	
3116	0	32870	32886	
3117	0	32896	32842	
3118	0	32836	32740	
3119	0	32824	32662	
3120	0	32816	32716	
3121	0	32788	32732	
3122	0	32772	32722	
3123	0	32764	32804	
3124	0	32828	32772	
3125	0	32836	32736	
3126	0	32774	32772	
3127	0	32772	32775	
3128	0	32798	32704	
3129	0	32832	32764	
3130	0	32792	32706	
3131	0	32872	32734	
3132	0	32798	32790	
3133	0	32854	32790	
3134	0	32824	32676	
3135	0	32764	32700	
3136	0	32778	32772	
3137	0	32836	32768	
3138	0	32784	32836	
3139	0	32806	32920	
3140	0	32816	32696	
3141	0	32788	32680	
3142	0	32768	32743	
3143	0	32832	32850	
3144	0	32852	32823	
3145	0	32832	32740	
3146	0	32772	32774	
3147	0	32778	32750	
3148	0	32856	32655	
3149	0	32806	32738	
3150	0	32832	32772	
3151	0	32832	32646	
3152	0	32776	32775	
3153	0	32844	32772	
3154	0	32788	32724	
3155	0	32848	32784	
3156	0	32832	32792	
3157	0	32818	32886	
3158	0	32816	32800	
3159	0	32880	32734	
3160	0	32832	32774	
3161	0	32848	32716	
3162	0	32848	32728	
3163	0	32780	32866	
3164	0	32800	32724	
3165	0	32800	32834	
3166	0	32812	32775	
3167	0	32756	32760	
3168	0	32798	32864	
3169	0	32848	32743	
3170	0	32804	32801	
3171	0	32864	32768	
3172	0	32826	32768	
3173	0	32812	32740	
3174	0	32818	32738	
3175	0	32804	32820	
3176	0	32832	32866	
3177	0	32852	32812	
3178	0	32756	32792	
3179	0	32822	32775	
3180	0	32824	32628	
3181	0	32800	32814	
3182	0	32764	32724	
3183	0	32796	32834	
3184	0	32796	32790	
3185	0	32840	32680	
3186	0	32852	32824	
3187	0	32800	32772	
3188	0	32784	32647	
3189	0	32828	32828	
3190	0	32816	32764	
3191	0	32822	32728	
3192	0	32782	32655	
3193	0	32778	32726	
3194	0	32800	32836	
3195	0	32802	32704	
3196	0	32808	32708	
3197	0	32816	32828	
3198	0	32866	32828	
3199	0	32804	32696	
3200	0	32864	32832	
3201	0	32804	32828	
3202	0	32768	32754	
3203	0	32816	32837	
3204	0	32832	32796	
3205	0	32820	32758	
3206	0	32812	32760	
3207	0	32792	32725	
3208	0	32789	32848	
3209	0	32864	32774	
3210	0	32800	32698	
3211	0	32804	32755	
3212	0	32834	32700	
3213	0	32748	32798	
3214	0	32744	32828	
3215	0	32765	32720	
3216	0	32836	32772	
3217	0	32756	32796	
3218	0	32812	32692	
3219	0	32742	32814	
3220	0	32826	32716	
3221	0	32824	32816	
3222	0	32832	32712	
3223	0	32792	32802	
3224	0	32780	32814	
3225	0	32820	32790	
3226	0	32880	32708	
3227	0	32778	32812	
3228	0	32800	32791	
3229	0	32804	32706	
3230	0	32786	32764	
3231	0	32832	32792	
3232	0	32812	32768	
3233	0	32756	32774	
3234	0	32720	32640	
3235	0	32817	32788	
3236	0	32768	32775	
3237	0	32772	32740	
3238	0	32852	32824	
3239	0	32882	32906	
3240	0	32798	32884	
3241	0	32817	32764	
3242	0	32864	32707	
3243	0	32816	32884	
3244	0	32808	32774	
3245	0	32816	32688	
3246	0	32784	32838	
3247	0	32816	32828	
3248	0	32776	32740	
3249	0	32786	32790	
3250	0	32800	32720	
3251	0	32848	32744	
3252	0	32792	32775	
3253	0	32818	32644	
3254	0	32796	32744	
3255	0	32804	32738	
3256	0	32812	32870	
3257	0	32788	32800	
3258	0	32864	32792	
3259	0	32836	32752	
3260	0	32822	32732	
3261	0	32804	32854	
3262	0	32824	32782	
3263	0	32820	32740	
3264	0	32834	32800	
3265	0	32796	32782	
3266	0	32760	32638	
3267	0	32832	32798	
3268	0	32744	32678	
3269	0	32810	32702	
3270	0	32880	32836	
3271	0	32800	32692	
3272	0	32768	32696	
3273	0	32824	32736	
3274	0	32896	32712	
3275	0	32840	32836	
3276	0	32804	32820	
3277	0	32780	32736	
3278	0	32808	32775	
3279	0	32836	32812	
3280	0	32816	32644	
3281	0	32736	32718	
3282	0	32778	32774	
3283	0	32816	32770	
3284	0	32836	32800	
3285	0	32798	32736	
3286	0	32824	32774	
3287	0	32832	32775	
3288	0	32824	32678	
3289	0	32816	32726	
3290	0	32860	32792	
3291	0	32820	32712	
3292	0	32848	32768	
3293	0	32756	32788	
3294	0	32832	32704	
3295	0	32790	32792	
3296	0	32878	32775	
3297	0	32752	32736	
3298	0	32764	32874	
3299	0	32858	32772	
3300	0	32818	32676	
3301	0	32868	32805	
3302	0	32730	32812	
3303	0	32802	32704	
3304	0	32812	32838	
3305	0	32774	32742	
3306	0	32748	32694	
3307	0	32868	32800	
3308	0	32836	32736	
3309	0	32812	32704	
3310	0	32800	32802	
3311	0	32852	32704	
3312	0	32778	32743	
3313	0	32780	32778	
3314	0	32784	32708	
3315	0	32852	32678	
3316	0	32792	32854	
3317	0	32868	32854	
3318	0	32792	32735	
3319	0	32842	32798	
3320	0	32852	32775	
3321	0	32844	32754	
3322	0	32752	32866	
3323	0	32790	32798	
3324	0	32812	32720	
3325	0	32824	32812	
3326	0	32780	32736	
3327	0	32796	32648	
3328	0	32752	32892	
3329	0	32784	32798	
3330	0	32832	32711	
3331	0	32834	32820	
3332	0	32820	32804	
3333	0	32832	32665	
3334	0	32746	32836	
3335	0	32824	32860	
3336	0	32796	32686	
3337	0	32772	32802	
3338	0	32812	32711	
3339	0	32808	32878	
3340	0	32892	32812	
3341	0	32830	32710	
3342	0	32794	32692	
3343	0	32812	32734	
3344	0	32838	32762	
3345	0	32888	32684	
3346	0	32808	32772	
3347	0	32742	32775	
3348	0	32800	32788	
3349	0	32756	32782	
3350	0	32744	32806	
3351	0	32800	32672	
3352	0	32848	32820	
3353	0	32804	32680	
3354	0	32788	32742	
3355	0	32852	32664	
3356	0	32776	32800	
3357	0	32848	32900	
3358	0	32808	32702	
3359	0	32754	32820	
3360	0	32740	32740	
3361	0	32864	32788	
3362	0	32768	32666	
3363	0	32808	32712	
3364	0	32858	32726	
3365	0	32842	32744	
3366	0	32950	32722	
3367	0	32808	32759	
3368	0	32808	32714	
3369	0	32762	32740	
3370	0	32738	32682	
3371	0	32768	32824	
3372	0	32770	32724	
3373	0	32792	32766	
3374	0	32834	32740	
3375	0	32838	32775	
3376	0	32816	32686	
3377	0	32776	32759	
3378	0	32792	32822	
3379	0	32800	32780	
3380	0	32828	32896	
3381	0	32832	32818	
3382	0	32782	32724	
3383	0	32828	32772	
3384	0	32780	32826	
3385	0	32836	32792	
3386	0	32832	32792	
3387	0	32816	32844	
3388	0	32838	32736	
3389	0	32824	32744	
3390	0	32804	32770	
3391	0	32848	32732	
3392	0	32788	32760	
3393	0	32800	32792	
3394	0	32828	32812	
3395	0	32792	32718	
3396	0	32728	32754	
3397	0	32848	32804	
3398	0	32810	32752	
3399	0	32768	32698	
3400	0	32740	32730	
3401	0	32740	32754	
3402	0	32664	32647	
3403	0	32680	32664	
3404	0	32682	32716	
3405	0	32688	32846	
3406	0	32752	32700	
3407	0	32652	32656	
3408	0	32688	32758	
3409	0	32708	32716	
3410	0	32708	32688	
3411	0	32700	32738	
3412	0	32752	32766	
3413	0	32832	32682	
3414	0	32796	32807	
3415	0	32888	32700	
3416	0	32846	32806	
3417	0	32812	32830	
3418	0	32786	32760	
3419	0	32824	32842	
3420	0	32918	32782	
3421	0	32806	32728	
3422	0	32816	32828	
3423	0	32860	32750	
3424	0	32912	32870	
3425	0	32964	32798	
3426	0	33012	32938	
3427	0	33036	32918	
3428	0	33044	32912	
3429	0	33068	33016	
3430	0	33054	32962	
3431	0	33040	32856	
3432	0	32984	32994	
3433	0	33006	32908	
3434	0	33038	32860	
3435	0	32948	32890	
3436	0	32872	32860	
3437	0	32928	32762	
3438	0	32780	32810	
3439	0	32716	32740	
3440	0	32730	32646	
3441	0	32684	32634	
3442	0	32716	32679	
3443	0	32668	32590	
3444	0	32772	32772	
3445	0	32668	32738	
3446	0	32696	32686	
3447	0	32712	32672	
3448	0	32700	32650	
3449	0	32734	32736	
3450	0	32744	32775	
3451	0	32756	32618	
3452	0	32776	32733	
3453	0	32836	32774	
3454	0	32726	32696	
3455	0	32753	32780	
3456	0	32776	32775	
3457	0	32802	32708	
3458	0	32844	32826	
3459	0	32776	32740	
3460	0	32808	32799	
3461	0	32790	32772	
3462	0	32764	32726	
3463	0	32856	32796	
3464	0	32824	32854	
3465	0	32776	32709	
3466	0	32832	32806	
3467	0	32792	32774	
3468	0	32724	32706	
3469	0	32824	32834	
3470	0	32828	32752	
3471	0	32836	32694	
3472	0	32832	32752	
3473	0	32792	32734	
3474	0	32788	32682	
3475	0	32772	32810	
3476	0	32840	32840	
3477	0	32864	32728	
3478	0	32840	32903	
3479	0	32804	32836	
3480	0	32808	32764	
3481	0	32832	32784	
3482	0	32837	32774	
3483	0	32756	32694	
3484	0	32776	32740	
3485	0	32786	32854	
3486	0	32836	32718	
3487	0	32774	32774	
3488	0	32772	32734	
3489	0	32738	32764	
3490	0	32796	32694	
3491	0	32772	32854	
3492	0	32864	32704	
3493	0	32840	32650	
3494	0	32832	32724	
3495	0	32818	32744	
3496	0	32786	32732	
3497	0	32808	32868	
3498	0	32872	32830	
3499	0	32760	32742	
3500	0	32794	32772	
3501	0	32808	32788	
3502	0	32824	32742	
3503	0	32908	32806	
3504	0	32788	32782	
3505	0	32840	32768	
3506	0	32756	32734	
3507	0	32832	32862	
3508	0	32800	32775	
3509	0	32808	32690	
3510	0	32752	32734	
3511	0	32828	32775	
3512	0	32866	32668	
3513	0	32820	32842	
3514	0	32808	32775	
3515	0	32828	32775	
3516	0	32856	32812	
3517	0	32810	32720	
3518	0	32713	32716	
3519	0	32808	32762	
3520	0	32844	32783	
3521	0	32848	32734	
3522	0	32823	32766	
3523	0	32796	32788	
3524	0	32828	32658	
3525	0	32834	32724	
3526	0	32784	32703	
3527	0	32796	32820	
3528	0	32800	32808	
3529	0	32788	32704	
3530	0	32830	32776	
3531	0	32848	32718	
3532	0	32832	32664	
3533	0	32880	32790	
3534	0	32784	32676	
3535	0	32836	32812	
3536	0	32888	32846	
3537	0	32788	32752	
3538	0	32732	32680	
3539	0	32800	32742	
3540	0	32818	32784	
3541	0	32814	32796	
3542	0	32832	32824	
3543	0	32758	32680	
3544	0	32820	32740	
3545	0	32858	32798	
3546	0	32892	32834	
3547	0	32784	32756	
3548	0	32756	32754	
3549	0	32764	32788	
3550	0	32792	32848	
3551	0	32804	32656	
3552	0	32818	32608	
3553	0	32836	32748	
3554	0	32760	32854	
3555	0	32864	32818	
3556	0	32808	32812	
3557	0	32816	32794	
3558	0	32804	32852	
3559	0	32828	32790	
3560	0	32784	32792	
3561	0	32826	32788	
3562	0	32820	32720	
3563	0	32804	32710	
3564	0	32782	32672	
3565	0	32748	32676	
3566	0	32754	32672	
3567	0	32752	32840	
3568	0	32848	32784	
3569	0	32784	32834	
3570	0	32808	32775	
3571	0	32864	32730	
3572	0	32840	32748	
3573	0	32778	32822	
3574	0	32798	32792	
3575	0	32828	32758	
3576	0	32858	32712	
3577	0	32776	32786	
3578	0	32884	32876	
3579	0	32828	32887	
3580	0	32776	32852	
3581	0	32756	32838	
3582	0	32758	32818	
3583	0	32876	32704	
3584	0	32832	32808	
3585	0	32760	32762	
3586	0	32782	32772	
3587	0	32748	32806	
3588	0	32808	32692	
3589	0	32768	32622	
3590	0	32840	32740	
3591	0	32786	32664	
3592	0	32864	32722	
3593	0	32864	32706	
3594	0	32842	32854	
3595	0	32758	32852	
3596	0	32804	32740	
3597	0	32804	32748	
3598	0	32860	32810	
3599	0	32764	32799	
3600	0	32808	32788	
3601	0	32868	32796	
3602	0	32834	32710	
3603	0	32896	32742	
3604	0	32768	32775	
3605	0	32788	32850	
3606	0	32808	32802	
3607	0	32834	32828	
3608	0	32788	32798	
3609	0	32884	32816	
3610	0	32852	32716	
3611	0	32728	32718	
3612	0	32828	32772	
3613	0	32824	32732	
3614	0	32744	32775	
3615	0	32804	32896	
3616	0	32814	32764	
3617	0	32840	32808	
3618	0	32874	32684	
3619	0	32800	32672	
3620	0	32836	32818	
3621	0	32776	32814	
3622	0	32766	32772	
3623	0	32804	32838	
3624	0	32812	32775	
3625	0	32860	32742	
3626	0	32814	32712	
3627	0	32824	32716	
3628	0	32840	32784	
3629	0	32820	32776	
3630	0	32852	32735	
3631	0	32806	32802	
3632	0	32804	32712	
3633	0	32802	32696	
3634	0	32816	32696	
3635	0	32794	32750	
3636	0	32782	32808	
3637	0	32772	32780	
3638	0	32808	32834	
3639	0	32778	32730	
3640	0	32878	32816	
3641	0	32800	32846	
3642	0	32820	32856	
3643	0	32852	32814	
3644	0	32870	32682	
3645	0	32788	32718	
3646	0	32856	32812	
3647	0	32806	32852	
3648	0	32844	32780	
3649	0	32826	32840	
3650	0	32776	32759	
3651	0	32780	32754	
3652	0	32820	32826	
3653	0	32768	32730	
3654	0	32824	32688	
3655	0	32796	32772	
3656	0	32796	32854	
3657	0	32808	32806	
3658	0	32812	32828	
3659	0	32852	32808	
3660	0	32896	32744	
3661	0	32854	32736	
3662	0	32808	32807	
3663	0	32846	32796	
3664	0	32816	32794	
3665	0	32742	32812	
3666	0	32804	32796	
3667	0	32846	32834	
3668	0	32828	32836	
3669	0	32832	32746	
3670	0	32796	32790	
3671	0	32812	32756	
3672	0	32832	32730	
3673	0	32812	32698	
3674	0	32744	32728	
3675	0	32860	32724	
3676	0	32800	32721	
3677	0	32840	32692	
3678	0	32748	32790	
3679	0	32836	32820	
3680	0	32786	32794	
3681	0	32836	32775	
3682	0	32728	32808	
3683	0	32774	32676	
3684	0	32764	32774	
3685	0	32828	32794	
3686	0	32824	32874	
3687	0	32810	32786	
3688	0	32864	32816	
3689	0	32792	32736	
3690	0	32884	32668	
3691	0	32876	32744	
3692	0	32828	32775	
3693	0	32740	32680	
3694	0	32804	32864	
3695	0	32820	32774	
3696	0	32748	32700	
3697	0	32834	32764	
3698	0	32872	32796	
3699	0	32820	32862	
3700	0	32816	32732	
3701	0	32820	32750	
3702	0	32794	32714	
3703	0	32834	32760	
3704	0	32836	32851	
3705	0	32782	32816	
3706	0	32792	32716	
3707	0	32836	32732	
3708	0	32872	32764	
3709	0	32794	32676	
3710	0	32810	32808	
3711	0	32796	32712	
3712	0	32792	32740	
3713	0	32746	32724	
3714	0	32792	32704	
3715	0	32816	32732	
3716	0	32812	32810	
3717	0	32792	32794	
3718	0	32784	32760	
3719	0	32822	32884	
3720	0	32828	32738	
3721	0	32776	32694	
3722	0	32848	32695	
3723	0	32832	32764	
3724	0	32796	32810	
3725	0	32756	32806	
3726	0	32822	32758	
3727	0	32864	32702	
3728	0	32844	32704	
3729	0	32784	32790	
3730	0	32808	32742	
3731	0	32754	32760	
3732	0	32810	32748	
3733	0	32796	32799	
3734	0	32770	32700	
3735	0	32794	32636	
3736	0	32748	32744	
3737	0	32822	32740	
3738	0	32790	32760	
3739	0	32868	32870	
3740	0	32760	32834	
3741	0	32796	32698	
3742	0	32792	32824	
3743	0	32808	32834	
3744	0	32824	32775	
3745	0	32848	32790	
3746	0	32792	32824	
3747	0	32804	32736	
3748	0	32832	32686	
3749	0	32824	32775	
3750	0	32862	32774	
3751	0	32776	32758	
3752	0	32768	32702	
3753	0	32784	32756	
3754	0	32796	32727	
3755	0	32834	32790	
3756	0	32834	32800	
3757	0	32750	32674	
3758	0	32816	32896	
3759	0	32792	32775	
3760	0	32848	32666	
3761	0	32852	32844	
3762	0	32800	32832	
3763	0	32772	32782	
3764	0	32856	32775	
3765	0	32868	32772	
3766	0	32804	32664	
3767	0	32820	32768	
3768	0	32840	32774	
3769	0	32784	32842	
3770	0	32782	32596	
3771	0	32798	32775	
3772	0	32806	32762	
3773	0	32794	32756	
3774	0	32788	32690	
3775	0	32724	32770	
3776	0	32800	32704	
3777	0	32792	32774	
3778	0	32788	32756	
3779	0	32868	32772	
3780	0	32812	32834	
3781	0	32832	32692	
3782	0	32788	32816	
3783	0	32864	32775	
3784	0	32820	32818	
3785	0	32804	32828	
3786	0	32800	32748	
3787	0	32780	32844	
3788	0	32792	32660	
3789	0	32844	32775	
3790	0	32822	32832	
3791	0	32766	32632	
3792	0	32842	32872	
3793	0	32806	32775	
3794	0	32852	32720	
3795	0	32776	32775	
3796	0	32794	32806	
3797	0	32842	32720	
3798	0	32756	32807	
3799	0	32802	32856	
3800	0	32816	32730	
3801	0	32856	32743	
3802	0	32912	32746	
3803	0	32872	32754	
3804	0	32848	32728	
3805	0	32762	32692	
3806	0	32828	32744	
3807	0	32804	32794	
3808	0	32858	32772	
3809	0	32760	32660	
3810	0	32808	32812	
3811	0	32740	32759	
3812	0	32868	32644	
3813	0	32798	32696	
3814	0	32808	32758	
3815	0	32768	32798	
3816	0	32778	32936	
3817	0	32852	32696	
3818	0	32824	32812	
3819	0	32748	32714	
3820	0	32816	32878	
3821	0	32776	32728	
3822	0	32796	32858	
3823	0	32810	32774	
3824	0	32820	32774	
3825	0	32828	32784	
3826	0	32784	32744	
3827	0	32796	32760	
3828	0	32752	32796	
3829	0	32816	32764	
3830	0	32790	32746	
3831	0	32768	32630	
3832	0	32792	32775	
3833	0	32836	32738	
3834	0	32812	32846	
3835	0	32760	32774	
3836	0	32772	32636	
3837	0	32828	32900	
3838	0	32821	32816	
3839	0	32748	32689	
3840	0	32828	32806	
3841	0	32838	32775	
3842	0	32830	32728	
3843	0	32796	32880	
3844	0	32836	32787	
3845	0	32854	32676	
3846	0	32738	32821	
3847	0	32778	32828	
3848	0	32828	32678	
3849	0	32840	32807	
3850	0	32824	32752	
3851	0	32806	32748	
3852	0	32766	32724	
3853	0	32812	32762	
3854	0	32792	32704	
3855	0	32736	32764	
3856	0	32800	32839	
3857	0	32800	32740	
3858	0	32828	32764	
3859	0	32784	32760	
3860	0	32792	32818	
3861	0	32836	32764	
3862	0	32880	32794	
3863	0	32800	32694	
3864	0	32826	32800	
3865	0	32824	32772	
3866	0	32788	32664	
3867	0	32776	32764	
3868	0	32790	32850	
3869	0	32836	32682	
3870	0	32880	32768	
3871	0	32868	32760	
3872	0	32744	32706	
3873	0	32826	32756	
3874	0	32772	32788	
3875	0	32848	32640	
3876	0	32848	32758	
3877	0	32792	32849	
3878	0	32778	32740	
3879	0	32760	32866	
3880	0	32846	32759	
3881	0	32854	32704	
3882	0	32856	32784	
3883	0	32776	32866	
3884	0	32892	32786	
3885	0	32804	32868	
3886	0	32820	32800	
3887	0	32784	32736	
3888	0	32808	32742	
3889	0	32788	32802	
3890	0	32754	32743	
3891	0	32804	32700	
3892	0	32788	32700	
3893	0	32830	32774	
3894	0	32852	32752	
3895	0	32772	32817	
3896	0	32832	32775	
3897	0	32816	32690	
3898	0	32842	32814	
3899	0	32903	32794	
3900	0	32756	32672	
3901	0	32814	32900	
3902	0	32828	32868	
3903	0	32852	32724	
3904	0	32792	32780	
3905	0	32754	32720	
3906	0	32780	32752	
3907	0	32796	32814	
3908	0	32790	32714	
3909	0	32746	32768	
3910	0	32768	32724	
3911	0	32832	32842	
3912	0	32806	32726	
3913	0	32832	32676	
3914	0	32802	32740	
3915	0	32774	32746	
3916	0	32870	32776	
3917	0	32868	32770	
3918	0	32852	32736	
3919	0	32732	32726	
3920	0	32840	32674	
3921	0	32890	32756	
3922	0	32784	32814	
3923	0	32768	32872	
3924	0	32840	32808	
3925	0	32828	32852	
3926	0	32827	32692	
3927	0	32804	32736	
3928	0	32766	32870	
3929	0	32814	32759	
3930	0	32784	32719	
3931	0	32832	32838	
3932	0	32812	32770	
3933	0	32792	32726	
3934	0	32852	32712	
3935	0	32848	32708	
3936	0	32812	32764	
3937	0	32820	32748	
3938	0	32834	32798	
3939	0	32804	32752	
3940	0	32776	32874	
3941	0	32842	32830	
3942	0	32788	32764	
3943	0	32774	32772	
3944	0	32792	32708	
3945	0	32790	32748	
3946	0	32834	32908	
3947	0	32884	32730	
3948	0	32828	32846	
3949	0	32874	32866	
3950	0	32764	32746	
3951	0	32812	32660	
3952	0	32816	32683	
3953	0	32836	32806	
3954	0	32752	32738	
3955	0	32776	32730	
3956	0	32772	32842	
3957	0	32826	32802	
3958	0	32824	32660	
3959	0	32794	32756	
3960	0	32824	32790	
3961	0	32818	32800	
3962	0	32748	32878	
3963	0	32784	32774	
3964	0	32812	32748	
3965	0	32884	32676	
3966	0	32904	32724	
3967	0	32769	32671	
3968	0	32730	32775	
3969	0	32720	32762	
3970	0	32804	32762	
3971	0	32842	32720	
3972	0	32804	32775	
3973	0	32832	32785	
3974	0	32764	32764	
3975	0	32816	32728	
3976	0	32780	32728	
3977	0	32824	32744	
3978	0	32828	32736	
3979	0	32812	32782	
3980	0	32832	32786	
3981	0	32756	32808	
3982	0	32728	32854	
3983	0	32784	32793	
3984	0	32778	32892	
3985	0	32884	32834	
3986	0	32880	32804	
3987	0	32864	32788	
3988	0	32792	32668	
3989	0	32816	32564	
3990	0	32812	32790	
3991	0	32840	32820	
3992	0	32794	32696	
3993	0	32834	32750	
3994	0	32820	32743	
3995	0	32776	32736	
3996	0	32841	32664	
3997	0	32812	32688	
3998	0	32824	32772	
3999	0	32816	32730	
4000	0	32752	32800	
4001	0	32784	32822	
4002	0	32832	32806	
4003	0	32852	32882	
4004	0	32784	32844	
4005	0	32828	32775	
4006	0	32792	32774	
4007	0	32832	32660	
4008	0	32768	32716	
4009	0	32840	32828	
4010	0	32804	32826	
4011	0	32776	32702	
4012	0	32776	32770	
4013	0	32834	32734	
4014	0	32812	32668	
4015	0	32796	32708	
4016	0	32758	32758	
4017	0	32860	32698	
4018	0	32818	32774	
4019	0	32860	32836	
4020	0	32752	32786	
4021	0	32804	32686	
4022	0	32856	32792	
4023	0	32864	32834	
4024	0	32864	32816	
4025	0	32824	32757	
4026	0	32828	32756	
4027	0	32820	32728	
4028	0	32840	32714	
4029	0	32800	32808	
4030	0	32812	32775	
4031	0	32808	32784	
4032	0	32784	32770	
4033	0	32776	32630	
4034	0	32804	32650	
4035	0	32858	32766	
4036	0	32792	32868	
4037	0	32810	32822	
4038	0	32774	32775	
4039	0	32784	32808	
4040	0	32788	32852	
4041	0	32806	32828	
4042	0	32764	32796	
4043	0	32800	32676	
4044	0	32864	32708	
4045	0	32810	32726	
4046	0	32782	32854	
4047	0	32836	32838	
4048	0	32764	32756	
4049	0	32809	32804	
4050	0	32794	32753	
4051	0	32880	32775	
4052	0	32824	32660	
4053	0	32868	32756	
4054	0	32780	32832	
4055	0	32830	32752	
4056	0	32770	32864	
4057	0	32838	32678	
4058	0	32796	32810	
4059	0	32800	32794	
4060	0	32802	32743	
4061	0	32804	32768	
4062	0	32764	32852	
4063	0	32816	32714	
4064	0	32836	32840	
4065	0	32820	32804	
4066	0	32804	32612	
4067	0	32780	32688	
4068	0	32852	32774	
4069	0	32834	32794	
4070	0	32784	32845	
4071	0	32808	32800	
4072	0	32804	32756	
4073	0	32800	32822	
4074	0	32756	32704	
4075	0	32852	32732	
4076	0	32770	32738	
4077	0	32708	32848	
4078	0	32804	32766	
4079	0	32848	32790	
4080	0	32864	32810	
4081	0	32756	32751	
4082	0	32848	32678	
4083	0	32824	32830	
4084	0	32816	32788	
4085	0	32782	32736	
4086	0	32828	32804	
4087	0	32800	32732	
4088	0	32782	32706	
4089	0	32792	32826	
4090	0	32816	32768	
4091	0	32836	32799	
4092	0	32816	32724	
4093	0	32820	32775	
4094	0	32820	32612	
4095	0	32864	32760	
4096	0	32804	32834	
4097	0	32856	32836	
4098	0	32816	32788	
4099	0	32834	32716	
4100	0	32812	32790	
4101	0	32832	32838	
4102	0	32804	32708	
4103	0	32838	32762	
4104	0	32792	32722	
4105	0	32766	32818	
4106	0	32824	32828	
4107	0	32842	32792	
4108	0	32814	32812	
4109	0	32844	32748	
4110	0	32732	32692	
4111	0	32844	32806	
4112	0	32736	32714	
4113	0	32844	32730	
4114	0	32768	32786	
4115	0	32868	32708	
4116	0	32804	32784	
4117	0	32798	32800	
4118	0	32796	32732	
4119	0	32744	32820	
4120	0	32832	32742	
4121	0	32852	32746	
4122	0	32836	32724	
4123	0	32836	32868	
4124	0	32816	32828	
4125	0	32840	32820	
4126	0	32830	32734	
4127	0	32836	32782	
4128	0	32766	32680	
4129	0	32862	32774	
4130	0	32840	32716	
4131	0	32750	32794	
4132	0	32832	32756	
4133	0	32798	32708	
4134	0	32834	32722	
4135	0	32810	32736	
4136	0	32800	32890	
4137	0	32832	32788	
4138	0	32816	32716	
4139	0	32838	32700	
4140	0	32768	32746	
4141	0	32808	32712	
4142	0	32772	32852	
4143	0	32844	32836	
4144	0	32780	32886	
4145	0	32820	32852	
4146	0	32752	32680	
4147	0	32848	32710	
4148	0	32848	32812	
4149	0	32816	32748	
4150	0	32806	32760	
4151	0	32784	32775	
4152	0	32802	32654	
4153	0	32832	32666	
4154	0	32874	32693	
4155	0	32832	32730	
4156	0	32792	32742	
4157	0	32798	32800	
4158	0	32812	32728	
4159	0	32780	32876	
4160	0	32804	32770	
4161	0	32796	32744	
4162	0	32862	32768	
4163	0	32788	32740	
4164	0	32844	32784	
4165	0	32818	32802	
4166	0	32826	32806	
4167	0	32746	32884	
4168	0	32802	32774	
4169	0	32858	32838	
4170	0	32800	32752	
4171	0	32796	32740	
4172	0	32816	32752	
4173	0	32842	32710	
4174	0	32760	32696	
4175	0	32812	32708	
4176	0	32844	32732	
4177	0	32816	32726	
4178	0	32804	32818	
4179	0	32820	32812	
4180	0	32820	32866	
4181	0	32880	32814	
4182	0	32808	32808	
4183	0	32856	32708	
4184	0	32848	32774	
4185	0	32894	32750	
4186	0	32780	32872	
4187	0	32828	32808	
4188	0	32812	32820	
4189	0	32774	32738	
4190	0	32750	32810	
4191	0	32716	32732	
4192	0	32796	32692	
4193	0	32744	32602	
4194	0	32728	32594	
4195	0	32664	32713	
4196	0	32672	32734	
4197	0	32696	32702	
4198	0	32728	32759	
4199	0	32678	32690	
4200	0	32730	32666	
4201	0	32710	32832	
4202	0	32740	32774	
4203	0	32768	32716	
4204	0	32644	32744	
4205	0	32748	32774	
4206	0	32746	32746	
4207	0	32764	32624	
4208	0	32862	32700	
4209	0	32858	32780	
4210	0	32756	32840	
4211	0	32872	32739	
4212	0	32816	32767	
4213	0	32860	32736	
4214	0	32864	32786	
4215	0	32810	32796	
4216	0	32808	32740	
4217	0	32878	32798	
4218	0	32960	32826	
4219	0	32976	32804	
4220	0	33028	32848	
4221	0	33020	33002	
4222	0	33100	32956	
4223	0	33064	33026	
4224	0	33052	33046	
4225	0	33006	32956	
4226	0	32964	32894	
4227	0	33010	32912	
4228	0	32976	32846	
4229	0	32950	32912	
4230	0	32852	32832	
4231	0	32838	32705	
4232	0	32732	32786	
4233	0	32772	32698	
4234	0	32692	32656	
4235	0	32760	32572	
4236	0	32648	32682	
4237	0	32736	32660	
4238	0	32725	32692	
4239	0	32720	32716	
4240	0	32662	32558	
4241	0	32688	32702	
4242	0	32736	32775	
4243	0	32750	32788	
4244	0	32812	32804	
4245	0	32798	32748	
4246	0	32764	32798	
4247	0	32812	32698	
4248	0	32760	32828	
4249	0	32760	32778	
4250	0	32784	32679	
4251	0	32754	32680	
4252	0	32788	32740	
4253	0	32772	32752	
4254	0	32784	32718	
4255	0	32740	32672	
4256	0	32872	32806	
4257	0	32812	32742	
4258	0	32756	32798	
4259	0	32828	32750	
4260	0	32836	32854	
4261	0	32858	32862	
4262	0	32832	32838	
4263	0	32844	32698	
4264	0	32868	32694	
4265	0	32880	32838	
4266	0	32740	32752	
4267	0	32780	32808	
4268	0	32838	32880	
4269	0	32760	32702	
4270	0	32764	32702	
4271	0	32824	32798	
4272	0	32828	32810	
4273	0	32840	32762	
4274	0	32848	32784	
4275	0	32776	32728	
4276	0	32738	32720	
4277	0	32762	32674	
4278	0	32812	32692	
4279	0	32800	32775	
4280	0	32796	32764	
4281	0	32792	32760	
4282	0	32812	32756	
4283	0	32832	32728	
4284	0	32816	32679	
4285	0	32852	32798	
4286	0	32796	32792	
4287	0	32780	32858	
4288	0	32860	32864	
4289	0	32808	32766	
4290	0	32800	32696	
4291	0	32804	32686	
4292	0	32836	32804	
4293	0	32818	32798	
4294	0	32856	32798	
4295	0	32794	32838	
4296	0	32872	32772	
4297	0	32816	32668	
4298	0	32796	32680	
4299	0	32814	32775	
4300	0	32776	32876	
4301	0	32752	32761	
4302	0	32864	32824	
4303	0	32842	32888	
4304	0	32804	32686	
4305	0	32816	32704	
4306	0	32810	32724	
4307	0	32802	32774	
4308	0	32760	32782	
4309	0	32760	32808	
4310	0	32836	32736	
4311	0	32794	32612	
4312	0	32828	32689	
4313	0	32814	32678	
4314	0	32774	32768	
4315	0	32844	32710	
4316	0	32848	32740	
4317	0	32820	32807	
4318	0	32820	32768	
4319	0	32828	32756	
4320	0	32856	32810	
4321	0	32808	32775	
4322	0	32856	32764	
4323	0	32832	32756	
4324	0	32792	32872	
4325	0	32834	32790	
4326	0	32846	32774	
4327	0	32820	32852	
4328	0	32804	32888	
4329	0	32804	32764	
4330	0	32784	32704	
4331	0	32902	32692	
4332	0	32790	32710	
4333	0	32806	32692	
4334	0	32814	32748	
4335	0	32784	32775	
4336	0	32820	32720	
4337	0	32704	32814	
4338	0	32802	32844	
4339	0	32786	32828	
4340	0	32836	32740	
4341	0	32832	32766	
4342	0	32776	32738	
4343	0	32788	32812	
4344	0	32852	32748	
4345	0	32802	32796	
4346	0	32834	32720	
4347	0	32788	32764	
4348	0	32812	32846	
4349	0	32878	32672	
4350	0	32828	32732	
4351	0	32792	32670	
4352	0	32800	32688	
4353	0	32780	32734	
4354	0	32846	32766	
4355	0	32756	32801	
4356	0	32778	32794	
4357	0	32832	32788	
4358	0	32816	32775	
4359	0	32828	32846	
4360	0	32832	32802	
4361	0	32846	32740	
4362	0	32780	32738	
4363	0	32780	32775	
4364	0	32808	32772	
4365	0	32792	32816	
4366	0	32830	32820	
4367	0	32824	32688	
4368	0	32748	32768	
4369	0	32824	32702	
4370	0	32880	32760	
4371	0	32800	32804	
4372	0	32864	32784	
4373	0	32746	32782	
4374	0	32766	32743	
4375	0	32824	32775	
4376	0	32772	32752	
4377	0	32800	32748	
4378	0	32784	32736	
4379	0	32816	32774	
4380	0	32796	32768	
4381	0	32766	32652	
4382	0	32844	32870	
4383	0	32876	32775	
4384	0	32920	32866	
4385	0	32844	32844	
4386	0	32822	32700	
4387	0	32816	32712	
4388	0	32816	32745	
4389	0	32800	32702	
4390	0	32768	32837	
4391	0	32828	32718	
4392	0	32780	32662	
4393	0	32840	32836	
4394	0	32796	32770	
4395	0	32840	32736	
4396	0	32836	32764	
4397	0	32796	32804	
4398	0	32730	32698	
4399	0	32828	32824	
4400	0	32844	32828	
4401	0	32800	32666	
4402	0	32808	32808	
4403	0	32846	32775	
4404	0	32778	32708	
4405	0	32760	32796	
4406	0	32800	32756	
4407	0	32780	32808	
4408	0	32808	32679	
4409	0	32800	32806	
4410	0	32792	32752	
4411	0	32796	32786	
4412	0	32816	32596	
4413	0	32780	32775	
4414	0	32852	32816	
4415	0	32752	32736	
4416	0	32788	32808	
4417	0	32838	32852	
4418	0	32812	32718	
4419	0	32816	32788	
4420	0	32788	32756	
4421	0	32766	32708	
4422	0	32820	32903	
4423	0	32838	32775	
4424	0	32828	32734	
4425	0	32788	32802	
4426	0	32800	32792	
4427	0	32792	32706	
4428	0	32792	32762	
4429	0	32856	32798	
4430	0	32814	32752	
4431	0	32760	32692	
4432	0	32834	32804	
4433	0	32808	32668	
4434	0	32792	32716	
4435	0	32844	32742	
4436	0	32832	32844	
4437	0	32808	32792	
4438	0	32789	32786	
4439	0	32866	32742	
4440	0	32840	32764	
4441	0	32832	32830	
4442	0	32798	32752	
4443	0	32820	32775	
4444	0	32876	32856	
4445	0	32892	32806	
4446	0	32836	32780	
4447	0	32794	32716	
4448	0	32758	32806	
4449	0	32832	32782	
4450	0	32840	32647	
4451	0	32882	32610	
4452	0	32804	32790	
4453	0	32842	32750	
4454	0	32820	32698	
4455	0	32820	32800	
4456	0	32808	32848	
4457	0	32876	32794	
4458	0	32772	32710	
4459	0	32808	32839	
4460	0	32808	32780	
4461	0	32820	32810	
4462	0	32824	32810	
4463	0	32832	32766	
4464	0	32812	32808	
4465	0	32828	32814	
4466	0	32872	32792	
4467	0	32804	32818	
4468	0	32784	32788	
4469	0	32824	32766	
4470	0	32868	32682	
4471	0	32800	32798	
4472	0	32774	32750	
4473	0	32820	32708	
4474	0	32804	32656	
4475	0	32750	32750	
4476	0	32769	32694	
4477	0	32812	32762	
4478	0	32848	32824	
4479	0	32772	32798	
4480	0	32816	32728	
4481	0	32782	32870	
4482	0	32788	32770	
4483	0	32776	32698	
4484	0	32808	32836	
4485	0	32762	32828	
4486	0	32836	32692	
4487	0	32694	32736	
4488	0	32832	32760	
4489	0	32876	32768	
4490	0	32826	32696	
4491	0	32834	32762	
4492	0	32852	32788	
4493	0	32808	32728	
4494	0	32764	32790	
4495	0	32792	32756	
4496	0	32844	32762	
4497	0	32800	32722	
4498	0	32840	32766	
4499	0	32800	32886	
4500	0	32768	32808	
4501	0	32792	32728	
4502	0	32844	32736	
4503	0	32772	32756	
4504	0	32848	32812	
4505	0	32892	32785	
4506	0	32812	32754	
4507	0	32800	32750	
4508	0	32760	32752	
4509	0	32760	32849	
4510	0	32816	32816	
4511	0	32896	32692	
4512	0	32824	32716	
4513	0	32794	32796	
4514	0	32778	32764	
4515	0	32788	32726	
4516	0	32780	32726	
4517	0	32810	32842	
4518	0	32808	32766	
4519	0	32786	32770	
4520	0	32756	32711	
4521	0	32816	32695	
4522	0	32804	32838	
4523	0	32821	32762	
4524	0	32821	32646	
4525	0	32832	32860	
4526	0	32832	32772	
4527	0	32782	32786	
4528	0	32804	32735	
4529	0	32768	32774	
4530	0	32812	32772	
4531	0	32804	32620	
4532	0	32872	32804	
4533	0	32806	32722	
4534	0	32928	32644	
4535	0	32844	32836	
4536	0	32775	32806	
4537	0	32832	32800	
4538	0	32944	32742	
4539	0	32798	32772	
4540	0	32752	32852	
4541	0	32834	32836	
4542	0	32792	32820	
4543	0	32800	32816	
4544	0	32860	32830	
4545	0	32860	32788	
4546	0	32792	32720	
4547	0	32728	32736	
4548	0	32808	32824	
4549	0	32792	32712	
4550	0	32814	32758	
4551	0	32844	32828	
4552	0	32848	32740	
4553	0	32860	32698	
4554	0	32752	32724	
4555	0	32826	32748	
4556	0	32812	32748	
4557	0	32796	32834	
4558	0	32804	32700	
4559	0	32804	32828	
4560	0	32836	32724	
4561	0	32804	32794	
4562	0	32788	32792	
4563	0	32774	32788	
4564	0	32812	32800	
4565	0	32812	32690	
4566	0	32858	32880	
4567	0	32864	32790	
4568	0	32796	32718	
4569	0	32804	32884	
4570	0	32816	32748	
4571	0	32780	32708	
4572	0	32786	32766	
4573	0	32832	32823	
4574	0	32788	32682	
4575	0	32828	32706	
4576	0	32788	32704	
4577	0	32764	32834	
4578	0	32836	32832	
4579	0	32840	32768	
4580	0	32792	32828	
4581	0	32804	32864	
4582	0	32834	32770	
4583	0	32820	32706	
4584	0	32808	32702	
4585	0	32836	32742	
4586	0	32788	32798	
4587	0	32848	32730	
4588	0	32804	32806	
4589	0	32800	32820	
4590	0	32852	32786	
4591	0	32874	32712	
4592	0	32856	32696	
4593	0	32782	32618	
4594	0	32802	32732	
4595	0	32828	32830	
4596	0	32828	32862	
4597	0	32852	32884	
4598	0	32800	32692	
4599	0	32776	32843	
4600	0	32740	32814	
4601	0	32808	32710	
4602	0	32788	32866	
4603	0	32816	32860	
4604	0	32832	32804	
4605	0	32814	32752	
4606	0	32792	32666	
4607	0	32832	32792	
4608	0	32848	32682	
4609	0	32852	32874	
4610	0	32788	32736	
4611	0	32754	32772	
4612	0	32854	32724	
4613	0	32794	32804	
4614	0	32864	32728	
4615	0	32778	32836	
4616	0	32728	32710	
4617	0	32740	32746	
4618	0	32752	32698	
4619	0	32792	32731	
4620	0	32784	32868	
4621	0	32872	32707	
4622	0	32824	32756	
4623	0	32848	32728	
4624	0	32836	32852	
4625	0	32856	32852	
4626	0	32808	32758	
4627	0	32842	32764	
4628	0	32802	32750	
4629	0	32852	32746	
4630	0	32780	32740	
4631	0	32836	32664	
4632	0	32800	32720	
4633	0	32852	32726	
4634	0	32790	32806	
4635	0	32794	32778	
4636	0	32852	32796	
4637	0	32780	32826	
4638	0	32792	32804	
4639	0	32794	32746	
4640	0	32740	32716	
4641	0	32800	32738	
4642	0	32800	32812	
4643	0	32756	32810	
4644	0	32764	32836	
4645	0	32788	32812	
4646	0	32916	32760	
4647	0	32800	32758	
4648	0	32800	32592	
4649	0	32856	32664	
4650	0	32796	32774	
4651	0	32832	32768	
4652	0	32802	32794	
4653	0	32799	32816	
4654	0	32872	32644	
4655	0	32812	32712	
4656	0	32786	32808	
4657	0	32784	32754	
4658	0	32808	32804	
4659	0	32852	32862	
4660	0	32768	32824	
4661	0	32772	32692	
4662	0	32808	32702	
4663	0	32894	32724	
4664	0	32820	32822	
4665	0	32816	32809	
4666	0	32808	32706	
4667	0	32824	32808	
4668	0	32849	32759	
4669	0	32796	32826	
4670	0	32802	32838	
4671	0	32798	32716	
4672	0	32864	32652	
4673	0	32752	32700	
4674	0	32756	32644	
4675	0	32854	32724	
4676	0	32796	32692	
4677	0	32816	32774	
4678	0	32820	32718	
4679	0	32842	32874	
4680	0	32832	32775	
4681	0	32798	32804	
4682	0	32766	32836	
4683	0	32776	32852	
4684	0	32828	32842	
4685	0	32892	32710	
4686	0	32872	32708	
4687	0	32796	32708	
4688	0	32816	32732	
4689	0	32824	32775	
4690	0	32800	32754	
4691	0	32832	32744	
4692	0	32772	32700	
4693	0	32862	32690	
4694	0	32844	32808	
4695	0	32748	32766	
4696	0	32796	32834	
4697	0	32792	32716	
4698	0	32836	32668	
4699	0	32769	32748	
4700	0	32812	32868	
4701	0	32790	32748	
4702	0	32826	32816	
4703	0	32816	32858	
4704	0	32780	32814	
4705	0	32792	32688	
4706	0	32928	32670	
4707	0	32772	32752	
4708	0	32760	32784	
4709	0	32798	32775	
4710	0	32836	32836	
4711	0	32754	32778	
4712	0	32872	32698	
4713	0	32824	32848	
4714	0	32832	32734	
4715	0	32824	32644	
4716	0	32800	32700	
4717	0	32812	32767	
4718	0	32769	32878	
4719	0	32820	32838	
4720	0	32758	32806	
4721	0	32844	32742	
4722	0	32760	32794	
4723	0	32798	32738	
4724	0	32782	32724	
4725	0	32852	32722	
4726	0	32864	32800	
4727	0	32810	32792	
4728	0	32788	32796	
4729	0	32820	32716	
4730	0	32766	32840	
4731	0	32778	32804	
4732	0	32784	32708	
4733	0	32762	32702	
4734	0	32752	32668	
4735	0	32844	32684	
4736	0	32848	32794	
4737	0	32820	32810	
4738	0	32856	32732	
4739	0	32828	32766	
4740	0	32752	32825	
4741	0	32776	32836	
4742	0	32796	32712	
4743	0	32826	32830	
4744	0	32914	32806	
4745	0	32784	32788	
4746	0	32856	32775	
4747	0	32808	32740	
4748	0	32800	32814	
4749	0	32816	32720	
4750	0	32824	32764	
4751	0	32820	32736	
4752	0	32872	32746	
4753	0	32852	32760	
4754	0	32756	32744	
4755	0	32804	32718	
4756	0	32798	32712	
4757	0	32848	32718	
4758	0	32810	32816	
4759	0	32816	32806	
4760	0	32776	32743	
4761	0	32824	32758	
4762	0	32816	32928	
4763	0	32794	32786	
4764	0	32840	32784	
4765	0	32810	32740	
4766	0	32788	32796	
4767	0	32824	32760	
4768	0	32806	32764	
4769	0	32792	32852	
4770	0	32776	32774	
4771	0	32804	32664	
4772	0	32774	32756	
4773	0	32848	32672	
4774	0	32816	32812	
4775	0	32776	32792	
4776	0	32848	32744	
4777	0	32794	32712	
4778	0	32840	32810	
4779	0	32758	32740	
4780	0	32792	32839	
4781	0	32760	32812	
4782	0	32872	32694	
4783	0	32868	32692	
4784	0	32780	32750	
4785	0	32804	32714	
4786	0	32764	32798	
4787	0	32808	32820	
4788	0	32820	32738	
4789	0	32708	32855	
4790	0	32888	32798	
4791	0	32858	32702	
4792	0	32862	32774	
4793	0	32752	32800	
4794	0	32792	32652	
4795	0	32808	32716	
4796	0	32772	32774	
4797	0	32864	32856	
4798	0	32820	32775	
4799	0	32860	32858	
4800	0	32820	32698	
4801	0	32756	32737	
4802	0	32846	32830	
4803	0	32844	32720	
4804	0	32800	32820	
4805	0	32836	32770	
4806	0	32778	32766	
4807	0	32800	32768	
4808	0	32792	32747	
4809	0	32792	32822	
4810	0	32764	32790	
4811	0	32818	32712	
4812	0	32816	32752	
4813	0	32810	32828	
4814	0	32762	32656	
4815	0	32816	32736	
4816	0	32842	32804	
4817	0	32818	32736	
4818	0	32740	32800	
4819	0	32846	32688	
4820	0	32816	32884	
4821	0	32834	32743	
4822	0	32792	32700	
4823	0	32808	32746	
4824	0	32856	32756	
4825	0	32816	32840	
4826	0	32796	32714	
4827	0	32788	32774	
4828	0	32902	32772	
4829	0	32804	32774	
4830	0	32808	32742	
4831	0	32852	32672	
4832	0	32854	32728	
4833	0	32798	32750	
4834	0	32860	32740	
4835	0	32828	32700	
4836	0	32800	32820	
4837	0	32808	32854	
4838	0	32816	32720	
4839	0	32814	32808	
4840	0	32794	32745	
4841	0	32780	32806	
4842	0	32836	32740	
4843	0	32786	32913	
4844	0	32752	32818	
4845	0	32836	32704	
4846	0	32804	32832	
4847	0	32812	32839	
4848	0	32821	32652	
4849	0	32820	32896	
4850	0	32804	32770	
4851	0	32804	32690	
4852	0	32890	32726	
4853	0	32844	32742	
4854	0	32796	32708	
4855	0	32800	32766	
4856	0	32760	32764	
4857	0	32808	32775	
4858	0	32882	32760	
4859	0	32802	32708	
4860	0	32836	32704	
4861	0	32832	32740	
4862	0	32820	32824	
4863	0	32828	32756	
4864	0	32840	32710	
4865	0	32784	32872	
4866	0	32816	32775	
4867	0	32808	32772	
4868	0	32816	32812	
4869	0	32714	32775	
4870	0	32784	32708	
4871	0	32856	32774	
4872	0	32768	32700	
4873	0	32816	32776	
4874	0	32818	32808	
4875	0	32724	32748	
4876	0	32788	32710	
4877	0	32784	32752	
4878	0	32840	32748	
4879	0	32820	32806	
4880	0	32804	32790	
4881	0	32824	32686	
4882	0	32852	32856	
4883	0	32876	32868	
4884	0	32826	32754	
4885	0	32756	32823	
4886	0	32792	32759	
4887	0	32848	32792	
4888	0	32804	32734	
4889	0	32816	32836	
4890	0	32798	32822	
4891	0	32794	32775	
4892	0	32840	32752	
4893	0	32820	32748	
4894	0	32856	32712	
4895	0	32808	32762	
4896	0	32748	32786	
4897	0	32820	32849	
4898	0	32876	32686	
4899	0	32848	32814	
4900	0	32844	32796	
4901	0	32764	32810	
4902	0	32826	32789	
4903	0	32768	32686	
4904	0	32784	32732	
4905	0	32766	32872	
4906	0	32800	32782	
4907	0	32832	32812	
4908	0	32788	32672	
4909	0	32832	32700	
4910	0	32760	32800	
4911	0	32812	32807	
4912	0	32876	32804	
4913	0	32798	32670	
4914	0	32788	32748	
4915	0	32762	32802	
4916	0	32794	32780	
4917	0	32824	32794	
4918	0	32882	32687	
4919	0	32832	32812	
4920	0	32800	32804	
4921	0	32812	32728	
4922	0	32772	32690	
4923	0	32836	32876	
4924	0	32800	32724	
4925	0	32768	32810	
4926	0	32834	32706	
4927	0	32882	32680	
4928	0	32794	32841	
4929	0	32756	32823	
4930	0	32836	32774	
4931	0	32792	32742	
4932	0	32852	32706	
4933	0	32800	32810	
4934	0	32784	32758	
4935	0	32778	32794	
4936	0	32780	32775	
4937	0	32836	32718	
4938	0	32836	32656	
4939	0	32768	32764	
4940	0	32864	32786	
4941	0	32846	32832	
4942	0	32772	32714	
4943	0	32804	32774	
4944	0	32865	32824	
4945	0	32892	32798	
4946	0	32844	32754	
4947	0	32820	32686	
4948	0	32872	32736	
4949	0	32780	32788	
4950	0	32764	32824	
4951	0	32848	32672	
4952	0	32810	32678	
4953	0	32804	32775	
4954	0	32800	32775	
4955	0	32788	32884	
4956	0	32776	32676	
4957	0	32836	32812	
4958	0	32740	32680	
4959	0	32800	32766	
4960	0	32860	32772	
4961	0	32892	32788	
4962	0	32840	32680	
4963	0	32796	32792	
4964	0	32836	32766	
4965	0	32786	32850	
4966	0	32804	32744	
4967	0	32756	32712	
4968	0	32818	32838	
4969	0	32808	32732	
4970	0	32798	32814	
4971	0	32866	32682	
4972	0	32792	32700	
4973	0	32804	32790	
4974	0	32810	32734	
4975	0	32832	32804	
4976	0	32810	32704	
4977	0	32780	32748	
4978	0	32804	32810	
4979	0	32814	32792	
4980	0	32732	32636	
4981	0	32802	32800	
4982	0	32826	32814	
4983	0	32738	32726	
4984	0	32868	32768	
4985	0	32784	32798	
4986	0	32756	32810	
4987	0	32808	32823	
4988	0	32868	32688	
4989	0	32818	32656	
4990	0	32866	32820	
4991	0	32922	32766	
4992	0	32838	32734	
4993	0	32954	32748	
4994	0	32892	32846	
4995	0	32792	32730	
4996	0	32816	32826	
4997	0	32784	32850	
4998	0	32808	32764	
4999	0	32840	32644	
5000	0	32820	32820	
5001	0	32772	32748	
5002	0	32766	32764	
5003	0	32724	32688	
5004	0	32716	32624	
5005	0	32716	32716	
5006	0	32716	32711	
5007	0	32680	32768	
5008	0	32588	32743	
5009	0	32674	32658	
5010	0	32718	32756	
5011	0	32680	32676	
5012	0	32708	32614	
5013	0	32708	32728	
5014	0	32712	32740	
5015	0	32780	32604	
5016	0	32770	32668	
5017	0	32840	32742	
5018	0	32864	32752	
5019	0	32836	32750	
5020	0	32852	32836	
5021	0	32794	32790	
5022	0	32832	32748	
5023	0	32848	32886	
5024	0	32788	32860	
5025	0	32808	32836	
5026	0	32810	32836	
5027	0	32938	32806	
5028	0	32956	32868	
5029	0	32968	32966	
5030	0	32960	32924	
5031	0	33032	32950	
5032	0	33052	32906	
5033	0	33106	32828	
5034	0	33028	33008	
5035	0	32960	32786	
5036	0	32924	32828	
5037	0	32932	32852	
5038	0	32952	32886	
5039	0	32948	32856	
5040	0	32904	32856	
5041	0	32896	32842	
5042	0	32844	32680	
5043	0	32732	32752	
5044	0	32700	32738	
5045	0	32738	32708	
5046	0	32698	32666	
5047	0	32726	32670	
5048	0	32748	32646	
5049	0	32719	32606	
5050	0	32790	32720	
5051	0	32806	32708	
5052	0	32716	32614	
5053	0	32756	32764	
5054	0	32740	32764	
5055	0	32806	32764	
5056	0	32752	32774	
5057	0	32786	32738	
5058	0	32752	32824	
5059	0	32754	32760	
5060	0	32784	32664	
5061	0	32780	32640	
5062	0	32816	32775	
5063	0	32812	32742	
5064	0	32804	32800	
5065	0	32792	32708	
5066	0	32808	32680	
5067	0	32812	32786	
5068	0	32840	32720	
5069	0	32798	32824	
5070	0	32758	32784	
5071	0	32808	32720	
5072	0	32796	32688	
5073	0	32780	32686	
5074	0	32782	32874	
5075	0	32784	32760	
5076	0	32816	32772	
5077	0	32794	32818	
5078	0	32776	32698	
5079	0	32800	32743	
5080	0	32736	32648	
5081	0	32828	32911	
5082	0	32804	32828	
5083	0	32792	32820	
5084	0	32804	32740	
5085	0	32792	32712	
5086	0	32816	32718	
5087	0	32864	32664	
5088	0	32820	32734	
5089	0	32784	32767	
5090	0	32848	32678	
5091	0	32780	32712	
5092	0	32836	32718	
5093	0	32828	32764	
5094	0	32810	32727	
5095	0	32788	32688	
5096	0	32868	32775	
5097	0	32864	32720	
5098	0	32844	32714	
5099	0	32782	32758	
5100	0	32810	32862	
5101	0	32816	32862	
5102	0	32908	32682	
5103	0	32824	32852	
5104	0	32790	32820	
5105	0	32884	32760	
5106	0	32934	32902	
5107	0	32840	32892	
5108	0	32786	32775	
5109	0	32788	32824	
5110	0	32788	32784	
5111	0	32790	32658	
5112	0	32832	32790	
5113	0	32785	32720	
5114	0	32764	32604	
5115	0	32760	32722	
5116	0	32768	32711	
5117	0	32724	32756	
5118	0	32772	32782	
5119	0	32728	32700	
5120	0	32720	32821	
5121	0	32692	32796	
5122	0	32764	32666	
5123	0	32894	32836	
5124	0	32902	32720	
5125	0	32776	32682	
5126	0	32906	32926	
5127	0	32784	32788	
5128	0	32740	32888	
5129	0	32760	32756	
5130	0	32832	32628	
5131	0	32784	32588	
5132	0	32796	32690	
5133	0	32804	32688	
5134	0	32920	32688	
5135	0	32888	32870	
5136	0	32842	32870	
5137	0	32896	32828	
5138	0	32812	32752	
5139	0	32832	32814	
5140	0	32792	32848	
5141	0	32804	32818	
5142	0	32728	32810	
5143	0	32820	32775	
5144	0	32876	32716	
5145	0	32832	32720	
5146	0	32840	32756	
5147	0	32744	32722	
5148	0	32708	32775	
5149	0	32668	32804	
5150	0	32760	32788	
5151	0	32748	32804	
5152	0	32808	32772	
5153	0	32872	32720	
5154	0	32908	32689	
5155	0	32958	32712	
5156	0	32862	32690	
5157	0	32752	32558	
5158	0	32708	32616	
5159	0	32568	32615	
5160	0	32700	32770	
5161	0	32764	32827	
5162	0	32802	32866	
5163	0	32880	32999	
5164	0	32880	32978	
5165	0	32976	33038	
5166	0	32974	33056	
5167	0	32876	32932	
5168	0	32912	32828	
5169	0	32904	32740	
5170	0	32838	32724	
5171	0	32820	32714	
5172	0	32806	32736	
5173	0	32775	32622	
5174	0	32770	32620	
5175	0	32792	32640	
5176	0	32700	32656	
5177	0	32688	32636	
5178	0	32706	32668	
5179	0	32796	32769	
5180	0	32752	32812	
5181	0	32904	32790	
5182	0	32808	32786	
5183	0	32756	32680	
5184	0	32796	32700	
5185	0	32764	32764	
5186	0	32756	32804	
5187	0	32824	32748	
5188	0	32882	32812	
5189	0	32826	32839	
5190	0	32844	32694	
5191	0	32766	32788	
5192	0	32780	32764	
5193	0	32860	32692	
5194	0	32852	32832	
5195	0	32812	32652	
5196	0	32772	32648	
5197	0	32756	32838	
5198	0	32820	32806	
5199	0	32844	32768	
5200	0	32832	32796	
5201	0	32776	32660	
5202	0	32810	32742	
5203	0	32888	32790	
5204	0	32836	32788	
5205	0	32876	32824	
5206	0	32808	32860	
5207	0	32834	32810	
5208	0	32836	32746	
5209	0	32744	32836	
5210	0	32784	32746	
5211	0	32792	32688	
5212	0	32752	32772	
5213	0	32760	32721	
5214	0	32748	32692	
5215	0	32832	32636	
5216	0	32942	32775	
5217	0	32836	32849	
5218	0	32812	32682	
5219	0	32820	32804	
5220	0	33004	32712	
5221	0	32908	32708	
5222	0	32856	32794	
5223	0	32732	32858	
5224	0	32820	32796	
5225	0	32724	32900	
5226	0	32740	32726	
5227	0	32790	32738	
5228	0	32818	32764	
5229	0	32762	32724	
5230	0	32752	32822	
5231	0	32760	32678	
5232	0	32818	32736	
5233	0	32896	32838	
5234	0	32872	32816	
5235	0	32946	32740	
5236	0	32976	32712	
5237	0	32736	32790	
5238	0	32816	32850	
5239	0	32898	32688	
5240	0	32746	32774	
5241	0	32744	32686	
5242	0	32812	32792	
5243	0	32732	32720	
5244	0	32762	32802	
5245	0	32804	32812	
5246	0	32820	32756	
5247	0	32816	32654	
5248	0	32788	32852	
5249	0	32792	32782	
5250	0	32844	32646	
5251	0	32796	32702	
5252	0	32802	32764	
5253	0	32836	32782	
5254	0	32832	32730	
5255	0	32832	32642	
5256	0	32840	32816	
5257	0	32796	32872	
5258	0	32696	32680	
5259	0	32741	32750	
5260	0	32804	32764	
5261	0	32820	32786	
5262	0	32832	32728	
5263	0	32868	32798	
5264	0	32842	32808	
5265	0	32928	32815	
5266	0	32854	32788	
5267	0	32804	32760	
5268	0	32798	32716	
5269	0	32752	32736	
5270	0	32850	32802	
5271	0	32832	32800	
5272	0	32756	32708	
5273	0	32916	32772	
5274	0	32884	32788	
5275	0	32818	32720	
5276	0	32730	32678	
5277	0	32804	32864	
5278	0	32768	32826	
5279	0	32772	32752	
5280	0	32736	32744	
5281	0	32833	32740	
5282	0	32800	32775	
5283	0	32970	32734	
5284	0	32920	32792	
5285	0	32842	32728	
5286	0	32860	32836	
5287	0	32842	32748	
5288	0	32768	32784	
5289	0	32804	32666	
5290	0	32788	32692	
5291	0	32844	32784	
5292	0	32772	32772	
5293	0	32796	32732	
5294	0	32808	32804	
5295	0	32744	32808	
5296	0	32752	32750	
5297	0	32792	32802	
5298	0	32768	32704	
5299	0	32776	32828	
5300	0	32760	32792	
5301	0	32792	32740	
5302	0	32834	32764	
5303	0	32826	32772	
5304	0	32852	32847	
5305	0	32896	32846	
5306	0	32850	32856	
5307	0	32824	32810	
5308	0	32864	32640	
5309	0	32796	32647	
5310	0	32800	32757	
5311	0	32744	32710	
5312	0	32706	32716	
5313	0	32784	32824	
5314	0	32800	32796	
5315	0	32796	32768	
5316	0	32992	32852	
5317	0	32950	32870	
5318	0	32870	32868	
5319	0	32768	32775	
5320	0	32828	32764	
5321	0	32778	32668	
5322	0	32700	32623	
5323	0	32660	32624	
5324	0	32682	32684	
5325	0	32756	32624	
5326	0	32692	32746	
5327	0	32738	32722	
5328	0	32706	32740	
5329	0	32724	32775	
5330	0	32840	32790	
5331	0	32888	32782	
5332	0	32940	32775	
5333	0	33092	32884	
5334	0	33208	32822	
5335	0	33082	32880	
5336	0	32958	32714	
5337	0	32856	32668	
5338	0	32604	32636	
5339	0	32552	32548	
5340	0	32564	32590	
5341	0	32646	32628	
5342	0	32810	32570	
5343	0	32808	32772	
5344	0	33104	32942	
5345	0	33144	32932	
5346	0	33028	33055	
5347	0	32880	33008	
5348	0	32684	32898	
5349	0	32694	32775	
5350	0	32708	32724	
5351	0	32602	32775	
5352	0	32696	32820	
5353	0	32896	32814	
5354	0	32812	32796	
5355	0	32876	32892	
5356	0	32876	32752	
5357	0	32788	32516	
5358	0	32750	32554	
5359	0	32736	32710	
5360	0	32896	32704	
5361	0	32792	32700	
5362	0	32776	32846	
5363	0	32808	32862	
5364	0	32760	32774	
5365	0	32732	32680	
5366	0	32860	32716	
5367	0	32926	32950	
5368	0	32844	32906	
5369	0	32885	32964	
5370	0	32808	32902	
5371	0	32682	32856	
5372	0	32624	32772	
5373	0	32700	32616	
5374	0	32728	32580	
5375	0	32752	32600	
5376	0	32800	32732	
5377	0	32848	32652	
5378	0	32872	32680	
5379	0	32872	32854	
5380	0	33032	32832	
5381	0	32892	32782	
5382	0	32704	32752	
5383	0	32836	32706	
5384	0	32688	32804	
5385	0	32876	32784	
5386	0	32709	32860	
5387	0	32532	32768	
5388	0	32680	32700	
5389	0	32992	32796	
5390	0	33168	32782	
5391	0	33056	32712	
5392	0	32872	32754	
5393	0	32910	32687	
5394	0	32872	32772	
5395	0	32816	32728	
5396	0	32776	32718	
5397	0	32830	32748	
5398	0	32876	32688	
5399	0	32796	32558	
5400	0	32744	32582	
5401	0	32732	32636	
5402	0	32748	32626	
5403	0	32688	32616	
5404	0	32664	32694	
5405	0	32652	32794	
5406	0	32538	32864	
5407	0	32564	32998	
5408	0	32648	32926	
5409	0	32972	32945	
5410	0	33028	32852	
5411	0	32968	32862	
5412	0	33016	32792	
5413	0	32906	32798	
5414	0	32970	32704	
5415	0	32872	32540	
5416	0	32728	32640	
5417	0	32850	32734	
5418	0	32844	32720	
5419	0	32800	32864	
5420	0	32810	32944	
5421	0	32816	32866	
5422	0	32852	32775	
5423	0	32912	32871	
5424	0	32752	32807	
5425	0	32716	32849	
5426	0	32708	32854	
5427	0	32672	32732	
5428	0	32736	32604	
5429	0	32748	32650	
5430	0	32740	32740	
5431	0	32744	32748	
5432	0	32702	32670	
5433	0	32720	32840	
5434	0	32844	32816	
5435	0	32752	32744	
5436	0	32874	32678	
5437	0	32880	32682	
5438	0	32804	32748	
5439	0	32936	32870	
5440	0	32856	32790	
5441	0	32848	32774	
5442	0	32824	32750	
5443	0	32860	32736	
5444	0	32840	32848	
5445	0	32656	32945	
5446	0	32604	32876	
5447	0	32756	32850	
5448	0	32820	32890	
5449	0	32936	32752	
5450	0	33004	32792	
5451	0	32796	32828	
5452	0	32788	32708	
5453	0	32860	32866	
5454	0	32894	32816	
5455	0	32928	32696	
5456	0	32828	32718	
5457	0	32738	32596	
5458	0	32812	32601	
5459	0	32788	32766	
5460	0	32732	32754	
5461	0	32810	32706	
5462	0	32748	32790	
5463	0	32676	32812	
5464	0	32728	32654	
5465	0	32656	32632	
5466	0	32712	32716	
5467	0	32752	32790	
5468	0	32836	32910	
5469	0	32900	32766	
5470	0	32948	32586	
5471	0	32980	32682	
5472	0	32844	32860	
5473	0	32732	32950	
5474	0	32792	32966	
5475	0	32888	32738	
5476	0	32864	32802	
5477	0	32916	32816	
5478	0	32892	32724	
5479	0	32742	32814	
5480	0	32744	32662	
5481	0	32810	32618	
5482	0	32992	32622	
5483	0	32924	32736	
5484	0	32844	32838	
5485	0	32762	32760	
5486	0	32728	32775	
5487	0	32678	32794	
5488	0	32700	32842	
5489	0	32704	32650	
5490	0	32838	32743	
5491	0	32836	32894	
5492	0	32950	32748	
5493	0	32966	32786	
5494	0	32912	32792	
5495	0	32872	32743	
5496	0	32829	32716	
5497	0	32796	32775	
5498	0	32654	32724	
5499	0	32766	32744	
5500	0	32728	32762	
5501	0	32800	32788	
5502	0	32758	32748	
5503	0	32836	32840	
5504	0	32769	32676	
5505	0	32804	32696	
5506	0	32768	32746	
5507	0	32808	32888	
5508	0	32784	32820	
5509	0	32840	32775	
5510	0	32836	32762	
5511	0	32850	32756	
5512	0	32872	32775	
5513	0	32876	32738	
5514	0	32788	32810	
5515	0	32718	32786	
5516	0	32728	32718	
5517	0	32760	32646	
5518	0	32828	32634	
5519	0	32832	32764	
5520	0	32808	32754	
5521	0	32846	32756	
5522	0	32772	32841	
5523	0	32720	32808	
5524	0	32772	32770	
5525	0	32852	32864	
5526	0	32892	32684	
5527	0	32922	32774	
5528	0	32844	32740	
5529	0	32840	32796	
5530	0	32800	32828	
5531	0	32874	32794	
5532	0	32786	32814	
5533	0	32792	32746	
5534	0	32784	32800	
5535	0	32794	32812	
5536	0	32844	32710	
5537	0	32838	32804	
5538	0	32838	32822	
5539	0	32866	32740	
5540	0	32760	32804	
5541	0	32768	32802	
5542	0	32764	32734	
5543	0	32784	32864	
5544	0	32712	32712	
5545	0	32716	32820	
5546	0	32736	32792	
5547	0	32848	32641	
5548	0	32860	32804	
5549	0	32964	32732	
5550	0	32996	32730	
5551	0	32826	32670	
5552	0	32782	32766	
5553	0	32846	32808	
5554	0	32826	32716	
5555	0	32816	32734	
5556	0	32790	32808	
5557	0	32676	32862	
5558	0	32838	32748	
5559	0	32804	32832	
5560	0	32752	32780	
5561	0	32796	32814	
5562	0	32836	32816	
5563	0	32824	32804	
5564	0	32874	32844	
5565	0	32868	32700	
5566	0	32828	32768	
5567	0	32754	32716	
5568	0	32730	32656	
5569	0	32824	32804	
5570	0	32846	32754	
5571	0	32768	32756	
5572	0	32802	32816	
5573	0	32756	32724	
5574	0	32764	32634	
5575	0	32784	32715	
5576	0	32798	32744	
5577	0	32834	32726	
5578	0	32834	32743	
5579	0	32772	32750	
5580	0	32836	32862	
5581	0	32900	32754	
5582	0	32804	32724	
5583	0	32794	32884	
5584	0	32882	32760	
5585	0	32862	32804	
5586	0	32816	32772	
5587	0	32756	32768	
5588	0	32756	32724	
5589	0	32832	32682	
5590	0	32840	32680	
5591	0	32800	32746	
5592	0	32834	32700	
5593	0	32916	32750	
5594	0	32818	32854	
5595	0	32824	32750	
5596	0	32800	32664	
5597	0	32842	32748	
5598	0	32812	32704	
5599	0	32808	32860	
5600	0	32736	32752	
5601	0	32828	32775	
5602	0	32800	32866	
5603	0	32822	32824	
5604	0	32844	32866	
5605	0	32828	32704	
5606	0	32796	32712	
5607	0	32896	32743	
5608	0	32848	32806	
5609	0	32788	32766	
5610	0	32792	32792	
5611	0	32820	32814	
5612	0	32832	32762	
5613	0	32798	32664	
5614	0	32852	32712	
5615	0	32860	32704	
5616	0	32762	32750	
5617	0	32808	32806	
5618	0	32808	32784	
5619	0	32778	32768	
5620	0	32776	32692	
5621	0	32732	32840	
5622	0	32852	32834	
5623	0	32814	32798	
5624	0	32878	32860	
5625	0	32856	32858	
5626	0	32820	32804	
5627	0	32844	32775	
5628	0	32786	32748	
5629	0	32892	32768	
5630	0	32820	32756	
5631	0	32908	32752	
5632	0	32872	32724	
5633	0	32776	32704	
5634	0	32772	32612	
5635	0	32816	32758	
5636	0	32724	32824	
5637	0	32866	32752	
5638	0	32786	32796	
5639	0	32808	32852	
5640	0	32828	32740	
5641	0	32772	32748	
5642	0	32852	32774	
5643	0	32812	32872	
5644	0	32788	32760	
5645	0	32786	32762	
5646	0	32792	32814	
5647	0	32834	32775	
5648	0	32836	32832	
5649	0	32756	32748	
5650	0	32800	32760	
5651	0	32778	32759	
5652	0	32832	32672	
5653	0	32834	32720	
5654	0	32836	32764	
5655	0	32820	32686	
5656	0	32876	32772	
5657	0	32764	32775	
5658	0	32888	32860	
5659	0	32798	32830	
5660	0	32820	32664	
5661	0	32788	32734	
5662	0	32800	32834	
5663	0	32780	32810	
5664	0	32757	32736	
5665	0	32800	32696	
5666	0	32832	32903	
5667	0	32832	32846	
5668	0	32852	32718	
5669	0	32752	32784	
5670	0	32892	32804	
5671	0	32960	32673	
5672	0	32858	32800	
5673	0	32904	32742	
5674	0	32916	32796	
5675	0	32792	32834	
5676	0	32680	32804	
5677	0	32760	32748	
5678	0	32766	32722	
5679	0	32832	32672	
5680	0	32816	32758	
5681	0	32764	32840	
5682	0	32804	32820	
5683	0	32850	32866	
5684	0	32780	32790	
5685	0	32780	32822	
5686	0	32820	32734	
5687	0	32792	32774	
5688	0	32832	32694	
5689	0	32784	32760	
5690	0	32810	32806	
5691	0	32768	32759	
5692	0	32768	32770	
5693	0	32824	32672	
5694	0	32850	32706	
5695	0	32910	32814	
5696	0	32848	32806	
5697	0	32756	32812	
5698	0	32776	32766	
5699	0	32849	32694	
5700	0	32778	32868	
5701	0	32800	32848	
5702	0	32862	32720	
5703	0	32776	32836	
5704	0	32816	32661	
5705	0	32792	32688	
5706	0	32802	32720	
5707	0	32772	32772	
5708	0	32888	32834	
5709	0	32832	32680	
5710	0	32772	32690	
5711	0	32712	32810	
5712	0	32700	32712	
5713	0	32732	32752	
5714	0	32736	32734	
5715	0	32904	32664	
5716	0	32948	32822	
5717	0	32980	32816	
5718	0	32868	32702	
5719	0	32768	32812	
5720	0	32852	32826	
5721	0	32776	32712	
5722	0	32804	32876	
5723	0	32828	32884	
5724	0	32788	32806	
5725	0	32748	32756	
5726	0	32752	32856	
5727	0	32754	32718	
5728	0	32846	32810	
5729	0	32848	32756	
5730	0	32880	32730	
5731	0	32830	32798	
5732	0	32884	32652	
5733	0	32872	32836	
5734	0	32868	32766	
5735	0	32776	32689	
5736	0	32782	32724	
5737	0	32772	32632	
5738	0	32846	32680	
5739	0	32806	32631	
5740	0	32740	32798	
5741	0	32804	32814	
5742	0	32758	32886	
5743	0	32832	32903	
5744	0	32762	32864	
5745	0	32810	32956	
5746	0	32860	32844	
5747	0	32846	32764	
5748	0	32868	32673	
5749	0	32840	32700	
5750	0	32796	32702	
5751	0	32886	32696	
5752	0	32845	32704	
5753	0	32764	32775	
5754	0	32834	32865	
5755	0	32732	32860	
5756	0	32724	32824	
5757	0	32782	32828	
5758	0	32848	32836	
5759	0	32836	32870	
5760	0	32772	32856	
5761	0	32808	32804	
5762	0	32796	32704	
5763	0	32822	32744	
5764	0	32864	32736	
5765	0	32864	32740	
5766	0	32840	32838	
5767	0	32708	32762	
5768	0	32852	32822	
5769	0	32804	32756	
5770	0	32860	32756	
5771	0	32778	32772	
5772	0	32844	32714	
5773	0	32708	32718	
5774	0	32752	32582	
5775	0	32800	32668	
5776	0	32804	32724	
5777	0	32768	32768	
5778	0	32848	32836	
5779	0	32768	32808	
5780	0	32768	32807	
5781	0	32704	32802	
5782	0	32720	32826	
5783	0	32812	32820	
5784	0	32920	32764	
5785	0	32876	32702	
5786	0	32840	32740	
5787	0	32825	32774	
5788	0	32898	32708	
5789	0	32940	32717	
5790	0	32918	32616	
5791	0	32856	32676	
5792	0	32844	32750	
5793	0	32836	32740	
5794	0	32768	32774	
5795	0	32800	32775	
5796	0	32748	32794	
5797	0	32748	32796	
5798	0	32780	32880	
5799	0	32776	32872	
5800	0	32876	32884	
5801	0	32856	32844	
5802	0	32826	32738	
5803	0	32874	32710	
5804	0	32800	32730	
5805	0	32804	32682	
5806	0	32824	32790	
5807	0	32840	32743	
5808	0	32794	32816	
5809	0	32856	32812	
5810	0	32740	32775	
5811	0	32762	32735	
5812	0	32716	32692	
5813	0	32760	32742	
5814	0	32844	32696	
5815	0	32792	32647	
5816	0	32720	32742	
5817	0	32800	32754	
5818	0	32852	32716	
5819	0	32836	32704	
5820	0	32808	32782	
5821	0	32710	32738	
5822	0	32748	32824	
5823	0	32806	32886	
5824	0	32818	32858	
5825	0	32776	32792	
5826	0	32868	32732	
5827	0	32932	32732	
5828	0	32908	32740	
5829	0	32828	32742	
5830	0	32784	32647	
5831	0	32786	32710	
5832	0	32800	32730	
5833	0	32832	32678	
5834	0	32852	32754	
5835	0	32868	32692	
5836	0	32878	32720	
5837	0	32884	32692	
5838	0	32832	32758	
5839	0	32680	32878	
5840	0	32828	32828	
5841	0	32844	32884	
5842	0	32888	32903	
5843	0	32792	32738	
5844	0	32828	32711	
5845	0	32792	32804	
5846	0	32754	32812	
5847	0	32760	32722	
5848	0	32764	32790	
5849	0	32746	32814	
5850	0	32868	32780	
5851	0	32832	32828	
5852	0	32744	32814	
5853	0	32756	32824	
5854	0	32788	32730	
5855	0	32816	32657	
5856	0	32876	32716	
5857	0	32816	32676	
5858	0	32798	32724	
5859	0	32876	32812	
5860	0	32808	32775	
5861	0	32836	32878	
5862	0	32748	32800	
5863	0	32824	32702	
5864	0	32728	32832	
5865	0	32782	32862	
5866	0	32924	32852	
5867	0	32822	32934	
5868	0	32860	32748	
5869	0	32854	32774	
5870	0	32860	32774	
5871	0	32744	32692	
5872	0	32788	32684	
5873	0	32848	32696	
5874	0	32820	32712	
5875	0	32764	32698	
5876	0	32788	32796	
5877	0	32704	32673	
5878	0	32748	32694	
5879	0	32792	32780	
5880	0	32858	32702	
5881	0	32846	32796	
5882	0	32912	32884	
5883	0	32896	32856	
5884	0	32806	32714	
5885	0	32828	32654	
5886	0	32820	32764	
5887	0	32840	32782	
5888	0	32874	32836	
5889	0	32849	32791	
5890	0	32802	32806	
5891	0	32784	32790	
5892	0	32840	32792	
5893	0	32820	32690	
5894	0	32798	32704	
5895	0	32816	32680	
5896	0	32780	32848	
5897	0	32724	32722	
5898	0	32724	32810	
5899	0	32848	32750	
5900	0	32905	32820	
5901	0	32848	32822	
5902	0	32888	32798	
5903	0	32814	32850	
5904	0	32748	32814	
5905	0	32774	32680	
5906	0	32792	32775	
5907	0	32728	32782	
5908	0	32786	32726	
5909	0	32820	32820	
5910	0	32752	32860	
5911	0	32792	32736	
5912	0	32796	32750	
5913	0	32782	32744	
5914	0	32816	32824	
5915	0	32864	32724	
5916	0	32796	32680	
5917	0	32772	32804	
5918	0	32804	32821	
5919	0	32792	32772	
5920	0	32820	32774	
5921	0	32894	32818	
5922	0	32788	32800	
5923	0	32876	32810	
5924	0	32784	32720	
5925	0	32828	32646	
5926	0	32834	32722	
5927	0	32826	32800	
5928	0	32816	32804	
5929	0	32812	32768	
5930	0	32844	32860	
5931	0	32792	32818	
5932	0	32780	32802	
5933	0	32836	32658	
5934	0	32838	32632	
5935	0	32748	32718	
5936	0	32688	32746	
5937	0	32752	32744	
5938	0	32776	32736	
5939	0	32724	32852	
5940	0	32696	32890	
5941	0	32682	32720	
5942	0	32784	32588	
5943	0	32756	32628	
5944	0	32740	32740	
5945	0	32804	32738	
5946	0	32804	32732	
5947	0	32636	32672	
5948	0	32708	32666	
5949	0	32700	32631	
5950	0	32664	32646	
5951	0	32658	32538	
5952	0	32736	32766	
5953	0	32754	32748	
5954	0	32836	32689	
5955	0	32760	32775	
5956	0	32824	32834	
5957	0	32880	32798	
5958	0	32822	32744	
5959	0	32796	32764	
5960	0	32780	32752	
5961	0	32844	32756	
5962	0	32820	32752	
5963	0	32880	32782	
5964	0	32964	32920	
5965	0	33032	32960	
5966	0	32996	32944	
5967	0	33100	32982	
5968	0	33092	33018	
5969	0	33084	33044	
5970	0	33080	33048	
5971	0	33032	32952	
5972	0	32946	32852	
5973	0	32960	32816	
5974	0	32986	32914	
5975	0	32972	32860	
5976	0	32904	32894	
5977	0	32948	32820	
5978	0	32840	32714	
5979	0	32836	32750	
5980	0	32748	32739	
5981	0	32673	32630	
5982	0	32636	32618	
5983	0	32692	32586	
5984	0	32702	32593	
5985	0	32696	32712	
5986	0	32760	32624	
5987	0	32728	32724	
5988	0	32720	32824	
5989	0	32720	32658	
5990	0	32752	32775	
5991	0	32744	32762	
5992	0	32672	32852	
5993	0	32798	32730	
5994	0	32792	32730	
5995	0	32740	32668	
5996	0	32832	32752	
5997	0	32804	32796	
5998	0	32806	32794	
5999	0	32826	32694	
6000	0	32837	32775	
6001	0	32800	32804	
6002	0	32712	32784	
6003	0	32768	32812	
6004	0	32792	32854	
6005	0	32832	32676	
6006	0	32824	32848	
6007	0	32756	32836	
6008	0	32796	32728	
6009	0	32756	32820	
6010	0	32796	32731	
6011	0	32808	32664	
6012	0	32752	32658	
