# OpenSignals Text File Format. Version 1
# {"00:07:80:8C:0A:39": {"position": 0, "device": "biosignalsplux", "device name": "00:07:80:8C:0A:39", "device connection": "BTH00:07:80:8C:0A:39", "sampling rate": 1000, "resolution": [16, 16], "firmware version": 776, "comments": "", "keywords": "", "mode": 0, "sync interval": 2, "date": "2023-3-16", "time": "10:20:36.943", "channels": [1, 2], "sensor": ["EMG", "EMG"], "label": ["CH1", "CH2"], "column": ["nSeq", "DI", "CH1", "CH2"], "special": [{"SpO2": [80, 40, 5, 4, 3, 3]}, {"SpO2": [80, 40, 5, 4, 3, 3]}, {"SpO2": [80, 40, 5, 4, 3, 3]}, {"SpO2": [80, 40, 5, 4, 3, 3]}, {"SpO2": [80, 40, 5, 4, 3, 3]}, {"SpO2": [80, 40, 5, 4, 3, 3]}, {"SpO2": [80, 40, 5, 4, 3, 3]}, {"SpO2": [80, 40, 5, 4, 3, 3]}], "digital IO": [0, 1], "sleeve color": ["gray", "yellow"], "convertedValues": 0}}
# EndOfHeader
0	0	32770	32782	
1	0	32792	32742	
2	0	32836	32666	
3	0	32788	32817	
4	0	32756	32770	
5	0	32806	32753	
6	0	32882	32655	
7	0	32794	32804	
8	0	32868	32775	
9	0	32832	32672	
10	0	32823	32748	
11	0	32768	32775	
12	0	32792	32678	
13	0	32826	32650	
14	0	32852	32790	
15	0	32788	32756	
16	0	32834	32720	
17	0	32760	32810	
18	0	32792	32823	
19	0	32816	32740	
20	0	32812	32844	
21	0	32812	32775	
22	0	32774	32768	
23	0	32796	32743	
24	0	32789	32684	
25	0	32826	32760	
26	0	32832	32660	
27	0	32818	32757	
28	0	32832	32888	
29	0	32844	32718	
30	0	32832	32792	
31	0	32812	32775	
32	0	32804	32696	
33	0	32832	32761	
34	0	32784	32810	
35	0	32844	32703	
36	0	32856	32810	
37	0	32812	32807	
38	0	32826	32748	
39	0	32804	32736	
40	0	32804	32748	
41	0	32804	32840	
42	0	32748	32804	
43	0	32756	32655	
44	0	32828	32775	
45	0	32792	32775	
46	0	32772	32743	
47	0	32844	32836	
48	0	32840	32774	
49	0	32862	32798	
50	0	32788	32756	
51	0	32832	32722	
52	0	32770	32790	
53	0	32760	32703	
54	0	32758	32820	
55	0	32840	32742	
56	0	32760	32770	
57	0	32840	32743	
58	0	32824	32772	
59	0	32844	32710	
60	0	32772	32788	
61	0	32844	32759	
62	0	32798	32798	
63	0	32816	32775	
64	0	32808	32856	
65	0	32808	32755	
66	0	32796	32828	
67	0	32828	32820	
68	0	32856	32744	
69	0	32822	32806	
70	0	32849	32698	
71	0	32816	32699	
72	0	32794	32679	
73	0	32778	32718	
74	0	32778	32907	
75	0	32782	32734	
76	0	32812	32792	
77	0	32780	32775	
78	0	32812	32926	
79	0	32764	32652	
80	0	32756	32796	
81	0	32796	32844	
82	0	32816	32734	
83	0	32756	32676	
84	0	32880	32775	
85	0	32828	32764	
86	0	32726	32702	
87	0	32812	32800	
88	0	32748	32758	
89	0	32822	32768	
90	0	32796	32740	
91	0	32788	32759	
92	0	32832	32903	
93	0	32784	32798	
94	0	32800	32750	
95	0	32836	32705	
96	0	32852	32716	
97	0	32840	32750	
98	0	32728	32692	
99	0	32816	32815	
100	0	32792	32791	
101	0	32894	32840	
102	0	32794	32720	
103	0	32821	32830	
104	0	32841	32746	
105	0	32752	32742	
106	0	32823	32700	
107	0	32776	32730	
108	0	32804	32826	
109	0	32770	32738	
110	0	32792	32700	
111	0	32788	32769	
112	0	32840	32798	
113	0	32874	32900	
114	0	32816	32680	
115	0	32808	32759	
116	0	32888	32685	
117	0	32856	32734	
118	0	32872	32876	
119	0	32824	32712	
120	0	32901	32726	
121	0	32820	32699	
122	0	32800	32816	
123	0	32800	32628	
124	0	32836	32722	
125	0	32877	32740	
126	0	32848	32772	
127	0	32880	32706	
128	0	32844	32830	
129	0	32768	32790	
130	0	32768	32839	
131	0	32760	32716	
132	0	32768	32870	
133	0	32774	32754	
134	0	32770	32786	
135	0	32771	32719	
136	0	32762	32831	
137	0	32786	32772	
138	0	32862	32746	
139	0	32832	32709	
140	0	32704	32816	
141	0	32786	32758	
142	0	32852	32790	
143	0	32804	32764	
144	0	32816	32756	
145	0	32820	32806	
146	0	32804	32775	
147	0	32772	32756	
148	0	32748	32748	
149	0	32896	32742	
150	0	32812	32767	
151	0	32828	32799	
152	0	32756	32719	
153	0	32756	32775	
154	0	32800	32760	
155	0	32800	32775	
156	0	32730	32838	
157	0	32876	32788	
158	0	32836	32822	
159	0	32816	32686	
160	0	32774	32900	
161	0	32888	32726	
162	0	32876	32743	
163	0	32772	32675	
164	0	32872	32814	
165	0	32828	32762	
166	0	32820	32679	
167	0	32860	32696	
168	0	32846	32775	
169	0	32760	32839	
170	0	32794	32704	
171	0	32772	32803	
172	0	32808	32724	
173	0	32840	32756	
174	0	32746	32668	
175	0	32794	32772	
176	0	32790	32832	
177	0	32774	32740	
178	0	32904	32756	
179	0	32816	32761	
180	0	32892	32702	
181	0	32818	32746	
182	0	32836	32759	
183	0	32788	32760	
184	0	32888	32764	
185	0	32856	32922	
186	0	32804	32804	
187	0	32820	32854	
188	0	32834	32794	
189	0	32768	32628	
190	0	32720	32843	
191	0	32746	32795	
192	0	32780	32662	
193	0	32762	32842	
194	0	32736	32748	
195	0	32826	32732	
196	0	32772	32744	
197	0	32814	32807	
198	0	32836	32775	
199	0	32870	32794	
200	0	32788	32768	
201	0	32762	32762	
202	0	32832	32754	
203	0	32834	32752	
204	0	32774	32760	
205	0	32792	32860	
206	0	32832	32654	
207	0	32852	32834	
208	0	32828	32775	
209	0	32824	32767	
210	0	32828	32766	
211	0	32856	32742	
212	0	32860	32862	
213	0	32792	32646	
214	0	32881	32712	
215	0	32844	32748	
216	0	32778	32796	
217	0	32786	32725	
218	0	32768	32769	
219	0	32788	32854	
220	0	32864	32685	
221	0	32776	32792	
222	0	32870	32714	
223	0	32844	32823	
224	0	32800	32679	
225	0	32776	32832	
226	0	32772	32704	
227	0	32848	32744	
228	0	32728	32775	
229	0	32792	32836	
230	0	32804	32852	
231	0	32864	32700	
232	0	32775	32711	
233	0	32746	32849	
234	0	32752	32720	
235	0	32774	32744	
236	0	32782	32735	
237	0	32725	32764	
238	0	32872	32711	
239	0	32792	32610	
240	0	32834	32620	
241	0	32800	32677	
242	0	32824	32847	
243	0	32796	32744	
244	0	32845	32752	
245	0	32846	32801	
246	0	32910	32806	
247	0	32804	32679	
248	0	32884	32876	
249	0	32856	32714	
250	0	32832	32848	
251	0	32784	32702	
252	0	32808	32804	
253	0	32880	32748	
254	0	32818	32676	
255	0	32772	32853	
256	0	32804	32748	
257	0	32782	32775	
258	0	32736	32732	
259	0	32784	32771	
260	0	32808	32868	
261	0	32838	32672	
262	0	32800	32806	
263	0	32840	32812	
264	0	32828	32830	
265	0	32758	32847	
266	0	32774	32762	
267	0	32804	32743	
268	0	32812	32734	
269	0	32852	32802	
270	0	32784	32818	
271	0	32824	32692	
272	0	32770	32828	
273	0	32862	32810	
274	0	32840	32698	
275	0	32780	32839	
276	0	32808	32758	
277	0	32804	32714	
278	0	32800	32803	
279	0	32856	32750	
280	0	32792	32775	
281	0	32720	32821	
282	0	32846	32775	
283	0	32846	32740	
284	0	32842	32570	
285	0	32786	32652	
286	0	32794	32839	
287	0	32788	32752	
288	0	32816	32816	
289	0	32780	32842	
290	0	32758	32748	
291	0	32784	32748	
292	0	32802	32838	
293	0	32810	32871	
294	0	32792	32774	
295	0	32858	32816	
296	0	32804	32784	
297	0	32852	32630	
298	0	32944	32774	
299	0	32868	32824	
300	0	32812	32702	
301	0	32804	32692	
302	0	32772	32743	
303	0	32792	32854	
304	0	32782	32669	
305	0	32878	32766	
306	0	32793	32692	
307	0	32759	32806	
308	0	32748	32704	
309	0	32844	32724	
310	0	32816	32796	
311	0	32800	32682	
312	0	32822	32775	
313	0	32825	32811	
314	0	32832	32757	
315	0	32768	32742	
316	0	32780	32834	
317	0	32784	32743	
318	0	32816	32647	
319	0	32854	32799	
320	0	32824	32764	
321	0	32780	32700	
322	0	32794	32732	
323	0	32736	32750	
324	0	32768	32836	
325	0	32836	32830	
326	0	32880	32748	
327	0	32768	32834	
328	0	32868	32808	
329	0	32852	32792	
330	0	32824	32628	
331	0	32772	32790	
332	0	32836	32775	
333	0	32826	32698	
334	0	32844	32767	
335	0	32808	32828	
336	0	32768	32750	
337	0	32800	32698	
338	0	32860	32720	
339	0	32826	32775	
340	0	32800	32734	
341	0	32772	32860	
342	0	32773	32751	
343	0	32824	32775	
344	0	32750	32775	
345	0	32788	32808	
346	0	32792	32824	
347	0	32810	32788	
348	0	32828	32663	
349	0	32832	32808	
350	0	32800	32772	
351	0	32898	32737	
352	0	32880	32791	
353	0	32812	32759	
354	0	32848	32696	
355	0	32820	32772	
356	0	32794	32727	
357	0	32836	32670	
358	0	32830	32656	
359	0	32798	32710	
360	0	32688	32803	
361	0	32756	32700	
362	0	32772	32758	
363	0	32734	32686	
364	0	32714	32583	
365	0	32762	32808	
366	0	32738	32790	
367	0	32738	32612	
368	0	32764	32728	
369	0	32682	32680	
370	0	32694	32763	
371	0	32740	32655	
372	0	32624	32662	
373	0	32700	32737	
374	0	32696	32700	
375	0	32704	32754	
376	0	32692	32876	
377	0	32764	32805	
378	0	32860	32660	
379	0	32716	32792	
380	0	32702	32814	
381	0	32748	32606	
382	0	32832	32806	
383	0	32740	32740	
384	0	32678	32574	
385	0	32800	32759	
386	0	32804	32854	
387	0	32914	32858	
388	0	32996	32994	
389	0	33072	33108	
390	0	33090	33044	
391	0	33220	33100	
392	0	33218	33055	
393	0	33148	32877	
394	0	33108	32764	
395	0	33106	32795	
396	0	33012	32775	
397	0	33024	32816	
398	0	32976	32866	
399	0	32980	32860	
400	0	32978	32849	
401	0	32812	32846	
402	0	32806	32878	
403	0	32788	32738	
404	0	32788	32854	
405	0	32712	32734	
406	0	32734	32716	
407	0	32706	32742	
408	0	32724	32698	
409	0	32636	32704	
410	0	32708	32583	
411	0	32682	32686	
412	0	32673	32698	
413	0	32702	32802	
414	0	32728	32629	
415	0	32716	32572	
416	0	32652	32727	
417	0	32716	32694	
418	0	32808	32582	
419	0	32804	32740	
420	0	32769	32804	
421	0	32784	32775	
422	0	32816	32660	
423	0	32800	32859	
424	0	32806	32822	
425	0	32760	32656	
426	0	32821	32758	
427	0	32778	32792	
428	0	32808	32696	
429	0	32840	32766	
430	0	32824	32704	
431	0	32832	32774	
432	0	32825	32708	
433	0	32783	32760	
434	0	32816	32903	
435	0	32807	32724	
436	0	32792	32756	
437	0	32852	32748	
438	0	32796	32679	
439	0	32782	32672	
440	0	32772	32734	
441	0	32820	32796	
442	0	32852	32736	
443	0	32818	32772	
444	0	32780	32775	
445	0	32804	32742	
446	0	32788	32764	
447	0	32868	32774	
448	0	32860	32785	
449	0	32849	32670	
450	0	32872	32714	
451	0	32804	32715	
452	0	32814	32706	
453	0	32856	32808	
454	0	32872	32822	
455	0	32762	32694	
456	0	32792	32734	
457	0	32720	32668	
458	0	32848	32904	
459	0	32838	32838	
460	0	32840	32660	
461	0	32784	32775	
462	0	32836	32798	
463	0	32800	32773	
464	0	32764	32756	
465	0	32816	32834	
466	0	32782	32711	
467	0	32852	32756	
468	0	32836	32704	
469	0	32820	32762	
470	0	32856	32831	
471	0	32808	32690	
472	0	32792	32814	
473	0	32776	32832	
474	0	32776	32762	
475	0	32812	32828	
476	0	32772	32808	
477	0	32838	32868	
478	0	32764	32700	
479	0	32780	32721	
480	0	32864	32775	
481	0	32770	32796	
482	0	32844	32716	
483	0	32778	32735	
484	0	32776	32722	
485	0	32826	32786	
486	0	32820	32628	
487	0	32790	32727	
488	0	32756	32750	
489	0	32818	32732	
490	0	32794	32790	
491	0	32824	32652	
492	0	32774	32807	
493	0	32808	32830	
494	0	32856	32764	
495	0	32812	32879	
496	0	32800	32804	
497	0	32862	32767	
498	0	32832	32773	
499	0	32792	32687	
500	0	32834	32762	
501	0	32780	32775	
502	0	32720	32757	
503	0	32824	32716	
504	0	32800	32736	
505	0	32781	32740	
506	0	32796	32807	
507	0	32788	32723	
508	0	32834	32775	
509	0	32792	32884	
510	0	32772	32785	
511	0	32800	32802	
512	0	32820	32820	
513	0	32764	32806	
514	0	32878	32694	
515	0	32856	32831	
516	0	32810	32688	
517	0	32812	32822	
518	0	32784	32679	
519	0	32788	32759	
520	0	32780	32770	
521	0	32784	32796	
522	0	32806	32719	
523	0	32804	32706	
524	0	32854	32734	
525	0	32740	32804	
526	0	32767	32764	
527	0	32756	32679	
528	0	32769	32858	
529	0	32802	32736	
530	0	32774	32839	
531	0	32782	32684	
532	0	32788	32738	
533	0	32888	32802	
534	0	32884	32716	
535	0	32856	32774	
536	0	32782	32734	
537	0	32766	32694	
538	0	32856	32654	
539	0	32750	32840	
540	0	32720	32831	
541	0	32792	32692	
542	0	32856	32724	
543	0	32824	32740	
544	0	32830	32814	
545	0	32756	32672	
546	0	32884	32700	
547	0	32760	32736	
548	0	32852	32750	
549	0	32788	32816	
550	0	32812	32728	
551	0	32850	32775	
552	0	32804	32791	
553	0	32822	32604	
554	0	32770	32775	
555	0	32904	32833	
556	0	32852	32820	
557	0	32796	32786	
558	0	32848	32727	
559	0	32804	32716	
560	0	32798	32775	
561	0	32836	32686	
562	0	32800	32796	
563	0	32820	32725	
564	0	32772	32764	
565	0	32748	32730	
566	0	32786	32683	
567	0	32798	32812	
568	0	32856	32767	
569	0	32906	32772	
570	0	32860	32730	
571	0	32848	32775	
572	0	32764	32728	
573	0	32778	32808	
574	0	32820	32716	
575	0	32764	32782	
576	0	32760	32870	
577	0	32766	32696	
578	0	32840	32718	
579	0	32822	32769	
580	0	32812	32775	
581	0	32836	32714	
582	0	32788	32696	
583	0	32872	32884	
584	0	32868	32818	
585	0	32744	32772	
586	0	32776	32705	
587	0	32788	32744	
588	0	32784	32801	
589	0	32776	32655	
590	0	32776	32804	
591	0	32848	32868	
592	0	32848	32715	
593	0	32820	32831	
594	0	32772	32871	
595	0	32770	32740	
596	0	32796	32767	
597	0	32968	32790	
598	0	32816	32644	
599	0	32784	32892	
600	0	32894	32775	
601	0	32796	32775	
602	0	32756	32746	
603	0	32824	32774	
604	0	32852	32792	
605	0	32816	32732	
606	0	32808	32842	
607	0	32828	32752	
608	0	32780	32751	
609	0	32804	32798	
610	0	32832	32756	
611	0	32792	32728	
612	0	32736	32740	
613	0	32790	32858	
614	0	32824	32846	
615	0	32760	32714	
616	0	32828	32786	
617	0	32816	32775	
618	0	32837	32736	
619	0	32832	32708	
620	0	32856	32775	
621	0	32846	32764	
622	0	32858	32727	
623	0	32804	32804	
624	0	32777	32772	
625	0	32808	32849	
626	0	32828	32812	
627	0	32814	32895	
628	0	32816	32945	
629	0	32794	32722	
630	0	32752	32830	
631	0	32788	32750	
632	0	32880	32789	
633	0	32824	32684	
634	0	32768	32775	
635	0	32868	32792	
636	0	32756	32654	
637	0	32828	32770	
638	0	32824	32704	
639	0	32828	32762	
640	0	32852	32620	
641	0	32802	32770	
642	0	32706	32679	
643	0	32836	32784	
644	0	32788	32764	
645	0	32775	32702	
646	0	32796	32694	
647	0	32760	32746	
648	0	32704	32856	
649	0	32820	32668	
650	0	32882	32854	
651	0	32840	32789	
652	0	32796	32735	
653	0	32856	32790	
654	0	32832	32855	
655	0	32748	32774	
656	0	32810	32746	
657	0	32852	32812	
658	0	32828	32815	
659	0	32836	32771	
660	0	32836	32807	
661	0	32766	32804	
662	0	32768	32704	
663	0	32768	32727	
664	0	32852	32794	
665	0	32796	32645	
666	0	32788	32815	
667	0	32792	32679	
668	0	32778	32738	
669	0	32810	32680	
670	0	32800	32834	
671	0	32828	32848	
672	0	32832	32750	
673	0	32786	32710	
674	0	32768	32856	
675	0	32801	32796	
676	0	32838	32748	
677	0	32844	32720	
678	0	32862	32838	
679	0	32744	32788	
680	0	32752	32686	
681	0	32756	32862	
682	0	32864	32724	
683	0	32840	32738	
684	0	32768	32694	
685	0	32736	32730	
686	0	32906	32775	
687	0	32840	32807	
688	0	32796	32689	
689	0	32832	32832	
690	0	32796	32754	
691	0	32760	32801	
692	0	32796	32815	
693	0	32772	32710	
694	0	32740	32748	
695	0	32786	32788	
696	0	32780	32801	
697	0	32796	32692	
698	0	32848	32743	
699	0	32846	32775	
700	0	32836	32773	
701	0	32800	32699	
702	0	32804	32847	
703	0	32828	32738	
704	0	32820	32771	
705	0	32788	32692	
706	0	32820	32822	
707	0	32824	32737	
708	0	32844	32678	
709	0	32826	32830	
710	0	32750	32910	
711	0	32772	32678	
712	0	32700	32784	
713	0	32878	32790	
714	0	32718	32722	
715	0	32772	32800	
716	0	32800	32800	
717	0	32882	32700	
718	0	32856	32810	
719	0	32912	32800	
720	0	32912	32657	
721	0	32796	32700	
722	0	32878	32792	
723	0	32820	32722	
724	0	32740	32839	
725	0	32742	32839	
726	0	32848	32733	
727	0	32800	32727	
728	0	32800	32721	
729	0	32812	32710	
730	0	32804	32725	
731	0	32790	32802	
732	0	32792	32622	
733	0	32776	32807	
734	0	32828	32775	
735	0	32784	32702	
736	0	32828	32811	
737	0	32812	32865	
738	0	32810	32656	
739	0	32772	32789	
740	0	32872	32802	
741	0	32832	32743	
742	0	32762	32775	
743	0	32848	32814	
744	0	32810	32743	
745	0	32800	32740	
746	0	32796	32663	
747	0	32850	32743	
748	0	32824	32802	
749	0	32788	32699	
750	0	32812	32867	
751	0	32812	32902	
752	0	32814	32738	
753	0	32796	32775	
754	0	32820	32764	
755	0	32806	32898	
756	0	32808	32828	
757	0	32732	32742	
758	0	32798	32800	
759	0	32806	32738	
760	0	32816	32694	
761	0	32828	32700	
762	0	32788	32713	
763	0	32804	32668	
764	0	32828	32800	
765	0	32828	32744	
766	0	32778	32607	
767	0	32786	32743	
768	0	32808	32800	
769	0	32844	32706	
770	0	32752	32710	
771	0	32816	32740	
772	0	32746	32727	
773	0	32826	32775	
774	0	32732	32766	
775	0	32780	32822	
776	0	32902	32718	
777	0	32840	32762	
778	0	32860	32774	
779	0	32838	32756	
780	0	32780	32702	
781	0	32780	32764	
782	0	32772	32686	
783	0	32804	32727	
784	0	32800	32878	
785	0	32788	32724	
786	0	32762	32744	
787	0	32786	32790	
788	0	32821	32775	
789	0	32812	32813	
790	0	32834	32732	
791	0	32842	32800	
792	0	32828	32836	
793	0	32844	32668	
794	0	32780	32775	
795	0	32788	32656	
796	0	32824	32871	
797	0	32824	32801	
798	0	32854	32772	
799	0	32842	32738	
800	0	32776	32775	
801	0	32820	32766	
802	0	32760	32672	
803	0	32762	32766	
804	0	32782	32742	
805	0	32738	32725	
806	0	32840	32718	
807	0	32836	32810	
808	0	32832	32714	
809	0	32788	32802	
810	0	32854	32775	
811	0	32792	32764	
812	0	32756	32689	
813	0	32796	32772	
814	0	32784	32792	
815	0	32794	32652	
816	0	32842	32748	
817	0	32860	32796	
818	0	32800	32775	
819	0	32836	32855	
820	0	32808	32754	
821	0	32844	32790	
822	0	32808	32788	
823	0	32780	32814	
824	0	32864	32689	
825	0	32793	32708	
826	0	32776	32836	
827	0	32806	32746	
828	0	32816	32784	
829	0	32796	32860	
830	0	32844	32726	
831	0	32840	32868	
832	0	32808	32721	
833	0	32820	32772	
834	0	32860	32665	
835	0	32788	32759	
836	0	32900	32768	
837	0	32856	32756	
838	0	32804	32846	
839	0	32814	32775	
840	0	32836	32752	
841	0	32816	32764	
842	0	32740	32820	
843	0	32784	32727	
844	0	32812	32798	
845	0	32772	32671	
846	0	32864	32768	
847	0	32880	32724	
848	0	32808	32824	
849	0	32799	32741	
850	0	32810	32774	
851	0	32844	32750	
852	0	32796	32708	
853	0	32804	32724	
854	0	32820	32796	
855	0	32758	32692	
856	0	32796	32732	
857	0	32820	32770	
858	0	32800	32824	
859	0	32828	32696	
860	0	32758	32646	
861	0	32800	32815	
862	0	32800	32826	
863	0	32790	32792	
864	0	32820	32775	
865	0	32808	32775	
866	0	32830	32686	
867	0	32834	32727	
868	0	32836	32774	
869	0	32844	32775	
870	0	32820	32716	
871	0	32850	32614	
872	0	32862	32736	
873	0	32868	32790	
874	0	32808	32678	
875	0	32836	32775	
876	0	32832	32772	
877	0	32808	32864	
878	0	32736	32824	
879	0	32796	32644	
880	0	32742	32878	
881	0	32802	32802	
882	0	32820	32716	
883	0	32760	32740	
884	0	32840	32919	
885	0	32832	32746	
886	0	32868	32736	
887	0	32792	32746	
888	0	32816	32766	
889	0	32804	32840	
890	0	32840	32875	
891	0	32832	32686	
892	0	32786	32772	
893	0	32846	32774	
894	0	32742	32736	
895	0	32744	32662	
896	0	32824	32805	
897	0	32729	32758	
898	0	32828	32769	
899	0	32806	32718	
900	0	32870	32718	
901	0	32808	32775	
902	0	32832	32743	
903	0	32836	32752	
904	0	32804	32742	
905	0	32844	32679	
906	0	32848	32796	
907	0	32840	32775	
908	0	32882	32730	
909	0	32748	32846	
910	0	32756	32754	
911	0	32836	32714	
912	0	32824	32730	
913	0	32768	32823	
914	0	32828	32847	
915	0	32780	32696	
916	0	32708	32759	
917	0	32832	32847	
918	0	32808	32736	
919	0	32856	32833	
920	0	32868	32748	
921	0	32904	32682	
922	0	32768	32790	
923	0	32794	32900	
924	0	32768	32731	
925	0	32872	32772	
926	0	32848	32794	
927	0	32766	32654	
928	0	32796	32796	
929	0	32805	32838	
930	0	32816	32744	
931	0	32796	32676	
932	0	32812	32796	
933	0	32784	32806	
934	0	32865	32704	
935	0	32832	32761	
936	0	32780	32775	
937	0	32760	32687	
938	0	32768	32761	
939	0	32760	32814	
940	0	32750	32815	
941	0	32808	32670	
942	0	32774	32842	
943	0	32870	32694	
944	0	32794	32706	
945	0	32820	32764	
946	0	32820	32816	
947	0	32784	32638	
948	0	32810	32782	
949	0	32800	32822	
950	0	32816	32832	
951	0	32756	32725	
952	0	32854	32798	
953	0	32864	32788	
954	0	32862	32716	
955	0	32800	32764	
956	0	32846	32770	
957	0	32852	32843	
958	0	32836	32678	
959	0	32796	32820	
960	0	32840	32756	
961	0	32820	32775	
962	0	32824	32647	
963	0	32796	32788	
964	0	32760	32775	
965	0	32808	32676	
966	0	32772	32761	
967	0	32800	32775	
968	0	32784	32660	
969	0	32769	32770	
970	0	32844	32810	
971	0	32862	32752	
972	0	32829	32767	
973	0	32752	32884	
974	0	32824	32810	
975	0	32862	32714	
976	0	32840	32746	
977	0	32904	32743	
978	0	32862	32810	
979	0	32788	32743	
980	0	32814	32628	
981	0	32840	32807	
982	0	32832	32807	
983	0	32768	32642	
984	0	32814	32770	
985	0	32774	32773	
986	0	32804	32727	
987	0	32880	32748	
988	0	32808	32770	
989	0	32780	32658	
990	0	32816	32814	
991	0	32820	32775	
992	0	32767	32682	
993	0	32714	32682	
994	0	32848	32800	
995	0	32853	32824	
996	0	32764	32850	
997	0	32788	32845	
998	0	32800	32743	
999	0	32856	32764	
1000	0	32804	32822	
1001	0	32832	32671	
1002	0	32808	32794	
1003	0	32888	32766	
1004	0	32800	32774	
1005	0	32842	32877	
1006	0	32822	32716	
1007	0	32804	32808	
1008	0	32800	32716	
1009	0	32808	32810	
1010	0	32748	32832	
1011	0	32772	32704	
1012	0	32805	32700	
1013	0	32832	32700	
1014	0	32816	32831	
1015	0	32796	32874	
1016	0	32820	32704	
1017	0	32802	32790	
1018	0	32820	32757	
1019	0	32850	32832	
1020	0	32832	32717	
1021	0	32788	32792	
1022	0	32864	32736	
1023	0	32872	32694	
1024	0	32814	32803	
1025	0	32776	32748	
1026	0	32794	32758	
1027	0	32796	32832	
1028	0	32782	32716	
1029	0	32760	32740	
1030	0	32834	32775	
1031	0	32900	32808	
1032	0	32794	32673	
1033	0	32748	32815	
1034	0	32820	32775	
1035	0	32788	32724	
1036	0	32864	32784	
1037	0	32784	32758	
1038	0	32892	32728	
1039	0	32860	32661	
1040	0	32848	32711	
1041	0	32825	32654	
1042	0	32808	32765	
1043	0	32744	32876	
1044	0	32760	32916	
1045	0	32856	32822	
1046	0	32836	32895	
1047	0	32816	32772	
1048	0	32824	32838	
1049	0	32842	32849	
1050	0	32816	32654	
1051	0	32764	32775	
1052	0	32780	32764	
1053	0	32760	32775	
1054	0	32792	32740	
1055	0	32804	32716	
1056	0	32816	32720	
1057	0	32822	32824	
1058	0	32812	32572	
1059	0	32796	32796	
1060	0	32884	32806	
1061	0	32804	32807	
1062	0	32816	32760	
1063	0	32768	32767	
1064	0	32816	32792	
1065	0	32816	32775	
1066	0	32836	32802	
1067	0	32738	32792	
1068	0	32774	32740	
1069	0	32802	32771	
1070	0	32800	32800	
1071	0	32808	32706	
1072	0	32856	32834	
1073	0	32756	32762	
1074	0	32790	32652	
1075	0	32782	32807	
1076	0	32860	32706	
1077	0	32764	32647	
1078	0	32852	32756	
1079	0	32824	32768	
1080	0	32826	32744	
1081	0	32818	32700	
1082	0	32768	32730	
1083	0	32816	32710	
1084	0	32758	32732	
1085	0	32780	32718	
1086	0	32740	32724	
1087	0	32704	32684	
1088	0	32740	32807	
1089	0	32725	32784	
1090	0	32726	32646	
1091	0	32724	32711	
1092	0	32778	32692	
1093	0	32744	32628	
1094	0	32744	32746	
1095	0	32690	32828	
1096	0	32712	32766	
1097	0	32612	32666	
1098	0	32708	32684	
1099	0	32758	32599	
1100	0	32720	32743	
1101	0	32800	32760	
1102	0	32742	32692	
1103	0	32748	32752	
1104	0	32734	32743	
1105	0	32700	32728	
1106	0	32724	32756	
1107	0	32718	32732	
1108	0	32784	32780	
1109	0	32870	32807	
1110	0	32926	32980	
1111	0	33090	32970	
1112	0	33136	32988	
1113	0	33152	33132	
1114	0	33196	33068	
1115	0	33201	33106	
1116	0	33128	32999	
1117	0	33174	32986	
1118	0	33080	32812	
1119	0	33064	32769	
1120	0	33092	32854	
1121	0	32978	32801	
1122	0	33040	32741	
1123	0	32928	32796	
1124	0	32896	32807	
1125	0	32808	32711	
1126	0	32788	32844	
1127	0	32772	32708	
1128	0	32696	32728	
1129	0	32708	32639	
1130	0	32673	32720	
1131	0	32742	32700	
1132	0	32700	32596	
1133	0	32702	32700	
1134	0	32669	32615	
1135	0	32648	32572	
1136	0	32660	32738	
1137	0	32684	32740	
1138	0	32692	32671	
1139	0	32768	32610	
1140	0	32768	32678	
1141	0	32792	32716	
1142	0	32756	32784	
1143	0	32808	32710	
1144	0	32774	32766	
1145	0	32864	32871	
1146	0	32810	32720	
1147	0	32772	32826	
1148	0	32796	32839	
1149	0	32784	32742	
1150	0	32776	32678	
1151	0	32778	32775	
1152	0	32768	32844	
1153	0	32828	32774	
1154	0	32804	32788	
1155	0	32816	32887	
1156	0	32770	32714	
1157	0	32760	32660	
1158	0	32888	32823	
1159	0	32741	32693	
1160	0	32868	32804	
1161	0	32844	32692	
1162	0	32800	32708	
1163	0	32800	32833	
1164	0	32828	32704	
1165	0	32811	32800	
1166	0	32850	32760	
1167	0	32816	32650	
1168	0	32856	32775	
1169	0	32782	32823	
1170	0	32752	32728	
1171	0	32800	32788	
1172	0	32822	32697	
1173	0	32728	32768	
1174	0	32848	32775	
1175	0	32836	32824	
1176	0	32788	32726	
1177	0	32828	32687	
1178	0	32838	32812	
1179	0	32786	32823	
1180	0	32836	32734	
1181	0	32794	32842	
1182	0	32804	32775	
1183	0	32758	32759	
1184	0	32810	32684	
1185	0	32820	32692	
1186	0	32828	32712	
1187	0	32832	32852	
1188	0	32816	32775	
1189	0	32832	32718	
1190	0	32814	32691	
1191	0	32782	32767	
1192	0	32772	32724	
1193	0	32736	32793	
1194	0	32800	32764	
1195	0	32836	32720	
1196	0	32770	32830	
1197	0	32830	32695	
1198	0	32788	32794	
1199	0	32849	32766	
1200	0	32796	32806	
1201	0	32800	32716	
1202	0	32734	32706	
1203	0	32758	32820	
1204	0	32832	32758	
1205	0	32818	32788	
1206	0	32796	32730	
1207	0	32808	32842	
1208	0	32846	32714	
1209	0	32812	32764	
1210	0	32774	32762	
1211	0	32860	32680	
1212	0	32836	32788	
1213	0	32848	32719	
1214	0	32808	32788	
1215	0	32766	32657	
1216	0	32788	32852	
1217	0	32792	32775	
1218	0	32806	32754	
1219	0	32840	32824	
1220	0	32874	32805	
1221	0	32844	32729	
1222	0	32800	32756	
1223	0	32808	32816	
1224	0	32752	32742	
1225	0	32788	32800	
1226	0	32736	32802	
1227	0	32826	32770	
1228	0	32832	32575	
1229	0	32784	32680	
1230	0	32828	32746	
1231	0	32822	32641	
1232	0	32894	32846	
1233	0	32852	32816	
1234	0	32768	32932	
1235	0	32796	32752	
1236	0	32828	32848	
1237	0	32840	32872	
1238	0	32822	32711	
1239	0	32816	32736	
1240	0	32842	32850	
1241	0	32816	32719	
1242	0	32798	32775	
1243	0	32820	32644	
1244	0	32792	32734	
1245	0	32806	32604	
1246	0	32760	32719	
1247	0	32780	32814	
1248	0	32796	32710	
1249	0	32732	32756	
1250	0	32730	32876	
1251	0	32816	32775	
1252	0	32836	32789	
1253	0	32826	32799	
1254	0	32780	32698	
1255	0	32788	32796	
1256	0	32808	32871	
1257	0	32872	32688	
1258	0	32848	32852	
1259	0	32778	32700	
1260	0	32792	32692	
1261	0	32816	32638	
1262	0	32740	32716	
1263	0	32726	32732	
1264	0	32908	32652	
1265	0	32800	32844	
1266	0	32828	32815	
1267	0	32804	32840	
1268	0	32800	32724	
1269	0	32764	32826	
1270	0	32852	32868	
1271	0	32736	32638	
1272	0	32880	32832	
1273	0	32808	32802	
1274	0	32848	32832	
1275	0	32760	32708	
1276	0	32848	32692	
1277	0	32830	32753	
1278	0	32828	32830	
1279	0	32802	32718	
1280	0	32830	32775	
1281	0	32794	32792	
1282	0	32812	32804	
1283	0	32828	32808	
1284	0	32890	32681	
1285	0	32806	32878	
1286	0	32827	32764	
1287	0	32854	32772	
1288	0	32772	32738	
1289	0	32792	32705	
1290	0	32814	32852	
1291	0	32828	32799	
1292	0	32774	32821	
1293	0	32758	32656	
1294	0	32806	32804	
1295	0	32760	32738	
1296	0	32772	32851	
1297	0	32772	32718	
1298	0	32822	32775	
1299	0	32774	32706	
1300	0	32772	32772	
1301	0	32804	32686	
1302	0	32824	32792	
1303	0	32828	32796	
1304	0	32850	32706	
1305	0	32932	32796	
1306	0	32876	32804	
1307	0	32780	32694	
1308	0	32780	32743	
1309	0	32796	32873	
1310	0	32808	32790	
1311	0	32796	32774	
1312	0	32802	32765	
1313	0	32808	32704	
1314	0	32796	32729	
1315	0	32774	32732	
1316	0	32816	32796	
1317	0	32852	32782	
1318	0	32762	32738	
1319	0	32772	32730	
1320	0	32816	32734	
1321	0	32812	32772	
1322	0	32852	32646	
1323	0	32864	32764	
1324	0	32880	32791	
1325	0	32832	32757	
1326	0	32740	32658	
1327	0	32834	32786	
1328	0	32806	32750	
1329	0	32848	32736	
1330	0	32836	32818	
1331	0	32860	32715	
1332	0	32766	32794	
1333	0	32800	32692	
1334	0	32876	32720	
1335	0	32802	32814	
1336	0	32800	32678	
1337	0	32862	32828	
1338	0	32876	32868	
1339	0	32842	32692	
1340	0	32804	32775	
1341	0	32816	32799	
1342	0	32808	32780	
1343	0	32772	32926	
1344	0	32816	32808	
1345	0	32832	32830	
1346	0	32812	32720	
1347	0	32828	32810	
1348	0	32788	32752	
1349	0	32800	32775	
1350	0	32792	32678	
1351	0	32824	32806	
1352	0	32796	32775	
1353	0	32836	32844	
1354	0	32724	32794	
1355	0	32824	32837	
1356	0	32768	32799	
1357	0	32784	32742	
1358	0	32820	32678	
1359	0	32764	32794	
1360	0	32756	32816	
1361	0	32784	32704	
1362	0	32768	32829	
1363	0	32752	32705	
1364	0	32856	32764	
1365	0	32848	32661	
1366	0	32836	32812	
1367	0	32832	32817	
1368	0	32812	32738	
1369	0	32804	32712	
1370	0	32814	32788	
1371	0	32796	32728	
1372	0	32812	32730	
1373	0	32768	32744	
1374	0	32828	32775	
1375	0	32796	32844	
1376	0	32740	32716	
1377	0	32760	32799	
1378	0	32806	32852	
1379	0	32868	32795	
1380	0	32841	32847	
1381	0	32856	32775	
1382	0	32842	32730	
1383	0	32868	32874	
1384	0	32764	32842	
1385	0	32782	32714	
1386	0	32740	32848	
1387	0	32736	32743	
1388	0	32808	32800	
1389	0	32736	32772	
1390	0	32864	32798	
1391	0	32800	32679	
1392	0	32892	32786	
1393	0	32784	32760	
1394	0	32804	32586	
1395	0	32770	32791	
1396	0	32852	32767	
1397	0	32832	32734	
1398	0	32784	32903	
1399	0	32806	32860	
1400	0	32788	32798	
1401	0	32802	32719	
1402	0	32804	32816	
1403	0	32784	32817	
1404	0	32808	32719	
1405	0	32736	32846	
1406	0	32836	32788	
1407	0	32831	32689	
1408	0	32794	32622	
1409	0	32808	32807	
1410	0	32784	32696	
1411	0	32804	32848	
1412	0	32868	32754	
1413	0	32852	32774	
1414	0	32832	32752	
1415	0	32748	32775	
1416	0	32831	32839	
1417	0	32820	32852	
1418	0	32762	32860	
1419	0	32838	32678	
1420	0	32804	32788	
1421	0	32832	32798	
1422	0	32820	32718	
1423	0	32800	32654	
1424	0	32864	32700	
1425	0	32808	32822	
1426	0	32838	32638	
1427	0	32852	32805	
1428	0	32826	32854	
1429	0	32822	32697	
1430	0	32752	32724	
1431	0	32852	32868	
1432	0	32788	32758	
1433	0	32780	32775	
1434	0	32780	32856	
1435	0	32810	32708	
1436	0	32810	32896	
1437	0	32836	32878	
1438	0	32842	32736	
1439	0	32840	32674	
1440	0	32824	32794	
1441	0	32804	32820	
1442	0	32788	32724	
1443	0	32868	32848	
1444	0	32814	32722	
1445	0	32849	32774	
1446	0	32810	32711	
1447	0	32780	32686	
1448	0	32824	32822	
1449	0	32766	32804	
1450	0	32788	32836	
1451	0	32772	32732	
1452	0	32752	32742	
1453	0	32776	32766	
1454	0	32816	32775	
1455	0	32824	32638	
1456	0	32852	32698	
1457	0	32806	32775	
1458	0	32802	32812	
1459	0	32800	32719	
1460	0	32916	32823	
1461	0	32878	32710	
1462	0	32752	32812	
1463	0	32800	32689	
1464	0	32784	32775	
1465	0	32822	32796	
1466	0	32732	32774	
1467	0	32844	32843	
1468	0	32884	32764	
1469	0	32832	32808	
1470	0	32872	32772	
1471	0	32844	32756	
1472	0	32852	32657	
1473	0	32820	32762	
1474	0	32816	32710	
1475	0	32812	32828	
1476	0	32794	32727	
1477	0	32788	32828	
1478	0	32848	32754	
1479	0	32785	32822	
1480	0	32876	32726	
1481	0	32808	32717	
1482	0	32844	32834	
1483	0	32756	32714	
1484	0	32823	32692	
1485	0	32836	32690	
1486	0	32818	32794	
1487	0	32832	32862	
1488	0	32780	32738	
1489	0	32864	32828	
1490	0	32764	32767	
1491	0	32790	32748	
1492	0	32792	32708	
1493	0	32834	32756	
1494	0	32800	32775	
1495	0	32786	32804	
1496	0	32834	32852	
1497	0	32888	32718	
1498	0	32818	32790	
1499	0	32768	32751	
1500	0	32828	32854	
1501	0	32786	32743	
1502	0	32812	32850	
1503	0	32848	32770	
1504	0	32778	32700	
1505	0	32772	32798	
1506	0	32826	32826	
1507	0	32736	32770	
1508	0	32804	32658	
1509	0	32816	32753	
1510	0	32834	32791	
1511	0	32778	32752	
1512	0	32856	32694	
1513	0	32748	32792	
1514	0	32886	32748	
1515	0	32812	32804	
1516	0	32780	32699	
1517	0	32825	32814	
1518	0	32856	32836	
1519	0	32844	32812	
1520	0	32816	32645	
1521	0	32834	32666	
1522	0	32760	32772	
1523	0	32800	32814	
1524	0	32820	32700	
1525	0	32780	32812	
1526	0	32792	32880	
1527	0	32796	32743	
1528	0	32741	32852	
1529	0	32800	32816	
1530	0	32788	32802	
1531	0	32840	32763	
1532	0	32828	32829	
1533	0	32794	32775	
1534	0	32752	32712	
1535	0	32888	32741	
1536	0	32820	32768	
1537	0	32800	32767	
1538	0	32856	32720	
1539	0	32800	32743	
1540	0	32788	32748	
1541	0	32734	32775	
1542	0	32812	32620	
1543	0	32896	32663	
1544	0	32798	32810	
1545	0	32828	32774	
1546	0	32794	32774	
1547	0	32828	32710	
1548	0	32816	32862	
1549	0	32784	32888	
1550	0	32784	32802	
1551	0	32788	32702	
1552	0	32706	32681	
1553	0	32816	32792	
1554	0	32772	32798	
1555	0	32818	32798	
1556	0	32836	32664	
1557	0	32848	32775	
1558	0	32800	32680	
1559	0	32818	32802	
1560	0	32820	32716	
1561	0	32736	32759	
1562	0	32856	32786	
1563	0	32856	32673	
1564	0	32740	32822	
1565	0	32836	32775	
1566	0	32836	32802	
1567	0	32804	32774	
1568	0	32764	32772	
1569	0	32838	32784	
1570	0	32874	32823	
1571	0	32852	32734	
1572	0	32834	32718	
1573	0	32802	32820	
1574	0	32792	32673	
1575	0	32804	32838	
1576	0	32804	32764	
1577	0	32816	32730	
1578	0	32876	32735	
1579	0	32880	32708	
1580	0	32808	32722	
1581	0	32836	32718	
1582	0	32832	32745	
1583	0	32834	32728	
1584	0	32826	32733	
1585	0	32764	32824	
1586	0	32784	32834	
1587	0	32808	32794	
1588	0	32852	32876	
1589	0	32724	32774	
1590	0	32790	32865	
1591	0	32806	32765	
1592	0	32756	32740	
1593	0	32760	32768	
1594	0	32878	32827	
1595	0	32832	32698	
1596	0	32864	32799	
1597	0	32772	32822	
1598	0	32796	32744	
1599	0	32782	32730	
1600	0	32884	32706	
1601	0	32728	32806	
1602	0	32796	32766	
1603	0	32796	32858	
1604	0	32755	32802	
1605	0	32790	32748	
1606	0	32810	32804	
1607	0	32820	32814	
1608	0	32832	32738	
1609	0	32796	32796	
1610	0	32804	32714	
1611	0	32784	32816	
1612	0	32804	32607	
1613	0	32802	32757	
1614	0	32822	32786	
1615	0	32836	32705	
1616	0	32812	32763	
1617	0	32794	32762	
1618	0	32790	32828	
1619	0	32800	32764	
1620	0	32826	32812	
1621	0	32860	32757	
1622	0	32830	32660	
1623	0	32748	32806	
1624	0	32864	32810	
1625	0	32744	32711	
1626	0	32812	32860	
1627	0	32868	32767	
1628	0	32856	32686	
1629	0	32850	32793	
1630	0	32836	32711	
1631	0	32800	32728	
1632	0	32804	32684	
1633	0	32714	32772	
1634	0	32812	32804	
1635	0	32838	32775	
1636	0	32844	32692	
1637	0	32796	32836	
1638	0	32816	32802	
1639	0	32752	32748	
1640	0	32844	32700	
1641	0	32828	32880	
1642	0	32808	32815	
1643	0	32746	32734	
1644	0	32804	32836	
1645	0	32764	32807	
1646	0	32880	32807	
1647	0	32876	32647	
1648	0	32892	32804	
1649	0	32880	32823	
1650	0	32836	32804	
1651	0	32818	32616	
1652	0	32838	32718	
1653	0	32836	32767	
1654	0	32768	32694	
1655	0	32728	32736	
1656	0	32772	32843	
1657	0	32788	32824	
1658	0	32752	32657	
1659	0	32774	32660	
1660	0	32670	32784	
1661	0	32824	32833	
1662	0	32860	32724	
1663	0	32758	32775	
1664	0	32760	32802	
1665	0	32774	32708	
1666	0	32818	32766	
1667	0	32869	32804	
1668	0	32804	32828	
1669	0	32800	32674	
1670	0	32850	32810	
1671	0	32860	32728	
1672	0	32778	32734	
1673	0	32856	32767	
1674	0	32796	32821	
1675	0	32774	32772	
1676	0	32816	32728	
1677	0	32828	32704	
1678	0	32806	32758	
1679	0	32828	32836	
1680	0	32828	32700	
1681	0	32828	32818	
1682	0	32788	32775	
1683	0	32768	32764	
1684	0	32858	32821	
1685	0	32788	32818	
1686	0	32820	32676	
1687	0	32832	32775	
1688	0	32820	32839	
1689	0	32880	32710	
1690	0	32792	32812	
1691	0	32830	32775	
1692	0	32796	32854	
1693	0	32840	32740	
1694	0	32808	32888	
1695	0	32776	32775	
1696	0	32844	32852	
1697	0	32808	32670	
1698	0	32844	32808	
1699	0	32778	32838	
1700	0	32868	32836	
1701	0	32828	32720	
1702	0	32804	32714	
1703	0	32832	32756	
1704	0	32864	32852	
1705	0	32804	32710	
1706	0	32848	32654	
1707	0	32792	32726	
1708	0	32760	32804	
1709	0	32764	32774	
1710	0	32762	32732	
1711	0	32746	32844	
1712	0	32840	32758	
1713	0	32792	32798	
1714	0	32770	32718	
1715	0	32848	32815	
1716	0	32816	32820	
1717	0	32776	32716	
1718	0	32848	32704	
1719	0	32864	32752	
1720	0	32800	32831	
1721	0	32804	32822	
1722	0	32772	32600	
1723	0	32842	32855	
1724	0	32844	32788	
1725	0	32849	32742	
1726	0	32830	32705	
1727	0	32816	32834	
1728	0	32724	32727	
1729	0	32774	32860	
1730	0	32760	32662	
1731	0	32778	32854	
1732	0	32840	32748	
1733	0	32832	32759	
1734	0	32781	32729	
1735	0	32804	32772	
1736	0	32784	32820	
1737	0	32816	32676	
1738	0	32796	32788	
1739	0	32775	32754	
1740	0	32832	32791	
1741	0	32828	32734	
1742	0	32812	32816	
1743	0	32884	32865	
1744	0	32816	32697	
1745	0	32822	32801	
1746	0	32760	32839	
1747	0	32836	32736	
1748	0	32830	32816	
1749	0	32774	32652	
1750	0	32824	32772	
1751	0	32812	32631	
1752	0	32780	32828	
1753	0	32736	32796	
1754	0	32792	32736	
1755	0	32800	32692	
1756	0	32804	32816	
1757	0	32784	32789	
1758	0	32833	32604	
1759	0	32856	32668	
1760	0	32816	32852	
1761	0	32828	32800	
1762	0	32806	32828	
1763	0	32820	32834	
1764	0	32804	32820	
1765	0	32728	32807	
1766	0	32804	32700	
1767	0	32881	32788	
1768	0	32866	32748	
1769	0	32838	32768	
1770	0	32820	32772	
1771	0	32864	32716	
1772	0	32774	32671	
1773	0	32760	32720	
1774	0	32841	32768	
1775	0	32808	32646	
1776	0	32840	32743	
1777	0	32848	32800	
1778	0	32804	32722	
1779	0	32822	32775	
1780	0	32856	32792	
1781	0	32856	32668	
1782	0	32724	32828	
1783	0	32734	32768	
1784	0	32732	32692	
1785	0	32792	32782	
1786	0	32808	32831	
1787	0	32800	32788	
1788	0	32820	32706	
1789	0	32766	32770	
1790	0	32774	32750	
1791	0	32684	32616	
1792	0	32770	32775	
1793	0	32762	32775	
1794	0	32802	32719	
1795	0	32704	32636	
1796	0	32684	32608	
1797	0	32725	32664	
1798	0	32684	32629	
1799	0	32748	32762	
1800	0	32732	32716	
1801	0	32732	32640	
1802	0	32722	32775	
1803	0	32768	32874	
1804	0	32708	32728	
1805	0	32720	32746	
1806	0	32800	32796	
1807	0	32686	32658	
1808	0	32756	32735	
1809	0	32756	32768	
1810	0	32788	32670	
1811	0	32770	32788	
1812	0	32792	32847	
1813	0	32788	32748	
1814	0	32834	32798	
1815	0	33001	32860	
1816	0	33148	32993	
1817	0	33176	33029	
1818	0	33154	33111	
1819	0	33220	33088	
1820	0	33200	33025	
1821	0	33092	32932	
1822	0	33044	32926	
1823	0	33102	32958	
1824	0	33066	32794	
1825	0	32960	32738	
1826	0	32872	32736	
1827	0	32878	32758	
1828	0	32886	32692	
1829	0	32825	32704	
1830	0	32726	32697	
1831	0	32696	32766	
1832	0	32736	32761	
1833	0	32724	32668	
1834	0	32666	32694	
1835	0	32720	32744	
1836	0	32744	32638	
1837	0	32672	32836	
1838	0	32672	32640	
1839	0	32712	32666	
1840	0	32692	32654	
1841	0	32636	32673	
1842	0	32656	32674	
1843	0	32764	32750	
1844	0	32704	32634	
1845	0	32704	32668	
1846	0	32764	32718	
1847	0	32744	32630	
1848	0	32838	32739	
1849	0	32761	32784	
1850	0	32800	32724	
1851	0	32916	32722	
1852	0	32864	32818	
1853	0	32816	32794	
1854	0	32862	32702	
1855	0	32892	32807	
1856	0	32872	32775	
1857	0	32802	32714	
1858	0	32836	32711	
1859	0	32824	32743	
1860	0	32804	32734	
1861	0	32818	32868	
1862	0	32800	32760	
1863	0	32814	32700	
1864	0	32772	32876	
1865	0	32764	32764	
1866	0	32820	32810	
1867	0	32744	32798	
1868	0	32792	32770	
1869	0	32780	32847	
1870	0	32796	32700	
1871	0	32734	32759	
1872	0	32772	32742	
1873	0	32796	32846	
1874	0	32772	32702	
1875	0	32878	32768	
1876	0	32824	32800	
1877	0	32836	32766	
1878	0	32756	32670	
1879	0	32830	32751	
1880	0	32740	32810	
1881	0	32828	32706	
1882	0	32844	32774	
1883	0	32778	32756	
1884	0	32854	32660	
1885	0	32900	32828	
1886	0	32816	32786	
1887	0	32824	32769	
1888	0	32808	32740	
1889	0	32844	32834	
1890	0	32764	32860	
1891	0	32784	32674	
1892	0	32744	32682	
1893	0	32796	32736	
1894	0	32780	32888	
1895	0	32727	32678	
1896	0	32814	32838	
1897	0	32852	32884	
1898	0	32848	32661	
1899	0	32824	32756	
1900	0	32832	32832	
1901	0	32788	32775	
1902	0	32850	32715	
1903	0	32788	32709	
1904	0	32744	32752	
1905	0	32768	32775	
1906	0	32772	32631	
1907	0	32808	32802	
1908	0	32724	32722	
1909	0	32834	32734	
1910	0	32752	32714	
1911	0	32836	32830	
1912	0	32812	32850	
1913	0	32810	32724	
1914	0	32820	32680	
1915	0	32856	32668	
1916	0	32798	32682	
1917	0	32832	32767	
1918	0	32842	32702	
1919	0	32836	32796	
1920	0	32816	32886	
1921	0	32820	32743	
1922	0	32820	32812	
1923	0	32720	32822	
1924	0	32800	32910	
1925	0	32862	32914	
1926	0	32794	32736	
1927	0	32736	32871	
1928	0	32774	32711	
1929	0	32796	32798	
1930	0	32784	32622	
1931	0	32860	32751	
1932	0	32916	32647	
1933	0	32810	32772	
1934	0	32820	32692	
1935	0	32748	32830	
1936	0	32804	32734	
1937	0	32760	32727	
1938	0	32824	32720	
1939	0	32776	32768	
1940	0	32828	32766	
1941	0	32800	32674	
1942	0	32744	32736	
1943	0	32814	32772	
1944	0	32804	32786	
1945	0	32818	32761	
1946	0	32760	32754	
1947	0	32730	32775	
1948	0	32808	32806	
1949	0	32813	32770	
1950	0	32870	32664	
1951	0	32840	32775	
1952	0	32878	32744	
1953	0	32820	32780	
1954	0	32804	32711	
1955	0	32830	32775	
1956	0	32868	32832	
1957	0	32828	32738	
1958	0	32770	32775	
1959	0	32832	32824	
1960	0	32742	32775	
1961	0	32808	32858	
1962	0	32814	32838	
1963	0	32816	32754	
1964	0	32760	32760	
1965	0	32890	32802	
1966	0	32870	32739	
1967	0	32838	32799	
1968	0	32796	32743	
1969	0	32800	32798	
1970	0	32800	32724	
1971	0	32852	32804	
1972	0	32816	32759	
1973	0	32786	32898	
1974	0	32802	32742	
1975	0	32784	32644	
1976	0	32836	32800	
1977	0	32804	32742	
1978	0	32840	32744	
1979	0	32776	32788	
1980	0	32790	32867	
1981	0	32810	32804	
1982	0	32830	32668	
1983	0	32804	32724	
1984	0	32776	32822	
1985	0	32729	32716	
1986	0	32774	32858	
1987	0	32786	32760	
1988	0	32796	32756	
1989	0	32808	32748	
1990	0	32804	32806	
1991	0	32824	32807	
1992	0	32832	32822	
1993	0	32824	32710	
1994	0	32848	32860	
1995	0	32790	32754	
1996	0	32832	32712	
1997	0	32872	32734	
1998	0	32852	32814	
1999	0	32870	32801	
2000	0	32768	32712	
2001	0	32810	32647	
2002	0	32808	32762	
2003	0	32804	32784	
2004	0	32772	32679	
2005	0	32760	32752	
2006	0	32840	32764	
2007	0	32790	32750	
2008	0	32776	32788	
2009	0	32756	32736	
2010	0	32872	32830	
2011	0	32856	32742	
2012	0	32808	32742	
2013	0	32736	32775	
2014	0	32804	32787	
2015	0	32816	32886	
2016	0	32816	32660	
2017	0	32823	32792	
2018	0	32904	32746	
2019	0	32848	32775	
2020	0	32816	32754	
2021	0	32838	32630	
2022	0	32788	32722	
2023	0	32760	32724	
2024	0	32860	32806	
2025	0	32765	32756	
2026	0	32826	32679	
2027	0	32764	32839	
2028	0	32854	32772	
2029	0	32828	32775	
2030	0	32776	32767	
2031	0	32836	32794	
2032	0	32856	32734	
2033	0	32838	32852	
2034	0	32888	32764	
2035	0	32816	32832	
2036	0	32836	32788	
2037	0	32808	32802	
2038	0	32838	32682	
2039	0	32816	32760	
2040	0	32792	32762	
2041	0	32760	32704	
2042	0	32836	32706	
2043	0	32820	32738	
2044	0	32782	32756	
2045	0	32808	32636	
2046	0	32778	32807	
2047	0	32802	32794	
2048	0	32866	32772	
2049	0	32784	32715	
2050	0	32796	32711	
2051	0	32784	32806	
2052	0	32840	32710	
2053	0	32780	32728	
2054	0	32842	32800	
2055	0	32796	32798	
2056	0	32820	32772	
2057	0	32902	32720	
2058	0	32804	32870	
2059	0	32820	32708	
2060	0	32744	32632	
2061	0	32832	32820	
2062	0	32740	32764	
2063	0	32848	32810	
2064	0	32788	32730	
2065	0	32808	32766	
2066	0	32780	32775	
2067	0	32775	32768	
2068	0	32804	32694	
2069	0	32804	32738	
2070	0	32852	32828	
2071	0	32858	32672	
2072	0	32844	32832	
2073	0	32816	32722	
2074	0	32766	32796	
2075	0	32810	32822	
2076	0	32744	32903	
2077	0	32752	32775	
2078	0	32808	32724	
2079	0	32832	32887	
2080	0	32808	32799	
2081	0	32830	32748	
2082	0	32862	32708	
2083	0	32778	32814	
2084	0	32754	32807	
2085	0	32818	32746	
2086	0	32802	32660	
2087	0	32742	32823	
2088	0	32848	32757	
2089	0	32892	32798	
2090	0	32836	32668	
2091	0	32748	32730	
2092	0	32796	32756	
2093	0	32764	32836	
2094	0	32792	32820	
2095	0	32772	32739	
2096	0	32868	32817	
2097	0	32780	32737	
2098	0	32798	32798	
2099	0	32769	32775	
2100	0	32852	32740	
2101	0	32776	32615	
2102	0	32788	32740	
2103	0	32806	32775	
2104	0	32816	32860	
2105	0	32836	32695	
2106	0	32868	32682	
2107	0	32844	32712	
2108	0	32832	32758	
2109	0	32821	32742	
2110	0	32824	32676	
2111	0	32748	32738	
2112	0	32744	32730	
2113	0	32725	32686	
2114	0	32826	32769	
2115	0	32832	32804	
2116	0	32820	32700	
2117	0	32861	32788	
2118	0	32848	32858	
2119	0	32848	32738	
2120	0	32800	32730	
2121	0	32804	32774	
2122	0	32817	32860	
2123	0	32820	32814	
2124	0	32852	32684	
2125	0	32846	32698	
2126	0	32812	32746	
2127	0	32804	32898	
2128	0	32800	32830	
2129	0	32800	32700	
2130	0	32820	32712	
2131	0	32794	32694	
2132	0	32794	32807	
2133	0	32840	32684	
2134	0	32800	32644	
2135	0	32766	32870	
2136	0	32808	32775	
2137	0	32809	32838	
2138	0	32820	32672	
2139	0	32830	32630	
2140	0	32848	32870	
2141	0	32802	32740	
2142	0	32812	32746	
2143	0	32772	32767	
2144	0	32824	32708	
2145	0	32752	32834	
2146	0	32760	32812	
2147	0	32825	32866	
2148	0	32836	32679	
2149	0	32852	32738	
2150	0	32806	32818	
2151	0	32836	32879	
2152	0	32850	32746	
2153	0	32846	32790	
2154	0	32828	32852	
2155	0	32812	32807	
2156	0	32764	32770	
2157	0	32836	32726	
2158	0	32770	32622	
2159	0	32792	32716	
2160	0	32766	32671	
2161	0	32844	32806	
2162	0	32736	32748	
2163	0	32852	32730	
2164	0	32825	32828	
2165	0	32740	32772	
2166	0	32856	32755	
2167	0	32740	32742	
2168	0	32776	32773	
2169	0	32910	32828	
2170	0	32808	32887	
2171	0	32804	32711	
2172	0	32788	32756	
2173	0	32784	32788	
2174	0	32782	32860	
2175	0	32854	32820	
2176	0	32926	32826	
2177	0	32896	32692	
2178	0	32874	32701	
2179	0	32869	32816	
2180	0	32780	32812	
2181	0	32858	32807	
2182	0	32724	32652	
2183	0	32822	32596	
2184	0	32800	32769	
2185	0	32834	32743	
2186	0	32758	32734	
2187	0	32808	32848	
2188	0	32784	32692	
2189	0	32774	32674	
2190	0	32764	32720	
2191	0	32776	32838	
2192	0	32766	32816	
2193	0	32784	32884	
2194	0	32792	32758	
2195	0	32868	32764	
2196	0	32928	32825	
2197	0	32808	32812	
2198	0	32864	32738	
2199	0	32862	32842	
2200	0	32804	32638	
2201	0	32788	32631	
2202	0	32810	32760	
2203	0	32792	32880	
2204	0	32789	32740	
2205	0	32904	32756	
2206	0	32808	32760	
2207	0	32772	32750	
2208	0	32784	32830	
2209	0	32780	32704	
2210	0	32808	32648	
2211	0	32824	32808	
2212	0	32804	32748	
2213	0	32780	32790	
2214	0	32832	32682	
2215	0	32806	32638	
2216	0	32806	32728	
2217	0	32796	32758	
2218	0	32836	32775	
2219	0	32772	32894	
2220	0	32756	32743	
2221	0	32836	32816	
2222	0	32790	32860	
2223	0	32844	32821	
2224	0	32816	32775	
2225	0	32802	32722	
2226	0	32800	32710	
2227	0	32784	32790	
2228	0	32882	32800	
2229	0	32832	32823	
2230	0	32866	32711	
2231	0	32836	32646	
2232	0	32814	32828	
2233	0	32768	32834	
2234	0	32772	32774	
2235	0	32880	32820	
2236	0	32798	32775	
2237	0	32840	32804	
2238	0	32848	32676	
2239	0	32790	32748	
2240	0	32888	32775	
2241	0	32770	32794	
2242	0	32864	32752	
2243	0	32796	32794	
2244	0	32830	32720	
2245	0	32744	32819	
2246	0	32844	32738	
2247	0	32796	32728	
2248	0	32848	32804	
2249	0	32808	32784	
2250	0	32816	32663	
2251	0	32785	32854	
2252	0	32868	32734	
2253	0	32804	32736	
2254	0	32788	32727	
2255	0	32772	32767	
2256	0	32801	32740	
2257	0	32848	32702	
2258	0	32828	32822	
2259	0	32836	32736	
2260	0	32782	32775	
2261	0	32832	32863	
2262	0	32844	32695	
2263	0	32814	32759	
2264	0	32804	32815	
2265	0	32801	32772	
2266	0	32788	32801	
2267	0	32772	32870	
2268	0	32774	32702	
2269	0	32816	32644	
2270	0	32756	32788	
2271	0	32800	32768	
2272	0	32828	32759	
2273	0	32744	32766	
2274	0	32824	32796	
2275	0	32776	32716	
2276	0	32804	32748	
2277	0	32808	32804	
2278	0	32848	32799	
2279	0	32820	32769	
2280	0	32848	32652	
2281	0	32774	32676	
2282	0	32900	32769	
2283	0	32768	32724	
2284	0	32868	32836	
2285	0	32788	32774	
2286	0	32798	32710	
2287	0	32856	32798	
2288	0	32832	32799	
2289	0	32852	32795	
2290	0	32788	32718	
2291	0	32775	32775	
2292	0	32808	32793	
2293	0	32776	32884	
2294	0	32822	32844	
2295	0	32860	32676	
2296	0	32848	32788	
2297	0	32806	32814	
2298	0	32836	32766	
2299	0	32812	32752	
2300	0	32872	32712	
2301	0	32756	32842	
2302	0	32788	32762	
2303	0	32814	32863	
2304	0	32756	32711	
2305	0	32756	32807	
2306	0	32864	32788	
2307	0	32848	32794	
2308	0	32848	32864	
2309	0	32848	32723	
2310	0	32778	32735	
2311	0	32810	32772	
2312	0	32860	32720	
2313	0	32802	32805	
2314	0	32864	32808	
2315	0	32802	32679	
2316	0	32908	32750	
2317	0	32804	32760	
2318	0	32868	32728	
2319	0	32804	32820	
2320	0	32898	32764	
2321	0	32810	32696	
2322	0	32780	32746	
2323	0	32804	32758	
2324	0	32772	32804	
2325	0	32740	32896	
2326	0	32806	32756	
2327	0	32756	32788	
2328	0	32788	32802	
2329	0	32788	32738	
2330	0	32834	32750	
2331	0	32794	32692	
2332	0	32782	32675	
2333	0	32752	32775	
2334	0	32780	32718	
2335	0	32866	32788	
2336	0	32800	32769	
2337	0	32792	32660	
2338	0	32800	32750	
2339	0	32836	32748	
2340	0	32840	32854	
2341	0	32804	32795	
2342	0	32840	32737	
2343	0	32814	32768	
2344	0	32798	32839	
2345	0	32822	32729	
2346	0	32764	32815	
2347	0	32744	32714	
2348	0	32776	32732	
2349	0	32824	32710	
2350	0	32818	32686	
2351	0	32744	32738	
2352	0	32782	32822	
2353	0	32728	32699	
2354	0	32804	32826	
2355	0	32816	32881	
2356	0	32712	32790	
2357	0	32772	32718	
2358	0	32764	32751	
2359	0	32804	32804	
2360	0	32836	32806	
2361	0	32864	32808	
2362	0	32824	32763	
2363	0	32822	32628	
2364	0	32792	32742	
2365	0	32810	32708	
2366	0	32836	32748	
2367	0	32817	32819	
2368	0	32808	32775	
2369	0	32832	32804	
2370	0	32808	32886	
2371	0	32796	32682	
2372	0	32774	32660	
2373	0	32772	32607	
2374	0	32832	32735	
2375	0	32768	32806	
2376	0	32812	32767	
2377	0	32820	32756	
2378	0	32858	32775	
2379	0	32840	32898	
2380	0	32908	32722	
2381	0	32850	32710	
2382	0	32828	32740	
2383	0	32832	32775	
2384	0	32828	32855	
2385	0	32810	32764	
2386	0	32798	32800	
2387	0	32820	32794	
2388	0	32920	32786	
2389	0	32760	32786	
2390	0	32850	32790	
2391	0	32784	32748	
2392	0	32842	32815	
2393	0	32788	32808	
2394	0	32788	32742	
2395	0	32804	32614	
2396	0	32768	32775	
2397	0	32828	32698	
2398	0	32802	32775	
2399	0	32828	32676	
2400	0	32818	32727	
2401	0	32754	32775	
2402	0	32756	32790	
2403	0	32864	32750	
2404	0	32772	32736	
2405	0	32826	32810	
2406	0	32768	32772	
2407	0	32828	32792	
2408	0	32808	32775	
2409	0	32796	32684	
2410	0	32832	32798	
2411	0	32880	32890	
2412	0	32756	32775	
2413	0	32800	32752	
2414	0	32780	32673	
2415	0	32836	32615	
2416	0	32764	32757	
2417	0	32846	32775	
2418	0	32764	32840	
2419	0	32812	32772	
2420	0	32816	32792	
2421	0	32830	32754	
2422	0	32808	32792	
2423	0	32806	32814	
2424	0	32784	32793	
2425	0	32796	32785	
2426	0	32804	32774	
2427	0	32806	32752	
2428	0	32802	32903	
2429	0	32804	32788	
2430	0	32828	32748	
2431	0	32788	32688	
2432	0	32764	32802	
2433	0	32812	32775	
2434	0	32800	32804	
2435	0	32760	32642	
2436	0	32900	32740	
2437	0	32864	32720	
2438	0	32816	32841	
2439	0	32900	32801	
2440	0	32812	32871	
2441	0	32796	32668	
2442	0	32776	32750	
2443	0	32804	32812	
2444	0	32772	32850	
2445	0	32812	32750	
2446	0	32784	32734	
2447	0	32796	32768	
2448	0	32760	32762	
2449	0	32788	32824	
2450	0	32808	32730	
2451	0	32800	32652	
2452	0	32804	32731	
2453	0	32740	32766	
2454	0	32756	32830	
2455	0	32853	32767	
2456	0	32812	32647	
2457	0	32826	32806	
2458	0	32774	32794	
2459	0	32814	32820	
2460	0	32820	32706	
2461	0	32834	32647	
2462	0	32792	32818	
2463	0	32844	32750	
2464	0	32836	32820	
2465	0	32780	32860	
2466	0	32880	32714	
2467	0	32756	32767	
2468	0	32772	32806	
2469	0	32832	32766	
2470	0	32876	32796	
2471	0	32862	32794	
2472	0	32804	32791	
2473	0	32788	32827	
2474	0	32790	32768	
2475	0	32876	32742	
2476	0	32801	32604	
2477	0	32872	32759	
2478	0	32854	32824	
2479	0	32804	32758	
2480	0	32804	32768	
2481	0	32740	32689	
2482	0	32818	32711	
2483	0	32780	32664	
2484	0	32740	32710	
2485	0	32736	32744	
2486	0	32752	32868	
2487	0	32764	32828	
2488	0	32700	32817	
2489	0	32768	32662	
2490	0	32770	32670	
2491	0	32702	32716	
2492	0	32686	32730	
2493	0	32752	32668	
2494	0	32780	32628	
2495	0	32700	32596	
2496	0	32692	32714	
2497	0	32777	32720	
2498	0	32660	32743	
2499	0	32728	32737	
2500	0	32748	32680	
2501	0	32780	32737	
2502	0	32792	32790	
2503	0	32648	32662	
2504	0	32768	32697	
2505	0	32790	32751	
2506	0	32776	32687	
2507	0	32734	32807	
2508	0	32772	32794	
2509	0	32816	32850	
2510	0	32852	32775	
2511	0	32864	32844	
2512	0	33044	33076	
2513	0	33108	33062	
2514	0	33132	33084	
2515	0	33150	33194	
2516	0	33148	33152	
2517	0	33076	33042	
2518	0	33116	32878	
2519	0	33070	32788	
2520	0	33116	32862	
2521	0	33004	32770	
2522	0	32988	32836	
2523	0	33024	32730	
2524	0	32900	32735	
2525	0	32932	32756	
2526	0	32816	32804	
2527	0	32744	32752	
2528	0	32768	32668	
2529	0	32692	32705	
2530	0	32716	32839	
2531	0	32676	32724	
2532	0	32704	32736	
2533	0	32738	32618	
2534	0	32668	32634	
2535	0	32668	32655	
2536	0	32736	32709	
2537	0	32736	32772	
2538	0	32704	32612	
2539	0	32650	32672	
2540	0	32694	32678	
2541	0	32750	32711	
2542	0	32742	32560	
2543	0	32772	32784	
2544	0	32764	32709	
2545	0	32732	32791	
2546	0	32836	32734	
2547	0	32748	32668	
2548	0	32800	32746	
2549	0	32820	32847	
2550	0	32840	32752	
2551	0	32836	32870	
2552	0	32788	32835	
2553	0	32846	32727	
2554	0	32800	32730	
2555	0	32808	32860	
2556	0	32764	32933	
2557	0	32744	32922	
2558	0	32834	32879	
2559	0	32788	32775	
2560	0	32744	32695	
2561	0	32754	32800	
2562	0	32836	32734	
2563	0	32772	32823	
2564	0	32836	32791	
2565	0	32856	32684	
2566	0	32764	32785	
2567	0	32804	32804	
2568	0	32880	32782	
2569	0	32772	32698	
2570	0	32782	32736	
2571	0	32798	32804	
2572	0	32844	32734	
2573	0	32904	32790	
2574	0	32840	32664	
2575	0	32824	32714	
2576	0	32828	32716	
2577	0	32814	32743	
2578	0	32772	32774	
2579	0	32800	32772	
2580	0	32814	32702	
2581	0	32888	32723	
2582	0	32848	32858	
2583	0	32868	32765	
2584	0	32806	32642	
2585	0	32760	32840	
2586	0	32792	32804	
2587	0	32752	32798	
2588	0	32876	32608	
2589	0	32852	32740	
2590	0	32800	32814	
2591	0	32808	32808	
2592	0	32776	32751	
2593	0	32760	32814	
2594	0	32774	32751	
2595	0	32736	32674	
2596	0	32788	32789	
2597	0	32928	32742	
2598	0	32792	32846	
2599	0	32874	32732	
2600	0	32820	32743	
2601	0	32886	32807	
2602	0	32792	32775	
2603	0	32808	32732	
2604	0	32846	32816	
2605	0	32808	32774	
2606	0	32813	32836	
2607	0	32816	32718	
2608	0	32835	32775	
2609	0	32792	32831	
2610	0	32814	32772	
2611	0	32784	32711	
2612	0	32864	32736	
2613	0	32798	32824	
2614	0	32810	32714	
2615	0	32752	32814	
2616	0	32816	32666	
2617	0	32796	32740	
2618	0	32806	32872	
2619	0	32858	32812	
2620	0	32794	32810	
2621	0	32830	32628	
2622	0	32836	32690	
2623	0	32796	32742	
2624	0	32774	32750	
2625	0	32816	32815	
2626	0	32762	32734	
2627	0	32790	32854	
2628	0	32776	32705	
2629	0	32756	32950	
2630	0	32780	32834	
2631	0	32840	32808	
2632	0	32772	32756	
2633	0	32840	32748	
2634	0	32840	32774	
2635	0	32864	32796	
2636	0	32839	32640	
2637	0	32784	32814	
2638	0	32752	32772	
2639	0	32844	32638	
2640	0	32898	32714	
2641	0	32916	32756	
2642	0	32846	32802	
2643	0	32818	32704	
2644	0	32852	32775	
2645	0	32744	32787	
2646	0	32728	32756	
2647	0	32804	32734	
2648	0	32780	32719	
2649	0	32808	32766	
2650	0	32848	32788	
2651	0	32852	32676	
2652	0	32744	32817	
2653	0	32804	32775	
2654	0	32752	32813	
2655	0	32864	32748	
2656	0	32760	32742	
2657	0	32879	32775	
2658	0	32860	32622	
2659	0	32792	32694	
2660	0	32804	32876	
2661	0	32796	32791	
2662	0	32816	32785	
2663	0	32862	32646	
2664	0	32844	32836	
2665	0	32788	32805	
2666	0	32744	32775	
2667	0	32756	32708	
2668	0	32794	32734	
2669	0	32896	32764	
2670	0	32836	32769	
2671	0	32816	32764	
2672	0	32836	32754	
2673	0	32746	32702	
2674	0	32852	32726	
2675	0	32778	32754	
2676	0	32748	32811	
2677	0	32800	32678	
2678	0	32848	32839	
2679	0	32774	32747	
2680	0	32812	32758	
2681	0	32796	32654	
2682	0	32874	32687	
2683	0	32794	32788	
2684	0	32818	32832	
2685	0	32836	32752	
2686	0	32848	32775	
2687	0	32840	32734	
2688	0	32874	32744	
2689	0	32832	32840	
2690	0	32826	32801	
2691	0	32824	32647	
2692	0	32764	32756	
2693	0	32768	32835	
2694	0	32794	32772	
2695	0	32844	32728	
2696	0	32782	32681	
2697	0	32796	32690	
2698	0	32952	32775	
2699	0	32834	32822	
2700	0	32852	32734	
2701	0	32806	32847	
2702	0	32796	32804	
2703	0	32833	32686	
2704	0	32764	32754	
2705	0	32804	32856	
2706	0	32784	32740	
2707	0	32756	32768	
2708	0	32712	32800	
2709	0	32756	32807	
2710	0	32800	32742	
2711	0	32824	32725	
2712	0	32840	32756	
2713	0	32810	32843	
2714	0	32834	32799	
2715	0	32780	32762	
2716	0	32784	32743	
2717	0	32856	32680	
2718	0	32788	32706	
2719	0	32808	32782	
2720	0	32796	32748	
2721	0	32836	32775	
2722	0	32820	32744	
2723	0	32800	32692	
2724	0	32810	32833	
2725	0	32864	32826	
2726	0	32764	32735	
2727	0	32824	32836	
2728	0	32864	32775	
2729	0	32828	32846	
2730	0	32828	32710	
2731	0	32800	32792	
2732	0	32808	32824	
2733	0	32820	32743	
2734	0	32782	32692	
2735	0	32844	32801	
2736	0	32752	32784	
2737	0	32804	32828	
2738	0	32800	32700	
2739	0	32885	32734	
2740	0	32826	32756	
2741	0	32784	32823	
2742	0	32816	32816	
2743	0	32868	32614	
2744	0	32820	32683	
2745	0	32832	32733	
2746	0	32878	32876	
2747	0	32848	32774	
2748	0	32802	32820	
2749	0	32796	32802	
2750	0	32808	32820	
2751	0	32788	32788	
2752	0	32832	32671	
2753	0	32856	32708	
2754	0	32804	32721	
2755	0	32772	32637	
2756	0	32764	32878	
2757	0	32792	32817	
2758	0	32760	32794	
2759	0	32824	32766	
2760	0	32756	32902	
2761	0	32810	32856	
2762	0	32816	32770	
2763	0	32808	32712	
2764	0	32800	32880	
2765	0	32790	32836	
2766	0	32820	32638	
2767	0	32848	32759	
2768	0	32820	32752	
2769	0	32852	32740	
2770	0	32816	32682	
2771	0	32812	32788	
2772	0	32788	32627	
2773	0	32780	32834	
2774	0	32804	32774	
2775	0	32816	32846	
2776	0	32822	32684	
2777	0	32836	32714	
2778	0	32836	32800	
2779	0	32842	32824	
2780	0	32824	32775	
2781	0	32860	32786	
2782	0	32788	32694	
2783	0	32820	32694	
2784	0	32836	32775	
2785	0	32792	32686	
2786	0	32784	32854	
2787	0	32768	32686	
2788	0	32734	32646	
2789	0	32852	32759	
2790	0	32860	32799	
2791	0	32740	32903	
2792	0	32808	32678	
2793	0	32842	32860	
2794	0	32832	32770	
2795	0	32856	32792	
2796	0	32808	32740	
2797	0	32776	32673	
2798	0	32814	32750	
2799	0	32880	32790	
2800	0	32822	32764	
2801	0	32764	32884	
2802	0	32816	32739	
2803	0	32848	32760	
2804	0	32804	32734	
2805	0	32774	32758	
2806	0	32822	32758	
2807	0	32762	32849	
2808	0	32832	32774	
2809	0	32774	32708	
2810	0	32816	32683	
2811	0	32752	32807	
2812	0	32800	32788	
2813	0	32830	32726	
2814	0	32840	32752	
2815	0	32784	32808	
2816	0	32872	32736	
2817	0	32800	32678	
2818	0	32816	32736	
2819	0	32832	32820	
2820	0	32776	32775	
2821	0	32778	32734	
2822	0	32762	32656	
2823	0	32848	32743	
2824	0	32792	32820	
2825	0	32746	32810	
2826	0	32798	32848	
2827	0	32814	32852	
2828	0	32868	32812	
2829	0	32878	32614	
2830	0	32824	32807	
2831	0	32840	32760	
2832	0	32768	32807	
2833	0	32740	32647	
2834	0	32764	32702	
2835	0	32814	32792	
2836	0	32804	32743	
2837	0	32782	32713	
2838	0	32798	32799	
2839	0	32808	32744	
2840	0	32846	32775	
2841	0	32846	32678	
2842	0	32814	32870	
2843	0	32828	32808	
2844	0	32768	32864	
2845	0	32812	32694	
2846	0	32780	32695	
2847	0	32782	32858	
2848	0	32776	32796	
2849	0	32756	32728	
2850	0	32810	32671	
2851	0	32778	32781	
2852	0	32776	32746	
2853	0	32852	32750	
2854	0	32768	32722	
2855	0	32778	32712	
2856	0	32832	32862	
2857	0	32892	32787	
2858	0	32830	32748	
2859	0	32825	32684	
2860	0	32794	32736	
2861	0	32744	32612	
2862	0	32806	32750	
2863	0	32806	32830	
2864	0	32714	32775	
2865	0	32868	32850	
2866	0	32816	32740	
2867	0	32836	32812	
2868	0	32776	32847	
2869	0	32839	32693	
2870	0	32784	32847	
2871	0	32816	32743	
2872	0	32864	32766	
2873	0	32777	32798	
2874	0	32788	32737	
2875	0	32784	32691	
2876	0	32802	32698	
2877	0	32832	32816	
2878	0	32852	32727	
2879	0	32786	32812	
2880	0	32862	32775	
2881	0	32825	32844	
2882	0	32860	32762	
2883	0	32800	32774	
2884	0	32788	32676	
2885	0	32798	32807	
2886	0	32784	32824	
2887	0	32837	32698	
2888	0	32804	32700	
2889	0	32808	32830	
2890	0	32828	32830	
2891	0	32824	32814	
2892	0	32760	32647	
2893	0	32746	32788	
2894	0	32801	32762	
2895	0	32812	32836	
2896	0	32816	32732	
2897	0	32840	32806	
2898	0	32832	32812	
2899	0	32775	32668	
2900	0	32824	32747	
2901	0	32872	32775	
2902	0	32840	32774	
2903	0	32760	32663	
2904	0	32840	32802	
2905	0	32826	32808	
2906	0	32892	32792	
2907	0	32780	32748	
2908	0	32782	32764	
2909	0	32836	32850	
2910	0	32810	32838	
2911	0	32810	32774	
2912	0	32831	32767	
2913	0	32856	32759	
2914	0	32920	32748	
2915	0	32838	32711	
2916	0	32806	32834	
2917	0	32772	32788	
2918	0	32818	32835	
2919	0	32736	32756	
2920	0	32750	32856	
2921	0	32756	32752	
2922	0	32752	32796	
2923	0	32768	32692	
2924	0	32820	32694	
2925	0	32852	32806	
2926	0	32820	32771	
2927	0	32775	32714	
2928	0	32852	32700	
2929	0	32796	32820	
2930	0	32834	32702	
2931	0	32716	32762	
2932	0	32856	32716	
2933	0	32836	32810	
2934	0	32824	32775	
2935	0	32836	32775	
2936	0	32820	32671	
2937	0	32788	32788	
2938	0	32806	32742	
2939	0	32790	32804	
2940	0	32796	32670	
2941	0	32804	32740	
2942	0	32768	32759	
2943	0	32816	32750	
2944	0	32864	32713	
2945	0	32856	32729	
2946	0	32814	32806	
2947	0	32828	32759	
2948	0	32808	32788	
2949	0	32782	32774	
2950	0	32800	32829	
2951	0	32772	32824	
2952	0	32834	32757	
2953	0	32812	32729	
2954	0	32824	32807	
2955	0	32764	32751	
2956	0	32864	32847	
2957	0	32817	32740	
2958	0	32828	32653	
2959	0	32856	32823	
2960	0	32852	32796	
2961	0	32820	32883	
2962	0	32816	32659	
2963	0	32756	32750	
2964	0	32828	32876	
2965	0	32782	32742	
2966	0	32854	32839	
2967	0	32796	32743	
2968	0	32774	32786	
2969	0	32836	32766	
2970	0	32812	32844	
2971	0	32794	32703	
2972	0	32812	32696	
2973	0	32799	32753	
2974	0	32760	32796	
2975	0	32774	32652	
2976	0	32752	32708	
2977	0	32884	32775	
2978	0	32888	32871	
2979	0	32780	32882	
2980	0	32860	32742	
2981	0	32828	32724	
2982	0	32770	32684	
2983	0	32836	32788	
2984	0	32862	32754	
2985	0	32806	32682	
2986	0	32864	32834	
2987	0	32816	32770	
2988	0	32870	32882	
2989	0	32860	32832	
2990	0	32812	32726	
2991	0	32820	32886	
2992	0	32788	32844	
2993	0	32768	32848	
2994	0	32786	32743	
2995	0	32836	32799	
2996	0	32772	32682	
2997	0	32768	32762	
2998	0	32832	32682	
2999	0	32800	32794	
3000	0	32856	32748	
3001	0	32760	32804	
3002	0	32820	32711	
3003	0	32868	32766	
3004	0	32824	32647	
3005	0	32880	32660	
3006	0	32828	32798	
3007	0	32792	32830	
3008	0	32734	32753	
3009	0	32730	32796	
3010	0	32801	32690	
3011	0	32830	32732	
3012	0	32828	32844	
3013	0	32812	32753	
3014	0	32748	32816	
3015	0	32740	32644	
3016	0	32784	32756	
3017	0	32808	32800	
3018	0	32826	32880	
3019	0	32896	32830	
3020	0	32894	32801	
3021	0	32870	32682	
3022	0	32820	32775	
3023	0	32834	32854	
3024	0	32830	32743	
3025	0	32848	32750	
3026	0	32804	32630	
3027	0	32782	32818	
3028	0	32803	32775	
3029	0	32786	32790	
3030	0	32800	32852	
3031	0	32820	32670	
3032	0	32746	32724	
3033	0	32846	32768	
3034	0	32764	32748	
3035	0	32856	32812	
3036	0	32854	32732	
3037	0	32806	32660	
3038	0	32762	32688	
3039	0	32716	32846	
3040	0	32878	32743	
3041	0	32828	32886	
3042	0	32804	32775	
3043	0	32782	32775	
3044	0	32768	32828	
3045	0	32788	32775	
3046	0	32840	32914	
3047	0	32820	32774	
3048	0	32754	32746	
3049	0	32832	32826	
3050	0	32801	32830	
3051	0	32788	32668	
3052	0	32788	32682	
3053	0	32768	32821	
3054	0	32824	32760	
3055	0	32860	32775	
3056	0	32868	32810	
3057	0	32808	32724	
3058	0	32760	32722	
3059	0	32805	32870	
3060	0	32828	32760	
3061	0	32752	32746	
3062	0	32796	32804	
3063	0	32796	32853	
3064	0	32888	32850	
3065	0	32898	32768	
3066	0	32836	32839	
3067	0	32744	32770	
3068	0	32784	32668	
3069	0	32840	32699	
3070	0	32798	32750	
3071	0	32780	32804	
3072	0	32804	32641	
3073	0	32808	32756	
3074	0	32806	32775	
3075	0	32794	32732	
3076	0	32786	32822	
3077	0	32836	32772	
3078	0	32750	32775	
3079	0	32768	32691	
3080	0	32796	32804	
3081	0	32724	32775	
3082	0	32780	32774	
3083	0	32782	32790	
3084	0	32792	32751	
3085	0	32828	32756	
3086	0	32844	32807	
3087	0	32824	32788	
3088	0	32839	32740	
3089	0	32800	32775	
3090	0	32832	32752	
3091	0	32920	32856	
3092	0	32874	32730	
3093	0	32836	32804	
3094	0	32784	32737	
3095	0	32860	32625	
3096	0	32778	32752	
3097	0	32756	32764	
3098	0	32838	32730	
3099	0	32821	32820	
3100	0	32812	32884	
3101	0	32808	32903	
3102	0	32776	32754	
3103	0	32806	32825	
3104	0	32836	32816	
3105	0	32804	32828	
3106	0	32828	32656	
3107	0	32804	32938	
3108	0	32868	32750	
3109	0	32820	32796	
3110	0	32776	32647	
3111	0	32766	32734	
3112	0	32872	32743	
3113	0	32740	32654	
3114	0	32774	32724	
3115	0	32840	32750	
3116	0	32878	32756	
3117	0	32788	32755	
3118	0	32834	32798	
3119	0	32868	32752	
3120	0	32832	32770	
3121	0	32772	32702	
3122	0	32764	32754	
3123	0	32776	32732	
3124	0	32862	32674	
3125	0	32798	32614	
3126	0	32790	32796	
3127	0	32768	32846	
3128	0	32792	32734	
3129	0	32828	32844	
3130	0	32786	32775	
3131	0	32812	32762	
3132	0	32810	32750	
3133	0	32900	32858	
3134	0	32852	32774	
3135	0	32764	32802	
3136	0	32796	32702	
3137	0	32874	32838	
3138	0	32808	32756	
3139	0	32844	32775	
3140	0	32848	32775	
3141	0	32818	32775	
3142	0	32868	32788	
3143	0	32768	32686	
3144	0	32828	32743	
3145	0	32748	32858	
3146	0	32800	32775	
3147	0	32822	32754	
3148	0	32750	32876	
3149	0	32780	32801	
3150	0	32774	32786	
3151	0	32836	32700	
3152	0	32828	32788	
3153	0	32768	32756	
3154	0	32828	32772	
3155	0	32780	32671	
3156	0	32836	32795	
3157	0	32788	32815	
3158	0	32796	32679	
3159	0	32802	32679	
3160	0	32828	32823	
3161	0	32732	32772	
3162	0	32756	32824	
3163	0	32810	32754	
3164	0	32880	32692	
3165	0	32872	32752	
3166	0	32900	32700	
3167	0	32816	32868	
3168	0	32807	32828	
3169	0	32756	32702	
3170	0	32804	32824	
3171	0	32817	32852	
3172	0	32886	32753	
3173	0	32793	32746	
3174	0	32804	32812	
3175	0	32846	32727	
3176	0	32852	32708	
3177	0	32844	32820	
3178	0	32754	32806	
3179	0	32840	32708	
3180	0	32832	32795	
3181	0	32852	32743	
3182	0	32852	32816	
3183	0	32838	32700	
3184	0	32792	32802	
3185	0	32816	32754	
3186	0	32856	32846	
3187	0	32775	32746	
3188	0	32748	32892	
3189	0	32856	32775	
3190	0	32784	32922	
3191	0	32752	32728	
3192	0	32776	32790	
3193	0	32824	32768	
3194	0	32762	32641	
3195	0	32860	32715	
3196	0	32748	32804	
3197	0	32724	32671	
3198	0	32768	32647	
3199	0	32740	32736	
3200	0	32732	32722	
3201	0	32721	32571	
3202	0	32730	32543	
3203	0	32704	32676	
3204	0	32760	32744	
3205	0	32740	32638	
3206	0	32772	32775	
3207	0	32752	32672	
3208	0	32752	32703	
3209	0	32718	32742	
3210	0	32752	32740	
3211	0	32734	32705	
3212	0	32720	32688	
3213	0	32668	32743	
3214	0	32705	32743	
3215	0	32676	32716	
3216	0	32736	32767	
3217	0	32786	32764	
3218	0	32720	32680	
3219	0	32756	32839	
3220	0	32830	32774	
3221	0	32884	32812	
3222	0	32978	32871	
3223	0	33092	33008	
3224	0	33178	33159	
3225	0	33236	33159	
3226	0	33214	33132	
3227	0	33180	33031	
3228	0	33112	32914	
3229	0	33032	32960	
3230	0	33074	32820	
3231	0	33046	32740	
3232	0	33012	32799	
3233	0	32984	32967	
3234	0	32900	32628	
3235	0	32836	32737	
3236	0	32772	32775	
3237	0	32800	32692	
3238	0	32704	32609	
3239	0	32672	32664	
3240	0	32700	32756	
3241	0	32752	32644	
3242	0	32732	32750	
3243	0	32692	32759	
3244	0	32618	32610	
3245	0	32610	32697	
3246	0	32680	32666	
3247	0	32688	32606	
3248	0	32674	32574	
3249	0	32696	32732	
3250	0	32764	32728	
3251	0	32708	32583	
3252	0	32712	32766	
3253	0	32816	32744	
3254	0	32759	32786	
3255	0	32834	32710	
3256	0	32760	32740	
3257	0	32808	32748	
3258	0	32800	32831	
3259	0	32776	32692	
3260	0	32860	32836	
3261	0	32822	32815	
3262	0	32804	32673	
3263	0	32800	32696	
3264	0	32788	32818	
3265	0	32788	32856	
3266	0	32836	32686	
3267	0	32856	32719	
3268	0	32854	32758	
3269	0	32796	32807	
3270	0	32844	32745	
3271	0	32844	32750	
3272	0	32826	32807	
3273	0	32816	32772	
3274	0	32839	32760	
3275	0	32782	32814	
3276	0	32768	32774	
3277	0	32764	32688	
3278	0	32758	32871	
3279	0	32800	32847	
3280	0	32786	32815	
3281	0	32824	32679	
3282	0	32804	32700	
3283	0	32853	32690	
3284	0	32824	32775	
3285	0	32872	32743	
3286	0	32810	32748	
3287	0	32772	32775	
3288	0	32816	32686	
3289	0	32804	32830	
3290	0	32836	32749	
3291	0	32824	32740	
3292	0	32848	32687	
3293	0	32760	32852	
3294	0	32806	32794	
3295	0	32780	32733	
3296	0	32792	32722	
3297	0	32868	32824	
3298	0	32796	32788	
3299	0	32844	32775	
3300	0	32832	32724	
3301	0	32858	32816	
3302	0	32816	32820	
3303	0	32870	32771	
3304	0	32816	32782	
3305	0	32772	32676	
3306	0	32778	32823	
3307	0	32784	32727	
3308	0	32852	32792	
3309	0	32804	32727	
3310	0	32750	32693	
3311	0	32718	32798	
3312	0	32760	32759	
3313	0	32774	32774	
3314	0	32856	32775	
3315	0	32768	32775	
3316	0	32870	32828	
3317	0	32812	32788	
3318	0	32774	32900	
3319	0	32814	32716	
3320	0	32846	32700	
3321	0	32760	32760	
3322	0	32913	32798	
3323	0	32890	32706	
3324	0	32810	32698	
3325	0	32862	32862	
3326	0	32846	32760	
3327	0	32820	32756	
3328	0	32848	32775	
3329	0	32814	32699	
3330	0	32862	32807	
3331	0	32848	32826	
3332	0	32806	32734	
3333	0	32760	32773	
3334	0	32780	32775	
3335	0	32816	32710	
3336	0	32774	32836	
3337	0	32812	32742	
3338	0	32800	32660	
3339	0	32836	32762	
3340	0	32800	32647	
3341	0	32766	32752	
3342	0	32864	32798	
3343	0	32785	32686	
3344	0	32836	32775	
3345	0	32858	32828	
3346	0	32800	32874	
3347	0	32848	32802	
3348	0	32900	32862	
3349	0	32788	32842	
3350	0	32836	32668	
3351	0	32752	32775	
3352	0	32758	32836	
3353	0	32828	32790	
3354	0	32808	32799	
3355	0	32802	32766	
3356	0	32788	32766	
3357	0	32806	32664	
3358	0	32868	32672	
3359	0	32872	32769	
3360	0	32754	32759	
3361	0	32812	32718	
3362	0	32834	32752	
3363	0	32758	32666	
3364	0	32774	32732	
3365	0	32800	32710	
3366	0	32828	32816	
3367	0	32824	32791	
3368	0	32904	32732	
3369	0	32868	32670	
3370	0	32848	32756	
3371	0	32838	32782	
3372	0	32784	32746	
3373	0	32757	32788	
3374	0	32740	32799	
3375	0	32838	32636	
3376	0	32844	32748	
3377	0	32864	32783	
3378	0	32828	32802	
3379	0	32792	32708	
3380	0	32732	32830	
3381	0	32814	32748	
3382	0	32772	32684	
3383	0	32720	32800	
3384	0	32766	32760	
3385	0	32788	32730	
3386	0	32770	32727	
3387	0	32836	32840	
3388	0	32828	32746	
3389	0	32800	32838	
3390	0	32841	32852	
3391	0	32836	32838	
3392	0	32792	32769	
3393	0	32862	32737	
3394	0	32800	32788	
3395	0	32908	32823	
3396	0	32827	32802	
3397	0	32826	32764	
3398	0	32828	32647	
3399	0	32828	32746	
3400	0	32828	32786	
3401	0	32761	32868	
3402	0	32784	32663	
3403	0	32768	32736	
3404	0	32812	32768	
3405	0	32772	32789	
3406	0	32796	32713	
3407	0	32812	32718	
3408	0	32808	32876	
3409	0	32804	32784	
3410	0	32817	32754	
3411	0	32798	32839	
3412	0	32776	32732	
3413	0	32868	32792	
3414	0	32784	32718	
3415	0	32826	32796	
3416	0	32820	32774	
3417	0	32834	32768	
3418	0	32872	32864	
3419	0	32834	32687	
3420	0	32816	32692	
3421	0	32788	32734	
3422	0	32800	32806	
3423	0	32736	32718	
3424	0	32802	32800	
3425	0	32790	32884	
3426	0	32752	32711	
3427	0	32806	32772	
3428	0	32808	32756	
3429	0	32808	32732	
3430	0	32832	32614	
3431	0	32784	32716	
3432	0	32862	32840	
3433	0	32880	32812	
3434	0	32844	32767	
3435	0	32824	32712	
3436	0	32826	32666	
3437	0	32780	32895	
3438	0	32764	32790	
3439	0	32828	32836	
3440	0	32768	32852	
3441	0	32828	32711	
3442	0	32775	32792	
3443	0	32756	32768	
3444	0	32848	32791	
3445	0	32752	32674	
3446	0	32852	32782	
3447	0	32804	32728	
3448	0	32772	32832	
3449	0	32872	32746	
3450	0	32860	32820	
3451	0	32836	32794	
3452	0	32868	32655	
3453	0	32872	32842	
3454	0	32869	32738	
3455	0	32913	32894	
3456	0	32934	32807	
3457	0	32788	32666	
3458	0	32814	32798	
3459	0	32818	32822	
3460	0	32820	32823	
3461	0	32764	32639	
3462	0	32774	32764	
3463	0	32794	32767	
3464	0	32760	32775	
3465	0	32804	32710	
3466	0	32770	32860	
3467	0	32780	32764	
3468	0	32848	32708	
3469	0	32830	32680	
3470	0	32772	32752	
3471	0	32854	32836	
3472	0	32824	32711	
3473	0	32788	32580	
3474	0	32807	32804	
3475	0	32832	32756	
3476	0	32834	32860	
3477	0	32848	32740	
3478	0	32858	32842	
3479	0	32774	32814	
3480	0	32808	32854	
3481	0	32804	32772	
3482	0	32756	32832	
3483	0	32804	32922	
3484	0	32756	32704	
3485	0	32808	32716	
3486	0	32816	32816	
3487	0	32844	32734	
3488	0	32800	32720	
3489	0	32796	32600	
3490	0	32812	32751	
3491	0	32792	32724	
3492	0	32800	32824	
3493	0	32764	32663	
3494	0	32816	32719	
3495	0	32834	32750	
3496	0	32838	32764	
3497	0	32776	32802	
3498	0	32817	32664	
3499	0	32852	32775	
3500	0	32884	32732	
3501	0	32860	32818	
3502	0	32828	32816	
3503	0	32792	32742	
3504	0	32800	32862	
3505	0	32834	32735	
3506	0	32736	32774	
3507	0	32798	32706	
3508	0	32804	32724	
3509	0	32808	32775	
3510	0	32808	32674	
3511	0	32868	32766	
3512	0	32808	32728	
3513	0	32844	32820	
3514	0	32768	32720	
3515	0	32824	32807	
3516	0	32740	32724	
3517	0	32836	32839	
3518	0	32744	32807	
3519	0	32780	32724	
3520	0	32825	32830	
3521	0	32780	32750	
3522	0	32788	32788	
3523	0	32780	32720	
3524	0	32844	32870	
3525	0	32822	32828	
3526	0	32772	32696	
3527	0	32832	32708	
3528	0	32830	32818	
3529	0	32780	32804	
3530	0	32792	32807	
3531	0	32816	32672	
3532	0	32886	32858	
3533	0	32766	32710	
3534	0	32856	32816	
3535	0	32836	32752	
3536	0	32792	32772	
3537	0	32838	32751	
3538	0	32772	32902	
3539	0	32788	32668	
3540	0	32794	32800	
3541	0	32836	32804	
3542	0	32914	32842	
3543	0	32846	32684	
3544	0	32836	32688	
3545	0	32821	32791	
3546	0	32792	32718	
3547	0	32788	32804	
3548	0	32852	32775	
3549	0	32844	32830	
3550	0	32792	32680	
3551	0	32794	32840	
3552	0	32800	32831	
3553	0	32816	32791	
3554	0	32740	32679	
3555	0	32808	32730	
3556	0	32758	32770	
3557	0	32831	32700	
3558	0	32762	32768	
3559	0	32696	32733	
3560	0	32758	32766	
3561	0	32840	32702	
3562	0	32850	32828	
3563	0	32736	32679	
3564	0	32856	32788	
3565	0	32768	32700	
3566	0	32864	32832	
3567	0	32848	32775	
3568	0	32846	32730	
3569	0	32812	32764	
3570	0	32840	32720	
3571	0	32864	32820	
3572	0	32830	32672	
3573	0	32810	32710	
3574	0	32850	32820	
3575	0	32804	32800	
3576	0	32816	32843	
3577	0	32784	32688	
3578	0	32852	32764	
3579	0	32880	32742	
3580	0	32778	32764	
3581	0	32784	32670	
3582	0	32776	32798	
3583	0	32744	32791	
3584	0	32850	32839	
3585	0	32742	32648	
3586	0	32864	32750	
3587	0	32760	32700	
3588	0	32748	32836	
3589	0	32808	32740	
3590	0	32822	32784	
3591	0	32820	32656	
3592	0	32892	32772	
3593	0	32860	32782	
3594	0	32816	32686	
3595	0	32790	32775	
3596	0	32796	32736	
3597	0	32796	32710	
3598	0	32912	32826	
3599	0	32876	32714	
3600	0	32788	32784	
3601	0	32774	32740	
3602	0	32782	32768	
3603	0	32828	32775	
3604	0	32772	32661	
3605	0	32806	32684	
3606	0	32764	32804	
3607	0	32744	32770	
3608	0	32766	32770	
3609	0	32756	32734	
3610	0	32834	32882	
3611	0	32780	32806	
3612	0	32776	32812	
3613	0	32836	32818	
3614	0	32860	32852	
3615	0	32792	32624	
3616	0	32852	32723	
3617	0	32804	32806	
3618	0	32768	32775	
3619	0	32852	32878	
3620	0	32768	32804	
3621	0	32804	32728	
3622	0	32888	32768	
3623	0	32820	32799	
3624	0	32852	32682	
3625	0	32810	32630	
3626	0	32798	32718	
3627	0	32804	32784	
3628	0	32812	32740	
3629	0	32816	32839	
3630	0	32800	32819	
3631	0	32828	32870	
3632	0	32802	32775	
3633	0	32880	32804	
3634	0	32838	32846	
3635	0	32880	32764	
3636	0	32804	32755	
3637	0	32756	32752	
3638	0	32760	32644	
3639	0	32720	32704	
3640	0	32748	32868	
3641	0	32792	32731	
3642	0	32742	32820	
3643	0	32804	32726	
3644	0	32828	32698	
3645	0	32884	32742	
3646	0	32908	32830	
3647	0	32809	32808	
3648	0	32852	32762	
3649	0	32776	32678	
3650	0	32740	32610	
3651	0	32788	32899	
3652	0	32824	32775	
3653	0	32812	32775	
3654	0	32804	32798	
3655	0	32828	32711	
3656	0	32824	32696	
3657	0	32764	32774	
3658	0	32800	32713	
3659	0	32854	32822	
3660	0	32760	32811	
3661	0	32808	32625	
3662	0	32852	32690	
3663	0	32772	32810	
3664	0	32816	32798	
3665	0	32800	32838	
3666	0	32816	32764	
3667	0	32830	32714	
3668	0	32828	32732	
3669	0	32796	32780	
3670	0	32818	32824	
3671	0	32808	32847	
3672	0	32788	32758	
3673	0	32848	32824	
3674	0	32840	32764	
3675	0	32756	32676	
3676	0	32856	32804	
3677	0	32826	32808	
3678	0	32798	32774	
3679	0	32804	32758	
3680	0	32882	32775	
3681	0	32926	32774	
3682	0	32884	32646	
3683	0	32844	32640	
3684	0	32820	32800	
3685	0	32792	32767	
3686	0	32756	32830	
3687	0	32780	32759	
3688	0	32716	32720	
3689	0	32792	32852	
3690	0	32788	32798	
3691	0	32744	32756	
3692	0	32738	32840	
3693	0	32832	32644	
3694	0	32824	32654	
3695	0	32818	32716	
3696	0	32858	32852	
3697	0	32821	32740	
3698	0	32832	32772	
3699	0	32794	32816	
3700	0	32864	32792	
3701	0	32820	32816	
3702	0	32834	32842	
3703	0	32842	32799	
3704	0	32800	32684	
3705	0	32832	32679	
3706	0	32792	32732	
3707	0	32732	32737	
3708	0	32808	32761	
3709	0	32826	32774	
3710	0	32796	32788	
3711	0	32800	32792	
3712	0	32828	32862	
3713	0	32864	32830	
3714	0	32836	32794	
3715	0	32836	32838	
3716	0	32780	32810	
3717	0	32840	32673	
3718	0	32778	32758	
3719	0	32828	32698	
3720	0	32834	32766	
3721	0	32740	32738	
3722	0	32802	32810	
3723	0	32832	32686	
3724	0	32845	32692	
3725	0	32842	32858	
3726	0	32820	32772	
3727	0	32772	32815	
3728	0	32784	32852	
3729	0	32758	32828	
3730	0	32756	32796	
3731	0	32764	32647	
3732	0	32775	32726	
3733	0	32766	32754	
3734	0	32832	32760	
3735	0	32720	32775	
3736	0	32900	32756	
3737	0	32832	32750	
3738	0	32812	32823	
3739	0	32784	32790	
3740	0	32804	32771	
3741	0	32864	32767	
3742	0	32724	32628	
3743	0	32868	32775	
3744	0	32788	32806	
3745	0	32846	32711	
3746	0	32784	32732	
3747	0	32784	32727	
3748	0	32864	32748	
3749	0	32788	32692	
3750	0	32802	32719	
3751	0	32792	32794	
3752	0	32792	32775	
3753	0	32876	32848	
3754	0	32868	32844	
3755	0	32870	32775	
3756	0	32888	32810	
3757	0	32840	32751	
3758	0	32747	32852	
3759	0	32880	32826	
3760	0	32864	32679	
3761	0	32810	32744	
3762	0	32804	32774	
3763	0	32852	32802	
3764	0	32762	32768	
3765	0	32788	32718	
3766	0	32764	32760	
3767	0	32792	32809	
3768	0	32740	32775	
3769	0	32784	32654	
3770	0	32800	32695	
3771	0	32772	32775	
3772	0	32826	32775	
3773	0	32812	32726	
3774	0	32852	32743	
3775	0	32824	32753	
3776	0	32786	32818	
3777	0	32840	32788	
3778	0	32808	32756	
3779	0	32766	32738	
3780	0	32746	32752	
3781	0	32848	32686	
3782	0	32765	32702	
3783	0	32843	32748	
3784	0	32824	32748	
3785	0	32788	32750	
3786	0	32764	32708	
3787	0	32832	32706	
3788	0	32812	32874	
3789	0	32796	32774	
3790	0	32808	32718	
3791	0	32766	32802	
3792	0	32784	32728	
3793	0	32840	32820	
3794	0	32824	32676	
3795	0	32772	32671	
3796	0	32792	32814	
3797	0	32788	32788	
3798	0	32872	32856	
3799	0	32816	32790	
3800	0	32820	32647	
3801	0	32812	32652	
3802	0	32776	32797	
3803	0	32784	32772	
3804	0	32726	32824	
3805	0	32820	32737	
3806	0	32780	32686	
3807	0	32808	32692	
3808	0	32856	32822	
3809	0	32800	32743	
3810	0	32804	32792	
3811	0	32784	32752	
3812	0	32792	32720	
3813	0	32781	32682	
3814	0	32830	32775	
3815	0	32804	32798	
3816	0	32820	32806	
3817	0	32776	32758	
3818	0	32758	32794	
3819	0	32812	32799	
3820	0	32796	32675	
3821	0	32800	32654	
3822	0	32840	32765	
3823	0	32880	32808	
3824	0	32806	32807	
3825	0	32812	32894	
3826	0	32800	32807	
3827	0	32764	32696	
3828	0	32808	32736	
3829	0	32778	32728	
3830	0	32792	32792	
3831	0	32744	32616	
3832	0	32772	32716	
3833	0	32754	32826	
3834	0	32844	32831	
3835	0	32764	32805	
3836	0	32812	32729	
3837	0	32860	32806	
3838	0	32816	32818	
3839	0	32884	32816	
3840	0	32852	32756	
3841	0	32828	32702	
3842	0	32784	32698	
3843	0	32812	32840	
3844	0	32820	32822	
3845	0	32888	32814	
3846	0	32816	32806	
3847	0	32844	32766	
3848	0	32836	32771	
3849	0	32783	32846	
3850	0	32808	32775	
3851	0	32860	32738	
3852	0	32780	32678	
3853	0	32796	32692	
3854	0	32722	32692	
3855	0	32804	32798	
3856	0	32780	32730	
3857	0	32732	32735	
3858	0	32764	32739	
3859	0	32872	32762	
3860	0	32814	32775	
3861	0	32866	32796	
3862	0	32792	32742	
3863	0	32762	32673	
3864	0	32836	32640	
3865	0	32832	32775	
3866	0	32808	32784	
3867	0	32868	32692	
3868	0	32834	32686	
3869	0	32820	32722	
3870	0	32786	32724	
3871	0	32764	32806	
3872	0	32758	32743	
3873	0	32784	32860	
3874	0	32756	32844	
3875	0	32756	32754	
3876	0	32842	32814	
3877	0	32860	32764	
3878	0	32836	32862	
3879	0	32772	32772	
3880	0	32824	32775	
3881	0	32820	32770	
3882	0	32832	32807	
3883	0	32852	32670	
3884	0	32840	32679	
3885	0	32836	32800	
3886	0	32826	32738	
3887	0	32844	32817	
3888	0	32792	32711	
3889	0	32856	32702	
3890	0	32836	32796	
3891	0	32828	32743	
3892	0	32808	32830	
3893	0	32768	32746	
3894	0	32798	32692	
3895	0	32748	32728	
3896	0	32816	32728	
3897	0	32790	32772	
3898	0	32820	32810	
3899	0	32830	32774	
3900	0	32871	32792	
3901	0	32852	32738	
3902	0	32782	32743	
3903	0	32908	32747	
3904	0	32818	32842	
3905	0	32812	32752	
3906	0	32800	32756	
3907	0	32716	32701	
3908	0	32800	32742	
3909	0	32802	32729	
3910	0	32832	32807	
3911	0	32852	32794	
3912	0	32808	32775	
3913	0	32796	32812	
3914	0	32813	32734	
3915	0	32790	32710	
3916	0	32768	32772	
3917	0	32796	32807	
3918	0	32862	32768	
3919	0	32848	32701	
3920	0	32866	32685	
3921	0	32844	32788	
3922	0	32834	32775	
3923	0	32790	32740	
3924	0	32752	32771	
3925	0	32804	32746	
3926	0	32845	32802	
3927	0	32848	32766	
3928	0	32804	32734	
3929	0	32746	32838	
3930	0	32720	32768	
3931	0	32714	32604	
3932	0	32724	32828	
3933	0	32720	32764	
3934	0	32772	32751	
3935	0	32736	32686	
3936	0	32718	32576	
3937	0	32744	32708	
3938	0	32752	32658	
3939	0	32704	32775	
3940	0	32758	32775	
3941	0	32696	32650	
3942	0	32692	32647	
3943	0	32708	32632	
3944	0	32624	32784	
3945	0	32708	32730	
3946	0	32708	32743	
3947	0	32784	32774	
3948	0	32756	32599	
3949	0	32756	32696	
3950	0	32730	32815	
3951	0	32760	32813	
3952	0	32752	32733	
3953	0	32756	32668	
3954	0	32794	32698	
3955	0	32844	32880	
3956	0	32952	32914	
3957	0	33024	32900	
3958	0	33120	33004	
3959	0	33134	33155	
3960	0	33157	33109	
3961	0	33220	33142	
3962	0	33192	32986	
3963	0	33114	32922	
3964	0	33124	32812	
3965	0	33024	32822	
3966	0	33078	32832	
3967	0	32942	32839	
3968	0	32940	32760	
3969	0	32880	32712	
3970	0	32884	32809	
3971	0	32798	32798	
3972	0	32840	32774	
3973	0	32716	32716	
3974	0	32710	32734	
3975	0	32688	32730	
3976	0	32708	32708	
3977	0	32680	32724	
3978	0	32688	32552	
3979	0	32784	32608	
3980	0	32600	32664	
3981	0	32624	32656	
3982	0	32720	32722	
3983	0	32686	32660	
3984	0	32712	32663	
3985	0	32736	32784	
3986	0	32764	32676	
3987	0	32724	32732	
3988	0	32720	32782	
3989	0	32718	32819	
3990	0	32846	32679	
3991	0	32816	32612	
3992	0	32800	32775	
3993	0	32816	32752	
3994	0	32808	32816	
3995	0	32804	32750	
3996	0	32860	32866	
3997	0	32812	32862	
3998	0	32828	32846	
3999	0	32724	32775	
4000	0	32880	32819	
4001	0	32836	32789	
4002	0	32836	32762	
4003	0	32800	32774	
4004	0	32842	32710	
4005	0	32800	32648	
4006	0	32700	32810	
4007	0	32792	32732	
4008	0	32762	32816	
4009	0	32804	32748	
4010	0	32788	32774	
4011	0	32816	32751	
4012	0	32792	32716	
4013	0	32766	32818	
4014	0	32832	32762	
4015	0	32804	32746	
4016	0	32838	32740	
4017	0	32762	32792	
4018	0	32760	32714	
4019	0	32852	32736	
4020	0	32816	32807	
4021	0	32840	32756	
4022	0	32848	32738	
4023	0	32804	32721	
4024	0	32768	32756	
4025	0	32885	32868	
4026	0	32844	32714	
4027	0	32808	32854	
4028	0	32792	32720	
4029	0	32810	32764	
4030	0	32798	32814	
4031	0	32808	32726	
4032	0	32800	32842	
4033	0	32732	32679	
4034	0	32784	32744	
4035	0	32753	32732	
4036	0	32800	32706	
4037	0	32804	32866	
4038	0	32780	32686	
4039	0	32796	32693	
4040	0	32826	32788	
4041	0	32868	32816	
4042	0	32788	32892	
4043	0	32804	32788	
4044	0	32848	32775	
4045	0	32860	32884	
4046	0	32748	32772	
4047	0	32748	32831	
4048	0	32816	32711	
4049	0	32842	32732	
4050	0	32816	32678	
4051	0	32780	32681	
4052	0	32816	32811	
4053	0	32816	32816	
4054	0	32788	32758	
4055	0	32800	32801	
4056	0	32808	32704	
4057	0	32872	32662	
4058	0	32836	32743	
4059	0	32792	32810	
4060	0	32844	32752	
4061	0	32820	32774	
4062	0	32768	32839	
4063	0	32736	32806	
4064	0	32790	32764	
4065	0	32782	32880	
4066	0	32832	32775	
4067	0	32844	32746	
4068	0	32788	32828	
4069	0	32870	32804	
4070	0	32862	32698	
4071	0	32796	32719	
4072	0	32780	32788	
4073	0	32792	32798	
4074	0	32784	32822	
4075	0	32868	32774	
4076	0	32802	32711	
4077	0	32876	32775	
4078	0	32848	32846	
4079	0	32856	32762	
4080	0	32772	32727	
4081	0	32817	32736	
4082	0	32728	32758	
4083	0	32832	32804	
4084	0	32748	32878	
4085	0	32736	32662	
4086	0	32804	32616	
4087	0	32836	32793	
4088	0	32752	32734	
4089	0	32768	32802	
4090	0	32864	32766	
4091	0	32808	32705	
4092	0	32780	32814	
4093	0	32842	32647	
4094	0	32836	32848	
4095	0	32820	32808	
4096	0	32892	32768	
4097	0	32840	32847	
4098	0	32840	32739	
4099	0	32798	32706	
4100	0	32860	32767	
4101	0	32802	32740	
4102	0	32836	32775	
4103	0	32780	32674	
4104	0	32872	32724	
4105	0	32902	32724	
4106	0	32804	32769	
4107	0	32776	32696	
4108	0	32840	32851	
4109	0	32830	32791	
4110	0	32734	32901	
4111	0	32837	32772	
4112	0	32760	32866	
4113	0	32766	32742	
4114	0	32760	32796	
4115	0	32828	32698	
4116	0	32788	32772	
4117	0	32763	32804	
4118	0	32788	32727	
4119	0	32816	32652	
4120	0	32812	32730	
4121	0	32853	32788	
4122	0	32780	32751	
4123	0	32788	32693	
4124	0	32872	32828	
4125	0	32833	32724	
4126	0	32804	32774	
4127	0	32774	32732	
4128	0	32800	32740	
4129	0	32868	32676	
4130	0	32818	32774	
4131	0	32816	32826	
4132	0	32828	32846	
4133	0	32808	32836	
4134	0	32788	32754	
4135	0	32860	32908	
4136	0	32816	32831	
4137	0	32824	32844	
4138	0	32794	32750	
4139	0	32862	32740	
4140	0	32810	32775	
4141	0	32772	32790	
4142	0	32832	32788	
4143	0	32756	32630	
4144	0	32806	32644	
4145	0	32784	32734	
4146	0	32838	32800	
4147	0	32804	32718	
4148	0	32768	32743	
4149	0	32774	32720	
4150	0	32828	32799	
4151	0	32788	32748	
4152	0	32810	32756	
4153	0	32788	32762	
4154	0	32796	32829	
4155	0	32820	32786	
4156	0	32924	32824	
4157	0	32772	32682	
4158	0	32810	32736	
4159	0	32881	32785	
4160	0	32860	32808	
4161	0	32858	32821	
4162	0	32816	32768	
4163	0	32828	32784	
4164	0	32796	32852	
4165	0	32866	32681	
4166	0	32820	32695	
4167	0	32804	32663	
4168	0	32768	32684	
4169	0	32718	32775	
4170	0	32760	32740	
4171	0	32823	32800	
4172	0	32817	32884	
4173	0	32790	32770	
4174	0	32846	32784	
4175	0	32868	32696	
4176	0	32836	32840	
4177	0	32844	32662	
4178	0	32836	32775	
4179	0	32836	32775	
4180	0	32828	32859	
4181	0	32820	32805	
4182	0	32840	32775	
4183	0	32810	32670	
4184	0	32804	32719	
4185	0	32807	32840	
4186	0	32842	32775	
4187	0	32848	32798	
4188	0	32860	32775	
4189	0	32792	32730	
4190	0	32820	32708	
4191	0	32836	32762	
4192	0	32760	32790	
4193	0	32830	32742	
4194	0	32792	32716	
4195	0	32806	32754	
4196	0	32824	32674	
4197	0	32834	32766	
4198	0	32824	32847	
4199	0	32776	32794	
4200	0	32772	32796	
4201	0	32746	32774	
4202	0	32790	32742	
4203	0	32790	32730	
4204	0	32844	32826	
4205	0	32822	32812	
4206	0	32800	32716	
4207	0	32780	32862	
4208	0	32844	32720	
4209	0	32812	32666	
4210	0	32768	32660	
4211	0	32786	32820	
4212	0	32771	32814	
4213	0	32804	32775	
4214	0	32832	32848	
4215	0	32775	32838	
4216	0	32778	32706	
4217	0	32830	32724	
4218	0	32808	32865	
4219	0	32804	32832	
4220	0	32808	32799	
4221	0	32792	32822	
4222	0	32862	32742	
4223	0	32784	32750	
4224	0	32764	32687	
4225	0	32884	32686	
4226	0	32786	32690	
4227	0	32760	32804	
4228	0	32804	32724	
4229	0	32730	32812	
4230	0	32766	32754	
4231	0	32774	32768	
4232	0	32780	32846	
4233	0	32812	32820	
4234	0	32824	32792	
4235	0	32812	32712	
4236	0	32796	32703	
4237	0	32844	32715	
4238	0	32740	32884	
4239	0	32778	32730	
4240	0	32888	32832	
4241	0	32864	32807	
4242	0	32804	32774	
4243	0	32774	32804	
4244	0	32774	32782	
4245	0	32884	32724	
4246	0	32823	32624	
4247	0	32737	32711	
4248	0	32792	32596	
4249	0	32784	32744	
4250	0	32796	32802	
4251	0	32804	32816	
4252	0	32817	32846	
4253	0	32788	32820	
4254	0	32800	32738	
4255	0	32748	32708	
4256	0	32816	32716	
4257	0	32816	32800	
4258	0	32794	32760	
4259	0	32808	32800	
4260	0	32818	32647	
4261	0	32864	32718	
4262	0	32848	32751	
4263	0	32830	32840	
4264	0	32828	32830	
4265	0	32834	32792	
4266	0	32772	32726	
4267	0	32768	32642	
4268	0	32816	32775	
4269	0	32802	32764	
4270	0	32804	32792	
4271	0	32824	32706	
4272	0	32792	32630	
4273	0	32836	32814	
4274	0	32808	32766	
4275	0	32725	32748	
4276	0	32830	32834	
4277	0	32864	32679	
4278	0	32842	32854	
4279	0	32852	32896	
4280	0	32792	32772	
4281	0	32772	32718	
4282	0	32844	32756	
4283	0	32852	32632	
4284	0	32874	32657	
4285	0	32856	32819	
4286	0	32808	32804	
4287	0	32772	32876	
4288	0	32808	32834	
4289	0	32770	32842	
4290	0	32720	32834	
4291	0	32784	32895	
4292	0	32760	32726	
4293	0	32796	32750	
4294	0	32828	32774	
4295	0	32844	32761	
4296	0	32780	32764	
4297	0	32828	32768	
4298	0	32832	32736	
4299	0	32820	32852	
4300	0	32800	32799	
4301	0	32768	32719	
4302	0	32788	32732	
4303	0	32769	32601	
4304	0	32870	32692	
4305	0	32800	32838	
4306	0	32844	32817	
4307	0	32760	32741	
4308	0	32792	32732	
4309	0	32808	32775	
4310	0	32838	32810	
4311	0	32820	32808	
4312	0	32862	32759	
4313	0	32854	32790	
4314	0	32740	32832	
4315	0	32812	32743	
4316	0	32828	32836	
4317	0	32854	32644	
4318	0	32820	32647	
4319	0	32840	32839	
4320	0	32785	32765	
4321	0	32832	32788	
4322	0	32756	32736	
4323	0	32868	32770	
4324	0	32781	32770	
4325	0	32786	32804	
4326	0	32712	32810	
4327	0	32782	32727	
4328	0	32796	32723	
4329	0	32816	32824	
4330	0	32828	32868	
4331	0	32814	32872	
4332	0	32782	32812	
4333	0	32812	32636	
4334	0	32780	32842	
4335	0	32858	32764	
4336	0	32812	32775	
4337	0	32836	32692	
4338	0	32828	32668	
4339	0	32916	32812	
4340	0	32788	32808	
4341	0	32808	32775	
4342	0	32840	32656	
4343	0	32814	32775	
4344	0	32840	32817	
4345	0	32768	32775	
4346	0	32784	32732	
4347	0	32776	32842	
4348	0	32832	32770	
4349	0	32775	32734	
4350	0	32740	32804	
4351	0	32816	32687	
4352	0	32788	32832	
4353	0	32740	32828	
4354	0	32828	32815	
4355	0	32806	32750	
4356	0	32778	32698	
4357	0	32816	32834	
4358	0	32840	32846	
4359	0	32828	32824	
4360	0	32844	32775	
4361	0	32830	32702	
4362	0	32868	32775	
4363	0	32864	32830	
4364	0	32764	32688	
4365	0	32832	32678	
4366	0	32826	32801	
4367	0	32788	32775	
4368	0	32830	32799	
4369	0	32836	32690	
4370	0	32810	32814	
4371	0	32836	32775	
4372	0	32832	32766	
4373	0	32816	32727	
4374	0	32764	32679	
4375	0	32848	32839	
4376	0	32824	32748	
4377	0	32816	32745	
4378	0	32836	32766	
4379	0	32892	32646	
4380	0	32830	32878	
4381	0	32746	32775	
4382	0	32744	32820	
4383	0	32792	32738	
4384	0	32748	32748	
4385	0	32816	32894	
4386	0	32826	32774	
4387	0	32804	32728	
4388	0	32762	32817	
4389	0	32836	32676	
4390	0	32852	32773	
4391	0	32828	32838	
4392	0	32732	32774	
4393	0	32818	32790	
4394	0	32852	32796	
4395	0	32848	32718	
4396	0	32832	32732	
4397	0	32820	32714	
4398	0	32740	32790	
4399	0	32806	32741	
4400	0	32792	32740	
4401	0	32814	32668	
4402	0	32820	32764	
4403	0	32828	32742	
4404	0	32858	32794	
4405	0	32784	32832	
4406	0	32852	32806	
4407	0	32760	32740	
4408	0	32836	32752	
4409	0	32756	32705	
4410	0	32786	32854	
4411	0	32880	32802	
4412	0	32848	32836	
4413	0	32768	32743	
4414	0	32812	32775	
4415	0	32840	32726	
4416	0	32804	32673	
4417	0	32820	32699	
4418	0	32714	32740	
4419	0	32790	32794	
4420	0	32768	32840	
4421	0	32800	32710	
4422	0	32842	32768	
4423	0	32780	32724	
4424	0	32824	32818	
4425	0	32816	32908	
4426	0	32768	32692	
4427	0	32824	32730	
4428	0	32904	32801	
4429	0	32814	32775	
4430	0	32864	32812	
4431	0	32810	32798	
4432	0	32764	32814	
4433	0	32832	32794	
4434	0	32794	32647	
4435	0	32840	32654	
4436	0	32832	32798	
4437	0	32816	32768	
4438	0	32800	32772	
4439	0	32810	32788	
4440	0	32788	32752	
4441	0	32812	32698	
4442	0	32796	32698	
4443	0	32892	32752	
4444	0	32808	32768	
4445	0	32792	32709	
4446	0	32784	32806	
4447	0	32744	32762	
4448	0	32772	32663	
4449	0	32784	32775	
4450	0	32764	32775	
4451	0	32864	32678	
4452	0	32812	32815	
4453	0	32760	32834	
4454	0	32814	32888	
4455	0	32756	32824	
4456	0	32788	32698	
4457	0	32778	32871	
4458	0	32788	32748	
4459	0	32754	32736	
4460	0	32816	32743	
4461	0	32880	32836	
4462	0	32794	32791	
4463	0	32844	32823	
4464	0	32786	32795	
4465	0	32828	32738	
4466	0	32860	32804	
4467	0	32828	32746	
4468	0	32812	32704	
4469	0	32788	32727	
4470	0	32840	32839	
4471	0	32864	32766	
4472	0	32841	32692	
4473	0	32728	32694	
4474	0	32816	32740	
4475	0	32772	32762	
4476	0	32834	32754	
4477	0	32768	32666	
4478	0	32796	32852	
4479	0	32788	32775	
4480	0	32824	32719	
4481	0	32838	32756	
4482	0	32824	32840	
4483	0	32834	32824	
4484	0	32796	32818	
4485	0	32782	32640	
4486	0	32800	32854	
4487	0	32862	32828	
4488	0	32828	32828	
4489	0	32792	32734	
4490	0	32754	32771	
4491	0	32812	32736	
4492	0	32789	32766	
4493	0	32868	32719	
4494	0	32814	32856	
4495	0	32812	32769	
4496	0	32850	32740	
4497	0	32804	32736	
4498	0	32764	32876	
4499	0	32832	32842	
4500	0	32830	32846	
4501	0	32799	32760	
4502	0	32812	32668	
4503	0	32800	32692	
4504	0	32772	32668	
4505	0	32864	32842	
4506	0	32912	32812	
4507	0	32788	32804	
4508	0	32808	32704	
4509	0	32740	32871	
4510	0	32830	32816	
4511	0	32752	32768	
4512	0	32788	32726	
4513	0	32802	32798	
4514	0	32802	32846	
4515	0	32790	32660	
4516	0	32836	32856	
4517	0	32812	32748	
4518	0	32804	32804	
4519	0	32908	32744	
4520	0	32832	32820	
4521	0	32764	32748	
4522	0	32784	32724	
4523	0	32754	32772	
4524	0	32828	32744	
4525	0	32874	32800	
4526	0	32820	32668	
4527	0	32780	32775	
4528	0	32804	32804	
4529	0	32808	32714	
4530	0	32840	32894	
4531	0	32830	32794	
4532	0	32720	32838	
4533	0	32864	32705	
4534	0	32744	32711	
4535	0	32804	32762	
4536	0	32844	32807	
4537	0	32824	32734	
4538	0	32858	32753	
4539	0	32800	32714	
4540	0	32820	32772	
4541	0	32852	32740	
4542	0	32822	32775	
4543	0	32856	32775	
4544	0	32808	32804	
4545	0	32836	32734	
4546	0	32808	32794	
4547	0	32804	32735	
4548	0	32836	32711	
4549	0	32778	32751	
4550	0	32772	32796	
4551	0	32816	32814	
4552	0	32772	32742	
4553	0	32761	32706	
4554	0	32812	32767	
4555	0	32770	32725	
4556	0	32876	32822	
4557	0	32822	32716	
4558	0	32788	32750	
4559	0	32820	32736	
4560	0	32800	32807	
4561	0	32792	32758	
4562	0	32852	32702	
4563	0	32828	32738	
4564	0	32810	32743	
4565	0	32828	32734	
4566	0	32784	32889	
4567	0	32834	32804	
4568	0	32810	32744	
4569	0	32804	32869	
4570	0	32836	32796	
4571	0	32809	32775	
4572	0	32809	32770	
4573	0	32796	32761	
4574	0	32790	32774	
4575	0	32820	32845	
4576	0	32810	32708	
4577	0	32780	32692	
4578	0	32804	32775	
4579	0	32800	32792	
4580	0	32788	32643	
4581	0	32840	32798	
4582	0	32828	32786	
4583	0	32846	32847	
4584	0	32776	32690	
4585	0	32772	32810	
4586	0	32834	32700	
4587	0	32766	32820	
4588	0	32820	32700	
4589	0	32820	32711	
4590	0	32813	32711	
4591	0	32836	32849	
4592	0	32708	32722	
4593	0	32842	32812	
4594	0	32756	32722	
4595	0	32808	32694	
4596	0	32800	32886	
4597	0	32738	32790	
4598	0	32824	32823	
4599	0	32810	32775	
4600	0	32804	32744	
4601	0	32762	32742	
4602	0	32772	32836	
4603	0	32806	32818	
4604	0	32810	32760	
4605	0	32810	32816	
4606	0	32748	32753	
4607	0	32764	32737	
4608	0	32802	32748	
4609	0	32772	32636	
4610	0	32860	32775	
4611	0	32836	32654	
4612	0	32788	32721	
4613	0	32824	32830	
4614	0	32809	32789	
4615	0	32806	32876	
4616	0	32808	32839	
4617	0	32884	32914	
4618	0	32876	32812	
4619	0	32836	32757	
4620	0	32816	32830	
4621	0	32828	32788	
4622	0	32756	32775	
4623	0	32742	32774	
4624	0	32762	32679	
4625	0	32848	32725	
4626	0	32804	32800	
4627	0	32752	32744	
4628	0	32748	32734	
4629	0	32800	32704	
4630	0	32836	32727	
4631	0	32800	32740	
4632	0	32808	32748	
4633	0	32828	32710	
4634	0	32828	32704	
4635	0	32820	32608	
4636	0	32816	32774	
4637	0	32884	32686	
4638	0	32756	32698	
4639	0	32788	32756	
4640	0	32812	32836	
4641	0	32884	32759	
4642	0	32866	32775	
4643	0	32808	32738	
4644	0	32920	32823	
4645	0	32852	32811	
4646	0	32844	32743	
4647	0	32804	32674	
4648	0	32718	32724	
4649	0	32800	32775	
4650	0	32788	32861	
4651	0	32812	32806	
4652	0	32788	32728	
4653	0	32816	32690	
4654	0	32788	32916	
4655	0	32804	32738	
4656	0	32858	32726	
4657	0	32824	32694	
4658	0	32772	32692	
4659	0	32820	32702	
4660	0	32860	32716	
4661	0	32788	32723	
4662	0	32830	32762	
4663	0	32872	32785	
4664	0	32888	32839	
4665	0	32842	32748	
4666	0	32852	32824	
4667	0	32804	32836	
4668	0	32792	32767	
4669	0	32860	32756	
4670	0	32798	32716	
4671	0	32816	32760	
4672	0	32773	32804	
4673	0	32682	32720	
4674	0	32788	32720	
4675	0	32860	32711	
4676	0	32741	32846	
4677	0	32712	32751	
4678	0	32696	32655	
4679	0	32724	32710	
4680	0	32752	32688	
4681	0	32658	32632	
4682	0	32698	32672	
4683	0	32740	32615	
4684	0	32756	32696	
4685	0	32700	32712	
4686	0	32764	32824	
4687	0	32756	32726	
4688	0	32776	32646	
4689	0	32714	32798	
4690	0	32796	32768	
4691	0	32682	32788	
4692	0	32768	32589	
4693	0	32796	32804	
4694	0	32732	32770	
4695	0	32712	32772	
4696	0	32756	32769	
4697	0	32720	32708	
4698	0	32740	32775	
4699	0	32764	32756	
4700	0	32792	32804	
4701	0	32882	32792	
4702	0	33040	33002	
4703	0	33136	33048	
4704	0	33124	33159	
4705	0	33194	33148	
4706	0	33256	33047	
4707	0	33228	33092	
4708	0	33120	32894	
4709	0	33056	32956	
4710	0	33074	32744	
4711	0	33024	32714	
4712	0	33024	32834	
4713	0	32920	32762	
4714	0	32956	32844	
4715	0	32848	32804	
4716	0	32762	32696	
4717	0	32752	32852	
4718	0	32744	32706	
4719	0	32708	32766	
4720	0	32668	32577	
4721	0	32784	32742	
4722	0	32680	32596	
4723	0	32664	32764	
4724	0	32660	32534	
4725	0	32666	32682	
4726	0	32696	32637	
4727	0	32684	32774	
4728	0	32724	32596	
4729	0	32712	32635	
4730	0	32718	32735	
4731	0	32764	32706	
4732	0	32800	32676	
4733	0	32724	32696	
4734	0	32792	32764	
4735	0	32824	32839	
4736	0	32796	32655	
4737	0	32834	32839	
4738	0	32816	32838	
4739	0	32824	32742	
4740	0	32756	32862	
4741	0	32834	32809	
4742	0	32810	32788	
4743	0	32808	32707	
4744	0	32822	32695	
4745	0	32840	32756	
4746	0	32868	32714	
4747	0	32775	32696	
4748	0	32828	32847	
4749	0	32810	32828	
4750	0	32810	32868	
4751	0	32786	32689	
4752	0	32878	32706	
4753	0	32812	32774	
4754	0	32852	32804	
4755	0	32802	32710	
4756	0	32764	32732	
4757	0	32832	32750	
4758	0	32840	32747	
4759	0	32768	32676	
4760	0	32816	32646	
4761	0	32772	32743	
4762	0	32784	32816	
4763	0	32762	32762	
4764	0	32812	32822	
4765	0	32788	32678	
4766	0	32824	32710	
4767	0	32834	32816	
4768	0	32840	32708	
4769	0	32816	32682	
4770	0	32804	32592	
4771	0	32788	32716	
4772	0	32808	32788	
4773	0	32740	32868	
4774	0	32796	32884	
4775	0	32840	32758	
4776	0	32792	32949	
4777	0	32810	32772	
4778	0	32864	32864	
4779	0	32816	32736	
4780	0	32834	32754	
4781	0	32832	32834	
4782	0	32796	32726	
4783	0	32845	32838	
4784	0	32804	32756	
4785	0	32860	32796	
4786	0	32784	32754	
4787	0	32826	32724	
4788	0	32816	32668	
4789	0	32746	32743	
4790	0	32800	32732	
4791	0	32834	32824	
4792	0	32734	32760	
4793	0	32798	32719	
4794	0	32820	32775	
4795	0	32848	32718	
4796	0	32784	32839	
4797	0	32856	32740	
4798	0	32884	32714	
4799	0	32746	32750	
4800	0	32780	32740	
4801	0	32912	32694	
4802	0	32786	32828	
4803	0	32816	32724	
4804	0	32784	32783	
4805	0	32796	32794	
4806	0	32816	32660	
4807	0	32800	32727	
4808	0	32876	32790	
4809	0	32784	32782	
4810	0	32752	32807	
4811	0	32764	32706	
4812	0	32826	32727	
4813	0	32784	32855	
4814	0	32698	32852	
4815	0	32760	32789	
4816	0	32837	32714	
4817	0	32828	32839	
4818	0	32764	32724	
4819	0	32820	32775	
4820	0	32784	32772	
4821	0	32844	32698	
4822	0	32824	32820	
4823	0	32752	32790	
4824	0	32788	32775	
4825	0	32856	32814	
4826	0	32756	32748	
4827	0	32820	32708	
4828	0	32832	32711	
4829	0	32820	32900	
4830	0	32812	32797	
4831	0	32762	32716	
4832	0	32816	32794	
4833	0	32860	32788	
4834	0	32834	32755	
4835	0	32824	32721	
4836	0	32804	32790	
4837	0	32832	32668	
4838	0	32842	32764	
4839	0	32856	32775	
4840	0	32770	32808	
4841	0	32866	32705	
4842	0	32820	32698	
4843	0	32834	32742	
4844	0	32848	32816	
4845	0	32822	32736	
4846	0	32800	32902	
4847	0	32714	32758	
4848	0	32796	32758	
4849	0	32764	32647	
4850	0	32792	32774	
4851	0	32736	32714	
4852	0	32768	32794	
4853	0	32798	32790	
4854	0	32796	32740	
4855	0	32804	32751	
4856	0	32848	32807	
4857	0	32808	32775	
4858	0	32820	32775	
4859	0	32759	32764	
4860	0	32836	32728	
4861	0	32788	32820	
4862	0	32872	32734	
4863	0	32753	32862	
4864	0	32842	32668	
4865	0	32816	32687	
4866	0	32892	32785	
4867	0	32818	32736	
4868	0	32852	32798	
4869	0	32820	32828	
4870	0	32836	32678	
4871	0	32810	32743	
4872	0	32756	32758	
4873	0	32804	32841	
4874	0	32840	32730	
4875	0	32806	32812	
4876	0	32780	32760	
4877	0	32900	32856	
4878	0	32812	32676	
4879	0	32730	32759	
4880	0	32812	32775	
4881	0	32748	32769	
4882	0	32822	32768	
4883	0	32806	32674	
4884	0	32784	32708	
4885	0	32788	32839	
4886	0	32828	32742	
4887	0	32810	32775	
4888	0	32834	32662	
4889	0	32802	32830	
4890	0	32846	32692	
4891	0	32772	32762	
4892	0	32868	32668	
4893	0	32772	32829	
4894	0	32836	32756	
4895	0	32806	32721	
4896	0	32732	32789	
4897	0	32808	32714	
4898	0	32844	32806	
4899	0	32830	32828	
4900	0	32756	32915	
4901	0	32768	32870	
4902	0	32784	32797	
4903	0	32735	32810	
4904	0	32800	32794	
4905	0	32836	32788	
4906	0	32738	32762	
4907	0	32888	32708	
4908	0	32832	32759	
4909	0	32832	32839	
4910	0	32772	32764	
4911	0	32784	32769	
4912	0	32816	32666	
4913	0	32774	32632	
4914	0	32840	32812	
4915	0	32838	32766	
4916	0	32852	32875	
4917	0	32846	32718	
4918	0	32820	32764	
4919	0	32832	32806	
4920	0	32838	32711	
4921	0	32798	32838	
4922	0	32812	32694	
4923	0	32756	32753	
4924	0	32788	32746	
4925	0	32860	32800	
4926	0	32848	32744	
4927	0	32798	32742	
4928	0	32804	32839	
4929	0	32865	32799	
4930	0	32844	32850	
4931	0	32848	32692	
4932	0	32821	32727	
4933	0	32854	32796	
4934	0	32800	32775	
4935	0	32788	32630	
4936	0	32916	32730	
4937	0	32784	32757	
4938	0	32812	32701	
4939	0	32852	32811	
4940	0	32784	32630	
4941	0	32724	32726	
4942	0	32742	32820	
4943	0	32782	32860	
4944	0	32828	32796	
4945	0	32728	32664	
4946	0	32754	32704	
4947	0	32828	32742	
4948	0	32781	32808	
4949	0	32774	32846	
4950	0	32792	32742	
4951	0	32784	32755	
4952	0	32772	32791	
4953	0	32894	32772	
4954	0	32844	32790	
4955	0	32812	32790	
4956	0	32864	32756	
4957	0	32868	32804	
4958	0	32780	32740	
4959	0	32792	32772	
4960	0	32720	32668	
4961	0	32804	32718	
4962	0	32784	32816	
4963	0	32824	32775	
4964	0	32816	32855	
4965	0	32874	32724	
4966	0	32822	32866	
4967	0	32810	32754	
4968	0	32828	32822	
4969	0	32814	32618	
4970	0	32760	32732	
4971	0	32856	32693	
4972	0	32796	32751	
4973	0	32760	32674	
4974	0	32844	32734	
4975	0	32824	32814	
4976	0	32826	32760	
4977	0	32800	32775	
4978	0	32838	32712	
4979	0	32808	32748	
4980	0	32740	32757	
4981	0	32842	32775	
4982	0	32812	32742	
4983	0	32876	32853	
4984	0	32742	32761	
4985	0	32788	32723	
4986	0	32812	32670	
4987	0	32794	32769	
4988	0	32796	32742	
4989	0	32744	32794	
4990	0	32798	32728	
4991	0	32823	32871	
4992	0	32848	32828	
4993	0	32788	32766	
4994	0	32780	32692	
4995	0	32728	32846	
4996	0	32792	32839	
4997	0	32842	32884	
4998	0	32732	32820	
4999	0	32732	32758	
5000	0	32738	32808	
5001	0	32788	32775	
5002	0	32920	32686	
5003	0	32868	32615	
5004	0	32792	32727	
5005	0	32756	32679	
5006	0	32774	32638	
5007	0	32746	32657	
5008	0	32704	32708	
5009	0	32736	32719	
5010	0	32744	32812	
5011	0	32740	32839	
5012	0	32797	32890	
5013	0	32784	32762	
5014	0	32802	32714	
5015	0	32868	32826	
5016	0	32920	32856	
5017	0	32924	32935	
5018	0	32918	32846	
5019	0	32920	32692	
5020	0	32928	32828	
5021	0	32776	32948	
5022	0	32734	32775	
5023	0	32768	32720	
5024	0	32764	32614	
5025	0	32708	32473	
5026	0	32840	32676	
5027	0	33056	32718	
5028	0	33031	32510	
5029	0	33072	32641	
5030	0	32884	32827	
5031	0	32880	32785	
5032	0	32844	32795	
5033	0	32762	32902	
5034	0	32740	33042	
5035	0	32740	32970	
5036	0	32748	32908	
5037	0	32900	32887	
5038	0	32870	32801	
5039	0	32950	32848	
5040	0	32824	32836	
5041	0	32744	32774	
5042	0	32804	32732	
5043	0	32790	32478	
5044	0	32762	32734	
5045	0	32728	32738	
5046	0	32734	32506	
5047	0	32704	32528	
5048	0	32794	32943	
5049	0	32726	32890	
5050	0	32736	32882	
5051	0	32778	32808	
5052	0	32732	32647	
5053	0	32796	32706	
5054	0	32784	32807	
5055	0	32800	32810	
5056	0	32848	32802	
5057	0	32866	32679	
5058	0	32856	32744	
5059	0	32876	32820	
5060	0	32844	32849	
5061	0	32830	32792	
5062	0	32868	32804	
5063	0	32810	32764	
5064	0	32748	32770	
5065	0	32854	32711	
5066	0	32804	32826	
5067	0	32864	32838	
5068	0	32754	32775	
5069	0	32786	32772	
5070	0	32824	32647	
5071	0	32802	32880	
5072	0	32838	32644	
5073	0	32828	32695	
5074	0	32840	32758	
5075	0	32888	32730	
5076	0	32854	32697	
5077	0	32820	32843	
5078	0	32864	32804	
5079	0	32832	32788	
5080	0	32768	32662	
5081	0	32824	32743	
5082	0	32792	32806	
5083	0	32742	32756	
5084	0	32752	32675	
5085	0	32792	32718	
5086	0	32854	32836	
5087	0	32812	32772	
5088	0	32812	32827	
5089	0	32808	32626	
5090	0	32764	32822	
5091	0	32772	32878	
5092	0	32782	32886	
5093	0	32800	32673	
5094	0	32788	32664	
5095	0	32846	32844	
5096	0	32788	32800	
5097	0	32804	32956	
5098	0	32694	32771	
5099	0	32824	32720	
5100	0	32760	32818	
5101	0	32796	32759	
5102	0	32789	32694	
5103	0	32744	32740	
5104	0	32814	32735	
5105	0	32784	32740	
5106	0	32888	32684	
5107	0	32868	32748	
5108	0	32766	32772	
5109	0	32776	32722	
5110	0	32872	32775	
5111	0	32860	32807	
5112	0	32876	32788	
5113	0	32884	32814	
5114	0	32824	32897	
5115	0	32832	32928	
5116	0	32824	32878	
5117	0	32844	32784	
5118	0	32758	32823	
5119	0	32840	32876	
5120	0	32796	32710	
5121	0	32784	32656	
5122	0	32752	32844	
5123	0	32824	32802	
5124	0	32756	32770	
5125	0	32828	32707	
5126	0	32852	32722	
5127	0	32828	32833	
5128	0	32814	32714	
5129	0	32864	32692	
5130	0	32840	32668	
5131	0	32820	32727	
5132	0	32884	32708	
5133	0	32816	32674	
5134	0	32800	32838	
5135	0	32782	32736	
5136	0	32768	32844	
5137	0	32794	32718	
5138	0	32824	32862	
5139	0	32746	32858	
5140	0	32818	32862	
5141	0	32776	32823	
5142	0	32709	32772	
5143	0	32752	32692	
5144	0	32804	32677	
5145	0	32848	32748	
5146	0	32828	32716	
5147	0	32744	32775	
5148	0	32834	32820	
5149	0	32816	32860	
5150	0	32754	32884	
5151	0	32798	32903	
5152	0	32684	32750	
5153	0	32794	32716	
5154	0	32889	32583	
5155	0	32874	32615	
5156	0	32864	32650	
5157	0	32880	32759	
5158	0	32850	32588	
5159	0	32844	32798	
5160	0	32796	32742	
5161	0	32820	32656	
5162	0	32917	32826	
5163	0	32892	32757	
5164	0	32900	32862	
5165	0	32932	32726	
5166	0	33048	32689	
5167	0	33026	32775	
5168	0	32792	32764	
5169	0	32816	32700	
5170	0	32650	32666	
5171	0	32581	32716	
5172	0	32546	33018	
5173	0	32594	32966	
5174	0	32604	32992	
5175	0	32592	32978	
5176	0	32638	32775	
5177	0	32700	32682	
5178	0	32672	32663	
5179	0	32840	32732	
5180	0	32820	32908	
5181	0	32865	32744	
5182	0	32884	32705	
5183	0	32924	32792	
5184	0	32908	32743	
5185	0	32970	32834	
5186	0	33002	32796	
5187	0	33012	32847	
5188	0	33012	32942	
5189	0	32966	32976	
5190	0	32965	32916	
5191	0	32884	32709	
5192	0	32854	32774	
5193	0	32793	32812	
5194	0	32756	32775	
5195	0	32676	32678	
5196	0	32718	32748	
5197	0	32704	32742	
5198	0	32684	32668	
5199	0	32678	32566	
5200	0	32660	32676	
5201	0	32640	32674	
5202	0	32688	32710	
5203	0	32650	32820	
5204	0	32732	32732	
5205	0	32604	32818	
5206	0	32714	32801	
5207	0	32844	32784	
5208	0	32784	32838	
5209	0	32908	32636	
5210	0	32916	32624	
5211	0	32892	32798	
5212	0	32912	32848	
5213	0	32896	32864	
5214	0	33028	32839	
5215	0	33008	32608	
5216	0	32868	32668	
5217	0	32654	32839	
5218	0	32728	32733	
5219	0	32720	32805	
5220	0	32729	32694	
5221	0	32744	32751	
5222	0	32712	32711	
5223	0	32708	32706	
5224	0	32596	32666	
5225	0	32672	32652	
5226	0	32795	32814	
5227	0	32830	32775	
5228	0	32884	32854	
5229	0	32900	32714	
5230	0	32916	32750	
5231	0	32866	32764	
5232	0	32820	32775	
5233	0	32804	32772	
5234	0	32910	32730	
5235	0	32792	32628	
5236	0	32754	32420	
5237	0	32768	32412	
5238	0	32816	32465	
5239	0	32912	32514	
5240	0	33014	32766	
5241	0	32992	32964	
5242	0	32896	32990	
5243	0	32836	32996	
5244	0	32904	32923	
5245	0	32856	32932	
5246	0	32820	32878	
5247	0	32724	33026	
5248	0	32784	32986	
5249	0	32666	33031	
5250	0	32708	32845	
5251	0	32632	32876	
5252	0	32680	32924	
5253	0	32716	32828	
5254	0	32756	32686	
5255	0	32800	32802	
5256	0	32782	32716	
5257	0	32834	32896	
5258	0	33004	32784	
5259	0	32856	32750	
5260	0	32964	32728	
5261	0	32912	32606	
5262	0	32871	32782	
5263	0	32798	32836	
5264	0	32784	32724	
5265	0	32852	32700	
5266	0	32760	32702	
5267	0	32786	32728	
5268	0	32684	32694	
5269	0	32740	32769	
5270	0	32688	32512	
5271	0	32752	32496	
5272	0	32772	32446	
5273	0	32804	32470	
5274	0	32804	32206	
5275	0	32900	32354	
5276	0	32862	32629	
5277	0	32890	32943	
5278	0	32941	32784	
5279	0	32960	32796	
5280	0	32908	32849	
5281	0	32825	32711	
5282	0	32700	32743	
5283	0	32756	32708	
5284	0	32812	32946	
5285	0	32722	33116	
5286	0	32752	33140	
5287	0	32734	33287	
5288	0	32823	33076	
5289	0	32742	33120	
5290	0	32844	33108	
5291	0	32754	33086	
5292	0	32804	33030	
5293	0	32780	32884	
5294	0	32800	32940	
5295	0	32834	32992	
5296	0	32764	32834	
5297	0	32824	32663	
5298	0	32768	32626	
5299	0	32814	32604	
5300	0	32756	32663	
5301	0	32852	32479	
5302	0	32840	32650	
5303	0	32824	32633	
5304	0	32880	32623	
5305	0	32800	32474	
5306	0	32832	32689	
5307	0	32796	32518	
5308	0	32800	32639	
5309	0	32890	32358	
5310	0	32830	32348	
5311	0	32860	32526	
5312	0	32792	32662	
5313	0	32836	32748	
5314	0	32864	32812	
5315	0	32822	32929	
5316	0	32822	32960	
5317	0	32792	32846	
5318	0	32804	33042	
5319	0	32810	33012	
5320	0	32896	33076	
5321	0	32854	32854	
5322	0	32824	32988	
5323	0	32816	32911	
5324	0	32740	32858	
5325	0	32750	32663	
5326	0	32748	32662	
5327	0	32860	32640	
5328	0	32880	32636	
5329	0	32852	32679	
5330	0	32948	32630	
5331	0	32832	32631	
5332	0	32740	32846	
5333	0	32624	32790	
5334	0	32684	32808	
5335	0	32708	32671	
5336	0	32676	32724	
5337	0	32704	32730	
5338	0	32836	32856	
5339	0	32856	32725	
5340	0	32862	32751	
5341	0	32860	32798	
5342	0	32841	32775	
5343	0	32808	32960	
5344	0	32808	32838	
5345	0	32792	32775	
5346	0	32886	32804	
5347	0	32840	32763	
5348	0	32849	32733	
5349	0	32812	32713	
5350	0	32836	32846	
5351	0	32900	32772	
5352	0	32862	32702	
5353	0	32834	32808	
5354	0	32868	32674	
5355	0	32918	32636	
5356	0	32940	32690	
5357	0	32870	32678	
5358	0	32792	32672	
5359	0	32780	32650	
5360	0	32688	32768	
5361	0	32676	32862	
5362	0	32594	32932	
5363	0	32576	32857	
5364	0	32660	32936	
5365	0	32640	32872	
5366	0	32698	32820	
5367	0	32796	32655	
5368	0	32884	32710	
5369	0	32918	32645	
5370	0	33012	32731	
5371	0	32944	32626	
5372	0	32936	32535	
5373	0	32916	32721	
5374	0	32836	32668	
5375	0	32852	32818	
5376	0	32798	32682	
5377	0	32816	32623	
5378	0	32812	32722	
5379	0	32748	32774	
5380	0	32752	32815	
5381	0	32692	32806	
5382	0	32772	32902	
5383	0	32732	32852	
5384	0	32698	32898	
5385	0	32700	32804	
5386	0	32833	32948	
5387	0	32852	33052	
5388	0	32904	32954	
5389	0	32916	32962	
5390	0	32788	32839	
5391	0	32856	32753	
5392	0	32844	32886	
5393	0	32770	32700	
5394	0	32796	32854	
5395	0	32780	32753	
5396	0	32740	32581	
5397	0	32804	32588	
5398	0	32748	32732	
5399	0	32884	32708	
5400	0	32936	32804	
5401	0	32906	32660	
5402	0	32876	32656	
5403	0	32796	32774	
5404	0	32780	32823	
5405	0	32816	32682	
5406	0	32834	32644	
5407	0	32836	32802	
5408	0	32916	32870	
5409	0	32948	32878	
5410	0	32888	32686	
5411	0	32889	32716	
5412	0	32798	32804	
5413	0	32760	32775	
5414	0	32732	32775	
5415	0	32682	32670	
5416	0	32772	32663	
5417	0	32700	32644	
5418	0	32680	32751	
5419	0	32648	32643	
5420	0	32678	32680	
5421	0	32744	32756	
5422	0	32736	32618	
5423	0	32736	32626	
5424	0	32788	32692	
5425	0	32748	32678	
5426	0	32732	32660	
5427	0	32728	32692	
5428	0	32728	32615	
5429	0	32689	32614	
5430	0	32652	32748	
5431	0	32692	32680	
5432	0	32748	32798	
5433	0	32768	32726	
5434	0	32812	32794	
5435	0	32748	32716	
5436	0	32822	32614	
5437	0	32856	32610	
5438	0	32932	32511	
5439	0	32881	32363	
5440	0	32822	32519	
5441	0	32900	32664	
5442	0	32866	32756	
5443	0	32944	32916	
5444	0	33012	33202	
5445	0	33180	33220	
5446	0	33172	33318	
5447	0	33180	33522	
5448	0	33212	33440	
5449	0	33077	33270	
5450	0	32984	33368	
5451	0	33088	33271	
5452	0	33101	33159	
5453	0	33196	33192	
5454	0	33200	33060	
5455	0	33102	32868	
5456	0	33012	32842	
5457	0	32880	32679	
5458	0	32612	32623	
5459	0	32532	32635	
5460	0	32436	32484	
5461	0	32376	32568	
5462	0	32508	32519	
5463	0	32472	32458	
5464	0	32501	32464	
5465	0	32668	32644	
5466	0	32708	32528	
5467	0	32784	32560	
5468	0	32742	32535	
5469	0	32708	32465	
5470	0	32704	32478	
5471	0	32784	32550	
5472	0	32948	32615	
5473	0	32769	32756	
5474	0	32810	32772	
5475	0	32704	32697	
5476	0	32706	32687	
5477	0	32628	32838	
5478	0	32592	32806	
5479	0	32652	32984	
5480	0	32774	32902	
5481	0	32884	32784	
5482	0	32860	32775	
5483	0	32870	32863	
5484	0	32832	32830	
5485	0	32996	32820	
5486	0	32920	32772	
5487	0	32968	32623	
5488	0	33084	32660	
5489	0	33072	32612	
5490	0	32904	32590	
5491	0	32900	32703	
5492	0	32802	32830	
5493	0	32772	32766	
5494	0	32636	32880	
5495	0	32596	32834	
5496	0	32644	32678	
5497	0	32674	32881	
5498	0	32840	32828	
5499	0	32784	32804	
5500	0	32760	32715	
5501	0	32822	32700	
5502	0	32758	32687	
5503	0	32774	32668	
5504	0	32868	32803	
5505	0	32864	32742	
5506	0	32794	32856	
5507	0	32764	32860	
5508	0	32748	32820	
5509	0	32706	32850	
5510	0	32784	32836	
5511	0	32692	32710	
5512	0	32726	32793	
5513	0	32856	32826	
5514	0	32912	32932	
5515	0	32932	32842	
5516	0	32986	32615	
5517	0	33020	32546	
5518	0	32980	32586	
5519	0	32934	32458	
5520	0	32996	32410	
5521	0	32880	32398	
5522	0	32780	32692	
5523	0	32876	32660	
5524	0	32816	32770	
5525	0	32844	32734	
5526	0	32760	32882	
5527	0	32704	33066	
5528	0	32704	33082	
5529	0	32656	32964	
5530	0	32720	32934	
5531	0	32676	33012	
5532	0	32552	32883	
5533	0	32600	32967	
5534	0	32696	32914	
5535	0	32802	32924	
5536	0	32826	32822	
5537	0	32893	32791	
5538	0	32932	32762	
5539	0	32964	32775	
5540	0	33064	32807	
5541	0	32944	32682	
5542	0	32910	32604	
5543	0	32876	32436	
5544	0	32820	32406	
5545	0	32772	32492	
5546	0	32752	32600	
5547	0	32782	32794	
5548	0	32764	32820	
5549	0	32728	32952	
5550	0	32775	33058	
5551	0	32684	32956	
5552	0	32742	33024	
5553	0	32722	33108	
5554	0	32678	33054	
5555	0	32761	32967	
5556	0	32754	32772	
5557	0	32852	32663	
5558	0	32832	32732	
5559	0	32866	32596	
5560	0	32856	32678	
5561	0	32868	32592	
5562	0	32812	32638	
5563	0	32862	32636	
5564	0	32736	32676	
5565	0	32862	32654	
5566	0	32804	32631	
5567	0	32816	32674	
5568	0	32820	32554	
5569	0	32808	32414	
5570	0	32832	32500	
5571	0	32892	32324	
5572	0	32788	32343	
5573	0	32804	32486	
5574	0	32922	32652	
5575	0	32864	32806	
5576	0	32836	32911	
5577	0	32836	33052	
5578	0	32784	33068	
5579	0	32716	32960	
5580	0	32746	33040	
5581	0	32664	33287	
5582	0	32740	33262	
5583	0	32740	33134	
5584	0	32776	33028	
5585	0	32692	32932	
5586	0	32868	32802	
5587	0	33025	32742	
5588	0	32916	32784	
5589	0	32912	32684	
5590	0	32984	32698	
5591	0	32996	32716	
5592	0	32984	32692	
5593	0	32944	32628	
5594	0	32896	32554	
5595	0	32900	32588	
5596	0	32798	32647	
5597	0	32692	32627	
5598	0	32576	32715	
5599	0	32526	32775	
5600	0	32520	32574	
5601	0	32612	32572	
5602	0	32524	32604	
5603	0	32532	32592	
5604	0	32636	32710	
5605	0	32656	32849	
5606	0	32740	32839	
5607	0	32724	32684	
5608	0	32720	32790	
5609	0	32832	32656	
5610	0	32892	32602	
5611	0	32918	32647	
5612	0	32992	32735	
5613	0	33000	32764	
5614	0	32916	32692	
5615	0	33004	32664	
5616	0	32960	32808	
5617	0	32934	32839	
5618	0	32906	32862	
5619	0	32972	32944	
5620	0	32856	32946	
5621	0	32884	33042	
5622	0	32916	33052	
5623	0	32948	32912	
5624	0	32814	33084	
5625	0	32786	33031	
5626	0	32768	32924	
5627	0	32790	32932	
5628	0	32774	32751	
5629	0	32804	32802	
5630	0	32791	32830	
5631	0	32750	32719	
5632	0	32792	32752	
5633	0	32708	32734	
5634	0	32610	32785	
5635	0	32716	32654	
5636	0	32704	32590	
5637	0	32784	32620	
5638	0	32756	32536	
5639	0	32816	32660	
5640	0	32832	32562	
5641	0	32918	32775	
5642	0	32868	32631	
5643	0	32838	32684	
5644	0	32786	32795	
5645	0	32793	32632	
5646	0	32830	32619	
5647	0	32820	32826	
5648	0	32844	32745	
5649	0	32800	32714	
5650	0	32888	32807	
5651	0	32920	32850	
5652	0	32896	32775	
5653	0	32832	32908	
5654	0	32832	32878	
5655	0	32836	32967	
5656	0	32764	32894	
5657	0	32760	32886	
5658	0	32756	32794	
5659	0	32696	32624	
5660	0	32652	32748	
5661	0	32641	32673	
5662	0	32700	32723	
5663	0	32768	32652	
5664	0	32778	32692	
5665	0	32766	32574	
5666	0	32740	32359	
5667	0	32752	32450	
5668	0	32860	32618	
5669	0	32952	32826	
5670	0	32880	32870	
5671	0	32900	33020	
5672	0	32894	33052	
5673	0	32832	33050	
5674	0	32822	33167	
5675	0	32785	33074	
5676	0	32796	33086	
5677	0	32784	33140	
5678	0	32800	33053	
5679	0	32804	33031	
5680	0	32800	32831	
5681	0	32766	32802	
5682	0	32778	32582	
5683	0	32806	32644	
5684	0	32724	32774	
5685	0	32872	32695	
5686	0	32772	32740	
5687	0	32756	32648	
5688	0	32886	32630	
5689	0	32938	32491	
5690	0	33086	32582	
5691	0	33064	32476	
5692	0	33060	32532	
5693	0	33044	32578	
5694	0	32872	32528	
5695	0	32870	32436	
5696	0	32816	32529	
5697	0	32712	32583	
5698	0	32740	32746	
5699	0	32728	32924	
5700	0	32711	32883	
5701	0	32564	32858	
5702	0	32670	32864	
5703	0	32612	32775	
5704	0	32662	32660	
5705	0	32696	32687	
5706	0	32710	32679	
5707	0	32688	32826	
5708	0	32904	32902	
5709	0	32980	32983	
5710	0	32940	32962	
5711	0	32836	32895	
5712	0	32804	32790	
5713	0	32752	33060	
5714	0	32876	32892	
5715	0	32948	32815	
5716	0	33096	32720	
5717	0	33108	32743	
5718	0	33056	32714	
5719	0	33024	32814	
5720	0	32852	32775	
5721	0	32772	32812	
5722	0	32704	32620	
5723	0	32558	32604	
5724	0	32542	32614	
5725	0	32484	32746	
5726	0	32556	32800	
5727	0	32488	32734	
5728	0	32476	32790	
5729	0	32572	32732	
5730	0	32692	32588	
5731	0	32756	32644	
5732	0	32668	32839	
5733	0	32738	32772	
5734	0	32848	32775	
5735	0	32868	32654	
5736	0	32976	32647	
5737	0	32940	32775	
5738	0	32924	32612	
5739	0	32908	32679	
5740	0	33062	32656	
5741	0	33056	32606	
5742	0	33002	32644	
5743	0	32896	32733	
5744	0	32842	32775	
5745	0	32836	32801	
5746	0	32836	32688	
5747	0	32894	32922	
5748	0	32808	32975	
5749	0	32836	32902	
5750	0	32704	32897	
5751	0	32794	32814	
5752	0	32800	32980	
5753	0	32812	32796	
5754	0	32864	32874	
5755	0	32756	32958	
5756	0	32844	32902	
5757	0	32764	32838	
5758	0	32738	32718	
5759	0	32730	32772	
5760	0	32670	32808	
5761	0	32756	32816	
5762	0	32856	32769	
5763	0	32752	32658	
5764	0	32811	32696	
5765	0	32820	32766	
5766	0	32802	32677	
5767	0	32908	32617	
5768	0	32994	32508	
5769	0	32944	32652	
5770	0	32904	32519	
5771	0	32892	32505	
5772	0	32764	32487	
5773	0	32724	32420	
5774	0	32678	32568	
5775	0	32705	32604	
5776	0	32724	32679	
5777	0	32737	32895	
5778	0	32728	32902	
5779	0	32754	32983	
5780	0	32794	32976	
5781	0	32696	33103	
5782	0	32744	33120	
5783	0	32816	33054	
5784	0	32842	33109	
5785	0	32840	33144	
5786	0	32836	32956	
5787	0	32906	32952	
5788	0	32872	32796	
5789	0	32942	32862	
5790	0	32896	32729	
5791	0	32900	32742	
5792	0	32911	32548	
5793	0	32912	32680	
5794	0	32860	32679	
5795	0	32900	32724	
5796	0	32744	32644	
5797	0	32732	32622	
5798	0	32800	32665	
5799	0	32740	32646	
5800	0	32710	32596	
5801	0	32802	32598	
5802	0	32758	32596	
5803	0	32792	32708	
5804	0	32808	32596	
5805	0	32884	32418	
5806	0	32928	32417	
5807	0	32888	32494	
5808	0	32780	32615	
5809	0	32764	32662	
5810	0	32782	32796	
5811	0	32804	33064	
5812	0	32768	33162	
5813	0	32812	33108	
5814	0	32828	33195	
5815	0	32760	33020	
5816	0	32720	32992	
5817	0	32680	32945	
5818	0	32648	32935	
5819	0	32716	32772	
5820	0	32808	32900	
5821	0	32812	32790	
5822	0	32784	32789	
5823	0	32898	32712	
5824	0	32944	32694	
5825	0	33045	32725	
5826	0	32992	32632	
5827	0	33010	32644	
5828	0	32894	32697	
5829	0	32852	32604	
5830	0	32828	32751	
5831	0	32820	32772	
5832	0	32748	32664	
5833	0	32724	32716	
5834	0	32828	32647	
5835	0	32788	32680	
5836	0	32780	32751	
5837	0	32805	32886	
5838	0	32792	32788	
5839	0	32788	32871	
5840	0	32712	32702	
5841	0	32776	32638	
5842	0	32776	32756	
5843	0	32800	32782	
5844	0	32780	32762	
5845	0	32740	32850	
5846	0	32784	32862	
5847	0	32778	32818	
5848	0	32772	32724	
5849	0	32838	32790	
5850	0	32836	32854	
5851	0	32870	32626	
5852	0	32872	32730	
5853	0	32896	32654	
5854	0	32810	32564	
5855	0	32764	32607	
5856	0	32800	32694	
5857	0	32800	32806	
5858	0	32732	32802	
5859	0	32734	32942	
5860	0	32758	32754	
5861	0	32728	32848	
5862	0	32656	32862	
5863	0	32680	32956	
5864	0	32750	32954	
5865	0	32704	32927	
5866	0	32814	32679	
5867	0	32845	32772	
5868	0	32992	32694	
5869	0	32884	32708	
5870	0	33008	32618	
5871	0	32972	32732	
5872	0	33000	32614	
5873	0	32880	32583	
5874	0	32920	32633	
5875	0	32874	32788	
5876	0	32940	32798	
5877	0	32826	32703	
5878	0	32784	32850	
5879	0	32644	33048	
5880	0	32700	32987	
5881	0	32693	32919	
5882	0	32632	32970	
5883	0	32712	32894	
5884	0	32716	32826	
5885	0	32788	32862	
5886	0	32752	32775	
5887	0	32828	32988	
5888	0	32908	32910	
5889	0	32880	32754	
5890	0	32808	32603	
5891	0	32750	32772	
5892	0	32808	32647	
5893	0	32808	32614	
5894	0	32810	32684	
5895	0	32828	32602	
5896	0	32824	32586	
5897	0	32878	32571	
5898	0	32792	32686	
5899	0	32748	32708	
5900	0	32750	32768	
5901	0	32728	32713	
5902	0	32764	32551	
5903	0	32788	32644	
5904	0	32808	32770	
5905	0	32800	32786	
5906	0	32788	32700	
5907	0	32804	32839	
5908	0	32822	32886	
5909	0	32904	32788	
5910	0	32892	32853	
5911	0	32856	32950	
5912	0	32842	32862	
5913	0	32790	32890	
5914	0	32812	32863	
5915	0	32865	32844	
5916	0	32912	32756	
5917	0	32888	32794	
5918	0	32772	32844	
5919	0	32836	32832	
5920	0	32886	32775	
5921	0	32856	32792	
5922	0	32708	32640	
5923	0	32740	32644	
5924	0	32820	32666	
5925	0	32740	32820	
5926	0	32884	32843	
5927	0	32920	32718	
5928	0	32884	32610	
5929	0	32806	32677	
5930	0	32768	32623	
5931	0	32676	32711	
5932	0	32801	32741	
5933	0	32828	32820	
5934	0	32770	32773	
5935	0	32788	32759	
5936	0	32784	32762	
5937	0	32832	32678	
5938	0	32716	32724	
5939	0	32866	32816	
5940	0	32956	32768	
5941	0	32852	32831	
5942	0	32794	32796	
5943	0	32806	32775	
5944	0	32750	32668	
5945	0	32816	32676	
5946	0	32796	32654	
5947	0	32708	32858	
5948	0	32760	32789	
5949	0	32764	32775	
5950	0	32760	32832	
5951	0	32736	32759	
5952	0	32772	32638	
5953	0	32808	32782	
5954	0	32816	32687	
5955	0	32848	32702	
5956	0	32832	32848	
5957	0	32906	32832	
5958	0	32865	32784	
5959	0	32868	32895	
5960	0	32810	32730	
5961	0	32826	32703	
5962	0	32870	32768	
5963	0	32824	32732	
5964	0	32836	32745	
5965	0	32878	32756	
5966	0	32896	32744	
5967	0	32830	32674	
5968	0	32708	32680	
5969	0	32704	32697	
5970	0	32728	32736	
5971	0	32736	32751	
5972	0	32804	32742	
5973	0	32808	32847	
5974	0	32808	32752	
5975	0	32825	32820	
5976	0	32800	32924	
5977	0	32792	32890	
5978	0	32876	32792	
5979	0	32820	32794	
5980	0	32740	32816	
5981	0	32764	32712	
5982	0	32904	32564	
5983	0	32865	32596	
5984	0	33010	32790	
5985	0	32928	32718	
5986	0	32812	32762	
5987	0	32800	32744	
5988	0	32874	32726	
5989	0	32830	32799	
5990	0	32808	32870	
5991	0	32800	32924	
5992	0	32724	32962	
5993	0	32802	32980	
5994	0	32794	32912	
5995	0	32672	32847	
5996	0	32742	32720	
5997	0	32704	32644	
5998	0	32696	32690	
5999	0	32652	32772	
6000	0	32682	32794	
6001	0	32736	32748	
6002	0	32764	32830	
6003	0	32860	32700	
6004	0	32849	32673	
6005	0	32876	32862	
6006	0	32884	32764	
6007	0	32868	32830	
6008	0	32908	32700	
6009	0	32841	32684	
6010	0	32816	32687	
6011	0	32800	32790	
6012	0	32828	32788	
