# OpenSignals Text File Format. Version 1
# {"00:07:80:8C:0A:39": {"position": 0, "device": "biosignalsplux", "device name": "00:07:80:8C:0A:39", "device connection": "BTH00:07:80:8C:0A:39", "sampling rate": 1000, "resolution": [16, 16], "firmware version": 776, "comments": "", "keywords": "", "mode": 0, "sync interval": 2, "date": "2023-3-17", "time": "15:6:57.533", "channels": [1, 2], "sensor": ["EMG", "EMG"], "label": ["CH1", "CH2"], "column": ["nSeq", "DI", "CH1", "CH2"], "special": [{"SpO2": [80, 40, 5, 4, 3, 3]}, {"SpO2": [80, 40, 5, 4, 3, 3]}, {"SpO2": [80, 40, 5, 4, 3, 3]}, {"SpO2": [80, 40, 5, 4, 3, 3]}, {"SpO2": [80, 40, 5, 4, 3, 3]}, {"SpO2": [80, 40, 5, 4, 3, 3]}, {"SpO2": [80, 40, 5, 4, 3, 3]}, {"SpO2": [80, 40, 5, 4, 3, 3]}], "digital IO": [0, 1], "sleeve color": ["gray", "yellow"], "convertedValues": 0}}
# EndOfHeader
0	0	32824	32775	
1	0	32848	32615	
2	0	32872	32792	
3	0	32816	32726	
4	0	32792	32823	
5	0	32832	32830	
6	0	32822	32804	
7	0	32824	32774	
8	0	32820	32695	
9	0	32820	32788	
10	0	32792	32792	
11	0	32784	32775	
12	0	32820	32775	
13	0	32874	32753	
14	0	32798	32740	
15	0	32780	32707	
16	0	32796	32814	
17	0	32818	32758	
18	0	32858	32690	
19	0	32784	32706	
20	0	32788	32814	
21	0	32782	32668	
22	0	32826	32810	
23	0	32794	32726	
24	0	32856	32846	
25	0	32844	32838	
26	0	32832	32774	
27	0	32832	32784	
28	0	32828	32885	
29	0	32854	32804	
30	0	32846	32728	
31	0	32730	32807	
32	0	32784	32622	
33	0	32800	32815	
34	0	32800	32718	
35	0	32768	32832	
36	0	32802	32752	
37	0	32918	32792	
38	0	32828	32666	
39	0	32848	32740	
40	0	32812	32722	
41	0	32820	32752	
42	0	32860	32668	
43	0	32800	32728	
44	0	32764	32732	
45	0	32814	32816	
46	0	32780	32775	
47	0	32786	32823	
48	0	32790	32748	
49	0	32828	32758	
50	0	32816	32656	
51	0	32820	32772	
52	0	32828	32726	
53	0	32826	32775	
54	0	32820	32712	
55	0	32848	32836	
56	0	32828	32700	
57	0	32800	32794	
58	0	32796	32774	
59	0	32752	32676	
60	0	32824	32758	
61	0	32852	32752	
62	0	32860	32775	
63	0	32762	32812	
64	0	32820	32722	
65	0	32884	32762	
66	0	32768	32676	
67	0	32856	32844	
68	0	32838	32775	
69	0	32848	32740	
70	0	32802	32828	
71	0	32816	32798	
72	0	32832	32774	
73	0	32772	32814	
74	0	32896	32760	
75	0	32816	32903	
76	0	32808	32754	
77	0	32836	32647	
78	0	32800	32709	
79	0	32780	32699	
80	0	32836	32880	
81	0	32784	32660	
82	0	32794	32816	
83	0	32840	32815	
84	0	32866	32852	
85	0	32840	32830	
86	0	32844	32754	
87	0	32808	32762	
88	0	32830	32740	
89	0	32820	32775	
90	0	32880	32742	
91	0	32766	32820	
92	0	32816	32851	
93	0	32794	32808	
94	0	32832	32842	
95	0	32776	32775	
96	0	32804	32775	
97	0	32854	32750	
98	0	32800	32775	
99	0	32820	32724	
100	0	32816	32736	
101	0	32820	32679	
102	0	32820	32772	
103	0	32768	32671	
104	0	32816	32852	
105	0	32810	32799	
106	0	32830	32810	
107	0	32804	32846	
108	0	32760	32703	
109	0	32772	32768	
110	0	32836	32620	
111	0	32821	32664	
112	0	32840	32740	
113	0	32832	32874	
114	0	32788	32742	
115	0	32794	32836	
116	0	32804	32807	
117	0	32804	32822	
118	0	32832	32718	
119	0	32828	32798	
120	0	32767	32874	
121	0	32868	32764	
122	0	32816	32871	
123	0	32770	32784	
124	0	32762	32824	
125	0	32814	32788	
126	0	32832	32800	
127	0	32788	32719	
128	0	32788	32730	
129	0	32764	32668	
130	0	32834	32766	
131	0	32828	32818	
132	0	32796	32766	
133	0	32852	32834	
134	0	32832	32836	
135	0	32858	32788	
136	0	32868	32730	
137	0	32796	32754	
138	0	32882	32748	
139	0	32848	32754	
140	0	32818	32714	
141	0	32790	32750	
142	0	32832	32800	
143	0	32804	32746	
144	0	32810	32775	
145	0	32822	32740	
146	0	32806	32740	
147	0	32872	32743	
148	0	32768	32678	
149	0	32844	32816	
150	0	32824	32716	
151	0	32824	32712	
152	0	32844	32756	
153	0	32843	32750	
154	0	32796	32775	
155	0	32878	32874	
156	0	32784	32732	
157	0	32780	32820	
158	0	32754	32844	
159	0	32872	32814	
160	0	32802	32774	
161	0	32868	32727	
162	0	32816	32775	
163	0	32768	32724	
164	0	32764	32814	
165	0	32826	32775	
166	0	32760	32834	
167	0	32804	32767	
168	0	32825	32839	
169	0	32812	32740	
170	0	32868	32818	
171	0	32810	32694	
172	0	32854	32688	
173	0	32832	32694	
174	0	32836	32799	
175	0	32817	32854	
176	0	32784	32807	
177	0	32770	32823	
178	0	32758	32816	
179	0	32768	32794	
180	0	32776	32744	
181	0	32848	32792	
182	0	32846	32844	
183	0	32780	32775	
184	0	32820	32720	
185	0	32876	32766	
186	0	32824	32712	
187	0	32816	32762	
188	0	32832	32660	
189	0	32764	32768	
190	0	32808	32828	
191	0	32772	32790	
192	0	32800	32680	
193	0	32788	32775	
194	0	32796	32790	
195	0	32864	32775	
196	0	32821	32842	
197	0	32768	32694	
198	0	32838	32820	
199	0	32900	32710	
200	0	32838	32768	
201	0	32812	32772	
202	0	32834	32757	
203	0	32816	32716	
204	0	32800	32748	
205	0	32812	32743	
206	0	32916	32807	
207	0	32748	32678	
208	0	32878	32814	
209	0	32840	32851	
210	0	32792	32696	
211	0	32732	32730	
212	0	32788	32712	
213	0	32836	32822	
214	0	32772	32868	
215	0	32806	32695	
216	0	32872	32876	
217	0	32804	32761	
218	0	32860	32734	
219	0	32780	32754	
220	0	32824	32791	
221	0	32794	32792	
222	0	32820	32854	
223	0	32952	32880	
224	0	32892	32886	
225	0	32864	32976	
226	0	32938	32926	
227	0	32840	32942	
228	0	32842	32878	
229	0	32832	32854	
230	0	32780	32770	
231	0	32780	32756	
232	0	32740	32570	
233	0	32680	32567	
234	0	32708	32596	
235	0	32712	32564	
236	0	32646	32438	
237	0	32660	32420	
238	0	32606	32422	
239	0	32676	32548	
240	0	32778	32543	
241	0	32746	32692	
242	0	32780	32702	
243	0	32812	32841	
244	0	32791	32708	
245	0	32842	32814	
246	0	32844	32796	
247	0	32828	32807	
248	0	32841	32864	
249	0	32852	32916	
250	0	32904	32952	
251	0	32900	32903	
252	0	32880	32928	
253	0	32856	32807	
254	0	32916	32890	
255	0	32948	32935	
256	0	32854	32795	
257	0	32866	32911	
258	0	32900	32798	
259	0	32884	32816	
260	0	32868	32790	
261	0	32872	32807	
262	0	32776	32822	
263	0	32890	32815	
264	0	32840	32846	
265	0	32776	32748	
266	0	32794	32818	
267	0	32808	32796	
268	0	32794	32838	
269	0	32786	32608	
270	0	32792	32804	
271	0	32864	32744	
272	0	32772	32824	
273	0	32778	32744	
274	0	32890	32800	
275	0	32796	32804	
276	0	32844	32702	
277	0	32764	32808	
278	0	32800	32720	
279	0	32752	32712	
280	0	32792	32820	
281	0	32784	32820	
282	0	32810	32842	
283	0	32800	32756	
284	0	32764	32794	
285	0	32858	32642	
286	0	32772	32724	
287	0	32800	32775	
288	0	32798	32782	
289	0	32828	32718	
290	0	32804	32772	
291	0	32822	32796	
292	0	32892	32728	
293	0	32818	32775	
294	0	32796	32724	
295	0	32812	32775	
296	0	32788	32726	
297	0	32832	32710	
298	0	32784	32710	
299	0	32762	32759	
300	0	32828	32724	
301	0	32778	32775	
302	0	32808	32706	
303	0	32816	32750	
304	0	32784	32679	
305	0	32792	32775	
306	0	32804	32663	
307	0	32776	32838	
308	0	32770	32804	
309	0	32776	32742	
310	0	32874	32756	
311	0	32806	32660	
312	0	32900	32794	
313	0	32856	32816	
314	0	32866	32766	
315	0	32768	32896	
316	0	32782	32785	
317	0	32832	32786	
318	0	32832	32804	
319	0	32808	32832	
320	0	32818	32752	
321	0	32860	32834	
322	0	32892	32772	
323	0	32874	32844	
324	0	32816	32759	
325	0	32828	32775	
326	0	32860	32608	
327	0	32778	32807	
328	0	32704	32726	
329	0	32852	32790	
330	0	32802	32690	
331	0	32804	32788	
332	0	32774	32724	
333	0	32864	32794	
334	0	32800	32711	
335	0	32892	32822	
336	0	32874	32686	
337	0	32778	32796	
338	0	32820	32694	
339	0	32824	32834	
340	0	32778	32804	
341	0	32804	32687	
342	0	32790	32818	
343	0	32800	32732	
344	0	32840	32796	
345	0	32788	32775	
346	0	32786	32810	
347	0	32840	32768	
348	0	32850	32748	
349	0	32800	32730	
350	0	32796	32718	
351	0	32790	32760	
352	0	32816	32698	
353	0	32764	32786	
354	0	32840	32886	
355	0	32826	32836	
356	0	32832	32752	
357	0	32812	32892	
358	0	32768	32850	
359	0	32800	32743	
360	0	32828	32774	
361	0	32748	32726	
362	0	32786	32728	
363	0	32854	32712	
364	0	32810	32628	
365	0	32844	32796	
366	0	32782	32791	
367	0	32842	32738	
368	0	32834	32839	
369	0	32784	32806	
370	0	32852	32758	
371	0	32812	32694	
372	0	32784	32758	
373	0	32856	32772	
374	0	32804	32802	
375	0	32818	32740	
376	0	32860	32794	
377	0	32836	32806	
378	0	32766	32678	
379	0	32818	32710	
380	0	32902	32728	
381	0	32794	32720	
382	0	32848	32758	
383	0	32808	32864	
384	0	32798	32844	
385	0	32792	32862	
386	0	32844	32775	
387	0	32796	32692	
388	0	32842	32842	
389	0	32828	32759	
390	0	32840	32839	
391	0	32796	32798	
392	0	32732	32711	
393	0	32848	32672	
394	0	32812	32806	
395	0	32826	32847	
396	0	32788	32856	
397	0	32850	32698	
398	0	32786	32798	
399	0	32782	32718	
400	0	32794	32774	
401	0	32806	32767	
402	0	32734	32670	
403	0	32794	32821	
404	0	32828	32780	
405	0	32892	32774	
406	0	32828	32816	
407	0	32802	32792	
408	0	32808	32794	
409	0	32821	32783	
410	0	32772	32725	
411	0	32780	32746	
412	0	32864	32830	
413	0	32772	32888	
414	0	32800	32700	
415	0	32824	32714	
416	0	32838	32710	
417	0	32784	32690	
418	0	32812	32684	
419	0	32836	32852	
420	0	32792	32679	
421	0	32844	32730	
422	0	32792	32792	
423	0	32804	32852	
424	0	32824	32796	
425	0	32796	32790	
426	0	32792	32828	
427	0	32820	32823	
428	0	32768	32758	
429	0	32864	32740	
430	0	32808	32742	
431	0	32788	32854	
432	0	32766	32846	
433	0	32808	32775	
434	0	32868	32879	
435	0	32808	32604	
436	0	32746	32775	
437	0	32748	32712	
438	0	32858	32856	
439	0	32856	32890	
440	0	32872	32775	
441	0	32798	32724	
442	0	32816	32742	
443	0	32820	32775	
444	0	32824	32638	
445	0	32838	32758	
446	0	32812	32849	
447	0	32820	32743	
448	0	32788	32744	
449	0	32746	32876	
450	0	32742	32738	
451	0	32852	32759	
452	0	32848	32734	
453	0	32804	32751	
454	0	32852	32806	
455	0	32784	32656	
456	0	32784	32688	
457	0	32808	32710	
458	0	32832	32822	
459	0	32836	32758	
460	0	32764	32702	
461	0	32792	32840	
462	0	32768	32775	
463	0	32800	32730	
464	0	32760	32764	
465	0	32840	32684	
466	0	32816	32816	
467	0	32844	32730	
468	0	32810	32786	
469	0	32898	32870	
470	0	32828	32815	
471	0	32880	32766	
472	0	32802	32648	
473	0	32830	32846	
474	0	32798	32860	
475	0	32740	32702	
476	0	32776	32756	
477	0	32856	32718	
478	0	32816	32856	
479	0	32824	32735	
480	0	32848	32764	
481	0	32792	32754	
482	0	32840	32775	
483	0	32848	32671	
484	0	32796	32760	
485	0	32768	32702	
486	0	32832	32760	
487	0	32836	32850	
488	0	32820	32654	
489	0	32796	32761	
490	0	32832	32738	
491	0	32802	32822	
492	0	32816	32870	
493	0	32724	32732	
494	0	32852	32759	
495	0	32832	32716	
496	0	32784	32775	
497	0	32810	32762	
498	0	32844	32792	
499	0	32776	32775	
500	0	32780	32730	
501	0	32812	32742	
502	0	32844	32734	
503	0	32844	32775	
504	0	32750	32752	
505	0	32796	32798	
506	0	32824	32796	
507	0	32846	32775	
508	0	32732	32796	
509	0	32870	32796	
510	0	32820	32832	
511	0	32868	32794	
512	0	32820	32810	
513	0	32848	32679	
514	0	32820	32754	
515	0	32852	32641	
516	0	32776	32748	
517	0	32768	32634	
518	0	32800	32775	
519	0	32764	32900	
520	0	32820	32774	
521	0	32828	32822	
522	0	32832	32710	
523	0	32804	32764	
524	0	32772	32740	
525	0	32840	32832	
526	0	32792	32820	
527	0	32834	32871	
528	0	32768	32796	
529	0	32808	32791	
530	0	32844	32670	
531	0	32840	32800	
532	0	32806	32850	
533	0	32876	32736	
534	0	32812	32759	
535	0	32784	32775	
536	0	32820	32822	
537	0	32852	32698	
538	0	32752	32710	
539	0	32764	32647	
540	0	32896	32839	
541	0	32780	32816	
542	0	32804	32796	
543	0	32808	32842	
544	0	32844	32646	
545	0	32824	32746	
546	0	32846	32712	
547	0	32788	32792	
548	0	32868	32827	
549	0	32872	32718	
550	0	32788	32822	
551	0	32786	32838	
552	0	32776	32734	
553	0	32816	32756	
554	0	32752	32714	
555	0	32764	32798	
556	0	32876	32668	
557	0	32792	32721	
558	0	32792	32801	
559	0	32844	32660	
560	0	32796	32764	
561	0	32804	32692	
562	0	32780	32804	
563	0	32820	32750	
564	0	32846	32814	
565	0	32740	32796	
566	0	32860	32794	
567	0	32837	32911	
568	0	32812	32836	
569	0	32878	32822	
570	0	32840	32644	
571	0	32784	32775	
572	0	32856	32711	
573	0	32808	32775	
574	0	32762	32674	
575	0	32804	32808	
576	0	32780	32726	
577	0	32808	32775	
578	0	32808	32738	
579	0	32832	32931	
580	0	32772	32756	
581	0	32768	32758	
582	0	32820	32794	
583	0	32784	32704	
584	0	32870	32768	
585	0	32824	32726	
586	0	32850	32817	
587	0	32856	32805	
588	0	32810	32740	
589	0	32786	32820	
590	0	32780	32699	
591	0	32860	32828	
592	0	32776	32801	
593	0	32804	32795	
594	0	32792	32828	
595	0	32822	32700	
596	0	32764	32750	
597	0	32788	32764	
598	0	32818	32852	
599	0	32760	32718	
600	0	32912	32740	
601	0	32848	32763	
602	0	32820	32730	
603	0	32876	32734	
604	0	32866	32834	
605	0	32790	32808	
606	0	32848	32704	
607	0	32788	32726	
608	0	32824	32730	
609	0	32832	32828	
610	0	32784	32746	
611	0	32886	32832	
612	0	32852	32767	
613	0	32848	32790	
614	0	32784	32694	
615	0	32810	32826	
616	0	32788	32794	
617	0	32810	32766	
618	0	32784	32800	
619	0	32812	32868	
620	0	32812	32852	
621	0	32801	32769	
622	0	32826	32673	
623	0	32824	32758	
624	0	32776	32774	
625	0	32888	32846	
626	0	32838	32750	
627	0	32824	32775	
628	0	32816	32828	
629	0	32848	32796	
630	0	32800	32811	
631	0	32820	32804	
632	0	32776	32775	
633	0	32808	32684	
634	0	32756	32775	
635	0	32752	32694	
636	0	32816	32762	
637	0	32820	32692	
638	0	32820	32766	
639	0	32748	32720	
640	0	32794	32678	
641	0	32784	32696	
642	0	32852	32830	
643	0	32880	32734	
644	0	32800	32788	
645	0	32816	32666	
646	0	32820	32775	
647	0	32856	32606	
648	0	32762	32864	
649	0	32818	32760	
650	0	32728	32812	
651	0	32864	32775	
652	0	32768	32902	
653	0	32806	32846	
654	0	32872	32676	
655	0	32856	32752	
656	0	32828	32694	
657	0	32880	32775	
658	0	32808	32636	
659	0	32812	32790	
660	0	32900	32704	
661	0	32764	32798	
662	0	32788	32664	
663	0	32800	32740	
664	0	32836	32694	
665	0	32818	32751	
666	0	32842	32702	
667	0	32872	32728	
668	0	32860	32724	
669	0	32820	32702	
670	0	32824	32782	
671	0	32794	32807	
672	0	32828	32833	
673	0	32804	32750	
674	0	32754	32804	
675	0	32840	32814	
676	0	32784	32732	
677	0	32800	32732	
678	0	32800	32808	
679	0	32784	32696	
680	0	32858	32774	
681	0	32764	32736	
682	0	32784	32802	
683	0	32868	32775	
684	0	32816	32794	
685	0	32792	32804	
686	0	32824	32840	
687	0	32816	32744	
688	0	32808	32826	
689	0	32780	32839	
690	0	32816	32836	
691	0	32732	32786	
692	0	32764	32775	
693	0	32818	32832	
694	0	32868	32863	
695	0	32844	32812	
696	0	32784	32834	
697	0	32812	32740	
698	0	32860	32846	
699	0	32800	32734	
700	0	32842	32882	
701	0	32828	32790	
702	0	32830	32815	
703	0	32814	32839	
704	0	32752	32826	
705	0	32834	32698	
706	0	32884	32774	
707	0	32796	32738	
708	0	32796	32711	
709	0	32802	32732	
710	0	32840	32824	
711	0	32756	32676	
712	0	32860	32710	
713	0	32820	32754	
714	0	32845	32798	
715	0	32798	32830	
716	0	32808	32760	
717	0	32854	32860	
718	0	32834	32754	
719	0	32784	32804	
720	0	32796	32760	
721	0	32792	32775	
722	0	32804	32820	
723	0	32800	32768	
724	0	32814	32775	
725	0	32780	32717	
726	0	32862	32795	
727	0	32816	32692	
728	0	32804	32798	
729	0	32806	32694	
730	0	32766	32804	
731	0	32842	32690	
732	0	32870	32723	
733	0	32788	32678	
734	0	32804	32796	
735	0	32792	32775	
736	0	32844	32784	
737	0	32808	32720	
738	0	32884	32764	
739	0	32820	32721	
740	0	32832	32754	
741	0	32788	32740	
742	0	32834	32724	
743	0	32836	32717	
744	0	32810	32799	
745	0	32784	32710	
746	0	32804	32844	
747	0	32754	32847	
748	0	32864	32852	
749	0	32848	32886	
750	0	32804	32708	
751	0	32800	32798	
752	0	32740	32720	
753	0	32810	32756	
754	0	32854	32815	
755	0	32792	32773	
756	0	32756	32756	
757	0	32836	32790	
758	0	32782	32768	
759	0	32820	32834	
760	0	32846	32792	
761	0	32814	32802	
762	0	32844	32808	
763	0	32840	32716	
764	0	32812	32790	
765	0	32832	32746	
766	0	32816	32822	
767	0	32762	32656	
768	0	32816	32846	
769	0	32832	32686	
770	0	32772	32724	
771	0	32798	32764	
772	0	32894	32823	
773	0	32784	32656	
774	0	32824	32810	
775	0	32784	32803	
776	0	32824	32788	
777	0	32864	32740	
778	0	32852	32692	
779	0	32842	32804	
780	0	32734	32726	
781	0	32808	32696	
782	0	32848	32680	
783	0	32798	32792	
784	0	32824	32624	
785	0	32772	32892	
786	0	32860	32855	
787	0	32706	32852	
788	0	32822	32775	
789	0	32832	32696	
790	0	32812	32790	
791	0	32860	32650	
792	0	32868	32772	
793	0	32789	32736	
794	0	32826	32804	
795	0	32774	32839	
796	0	32805	32840	
797	0	32792	32740	
798	0	32802	32766	
799	0	32836	32825	
800	0	32834	32711	
801	0	32808	32790	
802	0	32796	32694	
803	0	32894	32812	
804	0	32808	32644	
805	0	32756	32772	
806	0	32716	32754	
807	0	32801	32824	
808	0	32820	32647	
809	0	32816	32766	
810	0	32784	32728	
811	0	32800	32724	
812	0	32820	32724	
813	0	32834	32762	
814	0	32862	32668	
815	0	32792	32903	
816	0	32844	32871	
817	0	32826	32748	
818	0	32816	32690	
819	0	32812	32911	
820	0	32762	32854	
821	0	32816	32770	
822	0	32812	32823	
823	0	32736	32606	
824	0	32800	32727	
825	0	32796	32666	
826	0	32852	32814	
827	0	32884	32702	
828	0	32784	32801	
829	0	32784	32775	
830	0	32788	32838	
831	0	32712	32867	
832	0	32836	32671	
833	0	32792	32772	
834	0	32800	32700	
835	0	32890	32839	
836	0	32804	32858	
837	0	32788	32804	
838	0	32800	32868	
839	0	32780	32742	
840	0	32852	32814	
841	0	32844	32646	
842	0	32876	32775	
843	0	32800	32750	
844	0	32716	32910	
845	0	32852	32814	
846	0	32864	32764	
847	0	32804	32721	
848	0	32788	32754	
849	0	32820	32842	
850	0	32844	32812	
851	0	32816	32856	
852	0	32834	32708	
853	0	32848	32740	
854	0	32804	32720	
855	0	32784	32704	
856	0	32814	32808	
857	0	32800	32730	
858	0	32818	32768	
859	0	32814	32758	
860	0	32806	32743	
861	0	32834	32724	
862	0	32892	32676	
863	0	32848	32772	
864	0	32852	32754	
865	0	32764	32808	
866	0	32768	32740	
867	0	32740	32802	
868	0	32864	32628	
869	0	32808	32796	
870	0	32856	32762	
871	0	32880	32868	
872	0	32832	32812	
873	0	32864	32832	
874	0	32816	32812	
875	0	32800	32672	
876	0	32746	32767	
877	0	32860	32664	
878	0	32798	32736	
879	0	32850	32732	
880	0	32840	32740	
881	0	32842	32756	
882	0	32808	32806	
883	0	32730	32804	
884	0	32775	32766	
885	0	32852	32832	
886	0	32810	32691	
887	0	32738	32802	
888	0	32788	32828	
889	0	32820	32744	
890	0	32824	32796	
891	0	32878	32759	
892	0	32820	32844	
893	0	32772	32672	
894	0	32804	32743	
895	0	32776	32820	
896	0	32895	32672	
897	0	32802	32890	
898	0	32780	32804	
899	0	32860	32730	
900	0	32862	32775	
901	0	32788	32732	
902	0	32908	32820	
903	0	32762	32848	
904	0	32832	32728	
905	0	32876	32786	
906	0	32756	32700	
907	0	32774	32756	
908	0	32866	32736	
909	0	32802	32866	
910	0	32808	32923	
911	0	32864	32722	
912	0	32888	32691	
913	0	32844	32700	
914	0	32800	32820	
915	0	32824	32788	
916	0	32836	32647	
917	0	32790	32794	
918	0	32766	32796	
919	0	32816	32766	
920	0	32812	32724	
921	0	32788	32735	
922	0	32906	32826	
923	0	32804	32814	
924	0	32906	32720	
925	0	32816	32824	
926	0	32908	32864	
927	0	32870	32916	
928	0	32936	32872	
929	0	32860	32836	
930	0	32942	32922	
931	0	32856	32876	
932	0	32808	32775	
933	0	32694	32646	
934	0	32704	32583	
935	0	32652	32535	
936	0	32706	32578	
937	0	32764	32519	
938	0	32608	32528	
939	0	32620	32359	
940	0	32608	32428	
941	0	32732	32438	
942	0	32767	32684	
943	0	32792	32752	
944	0	32836	32767	
945	0	32775	32815	
946	0	32868	32916	
947	0	32832	32794	
948	0	32802	32967	
949	0	32880	32896	
950	0	32916	32852	
951	0	32892	32780	
952	0	32860	32887	
953	0	32912	32796	
954	0	32916	32952	
955	0	32900	32794	
956	0	32856	32882	
957	0	32888	32992	
958	0	32866	32822	
959	0	32862	32889	
960	0	32872	32856	
961	0	32840	32834	
962	0	32826	32738	
963	0	32846	32823	
964	0	32884	32708	
965	0	32846	32880	
966	0	32820	32815	
967	0	32784	32786	
968	0	32832	32810	
969	0	32736	32631	
970	0	32768	32834	
971	0	32824	32824	
972	0	32742	32668	
973	0	32752	32775	
974	0	32864	32687	
975	0	32816	32844	
976	0	32820	32884	
977	0	32810	32784	
978	0	32808	32742	
979	0	32848	32686	
980	0	32786	32754	
981	0	32712	32716	
982	0	32820	32866	
983	0	32828	32830	
984	0	32848	32734	
985	0	32852	32774	
986	0	32766	32654	
987	0	32770	32788	
988	0	32884	32639	
989	0	32852	32807	
990	0	32808	32692	
991	0	32776	32792	
992	0	32824	32640	
993	0	32816	32718	
994	0	32732	32678	
995	0	32848	32852	
996	0	32792	32775	
997	0	32761	32820	
998	0	32796	32743	
999	0	32894	32734	
1000	0	32852	32734	
1001	0	32740	32798	
1002	0	32806	32732	
1003	0	32716	32820	
1004	0	32870	32874	
1005	0	32836	32804	
1006	0	32792	32734	
1007	0	32764	32818	
1008	0	32814	32884	
1009	0	32832	32742	
1010	0	32844	32848	
1011	0	32864	32788	
1012	0	32760	32872	
1013	0	32832	32830	
1014	0	32796	32684	
1015	0	32820	32876	
1016	0	32876	32752	
1017	0	32804	32845	
1018	0	32844	32742	
1019	0	32806	32864	
1020	0	32894	32830	
1021	0	32854	32686	
1022	0	32792	32680	
1023	0	32760	32628	
1024	0	32804	32824	
1025	0	32838	32851	
1026	0	32816	32774	
1027	0	32852	32832	
1028	0	32744	32658	
1029	0	32812	32750	
1030	0	32848	32726	
1031	0	32788	32752	
1032	0	32844	32678	
1033	0	32750	32748	
1034	0	32832	32696	
1035	0	32800	32830	
1036	0	32816	32824	
1037	0	32860	32756	
1038	0	32830	32790	
1039	0	32784	32696	
1040	0	32850	32735	
1041	0	32868	32660	
1042	0	32766	32743	
1043	0	32824	32710	
1044	0	32850	32854	
1045	0	32820	32719	
1046	0	32840	32826	
1047	0	32770	32762	
1048	0	32820	32710	
1049	0	32830	32814	
1050	0	32820	32828	
1051	0	32752	32756	
1052	0	32822	32742	
1053	0	32752	32710	
1054	0	32808	32758	
1055	0	32804	32689	
1056	0	32810	32768	
1057	0	32834	32748	
1058	0	32832	32817	
1059	0	32762	32725	
1060	0	32846	32775	
1061	0	32836	32716	
1062	0	32752	32807	
1063	0	32784	32786	
1064	0	32810	32706	
1065	0	32776	32782	
1066	0	32824	32641	
1067	0	32766	32766	
1068	0	32801	32724	
1069	0	32794	32823	
1070	0	32800	32836	
1071	0	32816	32792	
1072	0	32816	32846	
1073	0	32806	32798	
1074	0	32784	32822	
1075	0	32824	32775	
1076	0	32888	32798	
1077	0	32820	32766	
1078	0	32802	32846	
1079	0	32772	32680	
1080	0	32834	32718	
1081	0	32906	32700	
1082	0	32816	32838	
1083	0	32774	32775	
1084	0	32794	32720	
1085	0	32812	32746	
1086	0	32766	32710	
1087	0	32788	32822	
1088	0	32804	32666	
1089	0	32852	32786	
1090	0	32808	32759	
1091	0	32840	32943	
1092	0	32848	32775	
1093	0	32836	32678	
1094	0	32800	32774	
1095	0	32804	32852	
1096	0	32754	32727	
1097	0	32838	32826	
1098	0	32792	32812	
1099	0	32756	32804	
1100	0	32796	32756	
1101	0	32800	32662	
1102	0	32844	32726	
1103	0	32804	32815	
1104	0	32778	32596	
1105	0	32794	32759	
1106	0	32770	32670	
1107	0	32824	32766	
1108	0	32820	32694	
1109	0	32832	32815	
1110	0	32810	32746	
1111	0	32780	32754	
1112	0	32775	32696	
1113	0	32842	32822	
1114	0	32782	32760	
1115	0	32792	32796	
1116	0	32736	32752	
1117	0	32816	32740	
1118	0	32818	32775	
1119	0	32868	32694	
1120	0	32812	32789	
1121	0	32824	32678	
1122	0	32814	32828	
1123	0	32824	32834	
1124	0	32814	32838	
1125	0	32786	32802	
1126	0	32870	32662	
1127	0	32744	32678	
1128	0	32768	32720	
1129	0	32840	32759	
1130	0	32804	32820	
1131	0	32810	32728	
1132	0	32776	32720	
1133	0	32832	32742	
1134	0	32848	32861	
1135	0	32782	32822	
1136	0	32782	32790	
1137	0	32800	32732	
1138	0	32808	32672	
1139	0	32778	32764	
1140	0	32840	32788	
1141	0	32836	32808	
1142	0	32764	32786	
1143	0	32772	32807	
1144	0	32836	32839	
1145	0	32812	32719	
1146	0	32849	32806	
1147	0	32808	32672	
1148	0	32822	32758	
1149	0	32824	32624	
1150	0	32768	32722	
1151	0	32780	32734	
1152	0	32828	32792	
1153	0	32856	32883	
1154	0	32821	32730	
1155	0	32880	32810	
1156	0	32722	32692	
1157	0	32864	32734	
1158	0	32810	32678	
1159	0	32792	32792	
1160	0	32768	32708	
1161	0	32784	32790	
1162	0	32810	32758	
1163	0	32804	32775	
1164	0	32764	32814	
1165	0	32780	32696	
1166	0	32832	32760	
1167	0	32800	32678	
1168	0	32794	32774	
1169	0	32776	32699	
1170	0	32848	32775	
1171	0	32802	32742	
1172	0	32804	32775	
1173	0	32804	32720	
1174	0	32768	32836	
1175	0	32846	32706	
1176	0	32832	32817	
1177	0	32872	32840	
1178	0	32780	32814	
1179	0	32788	32788	
1180	0	32810	32742	
1181	0	32810	32750	
1182	0	32868	32640	
1183	0	32824	32814	
1184	0	32772	32676	
1185	0	32816	32775	
1186	0	32864	32732	
1187	0	32770	32726	
1188	0	32778	32758	
1189	0	32800	32860	
1190	0	32824	32722	
1191	0	32876	32838	
1192	0	32806	32748	
1193	0	32792	32816	
1194	0	32832	32767	
1195	0	32824	32788	
1196	0	32788	32750	
1197	0	32792	32719	
1198	0	32792	32775	
1199	0	32744	32726	
1200	0	32820	32804	
1201	0	32808	32775	
1202	0	32808	32750	
1203	0	32838	32688	
1204	0	32840	32812	
1205	0	32794	32752	
1206	0	32761	32839	
1207	0	32804	32702	
1208	0	32850	32810	
1209	0	32848	32742	
1210	0	32796	32768	
1211	0	32832	32775	
1212	0	32812	32810	
1213	0	32808	32808	
1214	0	32856	32714	
1215	0	32782	32796	
1216	0	32824	32726	
1217	0	32830	32764	
1218	0	32852	32678	
1219	0	32816	32775	
1220	0	32782	32738	
1221	0	32840	32836	
1222	0	32782	32672	
1223	0	32832	32775	
1224	0	32790	32844	
1225	0	32808	32750	
1226	0	32706	32812	
1227	0	32808	32751	
1228	0	32802	32678	
1229	0	32868	32802	
1230	0	32820	32811	
1231	0	32788	32711	
1232	0	32884	32738	
1233	0	32870	32739	
1234	0	32812	32784	
1235	0	32789	32804	
1236	0	32802	32750	
1237	0	32768	32716	
1238	0	32780	32652	
1239	0	32804	32820	
1240	0	32780	32796	
1241	0	32794	32775	
1242	0	32788	32870	
1243	0	32808	32780	
1244	0	32824	32831	
1245	0	32852	32694	
1246	0	32812	32772	
1247	0	32756	32910	
1248	0	32784	32694	
1249	0	32823	32775	
1250	0	32820	32678	
1251	0	32826	32844	
1252	0	32865	32896	
1253	0	32820	32696	
1254	0	32836	32750	
1255	0	32798	32670	
1256	0	32720	32820	
1257	0	32842	32728	
1258	0	32796	32822	
1259	0	32824	32720	
1260	0	32826	32814	
1261	0	32852	32839	
1262	0	32832	32711	
1263	0	32888	32719	
1264	0	32746	32711	
1265	0	32808	32770	
1266	0	32740	32884	
1267	0	32828	32833	
1268	0	32844	32815	
1269	0	32836	32743	
1270	0	32824	32740	
1271	0	32842	32775	
1272	0	32732	32800	
1273	0	32844	32806	
1274	0	32849	32775	
1275	0	32860	32864	
1276	0	32796	32748	
1277	0	32802	32874	
1278	0	32794	32808	
1279	0	32744	32756	
1280	0	32788	32734	
1281	0	32812	32710	
1282	0	32804	32743	
1283	0	32804	32764	
1284	0	32796	32732	
1285	0	32798	32708	
1286	0	32794	32759	
1287	0	32728	32722	
1288	0	32780	32634	
1289	0	32832	32711	
1290	0	32826	32696	
1291	0	32810	32740	
1292	0	32802	32775	
1293	0	32804	32815	
1294	0	32840	32647	
1295	0	32846	32756	
1296	0	32808	32721	
1297	0	32800	32733	
1298	0	32808	32757	
1299	0	32800	32775	
1300	0	32816	32830	
1301	0	32836	32682	
1302	0	32856	32839	
1303	0	32894	32775	
1304	0	32856	32716	
1305	0	32804	32710	
1306	0	32750	32728	
1307	0	32812	32700	
1308	0	32752	32784	
1309	0	32740	32864	
1310	0	32816	32848	
1311	0	32830	32890	
1312	0	32824	32810	
1313	0	32830	32742	
1314	0	32800	32844	
1315	0	32802	32732	
1316	0	32804	32843	
1317	0	32754	32798	
1318	0	32740	32785	
1319	0	32844	32800	
1320	0	32810	32682	
1321	0	32760	32770	
1322	0	32752	32712	
1323	0	32864	32775	
1324	0	32816	32708	
1325	0	32844	32782	
1326	0	32802	32724	
1327	0	32852	32682	
1328	0	32832	32722	
1329	0	32836	32742	
1330	0	32768	32756	
1331	0	32826	32729	
1332	0	32812	32838	
1333	0	32804	32690	
1334	0	32848	32772	
1335	0	32804	32686	
1336	0	32774	32820	
1337	0	32800	32792	
1338	0	32720	32752	
1339	0	32832	32858	
1340	0	32856	32700	
1341	0	32810	32742	
1342	0	32824	32660	
1343	0	32744	32842	
1344	0	32742	32775	
1345	0	32832	32734	
1346	0	32808	32768	
1347	0	32710	32696	
1348	0	32816	32752	
1349	0	32728	32720	
1350	0	32820	32826	
1351	0	32880	32675	
1352	0	32852	32792	
1353	0	32764	32684	
1354	0	32892	32743	
1355	0	32836	32678	
1356	0	32756	32834	
1357	0	32804	32754	
1358	0	32796	32840	
1359	0	32856	32848	
1360	0	32830	32775	
1361	0	32778	32938	
1362	0	32768	32752	
1363	0	32816	32689	
1364	0	32800	32724	
1365	0	32812	32775	
1366	0	32801	32826	
1367	0	32930	32618	
1368	0	32864	32798	
1369	0	32850	32696	
1370	0	32828	32630	
1371	0	32728	32612	
1372	0	32836	32716	
1373	0	32704	32768	
1374	0	32788	32720	
1375	0	32808	32766	
1376	0	32808	32784	
1377	0	32776	32728	
1378	0	32860	32800	
1379	0	32840	32678	
1380	0	32788	32722	
1381	0	32788	32850	
1382	0	32874	32719	
1383	0	32846	32900	
1384	0	32812	32743	
1385	0	32784	32854	
1386	0	32712	32870	
1387	0	32720	32774	
1388	0	32784	32795	
1389	0	32752	32728	
1390	0	32725	32712	
1391	0	32816	32724	
1392	0	32836	32766	
1393	0	32884	32844	
1394	0	32900	32752	
1395	0	32916	32766	
1396	0	32864	32759	
1397	0	32780	32816	
1398	0	32756	32682	
1399	0	32760	32802	
1400	0	32672	32756	
1401	0	32740	32710	
1402	0	32746	32830	
1403	0	32812	32775	
1404	0	32760	32824	
1405	0	32872	32754	
1406	0	32840	32724	
1407	0	32840	32766	
1408	0	32892	32952	
1409	0	32900	32812	
1410	0	32844	32896	
1411	0	32776	32676	
1412	0	32812	32856	
1413	0	32844	32805	
1414	0	32834	32682	
1415	0	32776	32734	
1416	0	32742	32530	
1417	0	32788	32768	
1418	0	32804	32810	
1419	0	32840	32694	
1420	0	32858	32730	
1421	0	32868	32639	
1422	0	32856	32775	
1423	0	32804	32836	
1424	0	32880	32860	
1425	0	32822	32798	
1426	0	32864	32706	
1427	0	32808	32834	
1428	0	32810	32815	
1429	0	32762	32836	
1430	0	32784	32792	
1431	0	32748	32892	
1432	0	32764	32822	
1433	0	32798	32786	
1434	0	32772	32724	
1435	0	32768	32831	
1436	0	32788	32644	
1437	0	32834	32798	
1438	0	32890	32792	
1439	0	32848	32772	
1440	0	32854	32660	
1441	0	32846	32774	
1442	0	32836	32774	
1443	0	32772	32848	
1444	0	32856	32815	
1445	0	32784	32688	
1446	0	32858	32742	
1447	0	32852	32695	
1448	0	32868	32720	
1449	0	32836	32679	
1450	0	32788	32806	
1451	0	32804	32718	
1452	0	32892	32756	
1453	0	32828	32687	
1454	0	32820	32770	
1455	0	32844	32711	
1456	0	32766	32684	
1457	0	32852	32612	
1458	0	32832	32696	
1459	0	32860	32711	
1460	0	32880	32881	
1461	0	32852	32934	
1462	0	32868	32966	
1463	0	32784	32919	
1464	0	32748	32847	
1465	0	32880	32841	
1466	0	32780	32876	
1467	0	32786	32964	
1468	0	32746	32812	
1469	0	32748	32604	
1470	0	32692	32656	
1471	0	32692	32716	
1472	0	32744	32718	
1473	0	32760	32746	
1474	0	32714	32664	
1475	0	32744	32766	
1476	0	32712	32766	
1477	0	32798	32738	
1478	0	32830	32764	
1479	0	32904	32722	
1480	0	32842	32838	
1481	0	32852	32738	
1482	0	32825	32616	
1483	0	32802	32638	
1484	0	32800	32760	
1485	0	32816	32836	
1486	0	32824	32772	
1487	0	32834	32624	
1488	0	32806	32844	
1489	0	32730	32743	
1490	0	32826	32580	
1491	0	32852	32590	
1492	0	32742	32646	
1493	0	32804	32736	
1494	0	32756	32827	
1495	0	32772	32858	
1496	0	32784	32754	
1497	0	32786	32718	
1498	0	32816	32903	
1499	0	32832	32796	
1500	0	32792	32910	
1501	0	32764	32794	
1502	0	32822	32865	
1503	0	32704	32863	
1504	0	32732	32812	
1505	0	32752	32846	
1506	0	32746	32864	
1507	0	32852	32820	
1508	0	32900	32903	
1509	0	32940	32710	
1510	0	33016	32834	
1511	0	32964	32864	
1512	0	32868	32694	
1513	0	32822	32679	
1514	0	32790	32665	
1515	0	32728	32794	
1516	0	32696	32756	
1517	0	32680	32644	
1518	0	32724	32678	
1519	0	32784	32686	
1520	0	32714	32700	
1521	0	32760	32740	
1522	0	32818	32743	
1523	0	32886	32688	
1524	0	32860	32754	
1525	0	32872	32828	
1526	0	32800	32692	
1527	0	32757	32846	
1528	0	32752	32760	
1529	0	32770	32902	
1530	0	32796	32820	
1531	0	32776	32832	
1532	0	32804	32700	
1533	0	32818	32816	
1534	0	32836	32808	
1535	0	32828	32738	
1536	0	32824	32736	
1537	0	32884	32754	
1538	0	32896	32871	
1539	0	32816	32794	
1540	0	32808	32644	
1541	0	32788	32748	
1542	0	32858	32620	
1543	0	32950	32775	
1544	0	32872	32879	
1545	0	32816	32814	
1546	0	32752	32864	
1547	0	32636	32742	
1548	0	32624	32775	
1549	0	32736	32796	
1550	0	32714	32704	
1551	0	32876	32775	
1552	0	32798	32678	
1553	0	32838	32657	
1554	0	32872	32679	
1555	0	32856	32808	
1556	0	32816	32786	
1557	0	32816	32694	
1558	0	32852	32758	
1559	0	32752	32822	
1560	0	32800	32878	
1561	0	32806	32792	
1562	0	32826	32676	
1563	0	32720	32772	
1564	0	32830	32923	
1565	0	32756	32726	
1566	0	32828	32800	
1567	0	32792	32676	
1568	0	32716	32820	
1569	0	32832	32673	
1570	0	32800	32762	
1571	0	32808	32775	
1572	0	32788	32711	
1573	0	32800	32775	
1574	0	32823	32571	
1575	0	32848	32758	
1576	0	32780	32790	
1577	0	32764	32816	
1578	0	32842	32892	
1579	0	32816	32902	
1580	0	32804	32935	
1581	0	32810	32757	
1582	0	32772	32806	
1583	0	32836	32735	
1584	0	32832	32534	
1585	0	32784	32740	
1586	0	32852	32866	
1587	0	32774	32934	
1588	0	32796	32903	
1589	0	32828	32750	
1590	0	32764	32824	
1591	0	32768	32764	
1592	0	32824	32751	
1593	0	32782	32673	
1594	0	32796	32838	
1595	0	32816	32700	
1596	0	32792	32678	
1597	0	32888	32694	
1598	0	32844	32724	
1599	0	32800	32754	
1600	0	32772	32594	
1601	0	32792	32598	
1602	0	32902	32626	
1603	0	32906	32583	
1604	0	32846	32734	
1605	0	32984	32682	
1606	0	33086	32948	
1607	0	33078	33047	
1608	0	32942	33014	
1609	0	32864	33002	
1610	0	32808	32964	
1611	0	32820	32896	
1612	0	32678	32956	
1613	0	32682	32831	
1614	0	32648	32647	
1615	0	32732	32644	
1616	0	32736	32752	
1617	0	32668	32836	
1618	0	32720	32712	
1619	0	32684	32540	
1620	0	32636	32722	
1621	0	32640	32878	
1622	0	32726	32836	
1623	0	32736	32800	
1624	0	32696	32662	
1625	0	32768	32792	
1626	0	32668	32752	
1627	0	32828	32871	
1628	0	32984	32926	
1629	0	33308	32852	
1630	0	33560	32716	
1631	0	33546	32964	
1632	0	33372	32746	
1633	0	32932	32556	
1634	0	32568	32428	
1635	0	32450	32430	
1636	0	32304	32238	
1637	0	32262	32418	
1638	0	32308	32198	
1639	0	32444	32494	
1640	0	32452	32494	
1641	0	32436	32684	
1642	0	32408	32929	
1643	0	32404	32982	
1644	0	32320	33014	
1645	0	32358	33068	
1646	0	32440	33134	
1647	0	32606	32934	
1648	0	32740	32818	
1649	0	32884	32695	
1650	0	32996	32688	
1651	0	33050	32671	
1652	0	33220	32577	
1653	0	33212	32796	
1654	0	33232	32906	
1655	0	33146	32775	
1656	0	33110	32775	
1657	0	33026	32716	
1658	0	32936	32868	
1659	0	32992	32823	
1660	0	32944	32692	
1661	0	32940	32863	
1662	0	32902	32912	
1663	0	32918	32872	
1664	0	32982	32838	
1665	0	33048	32750	
1666	0	32868	32806	
1667	0	32780	32622	
1668	0	32782	32864	
1669	0	32748	32824	
1670	0	32832	32807	
1671	0	32788	32926	
1672	0	32760	32748	
1673	0	32804	32773	
1674	0	32794	32564	
1675	0	32674	32750	
1676	0	32606	32944	
1677	0	32668	32900	
1678	0	32748	32818	
1679	0	32764	32775	
1680	0	32772	32742	
1681	0	32844	32871	
1682	0	32838	32598	
1683	0	32834	32622	
1684	0	32814	32668	
1685	0	32802	32628	
1686	0	32780	32478	
1687	0	32836	32372	
1688	0	32754	32514	
1689	0	32804	32828	
1690	0	32696	32817	
1691	0	32718	32856	
1692	0	32772	32876	
1693	0	32692	32722	
1694	0	32784	32728	
1695	0	32940	32823	
1696	0	32958	32842	
1697	0	32952	32578	
1698	0	32922	32750	
1699	0	32856	32686	
1700	0	32858	32630	
1701	0	32880	32464	
1702	0	32852	32698	
1703	0	32902	32884	
1704	0	32902	32772	
1705	0	32848	32746	
1706	0	32804	32664	
1707	0	32686	32690	
1708	0	32740	32711	
1709	0	32730	32808	
1710	0	32698	32775	
1711	0	32836	33008	
1712	0	32940	32814	
1713	0	32918	32863	
1714	0	32870	32660	
1715	0	32912	32540	
1716	0	32828	32519	
1717	0	32746	32556	
1718	0	32930	32686	
1719	0	32906	32602	
1720	0	32684	32961	
1721	0	32672	32728	
1722	0	32560	32538	
1723	0	32434	32724	
1724	0	32216	32964	
1725	0	32298	33150	
1726	0	32444	32935	
1727	0	32456	32919	
1728	0	32516	32796	
1729	0	32694	32948	
1730	0	32900	33254	
1731	0	33012	33222	
1732	0	33194	32814	
1733	0	33452	32718	
1734	0	33476	32772	
1735	0	33124	32492	
1736	0	32864	32468	
1737	0	32596	32414	
1738	0	32224	32496	
1739	0	32076	32550	
1740	0	32208	32903	
1741	0	32616	32903	
1742	0	32884	32970	
1743	0	32972	32812	
1744	0	33252	32636	
1745	0	33118	32444	
1746	0	32788	32391	
1747	0	32620	32560	
1748	0	32532	32639	
1749	0	32652	32447	
1750	0	32884	32532	
1751	0	32984	32708	
1752	0	33166	32720	
1753	0	32962	33028	
1754	0	32780	32974	
1755	0	32760	33328	
1756	0	32800	33206	
1757	0	32752	32994	
1758	0	32498	32812	
1759	0	32438	32840	
1760	0	32508	32706	
1761	0	32478	32618	
1762	0	32586	32558	
1763	0	32732	32500	
1764	0	32696	32584	
1765	0	32872	32482	
1766	0	32920	32522	
1767	0	32964	32647	
1768	0	32948	32638	
1769	0	32970	32554	
1770	0	32928	32775	
1771	0	32912	32916	
1772	0	32954	32698	
1773	0	33064	32634	
1774	0	33100	32720	
1775	0	33008	32865	
1776	0	32946	33002	
1777	0	32960	32788	
1778	0	32960	32608	
1779	0	32906	32663	
1780	0	32824	32556	
1781	0	32836	32842	
1782	0	32732	32876	
1783	0	32660	32808	
1784	0	32732	32564	
1785	0	32584	32766	
1786	0	32684	32790	
1787	0	32724	32762	
1788	0	32804	32904	
1789	0	32660	32870	
1790	0	32740	32898	
1791	0	32704	32911	
1792	0	32812	32678	
1793	0	32750	32432	
1794	0	33102	32350	
1795	0	33120	32250	
1796	0	33092	32820	
1797	0	33038	32860	
1798	0	32926	32478	
1799	0	32760	32854	
1800	0	32692	33300	
1801	0	32660	33512	
1802	0	32672	33006	
1803	0	32640	32767	
1804	0	32638	32660	
1805	0	32692	32675	
1806	0	32778	32482	
1807	0	32970	32647	
1808	0	32900	32823	
1809	0	32686	32847	
1810	0	32672	32742	
1811	0	32612	32888	
1812	0	32524	32918	
1813	0	32700	32606	
1814	0	32860	32720	
1815	0	32888	32508	
1816	0	32920	32628	
1817	0	33206	32456	
1818	0	33268	32636	
1819	0	33048	32628	
1820	0	32860	32556	
1821	0	32686	32334	
1822	0	32722	32598	
1823	0	32836	33046	
1824	0	32804	32967	
1825	0	32688	32858	
1826	0	32920	33047	
1827	0	33258	33031	
1828	0	33172	33124	
1829	0	32720	33023	
1830	0	32312	32754	
1831	0	32118	32560	
1832	0	31916	32350	
1833	0	31904	32508	
1834	0	32022	32536	
1835	0	32356	32542	
1836	0	32408	32752	
1837	0	32912	32710	
1838	0	32828	32684	
1839	0	32828	32640	
1840	0	32772	32720	
1841	0	32818	32892	
1842	0	32876	33120	
1843	0	32828	32810	
1844	0	33136	32694	
1845	0	33402	32672	
1846	0	33844	32412	
1847	0	33668	32484	
1848	0	33144	32263	
1849	0	33064	32742	
1850	0	32804	32712	
1851	0	32776	32864	
1852	0	33012	32574	
1853	0	32908	32428	
1854	0	32700	32654	
1855	0	32350	32758	
1856	0	32326	33104	
1857	0	32638	33188	
1858	0	32682	33408	
1859	0	32740	33334	
1860	0	32740	33223	
1861	0	32640	33094	
1862	0	32432	32766	
1863	0	32248	32624	
1864	0	32322	32624	
1865	0	32420	32768	
1866	0	32502	32424	
1867	0	32734	32368	
1868	0	32908	32418	
1869	0	32852	32391	
1870	0	32672	32564	
1871	0	32676	32548	
1872	0	32682	32551	
1873	0	32868	32700	
1874	0	32960	32684	
1875	0	33050	32804	
1876	0	33224	32856	
1877	0	33266	32775	
1878	0	33276	32678	
1879	0	33220	32646	
1880	0	33178	32460	
1881	0	33232	32448	
1882	0	33072	32616	
1883	0	33016	32740	
1884	0	32848	32672	
1885	0	32908	33172	
1886	0	32884	33272	
1887	0	32764	32762	
1888	0	32700	33286	
1889	0	32628	33127	
1890	0	32654	32810	
1891	0	32864	32798	
1892	0	32910	32512	
1893	0	32784	32750	
1894	0	32720	32576	
1895	0	32782	32656	
1896	0	32810	32958	
1897	0	32740	33060	
1898	0	32716	32803	
1899	0	32680	32653	
1900	0	32648	32708	
1901	0	32598	32538	
1902	0	32748	32658	
1903	0	32888	32967	
1904	0	32834	32548	
1905	0	32740	32506	
1906	0	32826	32628	
1907	0	33044	32640	
1908	0	32902	32308	
1909	0	32990	32252	
1910	0	33252	32490	
1911	0	33114	32672	
1912	0	33128	32950	
1913	0	32946	33252	
1914	0	32576	33232	
1915	0	32086	32788	
1916	0	32340	31564	
1917	0	32332	31444	
1918	0	32410	32900	
1919	0	32804	34039	
1920	0	33124	34396	
1921	0	33196	33740	
1922	0	33090	33016	
1923	0	32800	32738	
1924	0	32536	32792	
1925	0	32396	33134	
1926	0	32366	33224	
1927	0	32410	32772	
1928	0	32244	32450	
1929	0	32244	32654	
1930	0	32264	32733	
1931	0	32356	32712	
1932	0	32616	32644	
1933	0	32932	32592	
1934	0	33036	31868	
1935	0	33410	31828	
1936	0	33583	32322	
1937	0	33356	32263	
1938	0	32932	32598	
1939	0	32760	32902	
1940	0	32785	32985	
1941	0	33102	32892	
1942	0	33448	33050	
1943	0	33708	32928	
1944	0	33612	32640	
1945	0	33420	32544	
1946	0	32928	32312	
1947	0	32524	32220	
1948	0	32240	32489	
1949	0	31984	32575	
1950	0	31886	32614	
1951	0	31826	33024	
1952	0	31944	33298	
1953	0	32108	33662	
1954	0	32556	33820	
1955	0	32806	33356	
1956	0	32880	32898	
1957	0	32924	33054	
1958	0	32944	32842	
1959	0	32976	32954	
1960	0	32996	32537	
1961	0	33188	32136	
1962	0	33298	32426	
1963	0	33364	32708	
1964	0	33228	32417	
1965	0	32980	32474	
1966	0	32884	32519	
1967	0	32844	32417	
1968	0	32904	32518	
1969	0	33008	32472	
1970	0	33000	32836	
1971	0	33056	32844	
1972	0	32884	32889	
1973	0	32964	33218	
1974	0	32896	33100	
1975	0	32840	33150	
1976	0	32558	32716	
1977	0	32492	32734	
1978	0	32377	32538	
1979	0	32406	32519	
1980	0	32436	32732	
1981	0	32356	32122	
1982	0	32446	32020	
1983	0	32546	32634	
1984	0	32636	32986	
1985	0	32680	33046	
1986	0	33380	32855	
1987	0	33536	33346	
1988	0	33100	33568	
1989	0	32708	33560	
1990	0	32576	33100	
1991	0	33034	32348	
1992	0	33678	32038	
1993	0	33856	32722	
1994	0	33558	32510	
1995	0	33130	33010	
1996	0	32996	32599	
1997	0	32644	32844	
1998	0	32165	33334	
1999	0	31980	33642	
2000	0	31992	32956	
2001	0	32225	32332	
2002	0	32604	31943	
2003	0	32780	30792	
2004	0	32552	32088	
2005	0	32178	33833	
2006	0	32172	34172	
2007	0	32180	33714	
2008	0	32482	33024	
2009	0	33048	32463	
2010	0	33226	32244	
2011	0	33200	32636	
2012	0	33130	32601	
2013	0	32940	32302	
2014	0	32928	32426	
2015	0	32820	32320	
2016	0	33072	32529	
2017	0	33172	32518	
2018	0	32742	32664	
2019	0	32824	33166	
2020	0	33202	33222	
2021	0	33526	32908	
2022	0	33410	32276	
2023	0	33368	32423	
2024	0	33182	32484	
2025	0	32840	32612	
2026	0	32560	32946	
2027	0	32624	33372	
2028	0	32884	33108	
2029	0	33154	32682	
2030	0	33130	32454	
2031	0	32484	32538	
2032	0	32148	32924	
2033	0	32186	33300	
2034	0	32164	32807	
2035	0	32252	32354	
2036	0	32136	32668	
2037	0	32224	32696	
2038	0	32324	32688	
2039	0	32504	32630	
2040	0	32480	32855	
2041	0	32982	33252	
2042	0	33320	33191	
2043	0	33024	32822	
2044	0	32968	33062	
2045	0	32840	32890	
2046	0	32720	32714	
2047	0	32900	32860	
2048	0	32929	32672	
2049	0	33016	32407	
2050	0	33080	31802	
2051	0	32962	31926	
2052	0	32840	32688	
2053	0	32808	32770	
2054	0	32938	32814	
2055	0	32992	32680	
2056	0	33092	33266	
2057	0	33028	32664	
2058	0	32996	32788	
2059	0	33096	33118	
2060	0	33116	32775	
2061	0	32896	32903	
2062	0	32897	33016	
2063	0	32852	32911	
2064	0	32700	32924	
2065	0	32590	32254	
2066	0	32594	32246	
2067	0	32752	32924	
2068	0	32852	32932	
2069	0	32940	32644	
2070	0	32940	32356	
2071	0	32812	32550	
2072	0	32834	32748	
2073	0	32784	32892	
2074	0	32764	33286	
2075	0	32752	33512	
2076	0	32810	33319	
2077	0	32812	33180	
2078	0	32930	33124	
2079	0	33084	33058	
2080	0	33016	32615	
2081	0	33124	32046	
2082	0	32984	31902	
2083	0	32855	31934	
2084	0	32662	32162	
2085	0	32328	32583	
2086	0	32302	32830	
2087	0	32378	32914	
2088	0	32408	33506	
2089	0	32530	33340	
2090	0	32764	33082	
2091	0	32876	33230	
2092	0	32860	32614	
2093	0	32949	32092	
2094	0	32932	31622	
2095	0	33032	32327	
2096	0	33220	32582	
2097	0	33380	32584	
2098	0	32752	33001	
2099	0	32148	33240	
2100	0	31861	33660	
2101	0	31888	32928	
2102	0	32254	32422	
2103	0	32692	32806	
2104	0	33064	33052	
2105	0	32980	32964	
2106	0	32860	32772	
2107	0	32668	32696	
2108	0	32924	32426	
2109	0	33022	32468	
2110	0	32888	32666	
2111	0	32812	32753	
2112	0	32798	32812	
2113	0	32812	33007	
2114	0	32872	32916	
2115	0	32894	32294	
2116	0	32840	32482	
2117	0	33052	32995	
2118	0	33068	33015	
2119	0	33200	32980	
2120	0	32918	32646	
2121	0	32548	32480	
2122	0	32392	33164	
2123	0	32420	34048	
2124	0	32416	33361	
2125	0	32552	32212	
2126	0	33000	31794	
2127	0	33200	31898	
2128	0	33248	32514	
2129	0	33740	32383	
2130	0	33420	32148	
2131	0	33048	32414	
2132	0	32904	33096	
2133	0	33136	33742	
2134	0	32864	33794	
2135	0	32634	33536	
2136	0	32458	33212	
2137	0	32564	32476	
2138	0	32554	32625	
2139	0	32656	32348	
2140	0	32580	32500	
2141	0	32576	32478	
2142	0	32616	32584	
2143	0	32692	32538	
2144	0	32774	32588	
2145	0	32676	32624	
2146	0	32648	32750	
2147	0	32732	32646	
2148	0	33072	32614	
2149	0	33082	32564	
2150	0	33064	31997	
2151	0	32884	32658	
2152	0	32864	33176	
2153	0	33032	33452	
2154	0	33286	33016	
2155	0	33514	33012	
2156	0	33254	33120	
2157	0	32808	33322	
2158	0	32324	33232	
2159	0	32284	32724	
2160	0	32192	32410	
2161	0	32164	32759	
2162	0	32422	33216	
2163	0	32382	33329	
2164	0	32404	32664	
2165	0	32438	32622	
2166	0	32536	32646	
2167	0	32636	32518	
2168	0	32720	32494	
2169	0	32916	32576	
2170	0	33052	32526	
2171	0	33100	32678	
2172	0	33114	32574	
2173	0	33080	32726	
2174	0	32980	32679	
2175	0	32864	32940	
2176	0	32846	32791	
2177	0	32820	33015	
2178	0	32800	32798	
2179	0	32820	32518	
2180	0	32956	32504	
2181	0	33204	32647	
2182	0	33254	32196	
2183	0	33088	32760	
2184	0	32976	32800	
2185	0	32918	32896	
2186	0	32904	32708	
2187	0	32722	33164	
2188	0	32620	33388	
2189	0	32544	33307	
2190	0	32632	32714	
2191	0	32650	32596	
2192	0	32648	32484	
2193	0	32672	32500	
2194	0	32716	32544	
2195	0	32856	32707	
2196	0	32954	32730	
2197	0	32756	32639	
2198	0	32660	32548	
2199	0	32446	32775	
2200	0	32540	32446	
2201	0	32608	32574	
2202	0	32612	32464	
2203	0	32838	32672	
2204	0	32826	32884	
2205	0	32948	32702	
2206	0	33254	32566	
2207	0	33052	32935	
2208	0	32852	33110	
2209	0	32876	32278	
2210	0	32668	32592	
2211	0	32924	33524	
2212	0	32994	33096	
2213	0	33188	32666	
2214	0	33328	32350	
2215	0	33520	32704	
2216	0	33508	32468	
2217	0	33024	32812	
2218	0	32410	33012	
2219	0	32320	33276	
2220	0	32382	33108	
2221	0	32432	33094	
2222	0	32615	32636	
2223	0	32656	32481	
2224	0	32620	32442	
2225	0	32504	32592	
2226	0	32526	32826	
2227	0	32614	32830	
2228	0	32794	32656	
2229	0	32768	32852	
2230	0	32640	32999	
2231	0	32548	32786	
2232	0	32636	32756	
2233	0	32688	32684	
2234	0	32852	32690	
2235	0	33024	32620	
2236	0	32992	32712	
2237	0	32962	32673	
2238	0	32964	32622	
2239	0	33376	32458	
2240	0	33336	32828	
2241	0	33064	33086	
2242	0	32744	33008	
2243	0	32544	32894	
2244	0	32530	32688	
2245	0	32828	32568	
2246	0	32772	32580	
2247	0	32796	32756	
2248	0	32780	32406	
2249	0	32898	32766	
2250	0	32730	32758	
2251	0	32688	33014	
2252	0	32594	32999	
2253	0	32700	33012	
2254	0	32744	32906	
2255	0	32932	32810	
2256	0	32816	32910	
2257	0	32800	32674	
2258	0	32810	32759	
2259	0	32836	32794	
2260	0	32732	32730	
2261	0	32848	32492	
2262	0	32924	32900	
2263	0	32820	32684	
2264	0	32792	32540	
2265	0	32756	32603	
2266	0	32816	32486	
2267	0	32842	33031	
2268	0	32964	33184	
2269	0	32992	32918	
2270	0	33256	32626	
2271	0	33092	32462	
2272	0	32916	32588	
2273	0	32912	32688	
2274	0	32794	32798	
2275	0	32868	32903	
2276	0	33258	33196	
2277	0	33152	33068	
2278	0	32776	32546	
2279	0	32460	32590	
2280	0	32120	32572	
2281	0	32250	32752	
2282	0	32580	32486	
2283	0	32812	32980	
2284	0	32946	32902	
2285	0	33088	32664	
2286	0	32810	32972	
2287	0	32684	32924	
2288	0	32650	32668	
2289	0	32950	32760	
2290	0	33102	32580	
2291	0	33108	32832	
2292	0	32870	32626	
2293	0	32656	32519	
2294	0	32436	32648	
2295	0	32488	32768	
2296	0	32564	32490	
2297	0	32620	32734	
2298	0	32606	33216	
2299	0	32546	32936	
2300	0	32548	32856	
2301	0	32720	32678	
2302	0	32912	32484	
2303	0	32980	32596	
2304	0	33084	33006	
2305	0	33076	32775	
2306	0	33136	32660	
2307	0	33226	33166	
2308	0	33256	33020	
2309	0	33000	32724	
2310	0	32964	32775	
2311	0	32917	32678	
2312	0	32850	32796	
2313	0	32820	32916	
2314	0	32752	32977	
2315	0	32744	33014	
2316	0	32656	33106	
2317	0	32712	32868	
2318	0	32832	32292	
2319	0	32820	32095	
2320	0	32804	33287	
2321	0	32774	33350	
2322	0	32898	32606	
2323	0	32734	32290	
2324	0	32612	32186	
2325	0	32592	32292	
2326	0	32738	32398	
2327	0	32952	32442	
2328	0	32628	32529	
2329	0	32648	32647	
2330	0	32676	32552	
2331	0	32682	32705	
2332	0	32624	32942	
2333	0	32744	32886	
2334	0	32908	32775	
2335	0	33098	32878	
2336	0	33072	32732	
2337	0	32878	33070	
2338	0	32896	32834	
2339	0	32850	32804	
2340	0	32836	32860	
2341	0	32956	32784	
2342	0	33056	32988	
2343	0	33180	33232	
2344	0	33384	33070	
2345	0	33551	33287	
2346	0	33294	33256	
2347	0	32768	32684	
2348	0	32128	32468	
2349	0	31812	32508	
2350	0	31884	32703	
2351	0	31988	32879	
2352	0	32271	32742	
2353	0	32452	32750	
2354	0	32548	32614	
2355	0	32656	32775	
2356	0	32618	32903	
2357	0	32622	32796	
2358	0	32754	32736	
2359	0	32976	32738	
2360	0	33176	32716	
2361	0	33116	32808	
2362	0	33060	32704	
2363	0	33328	32871	
2364	0	33152	32689	
2365	0	33000	32852	
2366	0	32828	32855	
2367	0	32738	32364	
2368	0	32840	32614	
2369	0	33220	33050	
2370	0	33336	33098	
2371	0	33384	33192	
2372	0	33332	32823	
2373	0	33060	32903	
2374	0	32810	32854	
2375	0	32648	32614	
2376	0	32624	32343	
2377	0	32560	32730	
2378	0	32428	32602	
2379	0	32414	32676	
2380	0	32492	32380	
2381	0	32588	32688	
2382	0	32692	32628	
2383	0	32730	32841	
2384	0	32920	32842	
2385	0	32920	33024	
2386	0	32815	32775	
2387	0	32929	32657	
2388	0	32912	32655	
2389	0	32908	32704	
2390	0	33000	32622	
2391	0	32964	32988	
2392	0	32884	32988	
2393	0	32876	32870	
2394	0	32952	32593	
2395	0	32914	32800	
2396	0	33120	32899	
2397	0	33134	32868	
2398	0	32874	32596	
2399	0	32656	32540	
2400	0	32480	32678	
2401	0	32448	32942	
2402	0	32584	32808	
2403	0	32664	32628	
2404	0	32742	32554	
2405	0	32708	32842	
2406	0	32648	32690	
2407	0	32632	32519	
2408	0	32740	32775	
2409	0	32722	32968	
2410	0	32790	32744	
2411	0	32910	32951	
2412	0	32992	33054	
2413	0	32896	33262	
2414	0	32938	32710	
2415	0	32850	32336	
2416	0	32768	32517	
2417	0	32804	32758	
2418	0	32916	33070	
2419	0	32948	32858	
2420	0	32894	32481	
2421	0	32804	33004	
2422	0	32946	33083	
2423	0	33252	32704	
2424	0	33428	32358	
2425	0	33376	32430	
2426	0	33124	32676	
2427	0	32928	32932	
2428	0	32872	33126	
2429	0	32560	33015	
2430	0	32458	32775	
2431	0	32428	32490	
2432	0	32354	32608	
2433	0	32344	32486	
2434	0	32480	32642	
2435	0	32636	32666	
2436	0	32636	32808	
2437	0	32736	32910	
2438	0	32806	32730	
2439	0	32704	32935	
2440	0	32732	32775	
2441	0	32772	32566	
2442	0	32902	32652	
2443	0	32940	32714	
2444	0	33004	32866	
2445	0	32968	32934	
2446	0	32928	32976	
2447	0	32942	32782	
2448	0	32944	32940	
2449	0	32942	32551	
2450	0	32948	32526	
2451	0	32974	32710	
2452	0	33016	32702	
2453	0	32912	32704	
2454	0	32800	32775	
2455	0	32732	32956	
2456	0	32728	32754	
2457	0	32820	32698	
2458	0	32890	32674	
2459	0	32896	32844	
2460	0	32920	32674	
2461	0	32844	32702	
2462	0	32868	32684	
2463	0	32664	32822	
2464	0	32760	32746	
2465	0	32824	32730	
2466	0	32772	32730	
2467	0	32628	32716	
2468	0	32578	32898	
2469	0	32696	33018	
2470	0	32932	32694	
2471	0	32932	32900	
2472	0	33044	32684	
2473	0	33060	32711	
2474	0	32884	32702	
2475	0	32828	32807	
2476	0	32678	32668	
2477	0	32624	32804	
2478	0	32448	32716	
2479	0	32472	32596	
2480	0	32524	32636	
2481	0	32644	32644	
2482	0	32767	32814	
2483	0	32976	32818	
2484	0	32984	32828	
2485	0	32752	32879	
2486	0	32572	32736	
2487	0	32828	32676	
2488	0	32908	32868	
2489	0	33132	32766	
2490	0	33124	32662	
2491	0	33032	32420	
2492	0	32953	32918	
2493	0	32984	32938	
2494	0	32980	32837	
2495	0	33134	32714	
2496	0	32956	32752	
2497	0	32770	32978	
2498	0	32700	32839	
2499	0	32568	32760	
2500	0	32536	32722	
2501	0	32416	32791	
2502	0	32424	32814	
2503	0	32516	33056	
2504	0	32612	32656	
2505	0	32648	32794	
2506	0	32774	32702	
2507	0	32892	32754	
2508	0	32922	32768	
2509	0	32880	32752	
2510	0	32868	32738	
2511	0	32857	32785	
2512	0	32836	32723	
2513	0	32710	32716	
2514	0	32824	32728	
2515	0	32960	32622	
2516	0	33016	32796	
2517	0	32982	32775	
2518	0	33040	32862	
2519	0	32910	32686	
2520	0	32780	32592	
2521	0	32792	32793	
2522	0	32636	32858	
2523	0	32650	33016	
2524	0	32766	32887	
2525	0	32820	32736	
2526	0	32966	32820	
2527	0	33016	32710	
2528	0	32840	32622	
2529	0	32632	32689	
2530	0	32722	32751	
2531	0	32812	32516	
2532	0	32672	32821	
2533	0	32616	32874	
2534	0	32562	32889	
2535	0	32448	32966	
2536	0	32488	32946	
2537	0	32436	32826	
2538	0	32584	32690	
2539	0	32588	32644	
2540	0	32548	32528	
2541	0	32516	32548	
2542	0	32538	32556	
2543	0	32574	32736	
2544	0	32570	32686	
2545	0	32696	32680	
2546	0	32700	32676	
2547	0	32758	32862	
2548	0	32696	32888	
2549	0	32860	32700	
2550	0	32912	32860	
2551	0	32769	32734	
2552	0	32836	32656	
2553	0	32732	32708	
2554	0	32832	32775	
2555	0	32900	32767	
2556	0	32932	32792	
2557	0	33114	32863	
2558	0	32980	33024	
2559	0	32920	32888	
2560	0	32936	32928	
2561	0	32940	32714	
2562	0	32928	32740	
2563	0	32980	32508	
2564	0	32976	32775	
2565	0	32918	32800	
2566	0	32870	32784	
2567	0	32992	32818	
2568	0	32916	32838	
2569	0	32960	32722	
2570	0	33000	32738	
2571	0	33098	32796	
2572	0	33124	32591	
2573	0	33058	32682	
2574	0	32960	32804	
2575	0	32976	32748	
2576	0	33048	32810	
2577	0	33046	32698	
2578	0	32980	32726	
2579	0	32832	32846	
2580	0	32846	32840	
2581	0	32780	32954	
2582	0	32750	33000	
2583	0	32760	32956	
2584	0	32772	32860	
2585	0	32792	32716	
2586	0	32824	32620	
2587	0	32764	32672	
2588	0	32794	32676	
2589	0	32806	32806	
2590	0	32764	32824	
2591	0	32864	32895	
2592	0	32812	32748	
2593	0	32850	32676	
2594	0	32884	32752	
2595	0	32863	32609	
2596	0	32792	32820	
2597	0	32800	32786	
2598	0	32848	32828	
2599	0	32852	32716	
2600	0	32908	32684	
2601	0	32898	32600	
2602	0	32900	32663	
2603	0	32846	32850	
2604	0	32794	32864	
2605	0	32784	32800	
2606	0	32796	32910	
2607	0	32868	32820	
2608	0	32888	32994	
2609	0	32856	32760	
2610	0	32804	32712	
2611	0	32800	32630	
2612	0	32756	32668	
2613	0	32724	32770	
2614	0	32822	32644	
2615	0	32840	32600	
2616	0	32860	32726	
2617	0	32798	32775	
2618	0	32788	32796	
2619	0	32664	32740	
2620	0	32758	32666	
2621	0	32764	32622	
2622	0	32800	32815	
2623	0	32874	32689	
2624	0	32872	32984	
2625	0	32958	33070	
2626	0	32840	32913	
2627	0	32782	32978	
2628	0	32864	32886	
2629	0	32896	32804	
2630	0	32860	32592	
2631	0	32808	32566	
2632	0	32830	32672	
2633	0	32848	32766	
2634	0	32796	32615	
2635	0	32800	32638	
2636	0	32741	32724	
2637	0	32766	32582	
2638	0	32728	32884	
2639	0	32760	32706	
2640	0	32778	32620	
2641	0	32678	32590	
2642	0	32666	32788	
2643	0	32686	32962	
2644	0	32718	32842	
2645	0	32696	32871	
2646	0	32672	32704	
2647	0	32708	32519	
2648	0	32834	32544	
2649	0	32974	32798	
2650	0	32972	32690	
2651	0	33028	32758	
2652	0	33004	32714	
2653	0	32916	32840	
2654	0	32760	33046	
2655	0	32752	33060	
2656	0	32872	33118	
2657	0	32818	33052	
2658	0	32742	32750	
2659	0	32712	32464	
2660	0	32724	32512	
2661	0	32730	32687	
2662	0	32820	32775	
2663	0	32860	32775	
2664	0	32902	32711	
2665	0	32852	32826	
2666	0	32900	32654	
2667	0	32866	32766	
2668	0	32780	32666	
2669	0	32732	32550	
2670	0	32750	32641	
2671	0	32814	32772	
2672	0	32832	32820	
2673	0	32798	32974	
2674	0	32832	32942	
2675	0	32864	32990	
2676	0	32856	32772	
2677	0	32696	32738	
2678	0	32796	32652	
2679	0	32776	32824	
2680	0	32788	32738	
2681	0	32876	32640	
2682	0	32896	32794	
2683	0	32944	32862	
2684	0	32952	32740	
2685	0	32888	32775	
2686	0	32840	32842	
2687	0	32864	32872	
2688	0	32856	32775	
2689	0	32842	32775	
2690	0	32802	32770	
2691	0	32780	32798	
2692	0	32804	32602	
2693	0	32944	32636	
2694	0	32824	32728	
2695	0	32932	32560	
2696	0	32816	32602	
2697	0	32872	32800	
2698	0	32881	32964	
2699	0	32874	32896	
2700	0	32890	32794	
2701	0	32858	32657	
2702	0	32852	32812	
2703	0	32898	32884	
2704	0	32856	32890	
2705	0	32844	32934	
2706	0	32850	33018	
2707	0	32888	32916	
2708	0	32974	32804	
2709	0	32948	32660	
2710	0	32704	32798	
2711	0	32764	32730	
2712	0	32720	32616	
2713	0	32762	32526	
2714	0	32728	32660	
2715	0	32804	32640	
2716	0	32864	32775	
2717	0	32880	32702	
2718	0	32760	32775	
2719	0	32804	32583	
2720	0	32736	32510	
2721	0	32756	32647	
2722	0	32788	32694	
2723	0	32658	32720	
2724	0	32660	32790	
2725	0	32618	32994	
2726	0	32536	32951	
2727	0	32618	32724	
2728	0	32596	32870	
2729	0	32612	32636	
2730	0	32738	32512	
2731	0	32840	32428	
2732	0	32756	32644	
2733	0	32770	32694	
2734	0	32784	32890	
2735	0	32880	32740	
2736	0	32704	32842	
2737	0	32858	32725	
2738	0	32868	32856	
2739	0	32798	32886	
2740	0	32822	32972	
2741	0	32762	32802	
2742	0	32668	32788	
2743	0	32624	32812	
2744	0	32620	32786	
2745	0	32640	32727	
2746	0	32660	32928	
2747	0	32730	32854	
2748	0	32676	32882	
2749	0	32752	32880	
2750	0	32800	32910	
2751	0	32892	32714	
2752	0	32852	32743	
2753	0	32828	32794	
2754	0	32832	32794	
2755	0	32874	32899	
2756	0	32928	33020	
2757	0	32832	32866	
2758	0	32838	32996	
2759	0	32826	32823	
2760	0	32860	32767	
2761	0	32768	32775	
2762	0	32814	32855	
2763	0	32768	32796	
2764	0	32760	32730	
2765	0	32868	32679	
2766	0	32876	32866	
2767	0	32800	32646	
2768	0	32786	32756	
2769	0	32858	32876	
2770	0	32844	32826	
2771	0	32868	32746	
2772	0	32836	32724	
2773	0	32866	32858	
2774	0	32792	32839	
2775	0	32822	32606	
2776	0	32816	32642	
2777	0	32728	32664	
2778	0	32792	32844	
2779	0	32756	32774	
2780	0	32766	32758	
2781	0	32820	32694	
2782	0	32752	32729	
2783	0	32713	32834	
2784	0	32800	32846	
2785	0	32766	32871	
2786	0	32820	32864	
2787	0	32872	32838	
2788	0	32800	32752	
2789	0	32824	32871	
2790	0	32810	32788	
2791	0	32818	32868	
2792	0	32882	32734	
2793	0	32868	32738	
2794	0	32778	32782	
2795	0	32844	32828	
2796	0	32906	32710	
2797	0	32876	32788	
2798	0	32862	32612	
2799	0	32832	32711	
2800	0	32848	32686	
2801	0	32768	32744	
2802	0	32808	32720	
2803	0	32784	32775	
2804	0	32748	32718	
2805	0	32816	32676	
2806	0	32800	32814	
2807	0	32768	32739	
2808	0	32730	32819	
2809	0	32740	32772	
2810	0	32750	32727	
2811	0	32770	32632	
2812	0	32804	32938	
2813	0	32846	32894	
2814	0	32828	32698	
2815	0	32820	32890	
2816	0	32880	32654	
2817	0	32836	32732	
2818	0	32876	32786	
2819	0	32864	32542	
2820	0	32828	32720	
2821	0	32752	32748	
2822	0	32814	33024	
2823	0	32890	32934	
2824	0	32848	32943	
2825	0	32850	32900	
2826	0	32821	32770	
2827	0	32780	32746	
2828	0	32812	32722	
2829	0	32784	32672	
2830	0	32834	32666	
2831	0	32834	32644	
2832	0	32840	32566	
2833	0	32884	32762	
2834	0	32812	32800	
2835	0	32824	32964	
2836	0	32844	32852	
2837	0	32848	32687	
2838	0	32894	32698	
2839	0	32858	32626	
2840	0	32820	32712	
2841	0	32884	32647	
2842	0	32832	32789	
2843	0	32784	32788	
2844	0	32826	32839	
2845	0	32804	32694	
2846	0	32844	32886	
2847	0	32810	32850	
2848	0	32752	32896	
2849	0	32924	32788	
2850	0	32840	32821	
2851	0	32846	32816	
2852	0	32806	32710	
2853	0	32848	32820	
2854	0	32808	32696	
2855	0	32860	32742	
2856	0	32848	32638	
2857	0	32832	32884	
2858	0	32848	32714	
2859	0	32852	32692	
2860	0	32848	32704	
2861	0	32760	32832	
2862	0	32840	32948	
2863	0	32802	32874	
2864	0	32876	32903	
2865	0	32860	32814	
2866	0	32810	32780	
2867	0	32826	32656	
2868	0	32748	32714	
2869	0	32790	32686	
2870	0	32794	32775	
2871	0	32828	32839	
2872	0	32840	32860	
2873	0	32784	32910	
2874	0	32790	32806	
2875	0	32764	32860	
2876	0	32796	32724	
2877	0	32880	32686	
2878	0	32826	32706	
2879	0	32759	32740	
2880	0	32712	32722	
2881	0	32750	32820	
2882	0	32840	32708	
2883	0	32902	32804	
2884	0	32896	32682	
2885	0	32764	32807	
2886	0	32798	32676	
2887	0	32748	32744	
2888	0	32800	32774	
2889	0	32824	32942	
2890	0	32828	32888	
2891	0	32824	32842	
2892	0	32808	32966	
2893	0	32854	32846	
2894	0	32804	32828	
2895	0	32846	32952	
2896	0	32810	32804	
2897	0	32844	32774	
2898	0	32808	32676	
2899	0	32790	32656	
2900	0	32856	32598	
2901	0	32808	32558	
2902	0	32832	32679	
2903	0	32948	32642	
2904	0	32844	32746	
2905	0	32816	32772	
2906	0	32782	32826	
2907	0	32778	32676	
2908	0	32788	32867	
2909	0	32764	32852	
2910	0	32872	32839	
2911	0	32836	32834	
2912	0	32820	32722	
2913	0	32836	32758	
2914	0	32836	32742	
2915	0	32804	32711	
2916	0	32802	32758	
2917	0	32808	32760	
2918	0	32706	32670	
2919	0	32704	32736	
2920	0	32828	32714	
2921	0	32744	32800	
2922	0	32732	32692	
2923	0	32812	32696	
2924	0	32824	32686	
2925	0	32838	32730	
2926	0	32830	32642	
2927	0	32822	32734	
2928	0	32872	32719	
2929	0	32806	32834	
2930	0	32828	32838	
2931	0	32732	32852	
2932	0	32804	32695	
2933	0	32794	32802	
2934	0	32816	32764	
2935	0	32800	32916	
2936	0	32855	32812	
2937	0	32824	32844	
2938	0	32914	32854	
2939	0	32874	32872	
2940	0	32836	32804	
2941	0	32879	32640	
2942	0	32812	32846	
2943	0	32798	32850	
2944	0	32832	32830	
2945	0	32859	32634	
2946	0	32696	32798	
2947	0	32728	32843	
2948	0	32756	32889	
2949	0	32770	32804	
2950	0	32852	32804	
2951	0	32772	32795	
2952	0	32792	32670	
2953	0	32792	32708	
2954	0	32894	32793	
2955	0	32844	32912	
2956	0	32844	32988	
2957	0	32812	32856	
2958	0	32808	32730	
2959	0	32816	32660	
2960	0	32848	32478	
2961	0	32872	32774	
2962	0	32894	32887	
2963	0	32812	32962	
2964	0	32854	32935	
2965	0	32890	32832	
2966	0	32800	32810	
2967	0	32788	32719	
2968	0	32804	32800	
2969	0	32748	32718	
2970	0	32808	32732	
2971	0	32878	32743	
2972	0	32842	32826	
2973	0	32800	32703	
2974	0	32852	32644	
2975	0	32794	32764	
2976	0	32820	32820	
2977	0	32896	32863	
2978	0	32896	32924	
2979	0	32854	32932	
2980	0	32826	32855	
2981	0	32892	32916	
2982	0	32868	32818	
2983	0	32769	32774	
2984	0	32882	32791	
2985	0	32884	32823	
2986	0	32904	32900	
2987	0	32840	32764	
2988	0	32838	32884	
2989	0	32868	32863	
2990	0	32940	32854	
2991	0	32804	32830	
2992	0	32832	32942	
2993	0	32788	32679	
2994	0	32820	32726	
2995	0	32748	32622	
2996	0	32728	32598	
2997	0	32698	32404	
2998	0	32568	32412	
2999	0	32482	32316	
3000	0	32548	32391	
3001	0	32600	32484	
3002	0	32636	32662	
3003	0	32724	32647	
3004	0	32742	32676	
3005	0	32798	32716	
3006	0	32810	32864	
3007	0	32848	32836	
3008	0	32786	32720	
3009	0	32834	32871	
3010	0	32848	32974	
3011	0	32880	32858	
3012	0	32888	32898	
3013	0	32944	32904	
3014	0	32918	33000	
3015	0	32924	32988	
3016	0	32956	32866	
3017	0	32880	32862	
3018	0	32852	32695	
3019	0	32798	32688	
3020	0	32868	32734	
3021	0	32876	32963	
3022	0	32856	32903	
3023	0	32844	32697	
3024	0	32804	32718	
3025	0	32876	32744	
3026	0	32860	32690	
3027	0	32798	32882	
3028	0	32816	32761	
3029	0	32792	32934	
3030	0	32762	32692	
3031	0	32806	32716	
3032	0	32752	32711	
3033	0	32748	32702	
3034	0	32796	32646	
3035	0	32796	32748	
3036	0	32786	32616	
3037	0	32844	32918	
3038	0	32766	32728	
3039	0	32808	32836	
3040	0	32812	32862	
3041	0	32826	32860	
3042	0	32842	32774	
3043	0	32812	32868	
3044	0	32752	32775	
3045	0	32816	32750	
3046	0	32800	32784	
3047	0	32732	32644	
3048	0	32838	32748	
3049	0	32860	32718	
3050	0	32896	32676	
3051	0	32810	32728	
3052	0	32866	32828	
3053	0	32764	32758	
3054	0	32788	32857	
3055	0	32844	32898	
3056	0	32868	32764	
3057	0	32782	32980	
3058	0	32776	32919	
3059	0	32808	32929	
3060	0	32828	32775	
3061	0	32780	32664	
3062	0	32800	32612	
3063	0	32834	32640	
3064	0	32840	32710	
3065	0	32858	32740	
3066	0	32764	32871	
3067	0	32804	32808	
3068	0	32852	32768	
3069	0	32852	32834	
3070	0	32822	32730	
3071	0	32808	32788	
3072	0	32824	32743	
3073	0	32832	32718	
3074	0	32850	32775	
3075	0	32836	32740	
3076	0	32848	32824	
3077	0	32790	32807	
3078	0	32852	32728	
3079	0	32852	32854	
3080	0	32764	32692	
3081	0	32751	32698	
3082	0	32782	32664	
3083	0	32836	32794	
3084	0	32830	32812	
3085	0	32804	32850	
3086	0	32821	32732	
3087	0	32744	32862	
3088	0	32820	32852	
3089	0	32796	32740	
3090	0	32828	32842	
3091	0	32760	32800	
3092	0	32856	32903	
3093	0	32848	32889	
3094	0	32894	32820	
3095	0	32848	32708	
3096	0	32860	32775	
3097	0	32804	32692	
3098	0	32832	32732	
3099	0	32814	32608	
3100	0	32832	32723	
3101	0	32808	32646	
3102	0	32846	32718	
3103	0	32856	32562	
3104	0	32814	32672	
3105	0	32856	32646	
3106	0	32800	32738	
3107	0	32752	32708	
3108	0	32820	32732	
3109	0	32802	32634	
3110	0	32846	32726	
3111	0	32868	32676	
3112	0	32744	32647	
3113	0	32792	32850	
3114	0	32796	32775	
3115	0	32752	32892	
3116	0	32846	32860	
3117	0	32846	32786	
3118	0	32852	32886	
3119	0	32850	32872	
3120	0	32860	32887	
3121	0	32804	32814	
3122	0	32768	32684	
3123	0	32850	32772	
3124	0	32868	32702	
3125	0	32824	32753	
3126	0	32780	32723	
3127	0	32728	32820	
3128	0	32850	32726	
3129	0	32798	32788	
3130	0	32804	32840	
3131	0	32770	32630	
3132	0	32800	32740	
3133	0	32836	32668	
3134	0	32808	32768	
3135	0	32804	32768	
3136	0	32774	32810	
3137	0	32880	32804	
3138	0	32816	32895	
3139	0	32880	32630	
3140	0	32736	32731	
3141	0	32844	32663	
3142	0	32820	32775	
3143	0	32800	32888	
3144	0	32834	32808	
3145	0	32810	32733	
3146	0	32744	32768	
3147	0	32792	32902	
3148	0	32858	32860	
3149	0	32738	32756	
3150	0	32816	32852	
3151	0	32812	32644	
3152	0	32780	32710	
3153	0	32792	32744	
3154	0	32784	32720	
3155	0	32846	32678	
3156	0	32816	32694	
3157	0	32760	32680	
3158	0	32792	32662	
3159	0	32802	32690	
3160	0	32880	32636	
3161	0	32864	32614	
3162	0	32865	32500	
3163	0	32892	32618	
3164	0	32788	32634	
3165	0	32780	32806	
3166	0	32832	32750	
3167	0	32812	32902	
3168	0	32804	32834	
3169	0	32784	32972	
3170	0	32798	33050	
3171	0	32828	32807	
3172	0	32778	32810	
3173	0	32888	32792	
3174	0	32828	32918	
3175	0	32888	32828	
3176	0	32768	32836	
3177	0	32784	32742	
3178	0	32828	32879	
3179	0	32754	32846	
3180	0	32778	32805	
3181	0	32828	32781	
3182	0	32824	32682	
3183	0	32764	32724	
3184	0	32800	32702	
3185	0	32814	32755	
3186	0	32802	32760	
3187	0	32784	32716	
3188	0	32788	32664	
3189	0	32830	32775	
3190	0	32856	32734	
3191	0	32840	32796	
3192	0	32848	32630	
3193	0	32828	32748	
3194	0	32752	32791	
3195	0	32872	32826	
3196	0	32832	32730	
3197	0	32768	32870	
3198	0	32852	32906	
3199	0	32740	32886	
3200	0	32804	32836	
3201	0	32852	32775	
3202	0	32836	32858	
3203	0	32812	32772	
3204	0	32900	32775	
3205	0	32726	32708	
3206	0	32828	32796	
3207	0	32828	32824	
3208	0	32810	32807	
3209	0	32792	32616	
3210	0	32804	32736	
3211	0	32780	32775	
3212	0	32836	32642	
3213	0	32872	32710	
3214	0	32834	32670	
3215	0	32774	32894	
3216	0	32876	32812	
3217	0	32842	32908	
3218	0	32724	32716	
3219	0	32784	32772	
3220	0	32854	32817	
3221	0	32788	32743	
3222	0	32784	32774	
3223	0	32812	32732	
3224	0	32842	32804	
3225	0	32760	32734	
3226	0	32778	32700	
3227	0	32780	32792	
3228	0	32824	32726	
3229	0	32828	32791	
3230	0	32834	32688	
3231	0	32756	32770	
3232	0	32844	32862	
3233	0	32796	32750	
3234	0	32872	32847	
3235	0	32840	32750	
3236	0	32812	32834	
3237	0	32780	32695	
3238	0	32856	32742	
3239	0	32770	32644	
3240	0	32808	32722	
3241	0	32778	32708	
3242	0	32816	32782	
3243	0	32784	32894	
3244	0	32806	32810	
3245	0	32824	32800	
3246	0	32828	32821	
3247	0	32772	32903	
3248	0	32766	32690	
3249	0	32832	32804	
3250	0	32836	32724	
3251	0	32896	32687	
3252	0	32824	32612	
3253	0	32780	32706	
3254	0	32768	32604	
3255	0	32808	32704	
3256	0	32756	32692	
3257	0	32794	32792	
3258	0	32852	32692	
3259	0	32868	32775	
3260	0	32892	32680	
3261	0	32896	32650	
3262	0	32826	32663	
3263	0	32809	32894	
3264	0	32832	32903	
3265	0	32780	32980	
3266	0	32842	32804	
3267	0	32810	32694	
3268	0	32780	32784	
3269	0	32824	32698	
3270	0	32774	32704	
3271	0	32760	32604	
3272	0	32784	32839	
3273	0	32824	32784	
3274	0	32826	32906	
3275	0	32856	32878	
3276	0	32862	32820	
3277	0	32792	32788	
3278	0	32792	32652	
3279	0	32834	32690	
3280	0	32784	32720	
3281	0	32800	32732	
3282	0	32810	32639	
3283	0	32808	32700	
3284	0	32836	32708	
3285	0	32866	32775	
3286	0	32798	32721	
3287	0	32812	32807	
3288	0	32896	32839	
3289	0	32760	32839	
3290	0	32740	32767	
3291	0	32780	32814	
3292	0	32812	32835	
3293	0	32784	32718	
3294	0	32882	32708	
3295	0	32888	32746	
3296	0	32744	32743	
3297	0	32840	32578	
3298	0	32766	32754	
3299	0	32776	32922	
3300	0	32750	32968	
3301	0	32806	32820	
3302	0	32834	32903	
3303	0	32748	32804	
3304	0	32864	32647	
3305	0	32888	32644	
3306	0	32772	32708	
3307	0	32824	32648	
3308	0	32828	32820	
3309	0	32816	32879	
3310	0	32804	32840	
3311	0	32754	32956	
3312	0	32832	32834	
3313	0	32824	32806	
3314	0	32824	32642	
3315	0	32820	32790	
3316	0	32840	32662	
3317	0	32792	32883	
3318	0	32830	32775	
3319	0	32812	32760	
3320	0	32772	32806	
3321	0	32890	32746	
3322	0	32844	32722	
3323	0	32820	32675	
3324	0	32788	32811	
3325	0	32774	32724	
3326	0	32752	32789	
3327	0	32836	32784	
3328	0	32820	32786	
3329	0	32772	32745	
3330	0	32860	32768	
3331	0	32818	32932	
3332	0	32830	32798	
3333	0	32814	32850	
3334	0	32920	32822	
3335	0	32814	32824	
3336	0	32784	32847	
3337	0	32800	32852	
3338	0	32828	32862	
3339	0	32812	32762	
3340	0	32790	32756	
3341	0	32830	32820	
3342	0	32740	32740	
3343	0	32824	32794	
3344	0	32768	32743	
3345	0	32854	32736	
3346	0	32842	32820	
3347	0	32750	32728	
3348	0	32828	32746	
3349	0	32848	32700	
3350	0	32880	32802	
3351	0	32848	32696	
3352	0	32804	32816	
3353	0	32792	32876	
3354	0	32898	32804	
3355	0	32854	32686	
3356	0	32784	32682	
3357	0	32796	32570	
3358	0	32806	32644	
3359	0	32752	32615	
3360	0	32860	32824	
3361	0	32824	32842	
3362	0	32716	32958	
3363	0	32828	32927	
3364	0	32784	32802	
3365	0	32786	32796	
3366	0	32820	32686	
3367	0	32872	32774	
3368	0	32780	32634	
3369	0	32816	32810	
3370	0	32768	32774	
3371	0	32860	32845	
3372	0	32792	32682	
3373	0	32792	32799	
3374	0	32818	32711	
3375	0	32804	32816	
3376	0	32841	32768	
3377	0	32832	32752	
3378	0	32834	32838	
3379	0	32874	32696	
3380	0	32775	32821	
3381	0	32794	32775	
3382	0	32780	32821	
3383	0	32812	32860	
3384	0	32848	32804	
3385	0	32834	32886	
3386	0	32820	32615	
3387	0	32774	32674	
3388	0	32824	32714	
3389	0	32816	32880	
3390	0	32768	32876	
3391	0	32828	32870	
3392	0	32756	32842	
3393	0	32780	32820	
3394	0	32804	32756	
3395	0	32788	32736	
3396	0	32790	32542	
3397	0	32824	32604	
3398	0	32872	32758	
3399	0	32832	32788	
3400	0	32848	32919	
3401	0	32840	32858	
3402	0	32788	32862	
3403	0	32868	32886	
3404	0	32836	32908	
3405	0	32824	32884	
3406	0	32784	32704	
3407	0	32776	32882	
3408	0	32796	32840	
3409	0	32817	32806	
3410	0	32796	32700	
3411	0	32826	32711	
3412	0	32808	32632	
3413	0	32826	32625	
3414	0	32760	32592	
3415	0	32848	32860	
3416	0	32796	32759	
3417	0	32851	32846	
3418	0	32804	32876	
3419	0	32804	32828	
3420	0	32800	32742	
3421	0	32814	32916	
3422	0	32824	32775	
3423	0	32812	32680	
3424	0	32810	32622	
3425	0	32836	32695	
3426	0	32836	32660	
3427	0	32846	32704	
3428	0	32778	32634	
3429	0	32816	32711	
3430	0	32804	32630	
3431	0	32820	32896	
3432	0	32814	32810	
3433	0	32824	32884	
3434	0	32808	32703	
3435	0	32760	32804	
3436	0	32764	32696	
3437	0	32820	32676	
3438	0	32884	32650	
3439	0	32812	32752	
3440	0	32792	32775	
3441	0	32830	32864	
3442	0	32805	32842	
3443	0	32788	32672	
3444	0	32810	32732	
3445	0	32838	32746	
3446	0	32764	32761	
3447	0	32780	32746	
3448	0	32804	32814	
3449	0	32848	32802	
3450	0	32876	32804	
3451	0	32804	32839	
3452	0	32860	32702	
3453	0	32830	32772	
3454	0	32894	32680	
3455	0	32800	32756	
3456	0	32788	32718	
3457	0	32736	32832	
3458	0	32854	32902	
3459	0	32836	32916	
3460	0	32788	32878	
3461	0	32808	32742	
3462	0	32804	32792	
3463	0	32900	32774	
3464	0	32816	32770	
3465	0	32862	32650	
3466	0	32838	32714	
3467	0	32804	32574	
3468	0	32760	32775	
3469	0	32856	32756	
3470	0	32832	32898	
3471	0	32824	32822	
3472	0	32780	32803	
3473	0	32800	32756	
3474	0	32768	32774	
3475	0	32876	32786	
3476	0	32780	32846	
3477	0	32768	32932	
3478	0	32834	32854	
3479	0	32816	32852	
3480	0	32816	32769	
3481	0	32760	32735	
3482	0	32782	32820	
3483	0	32752	32811	
3484	0	32808	32708	
3485	0	32854	32730	
3486	0	32904	32647	
3487	0	32794	32679	
3488	0	32792	32644	
3489	0	32810	32727	
3490	0	32824	32790	
3491	0	32844	32960	
3492	0	32830	32795	
3493	0	32800	32870	
3494	0	32820	32910	
3495	0	32830	32816	
3496	0	32808	32844	
3497	0	32784	32712	
3498	0	32852	32612	
3499	0	32848	32612	
3500	0	32820	32708	
3501	0	32800	32614	
3502	0	32828	32738	
3503	0	32804	32775	
3504	0	32732	32817	
3505	0	32740	32759	
3506	0	32792	32842	
3507	0	32832	32888	
3508	0	32856	32804	
3509	0	32748	32884	
3510	0	32860	32842	
3511	0	32788	32806	
3512	0	32816	32836	
3513	0	32848	32816	
3514	0	32784	32714	
3515	0	32780	32836	
3516	0	32794	32789	
3517	0	32838	32790	
3518	0	32852	32832	
3519	0	32856	32792	
3520	0	32800	32792	
3521	0	32774	32772	
3522	0	32784	32686	
3523	0	32844	32684	
3524	0	32832	32482	
3525	0	32818	32724	
3526	0	32800	32668	
3527	0	32756	32878	
3528	0	32824	32846	
3529	0	32872	32928	
3530	0	32856	32738	
3531	0	32788	32775	
3532	0	32776	32672	
3533	0	32856	32791	
3534	0	32790	32866	
3535	0	32796	32792	
3536	0	32820	32688	
3537	0	32784	32747	
3538	0	32898	32775	
3539	0	32826	32601	
3540	0	32826	32888	
3541	0	32770	32916	
3542	0	32746	32935	
3543	0	32724	32758	
3544	0	32784	32852	
3545	0	32796	32756	
3546	0	32760	32647	
3547	0	32818	32550	
3548	0	32764	32722	
3549	0	32820	32748	
3550	0	32800	32722	
3551	0	32848	32834	
3552	0	32784	32775	
3553	0	32832	32775	
3554	0	32840	32676	
3555	0	32740	32734	
3556	0	32812	32718	
3557	0	32808	32820	
3558	0	32866	32757	
3559	0	32820	32836	
3560	0	32808	32702	
3561	0	32862	32559	
3562	0	32760	32718	
3563	0	32840	32704	
3564	0	32892	32798	
3565	0	32876	32806	
3566	0	32826	32988	
3567	0	32886	32794	
3568	0	32794	32759	
3569	0	32888	32632	
3570	0	32840	32711	
3571	0	32815	32700	
3572	0	32776	32794	
3573	0	32692	32618	
3574	0	32798	32802	
3575	0	32710	32760	
3576	0	32810	32832	
3577	0	32850	32832	
3578	0	32788	32908	
3579	0	32818	32847	
3580	0	32830	32770	
3581	0	32816	32791	
3582	0	32810	32720	
3583	0	32836	32782	
3584	0	32814	32766	
3585	0	32836	32820	
3586	0	32824	32700	
3587	0	32842	32578	
3588	0	32834	32638	
3589	0	32832	32814	
3590	0	32778	32696	
3591	0	32858	32796	
3592	0	32786	32772	
3593	0	32800	32690	
3594	0	32772	32818	
3595	0	32786	32734	
3596	0	32836	32852	
3597	0	32828	32808	
3598	0	32852	32788	
3599	0	32841	32864	
3600	0	32820	32736	
3601	0	32754	32650	
3602	0	32812	32672	
3603	0	32808	32711	
3604	0	32746	32722	
3605	0	32858	32638	
3606	0	32792	32770	
3607	0	32816	32798	
3608	0	32822	32856	
3609	0	32772	32868	
3610	0	32824	32942	
3611	0	32806	32762	
3612	0	32784	32775	
3613	0	32828	32670	
3614	0	32784	32756	
3615	0	32894	32712	
3616	0	32814	32760	
3617	0	32828	32620	
3618	0	32848	32704	
3619	0	32802	32716	
3620	0	32766	32862	
3621	0	32804	32754	
3622	0	32774	32775	
3623	0	32864	32734	
3624	0	32863	32830	
3625	0	32836	32775	
3626	0	32816	32592	
3627	0	32832	32703	
3628	0	32816	32742	
3629	0	32756	32707	
3630	0	32756	32642	
3631	0	32872	32830	
3632	0	32808	32760	
3633	0	32812	32820	
3634	0	32840	32860	
3635	0	32780	32849	
3636	0	32752	32696	
3637	0	32778	32674	
3638	0	32824	32591	
3639	0	32816	32674	
3640	0	32810	32647	
3641	0	32804	32736	
3642	0	32852	32786	
3643	0	32840	32903	
3644	0	32748	32822	
3645	0	32840	32774	
3646	0	32894	32767	
3647	0	32808	32754	
3648	0	32814	32706	
3649	0	32824	32775	
3650	0	32908	32732	
3651	0	32836	32930	
3652	0	32872	32775	
3653	0	32836	32927	
3654	0	32840	32806	
3655	0	32836	32796	
3656	0	32868	32818	
3657	0	32892	32814	
3658	0	32880	32830	
3659	0	32880	32820	
3660	0	32892	32852	
3661	0	32880	32769	
3662	0	32888	32871	
3663	0	32868	32902	
3664	0	32810	32912	
3665	0	32736	32764	
3666	0	32800	32807	
3667	0	32782	32692	
3668	0	32668	32694	
3669	0	32638	32630	
3670	0	32622	32508	
3671	0	32576	32358	
3672	0	32480	32263	
3673	0	32550	32340	
3674	0	32584	32444	
3675	0	32766	32538	
3676	0	32742	32534	
3677	0	32798	32732	
3678	0	32792	32678	
3679	0	32857	32735	
3680	0	32836	32706	
3681	0	32788	32775	
3682	0	32840	32686	
3683	0	32824	32906	
3684	0	32888	32888	
3685	0	32832	32940	
3686	0	32920	32911	
3687	0	32928	32884	
3688	0	32908	32944	
3689	0	32928	32988	
3690	0	32902	32910	
3691	0	32868	32878	
3692	0	32834	32720	
3693	0	32852	32821	
3694	0	32864	32775	
3695	0	32812	32796	
3696	0	32864	32754	
3697	0	32876	32766	
3698	0	32836	32684	
3699	0	32838	32722	
3700	0	32816	32775	
3701	0	32804	32774	
3702	0	32748	32868	
3703	0	32740	32806	
3704	0	32758	32774	
3705	0	32784	32656	
3706	0	32860	32734	
3707	0	32792	32656	
3708	0	32820	32839	
3709	0	32796	32652	
3710	0	32804	32728	
3711	0	32758	32803	
3712	0	32786	32748	
3713	0	32834	32714	
3714	0	32816	32678	
3715	0	32782	32688	
3716	0	32786	32898	
3717	0	32820	32886	
3718	0	32816	32898	
3719	0	32890	32692	
3720	0	32836	32860	
3721	0	32796	32726	
3722	0	32744	32820	
3723	0	32800	32746	
3724	0	32796	32770	
3725	0	32796	32748	
3726	0	32813	32780	
3727	0	32812	32755	
3728	0	32804	32706	
3729	0	32744	32770	
3730	0	32840	32676	
3731	0	32816	32796	
3732	0	32810	32775	
3733	0	32832	32658	
3734	0	32856	32743	
3735	0	32828	32775	
3736	0	32820	32998	
3737	0	32860	32748	
3738	0	32852	32860	
3739	0	32776	32762	
3740	0	32816	32822	
3741	0	32712	32814	
3742	0	32838	32772	
3743	0	32800	32758	
3744	0	32768	32662	
3745	0	32776	32726	
3746	0	32832	32918	
3747	0	32782	32852	
3748	0	32836	32768	
3749	0	32808	32680	
3750	0	32792	32730	
3751	0	32908	32596	
3752	0	32864	32820	
3753	0	32812	32748	
3754	0	32804	32808	
3755	0	32828	32716	
3756	0	32816	32866	
3757	0	32828	32648	
3758	0	32808	32768	
3759	0	32820	32732	
3760	0	32768	32866	
3761	0	32784	32754	
3762	0	32854	32790	
3763	0	32776	32742	
3764	0	32820	32766	
3765	0	32772	32798	
3766	0	32784	32764	
3767	0	32796	32890	
3768	0	32792	32800	
3769	0	32848	32775	
3770	0	32802	32744	
3771	0	32804	32790	
3772	0	32792	32746	
3773	0	32806	32804	
3774	0	32816	32766	
3775	0	32820	32775	
3776	0	32820	32688	
3777	0	32880	32732	
3778	0	32852	32766	
3779	0	32784	32750	
3780	0	32808	32900	
3781	0	32796	32948	
3782	0	32812	32826	
3783	0	32788	32864	
3784	0	32800	32738	
3785	0	32794	32730	
3786	0	32832	32686	
3787	0	32848	32742	
3788	0	32778	32704	
3789	0	32834	32758	
3790	0	32810	32684	
3791	0	32792	32911	
3792	0	32780	32940	
3793	0	32822	32762	
3794	0	32860	32775	
3795	0	32880	32743	
3796	0	32836	32708	
3797	0	32792	32760	
3798	0	32792	32860	
3799	0	32812	32740	
3800	0	32796	32718	
3801	0	32860	32720	
3802	0	32828	32789	
3803	0	32810	32868	
3804	0	32808	32899	
3805	0	32832	32775	
3806	0	32776	32676	
3807	0	32840	32852	
3808	0	32820	32754	
3809	0	32816	32785	
3810	0	32874	32792	
3811	0	32772	32702	
3812	0	32790	32752	
3813	0	32818	32766	
3814	0	32822	32712	
3815	0	32864	32688	
3816	0	32848	32766	
3817	0	32834	32870	
3818	0	32798	32836	
3819	0	32854	32882	
3820	0	32824	32806	
3821	0	32796	32790	
3822	0	32768	32724	
3823	0	32816	32766	
3824	0	32848	32647	
3825	0	32804	32767	
3826	0	32784	32718	
3827	0	32746	32766	
3828	0	32836	32816	
3829	0	32788	32799	
3830	0	32800	32834	
3831	0	32872	32836	
3832	0	32838	32846	
3833	0	32814	32874	
3834	0	32772	32800	
3835	0	32896	32772	
3836	0	32878	32756	
3837	0	32804	32792	
3838	0	32818	32752	
3839	0	32880	32809	
3840	0	32816	32782	
3841	0	32852	32848	
3842	0	32840	32834	
3843	0	32836	32830	
3844	0	32756	32807	
3845	0	32748	32796	
3846	0	32808	32798	
3847	0	32848	32704	
3848	0	32824	32679	
3849	0	32860	32692	
3850	0	32792	32638	
3851	0	32764	32775	
3852	0	32810	32870	
3853	0	32896	32692	
3854	0	32836	32851	
3855	0	32832	32902	
3856	0	32854	32884	
3857	0	32792	32775	
3858	0	32868	32710	
3859	0	32772	32856	
3860	0	32816	32790	
3861	0	32854	32596	
3862	0	32824	32681	
3863	0	32768	32820	
3864	0	32828	32734	
3865	0	32784	32846	
3866	0	32760	32772	
3867	0	32804	32930	
3868	0	32792	32798	
3869	0	32775	32748	
3870	0	32784	32774	
3871	0	32848	32735	
3872	0	32752	32806	
3873	0	32876	32758	
3874	0	32816	32686	
3875	0	32754	32712	
3876	0	32780	32678	
3877	0	32806	32798	
3878	0	32852	32768	
3879	0	32838	32734	
3880	0	32760	32838	
3881	0	32792	32739	
3882	0	32788	32775	
3883	0	32828	32718	
3884	0	32828	32764	
3885	0	32692	32764	
3886	0	32898	32814	
3887	0	32844	32788	
3888	0	32804	32662	
3889	0	32792	32775	
3890	0	32870	32698	
3891	0	32784	32870	
3892	0	32880	32834	
3893	0	32836	32750	
3894	0	32828	32746	
3895	0	32764	32724	
3896	0	32882	32775	
3897	0	32864	32762	
3898	0	32826	32754	
3899	0	32778	32580	
3900	0	32836	32650	
3901	0	32800	32697	
3902	0	32798	32769	
3903	0	32832	32694	
3904	0	32824	32828	
3905	0	32852	32766	
3906	0	32800	32743	
3907	0	32816	32816	
3908	0	32808	32698	
3909	0	32792	32790	
3910	0	32812	32708	
3911	0	32852	32924	
3912	0	32816	32890	
3913	0	32800	32818	
3914	0	32794	32754	
3915	0	32832	32678	
3916	0	32780	32775	
3917	0	32840	32870	
3918	0	32780	32816	
3919	0	32816	32775	
3920	0	32762	32727	
3921	0	32784	32818	
3922	0	32814	32742	
3923	0	32840	32872	
3924	0	32768	32884	
3925	0	32808	32850	
3926	0	32848	32846	
3927	0	32844	32724	
3928	0	32838	32828	
3929	0	32784	32726	
3930	0	32804	32774	
3931	0	32768	32655	
3932	0	32868	32775	
3933	0	32754	32824	
3934	0	32800	32748	
3935	0	32848	32718	
3936	0	32821	32668	
3937	0	32820	32646	
3938	0	32848	32620	
3939	0	32820	32810	
3940	0	32798	32798	
3941	0	32836	32858	
3942	0	32888	32870	
3943	0	32792	32828	
3944	0	32836	32806	
3945	0	32768	32654	
3946	0	32798	32775	
3947	0	32858	32628	
3948	0	32828	32784	
3949	0	32816	32860	
3950	0	32764	32720	
3951	0	32748	32746	
3952	0	32768	32694	
3953	0	32738	32711	
3954	0	32826	32720	
3955	0	32884	32838	
3956	0	32860	32906	
3957	0	32816	32812	
3958	0	32796	32818	
3959	0	32840	32672	
3960	0	32878	32826	
3961	0	32800	32738	
3962	0	32744	32814	
3963	0	32804	32739	
3964	0	32844	32772	
3965	0	32780	32638	
3966	0	32848	32734	
3967	0	32804	32708	
3968	0	32792	32792	
3969	0	32840	32700	
3970	0	32912	32682	
3971	0	32864	32734	
3972	0	32836	32694	
3973	0	32832	32727	
3974	0	32806	32732	
3975	0	32844	32774	
3976	0	32840	32812	
3977	0	32828	32775	
3978	0	32746	32748	
3979	0	32834	32752	
3980	0	32804	32764	
3981	0	32824	32742	
3982	0	32800	32724	
3983	0	32840	32703	
3984	0	32810	32834	
3985	0	32862	32872	
3986	0	32832	32848	
3987	0	32774	32848	
3988	0	32760	32748	
3989	0	32796	32839	
3990	0	32806	32750	
3991	0	32754	32758	
3992	0	32778	32770	
3993	0	32878	32647	
3994	0	32852	32804	
3995	0	32776	32838	
3996	0	32740	32838	
3997	0	32872	32740	
3998	0	32800	32719	
3999	0	32856	32744	
4000	0	32808	32689	
4001	0	32848	32775	
4002	0	32792	32818	
4003	0	32828	32734	
4004	0	32858	32772	
4005	0	32776	32775	
4006	0	32832	32762	
4007	0	32860	32678	
4008	0	32816	32808	
4009	0	32834	32774	
4010	0	32778	32775	
4011	0	32812	32756	
4012	0	32792	32838	
4013	0	32796	32724	
4014	0	32772	32775	
4015	0	32816	32688	
4016	0	32844	32798	
4017	0	32782	32734	
4018	0	32828	32848	
4019	0	32772	32788	
4020	0	32872	32810	
4021	0	32816	32775	
4022	0	32852	32768	
4023	0	32832	32814	
4024	0	32782	32736	
4025	0	32824	32752	
4026	0	32808	32646	
4027	0	32760	32758	
4028	0	32708	32666	
4029	0	32802	32775	
4030	0	32828	32796	
4031	0	32828	32839	
4032	0	32784	32828	
4033	0	32804	32702	
4034	0	32866	32700	
4035	0	32840	32730	
4036	0	32816	32720	
4037	0	32770	32719	
4038	0	32876	32788	
4039	0	32772	32846	
4040	0	32840	32756	
4041	0	32866	32794	
4042	0	32872	32796	
4043	0	32856	32817	
4044	0	32816	32676	
4045	0	32836	32756	
4046	0	32820	32718	
4047	0	32794	32836	
4048	0	32836	32878	
4049	0	32892	32888	
4050	0	32776	32860	
4051	0	32820	32903	
4052	0	32852	32792	
4053	0	32766	32839	
4054	0	32832	32710	
4055	0	32844	32806	
4056	0	32768	32775	
4057	0	32796	32822	
4058	0	32826	32840	
4059	0	32794	32842	
4060	0	32816	32834	
4061	0	32848	32818	
4062	0	32804	32774	
4063	0	32832	32716	
4064	0	32814	32706	
4065	0	32824	32734	
4066	0	32756	32782	
4067	0	32748	32775	
4068	0	32864	32816	
4069	0	32824	32842	
4070	0	32812	32775	
4071	0	32796	32794	
4072	0	32832	32743	
4073	0	32828	32842	
4074	0	32788	32736	
4075	0	32868	32775	
4076	0	32792	32830	
4077	0	32786	32746	
4078	0	32830	32732	
4079	0	32746	32700	
4080	0	32782	32798	
4081	0	32772	32814	
4082	0	32842	32766	
4083	0	32840	32767	
4084	0	32802	32775	
4085	0	32800	32792	
4086	0	32780	32746	
4087	0	32804	32848	
4088	0	32822	32610	
4089	0	32876	32798	
4090	0	32780	32660	
4091	0	32892	32801	
4092	0	32804	32775	
4093	0	32744	32844	
4094	0	32824	32793	
4095	0	32820	32672	
4096	0	32800	32718	
4097	0	32856	32647	
4098	0	32822	32802	
4099	0	32840	32832	
4100	0	32740	32754	
4101	0	32848	32814	
4102	0	32784	32728	
4103	0	32846	32764	
4104	0	32839	32828	
4105	0	32820	32770	
4106	0	32840	32762	
4107	0	32779	32629	
4108	0	32816	32744	
4109	0	32824	32710	
4110	0	32830	32788	
4111	0	32784	32928	
4112	0	32842	32886	
4113	0	32844	32858	
4114	0	32800	32775	
4115	0	32836	32775	
4116	0	32796	32663	
4117	0	32804	32766	
4118	0	32776	32728	
4119	0	32804	32692	
4120	0	32839	32752	
4121	0	32804	32766	
4122	0	32790	32662	
4123	0	32796	32690	
4124	0	32764	32711	
4125	0	32820	32852	
4126	0	32856	32791	
4127	0	32896	32768	
4128	0	32836	32903	
4129	0	32784	32838	
4130	0	32760	32834	
4131	0	32836	32924	
4132	0	32728	32842	
4133	0	32832	32732	
4134	0	32840	32768	
4135	0	32832	32760	
4136	0	32844	32700	
4137	0	32785	32775	
4138	0	32860	32711	
4139	0	32808	32764	
4140	0	32860	32666	
4141	0	32766	32750	
4142	0	32758	32656	
4143	0	32778	32775	
4144	0	32798	32650	
4145	0	32802	32830	
4146	0	32808	32950	
4147	0	32750	32820	
4148	0	32856	32864	
4149	0	32768	32830	
4150	0	32796	32794	
4151	0	32788	32724	
4152	0	32876	32822	
4153	0	32842	32720	
4154	0	32842	32820	
4155	0	32832	32858	
4156	0	32788	32704	
4157	0	32814	32794	
4158	0	32804	32703	
4159	0	32724	32705	
4160	0	32768	32678	
4161	0	32820	32752	
4162	0	32800	32746	
4163	0	32746	32806	
4164	0	32788	32754	
4165	0	32842	32810	
4166	0	32832	32706	
4167	0	32782	32722	
4168	0	32852	32658	
4169	0	32810	32788	
4170	0	32852	32672	
4171	0	32804	32736	
4172	0	32810	32668	
4173	0	32854	32764	
4174	0	32796	32736	
4175	0	32806	32786	
4176	0	32800	32712	
4177	0	32848	32814	
4178	0	32836	32676	
4179	0	32848	32772	
4180	0	32766	32634	
4181	0	32792	32704	
4182	0	32752	32687	
4183	0	32820	32772	
4184	0	32788	32764	
4185	0	32820	32832	
4186	0	32788	32810	
4187	0	32768	32708	
4188	0	32856	32718	
4189	0	32808	32812	
4190	0	32848	32698	
4191	0	32820	32775	
4192	0	32840	32694	
4193	0	32796	32790	
4194	0	32858	32657	
4195	0	32870	32768	
4196	0	32792	32838	
4197	0	32848	32820	
4198	0	32804	32814	
4199	0	32800	32702	
4200	0	32848	32766	
4201	0	32838	32742	
4202	0	32788	32775	
4203	0	32816	32839	
4204	0	32820	32814	
4205	0	32904	32782	
4206	0	32780	32690	
4207	0	32860	32808	
4208	0	32836	32775	
4209	0	32800	32711	
4210	0	32752	32759	
4211	0	32796	32775	
4212	0	32814	32832	
4213	0	32754	32679	
4214	0	32820	32758	
4215	0	32810	32706	
4216	0	32860	32758	
4217	0	32822	32654	
4218	0	32836	32876	
4219	0	32758	32871	
4220	0	32828	32830	
4221	0	32818	32796	
4222	0	32826	32639	
4223	0	32832	32706	
4224	0	32816	32710	
4225	0	32804	32732	
4226	0	32844	32694	
4227	0	32804	32774	
4228	0	32804	32718	
4229	0	32817	32738	
4230	0	32820	32766	
4231	0	32800	32784	
4232	0	32820	32949	
4233	0	32806	32817	
4234	0	32804	32870	
4235	0	32848	32660	
4236	0	32824	32724	
4237	0	32804	32686	
4238	0	32790	32668	
4239	0	32800	32790	
4240	0	32832	32808	
4241	0	32806	32792	
4242	0	32812	32814	
4243	0	32804	32804	
4244	0	32824	32746	
4245	0	32800	32794	
4246	0	32800	32760	
4247	0	32832	32820	
4248	0	32834	32724	
4249	0	32780	32710	
4250	0	32868	32671	
4251	0	32810	32750	
4252	0	32802	32724	
4253	0	32838	32792	
4254	0	32720	32811	
4255	0	32860	32798	
4256	0	32810	32736	
4257	0	32864	32743	
4258	0	32780	32674	
4259	0	32888	32700	
4260	0	32784	32710	
4261	0	32876	32723	
4262	0	32860	32756	
4263	0	32814	32764	
4264	0	32800	32736	
4265	0	32816	32762	
4266	0	32792	32686	
4267	0	32874	32788	
4268	0	32808	32709	
4269	0	32822	32764	
4270	0	32816	32846	
4271	0	32808	32860	
4272	0	32818	32788	
4273	0	32824	32740	
4274	0	32794	32720	
4275	0	32836	32736	
4276	0	32804	32800	
4277	0	32792	32878	
4278	0	32782	32872	
4279	0	32854	32791	
4280	0	32828	32760	
4281	0	32776	32892	
4282	0	32758	32848	
4283	0	32782	32823	
4284	0	32808	32750	
4285	0	32809	32684	
4286	0	32744	32865	
4287	0	32816	32802	
4288	0	32822	32598	
4289	0	32852	32711	
4290	0	32792	32677	
4291	0	32856	32702	
4292	0	32812	32798	
4293	0	32782	32830	
4294	0	32896	32800	
4295	0	32818	32834	
4296	0	32784	32790	
4297	0	32768	32718	
4298	0	32770	32836	
4299	0	32814	32766	
4300	0	32778	32796	
4301	0	32792	32764	
4302	0	32816	32734	
4303	0	32804	32695	
4304	0	32808	32772	
4305	0	32828	32714	
4306	0	32854	32860	
4307	0	32800	32820	
4308	0	32810	32814	
4309	0	32780	32647	
4310	0	32750	32695	
4311	0	32800	32684	
4312	0	32822	32798	
4313	0	32896	32696	
4314	0	32832	32695	
4315	0	32822	32791	
4316	0	32802	32847	
4317	0	32836	32722	
4318	0	32874	32852	
4319	0	32847	32848	
4320	0	32818	32870	
4321	0	32812	32676	
4322	0	32856	32774	
4323	0	32846	32767	
4324	0	32842	32834	
4325	0	32864	32775	
4326	0	32828	32794	
4327	0	32932	32794	
4328	0	32864	32838	
4329	0	32894	32736	
4330	0	32884	32814	
4331	0	32860	32810	
4332	0	32894	32844	
4333	0	32864	32750	
4334	0	32808	32796	
4335	0	32810	32710	
4336	0	32736	32615	
4337	0	32620	32554	
4338	0	32644	32423	
4339	0	32602	32366	
4340	0	32508	32372	
4341	0	32530	32332	
4342	0	32604	32400	
4343	0	32618	32404	
4344	0	32664	32726	
4345	0	32772	32688	
4346	0	32842	32846	
4347	0	32840	32798	
4348	0	32768	32754	
4349	0	32752	32839	
4350	0	32884	32692	
4351	0	32832	32810	
4352	0	32920	32892	
4353	0	32952	32800	
4354	0	32866	32898	
4355	0	32888	32900	
4356	0	32964	32934	
4357	0	32876	32834	
4358	0	32840	32958	
4359	0	32880	32932	
4360	0	32842	32834	
4361	0	32832	32855	
4362	0	32849	32742	
4363	0	32884	32806	
4364	0	32932	32821	
4365	0	32854	32806	
4366	0	32780	32838	
4367	0	32832	32767	
4368	0	32758	32802	
4369	0	32842	32663	
4370	0	32800	32736	
4371	0	32830	32676	
4372	0	32800	32775	
4373	0	32792	32756	
4374	0	32788	32666	
4375	0	32774	32654	
4376	0	32756	32746	
4377	0	32752	32767	
4378	0	32790	32839	
4379	0	32826	32711	
4380	0	32784	32866	
4381	0	32836	32775	
4382	0	32758	32660	
4383	0	32780	32798	
4384	0	32840	32852	
4385	0	32830	32736	
4386	0	32812	32768	
4387	0	32836	32748	
4388	0	32836	32886	
4389	0	32792	32662	
4390	0	32814	32774	
4391	0	32740	32766	
4392	0	32840	32814	
4393	0	32764	32879	
4394	0	32804	32714	
4395	0	32868	32706	
4396	0	32816	32610	
4397	0	32764	32688	
4398	0	32784	32570	
4399	0	32824	32736	
4400	0	32796	32660	
4401	0	32792	32775	
4402	0	32776	32902	
4403	0	32820	32775	
4404	0	32828	32878	
4405	0	32794	32746	
4406	0	32836	32902	
4407	0	32848	32744	
4408	0	32870	32754	
4409	0	32872	32775	
4410	0	32750	32734	
4411	0	32808	32604	
4412	0	32856	32660	
4413	0	32806	32792	
4414	0	32758	32714	
4415	0	32780	32768	
4416	0	32758	32702	
4417	0	32868	32848	
4418	0	32924	32830	
4419	0	32808	32719	
4420	0	32840	32772	
4421	0	32820	32736	
4422	0	32800	32810	
4423	0	32832	32858	
4424	0	32776	32836	
4425	0	32820	32806	
4426	0	32788	32647	
4427	0	32812	32766	
4428	0	32804	32712	
4429	0	32728	32746	
4430	0	32784	32804	
4431	0	32804	32766	
4432	0	32788	32711	
4433	0	32822	32654	
4434	0	32796	32724	
4435	0	32846	32714	
4436	0	32775	32692	
4437	0	32820	32668	
4438	0	32824	32762	
4439	0	32854	32704	
4440	0	32752	32924	
4441	0	32804	32830	
4442	0	32800	32742	
4443	0	32792	32756	
4444	0	32854	32704	
4445	0	32850	32684	
4446	0	32822	32634	
4447	0	32816	32732	
4448	0	32852	32774	
4449	0	32832	32876	
4450	0	32817	32900	
4451	0	32798	32808	
4452	0	32872	32880	
4453	0	32836	32730	
4454	0	32866	32848	
4455	0	32764	32631	
4456	0	32848	32784	
4457	0	32784	32766	
4458	0	32832	32764	
4459	0	32752	32738	
4460	0	32792	32664	
4461	0	32780	32748	
4462	0	32800	32863	
4463	0	32840	32708	
4464	0	32820	32728	
4465	0	32842	32710	
4466	0	32836	32794	
4467	0	32834	32876	
4468	0	32804	32822	
4469	0	32858	32848	
4470	0	32792	32750	
4471	0	32780	32775	
4472	0	32790	32756	
4473	0	32768	32802	
4474	0	32774	32850	
4475	0	32802	32840	
4476	0	32814	32890	
4477	0	32776	32678	
4478	0	32724	32764	
4479	0	32832	32682	
4480	0	32782	32748	
4481	0	32808	32775	
4482	0	32814	32754	
4483	0	32800	32710	
4484	0	32784	32604	
4485	0	32810	32772	
4486	0	32828	32788	
4487	0	32836	32807	
4488	0	32806	32775	
4489	0	32856	32639	
4490	0	32806	32768	
4491	0	32788	32798	
4492	0	32768	32796	
4493	0	32802	32814	
4494	0	32852	32720	
4495	0	32864	32822	
4496	0	32804	32814	
4497	0	32826	32772	
4498	0	32788	32744	
4499	0	32788	32692	
4500	0	32832	32796	
4501	0	32768	32790	
4502	0	32868	32807	
4503	0	32874	32822	
4504	0	32742	32708	
4505	0	32836	32846	
4506	0	32892	32858	
4507	0	32774	32716	
4508	0	32780	32798	
4509	0	32810	32818	
4510	0	32860	32674	
4511	0	32804	32760	
4512	0	32824	32854	
4513	0	32856	32770	
4514	0	32818	32768	
4515	0	32800	32774	
4516	0	32772	32730	
4517	0	32728	32796	
4518	0	32828	32704	
4519	0	32912	32806	
4520	0	32802	32856	
4521	0	32808	32846	
4522	0	32824	32775	
4523	0	32816	32736	
4524	0	32762	32854	
4525	0	32760	32844	
4526	0	32846	32760	
4527	0	32822	32775	
4528	0	32832	32656	
4529	0	32820	32782	
4530	0	32836	32828	
4531	0	32792	32665	
4532	0	32796	32762	
4533	0	32806	32634	
4534	0	32818	32794	
4535	0	32860	32750	
4536	0	32852	32660	
4537	0	32812	32696	
4538	0	32801	32710	
4539	0	32758	32751	
4540	0	32788	32902	
4541	0	32766	32930	
4542	0	32790	32730	
4543	0	32836	32788	
4544	0	32832	32796	
4545	0	32856	32824	
4546	0	32832	32870	
4547	0	32828	32784	
4548	0	32832	32737	
4549	0	32796	32625	
4550	0	32724	32646	
4551	0	32856	32726	
4552	0	32738	32775	
4553	0	32796	32831	
4554	0	32784	32706	
4555	0	32754	32727	
4556	0	32810	32722	
4557	0	32824	32884	
4558	0	32864	32758	
4559	0	32860	32774	
4560	0	32828	32864	
4561	0	32828	32774	
4562	0	32790	32834	
4563	0	32804	32750	
4564	0	32754	32804	
4565	0	32832	32671	
4566	0	32852	32846	
4567	0	32772	32712	
4568	0	32870	32735	
4569	0	32808	32720	
4570	0	32718	32676	
4571	0	32806	32750	
4572	0	32800	32646	
4573	0	32849	32862	
4574	0	32770	32898	
4575	0	32814	32720	
4576	0	32792	32734	
4577	0	32808	32642	
4578	0	32792	32788	
4579	0	32832	32730	
4580	0	32820	32806	
4581	0	32832	32838	
4582	0	32784	32881	
4583	0	32772	32943	
4584	0	32778	32860	
4585	0	32780	32876	
4586	0	32772	32775	
4587	0	32794	32821	
4588	0	32894	32736	
4589	0	32796	32772	
4590	0	32856	32750	
4591	0	32846	32756	
4592	0	32780	32878	
4593	0	32802	32885	
4594	0	32788	32814	
4595	0	32784	32880	
4596	0	32828	32752	
4597	0	32774	32804	
4598	0	32836	32738	
4599	0	32880	32798	
4600	0	32775	32700	
4601	0	32900	32900	
4602	0	32824	32807	
4603	0	32826	32692	
4604	0	32838	32647	
4605	0	32820	32724	
4606	0	32844	32668	
4607	0	32770	32756	
4608	0	32846	32734	
4609	0	32794	32804	
4610	0	32788	32686	
4611	0	32824	32786	
4612	0	32804	32746	
4613	0	32808	32830	
4614	0	32804	32696	
4615	0	32784	32830	
4616	0	32796	32868	
4617	0	32796	32846	
4618	0	32772	32807	
4619	0	32748	32852	
4620	0	32836	32700	
4621	0	32866	32724	
4622	0	32832	32738	
4623	0	32828	32816	
4624	0	32840	32679	
4625	0	32782	32752	
4626	0	32810	32775	
4627	0	32784	32836	
4628	0	32764	32850	
4629	0	32852	32792	
4630	0	32820	32758	
4631	0	32772	32786	
4632	0	32822	32760	
4633	0	32804	32742	
4634	0	32820	32766	
4635	0	32844	32710	
4636	0	32846	32748	
4637	0	32808	32678	
4638	0	32888	32744	
4639	0	32816	32738	
4640	0	32744	32791	
4641	0	32828	32842	
4642	0	32856	32766	
4643	0	32822	32756	
4644	0	32764	32693	
4645	0	32880	32687	
4646	0	32828	32724	
4647	0	32840	32862	
4648	0	32808	32900	
4649	0	32788	32868	
4650	0	32848	32890	
4651	0	32818	32647	
4652	0	32870	32740	
4653	0	32776	32714	
4654	0	32838	32679	
4655	0	32796	32740	
4656	0	32832	32680	
4657	0	32816	32751	
4658	0	32814	32734	
4659	0	32792	32990	
4660	0	32810	32954	
4661	0	32812	32908	
4662	0	32776	32750	
4663	0	32812	32756	
4664	0	32828	32666	
4665	0	32788	32775	
4666	0	32760	32792	
4667	0	32804	32689	
4668	0	32856	32672	
4669	0	32776	32811	
4670	0	32800	32775	
4671	0	32804	32702	
4672	0	32868	32791	
4673	0	32784	32753	
4674	0	32756	32836	
4675	0	32812	32760	
4676	0	32836	32711	
4677	0	32836	32800	
4678	0	32828	32774	
4679	0	32840	32754	
4680	0	32772	32890	
4681	0	32865	32696	
4682	0	32798	32740	
4683	0	32832	32695	
4684	0	32870	32804	
4685	0	32792	32758	
4686	0	32776	32740	
4687	0	32754	32758	
4688	0	32872	32832	
4689	0	32796	32828	
4690	0	32872	32766	
4691	0	32844	32758	
4692	0	32808	32707	
4693	0	32798	32848	
4694	0	32820	32791	
4695	0	32860	32836	
4696	0	32876	32798	
4697	0	32800	32826	
4698	0	32778	32798	
4699	0	32824	32711	
4700	0	32800	32775	
4701	0	32764	32760	
4702	0	32894	32802	
4703	0	32774	32742	
4704	0	32817	32881	
4705	0	32812	32679	
4706	0	32824	32744	
4707	0	32772	32628	
4708	0	32804	32756	
4709	0	32768	32667	
4710	0	32798	32730	
4711	0	32870	32676	
4712	0	32832	32816	
4713	0	32817	32774	
4714	0	32850	32796	
4715	0	32806	32810	
4716	0	32784	32745	
4717	0	32806	32706	
4718	0	32892	32785	
4719	0	32768	32814	
4720	0	32768	32839	
4721	0	32808	32838	
4722	0	32816	32684	
4723	0	32858	32670	
4724	0	32878	32704	
4725	0	32784	32690	
4726	0	32788	32744	
4727	0	32848	32730	
4728	0	32740	32852	
4729	0	32732	32764	
4730	0	32772	32908	
4731	0	32844	32900	
4732	0	32796	32836	
4733	0	32784	32824	
4734	0	32832	32658	
4735	0	32866	32710	
4736	0	32828	32686	
4737	0	32834	32788	
4738	0	32826	32896	
4739	0	32850	32806	
4740	0	32806	32806	
4741	0	32882	32894	
4742	0	32788	32775	
4743	0	32800	32830	
4744	0	32774	32774	
4745	0	32884	32735	
4746	0	32784	32718	
4747	0	32876	32775	
4748	0	32764	32743	
4749	0	32744	32742	
4750	0	32798	32829	
4751	0	32800	32832	
4752	0	32792	32760	
4753	0	32770	32744	
4754	0	32796	32758	
4755	0	32778	32729	
4756	0	32816	32754	
4757	0	32898	32775	
4758	0	32808	32636	
4759	0	32856	32750	
4760	0	32825	32750	
4761	0	32840	32847	
4762	0	32784	32820	
4763	0	32768	32808	
4764	0	32826	32810	
4765	0	32840	32702	
4766	0	32812	32734	
4767	0	32764	32628	
4768	0	32868	32766	
4769	0	32792	32884	
4770	0	32784	32852	
4771	0	32744	32814	
4772	0	32780	32724	
4773	0	32842	32844	
4774	0	32696	32806	
4775	0	32832	32774	
4776	0	32828	32624	
4777	0	32804	32838	
4778	0	32754	32871	
4779	0	32766	32820	
4780	0	32864	32720	
4781	0	32816	32724	
4782	0	32868	32720	
4783	0	32840	32715	
4784	0	32812	32888	
4785	0	32808	32862	
4786	0	32796	32740	
4787	0	32770	32742	
4788	0	32830	32792	
4789	0	32818	32824	
4790	0	32804	32854	
4791	0	32810	32743	
4792	0	32814	32743	
4793	0	32768	32804	
4794	0	32864	32703	
4795	0	32798	32819	
4796	0	32792	32806	
4797	0	32778	32706	
4798	0	32855	32792	
4799	0	32822	32744	
4800	0	32770	32807	
4801	0	32804	32748	
4802	0	32822	32798	
4803	0	32836	32850	
4804	0	32812	32756	
4805	0	32818	32836	
4806	0	32840	32647	
4807	0	32776	32760	
4808	0	32834	32834	
4809	0	32794	32790	
4810	0	32804	32791	
4811	0	32834	32682	
4812	0	32800	32784	
4813	0	32804	32758	
4814	0	32780	32612	
4815	0	32869	32740	
4816	0	32820	32830	
4817	0	32828	32774	
4818	0	32790	32804	
4819	0	32832	32720	
4820	0	32746	32775	
4821	0	32738	32746	
4822	0	32848	32849	
4823	0	32794	32758	
4824	0	32814	32770	
4825	0	32840	32752	
4826	0	32856	32666	
4827	0	32801	32724	
4828	0	32844	32655	
4829	0	32908	32807	
4830	0	32840	32708	
4831	0	32816	32774	
4832	0	32858	32772	
4833	0	32796	32800	
4834	0	32816	32806	
4835	0	32812	32720	
4836	0	32828	32794	
4837	0	32822	32742	
4838	0	32792	32775	
4839	0	32798	32702	
4840	0	32840	32854	
4841	0	32796	32828	
4842	0	32776	32743	
4843	0	32838	32816	
4844	0	32808	32694	
4845	0	32770	32775	
4846	0	32864	32806	
4847	0	32828	32735	
4848	0	32844	32775	
4849	0	32836	32727	
4850	0	32808	32826	
4851	0	32774	32708	
4852	0	32868	32842	
4853	0	32716	32846	
4854	0	32768	32743	
4855	0	32830	32822	
4856	0	32888	32758	
4857	0	32796	32849	
4858	0	32812	32788	
4859	0	32872	32830	
4860	0	32800	32759	
4861	0	32812	32722	
4862	0	32764	32839	
4863	0	32852	32788	
4864	0	32840	32794	
4865	0	32832	32766	
4866	0	32800	32711	
4867	0	32818	32775	
4868	0	32848	32678	
4869	0	32788	32744	
4870	0	32820	32687	
4871	0	32806	32816	
4872	0	32836	32775	
4873	0	32752	32740	
4874	0	32810	32668	
4875	0	32762	32714	
4876	0	32776	32734	
4877	0	32784	32866	
4878	0	32784	32668	
4879	0	32802	32711	
4880	0	32833	32656	
4881	0	32788	32854	
4882	0	32798	32812	
4883	0	32820	32728	
4884	0	32884	32807	
4885	0	32768	32732	
4886	0	32812	32710	
4887	0	32758	32718	
4888	0	32778	32814	
4889	0	32848	32692	
4890	0	32832	32878	
4891	0	32821	32854	
4892	0	32816	32766	
4893	0	32832	32694	
4894	0	32868	32625	
4895	0	32832	32770	
4896	0	32776	32772	
4897	0	32840	32855	
4898	0	32826	32810	
4899	0	32796	32768	
4900	0	32774	32775	
4901	0	32814	32692	
4902	0	32842	32756	
4903	0	32846	32679	
4904	0	32770	32739	
4905	0	32868	32682	
4906	0	32816	32774	
4907	0	32886	32838	
4908	0	32852	32846	
4909	0	32792	32852	
4910	0	32860	32734	
4911	0	32936	32660	
4912	0	32744	32743	
4913	0	32724	32839	
4914	0	32792	32838	
4915	0	32816	32768	
4916	0	32794	32806	
4917	0	32814	32730	
4918	0	32772	32840	
4919	0	32832	32686	
4920	0	32780	32760	
4921	0	32844	32628	
4922	0	32850	32756	
4923	0	32824	32814	
4924	0	32848	32664	
4925	0	32868	32768	
4926	0	32816	32719	
4927	0	32804	32767	
4928	0	32740	32670	
4929	0	32768	32808	
4930	0	32798	32832	
4931	0	32792	32784	
4932	0	32848	32700	
4933	0	32824	32804	
4934	0	32840	32858	
4935	0	32798	32762	
4936	0	32816	32870	
4937	0	32876	32714	
4938	0	32802	32775	
4939	0	32768	32783	
4940	0	32819	32726	
4941	0	32832	32922	
4942	0	32820	32711	
4943	0	32816	32807	
4944	0	32852	32756	
4945	0	32860	32650	
4946	0	32746	32706	
4947	0	32772	32818	
4948	0	32813	32650	
4949	0	32832	32715	
4950	0	32828	32692	
4951	0	32840	32799	
4952	0	32844	32808	
4953	0	32788	32760	
4954	0	32796	32716	
4955	0	32840	32752	
4956	0	32772	32670	
4957	0	32830	32718	
4958	0	32810	32668	
4959	0	32796	32858	
4960	0	32800	32839	
4961	0	32808	32724	
4962	0	32820	32775	
4963	0	32812	32775	
4964	0	32836	32714	
4965	0	32764	32828	
4966	0	32808	32924	
4967	0	32828	32828	
4968	0	32832	32822	
4969	0	32848	32678	
4970	0	32806	32719	
4971	0	32876	32730	
4972	0	32798	32608	
4973	0	32844	32732	
4974	0	32836	32838	
4975	0	32832	32807	
4976	0	32764	32756	
4977	0	32828	32836	
4978	0	32760	33016	
4979	0	32816	32974	
4980	0	32804	32902	
4981	0	32872	32852	
4982	0	32848	32870	
4983	0	32862	32810	
4984	0	32866	32826	
4985	0	32788	32735	
4986	0	32784	32788	
4987	0	32822	32836	
4988	0	32948	32755	
4989	0	32852	32878	
4990	0	32844	32820	
4991	0	32910	32842	
4992	0	32864	32934	
4993	0	32858	32788	
4994	0	32948	32803	
4995	0	32864	32732	
4996	0	32808	32806	
4997	0	32800	32770	
4998	0	32784	32555	
4999	0	32752	32624	
5000	0	32728	32602	
5001	0	32608	32455	
5002	0	32604	32526	
5003	0	32566	32532	
5004	0	32576	32440	
5005	0	32578	32556	
5006	0	32736	32554	
5007	0	32802	32574	
5008	0	32796	32548	
5009	0	32816	32692	
5010	0	32808	32842	
5011	0	32812	32743	
5012	0	32850	32880	
5013	0	32756	32894	
5014	0	32728	32918	
5015	0	32844	32964	
5016	0	32794	32756	
5017	0	32868	32923	
5018	0	32924	32826	
5019	0	32940	32788	
5020	0	32864	32934	
5021	0	32884	32751	
5022	0	32930	32796	
5023	0	32828	32911	
5024	0	32948	32942	
5025	0	32868	32916	
5026	0	32832	32704	
5027	0	32820	32842	
5028	0	32860	32775	
5029	0	32858	33031	
5030	0	32900	32940	
5031	0	32784	32820	
5032	0	32896	32817	
5033	0	32802	32612	
5034	0	32796	32724	
5035	0	32784	32590	
5036	0	32798	32732	
5037	0	32780	32852	
5038	0	32808	32708	
5039	0	32812	32660	
5040	0	32804	32711	
5041	0	32854	32812	
5042	0	32864	32828	
5043	0	32770	32476	
5044	0	32800	32538	
5045	0	32772	32439	
5046	0	32816	32814	
5047	0	32752	32710	
5048	0	32860	32794	
5049	0	32802	32874	
5050	0	32828	32812	
5051	0	32804	32862	
5052	0	32778	32756	
5053	0	32790	32768	
5054	0	32776	32823	
5055	0	32814	32755	
5056	0	32820	32750	
5057	0	32830	32698	
5058	0	32828	32813	
5059	0	32900	32926	
5060	0	32816	32878	
5061	0	32786	32988	
5062	0	32794	32956	
5063	0	32768	32839	
5064	0	32845	32718	
5065	0	32840	32671	
5066	0	32838	32711	
5067	0	32784	32826	
5068	0	32716	32696	
5069	0	32720	32870	
5070	0	32728	32668	
5071	0	32756	32686	
5072	0	32736	32660	
5073	0	32782	32752	
5074	0	32780	32732	
5075	0	32816	32735	
5076	0	32896	32644	
5077	0	32782	32738	
5078	0	32776	32752	
5079	0	32794	32871	
5080	0	32828	32678	
5081	0	32784	32804	
5082	0	32804	32620	
5083	0	32800	32720	
5084	0	32812	32636	
5085	0	32836	32732	
5086	0	32772	32682	
5087	0	32832	32728	
5088	0	32820	32756	
5089	0	32864	32807	
5090	0	32836	32754	
5091	0	32820	32722	
5092	0	32838	32729	
5093	0	32848	32864	
5094	0	32780	32871	
5095	0	32828	32766	
5096	0	32824	32800	
5097	0	32808	32866	
5098	0	32790	32975	
5099	0	32760	32870	
5100	0	32800	32806	
5101	0	32800	32830	
5102	0	32768	32698	
5103	0	32796	32854	
5104	0	32802	32698	
5105	0	32868	32818	
5106	0	32864	32610	
5107	0	32826	32746	
5108	0	32824	32697	
5109	0	32778	32636	
5110	0	32752	32676	
5111	0	32826	32686	
5112	0	32804	32822	
5113	0	32786	32902	
5114	0	32824	32830	
5115	0	32806	32743	
5116	0	32836	32768	
5117	0	32812	32663	
5118	0	32784	32708	
5119	0	32756	32684	
5120	0	32844	32727	
5121	0	32824	32796	
5122	0	32844	32862	
5123	0	32824	32688	
5124	0	32836	32809	
5125	0	32842	32784	
5126	0	32844	32799	
5127	0	32832	32736	
5128	0	32854	32756	
5129	0	32802	32702	
5130	0	32828	32810	
5131	0	32836	32711	
5132	0	32820	32854	
5133	0	32832	32862	
5134	0	32802	32758	
5135	0	32872	32772	
5136	0	32792	32574	
5137	0	32800	32756	
5138	0	32836	32666	
5139	0	32854	32694	
5140	0	32810	32792	
5141	0	32788	32824	
5142	0	32782	32988	
5143	0	32828	32860	
5144	0	32752	32836	
5145	0	32796	32726	
5146	0	32768	32740	
5147	0	32820	32676	
5148	0	32774	32814	
5149	0	32780	32675	
5150	0	32822	32763	
5151	0	32796	32771	
5152	0	32880	32673	
5153	0	32836	32740	
5154	0	32860	32742	
5155	0	32884	32782	
5156	0	32860	32771	
5157	0	32882	32806	
5158	0	32838	32790	
5159	0	32806	32670	
5160	0	32830	32706	
5161	0	32840	32642	
5162	0	32802	32775	
5163	0	32824	32834	
5164	0	32792	32827	
5165	0	32860	32903	
5166	0	32782	32866	
5167	0	32832	32758	
5168	0	32774	32710	
5169	0	32828	32736	
5170	0	32812	32788	
5171	0	32784	32790	
5172	0	32756	32756	
5173	0	32868	32694	
5174	0	32728	32750	
5175	0	32764	32656	
5176	0	32756	32824	
5177	0	32760	32764	
5178	0	32866	32762	
5179	0	32884	32748	
5180	0	32860	32864	
5181	0	32810	32711	
5182	0	32894	32810	
5183	0	32828	32790	
5184	0	32860	32784	
5185	0	32830	32852	
5186	0	32776	32834	
5187	0	32770	32790	
5188	0	32766	32774	
5189	0	32702	32632	
5190	0	32776	32702	
5191	0	32844	32708	
5192	0	32834	32871	
5193	0	32840	32775	
5194	0	32862	32884	
5195	0	32840	32697	
5196	0	32796	32796	
5197	0	32714	32802	
5198	0	32784	32828	
5199	0	32868	32828	
5200	0	32828	32624	
5201	0	32864	32802	
5202	0	32844	32657	
5203	0	32828	32682	
5204	0	32872	32646	
5205	0	32824	32888	
5206	0	32840	32743	
5207	0	32836	32698	
5208	0	32754	32724	
5209	0	32863	32710	
5210	0	32756	32834	
5211	0	32764	32882	
5212	0	32816	32670	
5213	0	32806	32750	
5214	0	32924	32688	
5215	0	32940	32834	
5216	0	32872	32775	
5217	0	32840	32784	
5218	0	32944	32668	
5219	0	32945	32756	
5220	0	32804	32886	
5221	0	32760	32792	
5222	0	32776	32816	
5223	0	32760	32858	
5224	0	32816	32806	
5225	0	32848	32718	
5226	0	32760	32775	
5227	0	32664	32620	
5228	0	32750	32720	
5229	0	32642	32708	
5230	0	32540	32768	
5231	0	32616	32839	
5232	0	32690	32800	
5233	0	32756	32798	
5234	0	32812	32688	
5235	0	32792	32839	
5236	0	32764	32724	
5237	0	32852	32774	
5238	0	32794	32680	
5239	0	32816	32636	
5240	0	32868	32796	
5241	0	32868	32830	
5242	0	32876	32693	
5243	0	32980	32772	
5244	0	32970	32639	
5245	0	32938	32574	
5246	0	32840	32598	
5247	0	32884	32542	
5248	0	32828	32690	
5249	0	32796	32744	
5250	0	32830	32791	
5251	0	32800	32806	
5252	0	32700	32770	
5253	0	32804	32814	
5254	0	32932	32756	
5255	0	32956	32742	
5256	0	32880	32870	
5257	0	32826	32910	
5258	0	32848	32742	
5259	0	32790	32802	
5260	0	32775	32730	
5261	0	32790	32824	
5262	0	32812	32724	
5263	0	32774	32670	
5264	0	32756	32678	
5265	0	32696	32711	
5266	0	32618	32826	
5267	0	32673	32878	
5268	0	32744	32746	
5269	0	32782	32775	
5270	0	32844	32696	
5271	0	32824	32727	
5272	0	32870	32775	
5273	0	32892	32827	
5274	0	32860	32775	
5275	0	32840	32730	
5276	0	32868	32796	
5277	0	32880	32775	
5278	0	32824	32663	
5279	0	32816	32623	
5280	0	32848	32792	
5281	0	32746	32775	
5282	0	32798	32860	
5283	0	32716	32808	
5284	0	32744	32733	
5285	0	32764	32699	
5286	0	32794	32716	
5287	0	32970	32766	
5288	0	32864	32646	
5289	0	32802	32687	
5290	0	32788	32694	
5291	0	32796	32742	
5292	0	32828	32839	
5293	0	32856	32838	
5294	0	32960	32828	
5295	0	32964	32900	
5296	0	32968	32799	
5297	0	32952	32855	
5298	0	32816	32784	
5299	0	32772	32796	
5300	0	32856	32600	
5301	0	32828	32638	
5302	0	32912	32604	
5303	0	32944	32767	
5304	0	32740	32828	
5305	0	32716	32720	
5306	0	32700	32747	
5307	0	32704	32892	
5308	0	32800	32857	
5309	0	32740	32576	
5310	0	32872	32790	
5311	0	32736	32646	
5312	0	32654	32703	
5313	0	32596	32764	
5314	0	32700	32828	
5315	0	32768	32767	
5316	0	32744	32804	
5317	0	32844	32792	
5318	0	32868	32860	
5319	0	32858	32720	
5320	0	32916	32874	
5321	0	32794	32740	
5322	0	32802	32596	
5323	0	32808	32672	
5324	0	32740	32636	
5325	0	32842	32766	
5326	0	32878	32874	
5327	0	32964	32882	
5328	0	32928	32876	
5329	0	32856	32756	
5330	0	33086	32992	
5331	0	33136	32988	
5332	0	33080	32894	
5333	0	33056	32936	
5334	0	33022	32804	
5335	0	32840	32892	
5336	0	32674	32647	
5337	0	32632	32671	
5338	0	32536	32652	
5339	0	32620	32583	
5340	0	32732	32760	
5341	0	32666	32847	
5342	0	32746	32646	
5343	0	32748	32622	
5344	0	32822	32672	
5345	0	32828	32630	
5346	0	32719	32660	
5347	0	32752	32682	
5348	0	32736	32814	
5349	0	32740	32884	
5350	0	32856	32720	
5351	0	32698	32737	
5352	0	32800	32854	
5353	0	32736	32934	
5354	0	32796	32756	
5355	0	32780	32838	
5356	0	32890	32906	
5357	0	33016	32703	
5358	0	33012	32714	
5359	0	32800	32856	
5360	0	32724	32873	
5361	0	32796	32830	
5362	0	32854	32664	
5363	0	32772	32758	
5364	0	32673	32738	
5365	0	32584	32772	
5366	0	32736	32741	
5367	0	32732	32839	
5368	0	32888	32660	
5369	0	32766	32614	
5370	0	32704	32624	
5371	0	32700	32687	
5372	0	32820	32706	
5373	0	32952	32872	
5374	0	32848	32872	
5375	0	32690	32880	
5376	0	32770	32802	
5377	0	32656	32854	
5378	0	32504	32734	
5379	0	32708	32884	
5380	0	32860	32806	
5381	0	32832	32824	
5382	0	32848	32716	
5383	0	32842	32782	
5384	0	32990	32588	
5385	0	33002	32639	
5386	0	32938	32610	
5387	0	32876	32738	
5388	0	32836	32700	
5389	0	32798	32734	
5390	0	32704	32788	
5391	0	32788	32811	
5392	0	32784	32619	
5393	0	32796	32796	
5394	0	32762	32773	
5395	0	32868	32756	
5396	0	32788	32754	
5397	0	32745	32800	
5398	0	32810	32808	
5399	0	32888	32868	
5400	0	32785	32798	
5401	0	32814	32848	
5402	0	32794	32862	
5403	0	32836	32646	
5404	0	32960	32792	
5405	0	32840	32880	
5406	0	32766	32950	
5407	0	32736	32818	
5408	0	32696	32940	
5409	0	32676	32734	
5410	0	32662	32774	
5411	0	32358	32770	
5412	0	32868	32751	
5413	0	32892	32690	
5414	0	32744	32686	
5415	0	32824	32550	
5416	0	32660	32711	
5417	0	32748	32620	
5418	0	32830	32682	
5419	0	32724	32726	
5420	0	32913	32838	
5421	0	32764	32724	
5422	0	32844	32879	
5423	0	32864	32620	
5424	0	32986	32674	
5425	0	32825	32782	
5426	0	32784	32762	
5427	0	32852	32704	
5428	0	32836	32758	
5429	0	32906	32794	
5430	0	32848	32692	
5431	0	32752	32814	
5432	0	32778	32743	
5433	0	32780	32842	
5434	0	32856	32708	
5435	0	32888	32772	
5436	0	32976	32632	
5437	0	33000	32762	
5438	0	33048	32670	
5439	0	32934	32820	
5440	0	32896	32719	
5441	0	33010	32775	
5442	0	32900	32704	
5443	0	32848	32754	
5444	0	32936	32679	
5445	0	32988	32750	
5446	0	33096	32871	
5447	0	32868	32760	
5448	0	32916	32807	
5449	0	32826	32636	
5450	0	32775	32872	
5451	0	32788	32857	
5452	0	32664	32790	
5453	0	32560	32696	
5454	0	32544	32756	
5455	0	32636	32764	
5456	0	32590	32775	
5457	0	32616	32775	
5458	0	32680	32900	
5459	0	32636	32860	
5460	0	32744	32866	
5461	0	32794	32800	
5462	0	32898	32804	
5463	0	32984	32775	
5464	0	32952	32904	
5465	0	32996	32775	
5466	0	32892	32836	
5467	0	32881	32768	
5468	0	32860	32822	
5469	0	32860	32704	
5470	0	32834	32780	
5471	0	32814	32664	
5472	0	32760	32773	
5473	0	32712	32622	
5474	0	32742	32704	
5475	0	32736	32634	
5476	0	32720	32756	
5477	0	32836	32718	
5478	0	32842	32791	
5479	0	32808	32884	
5480	0	32804	32734	
5481	0	32868	32798	
5482	0	32784	32626	
5483	0	32860	32856	
5484	0	32744	32838	
5485	0	32792	32836	
5486	0	32756	32750	
5487	0	32864	32820	
5488	0	32716	32836	
5489	0	32780	32628	
5490	0	32868	32695	
5491	0	32808	32546	
5492	0	32862	32728	
5493	0	32864	32644	
5494	0	32872	32822	
5495	0	32764	32770	
5496	0	32744	32797	
5497	0	32676	32738	
5498	0	32752	32574	
5499	0	32838	32599	
5500	0	32592	32676	
5501	0	32536	32735	
5502	0	32814	32629	
5503	0	32890	32903	
5504	0	32908	32928	
5505	0	32900	32906	
5506	0	32930	33024	
5507	0	32928	32792	
5508	0	32912	32804	
5509	0	32846	32670	
5510	0	32820	32775	
5511	0	32852	32792	
5512	0	32864	32775	
5513	0	32804	32772	
5514	0	32808	32664	
5515	0	32848	32822	
5516	0	32764	32935	
5517	0	32824	32775	
5518	0	32684	32756	
5519	0	32772	32636	
5520	0	32842	32743	
5521	0	32806	32828	
5522	0	32718	32756	
5523	0	32830	32868	
5524	0	32804	32932	
5525	0	32832	32836	
5526	0	32776	32754	
5527	0	32730	32630	
5528	0	32804	32634	
5529	0	32764	32748	
5530	0	32758	32663	
5531	0	32898	32775	
5532	0	32910	32892	
5533	0	32840	32743	
5534	0	32796	32705	
5535	0	32805	32616	
5536	0	32836	32664	
5537	0	32732	32615	
5538	0	32744	32734	
5539	0	32824	32768	
5540	0	32652	32818	
5541	0	32736	32742	
5542	0	32888	32725	
5543	0	32856	32852	
5544	0	32888	32774	
5545	0	32796	32798	
5546	0	32724	32710	
5547	0	32784	32770	
5548	0	32792	32740	
5549	0	32732	32800	
5550	0	32792	32948	
5551	0	32836	32885	
5552	0	32840	32844	
5553	0	32780	32620	
5554	0	32778	32706	
5555	0	32798	32491	
5556	0	32786	32696	
5557	0	32820	32798	
5558	0	32892	32700	
5559	0	32896	32668	
5560	0	32902	32775	
5561	0	32838	32696	
5562	0	32840	32671	
5563	0	32888	32720	
5564	0	32954	32788	
5565	0	32837	32902	
5566	0	32856	33075	
5567	0	32792	32980	
5568	0	32792	32792	
5569	0	32780	32662	
5570	0	32728	32646	
5571	0	32768	32788	
5572	0	32800	32645	
5573	0	32760	32664	
5574	0	32760	32646	
5575	0	32772	32816	
5576	0	32832	33002	
5577	0	32786	32972	
5578	0	32775	32910	
5579	0	32824	32796	
5580	0	32834	32812	
5581	0	32844	32758	
5582	0	32902	32668	
5583	0	32876	32658	
5584	0	32900	32716	
5585	0	32992	32543	
5586	0	32720	32770	
5587	0	32748	32790	
5588	0	32854	32800	
5589	0	32768	32708	
5590	0	32834	32750	
5591	0	32812	32564	
5592	0	32750	32832	
5593	0	32812	32856	
5594	0	32826	32874	
5595	0	32820	32836	
5596	0	32812	32822	
5597	0	32756	32876	
5598	0	32706	32772	
5599	0	32732	32814	
5600	0	32728	32768	
5601	0	32784	32728	
5602	0	32812	32684	
5603	0	32832	32824	
5604	0	32650	32775	
5605	0	32672	32686	
5606	0	32824	32643	
5607	0	32828	32670	
5608	0	32788	32730	
5609	0	32772	32736	
5610	0	32798	32945	
5611	0	32906	32894	
5612	0	32800	32904	
5613	0	32924	32832	
5614	0	32856	32654	
5615	0	32888	32634	
5616	0	32896	32551	
5617	0	32920	32647	
5618	0	32908	32516	
5619	0	32928	32642	
5620	0	32802	32666	
5621	0	32864	32890	
5622	0	32898	32836	
5623	0	32758	32903	
5624	0	32804	33020	
5625	0	32808	32935	
5626	0	32752	33052	
5627	0	32738	32775	
5628	0	32750	32692	
5629	0	32716	32647	
5630	0	32700	32630	
5631	0	32820	32584	
5632	0	32792	32752	
5633	0	32756	32720	
5634	0	32696	32911	
5635	0	32736	32796	
5636	0	32696	32903	
5637	0	32842	32796	
5638	0	32878	32738	
5639	0	32876	32724	
5640	0	32944	32812	
5641	0	32904	32934	
5642	0	32994	32712	
5643	0	32944	32878	
5644	0	32830	32850	
5645	0	32816	32870	
5646	0	32876	32774	
5647	0	32904	32770	
5648	0	32940	32684	
5649	0	32876	32682	
5650	0	32896	32730	
5651	0	32866	32968	
5652	0	32894	33086	
5653	0	32886	32912	
5654	0	32888	32850	
5655	0	32896	32871	
5656	0	32970	32910	
5657	0	33078	32926	
5658	0	33140	32948	
5659	0	33092	32910	
5660	0	32984	32628	
5661	0	32780	32626	
5662	0	32824	32462	
5663	0	32716	32557	
5664	0	32640	32604	
5665	0	32456	32694	
5666	0	32424	32501	
5667	0	32292	32390	
5668	0	32262	32358	
5669	0	32480	32228	
5670	0	32464	32396	
5671	0	32558	32536	
5672	0	32574	32614	
5673	0	32608	32704	
5674	0	32744	32888	
5675	0	32754	33018	
5676	0	33044	32864	
5677	0	33013	32910	
5678	0	32956	32790	
5679	0	33024	32792	
5680	0	33080	32832	
5681	0	32956	33014	
5682	0	32962	32983	
5683	0	32900	32932	
5684	0	33092	32920	
5685	0	33070	32752	
5686	0	33048	32820	
5687	0	33072	33014	
5688	0	33040	32944	
5689	0	32908	32724	
5690	0	32876	32735	
5691	0	32764	32695	
5692	0	32884	32768	
5693	0	32884	32913	
5694	0	32880	32831	
5695	0	32848	32978	
5696	0	32808	32740	
5697	0	32888	32832	
5698	0	32824	32678	
5699	0	32828	32652	
5700	0	32802	32602	
5701	0	32732	32684	
5702	0	32768	32804	
5703	0	32800	32692	
5704	0	32736	32758	
5705	0	32676	32660	
5706	0	32762	32754	
5707	0	32740	32614	
5708	0	32968	32704	
5709	0	32960	32636	
5710	0	33034	32820	
5711	0	33074	32774	
5712	0	33024	32816	
5713	0	32866	32712	
5714	0	32784	32756	
5715	0	32744	32775	
5716	0	32770	32678	
5717	0	32848	32748	
5718	0	32844	32682	
5719	0	32730	32796	
5720	0	32688	32800	
5721	0	32740	32822	
5722	0	32744	32838	
5723	0	32674	32864	
5724	0	32656	32870	
5725	0	32626	32856	
5726	0	32576	32852	
5727	0	32722	32714	
5728	0	32648	32582	
5729	0	32725	32652	
5730	0	32774	32698	
5731	0	32892	32711	
5732	0	32834	32716	
5733	0	32860	32834	
5734	0	32904	32902	
5735	0	32892	32895	
5736	0	32840	32812	
5737	0	32878	32730	
5738	0	32996	32692	
5739	0	32831	32680	
5740	0	32640	32647	
5741	0	32820	32693	
5742	0	32720	32758	
5743	0	32756	32958	
5744	0	32832	33020	
5745	0	32914	32804	
5746	0	32996	32880	
5747	0	33002	32812	
5748	0	32964	32789	
5749	0	32792	32740	
5750	0	32732	32722	
5751	0	32610	32738	
5752	0	32436	32638	
5753	0	32432	32816	
5754	0	32514	32756	
5755	0	32632	32750	
5756	0	32676	32824	
5757	0	32786	32688	
5758	0	32942	32662	
5759	0	32924	32599	
5760	0	32862	32870	
5761	0	32868	32775	
5762	0	32888	32760	
5763	0	32738	32856	
5764	0	32768	32759	
5765	0	32708	32708	
5766	0	32856	32601	
5767	0	32846	32758	
5768	0	32756	32584	
5769	0	32704	32746	
5770	0	32776	32786	
5771	0	32808	32980	
5772	0	32892	33044	
5773	0	32790	32832	
5774	0	32774	32854	
5775	0	32792	32651	
5776	0	32868	32698	
5777	0	32768	32628	
5778	0	32826	32715	
5779	0	32856	32738	
5780	0	32714	32720	
5781	0	32672	32704	
5782	0	32676	32614	
5783	0	32824	32752	
5784	0	32932	32954	
5785	0	32942	33031	
5786	0	32868	32799	
5787	0	32836	32592	
5788	0	32834	32809	
5789	0	32868	32788	
5790	0	32836	32726	
5791	0	32832	32572	
5792	0	32774	32556	
5793	0	32798	32774	
5794	0	32820	32708	
5795	0	32878	32807	
5796	0	32784	32872	
5797	0	32708	32826	
5798	0	32700	33003	
5799	0	32672	32868	
5800	0	32708	32768	
5801	0	32778	32726	
5802	0	32688	32694	
5803	0	32842	32743	
5804	0	32868	32792	
5805	0	32832	32834	
5806	0	32854	32808	
5807	0	32864	32909	
5808	0	32960	32772	
5809	0	32888	32730	
5810	0	32984	32718	
5811	0	32872	32687	
5812	0	32876	32668	
5813	0	32804	32842	
5814	0	32772	32952	
5815	0	32776	32872	
5816	0	32714	32764	
5817	0	32714	32578	
5818	0	32740	32684	
5819	0	32764	32482	
5820	0	32836	32706	
5821	0	32874	32604	
5822	0	32982	32662	
5823	0	32804	32804	
5824	0	32744	32980	
5825	0	32718	32980	
5826	0	32812	32998	
5827	0	32814	32772	
5828	0	32824	32862	
5829	0	32892	32832	
5830	0	32860	32602	
5831	0	32930	32746	
5832	0	32868	32870	
5833	0	32752	32910	
5834	0	32764	32824	
5835	0	32868	32827	
5836	0	32950	32788	
5837	0	32972	32750	
5838	0	32902	32652	
5839	0	32842	32627	
5840	0	32818	32670	
5841	0	32756	32848	
5842	0	32744	32798	
5843	0	32712	32806	
5844	0	32676	32928	
5845	0	32744	32759	
5846	0	32672	32800	
5847	0	32692	32848	
5848	0	32700	32791	
5849	0	32780	32734	
5850	0	32812	32822	
5851	0	32772	32728	
5852	0	32880	32678	
5853	0	32856	32806	
5854	0	32776	32710	
5855	0	32808	32725	
5856	0	32724	32708	
5857	0	32756	32775	
5858	0	32724	32728	
5859	0	32814	32736	
5860	0	32752	32832	
5861	0	32832	32943	
5862	0	32938	32900	
5863	0	32864	32916	
5864	0	32844	32704	
5865	0	32726	32704	
5866	0	32728	32847	
5867	0	32704	32738	
5868	0	32692	32806	
5869	0	32836	32623	
5870	0	32836	32528	
5871	0	32924	32504	
5872	0	32960	32654	
5873	0	32920	32646	
5874	0	32820	32774	
5875	0	32816	32832	
5876	0	32908	32860	
5877	0	32784	32839	
5878	0	32664	32924	
5879	0	32609	32948	
5880	0	32520	32748	
5881	0	32496	32750	
5882	0	32588	32644	
5883	0	32784	32674	
5884	0	32840	32872	
5885	0	32922	32916	
5886	0	32908	32714	
5887	0	32942	32775	
5888	0	32916	32836	
5889	0	32914	32903	
5890	0	32876	32657	
5891	0	32876	32452	
5892	0	32708	32574	
5893	0	32860	32519	
5894	0	32840	32788	
5895	0	32844	32872	
5896	0	32740	32834	
5897	0	32774	32964	
5898	0	32872	32982	
5899	0	32820	32620	
5900	0	32764	32734	
5901	0	32744	32696	
5902	0	32778	32775	
5903	0	32808	32977	
5904	0	32818	33010	
5905	0	32836	32868	
5906	0	32834	32724	
5907	0	32936	32807	
5908	0	32970	32836	
5909	0	32824	32716	
5910	0	32920	32725	
5911	0	32806	32647	
5912	0	32640	32740	
5913	0	32638	32774	
5914	0	32740	32630	
5915	0	32670	32775	
5916	0	32778	32743	
5917	0	32808	32847	
5918	0	32908	32784	
5919	0	32960	32726	
5920	0	32902	32766	
5921	0	32906	32874	
5922	0	32832	32750	
5923	0	32906	32684	
5924	0	32756	32551	
5925	0	32888	32704	
5926	0	32824	32624	
5927	0	32856	32752	
5928	0	32852	32915	
5929	0	32942	32880	
5930	0	32932	32826	
5931	0	32784	32942	
5932	0	32752	32850	
5933	0	32800	32575	
5934	0	32800	32615	
5935	0	32746	32654	
5936	0	32906	32742	
5937	0	33080	32679	
5938	0	33072	32692	
5939	0	33012	32844	
5940	0	32964	32888	
5941	0	32950	32882	
5942	0	32916	32804	
5943	0	32900	33080	
5944	0	32892	33031	
5945	0	32836	32602	
5946	0	32864	32823	
5947	0	32926	32912	
5948	0	32822	32804	
5949	0	32980	32800	
5950	0	32984	32730	
5951	0	32892	32724	
5952	0	32820	32732	
5953	0	32740	32647	
5954	0	32742	32706	
5955	0	32660	32690	
5956	0	32728	32704	
5957	0	32692	33004	
5958	0	32592	32843	
5959	0	32652	32831	
5960	0	32704	32720	
5961	0	32732	32936	
5962	0	32848	32854	
5963	0	32840	32753	
5964	0	32852	32647	
5965	0	32928	32552	
5966	0	33046	32590	
5967	0	33048	32679	
5968	0	32992	32566	
5969	0	33112	32672	
5970	0	33012	32718	
5971	0	32956	32868	
5972	0	32956	32700	
5973	0	32934	32740	
5974	0	32934	32760	
5975	0	32852	32874	
5976	0	32884	32796	
5977	0	32852	32924	
5978	0	32862	32908	
5979	0	32866	32928	
5980	0	32856	32768	
5981	0	32904	32799	
5982	0	32968	32746	
5983	0	32828	32775	
5984	0	32793	32700	
5985	0	32740	32534	
5986	0	32680	32545	
5987	0	32692	32670	
5988	0	32664	32678	
5989	0	32640	32675	
5990	0	32636	32817	
5991	0	32632	32967	
5992	0	32762	32972	
5993	0	32772	32919	
5994	0	32706	32934	
5995	0	32668	32596	
5996	0	32746	32660	
5997	0	32826	32632	
5998	0	32832	32762	
5999	0	32760	32775	
6000	0	32798	32792	
6001	0	32828	32679	
6002	0	32828	32583	
6003	0	32852	32711	
6004	0	32808	32903	
6005	0	32886	32935	
6006	0	32816	32884	
6007	0	32824	32766	
6008	0	32780	32582	
6009	0	32792	32484	
6010	0	32814	32666	
6011	0	32680	32546	
6012	0	32732	32580	
