# OpenSignals Text File Format. Version 1
# {"00:07:80:D8:AA:AB": {"position": 0, "device": "biosignalsplux", "device name": "00:07:80:D8:AA:AB", "device connection": "BTH00:07:80:D8:AA:AB", "sampling rate": 1000, "resolution": [16, 16], "firmware version": 773, "comments": "", "keywords": "", "mode": 0, "sync interval": 2, "date": "2023-2-23", "time": "12:34:51.338", "channels": [1, 2], "sensor": ["EMG", "EMG"], "label": ["CH1", "CH2"], "column": ["nSeq", "DI", "CH1", "CH2"], "special": [{}, {}], "digital IO": [0, 1], "convertedValues": 0}}
# EndOfHeader
0	0	32854	32845	
1	0	32827	32771	
2	0	32820	32772	
3	0	32868	32806	
4	0	32788	32832	
5	0	32745	32818	
6	0	32804	32862	
7	0	32836	32837	
8	0	32758	32775	
9	0	32805	32710	
10	0	32774	32815	
11	0	32743	32906	
12	0	32820	32699	
13	0	32795	32813	
14	0	32844	32731	
15	0	32740	32808	
16	0	32840	32826	
17	0	32890	32797	
18	0	32874	32854	
19	0	32852	32833	
20	0	32824	32807	
21	0	32828	32706	
22	0	32756	32842	
23	0	32733	32707	
24	0	32890	32751	
25	0	32800	32843	
26	0	32820	32775	
27	0	32832	32823	
28	0	32742	32832	
29	0	32788	32785	
30	0	32808	32821	
31	0	32872	32855	
32	0	32804	32696	
33	0	32800	32884	
34	0	32828	32722	
35	0	32772	32849	
36	0	32736	32815	
37	0	32832	32806	
38	0	32839	32915	
39	0	32754	32879	
40	0	32792	32845	
41	0	32764	32716	
42	0	32766	32919	
43	0	32856	32745	
44	0	32810	32850	
45	0	32812	32816	
46	0	32833	32731	
47	0	32824	32820	
48	0	32752	32834	
49	0	32800	32772	
50	0	32832	32824	
51	0	32785	32736	
52	0	32836	32824	
53	0	32837	32858	
54	0	32800	32789	
55	0	32826	32734	
56	0	32856	32810	
57	0	32801	32897	
58	0	32768	32763	
59	0	32780	32812	
60	0	32760	32869	
61	0	32771	32714	
62	0	32809	32750	
63	0	32736	32812	
64	0	32784	32728	
65	0	32848	32825	
66	0	32838	32805	
67	0	32820	32727	
68	0	32720	32772	
69	0	32800	32751	
70	0	32853	32690	
71	0	32812	32837	
72	0	32820	32775	
73	0	32828	32804	
74	0	32840	32911	
75	0	32872	32723	
76	0	32780	32829	
77	0	32836	32964	
78	0	32816	32688	
79	0	32782	32854	
80	0	32868	32839	
81	0	32848	32822	
82	0	32762	32918	
83	0	32804	32691	
84	0	32786	32807	
85	0	32844	32863	
86	0	32724	32775	
87	0	32760	32765	
88	0	32804	32839	
89	0	32810	32863	
90	0	32780	32811	
91	0	32848	32730	
92	0	32810	32807	
93	0	32777	32788	
94	0	32737	32848	
95	0	32834	32846	
96	0	32784	32775	
97	0	32832	32736	
98	0	32797	32855	
99	0	32762	32828	
100	0	32832	32908	
101	0	32884	32814	
102	0	32804	32700	
103	0	32740	32773	
104	0	32805	32762	
105	0	32822	32864	
106	0	32813	32739	
107	0	32795	32814	
108	0	32801	32810	
109	0	32778	32900	
110	0	32839	32864	
111	0	32856	32762	
112	0	32884	32837	
113	0	32876	32838	
114	0	32800	32772	
115	0	32805	32826	
116	0	32792	32876	
117	0	32750	32728	
118	0	32800	32806	
119	0	32800	32875	
120	0	32796	32866	
121	0	32796	32788	
122	0	32860	32846	
123	0	32861	32757	
124	0	32813	32768	
125	0	32772	32867	
126	0	32820	32847	
127	0	32852	32701	
128	0	32732	32848	
129	0	32808	32848	
130	0	32864	32756	
131	0	32804	32868	
132	0	32804	32830	
133	0	32734	32880	
134	0	32822	32771	
135	0	32825	32724	
136	0	32837	32837	
137	0	32856	32921	
138	0	32804	32728	
139	0	32848	32826	
140	0	32768	32826	
141	0	32782	32724	
142	0	32838	32706	
143	0	32780	32810	
144	0	32840	32818	
145	0	32880	32775	
146	0	32781	32805	
147	0	32804	32810	
148	0	32818	32873	
149	0	32797	32762	
150	0	32764	32694	
151	0	32834	32819	
152	0	32708	32805	
153	0	32872	32711	
154	0	32832	32818	
155	0	32808	32888	
156	0	32728	32840	
157	0	32820	32706	
158	0	32820	32839	
159	0	32830	32852	
160	0	32780	32839	
161	0	32784	32676	
162	0	32853	32782	
163	0	32800	32818	
164	0	32835	32893	
165	0	32778	32750	
166	0	32842	32844	
167	0	32740	32879	
168	0	32850	32774	
169	0	32812	32788	
170	0	32760	32861	
171	0	32822	32832	
172	0	32808	32784	
173	0	32816	32787	
174	0	32828	32718	
175	0	32822	32786	
176	0	32754	32773	
177	0	32824	32900	
178	0	32780	32763	
179	0	32864	32755	
180	0	32816	32775	
181	0	32778	32819	
182	0	32804	32848	
183	0	32836	32805	
184	0	32805	32754	
185	0	32760	32832	
186	0	32790	32906	
187	0	32789	32770	
188	0	32788	32720	
189	0	32852	32908	
190	0	32871	32869	
191	0	32768	32698	
192	0	32768	32796	
193	0	32861	32835	
194	0	32840	32850	
195	0	32860	32746	
196	0	32872	32808	
197	0	32749	32815	
198	0	32848	32738	
199	0	32792	32790	
200	0	32773	32846	
201	0	32872	32924	
202	0	32820	32856	
203	0	32776	32948	
204	0	32746	32921	
205	0	32882	32773	
206	0	32767	32744	
207	0	32822	32724	
208	0	32840	32661	
209	0	32821	32758	
210	0	32818	32829	
211	0	32804	32721	
212	0	32836	32750	
213	0	32816	32762	
214	0	32772	32795	
215	0	32775	32832	
216	0	32876	32832	
217	0	32761	32768	
218	0	32818	32840	
219	0	32833	32797	
220	0	32864	32850	
221	0	32752	32808	
222	0	32786	32752	
223	0	32836	32741	
224	0	32780	32780	
225	0	32720	32933	
226	0	32832	32755	
227	0	32840	32706	
228	0	32846	32792	
229	0	32805	32857	
230	0	32802	32839	
231	0	32752	32754	
232	0	32801	32771	
233	0	32758	32896	
234	0	32820	32820	
235	0	32764	32758	
236	0	32714	32818	
237	0	32797	32837	
238	0	32833	32763	
239	0	32792	32849	
240	0	32832	32859	
241	0	32828	32699	
242	0	32762	32827	
243	0	32848	32851	
244	0	32811	32717	
245	0	32820	32867	
246	0	32812	32805	
247	0	32848	32770	
248	0	32832	32878	
249	0	32868	32867	
250	0	32812	32733	
251	0	32788	32816	
252	0	32795	32866	
253	0	32772	32729	
254	0	32818	32856	
255	0	32828	32814	
256	0	32797	32808	
257	0	32800	32764	
258	0	32889	32828	
259	0	32748	32762	
260	0	32842	32813	
261	0	32804	32784	
262	0	32760	32769	
263	0	32784	32760	
264	0	32790	32857	
265	0	32780	32826	
266	0	32876	32850	
267	0	32768	32748	
268	0	32775	32897	
269	0	32884	32775	
270	0	32769	32856	
271	0	32826	32696	
272	0	32800	32822	
273	0	32826	32663	
274	0	32816	32833	
275	0	32772	32723	
276	0	32832	32813	
277	0	32841	32792	
278	0	32732	32842	
279	0	32788	32848	
280	0	32766	32752	
281	0	32764	32820	
282	0	32766	32846	
283	0	32793	32843	
284	0	32826	32903	
285	0	32786	32848	
286	0	32826	32864	
287	0	32836	32775	
288	0	32852	32815	
289	0	32810	32828	
290	0	32785	32757	
291	0	32878	32933	
292	0	32809	32793	
293	0	32848	32860	
294	0	32760	32738	
295	0	32836	32783	
296	0	32835	32762	
297	0	32792	32821	
298	0	32800	32710	
299	0	32784	32866	
300	0	32852	32723	
301	0	32745	32844	
302	0	32790	32799	
303	0	32826	32866	
304	0	32777	32754	
305	0	32700	32790	
306	0	32844	32834	
307	0	32728	32797	
308	0	32860	32919	
309	0	32820	32691	
310	0	32848	32836	
311	0	32842	32723	
312	0	32825	32833	
313	0	32768	32881	
314	0	32834	32876	
315	0	32864	32756	
316	0	32812	32819	
317	0	32816	32882	
318	0	32836	32768	
319	0	32824	32839	
320	0	32790	32775	
321	0	32808	32793	
322	0	32840	32775	
323	0	32749	32775	
324	0	32806	32775	
325	0	32820	32800	
326	0	32812	32853	
327	0	32813	32805	
328	0	32824	32784	
329	0	32775	32775	
330	0	32784	32799	
331	0	32837	32854	
332	0	32802	32784	
333	0	32808	32823	
334	0	32832	32830	
335	0	32884	32912	
336	0	32768	32746	
337	0	32800	32786	
338	0	32876	32791	
339	0	32810	32860	
340	0	32724	32811	
341	0	32762	32741	
342	0	32774	32815	
343	0	32836	32764	
344	0	32813	32799	
345	0	32844	32919	
346	0	32820	32663	
347	0	32876	32805	
348	0	32794	32763	
349	0	32784	32844	
350	0	32788	32844	
351	0	32796	32775	
352	0	32812	32836	
353	0	32752	32713	
354	0	32828	32837	
355	0	32784	32802	
356	0	32816	32760	
357	0	32788	32829	
358	0	32836	32707	
359	0	32770	32812	
360	0	32834	32768	
361	0	32813	32834	
362	0	32826	32862	
363	0	32775	32834	
364	0	32814	32855	
365	0	32779	32720	
366	0	32838	32873	
367	0	32860	32888	
368	0	32864	32690	
369	0	32796	32888	
370	0	32803	32775	
371	0	32824	32844	
372	0	32744	32848	
373	0	32846	32938	
374	0	32778	32749	
375	0	32792	32850	
376	0	32780	32728	
377	0	32816	32718	
378	0	32788	32850	
379	0	32720	32771	
380	0	32797	32859	
381	0	32838	32723	
382	0	32861	32845	
383	0	32760	32792	
384	0	32896	32805	
385	0	32816	32848	
386	0	32768	32768	
387	0	32840	32840	
388	0	32808	32726	
389	0	32752	32782	
390	0	32844	32741	
391	0	32772	32815	
392	0	32799	32820	
393	0	32785	32744	
394	0	32781	32848	
395	0	32848	32851	
396	0	32842	32747	
397	0	32820	32871	
398	0	32804	32810	
399	0	32801	32830	
400	0	32762	32903	
401	0	32820	32825	
402	0	32788	32763	
403	0	32780	32839	
404	0	32844	32823	
405	0	32832	32729	
406	0	32865	32879	
407	0	32812	32797	
408	0	32849	32848	
409	0	32861	32691	
410	0	32785	32816	
411	0	32808	32841	
412	0	32820	32898	
413	0	32744	32775	
414	0	32786	32838	
415	0	32784	32860	
416	0	32774	32914	
417	0	32752	32730	
418	0	32802	32884	
419	0	32772	32729	
420	0	32765	32805	
421	0	32871	32699	
422	0	32792	32835	
423	0	32732	32729	
424	0	32812	32802	
425	0	32910	32763	
426	0	32820	32827	
427	0	32876	32809	
428	0	32800	32861	
429	0	32856	32802	
430	0	32800	32816	
431	0	32794	32825	
432	0	32754	32855	
433	0	32841	32815	
434	0	32785	32816	
435	0	32768	32804	
436	0	32819	32810	
437	0	32775	32962	
438	0	32797	32730	
439	0	32809	32796	
440	0	32839	32834	
441	0	32812	32794	
442	0	32762	32811	
443	0	32728	32754	
444	0	32700	32866	
445	0	32837	32736	
446	0	32835	32824	
447	0	32803	32782	
448	0	32816	32800	
449	0	32838	32814	
450	0	32864	32850	
451	0	32860	32845	
452	0	32743	32834	
453	0	32872	32836	
454	0	32932	32758	
455	0	32829	32832	
456	0	32832	32828	
457	0	32796	32833	
458	0	32824	32824	
459	0	32796	32902	
460	0	32796	32744	
461	0	32820	32917	
462	0	32750	32720	
463	0	32800	32848	
464	0	32852	32851	
465	0	32858	32793	
466	0	32841	32882	
467	0	32814	32757	
468	0	32800	32857	
469	0	32797	32766	
470	0	32822	32824	
471	0	32794	32775	
472	0	32824	32699	
473	0	32792	32850	
474	0	32856	32831	
475	0	32800	32804	
476	0	32724	32708	
477	0	32780	32784	
478	0	32874	32746	
479	0	32812	32810	
480	0	32866	32755	
481	0	32774	32835	
482	0	32760	32802	
483	0	32745	32896	
484	0	32816	32913	
485	0	32768	32815	
486	0	32784	32946	
487	0	32878	32700	
488	0	32786	32816	
489	0	32818	32772	
490	0	32872	32800	
491	0	32880	32829	
492	0	32772	32844	
493	0	32788	32945	
494	0	32825	32734	
495	0	32784	32794	
496	0	32824	32772	
497	0	32785	32812	
498	0	32820	32819	
499	0	32754	32758	
500	0	32848	32838	
501	0	32784	32718	
502	0	32818	32839	
503	0	32848	32855	
504	0	32826	32790	
505	0	32820	32805	
506	0	32856	32734	
507	0	32765	32804	
508	0	32884	32847	
509	0	32792	32807	
510	0	32836	32916	
511	0	32810	32747	
512	0	32736	32816	
513	0	32836	32775	
514	0	32797	32758	
515	0	32804	32850	
516	0	32858	32710	
517	0	32870	32818	
518	0	32784	32805	
519	0	32826	32797	
520	0	32762	32720	
521	0	32773	32786	
522	0	32858	32738	
523	0	32802	32802	
524	0	32724	32825	
525	0	32852	32835	
526	0	32884	32871	
527	0	32860	32745	
528	0	32756	32903	
529	0	32808	32742	
530	0	32804	32824	
531	0	32804	32733	
532	0	32766	32837	
533	0	32808	32742	
534	0	32742	32797	
535	0	32820	32809	
536	0	32828	32827	
537	0	32836	32775	
538	0	32808	32764	
539	0	32856	32736	
540	0	32784	32882	
541	0	32766	32704	
542	0	32772	32791	
543	0	32801	32811	
544	0	32799	32772	
545	0	32844	32741	
546	0	32744	32789	
547	0	32736	32711	
548	0	32820	32839	
549	0	32786	32733	
550	0	32809	32952	
551	0	32856	32755	
552	0	32809	32853	
553	0	32740	32850	
554	0	32825	32879	
555	0	32802	32773	
556	0	32800	32783	
557	0	32779	32897	
558	0	32849	32894	
559	0	32794	32818	
560	0	32808	32876	
561	0	32824	32784	
562	0	32772	32795	
563	0	32800	32784	
564	0	32817	32745	
565	0	32813	32868	
566	0	32810	32727	
567	0	32824	32837	
568	0	32788	32761	
569	0	32796	32856	
570	0	32832	32848	
571	0	32781	32850	
572	0	32772	32785	
573	0	32772	32676	
574	0	32896	32820	
575	0	32812	32851	
576	0	32784	32947	
577	0	32775	32846	
578	0	32810	32868	
579	0	32748	32872	
580	0	32768	32892	
581	0	32816	32840	
582	0	32844	32839	
583	0	32797	32736	
584	0	32778	32859	
585	0	32775	32762	
586	0	32810	32856	
587	0	32804	32728	
588	0	32775	32789	
589	0	32856	32732	
590	0	32852	32826	
591	0	32864	32706	
592	0	32809	32729	
593	0	32786	32660	
594	0	32832	32664	
595	0	32997	32643	
596	0	32964	32712	
597	0	33012	32586	
598	0	32950	32666	
599	0	32992	32644	
600	0	32892	32552	
601	0	32873	32690	
602	0	32860	32666	
603	0	32892	32756	
604	0	32866	32800	
605	0	32866	32762	
606	0	32753	32850	
607	0	32670	32803	
608	0	32690	32913	
609	0	32708	32834	
610	0	32654	32912	
611	0	32738	32853	
612	0	32688	32979	
613	0	32756	32885	
614	0	32741	33037	
615	0	32669	33018	
616	0	32762	32902	
617	0	32648	33129	
618	0	32637	32989	
619	0	32605	33120	
620	0	32600	33093	
621	0	32624	33180	
622	0	32688	32910	
623	0	32744	32966	
624	0	32778	32940	
625	0	32802	32837	
626	0	32824	32947	
627	0	32872	32754	
628	0	32788	32793	
629	0	32864	32746	
630	0	32904	32732	
631	0	32880	32720	
632	0	32875	32735	
633	0	32834	32644	
634	0	32862	32664	
635	0	32900	32707	
636	0	32864	32725	
637	0	32882	32686	
638	0	32904	32775	
639	0	32918	32710	
640	0	32832	32683	
641	0	32802	32804	
642	0	32800	32611	
643	0	32825	32656	
644	0	32809	32701	
645	0	32903	32821	
646	0	32845	32751	
647	0	32884	32809	
648	0	32753	32734	
649	0	32820	32857	
650	0	32785	32775	
651	0	32801	32771	
652	0	32794	32765	
653	0	32824	32824	
654	0	32812	32787	
655	0	32786	32850	
656	0	32816	32758	
657	0	32828	32808	
658	0	32762	32740	
659	0	32862	32856	
660	0	32768	32799	
661	0	32796	32775	
662	0	32780	32820	
663	0	32777	32826	
664	0	32788	32786	
665	0	32801	32791	
666	0	32869	32793	
667	0	32752	32822	
668	0	32820	32825	
669	0	32733	32869	
670	0	32840	32805	
671	0	32780	32838	
672	0	32848	32872	
673	0	32846	32709	
674	0	32812	32775	
675	0	32814	32871	
676	0	32841	32736	
677	0	32868	32879	
678	0	32753	32752	
679	0	32800	32832	
680	0	32808	32704	
681	0	32784	32868	
682	0	32740	32783	
683	0	32852	32816	
684	0	32784	32765	
685	0	32856	32804	
686	0	32824	32890	
687	0	32828	32754	
688	0	32824	32918	
689	0	32784	32729	
690	0	32846	32883	
691	0	32762	32840	
692	0	32760	32690	
693	0	32752	32743	
694	0	32850	32751	
695	0	32744	32710	
696	0	32812	32871	
697	0	32760	32765	
698	0	32822	32838	
699	0	32796	32830	
700	0	32816	32816	
701	0	32775	32786	
702	0	32808	32820	
703	0	32796	32876	
704	0	32756	32755	
705	0	32813	32890	
706	0	32872	32698	
707	0	32820	32903	
708	0	32805	32714	
709	0	32797	32807	
710	0	32797	32736	
711	0	32816	32752	
712	0	32868	32770	
713	0	32801	32823	
714	0	32761	32906	
715	0	32784	32775	
716	0	32773	32826	
717	0	32811	32823	
718	0	32768	32833	
719	0	32794	32765	
720	0	32866	32793	
721	0	32824	32893	
722	0	32824	32790	
723	0	32844	32841	
724	0	32858	32740	
725	0	32761	32861	
726	0	32816	32790	
727	0	32800	32775	
728	0	32840	32716	
729	0	32794	32842	
730	0	32793	32800	
731	0	32852	32820	
732	0	32748	32817	
733	0	32764	32819	
734	0	32788	32817	
735	0	32832	32882	
736	0	32769	32839	
737	0	32840	32816	
738	0	32808	32897	
739	0	32868	32713	
740	0	32854	32903	
741	0	32857	32690	
742	0	32800	32824	
743	0	32842	32717	
744	0	32748	32807	
745	0	32770	32742	
746	0	32769	32855	
747	0	32780	32784	
748	0	32812	32793	
749	0	32788	32788	
750	0	32768	32795	
751	0	32800	32891	
752	0	32788	32838	
753	0	32768	32738	
754	0	32848	32803	
755	0	32805	32763	
756	0	32768	32941	
757	0	32760	32768	
758	0	32780	32704	
759	0	32794	32772	
760	0	32808	32863	
761	0	32812	32807	
762	0	32854	32853	
763	0	32793	32860	
764	0	32722	32713	
765	0	32770	32818	
766	0	32792	32711	
767	0	32797	32868	
768	0	32828	32820	
769	0	32836	32804	
770	0	32775	32865	
771	0	32842	32708	
772	0	32820	32804	
773	0	32861	32842	
774	0	32790	32772	
775	0	32852	32814	
776	0	32838	32916	
777	0	32775	32756	
778	0	32772	32876	
779	0	32792	32733	
780	0	32775	32822	
781	0	32792	32708	
782	0	32769	32824	
783	0	32781	32775	
784	0	32771	32837	
785	0	32841	32775	
786	0	32829	32788	
787	0	32832	32800	
788	0	32840	32790	
789	0	32786	32856	
790	0	32840	32738	
791	0	32816	32903	
792	0	32834	32760	
793	0	32794	32802	
794	0	32778	32812	
795	0	32768	32801	
796	0	32852	32817	
797	0	32728	32820	
798	0	32824	32865	
799	0	32836	32717	
800	0	32749	32864	
801	0	32801	32897	
802	0	32784	32739	
803	0	32904	32785	
804	0	32772	32791	
805	0	32804	32861	
806	0	32860	32797	
807	0	32796	32805	
808	0	32771	32854	
809	0	32816	32848	
810	0	32810	32857	
811	0	32775	32760	
812	0	32832	32868	
813	0	32801	32696	
814	0	32848	32806	
815	0	32836	32772	
816	0	32836	32826	
817	0	32804	32694	
818	0	32840	32799	
819	0	32765	32758	
820	0	32788	32846	
821	0	32837	32902	
822	0	32760	32750	
823	0	32788	32846	
824	0	32842	32719	
825	0	32810	32859	
826	0	32820	32775	
827	0	32796	32758	
828	0	32796	32846	
829	0	32764	32721	
830	0	32899	32812	
831	0	32809	32732	
832	0	32809	32861	
833	0	32874	32787	
834	0	32793	32815	
835	0	32756	32844	
836	0	32772	32827	
837	0	32770	32882	
838	0	32833	32760	
839	0	32760	32752	
840	0	32824	32762	
841	0	32749	32837	
842	0	32812	32735	
843	0	32808	32844	
844	0	32829	32874	
845	0	32816	32704	
846	0	32856	32852	
847	0	32801	32815	
848	0	32792	32740	
849	0	32739	32840	
850	0	32844	32795	
851	0	32768	32804	
852	0	32748	32775	
853	0	32800	32854	
854	0	32841	32902	
855	0	32808	32775	
856	0	32841	32836	
857	0	32760	32756	
858	0	32826	32927	
859	0	32794	32710	
860	0	32744	32754	
861	0	32816	32766	
862	0	32816	32807	
863	0	32796	32865	
864	0	32799	32801	
865	0	32789	32882	
866	0	32768	32753	
867	0	32737	32855	
868	0	32848	32729	
869	0	32824	32824	
870	0	32824	32759	
871	0	32864	32758	
872	0	32816	32829	
873	0	32740	32859	
874	0	32834	32920	
875	0	32780	32732	
876	0	32804	32819	
877	0	32882	32771	
878	0	32734	32817	
879	0	32809	32916	
880	0	32786	32837	
881	0	32778	32892	
882	0	32725	32840	
883	0	32788	32882	
884	0	32852	32728	
885	0	32800	32870	
886	0	32837	32760	
887	0	32802	32891	
888	0	32796	32756	
889	0	32805	32850	
890	0	32772	32820	
891	0	32746	32820	
892	0	32832	32890	
893	0	32820	32794	
894	0	32808	32866	
895	0	32818	32733	
896	0	32774	32842	
897	0	32810	32703	
898	0	32748	32804	
899	0	32784	32884	
900	0	32738	32747	
901	0	32838	32850	
902	0	32834	32745	
903	0	32836	32775	
904	0	32786	32894	
905	0	32826	32743	
906	0	32748	32844	
907	0	32852	32886	
908	0	32775	32759	
909	0	32762	32841	
910	0	32786	32785	
911	0	32842	32839	
912	0	32748	32733	
913	0	32848	32833	
914	0	32876	32930	
915	0	32736	32691	
916	0	32765	32812	
917	0	32796	32840	
918	0	32786	32746	
919	0	32840	32773	
920	0	32801	32772	
921	0	32784	32815	
922	0	32848	32822	
923	0	32808	32836	
924	0	32761	32820	
925	0	32756	32821	
926	0	32833	32883	
927	0	32797	32832	
928	0	32856	32865	
929	0	32760	32670	
930	0	32818	32826	
931	0	32809	32784	
932	0	32784	32816	
933	0	32824	32819	
934	0	32772	32930	
935	0	32792	32831	
936	0	32838	32852	
937	0	32800	32815	
938	0	32824	32850	
939	0	32846	32805	
940	0	32808	32883	
941	0	32756	32832	
942	0	32800	32853	
943	0	32872	32752	
944	0	32906	32775	
945	0	32784	32868	
946	0	32816	32715	
947	0	32864	32799	
948	0	32768	32780	
949	0	32826	32810	
950	0	32826	32741	
951	0	32842	32790	
952	0	32810	32703	
953	0	32850	32786	
954	0	32808	32788	
955	0	32840	32706	
956	0	32818	32890	
957	0	32779	32717	
958	0	32792	32836	
959	0	32878	32747	
960	0	32754	32863	
961	0	32844	32840	
962	0	32800	32757	
963	0	32808	32850	
964	0	32846	32770	
965	0	32752	32875	
966	0	32836	32746	
967	0	32832	32801	
968	0	32828	32879	
969	0	32792	32710	
970	0	32866	32815	
971	0	32772	32879	
972	0	32872	32790	
973	0	32796	32818	
974	0	32770	32888	
975	0	32800	32679	
976	0	32752	32795	
977	0	32834	32859	
978	0	32865	32769	
979	0	32824	32720	
980	0	32800	32734	
981	0	32784	32836	
982	0	32880	32798	
983	0	32780	32868	
984	0	32846	32728	
985	0	32775	32824	
986	0	32826	32832	
987	0	32769	32808	
988	0	32752	32760	
989	0	32736	32851	
990	0	32796	32856	
991	0	32846	32758	
992	0	32839	32832	
993	0	32752	32824	
994	0	32804	32748	
995	0	32788	32804	
996	0	32837	32827	
997	0	32754	32772	
998	0	32818	32827	
999	0	32808	32882	
1000	0	32764	32741	
1001	0	32864	32825	
1002	0	32832	32754	
1003	0	32804	32784	
1004	0	32730	32956	
1005	0	32801	32690	
1006	0	32762	32864	
1007	0	32820	32802	
1008	0	32840	32764	
1009	0	32770	32754	
1010	0	32825	32813	
1011	0	32775	32792	
1012	0	32822	32807	
1013	0	32808	32833	
1014	0	32838	32755	
1015	0	32720	32802	
1016	0	32788	32820	
1017	0	32796	32784	
1018	0	32824	32752	
1019	0	32876	32830	
1020	0	32795	32767	
1021	0	32882	32869	
1022	0	32797	32819	
1023	0	32829	32818	
1024	0	32812	32752	
1025	0	32829	32813	
1026	0	32852	32847	
1027	0	32736	32738	
1028	0	32844	32794	
1029	0	32769	32775	
1030	0	32738	32828	
1031	0	32861	32775	
1032	0	32828	32862	
1033	0	32808	32834	
1034	0	32832	32742	
1035	0	32793	32839	
1036	0	32780	32749	
1037	0	32756	32780	
1038	0	32754	32789	
1039	0	32832	32831	
1040	0	32812	32766	
1041	0	32772	32860	
1042	0	32873	32808	
1043	0	32808	32831	
1044	0	32797	32852	
1045	0	32890	32792	
1046	0	32826	32854	
1047	0	32752	32825	
1048	0	32861	32859	
1049	0	32798	32808	
1050	0	32892	32845	
1051	0	32816	32890	
1052	0	32736	32929	
1053	0	32811	32805	
1054	0	32788	32804	
1055	0	32822	32884	
1056	0	32754	32898	
1057	0	32792	32871	
1058	0	32821	32939	
1059	0	32788	32757	
1060	0	32820	32831	
1061	0	32808	32769	
1062	0	32836	32815	
1063	0	32746	32711	
1064	0	32827	32826	
1065	0	32858	32829	
1066	0	32779	32840	
1067	0	32832	32876	
1068	0	32828	32710	
1069	0	32796	32867	
1070	0	32776	32769	
1071	0	32720	32854	
1072	0	32805	32775	
1073	0	32832	32792	
1074	0	32888	32791	
1075	0	32762	32873	
1076	0	32808	32832	
1077	0	32742	32710	
1078	0	32775	32854	
1079	0	32821	32802	
1080	0	32840	32804	
1081	0	32763	32839	
1082	0	32820	32729	
1083	0	32844	32841	
1084	0	32766	32793	
1085	0	32832	32844	
1086	0	32786	32733	
1087	0	32800	32775	
1088	0	32780	32816	
1089	0	32813	32867	
1090	0	32775	32871	
1091	0	32824	32789	
1092	0	32824	32808	
1093	0	32783	32762	
1094	0	32918	32775	
1095	0	32760	32792	
1096	0	32837	32772	
1097	0	32849	32876	
1098	0	32829	32888	
1099	0	32886	32766	
1100	0	32808	32806	
1101	0	32834	32794	
1102	0	32860	32824	
1103	0	32741	32828	
1104	0	32788	32775	
1105	0	32770	32833	
1106	0	32824	32887	
1107	0	32746	32763	
1108	0	32838	32797	
1109	0	32808	32770	
1110	0	32800	32816	
1111	0	32805	32844	
1112	0	32850	32734	
1113	0	32738	32810	
1114	0	32756	32775	
1115	0	32764	32822	
1116	0	32872	32804	
1117	0	32805	32857	
1118	0	32820	32752	
1119	0	32805	32822	
1120	0	32862	32876	
1121	0	32825	32790	
1122	0	32775	32786	
1123	0	32758	32799	
1124	0	32830	32808	
1125	0	32810	32825	
1126	0	32816	32722	
1127	0	32828	32888	
1128	0	32834	32804	
1129	0	32774	32916	
1130	0	32797	32758	
1131	0	32797	32820	
1132	0	32804	32728	
1133	0	32866	32873	
1134	0	32774	32798	
1135	0	32856	32921	
1136	0	32754	32878	
1137	0	32829	32737	
1138	0	32842	32800	
1139	0	32813	32714	
1140	0	32754	32840	
1141	0	32740	32762	
1142	0	32777	32837	
1143	0	32840	32842	
1144	0	32820	32740	
1145	0	32772	32852	
1146	0	32763	32720	
1147	0	32874	32873	
1148	0	32774	32833	
1149	0	32832	32853	
1150	0	32760	32819	
1151	0	32820	32735	
1152	0	32812	32801	
1153	0	32808	32708	
1154	0	32768	32831	
1155	0	32774	32748	
1156	0	32748	32789	
1157	0	32776	32720	
1158	0	32802	32773	
1159	0	32822	32763	
1160	0	32722	32824	
1161	0	32758	32714	
1162	0	32826	32810	
1163	0	32816	32793	
1164	0	32805	32822	
1165	0	32805	32746	
1166	0	32834	32758	
1167	0	32842	32761	
1168	0	32822	32826	
1169	0	32766	32898	
1170	0	32775	32812	
1171	0	32775	32769	
1172	0	32784	32852	
1173	0	32764	32740	
1174	0	32816	32822	
1175	0	32778	32711	
1176	0	32851	32808	
1177	0	32856	32866	
1178	0	32816	32775	
1179	0	32884	32822	
1180	0	32782	32752	
1181	0	32726	32824	
1182	0	32768	32934	
1183	0	32740	32884	
1184	0	32740	32853	
1185	0	32777	32723	
1186	0	32866	32754	
1187	0	32848	32709	
1188	0	32802	32795	
1189	0	32820	32852	
1190	0	32802	32766	
1191	0	32832	32838	
1192	0	32842	32772	
1193	0	32832	32812	
1194	0	32792	32799	
1195	0	32746	32872	
1196	0	32737	32887	
1197	0	32836	32756	
1198	0	32902	32846	
1199	0	32720	32773	
1200	0	32810	32889	
1201	0	32796	32837	
1202	0	32831	32759	
1203	0	32837	32738	
1204	0	32775	32850	
1205	0	32755	32732	
1206	0	32818	32767	
1207	0	32756	32805	
1208	0	32828	32868	
1209	0	32812	32761	
1210	0	32813	32866	
1211	0	32869	32687	
1212	0	32758	32796	
1213	0	32770	32837	
1214	0	32773	32773	
1215	0	32832	32807	
1216	0	32836	32820	
1217	0	32880	32831	
1218	0	32824	32759	
1219	0	32860	32912	
1220	0	32812	32766	
1221	0	32824	32841	
1222	0	32784	32846	
1223	0	32766	32746	
1224	0	32756	32827	
1225	0	32836	32687	
1226	0	32884	32822	
1227	0	32830	32797	
1228	0	32754	32832	
1229	0	32771	32728	
1230	0	32832	32811	
1231	0	32776	32722	
1232	0	32840	32839	
1233	0	32797	32903	
1234	0	32860	32848	
1235	0	32854	32850	
1236	0	32776	32748	
1237	0	32788	32898	
1238	0	32824	32724	
1239	0	32844	32892	
1240	0	32724	32760	
1241	0	32785	32812	
1242	0	32776	32721	
1243	0	32804	32813	
1244	0	32822	32794	
1245	0	32816	32830	
1246	0	32812	32775	
1247	0	32801	32789	
1248	0	32836	32840	
1249	0	32764	32882	
1250	0	32850	32767	
1251	0	32808	32795	
1252	0	32824	32869	
1253	0	32752	32768	
1254	0	32868	32888	
1255	0	32832	32766	
1256	0	32811	32822	
1257	0	32812	32803	
1258	0	32836	32823	
1259	0	32904	32816	
1260	0	32814	32781	
1261	0	32805	32797	
1262	0	32768	32765	
1263	0	32792	32760	
1264	0	32829	32813	
1265	0	32824	32754	
1266	0	32864	32824	
1267	0	32798	32710	
1268	0	32792	32796	
1269	0	32737	32820	
1270	0	32826	32804	
1271	0	32760	32705	
1272	0	32820	32839	
1273	0	32844	32839	
1274	0	32724	32757	
1275	0	32786	32810	
1276	0	32840	32821	
1277	0	32821	32831	
1278	0	32796	32819	
1279	0	32791	32830	
1280	0	32746	32859	
1281	0	32804	32741	
1282	0	32764	32846	
1283	0	32792	32864	
1284	0	32846	32713	
1285	0	32808	32836	
1286	0	32818	32754	
1287	0	32728	32903	
1288	0	32853	32734	
1289	0	32788	32883	
1290	0	32812	32745	
1291	0	32896	32775	
1292	0	32808	32775	
1293	0	32780	32758	
1294	0	32789	32843	
1295	0	32816	32813	
1296	0	32740	32836	
1297	0	32796	32728	
1298	0	32876	32871	
1299	0	32789	32775	
1300	0	32754	32825	
1301	0	32844	32861	
1302	0	32816	32775	
1303	0	32832	32806	
1304	0	32780	32759	
1305	0	32820	32841	
1306	0	32877	32813	
1307	0	32768	32834	
1308	0	32823	32872	
1309	0	32806	32801	
1310	0	32832	32848	
1311	0	32841	32838	
1312	0	32728	32879	
1313	0	32812	32758	
1314	0	32797	32754	
1315	0	32852	32775	
1316	0	32768	32813	
1317	0	32816	32927	
1318	0	32792	32701	
1319	0	32800	32786	
1320	0	32797	32742	
1321	0	32780	32838	
1322	0	32796	32775	
1323	0	32876	32820	
1324	0	32868	32866	
1325	0	32908	32738	
1326	0	32805	32825	
1327	0	32768	32832	
1328	0	32753	32782	
1329	0	32816	32823	
1330	0	32846	32785	
1331	0	32812	32818	
1332	0	32760	32936	
1333	0	32840	32760	
1334	0	32812	32820	
1335	0	32852	32718	
1336	0	32840	32858	
1337	0	32856	32846	
1338	0	32724	32789	
1339	0	32820	32756	
1340	0	32796	32824	
1341	0	32765	32884	
1342	0	32792	32764	
1343	0	32804	32883	
1344	0	32792	32813	
1345	0	32818	32818	
1346	0	32868	32806	
1347	0	32770	32879	
1348	0	32802	32752	
1349	0	32812	32871	
1350	0	32854	32752	
1351	0	32828	32858	
1352	0	32746	32719	
1353	0	32816	32783	
1354	0	32834	32749	
1355	0	32796	32775	
1356	0	32840	32805	
1357	0	32824	32850	
1358	0	32804	32775	
1359	0	32792	32839	
1360	0	32832	32857	
1361	0	32798	32874	
1362	0	32843	32885	
1363	0	32713	32728	
1364	0	32849	32829	
1365	0	32826	32750	
1366	0	32812	32772	
1367	0	32802	32822	
1368	0	32840	32828	
1369	0	32856	32891	
1370	0	32840	32694	
1371	0	32846	32821	
1372	0	32774	32731	
1373	0	32826	32829	
1374	0	32854	32814	
1375	0	32766	32753	
1376	0	32820	32799	
1377	0	32808	32880	
1378	0	32812	32684	
1379	0	32826	32802	
1380	0	32852	32695	
1381	0	32798	32824	
1382	0	32784	32868	
1383	0	32820	32745	
1384	0	32848	32854	
1385	0	32812	32710	
1386	0	32816	32844	
1387	0	32792	32814	
1388	0	32834	32832	
1389	0	32826	32678	
1390	0	32824	32808	
1391	0	32864	32711	
1392	0	32777	32877	
1393	0	32828	32720	
1394	0	32774	32860	
1395	0	32808	32765	
1396	0	32775	32856	
1397	0	32836	32720	
1398	0	32834	32787	
1399	0	32780	32824	
1400	0	32784	32847	
1401	0	32812	32871	
1402	0	32844	32820	
1403	0	32792	32839	
1404	0	32848	32710	
1405	0	32788	32882	
1406	0	32860	32868	
1407	0	32840	32827	
1408	0	32774	32834	
1409	0	32870	32902	
1410	0	32793	32759	
1411	0	32770	32816	
1412	0	32800	32890	
1413	0	32756	32726	
1414	0	32864	32800	
1415	0	32824	32744	
1416	0	32836	32826	
1417	0	32836	32748	
1418	0	32738	32802	
1419	0	32829	32766	
1420	0	32802	32811	
1421	0	32816	32848	
1422	0	32861	32758	
1423	0	32790	32839	
1424	0	32792	32743	
1425	0	32819	32816	
1426	0	32816	32802	
1427	0	32734	32813	
1428	0	32820	32882	
1429	0	32769	32740	
1430	0	32828	32879	
1431	0	32837	32742	
1432	0	32752	32826	
1433	0	32825	32711	
1434	0	32796	32865	
1435	0	32768	32762	
1436	0	32749	32784	
1437	0	32826	32819	
1438	0	32768	32828	
1439	0	32872	32892	
1440	0	32846	32805	
1441	0	32880	32803	
1442	0	32824	32797	
1443	0	32832	32854	
1444	0	32785	32812	
1445	0	32814	32846	
1446	0	32785	32884	
1447	0	32792	32772	
1448	0	32836	32888	
1449	0	32803	32769	
1450	0	32824	32850	
1451	0	32840	32871	
1452	0	32864	32728	
1453	0	32793	32886	
1454	0	32754	32733	
1455	0	32788	32748	
1456	0	32860	32814	
1457	0	32908	32742	
1458	0	32840	32876	
1459	0	32797	32750	
1460	0	32768	32826	
1461	0	32884	32826	
1462	0	32777	32772	
1463	0	32850	32908	
1464	0	32869	32775	
1465	0	32826	32814	
1466	0	32792	32799	
1467	0	32784	32808	
1468	0	32816	32711	
1469	0	32784	32804	
1470	0	32736	32918	
1471	0	32834	32837	
1472	0	32758	32906	
1473	0	32906	32755	
1474	0	32754	32794	
1475	0	32769	32890	
1476	0	32818	32731	
1477	0	32827	32858	
1478	0	32775	32795	
1479	0	32808	32827	
1480	0	32789	32875	
1481	0	32799	32802	
1482	0	32788	32882	
1483	0	32804	32734	
1484	0	32841	32836	
1485	0	32780	32725	
1486	0	32790	32826	
1487	0	32808	32839	
1488	0	32826	32788	
1489	0	32738	32880	
1490	0	32822	32852	
1491	0	32797	32703	
1492	0	32772	32845	
1493	0	32813	32744	
1494	0	32810	32862	
1495	0	32799	32877	
1496	0	32784	32816	
1497	0	32840	32800	
1498	0	32832	32809	
1499	0	32796	32733	
1500	0	32824	32838	
1501	0	32788	32885	
1502	0	32852	32720	
1503	0	32800	32751	
1504	0	32786	32820	
1505	0	32820	32811	
1506	0	32849	32852	
1507	0	32744	32788	
1508	0	32756	32762	
1509	0	32804	32829	
1510	0	32792	32830	
1511	0	32787	32841	
1512	0	32826	32818	
1513	0	32840	32827	
1514	0	32802	32866	
1515	0	32820	32752	
1516	0	32868	32828	
1517	0	32757	32795	
1518	0	32772	32745	
1519	0	32777	32882	
1520	0	32785	32792	
1521	0	32880	32845	
1522	0	32773	32750	
1523	0	32856	32824	
1524	0	32856	32846	
1525	0	32824	32791	
1526	0	32800	32882	
1527	0	32820	32785	
1528	0	32876	32769	
1529	0	32764	32770	
1530	0	32796	32825	
1531	0	32816	32775	
1532	0	32728	32814	
1533	0	32784	32775	
1534	0	32870	32832	
1535	0	32818	32808	
1536	0	32808	32789	
1537	0	32790	32818	
1538	0	32820	32750	
1539	0	32843	32885	
1540	0	32810	32877	
1541	0	32778	32735	
1542	0	32800	32796	
1543	0	32808	32866	
1544	0	32780	32814	
1545	0	32826	32838	
1546	0	32801	32903	
1547	0	32805	32690	
1548	0	32796	32851	
1549	0	32760	32736	
1550	0	32800	32775	
1551	0	32832	32697	
1552	0	32820	32775	
1553	0	32801	32711	
1554	0	32836	32772	
1555	0	32896	32811	
1556	0	32872	32647	
1557	0	32894	32637	
1558	0	32956	32596	
1559	0	32936	32634	
1560	0	32984	32672	
1561	0	33001	32528	
1562	0	33016	32644	
1563	0	32902	32653	
1564	0	32884	32709	
1565	0	32888	32746	
1566	0	32841	32729	
1567	0	32869	32862	
1568	0	32736	32822	
1569	0	32672	32856	
1570	0	32729	32886	
1571	0	32680	32824	
1572	0	32672	32903	
1573	0	32768	32944	
1574	0	32645	32924	
1575	0	32628	32855	
1576	0	32720	32874	
1577	0	32716	33028	
1578	0	32656	32917	
1579	0	32608	33132	
1580	0	32698	33130	
1581	0	32660	33060	
1582	0	32682	33147	
1583	0	32644	33069	
1584	0	32752	33040	
1585	0	32720	32967	
1586	0	32704	32884	
1587	0	32748	32972	
1588	0	32804	32839	
1589	0	32782	32885	
1590	0	32773	32812	
1591	0	32788	32771	
1592	0	32800	32574	
1593	0	32838	32694	
1594	0	32896	32663	
1595	0	32854	32605	
1596	0	32819	32786	
1597	0	32949	32665	
1598	0	32908	32725	
1599	0	32978	32798	
1600	0	32900	32658	
1601	0	32872	32707	
1602	0	32873	32863	
1603	0	32841	32671	
1604	0	32793	32711	
1605	0	32888	32669	
1606	0	32824	32751	
1607	0	32838	32775	
1608	0	32794	32738	
1609	0	32780	32830	
1610	0	32804	32692	
1611	0	32720	32809	
1612	0	32810	32691	
1613	0	32817	32856	
1614	0	32788	32838	
1615	0	32852	32823	
1616	0	32789	32900	
1617	0	32882	32723	
1618	0	32722	32911	
1619	0	32805	32775	
1620	0	32800	32809	
1621	0	32857	32901	
1622	0	32820	32723	
1623	0	32804	32838	
1624	0	32838	32728	
1625	0	32774	32872	
1626	0	32811	32732	
1627	0	32760	32875	
1628	0	32758	32666	
1629	0	32728	32811	
1630	0	32848	32775	
1631	0	32856	32823	
1632	0	32833	32843	
1633	0	32812	32848	
1634	0	32730	32850	
1635	0	32812	32758	
1636	0	32876	32773	
1637	0	32760	32800	
1638	0	32796	32775	
1639	0	32824	32775	
1640	0	32800	32868	
1641	0	32744	32775	
1642	0	32808	32842	
1643	0	32832	32817	
1644	0	32914	32775	
1645	0	32836	32805	
1646	0	32824	32827	
1647	0	32805	32905	
1648	0	32756	32754	
1649	0	32876	32905	
1650	0	32825	32665	
1651	0	32784	32842	
1652	0	32816	32786	
1653	0	32801	32846	
1654	0	32794	32805	
1655	0	32768	32731	
1656	0	32872	32924	
1657	0	32802	32745	
1658	0	32778	32771	
1659	0	32857	32787	
1660	0	32796	32833	
1661	0	32792	32869	
1662	0	32825	32705	
1663	0	32845	32787	
1664	0	32826	32739	
1665	0	32812	32829	
1666	0	32866	32775	
1667	0	32741	32800	
1668	0	32795	32728	
1669	0	32818	32880	
1670	0	32732	32711	
1671	0	32816	32815	
1672	0	32800	32855	
1673	0	32752	32807	
1674	0	32828	32888	
1675	0	32771	32767	
1676	0	32725	32788	
1677	0	32852	32713	
1678	0	32817	32845	
1679	0	32808	32818	
1680	0	32796	32701	
1681	0	32855	32888	
1682	0	32912	32831	
1683	0	32784	32741	
1684	0	32756	32839	
1685	0	32800	32787	
1686	0	32824	32768	
1687	0	32768	32896	
1688	0	32824	32771	
1689	0	32764	32884	
1690	0	32770	32741	
1691	0	32792	32867	
1692	0	32804	32921	
1693	0	32765	32751	
1694	0	32784	32806	
1695	0	32818	32851	
1696	0	32800	32801	
1697	0	32772	32807	
1698	0	32747	32854	
1699	0	32820	32715	
1700	0	32820	32882	
1701	0	32844	32839	
1702	0	32808	32828	
1703	0	32866	32857	
1704	0	32805	32775	
1705	0	32757	32800	
1706	0	32808	32816	
1707	0	32840	32757	
1708	0	32768	32854	
1709	0	32816	32748	
1710	0	32816	32817	
1711	0	32906	32713	
1712	0	32756	32850	
1713	0	32888	32802	
1714	0	32754	32751	
1715	0	32796	32832	
1716	0	32770	32871	
1717	0	32746	32683	
1718	0	32856	32851	
1719	0	32784	32825	
1720	0	32794	32869	
1721	0	32826	32756	
1722	0	32816	32873	
1723	0	32808	32744	
1724	0	32792	32818	
1725	0	32724	32853	
1726	0	32752	32793	
1727	0	32833	32744	
1728	0	32798	32775	
1729	0	32848	32788	
1730	0	32750	32818	
1731	0	32796	32811	
1732	0	32808	32908	
1733	0	32775	32772	
1734	0	32764	32824	
1735	0	32797	32847	
1736	0	32758	32656	
1737	0	32837	32826	
1738	0	32828	32775	
1739	0	32786	32816	
1740	0	32792	32882	
1741	0	32853	32790	
1742	0	32752	32871	
1743	0	32786	32872	
1744	0	32778	32850	
1745	0	32828	32725	
1746	0	32834	32815	
1747	0	32818	32786	
1748	0	32820	32848	
1749	0	32861	32828	
1750	0	32765	32745	
1751	0	32784	32841	
1752	0	32818	32815	
1753	0	32868	32811	
1754	0	32792	32834	
1755	0	32880	32812	
1756	0	32808	32883	
1757	0	32738	32781	
1758	0	32792	32809	
1759	0	32805	32696	
1760	0	32824	32755	
1761	0	32792	32775	
1762	0	32820	32943	
1763	0	32762	32700	
1764	0	32762	32853	
1765	0	32825	32928	
1766	0	32840	32729	
1767	0	32816	32793	
1768	0	32820	32809	
1769	0	32787	32834	
1770	0	32848	32846	
1771	0	32810	32768	
1772	0	32744	32871	
1773	0	32760	32891	
1774	0	32892	32774	
1775	0	32842	32910	
1776	0	32819	32679	
1777	0	32802	32866	
1778	0	32824	32831	
1779	0	32826	32748	
1780	0	32912	32797	
1781	0	32804	32847	
1782	0	32802	32725	
1783	0	32869	32774	
1784	0	32739	32816	
1785	0	32746	32762	
1786	0	32762	32862	
1787	0	32848	32779	
1788	0	32836	32811	
1789	0	32796	32790	
1790	0	32784	32877	
1791	0	32796	32760	
1792	0	32768	32851	
1793	0	32850	32720	
1794	0	32794	32833	
1795	0	32804	32863	
1796	0	32832	32690	
1797	0	32775	32796	
1798	0	32792	32876	
1799	0	32768	32714	
1800	0	32801	32876	
1801	0	32822	32774	
1802	0	32796	32822	
1803	0	32800	32817	
1804	0	32790	32861	
1805	0	32850	32858	
1806	0	32850	32758	
1807	0	32818	32793	
1808	0	32800	32748	
1809	0	32813	32836	
1810	0	32762	32855	
1811	0	32784	32770	
1812	0	32826	32770	
1813	0	32780	32821	
1814	0	32820	32836	
1815	0	32796	32804	
1816	0	32792	32903	
1817	0	32788	32712	
1818	0	32834	32687	
1819	0	32809	32861	
1820	0	32844	32784	
1821	0	32780	32859	
1822	0	32824	32857	
1823	0	32808	32784	
1824	0	32792	32804	
1825	0	32758	32717	
1826	0	32784	32802	
1827	0	32817	32884	
1828	0	32816	32786	
1829	0	32798	32876	
1830	0	32820	32735	
1831	0	32781	32844	
1832	0	32748	32833	
1833	0	32816	32855	
1834	0	32760	32869	
1835	0	32876	32768	
1836	0	32775	32821	
1837	0	32736	32884	
1838	0	32809	32738	
1839	0	32820	32775	
1840	0	32822	32792	
1841	0	32782	32736	
1842	0	32838	32830	
1843	0	32760	32789	
1844	0	32885	32843	
1845	0	32800	32828	
1846	0	32837	32826	
1847	0	32768	32936	
1848	0	32750	32730	
1849	0	32769	32880	
1850	0	32736	32797	
1851	0	32846	32775	
1852	0	32832	32775	
1853	0	32768	32832	
1854	0	32796	32816	
1855	0	32802	32672	
1856	0	32832	32892	
1857	0	32773	32903	
1858	0	32792	32797	
1859	0	32781	32806	
1860	0	32784	32819	
1861	0	32828	32827	
1862	0	32844	32862	
1863	0	32783	32775	
1864	0	32841	32838	
1865	0	32773	32775	
1866	0	32740	32790	
1867	0	32782	32815	
1868	0	32788	32797	
1869	0	32868	32743	
1870	0	32810	32765	
1871	0	32880	32813	
1872	0	32796	32818	
1873	0	32828	32874	
1874	0	32806	32834	
1875	0	32812	32877	
1876	0	32876	32736	
1877	0	32814	32793	
1878	0	32765	32849	
1879	0	32811	32750	
1880	0	32868	32808	
1881	0	32752	32860	
1882	0	32768	32769	
1883	0	32768	32886	
1884	0	32765	32718	
1885	0	32836	32822	
1886	0	32792	32861	
1887	0	32768	32706	
1888	0	32736	32825	
1889	0	32848	32805	
1890	0	32877	32736	
1891	0	32800	32768	
1892	0	32822	32829	
1893	0	32775	32787	
1894	0	32794	32861	
1895	0	32890	32748	
1896	0	32861	32804	
1897	0	32724	32759	
1898	0	32816	32797	
1899	0	32802	32851	
1900	0	32753	32692	
1901	0	32804	32799	
1902	0	32784	32740	
1903	0	32780	32816	
1904	0	32771	32892	
1905	0	32752	32728	
1906	0	32790	32775	
1907	0	32808	32786	
1908	0	32808	32787	
1909	0	32840	32913	
1910	0	32800	32704	
1911	0	32836	32756	
1912	0	32822	32838	
1913	0	32793	32768	
1914	0	32800	32920	
1915	0	32808	32910	
1916	0	32834	32910	
1917	0	32818	32748	
1918	0	32768	32775	
1919	0	32828	32654	
1920	0	32796	32701	
1921	0	32748	32802	
1922	0	32830	32763	
1923	0	32790	32832	
1924	0	32742	32889	
1925	0	32809	32775	
1926	0	32882	32871	
1927	0	32800	32728	
1928	0	32796	32804	
1929	0	32852	32877	
1930	0	32828	32754	
1931	0	32723	32748	
1932	0	32803	32870	
1933	0	32805	32736	
1934	0	32772	32834	
1935	0	32768	32748	
1936	0	32884	32774	
1937	0	32802	32867	
1938	0	32852	32719	
1939	0	32809	32847	
1940	0	32808	32826	
1941	0	32792	32736	
1942	0	32792	32767	
1943	0	32828	32820	
1944	0	32824	32784	
1945	0	32812	32850	
1946	0	32768	32921	
1947	0	32797	32804	
1948	0	32840	32786	
1949	0	32765	32799	
1950	0	32840	32770	
1951	0	32869	32844	
1952	0	32800	32810	
1953	0	32787	32772	
1954	0	32792	32853	
1955	0	32826	32717	
1956	0	32856	32837	
1957	0	32698	32858	
1958	0	32840	32728	
1959	0	32760	32837	
1960	0	32816	32834	
1961	0	32768	32893	
1962	0	32820	32852	
1963	0	32910	32706	
1964	0	32748	32866	
1965	0	32852	32747	
1966	0	32834	32775	
1967	0	32822	32797	
1968	0	32764	32747	
1969	0	32820	32797	
1970	0	32741	32821	
1971	0	32824	32877	
1972	0	32818	32838	
1973	0	32794	32711	
1974	0	32792	32829	
1975	0	32784	32861	
1976	0	32837	32730	
1977	0	32796	32856	
1978	0	32775	32738	
1979	0	32774	32800	
1980	0	32848	32921	
1981	0	32836	32724	
1982	0	32768	32800	
1983	0	32826	32673	
1984	0	32837	32790	
1985	0	32805	32862	
1986	0	32832	32724	
1987	0	32732	32775	
1988	0	32728	32892	
1989	0	32768	32734	
1990	0	32774	32816	
1991	0	32763	32840	
1992	0	32821	32704	
1993	0	32870	32914	
1994	0	32828	32804	
1995	0	32772	32775	
1996	0	32848	32839	
1997	0	32808	32791	
1998	0	32772	32802	
1999	0	32816	32794	
2000	0	32826	32775	
2001	0	32824	32742	
2002	0	32822	32784	
2003	0	32804	32832	
2004	0	32856	32908	
2005	0	32820	32908	
2006	0	32813	32786	
2007	0	32832	32775	
2008	0	32802	32759	
2009	0	32814	32846	
2010	0	32801	32870	
2011	0	32854	32702	
2012	0	32779	32797	
2013	0	32865	32719	
2014	0	32728	32882	
2015	0	32852	32854	
2016	0	32706	32769	
2017	0	32792	32818	
2018	0	32784	32852	
2019	0	32765	32698	
2020	0	32748	32738	
2021	0	32836	32866	
2022	0	32816	32815	
2023	0	32745	32833	
2024	0	32856	32795	
2025	0	32784	32859	
2026	0	32898	32869	
2027	0	32812	32775	
2028	0	32841	32797	
2029	0	32736	32914	
2030	0	32792	32775	
2031	0	32840	32775	
2032	0	32787	32740	
2033	0	32748	32796	
2034	0	32864	32829	
2035	0	32768	32698	
2036	0	32774	32787	
2037	0	32848	32804	
2038	0	32780	32800	
2039	0	32848	32884	
2040	0	32834	32722	
2041	0	32786	32827	
2042	0	32814	32848	
2043	0	32770	32745	
2044	0	32812	32896	
2045	0	32796	32711	
2046	0	32908	32824	
2047	0	32808	32822	
2048	0	32801	32800	
2049	0	32824	32866	
2050	0	32765	32710	
2051	0	32796	32844	
2052	0	32792	32884	
2053	0	32786	32772	
2054	0	32825	32787	
2055	0	32769	32834	
2056	0	32772	32805	
2057	0	32804	32672	
2058	0	32824	32875	
2059	0	32774	32722	
2060	0	32856	32866	
2061	0	32872	32719	
2062	0	32804	32780	
2063	0	32850	32728	
2064	0	32824	32825	
2065	0	32753	32890	
2066	0	32786	32808	
2067	0	32820	32834	
2068	0	32798	32712	
2069	0	32742	32834	
2070	0	32876	32824	
2071	0	32792	32865	
2072	0	32825	32915	
2073	0	32713	32747	
2074	0	32786	32857	
2075	0	32764	32711	
2076	0	32812	32768	
2077	0	32826	32819	
2078	0	32816	32710	
2079	0	32840	32743	
2080	0	32804	32848	
2081	0	32852	32696	
2082	0	32805	32809	
2083	0	32736	32709	
2084	0	32824	32840	
2085	0	32784	32877	
2086	0	32832	32848	
2087	0	32852	32907	
2088	0	32832	32740	
2089	0	32792	32752	
2090	0	32828	32887	
2091	0	32832	32766	
2092	0	32833	32804	
2093	0	32844	32816	
2094	0	32794	32768	
2095	0	32836	32873	
2096	0	32808	32916	
2097	0	32788	32728	
2098	0	32808	32807	
2099	0	32740	32836	
2100	0	32770	32795	
2101	0	32790	32799	
2102	0	32775	32784	
2103	0	32824	32814	
2104	0	32796	32850	
2105	0	32754	32733	
2106	0	32824	32813	
2107	0	32780	32812	
2108	0	32865	32690	
2109	0	32780	32852	
2110	0	32893	32798	
2111	0	32784	32862	
2112	0	32868	32744	
2113	0	32817	32850	
2114	0	32825	32725	
2115	0	32760	32810	
2116	0	32800	32942	
2117	0	32740	32719	
2118	0	32808	32846	
2119	0	32826	32830	
2120	0	32835	32791	
2121	0	32744	32874	
2122	0	32824	32711	
2123	0	32792	32814	
2124	0	32763	32736	
2125	0	32832	32834	
2126	0	32872	32794	
2127	0	32800	32764	
2128	0	32775	32796	
2129	0	32774	32912	
2130	0	32819	32747	
2131	0	32824	32861	
2132	0	32905	32764	
2133	0	32798	32820	
2134	0	32836	32832	
2135	0	32752	32732	
2136	0	32826	32879	
2137	0	32752	32754	
2138	0	32774	32866	
2139	0	32824	32841	
2140	0	32821	32793	
2141	0	32781	32775	
2142	0	32832	32797	
2143	0	32791	32746	
2144	0	32792	32799	
2145	0	32824	32907	
2146	0	32852	32740	
2147	0	32754	32722	
2148	0	32813	32837	
2149	0	32820	32740	
2150	0	32760	32800	
2151	0	32775	32814	
2152	0	32808	32902	
2153	0	32734	32707	
2154	0	32788	32812	
2155	0	32829	32868	
2156	0	32846	32725	
2157	0	32844	32780	
2158	0	32832	32833	
2159	0	32778	32824	
2160	0	32908	32877	
2161	0	32806	32876	
2162	0	32809	32716	
2163	0	32788	32729	
2164	0	32775	32905	
2165	0	32768	32844	
2166	0	32797	32728	
2167	0	32820	32818	
2168	0	32777	32872	
2169	0	32829	32758	
2170	0	32774	32855	
2171	0	32744	32841	
2172	0	32772	32868	
2173	0	32794	32774	
2174	0	32826	32788	
2175	0	32824	32766	
2176	0	32872	32632	
2177	0	32824	32775	
2178	0	32884	32760	
2179	0	32813	32826	
2180	0	32722	32866	
2181	0	32832	32824	
2182	0	32774	32843	
2183	0	32732	32767	
2184	0	32834	32833	
2185	0	32784	32797	
2186	0	32848	32818	
2187	0	32782	32856	
2188	0	32748	32734	
2189	0	32825	32830	
2190	0	32787	32792	
2191	0	32741	32838	
2192	0	32740	32829	
2193	0	32812	32740	
2194	0	32796	32775	
2195	0	32775	32828	
2196	0	32829	32841	
2197	0	32781	32950	
2198	0	32840	32758	
2199	0	32797	32784	
2200	0	32788	32848	
2201	0	32777	32790	
2202	0	32809	32787	
2203	0	32770	32837	
2204	0	32816	32850	
2205	0	32840	32860	
2206	0	32820	32714	
2207	0	32841	32828	
2208	0	32754	32806	
2209	0	32824	32796	
2210	0	32804	32784	
2211	0	32838	32806	
2212	0	32866	32727	
2213	0	32829	32874	
2214	0	32758	32856	
2215	0	32832	32744	
2216	0	32788	32787	
2217	0	32756	32711	
2218	0	32754	32851	
2219	0	32808	32773	
2220	0	32777	32796	
2221	0	32800	32879	
2222	0	32805	32683	
2223	0	32824	32819	
2224	0	32788	32841	
2225	0	32824	32752	
2226	0	32706	32775	
2227	0	32800	32834	
2228	0	32801	32874	
2229	0	32775	32707	
2230	0	32852	32816	
2231	0	32840	32917	
2232	0	32820	32718	
2233	0	32822	32850	
2234	0	32804	32810	
2235	0	32800	32829	
2236	0	32789	32903	
2237	0	32700	32741	
2238	0	32868	32800	
2239	0	32774	32775	
2240	0	32808	32710	
2241	0	32780	32815	
2242	0	32826	32829	
2243	0	32756	32744	
2244	0	32856	32862	
2245	0	32816	32866	
2246	0	32880	32736	
2247	0	32785	32800	
2248	0	32788	32860	
2249	0	32826	32774	
2250	0	32796	32860	
2251	0	32768	32802	
2252	0	32799	32748	
2253	0	32832	32846	
2254	0	32838	32797	
2255	0	32752	32839	
2256	0	32810	32775	
2257	0	32796	32892	
2258	0	32764	32796	
2259	0	32808	32815	
2260	0	32734	32739	
2261	0	32842	32804	
2262	0	32861	32879	
2263	0	32758	32770	
2264	0	32804	32833	
2265	0	32799	32821	
2266	0	32824	32762	
2267	0	32772	32823	
2268	0	32816	32857	
2269	0	32812	32860	
2270	0	32820	32745	
2271	0	32892	32827	
2272	0	32766	32806	
2273	0	32756	32754	
2274	0	32813	32839	
2275	0	32824	32720	
2276	0	32857	32748	
2277	0	32848	32775	
2278	0	32760	32928	
2279	0	32802	32805	
2280	0	32814	32706	
2281	0	32837	32832	
2282	0	32857	32896	
2283	0	32832	32737	
2284	0	32858	32992	
2285	0	32846	32702	
2286	0	32858	32848	
2287	0	32738	32775	
2288	0	32856	32757	
2289	0	32820	32870	
2290	0	32777	32757	
2291	0	32784	32844	
2292	0	32806	32758	
2293	0	32788	32802	
2294	0	32836	32836	
2295	0	32844	32775	
2296	0	32802	32871	
2297	0	32872	32853	
2298	0	32766	32764	
2299	0	32850	32817	
2300	0	32800	32696	
2301	0	32790	32812	
2302	0	32800	32814	
2303	0	32860	32871	
2304	0	32744	32937	
2305	0	32817	32752	
2306	0	32740	32881	
2307	0	32708	32750	
2308	0	32841	32854	
2309	0	32802	32697	
2310	0	32824	32774	
2311	0	32799	32730	
2312	0	32836	32848	
2313	0	32856	32805	
2314	0	32832	32824	
2315	0	32788	32869	
2316	0	32785	32771	
2317	0	32820	32913	
2318	0	32788	32741	
2319	0	32784	32775	
2320	0	32810	32860	
2321	0	32852	32866	
2322	0	32818	32903	
2323	0	32840	32712	
2324	0	32856	32796	
2325	0	32812	32782	
2326	0	32840	32844	
2327	0	32834	32841	
2328	0	32792	32720	
2329	0	32832	32805	
2330	0	32816	32796	
2331	0	32802	32754	
2332	0	32846	32816	
2333	0	32824	32812	
2334	0	32866	32728	
2335	0	32768	32751	
2336	0	32749	32775	
2337	0	32754	32751	
2338	0	32824	32856	
2339	0	32765	32834	
2340	0	32736	32829	
2341	0	32820	32839	
2342	0	32844	32903	
2343	0	32845	32903	
2344	0	32790	32893	
2345	0	32800	32785	
2346	0	32852	32833	
2347	0	32784	32886	
2348	0	32730	32712	
2349	0	32781	32828	
2350	0	32736	32775	
2351	0	32793	32804	
2352	0	32853	32846	
2353	0	32836	32708	
2354	0	32784	32763	
2355	0	32832	32880	
2356	0	32836	32765	
2357	0	32768	32858	
2358	0	32813	32830	
2359	0	32824	32706	
2360	0	32800	32818	
2361	0	32802	32754	
2362	0	32832	32819	
2363	0	32892	32869	
2364	0	32826	32770	
2365	0	32836	32873	
2366	0	32832	32882	
2367	0	32829	32722	
2368	0	32804	32856	
2369	0	32818	32840	
2370	0	32809	32745	
2371	0	32816	32873	
2372	0	32788	32733	
2373	0	32796	32856	
2374	0	32826	32672	
2375	0	32797	32836	
2376	0	32782	32903	
2377	0	32770	32713	
2378	0	32804	32818	
2379	0	32846	32853	
2380	0	32816	32765	
2381	0	32764	32790	
2382	0	32784	32760	
2383	0	32752	32840	
2384	0	32848	32916	
2385	0	32784	32726	
2386	0	32806	32748	
2387	0	32814	32868	
2388	0	32848	32738	
2389	0	32789	32859	
2390	0	32834	32876	
2391	0	32810	32767	
2392	0	32775	32728	
2393	0	32775	32808	
2394	0	32816	32782	
2395	0	32829	32894	
2396	0	32868	32884	
2397	0	32854	32739	
2398	0	32792	32756	
2399	0	32838	32848	
2400	0	32784	32717	
2401	0	32784	32791	
2402	0	32813	32946	
2403	0	32801	32745	
2404	0	32824	32869	
2405	0	32780	32750	
2406	0	32800	32785	
2407	0	32816	32932	
2408	0	32842	32707	
2409	0	32833	32825	
2410	0	32844	32775	
2411	0	32786	32775	
2412	0	32837	32841	
2413	0	32690	32896	
2414	0	32884	32670	
2415	0	32789	32809	
2416	0	32742	32871	
2417	0	32740	32760	
2418	0	32790	32868	
2419	0	32857	32839	
2420	0	32744	32823	
2421	0	32816	32844	
2422	0	32826	32795	
2423	0	32812	32825	
2424	0	32796	32775	
2425	0	32826	32730	
2426	0	32772	32839	
2427	0	32841	32731	
2428	0	32758	32805	
2429	0	32818	32765	
2430	0	32872	32903	
2431	0	32752	32806	
2432	0	32784	32832	
2433	0	32804	32882	
2434	0	32785	32828	
2435	0	32858	32811	
2436	0	32789	32646	
2437	0	32836	32837	
2438	0	32788	32764	
2439	0	32802	32718	
2440	0	32820	32906	
2441	0	32766	32687	
2442	0	32852	32855	
2443	0	32866	32896	
2444	0	32800	32732	
2445	0	32785	32815	
2446	0	32802	32844	
2447	0	32768	32791	
2448	0	32840	32785	
2449	0	32792	32780	
2450	0	32824	32672	
2451	0	32877	32819	
2452	0	32818	32832	
2453	0	32788	32839	
2454	0	32768	32807	
2455	0	32833	32872	
2456	0	32789	32839	
2457	0	32750	32762	
2458	0	32841	32864	
2459	0	32808	32809	
2460	0	32796	32860	
2461	0	32784	32735	
2462	0	32775	32677	
2463	0	32762	32736	
2464	0	32868	32740	
2465	0	32852	32924	
2466	0	32836	32802	
2467	0	32722	32740	
2468	0	32792	32784	
2469	0	32786	32864	
2470	0	32800	32858	
2471	0	32745	32746	
2472	0	32850	32825	
2473	0	32826	32802	
2474	0	32760	32898	
2475	0	32848	32796	
2476	0	32893	32786	
2477	0	32862	32831	
2478	0	32764	32743	
2479	0	32784	32798	
2480	0	32708	32819	
2481	0	32728	32900	
2482	0	32764	32740	
2483	0	32880	32834	
2484	0	32861	32891	
2485	0	32804	32885	
2486	0	32850	32731	
2487	0	32788	32799	
2488	0	32793	32915	
2489	0	32784	32669	
2490	0	32840	32816	
2491	0	32754	32690	
2492	0	32826	32854	
2493	0	32812	32854	
2494	0	32840	32698	
2495	0	32864	32800	
2496	0	32738	32880	
2497	0	32802	32835	
2498	0	32810	32794	
2499	0	32775	32811	
2500	0	32756	32734	
2501	0	32844	32738	
2502	0	32776	32871	
2503	0	32803	32820	
2504	0	32810	32857	
2505	0	32792	32765	
2506	0	32775	32888	
2507	0	32800	32731	
2508	0	32804	32860	
2509	0	32804	32869	
2510	0	32856	32738	
2511	0	32756	32876	
2512	0	32820	32775	
2513	0	32864	32841	
2514	0	32832	32892	
2515	0	32784	32743	
2516	0	32788	32825	
2517	0	32822	32810	
2518	0	32811	32914	
2519	0	32814	32869	
2520	0	32775	32734	
2521	0	32801	32818	
2522	0	32860	32884	
2523	0	32752	32752	
2524	0	32844	32865	
2525	0	32820	32841	
2526	0	32784	32868	
2527	0	32844	32797	
2528	0	32816	32716	
2529	0	32760	32832	
2530	0	32738	32813	
2531	0	32801	32786	
2532	0	32864	32741	
2533	0	32853	32792	
2534	0	32832	32775	
2535	0	32813	32833	
2536	0	32853	32629	
2537	0	32871	32684	
2538	0	32868	32805	
2539	0	32966	32718	
2540	0	32932	32708	
2541	0	32960	32583	
2542	0	32958	32533	
2543	0	32978	32646	
2544	0	32880	32588	
2545	0	32926	32713	
2546	0	32928	32697	
2547	0	32844	32807	
2548	0	32809	32878	
2549	0	32868	32771	
2550	0	32704	33049	
2551	0	32651	32831	
2552	0	32738	32864	
2553	0	32688	32861	
2554	0	32698	32877	
2555	0	32680	32918	
2556	0	32642	32839	
2557	0	32668	33008	
2558	0	32844	32995	
2559	0	32756	32889	
2560	0	32624	33097	
2561	0	32646	33043	
2562	0	32596	33065	
2563	0	32655	33071	
2564	0	32632	33126	
2565	0	32660	33083	
2566	0	32696	33030	
2567	0	32804	32848	
2568	0	32784	32900	
2569	0	32832	32846	
2570	0	32777	32900	
2571	0	32790	32804	
2572	0	32838	32894	
2573	0	32880	32656	
2574	0	32869	32658	
2575	0	32850	32599	
2576	0	32850	32677	
2577	0	32885	32668	
2578	0	32920	32671	
2579	0	32836	32733	
2580	0	32824	32734	
2581	0	32864	32704	
2582	0	32832	32808	
2583	0	32840	32768	
2584	0	32910	32760	
2585	0	32870	32686	
2586	0	32828	32759	
2587	0	32840	32744	
2588	0	32828	32665	
2589	0	32822	32723	
2590	0	32917	32841	
2591	0	32854	32772	
2592	0	32789	32888	
2593	0	32775	32784	
2594	0	32775	32750	
2595	0	32824	32850	
2596	0	32780	32770	
2597	0	32860	32846	
2598	0	32856	32784	
2599	0	32775	32839	
2600	0	32698	32813	
2601	0	32804	32743	
2602	0	32764	32751	
2603	0	32813	32880	
2604	0	32786	32680	
2605	0	32805	32775	
2606	0	32852	32871	
2607	0	32730	32886	
2608	0	32784	32877	
2609	0	32800	32775	
2610	0	32797	32898	
2611	0	32760	32924	
2612	0	32824	32807	
2613	0	32880	32775	
2614	0	32836	32832	
2615	0	32760	32726	
2616	0	32784	32769	
2617	0	32825	32748	
2618	0	32832	32860	
2619	0	32750	32684	
2620	0	32809	32826	
2621	0	32795	32896	
2622	0	32764	32810	
2623	0	32800	32775	
2624	0	32800	32877	
2625	0	32812	32902	
2626	0	32838	32792	
2627	0	32850	32799	
2628	0	32832	32836	
2629	0	32802	32795	
2630	0	32737	32740	
2631	0	32792	32818	
2632	0	32800	32868	
2633	0	32774	32735	
2634	0	32809	32832	
2635	0	32784	32866	
2636	0	32778	32800	
2637	0	32793	32775	
2638	0	32793	32848	
2639	0	32800	32858	
2640	0	32796	32769	
2641	0	32806	32871	
2642	0	32802	32738	
2643	0	32844	32807	
2644	0	32829	32941	
2645	0	32848	32736	
2646	0	32836	32770	
2647	0	32752	32837	
2648	0	32818	32828	
2649	0	32788	32839	
2650	0	32832	32744	
2651	0	32841	32880	
2652	0	32784	32754	
2653	0	32820	32828	
2654	0	32824	32789	
2655	0	32813	32803	
2656	0	32805	32876	
2657	0	32896	32727	
2658	0	32775	32785	
2659	0	32864	32841	
2660	0	32844	32766	
2661	0	32840	32880	
2662	0	32792	32815	
2663	0	32816	32917	
2664	0	32796	32684	
2665	0	32748	32839	
2666	0	32809	32775	
2667	0	32800	32829	
2668	0	32812	32885	
2669	0	32752	32775	
2670	0	32801	32889	
2671	0	32790	32723	
2672	0	32860	32779	
2673	0	32842	32720	
2674	0	32748	32833	
2675	0	32811	32838	
2676	0	32819	32799	
2677	0	32846	32818	
2678	0	32824	32859	
2679	0	32784	32857	
2680	0	32754	32699	
2681	0	32801	32815	
2682	0	32804	32729	
2683	0	32850	32858	
2684	0	32790	32700	
2685	0	32814	32854	
2686	0	32832	32850	
2687	0	32872	32901	
2688	0	32768	32939	
2689	0	32824	32704	
2690	0	32793	32867	
2691	0	32774	32832	
2692	0	32844	32679	
2693	0	32716	32731	
2694	0	32790	32766	
2695	0	32812	32764	
2696	0	32776	32790	
2697	0	32768	32745	
2698	0	32832	32877	
2699	0	32800	32772	
2700	0	32829	32822	
2701	0	32854	32909	
2702	0	32869	32775	
2703	0	32846	32895	
2704	0	32870	32704	
2705	0	32816	32816	
2706	0	32884	32871	
2707	0	32775	32769	
2708	0	32742	32840	
2709	0	32843	32749	
2710	0	32794	32736	
2711	0	32840	32854	
2712	0	32788	32736	
2713	0	32784	32824	
2714	0	32741	32841	
2715	0	32816	32710	
2716	0	32800	32902	
2717	0	32745	32714	
2718	0	32810	32797	
2719	0	32812	32856	
2720	0	32778	32799	
2721	0	32800	32876	
2722	0	32816	32729	
2723	0	32854	32884	
2724	0	32812	32764	
2725	0	32862	32856	
2726	0	32872	32676	
2727	0	32848	32852	
2728	0	32805	32786	
2729	0	32848	32822	
2730	0	32812	32900	
2731	0	32816	32752	
2732	0	32829	32826	
2733	0	32800	32706	
2734	0	32802	32775	
2735	0	32826	32677	
2736	0	32848	32698	
2737	0	32808	32750	
2738	0	32808	32787	
2739	0	32772	32796	
2740	0	32828	32888	
2741	0	32824	32821	
2742	0	32774	32820	
2743	0	32825	32713	
2744	0	32775	32791	
2745	0	32824	32813	
2746	0	32820	32787	
2747	0	32834	32851	
2748	0	32816	32763	
2749	0	32837	32835	
2750	0	32813	32842	
2751	0	32809	32808	
2752	0	32848	32766	
2753	0	32826	32838	
2754	0	32688	32843	
2755	0	32794	32896	
2756	0	32808	32754	
2757	0	32752	32756	
2758	0	32832	32852	
2759	0	32804	32733	
2760	0	32848	32788	
2761	0	32805	32867	
2762	0	32776	32680	
2763	0	32834	32841	
2764	0	32844	32791	
2765	0	32808	32729	
2766	0	32923	32805	
2767	0	32807	32868	
2768	0	32732	32739	
2769	0	32792	32819	
2770	0	32814	32820	
2771	0	32809	32880	
2772	0	32780	32847	
2773	0	32809	32836	
2774	0	32756	32775	
2775	0	32760	32865	
2776	0	32782	32714	
2777	0	32822	32825	
2778	0	32818	32896	
2779	0	32748	32729	
2780	0	32793	32740	
2781	0	32800	32834	
2782	0	32812	32707	
2783	0	32802	32829	
2784	0	32804	32904	
2785	0	32748	32852	
2786	0	32763	32797	
2787	0	32812	32822	
2788	0	32834	32793	
2789	0	32733	32865	
2790	0	32800	32701	
2791	0	32846	32800	
2792	0	32825	32827	
2793	0	32792	32806	
2794	0	32808	32760	
2795	0	32800	32775	
2796	0	32804	32789	
2797	0	32828	32823	
2798	0	32874	32800	
2799	0	32764	32790	
2800	0	32890	32814	
2801	0	32805	32848	
2802	0	32774	32761	
2803	0	32784	32830	
2804	0	32796	32857	
2805	0	32827	32876	
2806	0	32770	32791	
2807	0	32824	32775	
2808	0	32788	32846	
2809	0	32820	32836	
2810	0	32740	32736	
2811	0	32765	32767	
2812	0	32804	32841	
2813	0	32860	32789	
2814	0	32812	32834	
2815	0	32807	32718	
2816	0	32731	32844	
2817	0	32775	32908	
2818	0	32793	32801	
2819	0	32844	32857	
2820	0	32792	32861	
2821	0	32774	32795	
2822	0	32756	32827	
2823	0	32814	32828	
2824	0	32768	32758	
2825	0	32756	32808	
2826	0	32856	32877	
2827	0	32848	32808	
2828	0	32854	32820	
2829	0	32805	32856	
2830	0	32728	32801	
2831	0	32838	32728	
2832	0	32808	32797	
2833	0	32864	32912	
2834	0	32797	32785	
2835	0	32836	32818	
2836	0	32884	32820	
2837	0	32728	32787	
2838	0	32732	32771	
2839	0	32722	32853	
2840	0	32712	32836	
2841	0	32824	32765	
2842	0	32788	32770	
2843	0	32764	32888	
2844	0	32818	32914	
2845	0	32812	32736	
2846	0	32868	32842	
2847	0	32824	32897	
2848	0	32856	32686	
2849	0	32824	32838	
2850	0	32754	32872	
2851	0	32866	32760	
2852	0	32768	32793	
2853	0	32808	32859	
2854	0	32777	32836	
2855	0	32775	32796	
2856	0	32850	32769	
2857	0	32800	32700	
2858	0	32821	32760	
2859	0	32848	32796	
2860	0	32765	32688	
2861	0	32780	32773	
2862	0	32796	32824	
2863	0	32813	32748	
2864	0	32844	32850	
2865	0	32866	32804	
2866	0	32844	32846	
2867	0	32775	32924	
2868	0	32775	32754	
2869	0	32834	32805	
2870	0	32828	32839	
2871	0	32796	32786	
2872	0	32809	32759	
2873	0	32724	32858	
2874	0	32776	32873	
2875	0	32820	32741	
2876	0	32778	32784	
2877	0	32792	32795	
2878	0	32790	32676	
2879	0	32792	32829	
2880	0	32820	32771	
2881	0	32832	32836	
2882	0	32808	32872	
2883	0	32826	32745	
2884	0	32832	32834	
2885	0	32826	32790	
2886	0	32843	32749	
2887	0	32864	32790	
2888	0	32786	32944	
2889	0	32788	32775	
2890	0	32756	32872	
2891	0	32832	32766	
2892	0	32775	32832	
2893	0	32824	32837	
2894	0	32863	32694	
2895	0	32818	32775	
2896	0	32760	32812	
2897	0	32864	32752	
2898	0	32905	32840	
2899	0	32808	32796	
2900	0	32854	32697	
2901	0	32754	32706	
2902	0	32768	32824	
2903	0	32824	32767	
2904	0	32816	32850	
2905	0	32780	32844	
2906	0	32857	32747	
2907	0	32722	32828	
2908	0	32748	32765	
2909	0	32848	32896	
2910	0	32792	32859	
2911	0	32754	32752	
2912	0	32804	32834	
2913	0	32828	32775	
2914	0	32827	32843	
2915	0	32876	32900	
2916	0	32830	32741	
2917	0	32749	32760	
2918	0	32862	32872	
2919	0	32800	32737	
2920	0	32860	32756	
2921	0	32788	32842	
2922	0	32861	32765	
2923	0	32764	32852	
2924	0	32820	32898	
2925	0	32824	32656	
2926	0	32804	32852	
2927	0	32873	32843	
2928	0	32792	32835	
2929	0	32820	32795	
2930	0	32804	32880	
2931	0	32828	32771	
2932	0	32837	32889	
2933	0	32806	32890	
2934	0	32816	32841	
2935	0	32775	32797	
2936	0	32781	32803	
2937	0	32789	32805	
2938	0	32800	32703	
2939	0	32854	32867	
2940	0	32785	32822	
2941	0	32773	32803	
2942	0	32748	32796	
2943	0	32840	32869	
2944	0	32796	32834	
2945	0	32781	32734	
2946	0	32808	32816	
2947	0	32800	32835	
2948	0	32722	32706	
2949	0	32800	32784	
2950	0	32780	32796	
2951	0	32796	32758	
2952	0	32818	32745	
2953	0	32804	32823	
2954	0	32784	32724	
2955	0	32796	32761	
2956	0	32805	32884	
2957	0	32848	32749	
2958	0	32798	32903	
2959	0	32804	32908	
2960	0	32840	32797	
2961	0	32816	32751	
2962	0	32818	32805	
2963	0	32844	32841	
2964	0	32804	32746	
2965	0	32840	32891	
2966	0	32928	32676	
2967	0	32764	32818	
2968	0	32816	32828	
2969	0	32764	32792	
2970	0	32762	32838	
2971	0	32841	32911	
2972	0	32850	32775	
2973	0	32782	32941	
2974	0	32792	32907	
2975	0	32764	32795	
2976	0	32782	32804	
2977	0	32809	32839	
2978	0	32868	32863	
2979	0	32836	32720	
2980	0	32800	32854	
2981	0	32802	32864	
2982	0	32800	32753	
2983	0	32810	32830	
2984	0	32796	32831	
2985	0	32840	32848	
2986	0	32887	32829	
2987	0	32775	32655	
2988	0	32840	32809	
2989	0	32746	32866	
2990	0	32803	32721	
2991	0	32745	32816	
2992	0	32824	32864	
2993	0	32853	32823	
2994	0	32836	32720	
2995	0	32832	32888	
2996	0	32832	32908	
2997	0	32860	32668	
2998	0	32768	32869	
2999	0	32784	32763	
3000	0	32744	32840	
3001	0	32824	32803	
3002	0	32782	32707	
3003	0	32774	32804	
3004	0	32860	32773	
3005	0	32816	32820	
3006	0	32785	32936	
3007	0	32793	32804	
3008	0	32820	32865	
3009	0	32787	32692	
3010	0	32780	32786	
3011	0	32736	32775	
3012	0	32804	32826	
3013	0	32790	32732	
3014	0	32850	32791	
3015	0	32786	32749	
3016	0	32832	32850	
3017	0	32802	32861	
3018	0	32824	32734	
3019	0	32826	32848	
3020	0	32874	32890	
3021	0	32752	32735	
3022	0	32821	32790	
3023	0	32788	32811	
3024	0	32834	32679	
3025	0	32840	32811	
3026	0	32808	32878	
3027	0	32794	32761	
3028	0	32771	32824	
3029	0	32804	32892	
3030	0	32772	32754	
3031	0	32835	32871	
3032	0	32836	32775	
3033	0	32824	32826	
3034	0	32796	32816	
3035	0	32804	32837	
3036	0	32845	32881	
3037	0	32765	32712	
3038	0	32858	32804	
3039	0	32836	32863	
3040	0	32816	32796	
3041	0	32816	32694	
3042	0	32836	32775	
3043	0	32812	32865	
3044	0	32853	32812	
3045	0	32775	32787	
3046	0	32780	32808	
3047	0	32805	32859	
3048	0	32772	32775	
3049	0	32860	32711	
3050	0	32805	32819	
3051	0	32748	32836	
3052	0	32748	32792	
3053	0	32816	32766	
3054	0	32736	32858	
3055	0	32894	32867	
3056	0	32854	32804	
3057	0	32818	32718	
3058	0	32762	32840	
3059	0	32786	32792	
3060	0	32866	32899	
3061	0	32812	32775	
3062	0	32841	32815	
3063	0	32859	32879	
3064	0	32716	32704	
3065	0	32818	32800	
3066	0	32764	32857	
3067	0	32825	32822	
3068	0	32775	32710	
3069	0	32830	32848	
3070	0	32813	32838	
3071	0	32827	32827	
3072	0	32786	32850	
3073	0	32853	32806	
3074	0	32818	32773	
3075	0	32770	32773	
3076	0	32748	32855	
3077	0	32832	32754	
3078	0	32894	32788	
3079	0	32793	32839	
3080	0	32850	32706	
3081	0	32843	32795	
3082	0	32801	32792	
3083	0	32775	32712	
3084	0	32792	32840	
3085	0	32736	32862	
3086	0	32808	32892	
3087	0	32754	32752	
3088	0	32760	32816	
3089	0	32801	32890	
3090	0	32746	32848	
3091	0	32818	32754	
3092	0	32842	32824	
3093	0	32833	32820	
3094	0	32824	32842	
3095	0	32766	32682	
3096	0	32834	32830	
3097	0	32837	32839	
3098	0	32796	32803	
3099	0	32842	32670	
3100	0	32790	32793	
3101	0	32738	32919	
3102	0	32804	32825	
3103	0	32828	32801	
3104	0	32800	32825	
3105	0	32768	32712	
3106	0	32786	32775	
3107	0	32802	32876	
3108	0	32835	32775	
3109	0	32829	32832	
3110	0	32808	32850	
3111	0	32774	32715	
3112	0	32820	32820	
3113	0	32812	32879	
3114	0	32816	32739	
3115	0	32775	32803	
3116	0	32786	32857	
3117	0	32888	32846	
3118	0	32788	32948	
3119	0	32768	32762	
3120	0	32767	32809	
3121	0	32756	32802	
3122	0	32756	32750	
3123	0	32812	32904	
3124	0	32792	32745	
3125	0	32782	32792	
3126	0	32824	32868	
3127	0	32769	32731	
3128	0	32818	32824	
3129	0	32889	32718	
3130	0	32868	32837	
3131	0	32848	32885	
3132	0	32850	32775	
3133	0	32770	32822	
3134	0	32816	32790	
3135	0	32824	32710	
3136	0	32820	32819	
3137	0	32746	32756	
3138	0	32812	32832	
3139	0	32776	32813	
3140	0	32836	32772	
3141	0	32844	32844	
3142	0	32830	32882	
3143	0	32784	32738	
3144	0	32818	32864	
3145	0	32792	32839	
3146	0	32860	32743	
3147	0	32756	32758	
3148	0	32724	32882	
3149	0	32842	32721	
3150	0	32808	32813	
3151	0	32808	32818	
3152	0	32813	32745	
3153	0	32852	32799	
3154	0	32720	32861	
3155	0	32748	32751	
3156	0	32816	32833	
3157	0	32844	32814	
3158	0	32824	32738	
3159	0	32810	32832	
3160	0	32811	32839	
3161	0	32840	32811	
3162	0	32738	32870	
3163	0	32838	32812	
3164	0	32780	32710	
3165	0	32866	32787	
3166	0	32770	32767	
3167	0	32738	32794	
3168	0	32760	32850	
3169	0	32804	32832	
3170	0	32793	32730	
3171	0	32844	32760	
3172	0	32752	32842	
3173	0	32840	32811	
3174	0	32797	32823	
3175	0	32816	32839	
3176	0	32792	32720	
3177	0	32792	32892	
3178	0	32805	32785	
3179	0	32768	32775	
3180	0	32850	32761	
3181	0	32818	32832	
3182	0	32802	32864	
3183	0	32839	32713	
3184	0	32804	32804	
3185	0	32836	32813	
3186	0	32732	32861	
3187	0	32818	32768	
3188	0	32784	32817	
3189	0	32807	32869	
3190	0	32760	32765	
3191	0	32805	32764	
3192	0	32857	32797	
3193	0	32818	32804	
3194	0	32796	32733	
3195	0	32796	32863	
3196	0	32762	32731	
3197	0	32744	32771	
3198	0	32856	32938	
3199	0	32813	32775	
3200	0	32864	32796	
3201	0	32824	32832	
3202	0	32800	32742	
3203	0	32739	32879	
3204	0	32852	32765	
3205	0	32840	32848	
3206	0	32778	32880	
3207	0	32764	32710	
3208	0	32788	32861	
3209	0	32876	32903	
3210	0	32746	32681	
3211	0	32861	32835	
3212	0	32848	32785	
3213	0	32746	32877	
3214	0	32748	32748	
3215	0	32742	32817	
3216	0	32818	32836	
3217	0	32780	32754	
3218	0	32782	32792	
3219	0	32804	32805	
3220	0	32810	32897	
3221	0	32846	32710	
3222	0	32836	32791	
3223	0	32796	32881	
3224	0	32755	32793	
3225	0	32848	32825	
3226	0	32804	32823	
3227	0	32788	32784	
3228	0	32844	32864	
3229	0	32818	32839	
3230	0	32808	32750	
3231	0	32849	32871	
3232	0	32784	32844	
3233	0	32792	32867	
3234	0	32800	32839	
3235	0	32840	32784	
3236	0	32908	32696	
3237	0	32785	32781	
3238	0	32804	32813	
3239	0	32846	32853	
3240	0	32857	32870	
3241	0	32772	32851	
3242	0	32796	32765	
3243	0	32824	32813	
3244	0	32760	32843	
3245	0	32804	32848	
3246	0	32768	32734	
3247	0	32756	32758	
3248	0	32788	32853	
3249	0	32809	32786	
3250	0	32854	32800	
3251	0	32838	32830	
3252	0	32850	32824	
3253	0	32834	32861	
3254	0	32748	32821	
3255	0	32836	32809	
3256	0	32788	32782	
3257	0	32860	32775	
3258	0	32824	32902	
3259	0	32850	32703	
3260	0	32801	32753	
3261	0	32775	32692	
3262	0	32789	32804	
3263	0	32792	32879	
3264	0	32724	32773	
3265	0	32730	32816	
3266	0	32772	32866	
3267	0	32824	32806	
3268	0	32854	32839	
3269	0	32816	32854	
3270	0	32798	32869	
3271	0	32836	32830	
3272	0	32832	32740	
3273	0	32775	32818	
3274	0	32812	32896	
3275	0	32788	32846	
3276	0	32737	32692	
3277	0	32832	32850	
3278	0	32820	32848	
3279	0	32840	32717	
3280	0	32832	32764	
3281	0	32825	32790	
3282	0	32792	32882	
3283	0	32840	32739	
3284	0	32816	32844	
3285	0	32778	32903	
3286	0	32820	32736	
3287	0	32803	32775	
3288	0	32820	32896	
3289	0	32738	32750	
3290	0	32864	32671	
3291	0	32810	32754	
3292	0	32802	32834	
3293	0	32861	32823	
3294	0	32859	32858	
3295	0	32752	32767	
3296	0	32772	32809	
3297	0	32805	32943	
3298	0	32794	32728	
3299	0	32802	32678	
3300	0	32804	32799	
3301	0	32793	32848	
3302	0	32797	32857	
3303	0	32864	32747	
3304	0	32832	32815	
3305	0	32742	32921	
3306	0	32868	32750	
3307	0	32792	32868	
3308	0	32761	32877	
3309	0	32760	32710	
3310	0	32834	32903	
3311	0	32772	32826	
3312	0	32800	32698	
3313	0	32820	32722	
3314	0	32816	32769	
3315	0	32796	32843	
3316	0	32797	32745	
3317	0	32808	32785	
3318	0	32853	32872	
3319	0	32880	32802	
3320	0	32761	32745	
3321	0	32792	32790	
3322	0	32802	32861	
3323	0	32812	32721	
3324	0	32832	32842	
3325	0	32768	32912	
3326	0	32804	32711	
3327	0	32836	32790	
3328	0	32780	32848	
3329	0	32802	32802	
3330	0	32848	32813	
3331	0	32864	32832	
3332	0	32736	32718	
3333	0	32808	32839	
3334	0	32722	32937	
3335	0	32828	32775	
3336	0	32832	32820	
3337	0	32856	32802	
3338	0	32796	32731	
3339	0	32825	32839	
3340	0	32732	32862	
3341	0	32864	32787	
3342	0	32801	32811	
3343	0	32816	32775	
3344	0	32841	32765	
3345	0	32822	32848	
3346	0	32824	32870	
3347	0	32820	32854	
3348	0	32752	32840	
3349	0	32818	32720	
3350	0	32775	32832	
3351	0	32782	32799	
3352	0	32832	32830	
3353	0	32815	32856	
3354	0	32792	32738	
3355	0	32826	32769	
3356	0	32804	32803	
3357	0	32832	32749	
3358	0	32786	32823	
3359	0	32784	32841	
3360	0	32808	32730	
3361	0	32784	32871	
3362	0	32770	32750	
3363	0	32828	32775	
3364	0	32852	32873	
3365	0	32868	32746	
3366	0	32789	32882	
3367	0	32776	32749	
3368	0	32819	32863	
3369	0	32832	32846	
3370	0	32788	32737	
3371	0	32834	32852	
3372	0	32800	32849	
3373	0	32824	32794	
3374	0	32772	32871	
3375	0	32788	32736	
3376	0	32872	32815	
3377	0	32788	32876	
3378	0	32856	32807	
3379	0	32832	32863	
3380	0	32796	32690	
3381	0	32807	32773	
3382	0	32840	32831	
3383	0	32865	32723	
3384	0	32773	32806	
3385	0	32774	32775	
3386	0	32808	32860	
3387	0	32768	32884	
3388	0	32808	32826	
3389	0	32826	32845	
3390	0	32816	32841	
3391	0	32832	32882	
3392	0	32815	32790	
3393	0	32805	32784	
3394	0	32739	32811	
3395	0	32844	32822	
3396	0	32886	32869	
3397	0	32859	32788	
3398	0	32800	32775	
3399	0	32818	32824	
3400	0	32828	32912	
3401	0	32772	32825	
3402	0	32768	32711	
3403	0	32845	32820	
3404	0	32808	32796	
3405	0	32824	32737	
3406	0	32844	32840	
3407	0	32840	32848	
3408	0	32730	32762	
3409	0	32824	32839	
3410	0	32800	32804	
3411	0	32818	32836	
3412	0	32764	32775	
3413	0	32807	32770	
3414	0	32797	32768	
3415	0	32858	32804	
3416	0	32768	32807	
3417	0	32842	32879	
3418	0	32774	32873	
3419	0	32748	32717	
3420	0	32860	32858	
3421	0	32866	32807	
3422	0	32800	32850	
3423	0	32742	32749	
3424	0	32784	32863	
3425	0	32800	32814	
3426	0	32838	32837	
3427	0	32788	32839	
3428	0	32812	32643	
3429	0	32860	32812	
3430	0	32804	32879	
3431	0	32774	32831	
3432	0	32848	32861	
3433	0	32804	32708	
3434	0	32805	32847	
3435	0	32756	32880	
3436	0	32784	32707	
3437	0	32802	32828	
3438	0	32794	32855	
3439	0	32792	32726	
3440	0	32774	32851	
3441	0	32820	32831	
3442	0	32792	32764	
3443	0	32880	32800	
3444	0	32818	32905	
3445	0	32818	32764	
3446	0	32800	32818	
3447	0	32762	32791	
3448	0	32788	32847	
3449	0	32817	32841	
3450	0	32820	32826	
3451	0	32768	32890	
3452	0	32860	32679	
3453	0	32832	32785	
3454	0	32738	32730	
3455	0	32780	32802	
3456	0	32796	32899	
3457	0	32776	32825	
3458	0	32840	32848	
3459	0	32812	32775	
3460	0	32846	32870	
3461	0	32832	32792	
3462	0	32824	32729	
3463	0	32775	32784	
3464	0	32822	32870	
3465	0	32762	32736	
3466	0	32848	32775	
3467	0	32832	32858	
3468	0	32760	32896	
3469	0	32820	32664	
3470	0	32836	32810	
3471	0	32752	32829	
3472	0	32882	32815	
3473	0	32754	32787	
3474	0	32828	32792	
3475	0	32824	32810	
3476	0	32800	32861	
3477	0	32808	32718	
3478	0	32808	32700	
3479	0	32788	32722	
3480	0	32804	32736	
3481	0	32817	32865	
3482	0	32818	32873	
3483	0	32814	32758	
3484	0	32724	32844	
3485	0	32748	32906	
3486	0	32744	32762	
3487	0	32757	32879	
3488	0	32796	32860	
3489	0	32804	32729	
3490	0	32699	32847	
3491	0	32731	32873	
3492	0	32837	32700	
3493	0	32789	32869	
3494	0	32840	32828	
3495	0	32768	32756	
3496	0	32768	32808	
3497	0	32828	32672	
3498	0	32860	32858	
3499	0	32860	32822	
3500	0	32903	32666	
3501	0	32888	32837	
3502	0	32858	32805	
3503	0	32852	32610	
3504	0	32933	32726	
3505	0	32940	32742	
3506	0	32888	32573	
3507	0	33008	32642	
3508	0	32908	32613	
3509	0	33020	32570	
3510	0	32916	32723	
3511	0	32988	32591	
3512	0	32860	32666	
3513	0	32900	32680	
3514	0	32929	32853	
3515	0	32844	32837	
3516	0	32726	32900	
3517	0	32629	32997	
3518	0	32684	32813	
3519	0	32748	32892	
3520	0	32634	32887	
3521	0	32698	32818	
3522	0	32688	32903	
3523	0	32660	32799	
3524	0	32738	32973	
3525	0	32696	32869	
3526	0	32728	33000	
3527	0	32680	33178	
3528	0	32580	32985	
3529	0	32636	33085	
3530	0	32596	33122	
3531	0	32682	33052	
3532	0	32708	33062	
3533	0	32782	32907	
3534	0	32784	32957	
3535	0	32752	33000	
3536	0	32808	32819	
3537	0	32747	32840	
3538	0	32848	32836	
3539	0	32868	32688	
3540	0	32894	32728	
3541	0	32816	32774	
3542	0	32941	32608	
3543	0	32872	32694	
3544	0	32868	32749	
3545	0	32801	32620	
3546	0	32898	32750	
3547	0	32802	32750	
3548	0	32755	32608	
3549	0	32844	32852	
3550	0	32916	32821	
3551	0	32904	32749	
3552	0	32896	32758	
3553	0	32852	32799	
3554	0	32850	32655	
3555	0	32876	32765	
3556	0	32866	32707	
3557	0	32804	32685	
3558	0	32800	32728	
3559	0	32844	32775	
3560	0	32776	32674	
3561	0	32800	32791	
3562	0	32796	32775	
3563	0	32736	32859	
3564	0	32790	32863	
3565	0	32760	32749	
3566	0	32801	32869	
3567	0	32852	32921	
3568	0	32878	32756	
3569	0	32768	32871	
3570	0	32842	32768	
3571	0	32786	32861	
3572	0	32800	32733	
3573	0	32862	32804	
3574	0	32840	32868	
3575	0	32848	32763	
3576	0	32869	32784	
3577	0	32781	32906	
3578	0	32762	32744	
3579	0	32844	32856	
3580	0	32800	32880	
3581	0	32760	32882	
3582	0	32768	32827	
3583	0	32808	32764	
3584	0	32770	32812	
3585	0	32746	32864	
3586	0	32804	32686	
3587	0	32864	32775	
3588	0	32812	32763	
3589	0	32850	32860	
3590	0	32840	32769	
3591	0	32856	32748	
3592	0	32820	32851	
3593	0	32828	32866	
3594	0	32774	32748	
3595	0	32788	32842	
3596	0	32832	32896	
3597	0	32770	32830	
3598	0	32712	32788	
3599	0	32753	32835	
3600	0	32796	32804	
3601	0	32720	32771	
3602	0	32772	32756	
3603	0	32866	32757	
3604	0	32824	32767	
3605	0	32908	32758	
3606	0	32852	32775	
3607	0	32752	32854	
3608	0	32812	32765	
3609	0	32872	32825	
3610	0	32837	32877	
3611	0	32878	32771	
3612	0	32844	32900	
3613	0	32784	32756	
3614	0	32758	32809	
3615	0	32760	32842	
3616	0	32784	32700	
3617	0	32732	32864	
3618	0	32750	32829	
3619	0	32808	32732	
3620	0	32816	32831	
3621	0	32808	32838	
3622	0	32778	32840	
3623	0	32748	32801	
3624	0	32742	32765	
3625	0	32861	32831	
3626	0	32766	32853	
3627	0	32808	32754	
3628	0	32788	32820	
3629	0	32888	32828	
3630	0	32896	32718	
3631	0	32837	32902	
3632	0	32846	32756	
3633	0	32804	32828	
3634	0	32788	32835	
3635	0	32716	32736	
3636	0	32872	32818	
3637	0	32792	32730	
3638	0	32763	32842	
3639	0	32804	32880	
3640	0	32868	32760	
3641	0	32808	32850	
3642	0	32846	32835	
3643	0	32832	32786	
3644	0	32789	32903	
3645	0	32788	32768	
3646	0	32829	32804	
3647	0	32820	32891	
3648	0	32793	32775	
3649	0	32828	32898	
3650	0	32808	32775	
3651	0	32848	32769	
3652	0	32810	32848	
3653	0	32778	32731	
3654	0	32818	32832	
3655	0	32804	32775	
3656	0	32853	32847	
3657	0	32813	32894	
3658	0	32766	32768	
3659	0	32776	32852	
3660	0	32792	32730	
3661	0	32775	32822	
3662	0	32864	32766	
3663	0	32918	32825	
3664	0	32820	32867	
3665	0	32790	32775	
3666	0	32832	32775	
3667	0	32864	32801	
3668	0	32824	32808	
3669	0	32775	32767	
3670	0	32804	32838	
3671	0	32775	32863	
3672	0	32812	32844	
3673	0	32741	32835	
3674	0	32812	32732	
3675	0	32732	32812	
3676	0	32789	32758	
3677	0	32696	32668	
3678	0	32784	32739	
3679	0	32866	32758	
3680	0	32856	32835	
3681	0	32842	32943	
3682	0	32792	32982	
3683	0	32764	32854	
3684	0	32864	32976	
3685	0	32829	32891	
3686	0	32800	32722	
3687	0	32875	32823	
3688	0	32877	32636	
3689	0	32784	32797	
3690	0	32744	32656	
3691	0	32836	32707	
3692	0	32816	32749	
3693	0	32854	32608	
3694	0	32908	32639	
3695	0	32850	32644	
3696	0	32867	32744	
3697	0	32813	32907	
3698	0	32804	32809	
3699	0	32740	32788	
3700	0	32752	32940	
3701	0	32778	32760	
3702	0	32804	32813	
3703	0	32818	32886	
3704	0	32766	32858	
3705	0	32819	32744	
3706	0	32836	32773	
3707	0	32752	32834	
3708	0	32741	32793	
3709	0	32797	32884	
3710	0	32775	32946	
3711	0	32808	32754	
3712	0	32790	32886	
3713	0	32828	32888	
3714	0	32819	32703	
3715	0	32844	32775	
3716	0	32855	32741	
3717	0	32836	32808	
3718	0	32828	32775	
3719	0	32818	32831	
3720	0	32818	32838	
3721	0	32824	32738	
3722	0	32848	32871	
3723	0	32836	32812	
3724	0	32791	32826	
3725	0	32824	32868	
3726	0	32858	32701	
3727	0	32816	32767	
3728	0	32816	32828	
3729	0	32800	32769	
3730	0	32778	33080	
3731	0	32856	33202	
3732	0	32801	33087	
3733	0	32744	32981	
3734	0	32810	32581	
3735	0	32792	32434	
3736	0	32820	32500	
3737	0	32804	32638	
3738	0	32872	32839	
3739	0	32736	32786	
3740	0	32880	32745	
3741	0	32818	32768	
3742	0	32720	32655	
3743	0	32752	32765	
3744	0	32836	32839	
3745	0	32840	32650	
3746	0	32792	32849	
3747	0	32832	32765	
3748	0	32775	32867	
3749	0	32732	32952	
3750	0	32812	32869	
3751	0	32797	32908	
3752	0	32765	32756	
3753	0	32788	32771	
3754	0	32836	32878	
3755	0	32816	32996	
3756	0	32848	32883	
3757	0	32920	33050	
3758	0	32796	32790	
3759	0	32884	32684	
3760	0	32852	32679	
3761	0	32752	32601	
3762	0	32821	32656	
3763	0	32784	32626	
3764	0	32856	32675	
3765	0	32744	32869	
3766	0	32768	32846	
3767	0	32750	32964	
3768	0	32811	32983	
3769	0	32765	33001	
3770	0	32788	32880	
3771	0	32820	32862	
3772	0	32816	32769	
3773	0	32812	32900	
3774	0	32802	32933	
3775	0	32774	32660	
3776	0	32796	32749	
3777	0	32846	32738	
3778	0	32666	32775	
3779	0	32775	32808	
3780	0	32862	32846	
3781	0	32844	32882	
3782	0	32816	32924	
3783	0	32810	32713	
3784	0	32824	32921	
3785	0	32816	32845	
3786	0	32835	32752	
3787	0	32737	32674	
3788	0	32818	32839	
3789	0	32848	33025	
3790	0	32772	32818	
3791	0	32770	32854	
3792	0	32782	32765	
3793	0	32761	32660	
3794	0	32740	32720	
3795	0	32725	32755	
3796	0	32680	32641	
3797	0	32769	32682	
3798	0	32872	32839	
3799	0	32774	32809	
3800	0	32836	32821	
3801	0	32859	32583	
3802	0	32836	32886	
3803	0	32854	33076	
3804	0	32824	32999	
3805	0	32850	32884	
3806	0	32840	32760	
3807	0	32788	32725	
3808	0	32788	33055	
3809	0	32840	33070	
3810	0	32834	33125	
3811	0	32818	32933	
3812	0	32674	32869	
3813	0	32628	32690	
3814	0	32714	32595	
3815	0	32681	32721	
3816	0	32720	32575	
3817	0	32712	32514	
3818	0	32770	32619	
3819	0	32908	32659	
3820	0	32968	32623	
3821	0	32944	32805	
3822	0	32871	32743	
3823	0	32920	32636	
3824	0	32882	32720	
3825	0	32788	32848	
3826	0	32808	32934	
3827	0	32792	32880	
3828	0	32784	32912	
3829	0	32857	33057	
3830	0	32740	33001	
3831	0	32801	33154	
3832	0	32812	33055	
3833	0	32718	32706	
3834	0	32696	32756	
3835	0	32794	32704	
3836	0	32814	32615	
3837	0	32793	32829	
3838	0	32795	32712	
3839	0	32824	32889	
3840	0	32812	32823	
3841	0	32798	32936	
3842	0	32811	32868	
3843	0	32792	32731	
3844	0	32836	32824	
3845	0	32821	32890	
3846	0	32856	32654	
3847	0	32821	32638	
3848	0	32838	32684	
3849	0	32824	32790	
3850	0	32786	32916	
3851	0	32757	32719	
3852	0	32799	32811	
3853	0	32658	32880	
3854	0	32696	32696	
3855	0	32728	33040	
3856	0	32716	32880	
3857	0	32772	32843	
3858	0	32851	32778	
3859	0	32846	32567	
3860	0	32872	32805	
3861	0	32840	32875	
3862	0	32868	32936	
3863	0	32850	33180	
3864	0	32894	32948	
3865	0	32826	32791	
3866	0	32804	32674	
3867	0	32840	32551	
3868	0	32818	32612	
3869	0	32712	32630	
3870	0	32850	32553	
3871	0	32792	32703	
3872	0	32748	32850	
3873	0	32760	32710	
3874	0	32714	32859	
3875	0	32775	32820	
3876	0	32764	32703	
3877	0	32813	32788	
3878	0	32754	32751	
3879	0	32784	32830	
3880	0	32744	32927	
3881	0	32744	32743	
3882	0	32792	33016	
3883	0	32840	33049	
3884	0	32781	32854	
3885	0	32812	32941	
3886	0	32837	32898	
3887	0	32801	32645	
3888	0	32766	32672	
3889	0	32808	32679	
3890	0	32752	32636	
3891	0	32774	32816	
3892	0	32796	32722	
3893	0	32763	32813	
3894	0	32868	32796	
3895	0	32823	32829	
3896	0	32868	32967	
3897	0	32858	32902	
3898	0	32872	32884	
3899	0	32852	32773	
3900	0	32768	32549	
3901	0	32733	32452	
3902	0	32802	32488	
3903	0	32841	32731	
3904	0	32834	32934	
3905	0	32770	32850	
3906	0	32740	32903	
3907	0	32797	32741	
3908	0	32852	32775	
3909	0	32856	32862	
3910	0	32925	33004	
3911	0	32860	33159	
3912	0	32820	33147	
3913	0	32784	32960	
3914	0	32752	32856	
3915	0	32734	32934	
3916	0	32700	32945	
3917	0	32738	32676	
3918	0	32808	32526	
3919	0	32802	32508	
3920	0	32800	32526	
3921	0	32750	32793	
3922	0	32768	32927	
3923	0	32840	32647	
3924	0	32844	32754	
3925	0	32774	32658	
3926	0	32804	32712	
3927	0	32768	33062	
3928	0	32744	33260	
3929	0	32868	32804	
3930	0	32912	32752	
3931	0	32854	32622	
3932	0	32868	32790	
3933	0	32841	32722	
3934	0	32775	32814	
3935	0	32775	32852	
3936	0	32778	32722	
3937	0	32768	32759	
3938	0	32792	32828	
3939	0	32745	32883	
3940	0	32864	32772	
3941	0	32848	32799	
3942	0	32881	33020	
3943	0	32744	32941	
3944	0	32816	33007	
3945	0	32829	33040	
3946	0	32797	32721	
3947	0	32792	32672	
3948	0	32821	32531	
3949	0	32797	32573	
3950	0	32766	32517	
3951	0	32784	32402	
3952	0	32774	32630	
3953	0	32868	32623	
3954	0	32880	32798	
3955	0	32708	32921	
3956	0	32756	33070	
3957	0	32752	32990	
3958	0	32628	32654	
3959	0	32672	32820	
3960	0	32617	32800	
3961	0	32764	32920	
3962	0	32908	32977	
3963	0	32888	33360	
3964	0	32900	33198	
3965	0	32936	33005	
3966	0	32962	32767	
3967	0	32805	32554	
3968	0	32844	32643	
3969	0	32921	32606	
3970	0	32944	32793	
3971	0	32834	32672	
3972	0	32865	32696	
3973	0	32732	32626	
3974	0	32814	32690	
3975	0	32792	32696	
3976	0	32750	32796	
3977	0	32800	32942	
3978	0	32788	32759	
3979	0	32716	32891	
3980	0	32796	32896	
3981	0	32864	32786	
3982	0	32788	32834	
3983	0	32808	32815	
3984	0	32840	32912	
3985	0	32864	32854	
3986	0	32778	32807	
3987	0	32789	32859	
3988	0	32808	32876	
3989	0	32813	32799	
3990	0	32764	32866	
3991	0	32835	32949	
3992	0	32664	32895	
3993	0	32572	32834	
3994	0	32842	32641	
3995	0	32708	32706	
3996	0	32793	32628	
3997	0	32812	32758	
3998	0	32848	32863	
3999	0	32856	32825	
4000	0	32876	32880	
4001	0	32941	32967	
4002	0	32944	32888	
4003	0	32906	33004	
4004	0	32818	32903	
4005	0	32913	32647	
4006	0	32820	32689	
4007	0	32816	32710	
4008	0	32738	32484	
4009	0	32810	32564	
4010	0	32836	32892	
4011	0	32816	32835	
4012	0	32730	32855	
4013	0	32765	32800	
4014	0	32712	32846	
4015	0	32694	32702	
4016	0	32622	32845	
4017	0	32537	32932	
4018	0	32594	32953	
4019	0	32742	33287	
4020	0	32855	33138	
4021	0	33084	32773	
4022	0	33068	32591	
4023	0	33111	32523	
4024	0	33078	32729	
4025	0	32955	32629	
4026	0	32984	32891	
4027	0	32812	32937	
4028	0	32704	32874	
4029	0	32608	32774	
4030	0	32608	32839	
4031	0	32629	32704	
4032	0	32672	32752	
4033	0	32860	32644	
4034	0	32941	32775	
4035	0	32944	32843	
4036	0	32789	32692	
4037	0	32756	32681	
4038	0	32796	32622	
4039	0	32900	32835	
4040	0	32992	33127	
4041	0	32878	33126	
4042	0	32822	33063	
4043	0	32754	32901	
4044	0	32762	32454	
4045	0	32792	32640	
4046	0	32680	32820	
4047	0	32825	32788	
4048	0	32832	32871	
4049	0	32713	32811	
4050	0	32769	32856	
4051	0	32772	32888	
4052	0	32836	32839	
4053	0	32775	32897	
4054	0	32804	32957	
4055	0	32778	32651	
4056	0	32796	32690	
4057	0	32694	32588	
4058	0	32868	32679	
4059	0	32706	32950	
4060	0	32766	32813	
4061	0	32808	32715	
4062	0	32784	32804	
4063	0	32866	32932	
4064	0	32844	32967	
4065	0	32868	32915	
4066	0	32860	32709	
4067	0	32797	32628	
4068	0	32755	32626	
4069	0	32782	32720	
4070	0	32898	32862	
4071	0	32752	32600	
4072	0	32836	32765	
4073	0	32774	32893	
4074	0	32816	32898	
4075	0	32822	32909	
4076	0	32818	32878	
4077	0	32781	32882	
4078	0	32824	32741	
4079	0	32825	32826	
4080	0	32796	32910	
4081	0	32796	32733	
4082	0	32808	32848	
4083	0	32809	32975	
4084	0	32828	33052	
4085	0	32850	33056	
4086	0	32788	32824	
4087	0	32804	32600	
4088	0	32813	32601	
4089	0	32778	32685	
4090	0	32890	32655	
4091	0	32818	32717	
4092	0	32800	32672	
4093	0	32746	32569	
4094	0	32816	32729	
4095	0	32780	32824	
4096	0	32713	32980	
4097	0	32780	33039	
4098	0	32744	32769	
4099	0	32699	32871	
4100	0	32732	32979	
4101	0	32832	32861	
4102	0	32804	32766	
4103	0	32832	32884	
4104	0	32912	32608	
4105	0	32964	32734	
4106	0	32974	32804	
4107	0	32956	32766	
4108	0	32824	32845	
4109	0	32760	32839	
4110	0	32752	32727	
4111	0	32756	32914	
4112	0	32793	32944	
4113	0	32709	32859	
4114	0	32857	32730	
4115	0	32872	32874	
4116	0	32954	32785	
4117	0	32906	32688	
4118	0	32875	32550	
4119	0	32807	32658	
4120	0	32778	32812	
4121	0	32797	32840	
4122	0	32800	32881	
4123	0	32828	32758	
4124	0	32775	32943	
4125	0	32760	32834	
4126	0	32806	32879	
4127	0	32792	32944	
4128	0	32812	32820	
4129	0	32847	32728	
4130	0	32816	32708	
4131	0	32636	32830	
4132	0	32676	32807	
4133	0	32816	32869	
4134	0	32784	32922	
4135	0	32793	32855	
4136	0	32820	32793	
4137	0	32832	32818	
4138	0	32816	32848	
4139	0	32889	32651	
4140	0	32792	32800	
4141	0	32808	32743	
4142	0	32889	32788	
4143	0	32838	32824	
4144	0	32892	32743	
4145	0	32810	32676	
4146	0	32774	32753	
4147	0	32836	32764	
4148	0	32772	32707	
4149	0	32844	32860	
4150	0	32882	32738	
4151	0	32805	32860	
4152	0	32798	32843	
4153	0	32820	32756	
4154	0	32738	32927	
4155	0	32736	32895	
4156	0	33004	32750	
4157	0	32826	32840	
4158	0	32814	32818	
4159	0	32876	32740	
4160	0	32778	32824	
4161	0	32840	32813	
4162	0	32768	32797	
4163	0	32733	32712	
4164	0	32748	32775	
4165	0	32792	32933	
4166	0	32816	32815	
4167	0	32848	32718	
4168	0	32816	32846	
4169	0	32828	32914	
4170	0	32846	32827	
4171	0	32796	32868	
4172	0	32910	33009	
4173	0	32832	33001	
4174	0	32778	32729	
4175	0	32764	32706	
4176	0	32764	32730	
4177	0	32768	32723	
4178	0	32692	32661	
4179	0	32728	32660	
4180	0	32752	32708	
4181	0	32828	32775	
4182	0	32804	32999	
4183	0	32780	33102	
4184	0	32816	33170	
4185	0	32904	32943	
4186	0	32832	32921	
4187	0	32854	32808	
4188	0	32773	32607	
4189	0	32737	32739	
4190	0	32774	32882	
4191	0	32876	32610	
4192	0	32832	32711	
4193	0	32780	32731	
4194	0	32838	32553	
4195	0	32829	32746	
4196	0	32912	32803	
4197	0	32912	32905	
4198	0	32808	32879	
4199	0	32888	32879	
4200	0	32992	32659	
4201	0	32888	32661	
4202	0	32836	32738	
4203	0	32760	32647	
4204	0	32760	32669	
4205	0	32816	32605	
4206	0	32744	32741	
4207	0	32781	32728	
4208	0	32696	32726	
4209	0	32813	32923	
4210	0	32774	33063	
4211	0	32688	33061	
4212	0	32736	32989	
4213	0	32692	33128	
4214	0	32668	33094	
4215	0	32836	33183	
4216	0	32808	32978	
4217	0	32713	32647	
4218	0	32725	32712	
4219	0	32690	32571	
4220	0	32832	32548	
4221	0	32688	32492	
4222	0	32768	32775	
4223	0	32802	32900	
4224	0	32869	32810	
4225	0	32952	32775	
4226	0	32856	32840	
4227	0	32892	32746	
4228	0	32892	32758	
4229	0	32897	32770	
4230	0	32869	32799	
4231	0	32924	32767	
4232	0	32902	32761	
4233	0	32842	32733	
4234	0	32850	32804	
4235	0	32810	32874	
4236	0	32756	32967	
4237	0	32786	32760	
4238	0	32764	32672	
4239	0	32696	32803	
4240	0	32716	32904	
4241	0	32726	32792	
4242	0	32805	32754	
4243	0	32811	32889	
4244	0	32816	33008	
4245	0	32844	32775	
4246	0	32814	32774	
4247	0	32823	32995	
4248	0	32805	32967	
4249	0	32808	32843	
4250	0	32724	32746	
4251	0	32738	32626	
4252	0	32916	32559	
4253	0	32841	32710	
4254	0	32757	32692	
4255	0	32808	32706	
4256	0	32809	32711	
4257	0	32844	32758	
4258	0	32842	32830	
4259	0	32800	32706	
4260	0	32834	32718	
4261	0	32812	32745	
4262	0	32820	32864	
4263	0	32717	32962	
4264	0	32756	32853	
4265	0	32744	32816	
4266	0	32827	32904	
4267	0	32780	33026	
4268	0	32722	32994	
4269	0	32522	32877	
4270	0	32556	32699	
4271	0	32528	32637	
4272	0	32548	32598	
4273	0	32716	32769	
4274	0	32898	33080	
4275	0	33064	33159	
4276	0	33159	33016	
4277	0	33181	32681	
4278	0	33037	32527	
4279	0	33024	32660	
4280	0	33008	32658	
4281	0	32807	32636	
4282	0	32768	32802	
4283	0	32786	32903	
4284	0	32836	32634	
4285	0	32843	32617	
4286	0	32828	32647	
4287	0	32772	32751	
4288	0	32688	32718	
4289	0	32730	32839	
4290	0	32696	32933	
4291	0	32702	32943	
4292	0	32740	32954	
4293	0	32690	33016	
4294	0	32622	32943	
4295	0	32677	32922	
4296	0	32640	32882	
4297	0	32585	32940	
4298	0	32471	33040	
4299	0	32710	32984	
4300	0	32852	32769	
4301	0	33069	32530	
4302	0	33135	32469	
4303	0	33132	32515	
4304	0	33096	32599	
4305	0	33068	32839	
4306	0	32948	32992	
4307	0	32836	32898	
4308	0	32768	32787	
4309	0	32736	32671	
4310	0	32713	32613	
4311	0	32685	32577	
4312	0	32686	32528	
4313	0	32733	32559	
4314	0	32780	33080	
4315	0	32782	32954	
4316	0	32640	32797	
4317	0	32620	32869	
4318	0	32796	33062	
4319	0	32804	33115	
4320	0	32853	33095	
4321	0	32871	32813	
4322	0	32836	32667	
4323	0	32953	32577	
4324	0	32996	32658	
4325	0	32912	32696	
4326	0	32916	32799	
4327	0	32720	32808	
4328	0	32856	32818	
4329	0	32761	32806	
4330	0	32712	32839	
4331	0	32660	32741	
4332	0	32564	32658	
4333	0	32832	32700	
4334	0	32842	32689	
4335	0	32940	32768	
4336	0	32952	32706	
4337	0	32964	32815	
4338	0	33034	32995	
4339	0	32928	32882	
4340	0	32795	32949	
4341	0	32712	32788	
4342	0	32760	32857	
4343	0	32672	32861	
4344	0	32608	32998	
4345	0	32585	32919	
4346	0	32623	32831	
4347	0	32739	32929	
4348	0	32818	32938	
4349	0	32838	32794	
4350	0	32800	32800	
4351	0	32865	32920	
4352	0	32891	32927	
4353	0	32858	32797	
4354	0	32804	32837	
4355	0	32824	32836	
4356	0	32805	32780	
4357	0	32838	32562	
4358	0	32732	32608	
4359	0	32808	32792	
4360	0	32820	32634	
4361	0	32813	32775	
4362	0	32874	32824	
4363	0	32844	32684	
4364	0	32828	32893	
4365	0	32693	33022	
4366	0	32708	32831	
4367	0	32736	32790	
4368	0	32612	32850	
4369	0	32448	32800	
4370	0	32481	32600	
4371	0	32460	32677	
4372	0	32331	32574	
4373	0	32585	32546	
4374	0	32890	32564	
4375	0	33168	32705	
4376	0	33390	32839	
4377	0	33628	32958	
4378	0	33721	32889	
4379	0	33527	32844	
4380	0	33172	33114	
4381	0	33064	33199	
4382	0	32924	33086	
4383	0	32836	32775	
4384	0	32608	32747	
4385	0	32612	32768	
4386	0	32584	32837	
4387	0	32400	32749	
4388	0	32492	32903	
4389	0	32710	32994	
4390	0	32569	32761	
4391	0	32542	32549	
4392	0	32730	32585	
4393	0	32720	32583	
4394	0	32617	32600	
4395	0	32710	32647	
4396	0	32720	32870	
4397	0	32978	32914	
4398	0	33042	32800	
4399	0	33176	32626	
4400	0	33124	32712	
4401	0	33082	32766	
4402	0	33034	32573	
4403	0	32992	32488	
4404	0	32888	32653	
4405	0	32865	32775	
4406	0	32848	32741	
4407	0	32637	32681	
4408	0	32644	32690	
4409	0	32650	32749	
4410	0	32676	32727	
4411	0	32619	32754	
4412	0	32628	32862	
4413	0	32518	32912	
4414	0	32600	32936	
4415	0	32585	33024	
4416	0	32630	33042	
4417	0	32624	33287	
4418	0	32752	33504	
4419	0	32636	33663	
4420	0	32681	33310	
4421	0	32722	33004	
4422	0	32744	32758	
4423	0	32785	32495	
4424	0	32862	32704	
4425	0	32940	32857	
4426	0	32952	32800	
4427	0	32800	32794	
4428	0	32777	32640	
4429	0	32772	32714	
4430	0	32796	33042	
4431	0	32829	32999	
4432	0	32846	32845	
4433	0	32848	32795	
4434	0	32824	32628	
4435	0	32809	32729	
4436	0	32876	33030	
4437	0	32920	32784	
4438	0	32734	32500	
4439	0	32764	32441	
4440	0	32860	32466	
4441	0	32874	32591	
4442	0	32828	32514	
4443	0	32868	32728	
4444	0	32872	32805	
4445	0	32866	32892	
4446	0	32860	32692	
4447	0	32825	32720	
4448	0	32710	32839	
4449	0	32384	32851	
4450	0	32604	32911	
4451	0	32356	33140	
4452	0	32352	33124	
4453	0	32784	32839	
4454	0	33050	32755	
4455	0	33156	32850	
4456	0	33354	32762	
4457	0	33494	32715	
4458	0	33686	32676	
4459	0	33220	32729	
4460	0	33062	32672	
4461	0	32848	32800	
4462	0	32832	32540	
4463	0	32854	32774	
4464	0	32796	32804	
4465	0	32598	32978	
4466	0	32582	32928	
4467	0	32604	32962	
4468	0	32612	32959	
4469	0	32620	32797	
4470	0	32500	32546	
4471	0	32616	32479	
4472	0	32613	32558	
4473	0	32686	32623	
4474	0	32658	32717	
4475	0	32660	32725	
4476	0	32860	32756	
4477	0	32948	32850	
4478	0	32834	32989	
4479	0	32834	33020	
4480	0	32716	32980	
4481	0	32716	32850	
4482	0	32656	33316	
4483	0	32888	33228	
4484	0	32856	32959	
4485	0	32797	32751	
4486	0	32584	32450	
4487	0	32696	32594	
4488	0	32845	32743	
4489	0	32901	32733	
4490	0	32976	32890	
4491	0	33197	32851	
4492	0	33111	32896	
4493	0	33030	32828	
4494	0	32882	32712	
4495	0	32748	32619	
4496	0	32778	32673	
4497	0	32748	32770	
4498	0	32660	32917	
4499	0	32686	32764	
4500	0	32716	32850	
4501	0	32732	32946	
4502	0	32781	32927	
4503	0	32770	32995	
4504	0	32752	32987	
4505	0	32773	32898	
4506	0	32858	32832	
4507	0	32970	32725	
4508	0	32861	32739	
4509	0	32818	32906	
4510	0	32816	32738	
4511	0	32821	32882	
4512	0	32717	32862	
4513	0	32674	32458	
4514	0	32788	32592	
4515	0	32762	32502	
4516	0	32850	32592	
4517	0	32771	32636	
4518	0	32712	32874	
4519	0	32743	33055	
4520	0	32717	33230	
4521	0	32900	33181	
4522	0	32801	33147	
4523	0	32814	32921	
4524	0	32836	32750	
4525	0	32848	32600	
4526	0	32741	32843	
4527	0	32696	32647	
4528	0	32860	32468	
4529	0	32749	32519	
4530	0	32752	32633	
4531	0	32688	32866	
4532	0	32608	33083	
4533	0	32435	32928	
4534	0	32386	32534	
4535	0	32452	32839	
4536	0	32546	33006	
4537	0	32772	33014	
4538	0	32988	32886	
4539	0	32995	32762	
4540	0	32992	32469	
4541	0	33028	32411	
4542	0	33561	32660	
4543	0	33446	32737	
4544	0	33268	32989	
4545	0	33192	33163	
4546	0	33064	33114	
4547	0	33048	32677	
4548	0	33042	32617	
4549	0	32756	32681	
4550	0	32652	32743	
4551	0	32576	32868	
4552	0	32592	32775	
4553	0	32588	32674	
4554	0	32330	32834	
4555	0	32150	32848	
4556	0	32101	32798	
4557	0	32626	32933	
4558	0	32864	32966	
4559	0	32894	32859	
4560	0	32985	32744	
4561	0	33152	32786	
4562	0	33188	32873	
4563	0	33400	33079	
4564	0	32860	33330	
4565	0	32752	33082	
4566	0	32756	33052	
4567	0	32902	32898	
4568	0	33044	32837	
4569	0	32832	32687	
4570	0	32748	32558	
4571	0	32732	32515	
4572	0	32736	32685	
4573	0	32700	32764	
4574	0	32680	32810	
4575	0	32553	32635	
4576	0	32532	32565	
4577	0	32413	32671	
4578	0	32356	32694	
4579	0	32332	32688	
4580	0	32604	32923	
4581	0	32952	32947	
4582	0	33072	32716	
4583	0	33208	32804	
4584	0	33088	32685	
4585	0	33128	32634	
4586	0	33114	32840	
4587	0	33152	32932	
4588	0	32994	32964	
4589	0	32970	32990	
4590	0	32821	32581	
4591	0	32752	32465	
4592	0	32748	32670	
4593	0	32778	33057	
4594	0	32824	33324	
4595	0	32666	33359	
4596	0	32828	33031	
4597	0	32796	32699	
4598	0	32824	32387	
4599	0	32800	32408	
4600	0	32708	32716	
4601	0	32636	32940	
4602	0	32534	32896	
4603	0	32618	33060	
4604	0	32656	32970	
4605	0	32646	32959	
4606	0	32704	32967	
4607	0	32785	32944	
4608	0	32768	32674	
4609	0	32670	32230	
4610	0	32640	32080	
4611	0	32612	32301	
4612	0	32690	32751	
4613	0	32948	32913	
4614	0	33178	32746	
4615	0	33170	32720	
4616	0	33216	32805	
4617	0	33144	32961	
4618	0	33064	32898	
4619	0	32896	33135	
4620	0	32704	32903	
4621	0	32699	32719	
4622	0	32728	32585	
4623	0	32680	32834	
4624	0	32656	32994	
4625	0	32592	32905	
4626	0	32668	32976	
4627	0	32832	32963	
4628	0	32874	32744	
4629	0	32980	32824	
4630	0	32864	32771	
4631	0	32834	32902	
4632	0	32756	32930	
4633	0	32668	32551	
4634	0	32626	32362	
4635	0	32605	32501	
4636	0	32552	32641	
4637	0	32612	33143	
4638	0	32684	33453	
4639	0	33060	33365	
4640	0	32834	32887	
4641	0	32934	32934	
4642	0	32985	33114	
4643	0	32922	32933	
4644	0	32805	32849	
4645	0	32816	32535	
4646	0	32796	32630	
4647	0	32921	32899	
4648	0	32932	32978	
4649	0	32992	32727	
4650	0	33026	32476	
4651	0	33071	32621	
4652	0	32952	33074	
4653	0	32910	32925	
4654	0	32686	32616	
4655	0	32470	32266	
4656	0	32336	32247	
4657	0	32561	32210	
4658	0	32466	32446	
4659	0	32580	32689	
4660	0	32592	32792	
4661	0	32888	33140	
4662	0	32957	33324	
4663	0	33076	33490	
4664	0	33094	33176	
4665	0	33120	32841	
4666	0	33305	32565	
4667	0	33216	32361	
4668	0	32570	32435	
4669	0	32720	32653	
4670	0	32840	33067	
4671	0	32742	33246	
4672	0	32565	33285	
4673	0	32324	33283	
4674	0	32248	33262	
4675	0	32416	32852	
4676	0	32628	32643	
4677	0	33018	32082	
4678	0	33642	32416	
4679	0	33536	32656	
4680	0	33348	32804	
4681	0	33052	32675	
4682	0	33336	32562	
4683	0	33055	32612	
4684	0	32903	32886	
4685	0	32680	32976	
4686	0	33024	32999	
4687	0	33000	32890	
4688	0	32636	32974	
4689	0	32473	32752	
4690	0	32121	32968	
4691	0	31592	32929	
4692	0	31672	32730	
4693	0	31924	32613	
4694	0	32174	32346	
4695	0	32433	32589	
4696	0	32873	33342	
4697	0	33016	33609	
4698	0	33220	33905	
4699	0	33504	33634	
4700	0	33690	32765	
4701	0	33476	32159	
4702	0	33338	31750	
4703	0	33070	31979	
4704	0	32840	31970	
4705	0	32800	32050	
4706	0	32864	32508	
4707	0	33056	33228	
4708	0	33077	33693	
4709	0	32928	33799	
4710	0	32530	33671	
4711	0	32585	33441	
4712	0	32606	32865	
4713	0	32790	32459	
4714	0	32564	32370	
4715	0	32233	32359	
4716	0	32480	32391	
4717	0	32467	32544	
4718	0	32738	32758	
4719	0	32890	32962	
4720	0	33568	32822	
4721	0	33498	33055	
4722	0	33030	32976	
4723	0	32600	32965	
4724	0	32473	32570	
4725	0	32477	32478	
4726	0	32096	32839	
4727	0	31986	32800	
4728	0	31812	32775	
4729	0	32484	32676	
4730	0	32585	32972	
4731	0	32874	33400	
4732	0	33056	33454	
4733	0	33416	32965	
4734	0	33614	32164	
4735	0	33324	32086	
4736	0	33158	32135	
4737	0	33138	32332	
4738	0	33108	33261	
4739	0	33236	33788	
4740	0	33312	33282	
4741	0	32724	32828	
4742	0	31532	32615	
4743	0	31608	32635	
4744	0	32352	32407	
4745	0	32889	32668	
4746	0	33730	32720	
4747	0	33619	32816	
4748	0	34378	32836	
4749	0	33976	32434	
4750	0	33000	32898	
4751	0	32648	33179	
4752	0	32528	32919	
4753	0	32964	32033	
4754	0	32932	31788	
4755	0	32623	32048	
4756	0	32457	32583	
4757	0	32430	33108	
4758	0	32457	33708	
4759	0	32164	33838	
4760	0	32726	33223	
4761	0	33008	33301	
4762	0	33047	33044	
4763	0	33121	32097	
4764	0	33020	31612	
4765	0	32256	31951	
4766	0	32292	32818	
4767	0	31542	33287	
4768	0	30968	33132	
4769	0	31083	32613	
4770	0	31180	32523	
4771	0	31704	32958	
4772	0	32678	33287	
4773	0	33732	33872	
4774	0	35126	34269	
4775	0	35628	34500	
4776	0	34298	33866	
4777	0	34144	32990	
4778	0	33684	32486	
4779	0	33476	31872	
4780	0	33360	32076	
4781	0	33349	32344	
4782	0	32450	32310	
4783	0	32072	32263	
4784	0	31954	31751	
4785	0	31856	31849	
4786	0	31988	32477	
4787	0	32356	32936	
4788	0	32251	33876	
4789	0	32832	33924	
4790	0	32856	32641	
4791	0	33222	31970	
4792	0	33125	32031	
4793	0	33038	32976	
4794	0	33152	33484	
4795	0	33073	33024	
4796	0	32712	31271	
4797	0	32465	30671	
4798	0	32436	31758	
4799	0	32764	32217	
4800	0	32741	33093	
4801	0	32708	33586	
4802	0	32468	33561	
4803	0	32458	33893	
4804	0	32704	33930	
4805	0	32771	33757	
4806	0	32256	33829	
4807	0	32284	33656	
4808	0	32388	33844	
4809	0	32268	33976	
4810	0	32432	33828	
4811	0	32704	32448	
4812	0	33256	31819	
4813	0	33817	31038	
4814	0	33906	31056	
4815	0	33896	31421	
4816	0	33588	31987	
4817	0	33440	33134	
4818	0	33082	33389	
4819	0	33008	32967	
4820	0	32912	32968	
4821	0	32276	33181	
4822	0	32352	33660	
4823	0	32560	33739	
4824	0	32196	33916	
4825	0	32112	33866	
4826	0	32336	33869	
4827	0	32424	33556	
4828	0	32876	32129	
4829	0	33376	31126	
4830	0	33138	30556	
4831	0	33053	31111	
4832	0	32588	31570	
4833	0	32090	32614	
4834	0	31708	33334	
4835	0	32008	33501	
4836	0	32626	32706	
4837	0	32346	32275	
4838	0	32102	32610	
4839	0	32040	32399	
4840	0	33136	32101	
4841	0	33104	32410	
4842	0	33320	32431	
4843	0	33220	32564	
4844	0	33896	33608	
4845	0	34400	33909	
4846	0	33494	33775	
4847	0	33270	33591	
4848	0	33224	33738	
4849	0	33058	33287	
4850	0	33536	33040	
4851	0	33286	32736	
4852	0	32544	32907	
4853	0	32837	32748	
4854	0	33088	32671	
4855	0	33408	32174	
4856	0	32932	32579	
4857	0	32576	33622	
4858	0	32690	33852	
4859	0	32696	33996	
4860	0	32854	33359	
4861	0	32646	32676	
4862	0	32586	32464	
4863	0	32472	32166	
4864	0	32340	32894	
4865	0	32304	32938	
4866	0	32185	32652	
4867	0	32374	32592	
4868	0	32227	32149	
4869	0	32588	31834	
4870	0	32826	32082	
4871	0	32896	32325	
4872	0	33018	32862	
4873	0	33186	32512	
4874	0	32997	32308	
4875	0	32612	32197	
4876	0	32432	32448	
4877	0	32192	32802	
4878	0	32157	33022	
4879	0	31648	33258	
4880	0	31644	33524	
4881	0	30940	33910	
4882	0	30969	33711	
4883	0	31594	32910	
4884	0	32571	32166	
4885	0	33570	31321	
4886	0	34488	32387	
4887	0	34864	33059	
4888	0	35906	32789	
4889	0	35858	31872	
4890	0	35076	32028	
4891	0	34102	33488	
4892	0	33312	33992	
4893	0	32817	33490	
4894	0	32696	32631	
4895	0	32506	33494	
4896	0	32068	33534	
4897	0	31736	32982	
4898	0	31583	33124	
4899	0	31684	31868	
4900	0	31712	31608	
4901	0	31976	32785	
4902	0	32171	32624	
4903	0	32396	33098	
4904	0	32720	33026	
4905	0	32961	32303	
4906	0	32237	32718	
4907	0	32086	32797	
4908	0	31604	33241	
4909	0	31772	33158	
4910	0	32260	33171	
4911	0	31348	33287	
4912	0	32089	32649	
4913	0	32706	31696	
4914	0	33227	30716	
4915	0	34838	30791	
4916	0	35250	31853	
4917	0	34042	32467	
4918	0	33888	34636	
4919	0	34784	35960	
4920	0	35800	34903	
4921	0	34921	35150	
4922	0	34160	33526	
4923	0	33828	33176	
4924	0	32747	33160	
4925	0	32560	32377	
4926	0	32426	31986	
4927	0	32092	31452	
4928	0	31798	31800	
4929	0	31654	32052	
4930	0	31774	32168	
4931	0	31793	32527	
4932	0	32024	33160	
4933	0	32464	33382	
4934	0	32412	33899	
4935	0	32262	33719	
4936	0	32208	33303	
4937	0	32112	32096	
4938	0	32505	30628	
4939	0	32620	29516	
4940	0	32740	29590	
4941	0	32832	30952	
4942	0	32737	32679	
4943	0	32496	33907	
4944	0	32544	33749	
4945	0	32344	34984	
4946	0	31908	35007	
4947	0	31440	33887	
4948	0	31688	32710	
4949	0	31840	31963	
4950	0	32444	31852	
4951	0	33752	34056	
4952	0	34643	34788	
4953	0	34540	34009	
4954	0	34033	33464	
4955	0	33776	32711	
4956	0	34024	33094	
4957	0	33792	33186	
4958	0	32706	32556	
4959	0	32072	31359	
4960	0	31544	30936	
4961	0	32072	30808	
4962	0	33336	31700	
4963	0	33816	32641	
4964	0	33952	33885	
4965	0	33798	34488	
4966	0	32880	34454	
4967	0	32264	33326	
4968	0	32003	33059	
4969	0	31964	33177	
4970	0	32454	32871	
4971	0	32732	32610	
4972	0	33135	32292	
4973	0	33376	32372	
4974	0	33042	31935	
4975	0	32736	32071	
4976	0	32450	31507	
4977	0	32455	31711	
4978	0	32298	32622	
4979	0	32427	32703	
4980	0	32485	32690	
4981	0	32596	32747	
4982	0	32714	32888	
4983	0	32952	33468	
4984	0	33160	33356	
4985	0	32898	33432	
4986	0	32186	33535	
4987	0	31916	33229	
4988	0	32320	32933	
4989	0	32680	33348	
4990	0	32889	33785	
4991	0	33221	34423	
4992	0	33576	34474	
4993	0	33672	34727	
4994	0	33317	33164	
4995	0	33061	31128	
4996	0	33644	30439	
4997	0	33748	29509	
4998	0	33670	29916	
4999	0	33282	31395	
5000	0	32786	32156	
5001	0	32084	32296	
5002	0	31136	32937	
5003	0	30478	33857	
5004	0	30354	34338	
5005	0	31170	33918	
5006	0	31676	33156	
5007	0	32840	32802	
5008	0	33736	33119	
5009	0	34546	33584	
5010	0	34684	34556	
5011	0	34220	34111	
5012	0	33540	33032	
5013	0	32436	32397	
5014	0	33103	32111	
5015	0	32992	32340	
5016	0	32457	32529	
5017	0	32714	32874	
5018	0	33138	32402	
5019	0	33232	33652	
5020	0	33060	33648	
5021	0	32840	32999	
5022	0	33081	33130	
5023	0	32960	34674	
5024	0	32468	34588	
5025	0	32046	33466	
5026	0	32216	32594	
5027	0	32080	30588	
5028	0	32420	30280	
5029	0	32990	30007	
5030	0	32948	31056	
5031	0	33230	31528	
5032	0	32988	31936	
5033	0	32988	32653	
5034	0	32891	33625	
5035	0	33004	33842	
5036	0	33224	33952	
5037	0	32769	33515	
5038	0	32228	33124	
5039	0	31991	33052	
5040	0	31986	33159	
5041	0	32180	32904	
5042	0	32210	32857	
5043	0	32508	32859	
5044	0	32624	32794	
5045	0	32888	32486	
5046	0	33140	33476	
5047	0	33325	33664	
5048	0	33504	33638	
5049	0	33748	33388	
5050	0	33650	32739	
5051	0	33234	32063	
5052	0	32926	31827	
5053	0	32774	32093	
5054	0	32860	31645	
5055	0	32958	31751	
5056	0	32896	32132	
5057	0	32896	32403	
5058	0	32886	32488	
5059	0	32988	32391	
5060	0	32698	32390	
5061	0	32584	32835	
5062	0	32297	32973	
5063	0	32364	33469	
5064	0	32440	33616	
5065	0	32524	33734	
5066	0	32592	34172	
5067	0	32617	34607	
5068	0	32612	34183	
5069	0	32800	33332	
5070	0	33158	32542	
5071	0	33332	31485	
5072	0	33212	31444	
5073	0	33090	31792	
5074	0	32926	32594	
5075	0	32785	32601	
5076	0	32886	32343	
5077	0	33058	32617	
5078	0	32710	33583	
5079	0	32418	33768	
5080	0	32240	34042	
5081	0	31984	34100	
5082	0	32029	33298	
5083	0	32633	32742	
5084	0	32944	32259	
5085	0	33192	31636	
5086	0	33200	31764	
5087	0	33424	32519	
5088	0	33320	33557	
5089	0	33092	33694	
5090	0	32892	33656	
5091	0	32674	32543	
5092	0	32414	31864	
5093	0	32416	32232	
5094	0	32338	32292	
5095	0	32484	32389	
5096	0	32472	32636	
5097	0	32665	32916	
5098	0	32720	33874	
5099	0	32741	33949	
5100	0	32628	32487	
5101	0	33050	32148	
5102	0	33590	32937	
5103	0	33348	32902	
5104	0	33394	31768	
5105	0	33256	31930	
5106	0	33217	32307	
5107	0	33136	32637	
5108	0	32838	32543	
5109	0	32468	32949	
5110	0	32398	33372	
5111	0	32201	33181	
5112	0	32168	32996	
5113	0	32172	32747	
5114	0	32560	32102	
5115	0	32690	32222	
5116	0	32794	32239	
5117	0	32928	32914	
5118	0	32921	33119	
5119	0	32976	32555	
5120	0	32756	33025	
5121	0	32865	33212	
5122	0	32912	33602	
5123	0	32880	33476	
5124	0	32994	33081	
5125	0	32936	33175	
5126	0	32710	32870	
5127	0	32676	32730	
5128	0	32760	32620	
5129	0	32856	32347	
5130	0	32796	32220	
5131	0	32896	32166	
5132	0	32760	32239	
5133	0	32756	32812	
5134	0	32952	33391	
5135	0	33051	33594	
5136	0	32982	34009	
5137	0	33159	34064	
5138	0	33044	33414	
5139	0	32848	32674	
5140	0	32630	32731	
5141	0	32589	32263	
5142	0	32744	32050	
5143	0	32832	32284	
5144	0	32650	32328	
5145	0	32741	32370	
5146	0	32546	32197	
5147	0	32720	32827	
5148	0	32757	32690	
5149	0	32658	32896	
5150	0	32717	33165	
5151	0	32866	33619	
5152	0	32740	33273	
5153	0	32932	32978	
5154	0	33086	32775	
5155	0	33109	32609	
5156	0	33109	32199	
5157	0	33012	32149	
5158	0	32884	32378	
5159	0	32836	32548	
5160	0	32821	33096	
5161	0	32722	33520	
5162	0	32792	33150	
5163	0	32588	33425	
5164	0	32446	33821	
5165	0	32436	33691	
5166	0	32532	32698	
5167	0	32682	32843	
5168	0	32838	32172	
5169	0	33124	32157	
5170	0	32948	32935	
5171	0	32493	33814	
5172	0	32452	33287	
5173	0	32836	32549	
5174	0	32749	31710	
5175	0	32710	31495	
5176	0	32748	31385	
5177	0	32792	31500	
5178	0	32875	32177	
5179	0	32840	32915	
5180	0	33040	33287	
5181	0	33188	33511	
5182	0	33211	33298	
5183	0	33040	33101	
5184	0	32996	32208	
5185	0	32936	32558	
5186	0	33211	33129	
5187	0	33176	33359	
5188	0	33224	33041	
5189	0	33010	32992	
5190	0	32862	33638	
5191	0	32708	33686	
5192	0	32650	33650	
5193	0	32253	33526	
5194	0	32304	32870	
5195	0	32486	32018	
5196	0	32648	32191	
5197	0	32660	32630	
5198	0	32768	32683	
5199	0	32808	32355	
5200	0	32897	32102	
5201	0	32942	31867	
5202	0	32674	31686	
5203	0	32564	32455	
5204	0	32617	33365	
5205	0	32592	33418	
5206	0	32648	33815	
5207	0	32737	33726	
5208	0	32812	33156	
5209	0	32952	32935	
5210	0	33116	32498	
5211	0	32998	32485	
5212	0	32933	32232	
5213	0	32880	31818	
5214	0	32628	32142	
5215	0	32684	32850	
5216	0	32814	33132	
5217	0	32716	33468	
5218	0	32812	33543	
5219	0	32896	33136	
5220	0	32926	32775	
5221	0	32895	32784	
5222	0	32984	32438	
5223	0	33014	32242	
5224	0	32868	32676	
5225	0	32939	32623	
5226	0	32897	32556	
5227	0	32824	32430	
5228	0	32796	32338	
5229	0	32812	32372	
5230	0	32894	32814	
5231	0	32866	33198	
5232	0	32801	33314	
5233	0	32760	33305	
5234	0	32768	32935	
5235	0	32720	32937	
5236	0	32676	32869	
5237	0	32676	32853	
5238	0	32560	33174	
5239	0	32479	33597	
5240	0	32472	33340	
5241	0	32588	33140	
5242	0	32608	32976	
5243	0	32608	33023	
5244	0	32480	33154	
5245	0	32392	32966	
5246	0	32488	33102	
5247	0	32648	32865	
5248	0	32992	32612	
5249	0	33222	32171	
5250	0	33337	31925	
5251	0	33440	32519	
5252	0	33332	32752	
5253	0	33048	32792	
5254	0	33104	32866	
5255	0	32904	33220	
5256	0	32843	33215	
5257	0	32784	33390	
5258	0	32848	33218	
5259	0	33364	33046	
5260	0	33287	31995	
5261	0	32960	31552	
5262	0	32788	31900	
5263	0	32742	32000	
5264	0	32594	32848	
5265	0	32208	33574	
5266	0	31988	33148	
5267	0	32037	32620	
5268	0	32078	32050	
5269	0	32210	32174	
5270	0	32121	32956	
5271	0	32312	33415	
5272	0	32146	33797	
5273	0	32941	33637	
5274	0	33136	32553	
5275	0	33290	32381	
5276	0	33018	32928	
5277	0	33046	32828	
5278	0	33380	32338	
5279	0	33400	32399	
5280	0	33358	32610	
5281	0	33220	32824	
5282	0	33508	32596	
5283	0	33746	32588	
5284	0	33660	32790	
5285	0	33501	33092	
5286	0	33084	32928	
5287	0	32818	33505	
5288	0	32640	33329	
5289	0	32648	33249	
5290	0	32518	33558	
5291	0	32436	33358	
5292	0	32448	33375	
5293	0	32505	33136	
5294	0	32540	32568	
5295	0	32572	32564	
5296	0	32568	32476	
5297	0	32514	32025	
5298	0	32630	32038	
5299	0	32809	32077	
5300	0	32658	32227	
5301	0	32898	32292	
5302	0	32860	32638	
5303	0	32884	33175	
5304	0	32864	32967	
5305	0	32769	32484	
5306	0	32688	32792	
5307	0	32680	32882	
5308	0	32674	32884	
5309	0	32656	33645	
5310	0	32618	33253	
5311	0	32586	32562	
5312	0	32664	31963	
5313	0	32729	31618	
5314	0	32896	32091	
5315	0	33096	33039	
5316	0	33000	33444	
5317	0	33028	33472	
5318	0	32868	34117	
5319	0	32709	34290	
5320	0	32666	33578	
5321	0	32600	32738	
5322	0	32702	32157	
5323	0	32898	31255	
5324	0	32927	31651	
5325	0	32884	32109	
5326	0	32846	32614	
5327	0	32812	32890	
5328	0	32790	33228	
5329	0	32855	33428	
5330	0	32868	33292	
5331	0	33061	32636	
5332	0	33150	32659	
5333	0	33090	32909	
5334	0	32872	33052	
5335	0	32684	32821	
5336	0	32576	32658	
5337	0	32432	32874	
5338	0	32428	32804	
5339	0	32494	32914	
5340	0	32739	32817	
5341	0	32826	32902	
5342	0	32938	32797	
5343	0	32817	32804	
5344	0	32821	32446	
5345	0	32921	32818	
5346	0	32900	32941	
5347	0	32777	33164	
5348	0	32676	33272	
5349	0	32794	33243	
5350	0	33027	32934	
5351	0	33160	32602	
5352	0	33010	32508	
5353	0	33040	32423	
5354	0	32940	33058	
5355	0	32826	32937	
5356	0	32653	32698	
5357	0	32570	32676	
5358	0	32578	33167	
5359	0	32568	33081	
5360	0	32532	32313	
5361	0	32690	31986	
5362	0	32744	31190	
5363	0	32752	31362	
5364	0	32696	32007	
5365	0	32568	32999	
5366	0	32544	34043	
5367	0	32562	34310	
5368	0	32772	33767	
5369	0	32942	33520	
5370	0	33026	33251	
5371	0	33122	33033	
5372	0	33100	32970	
5373	0	33248	33038	
5374	0	32942	32440	
5375	0	32879	32034	
5376	0	32993	31665	
5377	0	32972	31699	
5378	0	32880	32888	
5379	0	32908	33484	
5380	0	32880	33563	
5381	0	32836	33945	
5382	0	32882	33004	
5383	0	32748	33094	
5384	0	32722	32488	
5385	0	32628	32572	
5386	0	32677	33018	
5387	0	32666	32370	
5388	0	32612	32192	
5389	0	32713	32148	
5390	0	32710	31183	
5391	0	32694	32325	
5392	0	32812	32889	
5393	0	32801	33728	
5394	0	32729	34144	
5395	0	32760	33868	
5396	0	32833	33625	
5397	0	32904	33166	
5398	0	32882	32978	
5399	0	32861	31700	
5400	0	32832	31372	
5401	0	32762	32026	
5402	0	32752	32600	
5403	0	32825	33382	
5404	0	32832	33449	
5405	0	32784	32836	
5406	0	32874	31951	
5407	0	32818	32418	
5408	0	33014	32675	
5409	0	33144	33496	
5410	0	33234	34213	
5411	0	33220	33918	
5412	0	32988	33823	
5413	0	32886	33383	
5414	0	32570	32602	
5415	0	32332	32511	
5416	0	32108	31972	
5417	0	32104	31887	
5418	0	32384	32532	
5419	0	32536	32751	
5420	0	32856	33214	
5421	0	32978	33246	
5422	0	32984	32402	
5423	0	32981	31432	
5424	0	32960	31951	
5425	0	32982	32060	
5426	0	32956	32172	
5427	0	33058	32921	
5428	0	33188	33609	
5429	0	33090	32976	
5430	0	32746	32840	
5431	0	32502	32101	
5432	0	32482	31945	
5433	0	32393	33567	
5434	0	32320	34478	
5435	0	32314	34038	
5436	0	32530	32802	
5437	0	32677	31880	
5438	0	32904	32544	
5439	0	33044	33203	
5440	0	33072	33001	
5441	0	32888	33127	
5442	0	32728	33268	
5443	0	32529	33127	
5444	0	32440	33200	
5445	0	31964	33230	
5446	0	32435	32348	
5447	0	32912	33024	
5448	0	33500	33061	
5449	0	33736	32460	
5450	0	33736	31832	
5451	0	33736	31206	
5452	0	33464	31074	
5453	0	33084	32786	
5454	0	32808	34011	
5455	0	32580	33464	
5456	0	32652	33044	
5457	0	32656	33210	
5458	0	32800	33196	
5459	0	32774	33554	
5460	0	32825	33062	
5461	0	32724	32646	
5462	0	32732	32712	
5463	0	32772	32393	
5464	0	32805	33202	
5465	0	33080	32375	
5466	0	33124	32720	
5467	0	33156	32800	
5468	0	32840	33277	
5469	0	32850	32912	
5470	0	32712	32587	
5471	0	32308	32125	
5472	0	32130	31551	
5473	0	31924	32505	
5474	0	31840	32284	
5475	0	32284	32503	
5476	0	32626	33021	
5477	0	32764	33576	
5478	0	32700	34452	
5479	0	32884	34719	
5480	0	33040	34247	
5481	0	33140	32263	
5482	0	33098	31517	
5483	0	32981	31936	
5484	0	32977	32085	
5485	0	33026	32248	
5486	0	32921	31423	
5487	0	32810	32222	
5488	0	32941	32662	
5489	0	32928	34089	
5490	0	32821	33816	
5491	0	32724	34112	
5492	0	32736	33016	
5493	0	32760	32383	
5494	0	32884	32755	
5495	0	32756	33455	
5496	0	32656	32095	
5497	0	32672	31766	
5498	0	32696	31614	
5499	0	32729	30945	
5500	0	32668	32320	
5501	0	32758	34124	
5502	0	32904	33603	
5503	0	33000	33883	
5504	0	32982	33799	
5505	0	33133	34156	
5506	0	33135	34175	
5507	0	33242	32663	
5508	0	33145	32576	
5509	0	32792	32122	
5510	0	32564	32148	
5511	0	32433	31431	
5512	0	32328	31553	
5513	0	32552	32412	
5514	0	32696	33242	
5515	0	32820	34738	
5516	0	32824	34390	
5517	0	32898	33085	
5518	0	33196	32941	
5519	0	33284	32891	
5520	0	33156	32818	
5521	0	32856	33006	
5522	0	32505	33106	
5523	0	32186	32161	
5524	0	32169	32342	
5525	0	32244	31602	
5526	0	32305	31129	
5527	0	32408	31785	
5528	0	32528	32454	
5529	0	32809	33222	
5530	0	33120	33901	
5531	0	33218	32825	
5532	0	33084	31964	
5533	0	33076	31481	
5534	0	32908	32388	
5535	0	32862	34079	
5536	0	32856	34038	
5537	0	32888	33221	
5538	0	32900	32154	
5539	0	32936	32130	
5540	0	32824	33098	
5541	0	32768	33133	
5542	0	32788	33518	
5543	0	32832	34408	
5544	0	32896	35001	
5545	0	32732	33789	
5546	0	32760	32528	
5547	0	32848	32133	
5548	0	32771	32183	
5549	0	32776	31990	
5550	0	32867	32324	
5551	0	32772	32253	
5552	0	32896	32761	
5553	0	32928	32842	
5554	0	32932	32696	
5555	0	32918	32786	
5556	0	32936	32478	
5557	0	32848	32125	
5558	0	32796	33037	
5559	0	32676	34308	
5560	0	32630	33464	
5561	0	32742	32028	
5562	0	32779	31787	
5563	0	32770	31859	
5564	0	32672	31965	
5565	0	32844	31717	
5566	0	32809	32437	
5567	0	33010	33076	
5568	0	32761	32261	
5569	0	32928	32997	
5570	0	32837	35012	
5571	0	32856	34872	
5572	0	32804	33512	
5573	0	32756	32513	
5574	0	32680	32492	
5575	0	32614	33198	
5576	0	32694	33154	
5577	0	32769	32610	
5578	0	32873	32830	
5579	0	32976	32978	
5580	0	32992	32654	
5581	0	33142	32505	
5582	0	33188	32314	
5583	0	33164	32775	
5584	0	32968	33423	
5585	0	32620	32494	
5586	0	32383	32180	
5587	0	32250	32196	
5588	0	32306	32960	
5589	0	32364	33006	
5590	0	32763	31869	
5591	0	32862	33012	
5592	0	32992	32775	
5593	0	33196	32156	
5594	0	33238	31544	
5595	0	33102	30251	
5596	0	32912	32407	
5597	0	32836	35351	
5598	0	32750	35745	
5599	0	32677	34686	
5600	0	32552	33161	
5601	0	32549	32774	
5602	0	32770	32809	
5603	0	32684	32948	
5604	0	32690	33026	
5605	0	32756	33272	
5606	0	32737	33379	
5607	0	32796	33460	
5608	0	32920	32828	
5609	0	32871	32064	
5610	0	32896	30820	
5611	0	33108	30708	
5612	0	33197	31174	
5613	0	32890	31651	
5614	0	32916	32584	
5615	0	32761	33872	
5616	0	32277	34311	
5617	0	32376	33615	
5618	0	32496	32826	
5619	0	32477	32946	
5620	0	32912	32993	
5621	0	33048	32352	
5622	0	33236	33330	
5623	0	33556	33347	
5624	0	33292	32799	
5625	0	32781	31335	
5626	0	32476	30902	
5627	0	32562	32998	
5628	0	32456	34528	
5629	0	32674	34224	
5630	0	32771	33149	
5631	0	32956	33156	
5632	0	33308	33799	
5633	0	33510	33200	
5634	0	33225	32328	
5635	0	33028	31964	
5636	0	32544	32102	
5637	0	32188	32412	
5638	0	32016	33551	
5639	0	31894	33462	
5640	0	32092	33174	
5641	0	32320	32719	
5642	0	32599	32153	
5643	0	32728	32443	
5644	0	32919	32574	
5645	0	33098	32390	
5646	0	33140	32114	
5647	0	33278	33448	
5648	0	33440	33287	
5649	0	33253	32360	
5650	0	33048	31888	
5651	0	32902	33202	
5652	0	32828	33848	
5653	0	32712	33356	
5654	0	32608	32355	
5655	0	32656	32415	
5656	0	32630	32924	
5657	0	32796	32837	
5658	0	32768	33141	
5659	0	32774	32057	
5660	0	32716	31396	
5661	0	32873	32469	
5662	0	32932	32100	
5663	0	32794	33069	
5664	0	32832	32841	
5665	0	32892	32451	
5666	0	32872	33444	
5667	0	32800	33896	
5668	0	32800	34448	
5669	0	32779	32784	
5670	0	32944	33029	
5671	0	32920	32880	
5672	0	32968	33025	
5673	0	32864	32761	
5674	0	32884	32857	
5675	0	32740	33370	
5676	0	32704	32879	
5677	0	32742	32769	
5678	0	32816	31864	
5679	0	32723	31785	
5680	0	32708	32585	
5681	0	32872	32392	
5682	0	32848	33773	
5683	0	32860	33616	
5684	0	32896	33983	
5685	0	32882	33312	
5686	0	32832	32505	
5687	0	32811	31900	
5688	0	32776	32364	
5689	0	32842	32409	
5690	0	32728	32228	
5691	0	32954	32435	
5692	0	32964	33010	
5693	0	32952	31428	
5694	0	32974	30434	
5695	0	32838	32402	
5696	0	32781	33200	
5697	0	32724	33367	
5698	0	32672	33878	
5699	0	32546	34537	
5700	0	32476	33799	
5701	0	32537	32914	
5702	0	32594	32903	
5703	0	32538	32999	
5704	0	32553	32692	
5705	0	32628	32910	
5706	0	32688	33452	
5707	0	32898	33044	
5708	0	33024	32092	
5709	0	33364	32336	
5710	0	33268	31551	
5711	0	33282	32211	
5712	0	33050	32994	
5713	0	32773	34528	
5714	0	32472	34350	
5715	0	32312	33907	
5716	0	32440	33462	
5717	0	32628	33246	
5718	0	32732	32482	
5719	0	32896	31956	
5720	0	33032	32012	
5721	0	33056	31385	
5722	0	32908	31527	
5723	0	32928	31171	
5724	0	32930	32115	
5725	0	32834	33750	
5726	0	32824	34433	
5727	0	32802	33287	
5728	0	32698	33092	
5729	0	32700	32974	
5730	0	32704	33101	
5731	0	32796	33253	
5732	0	32804	32286	
5733	0	32797	32061	
5734	0	32828	31976	
5735	0	32890	32981	
5736	0	32848	32588	
5737	0	32968	32962	
5738	0	32788	33238	
5739	0	32804	33188	
5740	0	32958	32700	
5741	0	33175	32352	
5742	0	33138	33004	
5743	0	33269	33351	
5744	0	32878	32787	
5745	0	32472	33391	
5746	0	32336	32723	
5747	0	32785	33005	
5748	0	32850	33224	
5749	0	32784	32728	
5750	0	32716	32592	
5751	0	32402	32519	
5752	0	32178	32948	
5753	0	32056	32658	
5754	0	32272	32941	
5755	0	32637	33304	
5756	0	33004	33135	
5757	0	33052	32896	
5758	0	32972	32508	
5759	0	32930	32775	
5760	0	32964	32456	
5761	0	32970	32514	
5762	0	33007	33039	
5763	0	33200	32570	
5764	0	33108	32122	
5765	0	32908	32500	
5766	0	32902	32448	
5767	0	32828	31730	
5768	0	32736	32432	
5769	0	32682	33367	
5770	0	32706	33568	
5771	0	32744	33346	
5772	0	32717	32721	
5773	0	32856	32787	
5774	0	32770	32720	
5775	0	32810	31658	
5776	0	32674	32030	
5777	0	32842	33140	
5778	0	32798	33287	
5779	0	32802	34087	
5780	0	32876	34254	
5781	0	32884	33538	
5782	0	32875	32518	
5783	0	32780	32435	
5784	0	32744	33114	
5785	0	32816	33765	
5786	0	32816	32661	
5787	0	32765	32148	
5788	0	32816	32622	
5789	0	32852	33018	
5790	0	32792	33254	
5791	0	32769	32642	
5792	0	32730	32562	
5793	0	32704	32495	
5794	0	32680	31883	
5795	0	32780	31266	
5796	0	32804	31003	
5797	0	32820	32073	
5798	0	32924	33816	
5799	0	32852	33954	
5800	0	32804	33968	
5801	0	32744	33576	
5802	0	32860	33344	
5803	0	32706	33639	
5804	0	32682	33220	
5805	0	32836	33235	
5806	0	32800	32876	
5807	0	32953	32646	
5808	0	32846	32260	
5809	0	32796	32008	
5810	0	32776	32050	
5811	0	32647	32156	
5812	0	32717	32535	
5813	0	32786	33239	
5814	0	32849	33094	
5815	0	32839	32958	
5816	0	32875	32799	
5817	0	32947	32931	
5818	0	32856	33014	
5819	0	32804	32720	
5820	0	32860	32485	
5821	0	32752	32544	
5822	0	32772	33061	
5823	0	32768	32842	
5824	0	32696	32798	
5825	0	32788	31200	
5826	0	32780	30618	
5827	0	32706	31193	
5828	0	32680	32895	
5829	0	32876	33646	
5830	0	32904	33927	
5831	0	32886	34618	
5832	0	32916	35254	
5833	0	32976	34476	
5834	0	33028	33415	
5835	0	33184	33629	
5836	0	33055	32775	
5837	0	32829	32263	
5838	0	32594	32125	
5839	0	32394	32642	
5840	0	32324	32558	
5841	0	32473	32514	
5842	0	32609	31799	
5843	0	32581	31651	
5844	0	32775	32313	
5845	0	32826	32356	
5846	0	32870	33216	
5847	0	32879	33424	
5848	0	32876	32687	
5849	0	32888	32909	
5850	0	32902	33254	
5851	0	32880	33048	
5852	0	32812	32290	
5853	0	32792	32356	
5854	0	32932	32578	
5855	0	32828	32694	
5856	0	32796	32764	
5857	0	32872	32585	
5858	0	32869	33346	
5859	0	32708	33349	
5860	0	32723	33015	
5861	0	32816	32738	
5862	0	32934	32663	
5863	0	32966	32579	
5864	0	32875	32375	
5865	0	32782	33065	
5866	0	32796	33657	
5867	0	32756	33602	
5868	0	32819	32922	
5869	0	32940	32620	
5870	0	32852	32338	
5871	0	32785	32702	
5872	0	32724	32818	
5873	0	32712	32458	
5874	0	32758	32018	
5875	0	32751	31875	
5876	0	32774	32144	
5877	0	32772	32799	
5878	0	32624	33368	
5879	0	32570	34187	
5880	0	32736	33479	
5881	0	32876	32617	
5882	0	32988	32873	
5883	0	33108	32832	
5884	0	33060	33219	
5885	0	32994	32782	
5886	0	32912	32731	
5887	0	32878	32207	
5888	0	32660	32974	
5889	0	32676	31986	
5890	0	32685	31645	
5891	0	32854	32322	
5892	0	32850	32864	
5893	0	32868	33818	
5894	0	32896	33945	
5895	0	32914	33818	
5896	0	32864	33159	
5897	0	32638	32891	
5898	0	32662	32733	
5899	0	32794	32729	
5900	0	32692	32630	
5901	0	32608	32775	
5902	0	32640	32738	
5903	0	32762	32605	
5904	0	32760	32811	
5905	0	32944	32634	
5906	0	32844	32278	
5907	0	32900	32148	
5908	0	32960	32987	
5909	0	32924	32128	
5910	0	32848	32082	
5911	0	32848	32922	
5912	0	32700	33588	
5913	0	32829	33451	
5914	0	32738	33607	
5915	0	32732	33250	
5916	0	32890	32916	
5917	0	32636	32981	
5918	0	32706	32976	
5919	0	32774	32748	
5920	0	32776	32809	
5921	0	32924	32615	
5922	0	32912	32485	
5923	0	32965	32896	
5924	0	32928	33070	
5925	0	32832	32491	
5926	0	32832	32368	
5927	0	32677	32038	
5928	0	32632	32146	
5929	0	32568	32657	
5930	0	32696	33138	
5931	0	32918	33138	
5932	0	32960	33484	
5933	0	33040	33159	
5934	0	32954	32801	
5935	0	32914	32053	
5936	0	32936	32050	
5937	0	32866	32114	
5938	0	32908	32549	
5939	0	32704	32848	
5940	0	32710	33277	
5941	0	32740	33671	
5942	0	32706	33980	
5943	0	32662	33881	
5944	0	32720	33518	
5945	0	32748	33201	
5946	0	32786	32577	
5947	0	32748	32508	
5948	0	32724	31974	
5949	0	32798	32200	
5950	0	32778	31832	
5951	0	32760	32330	
5952	0	32828	33017	
5953	0	32824	33312	
5954	0	32928	33524	
5955	0	32868	33493	
5956	0	32926	32551	
5957	0	32900	32720	
5958	0	32808	32824	
5959	0	32768	32845	
5960	0	32810	32731	
5961	0	32760	32724	
5962	0	32716	32420	
5963	0	32688	32724	
5964	0	32708	33018	
5965	0	32748	32937	
5966	0	32852	32481	
5967	0	32864	32262	
5968	0	32766	32286	
5969	0	32870	32655	
5970	0	32968	32700	
5971	0	33012	32950	
5972	0	32880	32690	
5973	0	32816	32519	
5974	0	32800	33400	
5975	0	32760	33138	
5976	0	32769	33563	
5977	0	32837	33767	
5978	0	32746	33388	
5979	0	32752	32809	
5980	0	32700	32332	
5981	0	32760	32240	
5982	0	32732	32476	
5983	0	32872	32932	
5984	0	32775	33142	
5985	0	32684	32985	
5986	0	32754	32794	
5987	0	32764	32635	
5988	0	32808	32665	
5989	0	32914	32535	
5990	0	32992	32775	
5991	0	32896	33124	
5992	0	32958	33088	
5993	0	32970	32758	
5994	0	32798	32572	
5995	0	32801	32422	
5996	0	32680	32658	
5997	0	32832	32685	
5998	0	32740	32626	
5999	0	32760	33067	
6000	0	32848	32612	
6001	0	32769	32814	
6002	0	32828	32458	
6003	0	32772	32837	
6004	0	32792	33305	
6005	0	32748	33058	
6006	0	32628	32812	
6007	0	32634	32731	
6008	0	32612	32671	
6009	0	32741	32413	
6010	0	32702	33109	
6011	0	32864	33140	
6012	0	33053	33220	
6013	0	33028	33024	
6014	0	33072	32888	
6015	0	33124	32547	
6016	0	33008	32715	
6017	0	33006	32879	
6018	0	32724	32863	
6019	0	32516	32864	
6020	0	32564	32941	
6021	0	32564	32797	
6022	0	32551	32864	
6023	0	32600	32809	
6024	0	32816	32958	
6025	0	32826	32843	
6026	0	32828	32626	
