# OpenSignals Text File Format. Version 1
# {"00:07:80:8C:0A:39": {"position": 0, "device": "biosignalsplux", "device name": "00:07:80:8C:0A:39", "device connection": "BTH00:07:80:8C:0A:39", "sampling rate": 1000, "resolution": [16, 16], "firmware version": 776, "comments": "", "keywords": "", "mode": 0, "sync interval": 2, "date": "2023-3-16", "time": "13:25:31.841", "channels": [1, 2], "sensor": ["EMG", "EMG"], "label": ["CH1", "CH2"], "column": ["nSeq", "DI", "CH1", "CH2"], "special": [{"SpO2": [80, 40, 5, 4, 3, 3]}, {"SpO2": [80, 40, 5, 4, 3, 3]}, {"SpO2": [80, 40, 5, 4, 3, 3]}, {"SpO2": [80, 40, 5, 4, 3, 3]}, {"SpO2": [80, 40, 5, 4, 3, 3]}, {"SpO2": [80, 40, 5, 4, 3, 3]}, {"SpO2": [80, 40, 5, 4, 3, 3]}, {"SpO2": [80, 40, 5, 4, 3, 3]}], "digital IO": [0, 1], "sleeve color": ["gray", "yellow"], "convertedValues": 0}}
# EndOfHeader
0	0	32832	32860	
1	0	32792	32752	
2	0	32808	32826	
3	0	32752	32801	
4	0	32810	32743	
5	0	32756	32775	
6	0	32792	32860	
7	0	32794	32720	
8	0	32770	32722	
9	0	32832	32816	
10	0	32808	32689	
11	0	32756	32764	
12	0	32824	32662	
13	0	32808	32719	
14	0	32768	32724	
15	0	32858	32674	
16	0	32794	32808	
17	0	32884	32772	
18	0	32768	32638	
19	0	32808	32801	
20	0	32840	32804	
21	0	32858	32774	
22	0	32816	32860	
23	0	32848	32891	
24	0	32764	32726	
25	0	32818	32847	
26	0	32836	32805	
27	0	32800	32775	
28	0	32842	32766	
29	0	32772	32672	
30	0	32808	32775	
31	0	32788	32802	
32	0	32772	32662	
33	0	32860	32698	
34	0	32878	32694	
35	0	32836	32806	
36	0	32796	32762	
37	0	32856	32692	
38	0	32814	32818	
39	0	32736	32748	
40	0	32848	32874	
41	0	32840	32750	
42	0	32844	32846	
43	0	32876	32861	
44	0	32798	32724	
45	0	32808	32871	
46	0	32818	32895	
47	0	32820	32740	
48	0	32768	32751	
49	0	32832	32810	
50	0	32786	32652	
51	0	32805	32748	
52	0	32846	32798	
53	0	32846	32722	
54	0	32740	32882	
55	0	32824	32812	
56	0	32864	32712	
57	0	32842	32760	
58	0	32768	32760	
59	0	32786	32734	
60	0	32828	32676	
61	0	32804	32714	
62	0	32844	32708	
63	0	32852	32718	
64	0	32820	32774	
65	0	32848	32671	
66	0	32768	32755	
67	0	32768	32658	
68	0	32802	32881	
69	0	32796	32839	
70	0	32820	32731	
71	0	32774	32783	
72	0	32868	32822	
73	0	32864	32692	
74	0	32810	32732	
75	0	32852	32682	
76	0	32784	32674	
77	0	32846	32708	
78	0	32776	32752	
79	0	32820	32850	
80	0	32826	32872	
81	0	32788	32740	
82	0	32784	32822	
83	0	32804	32835	
84	0	32736	32868	
85	0	32804	32846	
86	0	32808	32761	
87	0	32820	32808	
88	0	32852	32660	
89	0	32852	32774	
90	0	32818	32792	
91	0	32889	32644	
92	0	32800	32818	
93	0	32798	32820	
94	0	32820	32700	
95	0	32802	32806	
96	0	32788	32882	
97	0	32824	32620	
98	0	32792	32740	
99	0	32816	32807	
100	0	32860	32799	
101	0	32840	32742	
102	0	32760	32670	
103	0	32760	32742	
104	0	32802	32702	
105	0	32768	32716	
106	0	32788	32768	
107	0	32700	32824	
108	0	32828	32812	
109	0	32740	32766	
110	0	32800	32768	
111	0	32774	32724	
112	0	32750	32762	
113	0	32844	32750	
114	0	32865	32836	
115	0	32784	32808	
116	0	32782	32830	
117	0	32828	32775	
118	0	32896	32647	
119	0	32816	32814	
120	0	32804	32668	
121	0	32778	32795	
122	0	32782	32854	
123	0	32814	32818	
124	0	32856	32788	
125	0	32760	32748	
126	0	32870	32766	
127	0	32828	32808	
128	0	32776	32732	
129	0	32744	32769	
130	0	32836	32692	
131	0	32876	32784	
132	0	32792	32762	
133	0	32842	32830	
134	0	32724	32796	
135	0	32774	32702	
136	0	32804	32820	
137	0	32796	32794	
138	0	32824	32789	
139	0	32810	32736	
140	0	32796	32654	
141	0	32788	32788	
142	0	32828	32772	
143	0	32826	32880	
144	0	32822	32840	
145	0	32852	32854	
146	0	32856	32825	
147	0	32794	32735	
148	0	32822	32831	
149	0	32804	32686	
150	0	32768	32743	
151	0	32762	32748	
152	0	32748	32718	
153	0	32802	32775	
154	0	32840	32701	
155	0	32792	32746	
156	0	32785	32798	
157	0	32876	32796	
158	0	32790	32809	
159	0	32880	32758	
160	0	32876	32842	
161	0	32804	32692	
162	0	32815	32854	
163	0	32780	32684	
164	0	32804	32855	
165	0	32868	32852	
166	0	32774	32718	
167	0	32788	32697	
168	0	32880	32726	
169	0	32816	32804	
170	0	32778	32762	
171	0	32770	32794	
172	0	32756	32800	
173	0	32756	32711	
174	0	32926	32726	
175	0	32816	32727	
176	0	32834	32821	
177	0	32768	32760	
178	0	32808	32684	
179	0	32808	32836	
180	0	32860	32791	
181	0	32856	32678	
182	0	32816	32774	
183	0	32776	32812	
184	0	32820	32852	
185	0	32774	32812	
186	0	32822	32696	
187	0	32810	32742	
188	0	32798	32830	
189	0	32828	32744	
190	0	32788	32775	
191	0	32776	32736	
192	0	32800	32804	
193	0	32800	32756	
194	0	32790	32675	
195	0	32868	32824	
196	0	32748	32704	
197	0	32802	32798	
198	0	32804	32818	
199	0	32900	32654	
200	0	32782	32836	
201	0	32836	32708	
202	0	32880	32822	
203	0	32832	32702	
204	0	32700	32792	
205	0	32804	32806	
206	0	32782	32720	
207	0	32812	32775	
208	0	32822	32774	
209	0	32846	32738	
210	0	32852	32824	
211	0	32776	32736	
212	0	32778	32710	
213	0	32804	32798	
214	0	32826	32770	
215	0	32840	32815	
216	0	32824	32711	
217	0	32756	32800	
218	0	32874	32768	
219	0	32792	32736	
220	0	32842	32812	
221	0	32858	32732	
222	0	32816	32720	
223	0	32884	32766	
224	0	32892	32759	
225	0	32903	32692	
226	0	32898	32578	
227	0	32878	32686	
228	0	32904	32568	
229	0	32904	32574	
230	0	32868	32590	
231	0	32852	32380	
232	0	32780	32436	
233	0	32840	32492	
234	0	32818	32513	
235	0	32820	32476	
236	0	32836	32455	
237	0	32849	32486	
238	0	32876	32452	
239	0	32832	32608	
240	0	32804	32668	
241	0	32778	32836	
242	0	32718	32860	
243	0	32768	32798	
244	0	32700	33055	
245	0	32700	33127	
246	0	32628	33287	
247	0	32578	33362	
248	0	32584	33516	
249	0	32580	33592	
250	0	32552	33632	
251	0	32616	33652	
252	0	32625	33460	
253	0	32680	33540	
254	0	32656	33308	
255	0	32701	33096	
256	0	32774	32798	
257	0	32770	32775	
258	0	32786	32612	
259	0	32848	32546	
260	0	32868	32412	
261	0	32896	32300	
262	0	32892	32386	
263	0	32832	32356	
264	0	32896	32380	
265	0	32844	32406	
266	0	32928	32391	
267	0	32954	32439	
268	0	32936	32487	
269	0	32932	32596	
270	0	32868	32460	
271	0	32834	32550	
272	0	32932	32578	
273	0	32884	32772	
274	0	32880	32702	
275	0	32840	32822	
276	0	32858	32775	
277	0	32868	32914	
278	0	32892	32822	
279	0	32936	32756	
280	0	32864	32754	
281	0	32884	32732	
282	0	32834	32824	
283	0	32916	32711	
284	0	32864	32810	
285	0	32794	32702	
286	0	32884	32732	
287	0	32744	32684	
288	0	32810	32746	
289	0	32802	32706	
290	0	32860	32826	
291	0	32772	32764	
292	0	32786	32756	
293	0	32676	32806	
294	0	32752	32768	
295	0	32824	32800	
296	0	32738	32726	
297	0	32796	32828	
298	0	32756	32757	
299	0	32768	32892	
300	0	32740	32886	
301	0	32788	32828	
302	0	32876	32784	
303	0	32804	32762	
304	0	32784	32684	
305	0	32784	32718	
306	0	32840	32696	
307	0	32816	32848	
308	0	32856	32828	
309	0	32834	32712	
310	0	32792	32775	
311	0	32762	32775	
312	0	32880	32804	
313	0	32844	32836	
314	0	32784	32743	
315	0	32788	32730	
316	0	32758	32764	
317	0	32784	32708	
318	0	32780	32766	
319	0	32760	32815	
320	0	32796	32775	
321	0	32864	32775	
322	0	32804	32704	
323	0	32814	32800	
324	0	32828	32768	
325	0	32788	32710	
326	0	32848	32722	
327	0	32808	32660	
328	0	32840	32775	
329	0	32798	32889	
330	0	32801	32686	
331	0	32812	32756	
332	0	32826	32775	
333	0	32716	32820	
334	0	32849	32736	
335	0	32808	32802	
336	0	32772	32814	
337	0	32801	32740	
338	0	32826	32881	
339	0	32812	32708	
340	0	32736	32812	
341	0	32758	32706	
342	0	32788	32814	
343	0	32848	32807	
344	0	32790	32775	
345	0	32736	32692	
346	0	32812	32746	
347	0	32820	32719	
348	0	32916	32792	
349	0	32756	32732	
350	0	32826	32768	
351	0	32821	32836	
352	0	32870	32775	
353	0	32868	32798	
354	0	32832	32726	
355	0	32836	32775	
356	0	32850	32788	
357	0	32794	32695	
358	0	32744	32830	
359	0	32764	32775	
360	0	32848	32770	
361	0	32850	32814	
362	0	32800	32884	
363	0	32868	32830	
364	0	32792	32752	
365	0	32792	32706	
366	0	32868	32785	
367	0	32808	32827	
368	0	32794	32823	
369	0	32796	32732	
370	0	32820	32716	
371	0	32800	32692	
372	0	32852	32830	
373	0	32816	32755	
374	0	32849	32852	
375	0	32844	32766	
376	0	32836	32732	
377	0	32808	32714	
378	0	32764	32704	
379	0	32786	32739	
380	0	32818	32762	
381	0	32752	32758	
382	0	32792	32796	
383	0	32856	32700	
384	0	32776	32840	
385	0	32844	32838	
386	0	32840	32716	
387	0	32848	32708	
388	0	32880	32774	
389	0	32860	32804	
390	0	32748	32806	
391	0	32824	32826	
392	0	32818	32844	
393	0	32760	32750	
394	0	32808	32766	
395	0	32784	32824	
396	0	32854	32714	
397	0	32856	32730	
398	0	32832	32710	
399	0	32800	32828	
400	0	32780	32670	
401	0	32768	32775	
402	0	32816	32807	
403	0	32720	32830	
404	0	32736	32858	
405	0	32820	32718	
406	0	32836	32828	
407	0	32784	32714	
408	0	32840	32766	
409	0	32756	32730	
410	0	32852	32758	
411	0	32824	32750	
412	0	32788	32724	
413	0	32770	32750	
414	0	32862	32719	
415	0	32838	32788	
416	0	32820	32775	
417	0	32780	32775	
418	0	32808	32740	
419	0	32780	32828	
420	0	32890	32686	
421	0	32784	32788	
422	0	32784	32814	
423	0	32888	32748	
424	0	32812	32732	
425	0	32776	32783	
426	0	32802	32886	
427	0	32832	32828	
428	0	32852	32702	
429	0	32844	32746	
430	0	32816	32775	
431	0	32734	32790	
432	0	32852	32772	
433	0	32814	32759	
434	0	32800	32812	
435	0	32834	32748	
436	0	32820	32698	
437	0	32860	32768	
438	0	32784	32749	
439	0	32796	32632	
440	0	32790	32822	
441	0	32820	32768	
442	0	32810	32754	
443	0	32812	32832	
444	0	32828	32802	
445	0	32828	32660	
446	0	32828	32852	
447	0	32808	32824	
448	0	32876	32718	
449	0	32769	32784	
450	0	32818	32794	
451	0	32820	32795	
452	0	32816	32775	
453	0	32792	32804	
454	0	32804	32788	
455	0	32820	32820	
456	0	32852	32772	
457	0	32836	32736	
458	0	32834	32740	
459	0	32772	32742	
460	0	32800	32793	
461	0	32812	32784	
462	0	32844	32862	
463	0	32864	32708	
464	0	32780	32850	
465	0	32792	32702	
466	0	32798	32796	
467	0	32804	32856	
468	0	32832	32647	
469	0	32772	32806	
470	0	32772	32834	
471	0	32806	32718	
472	0	32854	32728	
473	0	32790	32708	
474	0	32812	32666	
475	0	32860	32863	
476	0	32760	32736	
477	0	32788	32742	
478	0	32830	32828	
479	0	32800	32706	
480	0	32828	32724	
481	0	32778	32738	
482	0	32804	32766	
483	0	32852	32807	
484	0	32756	32799	
485	0	32744	32868	
486	0	32774	32799	
487	0	32824	32730	
488	0	32800	32872	
489	0	32836	32814	
490	0	32792	32652	
491	0	32766	32935	
492	0	32828	32806	
493	0	32740	32828	
494	0	32804	32656	
495	0	32794	32736	
496	0	32844	32766	
497	0	32780	32752	
498	0	32828	32775	
499	0	32864	32794	
500	0	32816	32694	
501	0	32740	32752	
502	0	32826	32784	
503	0	32790	32699	
504	0	32868	32812	
505	0	32794	32759	
506	0	32826	32714	
507	0	32807	32679	
508	0	32862	32828	
509	0	32740	32804	
510	0	32770	32835	
511	0	32840	32676	
512	0	32866	32679	
513	0	32836	32674	
514	0	32828	32772	
515	0	32846	32784	
516	0	32808	32714	
517	0	32884	32724	
518	0	32812	32775	
519	0	32816	32800	
520	0	32860	32711	
521	0	32844	32842	
522	0	32824	32775	
523	0	32869	32775	
524	0	32796	32738	
525	0	32782	32808	
526	0	32848	32774	
527	0	32900	32740	
528	0	32848	32725	
529	0	32852	32720	
530	0	32852	32796	
531	0	32792	32756	
532	0	32860	32696	
533	0	32860	32770	
534	0	32798	32719	
535	0	32820	32768	
536	0	32824	32839	
537	0	32768	32722	
538	0	32798	32828	
539	0	32788	32775	
540	0	32768	32668	
541	0	32732	32806	
542	0	32836	32714	
543	0	32852	32718	
544	0	32822	32742	
545	0	32866	32822	
546	0	32810	32772	
547	0	32800	32775	
548	0	32834	32700	
549	0	32862	32736	
550	0	32778	32796	
551	0	32856	32743	
552	0	32804	32775	
553	0	32808	32870	
554	0	32787	32692	
555	0	32856	32800	
556	0	32806	32762	
557	0	32774	32786	
558	0	32874	32848	
559	0	32798	32892	
560	0	32800	32710	
561	0	32830	32878	
562	0	32816	32820	
563	0	32724	32666	
564	0	32800	32791	
565	0	32746	32817	
566	0	32788	32744	
567	0	32814	32775	
568	0	32812	32870	
569	0	32846	32757	
570	0	32792	32830	
571	0	32816	32812	
572	0	32772	32751	
573	0	32764	32685	
574	0	32836	32740	
575	0	32804	32676	
576	0	32880	32728	
577	0	32794	32726	
578	0	32852	32639	
579	0	32822	32796	
580	0	32726	32791	
581	0	32876	32718	
582	0	32768	32724	
583	0	32784	32753	
584	0	32836	32766	
585	0	32796	32814	
586	0	32744	32762	
587	0	32816	32775	
588	0	32824	32750	
589	0	32828	32794	
590	0	32816	32826	
591	0	32834	32684	
592	0	32812	32816	
593	0	32798	32742	
594	0	32804	32812	
595	0	32832	32775	
596	0	32800	32693	
597	0	32800	32726	
598	0	32852	32769	
599	0	32802	32812	
600	0	32806	32686	
601	0	32812	32772	
602	0	32816	32721	
603	0	32774	32870	
604	0	32822	32864	
605	0	32900	32710	
606	0	32782	32775	
607	0	32776	32822	
608	0	32820	32756	
609	0	32764	32764	
610	0	32776	32672	
611	0	32744	32746	
612	0	32830	32744	
613	0	32800	32684	
614	0	32856	32882	
615	0	32868	32735	
616	0	32850	32726	
617	0	32816	32704	
618	0	32822	32791	
619	0	32806	32816	
620	0	32840	32800	
621	0	32836	32758	
622	0	32808	32770	
623	0	32798	32834	
624	0	32774	32834	
625	0	32816	32720	
626	0	32816	32862	
627	0	32824	32692	
628	0	32776	32775	
629	0	32772	32696	
630	0	32820	32775	
631	0	32770	32722	
632	0	32796	32770	
633	0	32808	32718	
634	0	32848	32742	
635	0	32840	32724	
636	0	32776	32808	
637	0	32820	32794	
638	0	32788	32719	
639	0	32844	32775	
640	0	32780	32812	
641	0	32743	32656	
642	0	32788	32759	
643	0	32832	32764	
644	0	32828	32700	
645	0	32804	32872	
646	0	32792	32725	
647	0	32784	32820	
648	0	32816	32788	
649	0	32842	32698	
650	0	32830	32784	
651	0	32770	32801	
652	0	32792	32730	
653	0	32820	32724	
654	0	32800	32820	
655	0	32782	32752	
656	0	32830	32750	
657	0	32776	32685	
658	0	32823	32732	
659	0	32780	32658	
660	0	32908	32784	
661	0	32852	32768	
662	0	32775	32752	
663	0	32820	32826	
664	0	32752	32647	
665	0	32764	32838	
666	0	32808	32852	
667	0	32872	32705	
668	0	32810	32690	
669	0	32860	32830	
670	0	32800	32718	
671	0	32862	32728	
672	0	32810	32758	
673	0	32768	32806	
674	0	32868	32724	
675	0	32816	32682	
676	0	32768	32788	
677	0	32804	32834	
678	0	32890	32678	
679	0	32862	32692	
680	0	32752	32708	
681	0	32764	32735	
682	0	32850	32760	
683	0	32768	32769	
684	0	32824	32772	
685	0	32836	32704	
686	0	32824	32808	
687	0	32864	32786	
688	0	32800	32784	
689	0	32840	32712	
690	0	32830	32774	
691	0	32746	32770	
692	0	32782	32712	
693	0	32852	32854	
694	0	32800	32838	
695	0	32758	32743	
696	0	32788	32758	
697	0	32796	32802	
698	0	32784	32740	
699	0	32812	32892	
700	0	32802	32804	
701	0	32761	32834	
702	0	32842	32704	
703	0	32856	32730	
704	0	32824	32688	
705	0	32756	32772	
706	0	32772	32721	
707	0	32775	32768	
708	0	32776	32874	
709	0	32880	32839	
710	0	32841	32775	
711	0	32808	32708	
712	0	32846	32792	
713	0	32828	32726	
714	0	32800	32808	
715	0	32784	32726	
716	0	32796	32814	
717	0	32794	32696	
718	0	32828	32735	
719	0	32860	32746	
720	0	32808	32806	
721	0	32792	32770	
722	0	32842	32652	
723	0	32826	32794	
724	0	32804	32883	
725	0	32844	32670	
726	0	32800	32814	
727	0	32810	32720	
728	0	32742	32876	
729	0	32816	32864	
730	0	32881	32852	
731	0	32816	32824	
732	0	32808	32736	
733	0	32864	32775	
734	0	32814	32830	
735	0	32816	32732	
736	0	32802	32814	
737	0	32852	32625	
738	0	32772	32726	
739	0	32794	32636	
740	0	32808	32794	
741	0	32732	32687	
742	0	32798	32775	
743	0	32804	32754	
744	0	32812	32842	
745	0	32828	32810	
746	0	32752	32588	
747	0	32804	32660	
748	0	32840	32668	
749	0	32808	32806	
750	0	32824	32744	
751	0	32828	32802	
752	0	32816	32752	
753	0	32824	32824	
754	0	32816	32807	
755	0	32808	32688	
756	0	32830	32751	
757	0	32822	32648	
758	0	32766	32839	
759	0	32817	32812	
760	0	32778	32806	
761	0	32752	32764	
762	0	32844	32824	
763	0	32832	32807	
764	0	32788	32868	
765	0	32800	32866	
766	0	32832	32718	
767	0	32848	32716	
768	0	32776	32626	
769	0	32778	32710	
770	0	32775	32778	
771	0	32740	32807	
772	0	32816	32820	
773	0	32848	32684	
774	0	32768	32744	
775	0	32808	32722	
776	0	32772	32775	
777	0	32752	32752	
778	0	32852	32838	
779	0	32764	32820	
780	0	32824	32814	
781	0	32858	32746	
782	0	32782	32711	
783	0	32774	32828	
784	0	32744	32860	
785	0	32800	32865	
786	0	32904	32879	
787	0	32864	32750	
788	0	32844	32754	
789	0	32802	32677	
790	0	32853	32764	
791	0	32824	32798	
792	0	32840	32847	
793	0	32844	32784	
794	0	32862	32786	
795	0	32868	32814	
796	0	32820	32727	
797	0	32756	32775	
798	0	32802	32736	
799	0	32812	32711	
800	0	32782	32764	
801	0	32820	32886	
802	0	32828	32794	
803	0	32820	32848	
804	0	32820	32828	
805	0	32818	32660	
806	0	32864	32838	
807	0	32792	32709	
808	0	32728	32805	
809	0	32812	32598	
810	0	32852	32798	
811	0	32804	32830	
812	0	32868	32659	
813	0	32814	32743	
814	0	32828	32758	
815	0	32836	32728	
816	0	32844	32782	
817	0	32821	32724	
818	0	32800	32806	
819	0	32832	32788	
820	0	32788	32714	
821	0	32868	32811	
822	0	32782	32735	
823	0	32824	32692	
824	0	32844	32762	
825	0	32766	32772	
826	0	32850	32740	
827	0	32816	32814	
828	0	32756	32775	
829	0	32804	32818	
830	0	32836	32770	
831	0	32790	32711	
832	0	32870	32775	
833	0	32864	32885	
834	0	32852	32730	
835	0	32830	32722	
836	0	32772	32688	
837	0	32794	32758	
838	0	32810	32740	
839	0	32836	32724	
840	0	32824	32801	
841	0	32814	32802	
842	0	32800	32680	
843	0	32816	32754	
844	0	32803	32662	
845	0	32844	32810	
846	0	32772	32716	
847	0	32784	32770	
848	0	32862	32871	
849	0	32818	32750	
850	0	32800	32794	
851	0	32846	32708	
852	0	32832	32814	
853	0	32808	32824	
854	0	32792	32828	
855	0	32800	32828	
856	0	32856	32827	
857	0	32784	32816	
858	0	32756	32818	
859	0	32756	32788	
860	0	32796	32682	
861	0	32850	32903	
862	0	32774	32710	
863	0	32868	32740	
864	0	32802	32654	
865	0	32810	32720	
866	0	32890	32768	
867	0	32812	32788	
868	0	32756	32804	
869	0	32868	32664	
870	0	32834	32736	
871	0	32865	32758	
872	0	32868	32836	
873	0	32775	32775	
874	0	32910	32820	
875	0	32842	32847	
876	0	32952	32738	
877	0	32881	32714	
878	0	32848	32588	
879	0	32880	32572	
880	0	32882	32561	
881	0	32884	32588	
882	0	32850	32551	
883	0	32868	32606	
884	0	32846	32526	
885	0	32796	32486	
886	0	32839	32498	
887	0	32832	32416	
888	0	32876	32527	
889	0	32710	32544	
890	0	32828	32618	
891	0	32844	32692	
892	0	32756	32728	
893	0	32724	32744	
894	0	32710	32703	
895	0	32700	33086	
896	0	32688	33078	
897	0	32682	33126	
898	0	32608	33380	
899	0	32604	33354	
900	0	32570	33420	
901	0	32512	33396	
902	0	32612	33454	
903	0	32616	33511	
904	0	32650	33396	
905	0	32764	33223	
906	0	32716	33191	
907	0	32830	32844	
908	0	32836	32839	
909	0	32740	32548	
910	0	32776	32590	
911	0	32856	32576	
912	0	32840	32407	
913	0	32978	32383	
914	0	32930	32348	
915	0	32952	32474	
916	0	32926	32430	
917	0	32920	32438	
918	0	32960	32496	
919	0	32892	32542	
920	0	32940	32532	
921	0	32860	32572	
922	0	32808	32500	
923	0	32888	32663	
924	0	32832	32751	
925	0	32872	32708	
926	0	32941	32748	
927	0	32888	32806	
928	0	32902	32758	
929	0	32880	32831	
930	0	32888	32672	
931	0	32826	32827	
932	0	32842	32799	
933	0	32812	32610	
934	0	32884	32824	
935	0	32856	32821	
936	0	32772	32709	
937	0	32782	32834	
938	0	32840	32747	
939	0	32796	32870	
940	0	32768	32722	
941	0	32760	32804	
942	0	32834	32868	
943	0	32746	32692	
944	0	32848	32822	
945	0	32802	32674	
946	0	32848	32768	
947	0	32828	32732	
948	0	32784	32810	
949	0	32740	32762	
950	0	32784	32702	
951	0	32812	32624	
952	0	32816	32822	
953	0	32772	32662	
954	0	32808	32862	
955	0	32856	32719	
956	0	32834	32754	
957	0	32846	32762	
958	0	32848	32764	
959	0	32824	32796	
960	0	32820	32806	
961	0	32868	32797	
962	0	32796	32646	
963	0	32772	32826	
964	0	32786	32775	
965	0	32794	32644	
966	0	32812	32775	
967	0	32888	32798	
968	0	32836	32775	
969	0	32772	32824	
970	0	32810	32652	
971	0	32812	32754	
972	0	32810	32766	
973	0	32866	32815	
974	0	32772	32781	
975	0	32756	32647	
976	0	32848	32807	
977	0	32832	32804	
978	0	32860	32719	
979	0	32834	32700	
980	0	32830	32824	
981	0	32728	32738	
982	0	32800	32756	
983	0	32832	32693	
984	0	32785	32786	
985	0	32828	32818	
986	0	32878	32647	
987	0	32808	32836	
988	0	32790	32796	
989	0	32850	32638	
990	0	32868	32742	
991	0	32786	32742	
992	0	32768	32742	
993	0	32816	32750	
994	0	32838	32775	
995	0	32828	32884	
996	0	32804	32879	
997	0	32786	32679	
998	0	32820	32718	
999	0	32804	32700	
1000	0	32840	32802	
1001	0	32832	32820	
1002	0	32764	32831	
1003	0	32800	32808	
1004	0	32814	32752	
1005	0	32766	32760	
1006	0	32828	32750	
1007	0	32838	32796	
1008	0	32788	32766	
1009	0	32818	32750	
1010	0	32798	32814	
1011	0	32840	32828	
1012	0	32800	32732	
1013	0	32736	32734	
1014	0	32844	32724	
1015	0	32828	32775	
1016	0	32828	32750	
1017	0	32889	32708	
1018	0	32792	32786	
1019	0	32826	32752	
1020	0	32848	32810	
1021	0	32864	32764	
1022	0	32784	32727	
1023	0	32800	32830	
1024	0	32860	32822	
1025	0	32816	32679	
1026	0	32812	32850	
1027	0	32824	32852	
1028	0	32788	32686	
1029	0	32850	32817	
1030	0	32844	32648	
1031	0	32780	32744	
1032	0	32814	32768	
1033	0	32864	32812	
1034	0	32798	32820	
1035	0	32836	32812	
1036	0	32752	32764	
1037	0	32772	32750	
1038	0	32758	32762	
1039	0	32876	32758	
1040	0	32800	32804	
1041	0	32796	32812	
1042	0	32828	32764	
1043	0	32816	32775	
1044	0	32852	32730	
1045	0	32818	32674	
1046	0	32912	32720	
1047	0	32828	32698	
1048	0	32832	32768	
1049	0	32804	32775	
1050	0	32756	32772	
1051	0	32802	32806	
1052	0	32760	32675	
1053	0	32800	32798	
1054	0	32808	32807	
1055	0	32836	32808	
1056	0	32790	32822	
1057	0	32828	32740	
1058	0	32818	32788	
1059	0	32792	32718	
1060	0	32832	32756	
1061	0	32872	32816	
1062	0	32810	32814	
1063	0	32857	32826	
1064	0	32870	32708	
1065	0	32856	32796	
1066	0	32804	32815	
1067	0	32792	32732	
1068	0	32862	32834	
1069	0	32776	32711	
1070	0	32820	32840	
1071	0	32804	32644	
1072	0	32814	32730	
1073	0	32816	32710	
1074	0	32792	32767	
1075	0	32776	32687	
1076	0	32794	32868	
1077	0	32724	32799	
1078	0	32812	32688	
1079	0	32788	32814	
1080	0	32813	32758	
1081	0	32769	32790	
1082	0	32810	32711	
1083	0	32816	32714	
1084	0	32806	32752	
1085	0	32748	32774	
1086	0	32800	32764	
1087	0	32744	32856	
1088	0	32827	32807	
1089	0	32848	32673	
1090	0	32884	32775	
1091	0	32860	32702	
1092	0	32750	32792	
1093	0	32768	32690	
1094	0	32848	32828	
1095	0	32828	32830	
1096	0	32778	32716	
1097	0	32808	32760	
1098	0	32832	32835	
1099	0	32856	32788	
1100	0	32768	32743	
1101	0	32828	32740	
1102	0	32848	32850	
1103	0	32864	32846	
1104	0	32842	32725	
1105	0	32848	32804	
1106	0	32780	32698	
1107	0	32852	32790	
1108	0	32838	32729	
1109	0	32840	32760	
1110	0	32798	32660	
1111	0	32788	32807	
1112	0	32876	32718	
1113	0	32804	32804	
1114	0	32752	32718	
1115	0	32760	32802	
1116	0	32796	32766	
1117	0	32776	32838	
1118	0	32826	32775	
1119	0	32724	32732	
1120	0	32776	32802	
1121	0	32836	32775	
1122	0	32820	32774	
1123	0	32876	32720	
1124	0	32764	32772	
1125	0	32812	32728	
1126	0	32800	32756	
1127	0	32868	32870	
1128	0	32772	32710	
1129	0	32764	32862	
1130	0	32766	32708	
1131	0	32792	32734	
1132	0	32808	32664	
1133	0	32764	32786	
1134	0	32881	32822	
1135	0	32790	32912	
1136	0	32844	32838	
1137	0	32824	32721	
1138	0	32824	32819	
1139	0	32804	32754	
1140	0	32756	32760	
1141	0	32752	32756	
1142	0	32834	32848	
1143	0	32814	32820	
1144	0	32796	32772	
1145	0	32820	32794	
1146	0	32808	32628	
1147	0	32776	32741	
1148	0	32820	32728	
1149	0	32804	32732	
1150	0	32766	32732	
1151	0	32764	32871	
1152	0	32836	32806	
1153	0	32856	32711	
1154	0	32856	32798	
1155	0	32768	32740	
1156	0	32868	32760	
1157	0	32812	32808	
1158	0	32821	32730	
1159	0	32808	32846	
1160	0	32840	32844	
1161	0	32844	32753	
1162	0	32768	32775	
1163	0	32860	32678	
1164	0	32826	32790	
1165	0	32840	32806	
1166	0	32806	32748	
1167	0	32772	32802	
1168	0	32784	32736	
1169	0	32762	32788	
1170	0	32798	32772	
1171	0	32840	32654	
1172	0	32828	32706	
1173	0	32830	32791	
1174	0	32820	32756	
1175	0	32788	32774	
1176	0	32844	32708	
1177	0	32884	32818	
1178	0	32758	32744	
1179	0	32788	32810	
1180	0	32820	32850	
1181	0	32800	32743	
1182	0	32836	32870	
1183	0	32782	32826	
1184	0	32846	32673	
1185	0	32764	32831	
1186	0	32820	32822	
1187	0	32840	32706	
1188	0	32864	32758	
1189	0	32804	32752	
1190	0	32808	32810	
1191	0	32834	32738	
1192	0	32764	32775	
1193	0	32800	32734	
1194	0	32836	32796	
1195	0	32834	32644	
1196	0	32849	32840	
1197	0	32814	32678	
1198	0	32860	32620	
1199	0	32830	32802	
1200	0	32824	32750	
1201	0	32828	32684	
1202	0	32878	32746	
1203	0	32824	32737	
1204	0	32830	32736	
1205	0	32796	32746	
1206	0	32784	32820	
1207	0	32780	32832	
1208	0	32734	32672	
1209	0	32842	32770	
1210	0	32830	32775	
1211	0	32868	32839	
1212	0	32848	32812	
1213	0	32806	32754	
1214	0	32840	32821	
1215	0	32768	32810	
1216	0	32822	32708	
1217	0	32804	32743	
1218	0	32736	32734	
1219	0	32764	32800	
1220	0	32788	32888	
1221	0	32746	32753	
1222	0	32802	32862	
1223	0	32792	32766	
1224	0	32888	32855	
1225	0	32872	32854	
1226	0	32816	32768	
1227	0	32792	32788	
1228	0	32796	32674	
1229	0	32856	32799	
1230	0	32868	32704	
1231	0	32814	32834	
1232	0	32838	32812	
1233	0	32772	32775	
1234	0	32820	32726	
1235	0	32808	32669	
1236	0	32740	32796	
1237	0	32794	32696	
1238	0	32736	32784	
1239	0	32800	32752	
1240	0	32826	32694	
1241	0	32764	32796	
1242	0	32804	32696	
1243	0	32813	32793	
1244	0	32746	32798	
1245	0	32800	32742	
1246	0	32816	32864	
1247	0	32800	32774	
1248	0	32846	32858	
1249	0	32833	32774	
1250	0	32804	32834	
1251	0	32775	32751	
1252	0	32844	32826	
1253	0	32884	32888	
1254	0	32828	32817	
1255	0	32812	32772	
1256	0	32804	32756	
1257	0	32824	32818	
1258	0	32824	32766	
1259	0	32844	32838	
1260	0	32792	32775	
1261	0	32792	32740	
1262	0	32798	32820	
1263	0	32792	32668	
1264	0	32832	32775	
1265	0	32872	32652	
1266	0	32788	32788	
1267	0	32840	32708	
1268	0	32788	32860	
1269	0	32828	32775	
1270	0	32810	32847	
1271	0	32800	32720	
1272	0	32774	32806	
1273	0	32792	32854	
1274	0	32823	32746	
1275	0	32824	32743	
1276	0	32744	32772	
1277	0	32814	32760	
1278	0	32824	32810	
1279	0	32804	32718	
1280	0	32834	32746	
1281	0	32828	32758	
1282	0	32852	32767	
1283	0	32820	32802	
1284	0	32824	32783	
1285	0	32776	32772	
1286	0	32760	32722	
1287	0	32852	32850	
1288	0	32760	32784	
1289	0	32812	32798	
1290	0	32760	32758	
1291	0	32844	32668	
1292	0	32858	32732	
1293	0	32830	32730	
1294	0	32810	32730	
1295	0	32792	32708	
1296	0	32840	32708	
1297	0	32836	32693	
1298	0	32816	32814	
1299	0	32808	32646	
1300	0	32724	32775	
1301	0	32740	32816	
1302	0	32868	32812	
1303	0	32804	32769	
1304	0	32866	32698	
1305	0	32834	32869	
1306	0	32830	32708	
1307	0	32796	32812	
1308	0	32844	32828	
1309	0	32864	32887	
1310	0	32796	32757	
1311	0	32824	32848	
1312	0	32804	32812	
1313	0	32852	32726	
1314	0	32832	32775	
1315	0	32810	32670	
1316	0	32802	32767	
1317	0	32820	32788	
1318	0	32916	32750	
1319	0	32820	32838	
1320	0	32816	32799	
1321	0	32808	32754	
1322	0	32844	32757	
1323	0	32821	32702	
1324	0	32830	32756	
1325	0	32789	32791	
1326	0	32756	32732	
1327	0	32832	32840	
1328	0	32904	32740	
1329	0	32806	32806	
1330	0	32736	32654	
1331	0	32786	32720	
1332	0	32778	32716	
1333	0	32736	32844	
1334	0	32824	32740	
1335	0	32774	32818	
1336	0	32828	32720	
1337	0	32840	32804	
1338	0	32890	32786	
1339	0	32842	32856	
1340	0	32796	32871	
1341	0	32760	32821	
1342	0	32848	32823	
1343	0	32760	32812	
1344	0	32856	32828	
1345	0	32820	32750	
1346	0	32852	32791	
1347	0	32764	32726	
1348	0	32796	32706	
1349	0	32804	32742	
1350	0	32898	32808	
1351	0	32760	32732	
1352	0	32792	32834	
1353	0	32810	32822	
1354	0	32760	32772	
1355	0	32894	32774	
1356	0	32816	32692	
1357	0	32832	32746	
1358	0	32858	32716	
1359	0	32812	32750	
1360	0	32784	32712	
1361	0	32742	32722	
1362	0	32828	32628	
1363	0	32792	32756	
1364	0	32780	32720	
1365	0	32868	32746	
1366	0	32832	32754	
1367	0	32740	32810	
1368	0	32804	32719	
1369	0	32780	32758	
1370	0	32852	32775	
1371	0	32832	32728	
1372	0	32768	32734	
1373	0	32852	32652	
1374	0	32736	32752	
1375	0	32756	32820	
1376	0	32806	32804	
1377	0	32700	32864	
1378	0	32804	32838	
1379	0	32910	32820	
1380	0	32802	32910	
1381	0	32838	32858	
1382	0	32826	32868	
1383	0	32786	32831	
1384	0	32836	32821	
1385	0	32806	32670	
1386	0	32800	32758	
1387	0	32828	32772	
1388	0	32864	32782	
1389	0	32844	32716	
1390	0	32850	32614	
1391	0	32812	32772	
1392	0	32760	32732	
1393	0	32820	32718	
1394	0	32796	32740	
1395	0	32844	32750	
1396	0	32824	32834	
1397	0	32830	32678	
1398	0	32796	32791	
1399	0	32850	32758	
1400	0	32846	32886	
1401	0	32788	32740	
1402	0	32814	32841	
1403	0	32840	32740	
1404	0	32838	32846	
1405	0	32798	32720	
1406	0	32840	32738	
1407	0	32840	32704	
1408	0	32840	32862	
1409	0	32782	32839	
1410	0	32806	32679	
1411	0	32776	32759	
1412	0	32794	32741	
1413	0	32804	32862	
1414	0	32830	32794	
1415	0	32806	32698	
1416	0	32768	32688	
1417	0	32864	32684	
1418	0	32806	32756	
1419	0	32790	32754	
1420	0	32768	32818	
1421	0	32872	32828	
1422	0	32780	32716	
1423	0	32856	32788	
1424	0	32746	32714	
1425	0	32804	32775	
1426	0	32744	32730	
1427	0	32780	32774	
1428	0	32832	32671	
1429	0	32840	32758	
1430	0	32836	32716	
1431	0	32820	32775	
1432	0	32712	32750	
1433	0	32736	32703	
1434	0	32778	32814	
1435	0	32760	32686	
1436	0	32828	32724	
1437	0	32788	32785	
1438	0	32838	32764	
1439	0	32860	32752	
1440	0	32814	32690	
1441	0	32818	32746	
1442	0	32820	32704	
1443	0	32788	32820	
1444	0	32848	32892	
1445	0	32808	32866	
1446	0	32776	32794	
1447	0	32816	32796	
1448	0	32830	32768	
1449	0	32808	32790	
1450	0	32860	32756	
1451	0	32808	32852	
1452	0	32840	32747	
1453	0	32834	32804	
1454	0	32832	32838	
1455	0	32864	32704	
1456	0	32738	32772	
1457	0	32804	32632	
1458	0	32843	32768	
1459	0	32826	32766	
1460	0	32790	32708	
1461	0	32804	32804	
1462	0	32798	32700	
1463	0	32824	32806	
1464	0	32752	32794	
1465	0	32800	32736	
1466	0	32802	32810	
1467	0	32800	32802	
1468	0	32852	32748	
1469	0	32794	32746	
1470	0	32762	32673	
1471	0	32840	32830	
1472	0	32870	32732	
1473	0	32788	32696	
1474	0	32916	32664	
1475	0	32768	32729	
1476	0	32760	32752	
1477	0	32804	32798	
1478	0	32772	32892	
1479	0	32816	32766	
1480	0	32778	32796	
1481	0	32840	32620	
1482	0	32884	32812	
1483	0	32796	32761	
1484	0	32834	32839	
1485	0	32776	32800	
1486	0	32808	32739	
1487	0	32820	32739	
1488	0	32836	32734	
1489	0	32824	32740	
1490	0	32832	32672	
1491	0	32740	32796	
1492	0	32828	32727	
1493	0	32820	32874	
1494	0	32850	32894	
1495	0	32828	32708	
1496	0	32768	32758	
1497	0	32796	32738	
1498	0	32758	32750	
1499	0	32840	32708	
1500	0	32792	32744	
1501	0	32788	32764	
1502	0	32804	32844	
1503	0	32808	32658	
1504	0	32792	32759	
1505	0	32908	32760	
1506	0	32856	32758	
1507	0	32760	32831	
1508	0	32756	32727	
1509	0	32806	32775	
1510	0	32782	32708	
1511	0	32770	32831	
1512	0	32862	32642	
1513	0	32774	32746	
1514	0	32820	32751	
1515	0	32752	32807	
1516	0	32852	32760	
1517	0	32825	32732	
1518	0	32847	32768	
1519	0	32824	32828	
1520	0	32774	32832	
1521	0	32808	32775	
1522	0	32944	32716	
1523	0	32828	32800	
1524	0	32744	32816	
1525	0	32772	32670	
1526	0	32788	32800	
1527	0	32704	32708	
1528	0	32836	32756	
1529	0	32808	32758	
1530	0	32832	32662	
1531	0	32880	32794	
1532	0	32944	32775	
1533	0	32856	32744	
1534	0	32868	32722	
1535	0	32872	32679	
1536	0	32892	32612	
1537	0	32872	32663	
1538	0	32890	32546	
1539	0	32834	32582	
1540	0	32848	32583	
1541	0	32908	32551	
1542	0	32850	32630	
1543	0	32840	32560	
1544	0	32788	32484	
1545	0	32896	32611	
1546	0	32892	32532	
1547	0	32884	32455	
1548	0	32800	32551	
1549	0	32864	32582	
1550	0	32832	32464	
1551	0	32748	32703	
1552	0	32736	32718	
1553	0	32704	32856	
1554	0	32734	32966	
1555	0	32670	33156	
1556	0	32706	33296	
1557	0	32660	33244	
1558	0	32628	33468	
1559	0	32598	33472	
1560	0	32625	33487	
1561	0	32608	33593	
1562	0	32657	33522	
1563	0	32640	33526	
1564	0	32692	33382	
1565	0	32784	33196	
1566	0	32768	33062	
1567	0	32844	32830	
1568	0	32748	32654	
1569	0	32792	32496	
1570	0	32896	32407	
1571	0	32804	32295	
1572	0	32904	32372	
1573	0	32924	32299	
1574	0	32916	32436	
1575	0	32938	32440	
1576	0	32938	32292	
1577	0	32806	32484	
1578	0	32918	32408	
1579	0	32869	32518	
1580	0	32810	32560	
1581	0	32918	32626	
1582	0	32894	32598	
1583	0	32930	32754	
1584	0	32868	32653	
1585	0	32876	32800	
1586	0	32878	32775	
1587	0	32888	32800	
1588	0	32848	32761	
1589	0	32836	32854	
1590	0	32858	32860	
1591	0	32956	32720	
1592	0	32856	32812	
1593	0	32840	32727	
1594	0	32812	32755	
1595	0	32854	32660	
1596	0	32800	32742	
1597	0	32796	32697	
1598	0	32798	32682	
1599	0	32800	32799	
1600	0	32788	32719	
1601	0	32772	32790	
1602	0	32760	32736	
1603	0	32812	32712	
1604	0	32764	32724	
1605	0	32802	32839	
1606	0	32780	32818	
1607	0	32760	32756	
1608	0	32792	32807	
1609	0	32810	32808	
1610	0	32816	32804	
1611	0	32764	32831	
1612	0	32792	32792	
1613	0	32808	32838	
1614	0	32756	32743	
1615	0	32775	32798	
1616	0	32800	32831	
1617	0	32804	32728	
1618	0	32852	32810	
1619	0	32836	32876	
1620	0	32799	32768	
1621	0	32838	32728	
1622	0	32792	32698	
1623	0	32876	32818	
1624	0	32854	32775	
1625	0	32812	32674	
1626	0	32762	32775	
1627	0	32810	32726	
1628	0	32768	32842	
1629	0	32820	32772	
1630	0	32760	32824	
1631	0	32792	32832	
1632	0	32832	32720	
1633	0	32800	32764	
1634	0	32752	32664	
1635	0	32744	32762	
1636	0	32830	32732	
1637	0	32848	32818	
1638	0	32792	32808	
1639	0	32798	32742	
1640	0	32890	32725	
1641	0	32824	32694	
1642	0	32840	32764	
1643	0	32788	32775	
1644	0	32740	32808	
1645	0	32808	32736	
1646	0	32808	32764	
1647	0	32860	32820	
1648	0	32844	32802	
1649	0	32876	32795	
1650	0	32844	32688	
1651	0	32772	32704	
1652	0	32788	32732	
1653	0	32848	32681	
1654	0	32830	32748	
1655	0	32794	32800	
1656	0	32808	32672	
1657	0	32844	32760	
1658	0	32782	32680	
1659	0	32792	32903	
1660	0	32798	32737	
1661	0	32852	32711	
1662	0	32832	32846	
1663	0	32768	32834	
1664	0	32768	32844	
1665	0	32816	32772	
1666	0	32820	32751	
1667	0	32836	32792	
1668	0	32769	32772	
1669	0	32798	32862	
1670	0	32850	32890	
1671	0	32828	32719	
1672	0	32772	32790	
1673	0	32796	32860	
1674	0	32872	32682	
1675	0	32800	32892	
1676	0	32808	32808	
1677	0	32900	32646	
1678	0	32824	32702	
1679	0	32808	32729	
1680	0	32792	32647	
1681	0	32838	32760	
1682	0	32858	32704	
1683	0	32764	32768	
1684	0	32764	32836	
1685	0	32844	32862	
1686	0	32836	32775	
1687	0	32844	32719	
1688	0	32740	32775	
1689	0	32820	32668	
1690	0	32828	32860	
1691	0	32840	32849	
1692	0	32744	32672	
1693	0	32848	32791	
1694	0	32792	32815	
1695	0	32768	32748	
1696	0	32824	32822	
1697	0	32752	32639	
1698	0	32732	32895	
1699	0	32842	32870	
1700	0	32854	32734	
1701	0	32824	32758	
1702	0	32868	32716	
1703	0	32908	32814	
1704	0	32833	32808	
1705	0	32810	32710	
1706	0	32820	32826	
1707	0	32844	32719	
1708	0	32810	32758	
1709	0	32842	32634	
1710	0	32776	32791	
1711	0	32744	32750	
1712	0	32818	32727	
1713	0	32848	32764	
1714	0	32860	32796	
1715	0	32796	32868	
1716	0	32818	32838	
1717	0	32872	32775	
1718	0	32812	32694	
1719	0	32776	32876	
1720	0	32780	32808	
1721	0	32780	32775	
1722	0	32804	32834	
1723	0	32834	32775	
1724	0	32814	32678	
1725	0	32864	32824	
1726	0	32814	32903	
1727	0	32812	32742	
1728	0	32792	32860	
1729	0	32804	32732	
1730	0	32872	32710	
1731	0	32748	32740	
1732	0	32764	32766	
1733	0	32816	32734	
1734	0	32764	32585	
1735	0	32752	32820	
1736	0	32844	32706	
1737	0	32816	32670	
1738	0	32816	32752	
1739	0	32836	32823	
1740	0	32824	32698	
1741	0	32772	32711	
1742	0	32784	32828	
1743	0	32824	32794	
1744	0	32844	32716	
1745	0	32806	32804	
1746	0	32826	32751	
1747	0	32792	32730	
1748	0	32820	32778	
1749	0	32864	32696	
1750	0	32852	32692	
1751	0	32792	32679	
1752	0	32816	32775	
1753	0	32828	32734	
1754	0	32844	32756	
1755	0	32856	32792	
1756	0	32864	32698	
1757	0	32806	32870	
1758	0	32752	32788	
1759	0	32792	32862	
1760	0	32796	32903	
1761	0	32798	32818	
1762	0	32812	32804	
1763	0	32776	32839	
1764	0	32740	32801	
1765	0	32816	32775	
1766	0	32832	32704	
1767	0	32812	32803	
1768	0	32852	32754	
1769	0	32848	32818	
1770	0	32852	32775	
1771	0	32764	32686	
1772	0	32844	32768	
1773	0	32792	32663	
1774	0	32780	32662	
1775	0	32756	32660	
1776	0	32806	32692	
1777	0	32734	32726	
1778	0	32768	32806	
1779	0	32814	32694	
1780	0	32775	32857	
1781	0	32784	32832	
1782	0	32762	32838	
1783	0	32804	32805	
1784	0	32844	32853	
1785	0	32888	32743	
1786	0	32820	32775	
1787	0	32822	32775	
1788	0	32776	32927	
1789	0	32864	32790	
1790	0	32902	32770	
1791	0	32822	32799	
1792	0	32762	32770	
1793	0	32744	32775	
1794	0	32836	32822	
1795	0	32774	32754	
1796	0	32808	32750	
1797	0	32840	32780	
1798	0	32796	32738	
1799	0	32800	32775	
1800	0	32790	32790	
1801	0	32766	32754	
1802	0	32818	32812	
1803	0	32808	32876	
1804	0	32828	32766	
1805	0	32764	32814	
1806	0	32768	32766	
1807	0	32802	32838	
1808	0	32845	32876	
1809	0	32792	32852	
1810	0	32832	32852	
1811	0	32876	32734	
1812	0	32828	32752	
1813	0	32840	32782	
1814	0	32886	32635	
1815	0	32820	32804	
1816	0	32842	32719	
1817	0	32780	32810	
1818	0	32738	32742	
1819	0	32798	32788	
1820	0	32740	32793	
1821	0	32812	32698	
1822	0	32816	32839	
1823	0	32824	32618	
1824	0	32780	32760	
1825	0	32728	32756	
1826	0	32808	32763	
1827	0	32790	32638	
1828	0	32858	32646	
1829	0	32928	32720	
1830	0	32796	32852	
1831	0	32808	32686	
1832	0	32756	32739	
1833	0	32816	32760	
1834	0	32732	32835	
1835	0	32870	32834	
1836	0	32770	32852	
1837	0	32820	32802	
1838	0	32804	32864	
1839	0	32856	32802	
1840	0	32816	32886	
1841	0	32792	32728	
1842	0	32792	32714	
1843	0	32810	32684	
1844	0	32840	32796	
1845	0	32758	32846	
1846	0	32884	32822	
1847	0	32852	32719	
1848	0	32900	32703	
1849	0	32776	32800	
1850	0	32804	32686	
1851	0	32752	32647	
1852	0	32804	32647	
1853	0	32792	32794	
1854	0	32792	32704	
1855	0	32728	32702	
1856	0	32868	32724	
1857	0	32900	32748	
1858	0	32856	32820	
1859	0	32828	32734	
1860	0	32856	32790	
1861	0	32844	32742	
1862	0	32810	32812	
1863	0	32784	32679	
1864	0	32852	32862	
1865	0	32810	32732	
1866	0	32800	32758	
1867	0	32808	32716	
1868	0	32786	32816	
1869	0	32872	32710	
1870	0	32834	32833	
1871	0	32780	32743	
1872	0	32768	32733	
1873	0	32798	32673	
1874	0	32764	32774	
1875	0	32770	32726	
1876	0	32774	32788	
1877	0	32784	32764	
1878	0	32794	32803	
1879	0	32842	32804	
1880	0	32804	32711	
1881	0	32814	32764	
1882	0	32808	32743	
1883	0	32772	32728	
1884	0	32828	32688	
1885	0	32842	32744	
1886	0	32840	32711	
1887	0	32812	32792	
1888	0	32768	32744	
1889	0	32816	32768	
1890	0	32856	32807	
1891	0	32840	32816	
1892	0	32852	32762	
1893	0	32804	32815	
1894	0	32860	32808	
1895	0	32800	32714	
1896	0	32816	32775	
1897	0	32862	32740	
1898	0	32800	32760	
1899	0	32836	32808	
1900	0	32820	32690	
1901	0	32776	32800	
1902	0	32768	32672	
1903	0	32792	32728	
1904	0	32800	32634	
1905	0	32804	32820	
1906	0	32828	32722	
1907	0	32816	32750	
1908	0	32784	32742	
1909	0	32844	32790	
1910	0	32768	32770	
1911	0	32810	32762	
1912	0	32796	32862	
1913	0	32800	32742	
1914	0	32792	32775	
1915	0	32816	32708	
1916	0	32732	32843	
1917	0	32844	32868	
1918	0	32820	32826	
1919	0	32792	32903	
1920	0	32792	32764	
1921	0	32860	32743	
1922	0	32836	32647	
1923	0	32806	32740	
1924	0	32774	32662	
1925	0	32800	32830	
1926	0	32860	32721	
1927	0	32856	32849	
1928	0	32796	32808	
1929	0	32820	32748	
1930	0	32808	32774	
1931	0	32770	32710	
1932	0	32832	32766	
1933	0	32828	32772	
1934	0	32764	32852	
1935	0	32830	32722	
1936	0	32820	32799	
1937	0	32860	32727	
1938	0	32836	32768	
1939	0	32784	32775	
1940	0	32748	32764	
1941	0	32832	32775	
1942	0	32816	32640	
1943	0	32776	32812	
1944	0	32736	32770	
1945	0	32884	32775	
1946	0	32738	32694	
1947	0	32794	32834	
1948	0	32776	32828	
1949	0	32780	32838	
1950	0	32854	32752	
1951	0	32792	32716	
1952	0	32748	32804	
1953	0	32802	32835	
1954	0	32776	32734	
1955	0	32868	32712	
1956	0	32854	32718	
1957	0	32776	32830	
1958	0	32806	32735	
1959	0	32850	32882	
1960	0	32848	32822	
1961	0	32898	32709	
1962	0	32840	32752	
1963	0	32800	32668	
1964	0	32772	32742	
1965	0	32834	32759	
1966	0	32752	32848	
1967	0	32840	32831	
1968	0	32808	32756	
1969	0	32784	32831	
1970	0	32836	32679	
1971	0	32802	32724	
1972	0	32784	32692	
1973	0	32852	32747	
1974	0	32776	32868	
1975	0	32764	32795	
1976	0	32760	32772	
1977	0	32812	32775	
1978	0	32896	32812	
1979	0	32860	32674	
1980	0	32830	32687	
1981	0	32868	32744	
1982	0	32798	32724	
1983	0	32800	32786	
1984	0	32736	32686	
1985	0	32804	32704	
1986	0	32836	32700	
1987	0	32808	32792	
1988	0	32798	32788	
1989	0	32796	32883	
1990	0	32810	32768	
1991	0	32784	32852	
1992	0	32802	32678	
1993	0	32784	32815	
1994	0	32766	32634	
1995	0	32826	32782	
1996	0	32746	32690	
1997	0	32788	32751	
1998	0	32836	32834	
1999	0	32856	32838	
2000	0	32784	32844	
2001	0	32876	32670	
2002	0	32775	32752	
2003	0	32792	32674	
2004	0	32752	32692	
2005	0	32784	32734	
2006	0	32844	32830	
2007	0	32828	32794	
2008	0	32808	32700	
2009	0	32820	32748	
2010	0	32798	32796	
2011	0	32808	32834	
2012	0	32844	32762	
2013	0	32864	32682	
2014	0	32782	32835	
2015	0	32772	32830	
2016	0	32892	32671	
2017	0	32802	32796	
2018	0	32776	32785	
2019	0	32856	32744	
2020	0	32792	32866	
2021	0	32816	32922	
2022	0	32824	32718	
2023	0	32844	32868	
2024	0	32798	32742	
2025	0	32872	32760	
2026	0	32844	32849	
2027	0	32854	32743	
2028	0	32776	32740	
2029	0	32796	32855	
2030	0	32872	32898	
2031	0	32812	32722	
2032	0	32736	32742	
2033	0	32732	32638	
2034	0	32848	32770	
2035	0	32784	32708	
2036	0	32766	32660	
2037	0	32860	32712	
2038	0	32804	32660	
2039	0	32824	32775	
2040	0	32840	32826	
2041	0	32822	32734	
2042	0	32810	32742	
2043	0	32864	32700	
2044	0	32790	32788	
2045	0	32816	32758	
2046	0	32782	32732	
2047	0	32814	32910	
2048	0	32828	32890	
2049	0	32768	32719	
2050	0	32800	32844	
2051	0	32864	32764	
2052	0	32796	32626	
2053	0	32800	32856	
2054	0	32784	32807	
2055	0	32792	32704	
2056	0	32828	32756	
2057	0	32840	32812	
2058	0	32828	32664	
2059	0	32822	32700	
2060	0	32824	32764	
2061	0	32842	32804	
2062	0	32784	32844	
2063	0	32836	32734	
2064	0	32804	32746	
2065	0	32822	32812	
2066	0	32748	32684	
2067	0	32808	32944	
2068	0	32808	32775	
2069	0	32872	32820	
2070	0	32858	32854	
2071	0	32800	32727	
2072	0	32756	32684	
2073	0	32808	32866	
2074	0	32804	32736	
2075	0	32812	32852	
2076	0	32736	32738	
2077	0	32774	32678	
2078	0	32784	32774	
2079	0	32820	32768	
2080	0	32812	32636	
2081	0	32788	32806	
2082	0	32804	32838	
2083	0	32772	32775	
2084	0	32806	32720	
2085	0	32880	32770	
2086	0	32848	32716	
2087	0	32824	32750	
2088	0	32752	32794	
2089	0	32852	32900	
2090	0	32824	32697	
2091	0	32770	32792	
2092	0	32760	32848	
2093	0	32750	32684	
2094	0	32840	32815	
2095	0	32762	32792	
2096	0	32784	32758	
2097	0	32852	32784	
2098	0	32814	32821	
2099	0	32836	32788	
2100	0	32774	32711	
2101	0	32832	32750	
2102	0	32764	32820	
2103	0	32828	32748	
2104	0	32844	32784	
2105	0	32838	32845	
2106	0	32784	32654	
2107	0	32788	32766	
2108	0	32888	32726	
2109	0	32804	32832	
2110	0	32782	32710	
2111	0	32820	32704	
2112	0	32848	32828	
2113	0	32860	32839	
2114	0	32778	32647	
2115	0	32788	32798	
2116	0	32768	32798	
2117	0	32806	32735	
2118	0	32796	32838	
2119	0	32784	32734	
2120	0	32812	32658	
2121	0	32834	32789	
2122	0	32842	32719	
2123	0	32816	32775	
2124	0	32821	32807	
2125	0	32762	32688	
2126	0	32858	32788	
2127	0	32880	32790	
2128	0	32800	32835	
2129	0	32808	32772	
2130	0	32874	32680	
2131	0	32852	32750	
2132	0	32836	32770	
2133	0	32776	32751	
2134	0	32808	32734	
2135	0	32756	32772	
2136	0	32786	32766	
2137	0	32812	32836	
2138	0	32840	32790	
2139	0	32832	32792	
2140	0	32830	32810	
2141	0	32836	32732	
2142	0	32836	32807	
2143	0	32820	32775	
2144	0	32842	32784	
2145	0	32824	32720	
2146	0	32862	32754	
2147	0	32808	32823	
2148	0	32832	32698	
2149	0	32738	32762	
2150	0	32792	32804	
2151	0	32774	32615	
2152	0	32784	32775	
2153	0	32774	32756	
2154	0	32784	32657	
2155	0	32792	32795	
2156	0	32800	32772	
2157	0	32804	32734	
2158	0	32804	32684	
2159	0	32814	32760	
2160	0	32800	32832	
2161	0	32852	32703	
2162	0	32788	32748	
2163	0	32740	32746	
2164	0	32814	32838	
2165	0	32834	32872	
2166	0	32794	32710	
2167	0	32844	32788	
2168	0	32820	32692	
2169	0	32808	32772	
2170	0	32820	32874	
2171	0	32798	32660	
2172	0	32768	32858	
2173	0	32812	32764	
2174	0	32840	32852	
2175	0	32782	32836	
2176	0	32768	32704	
2177	0	32760	32704	
2178	0	32734	32756	
2179	0	32786	32804	
2180	0	32820	32641	
2181	0	32812	32728	
2182	0	32809	32764	
2183	0	32836	32704	
2184	0	32886	32792	
2185	0	32812	32744	
2186	0	32900	32792	
2187	0	32800	32768	
2188	0	32836	32676	
2189	0	32890	32840	
2190	0	32816	32884	
2191	0	32834	32660	
2192	0	32900	32736	
2193	0	32876	32726	
2194	0	32842	32590	
2195	0	32900	32607	
2196	0	32902	32480	
2197	0	32856	32596	
2198	0	32866	32548	
2199	0	32912	32364	
2200	0	32840	32404	
2201	0	32868	32406	
2202	0	32896	32508	
2203	0	32812	32630	
2204	0	32804	32572	
2205	0	32880	32608	
2206	0	32874	32519	
2207	0	32766	32785	
2208	0	32808	32762	
2209	0	32728	32774	
2210	0	32700	32948	
2211	0	32632	33126	
2212	0	32684	33281	
2213	0	32600	33466	
2214	0	32636	33436	
2215	0	32558	33530	
2216	0	32518	33447	
2217	0	32574	33623	
2218	0	32562	33628	
2219	0	32656	33430	
2220	0	32688	33472	
2221	0	32764	33287	
2222	0	32806	33036	
2223	0	32824	32760	
2224	0	32822	32556	
2225	0	32784	32615	
2226	0	32842	32450	
2227	0	32872	32316	
2228	0	32804	32366	
2229	0	32938	32310	
2230	0	32894	32435	
2231	0	32876	32335	
2232	0	32910	32358	
2233	0	32900	32468	
2234	0	32924	32368	
2235	0	32922	32496	
2236	0	32868	32573	
2237	0	32884	32588	
2238	0	32816	32646	
2239	0	32812	32494	
2240	0	32884	32775	
2241	0	32920	32734	
2242	0	32892	32717	
2243	0	32880	32858	
2244	0	32868	32766	
2245	0	32913	32676	
2246	0	32884	32862	
2247	0	32904	32839	
2248	0	32892	32716	
2249	0	32838	32775	
2250	0	32836	32702	
2251	0	32872	32826	
2252	0	32812	32933	
2253	0	32794	32794	
2254	0	32756	32874	
2255	0	32780	32868	
2256	0	32780	32898	
2257	0	32806	32732	
2258	0	32838	32832	
2259	0	32742	32742	
2260	0	32746	32815	
2261	0	32796	32820	
2262	0	32820	32850	
2263	0	32804	32783	
2264	0	32808	32622	
2265	0	32788	32679	
2266	0	32784	32823	
2267	0	32784	32710	
2268	0	32788	32742	
2269	0	32836	32823	
2270	0	32858	32692	
2271	0	32865	32775	
2272	0	32748	32774	
2273	0	32828	32804	
2274	0	32772	32740	
2275	0	32836	32743	
2276	0	32788	32772	
2277	0	32820	32702	
2278	0	32804	32874	
2279	0	32870	32826	
2280	0	32888	32737	
2281	0	32856	32792	
2282	0	32848	32816	
2283	0	32798	32699	
2284	0	32772	32678	
2285	0	32830	32654	
2286	0	32756	32727	
2287	0	32852	32812	
2288	0	32848	32708	
2289	0	32774	32820	
2290	0	32832	32871	
2291	0	32768	32828	
2292	0	32784	32744	
2293	0	32808	32799	
2294	0	32788	32775	
2295	0	32800	32704	
2296	0	32774	32792	
2297	0	32828	32770	
2298	0	32892	32758	
2299	0	32760	32668	
2300	0	32788	32590	
2301	0	32868	32775	
2302	0	32816	32758	
2303	0	32856	32708	
2304	0	32806	32816	
2305	0	32800	32775	
2306	0	32756	32711	
2307	0	32820	32836	
2308	0	32798	32694	
2309	0	32808	32810	
2310	0	32804	32758	
2311	0	32820	32744	
2312	0	32834	32747	
2313	0	32820	32734	
2314	0	32824	32857	
2315	0	32816	32846	
2316	0	32800	32652	
2317	0	32784	32726	
2318	0	32846	32740	
2319	0	32836	32894	
2320	0	32832	32762	
2321	0	32860	32742	
2322	0	32848	32774	
2323	0	32844	32768	
2324	0	32910	32726	
2325	0	32774	32758	
2326	0	32862	32830	
2327	0	32790	32808	
2328	0	32768	32730	
2329	0	32832	32740	
2330	0	32788	32736	
2331	0	32814	32812	
2332	0	32818	32806	
2333	0	32744	32828	
2334	0	32814	32854	
2335	0	32874	32622	
2336	0	32820	32751	
2337	0	32850	32775	
2338	0	32788	32735	
2339	0	32908	32772	
2340	0	32788	32671	
2341	0	32770	32734	
2342	0	32830	32720	
2343	0	32848	32807	
2344	0	32768	32742	
2345	0	32772	32734	
2346	0	32804	32766	
2347	0	32760	32793	
2348	0	32868	32832	
2349	0	32872	32748	
2350	0	32806	32792	
2351	0	32842	32750	
2352	0	32812	32761	
2353	0	32704	32682	
2354	0	32844	32688	
2355	0	32792	32733	
2356	0	32772	32650	
2357	0	32790	32828	
2358	0	32832	32871	
2359	0	32782	32888	
2360	0	32804	32756	
2361	0	32824	32772	
2362	0	32792	32718	
2363	0	32800	32839	
2364	0	32756	32704	
2365	0	32808	32766	
2366	0	32844	32708	
2367	0	32804	32736	
2368	0	32804	32701	
2369	0	32784	32772	
2370	0	32912	32680	
2371	0	32826	32796	
2372	0	32808	32775	
2373	0	32840	32820	
2374	0	32862	32764	
2375	0	32856	32702	
2376	0	32796	32784	
2377	0	32788	32666	
2378	0	32794	32808	
2379	0	32774	32834	
2380	0	32824	32772	
2381	0	32832	32845	
2382	0	32802	32798	
2383	0	32836	32828	
2384	0	32798	32894	
2385	0	32750	32772	
2386	0	32814	32753	
2387	0	32776	32750	
2388	0	32776	32672	
2389	0	32788	32791	
2390	0	32840	32800	
2391	0	32768	32686	
2392	0	32796	32804	
2393	0	32820	32692	
2394	0	32820	32856	
2395	0	32856	32774	
2396	0	32868	32799	
2397	0	32736	32791	
2398	0	32841	32740	
2399	0	32752	32714	
2400	0	32785	32748	
2401	0	32820	32775	
2402	0	32828	32766	
2403	0	32808	32812	
2404	0	32858	32826	
2405	0	32820	32774	
2406	0	32814	32774	
2407	0	32778	32668	
2408	0	32834	32800	
2409	0	32868	32800	
2410	0	32836	32724	
2411	0	32773	32764	
2412	0	32792	32724	
2413	0	32775	32764	
2414	0	32816	32716	
2415	0	32870	32642	
2416	0	32796	32754	
2417	0	32828	32834	
2418	0	32824	32698	
2419	0	32796	32767	
2420	0	32840	32740	
2421	0	32828	32734	
2422	0	32824	32746	
2423	0	32832	32676	
2424	0	32812	32826	
2425	0	32792	32741	
2426	0	32764	32834	
2427	0	32740	32828	
2428	0	32820	32804	
2429	0	32844	32774	
2430	0	32816	32823	
2431	0	32808	32838	
2432	0	32828	32792	
2433	0	32816	32724	
2434	0	32800	32687	
2435	0	32722	32754	
2436	0	32784	32718	
2437	0	32828	32712	
2438	0	32836	32816	
2439	0	32792	32794	
2440	0	32728	32716	
2441	0	32832	32724	
2442	0	32824	32802	
2443	0	32784	32775	
2444	0	32766	32734	
2445	0	32776	32693	
2446	0	32760	32830	
2447	0	32808	32784	
2448	0	32796	32828	
2449	0	32808	32874	
2450	0	32772	32796	
2451	0	32810	32732	
2452	0	32804	32847	
2453	0	32804	32769	
2454	0	32808	32808	
2455	0	32816	32756	
2456	0	32798	32854	
2457	0	32818	32788	
2458	0	32788	32766	
2459	0	32756	32788	
2460	0	32820	32748	
2461	0	32808	32718	
2462	0	32794	32806	
2463	0	32854	32775	
2464	0	32720	32711	
2465	0	32778	32706	
2466	0	32804	32764	
2467	0	32782	32736	
2468	0	32844	32854	
2469	0	32872	32644	
2470	0	32784	32750	
2471	0	32790	32757	
2472	0	32804	32660	
2473	0	32784	32716	
2474	0	32828	32676	
2475	0	32854	32695	
2476	0	32828	32788	
2477	0	32824	32706	
2478	0	32812	32760	
2479	0	32868	32856	
2480	0	32784	32800	
2481	0	32860	32752	
2482	0	32772	32866	
2483	0	32882	32786	
2484	0	32876	32724	
2485	0	32744	32846	
2486	0	32804	32740	
2487	0	32772	32762	
2488	0	32824	32720	
2489	0	32816	32798	
2490	0	32840	32714	
2491	0	32756	32664	
2492	0	32840	32820	
2493	0	32776	32882	
2494	0	32826	32668	
2495	0	32786	32743	
2496	0	32810	32831	
2497	0	32860	32773	
2498	0	32775	32756	
2499	0	32772	32702	
2500	0	32844	32735	
2501	0	32834	32679	
2502	0	32830	32818	
2503	0	32794	32793	
2504	0	32868	32734	
2505	0	32872	32769	
2506	0	32848	32786	
2507	0	32728	32858	
2508	0	32806	32706	
2509	0	32874	32799	
2510	0	32852	32823	
2511	0	32852	32762	
2512	0	32792	32772	
2513	0	32706	32718	
2514	0	32796	32775	
2515	0	32788	32838	
2516	0	32718	32743	
2517	0	32796	32694	
2518	0	32820	32805	
2519	0	32792	32642	
2520	0	32784	32775	
2521	0	32802	32812	
2522	0	32752	32705	
2523	0	32844	32816	
2524	0	32838	32744	
2525	0	32832	32735	
2526	0	32880	32926	
2527	0	32802	32822	
2528	0	32796	32770	
2529	0	32820	32828	
2530	0	32836	32847	
2531	0	32852	32688	
2532	0	32728	32806	
2533	0	32844	32884	
2534	0	32864	32703	
2535	0	32780	32830	
2536	0	32816	32700	
2537	0	32828	32740	
2538	0	32808	32852	
2539	0	32820	32837	
2540	0	32804	32736	
2541	0	32810	32868	
2542	0	32808	32716	
2543	0	32812	32712	
2544	0	32756	32811	
2545	0	32820	32792	
2546	0	32832	32678	
2547	0	32772	32734	
2548	0	32856	32748	
2549	0	32801	32745	
2550	0	32766	32748	
2551	0	32741	32692	
2552	0	32816	32746	
2553	0	32800	32788	
2554	0	32808	32644	
2555	0	32796	32812	
2556	0	32756	32812	
2557	0	32832	32772	
2558	0	32796	32824	
2559	0	32872	32908	
2560	0	32816	32722	
2561	0	32836	32864	
2562	0	32848	32850	
2563	0	32804	32735	
2564	0	32796	32870	
2565	0	32798	32828	
2566	0	32772	32748	
2567	0	32752	32660	
2568	0	32828	32738	
2569	0	32780	32734	
2570	0	32812	32748	
2571	0	32792	32746	
2572	0	32786	32711	
2573	0	32792	32812	
2574	0	32808	32726	
2575	0	32800	32775	
2576	0	32834	32775	
2577	0	32772	32767	
2578	0	32802	32676	
2579	0	32800	32844	
2580	0	32794	32770	
2581	0	32786	32750	
2582	0	32856	32678	
2583	0	32821	32796	
2584	0	32812	32790	
2585	0	32820	32854	
2586	0	32784	32754	
2587	0	32836	32775	
2588	0	32792	32800	
2589	0	32834	32751	
2590	0	32808	32764	
2591	0	32780	32735	
2592	0	32788	32775	
2593	0	32836	32692	
2594	0	32772	32758	
2595	0	32804	32812	
2596	0	32842	32692	
2597	0	32862	32764	
2598	0	32822	32834	
2599	0	32840	32818	
2600	0	32838	32860	
2601	0	32766	32824	
2602	0	32784	32743	
2603	0	32764	32811	
2604	0	32828	32775	
2605	0	32804	32692	
2606	0	32842	32794	
2607	0	32754	32903	
2608	0	32858	32748	
2609	0	32848	32804	
2610	0	32840	32676	
2611	0	32790	32844	
2612	0	32768	32828	
2613	0	32820	32686	
2614	0	32776	32790	
2615	0	32876	32784	
2616	0	32810	32670	
2617	0	32828	32756	
2618	0	32772	32686	
2619	0	32848	32775	
2620	0	32748	32706	
2621	0	32732	32807	
2622	0	32804	32829	
2623	0	32848	32647	
2624	0	32798	32775	
2625	0	32808	32664	
2626	0	32766	32836	
2627	0	32860	32738	
2628	0	32878	32712	
2629	0	32848	32826	
2630	0	32756	32760	
2631	0	32792	32754	
2632	0	32808	32846	
2633	0	32842	32711	
2634	0	32792	32803	
2635	0	32808	32804	
2636	0	32824	32775	
2637	0	32836	32740	
2638	0	32716	32689	
2639	0	32804	32817	
2640	0	32808	32722	
2641	0	32804	32854	
2642	0	32780	32682	
2643	0	32758	32822	
2644	0	32806	32727	
2645	0	32832	32838	
2646	0	32836	32751	
2647	0	32800	32668	
2648	0	32734	32820	
2649	0	32796	32743	
2650	0	32770	32750	
2651	0	32808	32857	
2652	0	32816	32816	
2653	0	32856	32738	
2654	0	32852	32866	
2655	0	32880	32824	
2656	0	32856	32684	
2657	0	32828	32736	
2658	0	32834	32788	
2659	0	32800	32719	
2660	0	32832	32874	
2661	0	32804	32789	
2662	0	32792	32808	
2663	0	32744	32692	
2664	0	32788	32762	
2665	0	32832	32784	
2666	0	32852	32707	
2667	0	32832	32736	
2668	0	32840	32726	
2669	0	32820	32884	
2670	0	32809	32799	
2671	0	32842	32688	
2672	0	32688	32774	
2673	0	32724	32768	
2674	0	32774	32790	
2675	0	32864	32762	
2676	0	32744	32658	
2677	0	32912	32820	
2678	0	32772	32783	
2679	0	32796	32732	
2680	0	32824	32775	
2681	0	32812	32736	
2682	0	32830	32714	
2683	0	32832	32790	
2684	0	32788	32836	
2685	0	32782	32692	
2686	0	32796	32823	
2687	0	32812	32744	
2688	0	32704	32676	
2689	0	32826	32794	
2690	0	32788	32826	
2691	0	32828	32676	
2692	0	32848	32784	
2693	0	32858	32812	
2694	0	32748	32724	
2695	0	32888	32769	
2696	0	32874	32839	
2697	0	32884	32744	
2698	0	32798	32828	
2699	0	32778	32838	
2700	0	32764	32825	
2701	0	32842	32760	
2702	0	32730	32804	
2703	0	32800	32764	
2704	0	32784	32724	
2705	0	32772	32752	
2706	0	32784	32684	
2707	0	32812	32711	
2708	0	32850	32770	
2709	0	32874	32668	
2710	0	32724	32740	
2711	0	32816	32738	
2712	0	32872	32734	
2713	0	32836	32794	
2714	0	32812	32792	
2715	0	32868	32743	
2716	0	32794	32775	
2717	0	32820	32788	
2718	0	32780	32732	
2719	0	32806	32804	
2720	0	32888	32866	
2721	0	32858	32720	
2722	0	32814	32807	
2723	0	32740	32831	
2724	0	32773	32688	
2725	0	32884	32828	
2726	0	32808	32804	
2727	0	32824	32742	
2728	0	32792	32772	
2729	0	32804	32716	
2730	0	32769	32720	
2731	0	32804	32782	
2732	0	32752	32816	
2733	0	32740	32793	
2734	0	32816	32692	
2735	0	32752	32698	
2736	0	32834	32731	
2737	0	32790	32807	
2738	0	32822	32838	
2739	0	32784	32775	
2740	0	32864	32838	
2741	0	32836	32756	
2742	0	32838	32888	
2743	0	32912	32830	
2744	0	32844	32679	
2745	0	32860	32792	
2746	0	32856	32792	
2747	0	32880	32824	
2748	0	32808	32715	
2749	0	32816	32672	
2750	0	32740	32802	
2751	0	32788	32791	
2752	0	32726	32710	
2753	0	32830	32759	
2754	0	32804	32775	
2755	0	32804	32836	
2756	0	32810	32862	
2757	0	32872	32678	
2758	0	32836	32794	
2759	0	32820	32888	
2760	0	32830	32652	
2761	0	32748	32788	
2762	0	32704	32708	
2763	0	32830	32804	
2764	0	32840	32748	
2765	0	32960	32807	
2766	0	32902	32695	
2767	0	32872	32732	
2768	0	32852	32818	
2769	0	32864	32616	
2770	0	32820	32820	
2771	0	32836	32862	
2772	0	32868	32719	
2773	0	32864	32713	
2774	0	32864	32680	
2775	0	32740	32775	
2776	0	32756	32688	
2777	0	32728	32758	
2778	0	32810	32838	
2779	0	32820	32839	
2780	0	32778	32738	
2781	0	32812	32720	
2782	0	32768	32708	
2783	0	32774	32631	
2784	0	32784	32775	
2785	0	32836	32855	
2786	0	32736	32872	
2787	0	32756	32775	
2788	0	32796	32714	
2789	0	32766	32700	
2790	0	32768	32711	
2791	0	32664	32803	
2792	0	32758	32818	
2793	0	32848	32820	
2794	0	32784	32828	
2795	0	32884	32644	
2796	0	32812	32796	
2797	0	32852	32808	
2798	0	32872	32760	
2799	0	32832	32794	
2800	0	32920	32775	
2801	0	32862	32844	
2802	0	32900	32855	
2803	0	32926	32775	
2804	0	32884	32880	
2805	0	32860	32771	
2806	0	32914	32750	
2807	0	32792	32902	
2808	0	32846	32750	
2809	0	32740	32726	
2810	0	32782	32756	
2811	0	32830	32682	
2812	0	32744	32796	
2813	0	32836	32710	
2814	0	32806	32750	
2815	0	32820	32795	
2816	0	32898	32816	
2817	0	32748	32612	
2818	0	32864	32757	
2819	0	32820	32662	
2820	0	32816	32710	
2821	0	32746	32800	
2822	0	32788	32720	
2823	0	32836	32848	
2824	0	32831	32804	
2825	0	32800	32692	
2826	0	32776	32807	
2827	0	32868	32814	
2828	0	32746	32692	
2829	0	32740	32711	
2830	0	32808	32849	
2831	0	32836	32806	
2832	0	32810	32820	
2833	0	32944	32711	
2834	0	32840	32854	
2835	0	32816	32807	
2836	0	32750	32708	
2837	0	32810	32792	
2838	0	32814	32816	
2839	0	32752	32774	
2840	0	32866	32832	
2841	0	32844	32728	
2842	0	32856	32920	
2843	0	32854	32785	
2844	0	32900	32624	
2845	0	32902	32638	
2846	0	32872	32738	
2847	0	32936	32623	
2848	0	32914	32472	
2849	0	32888	32447	
2850	0	32900	32324	
2851	0	32816	32422	
2852	0	32878	32401	
2853	0	32944	32414	
2854	0	32868	32551	
2855	0	32696	32407	
2856	0	32868	32624	
2857	0	32844	32590	
2858	0	32708	32510	
2859	0	32724	32728	
2860	0	32702	32844	
2861	0	32700	32849	
2862	0	32668	32935	
2863	0	32698	33006	
2864	0	32672	33184	
2865	0	32692	33356	
2866	0	32644	33470	
2867	0	32570	33524	
2868	0	32608	33505	
2869	0	32660	33630	
2870	0	32657	33620	
2871	0	32804	33543	
2872	0	32836	33337	
2873	0	32836	33190	
2874	0	32718	32928	
2875	0	32724	32582	
2876	0	32644	32622	
2877	0	32708	32548	
2878	0	32764	32358	
2879	0	32784	32487	
2880	0	32804	32434	
2881	0	32808	32348	
2882	0	32736	32550	
2883	0	32800	32500	
2884	0	32792	32386	
2885	0	32908	32404	
2886	0	32924	32498	
2887	0	32952	32516	
2888	0	33010	32585	
2889	0	32986	32556	
2890	0	32960	32652	
2891	0	33001	32686	
2892	0	33016	32630	
2893	0	32940	32764	
2894	0	33024	32706	
2895	0	32916	32838	
2896	0	32820	32822	
2897	0	32876	32704	
2898	0	32902	32720	
2899	0	32842	32615	
2900	0	32868	32774	
2901	0	32928	32600	
2902	0	32848	32703	
2903	0	32748	32672	
2904	0	32862	32742	
2905	0	32796	32732	
2906	0	32702	32728	
2907	0	32960	32804	
2908	0	33052	32740	
2909	0	33095	32839	
2910	0	32754	32862	
2911	0	32618	32726	
2912	0	32636	32821	
2913	0	32620	32790	
2914	0	32552	32872	
2915	0	32624	32846	
2916	0	32610	32844	
2917	0	32644	32812	
2918	0	32644	32792	
2919	0	32736	32888	
2920	0	32780	32692	
2921	0	32820	32576	
2922	0	32865	32590	
2923	0	33044	32916	
2924	0	33022	32898	
2925	0	32692	32807	
2926	0	32830	32786	
2927	0	32846	32880	
2928	0	32852	32896	
2929	0	32970	32874	
2930	0	32796	32766	
2931	0	32885	32856	
2932	0	32848	32823	
2933	0	32704	32660	
2934	0	32700	32894	
2935	0	32766	32928	
2936	0	32756	32626	
2937	0	32733	32671	
2938	0	32592	32639	
2939	0	32836	32694	
2940	0	32784	32737	
2941	0	32944	32687	
2942	0	32904	32696	
2943	0	32796	32662	
2944	0	32832	32806	
2945	0	32740	32811	
2946	0	32898	32814	
2947	0	32824	32679	
2948	0	32772	32724	
2949	0	32730	32752	
2950	0	32856	32894	
2951	0	32810	32858	
2952	0	32798	32692	
2953	0	32766	32844	
2954	0	32852	32726	
2955	0	32876	32743	
2956	0	32938	32838	
2957	0	32924	32990	
2958	0	32878	32834	
2959	0	32888	32736	
2960	0	32753	32775	
2961	0	32796	32550	
2962	0	32724	32602	
2963	0	32726	32446	
2964	0	32804	32484	
2965	0	32930	32486	
2966	0	32944	32746	
2967	0	32834	32887	
2968	0	32874	32836	
2969	0	32812	32864	
2970	0	32868	32760	
2971	0	32744	32900	
2972	0	32648	32822	
2973	0	32741	32956	
2974	0	32738	32874	
2975	0	32700	32716	
2976	0	32758	32812	
2977	0	32844	32834	
2978	0	32808	32999	
2979	0	32780	32962	
2980	0	32772	32924	
2981	0	32856	32728	
2982	0	32870	32716	
2983	0	32784	32631	
2984	0	32714	32666	
2985	0	32744	32743	
2986	0	32868	32552	
2987	0	32954	32620	
2988	0	32986	32756	
2989	0	32976	32604	
2990	0	32812	32728	
2991	0	32592	32748	
2992	0	32596	32668	
2993	0	32672	32692	
2994	0	32764	32738	
2995	0	32912	32834	
2996	0	32898	32720	
2997	0	32784	32692	
2998	0	32784	32854	
2999	0	32934	32876	
3000	0	32748	32992	
3001	0	32778	33012	
3002	0	32770	32927	
3003	0	32816	32896	
3004	0	32764	32796	
3005	0	32732	32772	
3006	0	32820	32711	
3007	0	32804	32718	
3008	0	32856	32775	
3009	0	32884	32646	
3010	0	32724	32570	
3011	0	32916	32658	
3012	0	32878	32631	
3013	0	32944	32775	
3014	0	32894	32672	
3015	0	32844	32526	
3016	0	32768	32657	
3017	0	32836	32678	
3018	0	32816	32688	
3019	0	32884	32711	
3020	0	32708	32706	
3021	0	32728	32856	
3022	0	32850	32822	
3023	0	32876	33006	
3024	0	32680	32960	
3025	0	32600	32770	
3026	0	32656	32668	
3027	0	32788	32532	
3028	0	32828	32944	
3029	0	32852	33066	
3030	0	32916	32740	
3031	0	32900	32746	
3032	0	32952	32858	
3033	0	32874	33012	
3034	0	32672	32980	
3035	0	32806	32900	
3036	0	32824	32808	
3037	0	33008	32816	
3038	0	32962	32647	
3039	0	32746	32506	
3040	0	32756	32640	
3041	0	32724	32572	
3042	0	32692	32606	
3043	0	32740	32468	
3044	0	32726	32512	
3045	0	33072	32620	
3046	0	32924	32638	
3047	0	32604	32860	
3048	0	32714	32775	
3049	0	32784	32894	
3050	0	32836	32878	
3051	0	32920	32981	
3052	0	32880	32974	
3053	0	32856	32864	
3054	0	32802	32775	
3055	0	32878	32600	
3056	0	32859	32673	
3057	0	32784	32598	
3058	0	32922	32530	
3059	0	32828	32488	
3060	0	32696	32590	
3061	0	32740	32561	
3062	0	32740	32633	
3063	0	32816	32789	
3064	0	32858	32812	
3065	0	32864	32673	
3066	0	32744	32860	
3067	0	32754	32775	
3068	0	32766	32962	
3069	0	32820	32978	
3070	0	32810	32806	
3071	0	32818	32804	
3072	0	32720	32726	
3073	0	32894	32775	
3074	0	32972	32775	
3075	0	32736	32726	
3076	0	32812	32816	
3077	0	32868	32795	
3078	0	32828	32916	
3079	0	32836	32718	
3080	0	32872	32792	
3081	0	32908	32828	
3082	0	32740	32912	
3083	0	32924	32897	
3084	0	32880	32967	
3085	0	32776	32924	
3086	0	32980	32902	
3087	0	32720	32802	
3088	0	32682	32676	
3089	0	32746	32678	
3090	0	32666	32608	
3091	0	32906	32622	
3092	0	32836	32702	
3093	0	32908	32565	
3094	0	32816	32642	
3095	0	32964	32639	
3096	0	32768	32871	
3097	0	32650	32824	
3098	0	32624	32828	
3099	0	32612	32732	
3100	0	32612	32860	
3101	0	32748	32754	
3102	0	32772	33188	
3103	0	32860	33088	
3104	0	32736	32924	
3105	0	32892	32752	
3106	0	32938	32804	
3107	0	32720	32816	
3108	0	32724	32636	
3109	0	32856	32546	
3110	0	32750	32284	
3111	0	32780	32384	
3112	0	32800	32348	
3113	0	32740	32337	
3114	0	32804	32460	
3115	0	32920	32462	
3116	0	33118	32580	
3117	0	33012	32711	
3118	0	32548	32796	
3119	0	32832	32903	
3120	0	32782	33042	
3121	0	32796	33220	
3122	0	32812	32999	
3123	0	32922	32996	
3124	0	32884	32920	
3125	0	32844	32824	
3126	0	32804	32718	
3127	0	32806	32843	
3128	0	32672	32850	
3129	0	32760	32986	
3130	0	32812	32908	
3131	0	32808	32792	
3132	0	32697	32758	
3133	0	32784	32600	
3134	0	32792	32574	
3135	0	32856	32470	
3136	0	32826	32628	
3137	0	32988	32756	
3138	0	32922	32911	
3139	0	32812	32812	
3140	0	32764	32828	
3141	0	32866	32874	
3142	0	32628	32834	
3143	0	32900	32792	
3144	0	32828	32798	
3145	0	32876	32850	
3146	0	32912	32728	
3147	0	32828	32672	
3148	0	32820	32640	
3149	0	32688	32729	
3150	0	32778	32756	
3151	0	32844	32815	
3152	0	32890	32688	
3153	0	32916	32760	
3154	0	32700	32714	
3155	0	32832	32692	
3156	0	32692	32852	
3157	0	32800	32758	
3158	0	32704	32854	
3159	0	32968	32767	
3160	0	32824	32832	
3161	0	32756	32663	
3162	0	32782	32684	
3163	0	32832	32622	
3164	0	32638	32599	
3165	0	32844	32680	
3166	0	32924	32948	
3167	0	32720	32804	
3168	0	32921	32869	
3169	0	32900	32958	
3170	0	32884	32790	
3171	0	32810	32896	
3172	0	32764	32726	
3173	0	32828	32668	
3174	0	32872	32775	
3175	0	32852	32858	
3176	0	32592	32824	
3177	0	32904	32947	
3178	0	32656	32714	
3179	0	32772	32846	
3180	0	32716	32790	
3181	0	32726	32825	
3182	0	32670	32702	
3183	0	32770	32566	
3184	0	32780	32700	
3185	0	32804	32634	
3186	0	32906	32638	
3187	0	32580	32622	
3188	0	32600	32918	
3189	0	32788	32930	
3190	0	33064	32850	
3191	0	32904	32680	
3192	0	32932	32863	
3193	0	32874	32959	
3194	0	32914	32786	
3195	0	32756	32647	
3196	0	32788	32806	
3197	0	32917	32700	
3198	0	32852	32710	
3199	0	32666	32586	
3200	0	32704	32708	
3201	0	32788	32790	
3202	0	32836	32710	
3203	0	32784	32678	
3204	0	32884	32692	
3205	0	32868	32774	
3206	0	32754	32774	
3207	0	32858	32860	
3208	0	33068	32847	
3209	0	32804	33111	
3210	0	32952	33233	
3211	0	32872	33364	
3212	0	32864	33182	
3213	0	32708	32912	
3214	0	32712	32858	
3215	0	32710	32740	
3216	0	32864	32684	
3217	0	32716	32498	
3218	0	32798	32290	
3219	0	32828	32324	
3220	0	32796	32181	
3221	0	32764	32287	
3222	0	32820	32454	
3223	0	32780	32440	
3224	0	32814	32612	
3225	0	32676	32871	
3226	0	32920	32775	
3227	0	32808	32956	
3228	0	32720	32873	
3229	0	32844	33042	
3230	0	32820	33114	
3231	0	32836	32994	
3232	0	32926	32964	
3233	0	32936	32871	
3234	0	32794	33066	
3235	0	32912	33103	
3236	0	33024	32917	
3237	0	32858	32836	
3238	0	32800	32775	
3239	0	32798	32806	
3240	0	32876	32618	
3241	0	32892	32718	
3242	0	32672	32647	
3243	0	32700	32912	
3244	0	32744	32724	
3245	0	32896	32702	
3246	0	32552	32567	
3247	0	32604	32454	
3248	0	32753	32376	
3249	0	32724	32260	
3250	0	32624	32574	
3251	0	32920	32848	
3252	0	32904	32838	
3253	0	32768	33082	
3254	0	32756	33014	
3255	0	32816	33086	
3256	0	32972	33047	
3257	0	32812	33136	
3258	0	32744	33196	
3259	0	32764	32640	
3260	0	32952	32775	
3261	0	32880	32732	
3262	0	32894	32632	
3263	0	32744	32662	
3264	0	32956	32471	
3265	0	32900	32569	
3266	0	32904	32503	
3267	0	32816	32620	
3268	0	32784	32487	
3269	0	32686	32126	
3270	0	32768	32496	
3271	0	32790	32775	
3272	0	32708	32510	
3273	0	32602	32630	
3274	0	32536	32658	
3275	0	32744	33072	
3276	0	32740	33110	
3277	0	32772	32991	
3278	0	32780	33057	
3279	0	32906	32999	
3280	0	32908	33084	
3281	0	32822	33004	
3282	0	32880	32806	
3283	0	33096	32772	
3284	0	32854	32708	
3285	0	32892	32880	
3286	0	33132	32894	
3287	0	33002	32774	
3288	0	32752	32612	
3289	0	32972	32807	
3290	0	32644	33088	
3291	0	32654	32968	
3292	0	32752	32722	
3293	0	32824	32586	
3294	0	32610	32263	
3295	0	32630	32458	
3296	0	32676	32588	
3297	0	32716	32724	
3298	0	32724	32756	
3299	0	32700	32786	
3300	0	32716	32860	
3301	0	32874	32902	
3302	0	32796	32884	
3303	0	32912	32860	
3304	0	32958	32900	
3305	0	32978	32719	
3306	0	33082	32766	
3307	0	32814	32736	
3308	0	32768	33068	
3309	0	32936	32944	
3310	0	32764	32858	
3311	0	32764	32730	
3312	0	32890	32666	
3313	0	32708	32624	
3314	0	32876	32684	
3315	0	32800	33018	
3316	0	32642	32938	
3317	0	32860	32598	
3318	0	32704	32508	
3319	0	32704	32364	
3320	0	32794	32407	
3321	0	32810	32316	
3322	0	32970	32468	
3323	0	32774	32670	
3324	0	32638	32487	
3325	0	32882	32480	
3326	0	32816	32814	
3327	0	32858	33078	
3328	0	32745	32994	
3329	0	32800	32936	
3330	0	32704	33184	
3331	0	32778	33245	
3332	0	32824	33124	
3333	0	32884	32914	
3334	0	32916	32956	
3335	0	32756	33207	
3336	0	32700	33094	
3337	0	32794	33052	
3338	0	32932	32868	
3339	0	32764	32781	
3340	0	32640	32592	
3341	0	32780	32546	
3342	0	33008	32676	
3343	0	33032	32553	
3344	0	32734	32500	
3345	0	32642	32364	
3346	0	32708	32282	
3347	0	32884	32254	
3348	0	32864	32262	
3349	0	32842	32418	
3350	0	32808	32462	
3351	0	32847	32602	
3352	0	32952	32772	
3353	0	32972	32986	
3354	0	32816	32990	
3355	0	32614	33284	
3356	0	32892	33767	
3357	0	32940	33761	
3358	0	32704	33500	
3359	0	32862	33102	
3360	0	32788	32774	
3361	0	32678	32230	
3362	0	32956	32065	
3363	0	32855	32116	
3364	0	32790	32348	
3365	0	32664	32224	
3366	0	32644	32332	
3367	0	32544	32316	
3368	0	32632	32244	
3369	0	32598	32444	
3370	0	32708	32640	
3371	0	32788	32604	
3372	0	32808	32836	
3373	0	32794	32775	
3374	0	33022	33102	
3375	0	33006	33468	
3376	0	32950	33444	
3377	0	33140	33439	
3378	0	32952	33354	
3379	0	32996	33440	
3380	0	32874	33260	
3381	0	32872	32949	
3382	0	32830	32978	
3383	0	32688	32710	
3384	0	32836	32736	
3385	0	32832	32436	
3386	0	32625	32511	
3387	0	32775	32564	
3388	0	32828	32714	
3389	0	32856	32618	
3390	0	32706	32234	
3391	0	32772	32516	
3392	0	32694	32287	
3393	0	32708	32295	
3394	0	32956	32452	
3395	0	32907	32679	
3396	0	32840	32718	
3397	0	32668	32894	
3398	0	32886	33026	
3399	0	32960	33170	
3400	0	32872	33077	
3401	0	32904	32996	
3402	0	32744	32696	
3403	0	32838	32392	
3404	0	32840	32366	
3405	0	32596	32775	
3406	0	32856	32719	
3407	0	32896	33008	
3408	0	32762	33094	
3409	0	32896	32838	
3410	0	32724	32998	
3411	0	32700	32806	
3412	0	32716	32838	
3413	0	32808	32664	
3414	0	32808	32650	
3415	0	32728	32404	
3416	0	32764	32610	
3417	0	32844	32750	
3418	0	32918	32660	
3419	0	32828	32916	
3420	0	32586	32948	
3421	0	32940	32860	
3422	0	32934	32766	
3423	0	32888	32863	
3424	0	32760	32880	
3425	0	32820	33156	
3426	0	32908	32880	
3427	0	32968	32671	
3428	0	32668	32580	
3429	0	32784	32534	
3430	0	32848	32516	
3431	0	32804	32868	
3432	0	32704	32832	
3433	0	32984	32592	
3434	0	32708	32580	
3435	0	33028	32890	
3436	0	32656	33012	
3437	0	32736	32970	
3438	0	32878	33012	
3439	0	32834	32742	
3440	0	32732	32679	
3441	0	32634	32612	
3442	0	32672	32567	
3443	0	32686	32460	
3444	0	32916	32494	
3445	0	32762	32548	
3446	0	32720	32447	
3447	0	32964	32535	
3448	0	32876	32684	
3449	0	32856	32668	
3450	0	32876	32916	
3451	0	32800	33167	
3452	0	32808	33231	
3453	0	32865	33392	
3454	0	32684	33350	
3455	0	32904	33172	
3456	0	32916	32886	
3457	0	33084	32820	
3458	0	33012	32460	
3459	0	32666	32382	
3460	0	32808	32482	
3461	0	32876	32682	
3462	0	33118	32711	
3463	0	32848	32308	
3464	0	32710	32400	
3465	0	32768	32448	
3466	0	32732	32691	
3467	0	32736	32828	
3468	0	32748	33030	
3469	0	32798	33350	
3470	0	32728	33191	
3471	0	32704	33138	
3472	0	32684	33194	
3473	0	32802	33140	
3474	0	32764	32950	
3475	0	32732	32632	
3476	0	32856	32332	
3477	0	33120	32358	
3478	0	32904	32378	
3479	0	32696	32600	
3480	0	32740	32562	
3481	0	32752	32388	
3482	0	32950	32837	
3483	0	32900	32812	
3484	0	32800	32743	
3485	0	32769	32826	
3486	0	32864	32876	
3487	0	32822	32870	
3488	0	32900	32912	
3489	0	32636	32660	
3490	0	32808	32876	
3491	0	32980	32879	
3492	0	32818	32732	
3493	0	32892	32655	
3494	0	32852	32712	
3495	0	32788	32700	
3496	0	32716	32864	
3497	0	32768	32820	
3498	0	32834	32894	
3499	0	32864	32742	
3500	0	32868	32674	
3501	0	32800	32874	
3502	0	32794	32828	
3503	0	32800	32862	
3504	0	32730	32732	
3505	0	32908	32792	
3506	0	32964	32686	
3507	0	32960	32558	
3508	0	32746	32414	
3509	0	32864	32474	
3510	0	32920	32536	
3511	0	32836	32634	
3512	0	33034	32666	
3513	0	32868	32820	
3514	0	32872	32726	
3515	0	32988	32886	
3516	0	32836	32612	
3517	0	32917	32364	
3518	0	32670	32310	
3519	0	32722	32122	
3520	0	32664	32149	
3521	0	32654	32284	
3522	0	32744	32680	
3523	0	32724	32378	
3524	0	32644	32390	
3525	0	32645	32647	
3526	0	32640	33070	
3527	0	32674	33486	
3528	0	32664	33772	
3529	0	32608	33736	
3530	0	32600	33734	
3531	0	32480	33884	
3532	0	32644	33822	
3533	0	32832	34028	
3534	0	32944	34183	
3535	0	32910	34016	
3536	0	32566	33688	
3537	0	32810	33297	
3538	0	32780	32892	
3539	0	32868	32576	
3540	0	32792	32486	
3541	0	32620	32300	
3542	0	32620	31709	
3543	0	32786	31608	
3544	0	32836	31756	
3545	0	32932	31805	
3546	0	32916	31870	
3547	0	32788	31730	
3548	0	32994	31863	
3549	0	33028	32549	
3550	0	32864	32615	
3551	0	32944	32615	
3552	0	32856	32916	
3553	0	32720	32825	
3554	0	32984	32708	
3555	0	33184	33168	
3556	0	32714	33180	
3557	0	32784	33286	
3558	0	32890	33084	
3559	0	32954	33006	
3560	0	33156	32978	
3561	0	33226	32775	
3562	0	32992	32542	
3563	0	32992	32338	
3564	0	32714	32358	
3565	0	32816	32266	
3566	0	32848	32436	
3567	0	32672	32534	
3568	0	32744	32702	
3569	0	32576	32748	
3570	0	32684	32790	
3571	0	32744	32938	
3572	0	32504	32980	
3573	0	32768	33050	
3574	0	32948	32984	
3575	0	32724	33073	
3576	0	32648	33510	
3577	0	32856	33366	
3578	0	32852	33156	
3579	0	32748	32793	
3580	0	32802	32775	
3581	0	32724	32644	
3582	0	32788	32660	
3583	0	32792	32423	
3584	0	32810	32232	
3585	0	32810	32199	
3586	0	32856	32263	
3587	0	32944	32636	
3588	0	32768	32868	
3589	0	32844	33191	
3590	0	32870	33182	
3591	0	32922	32991	
3592	0	32906	32938	
3593	0	32704	32774	
3594	0	32672	32580	
3595	0	32920	32500	
3596	0	32810	32348	
3597	0	32808	32324	
3598	0	32794	32452	
3599	0	32812	32516	
3600	0	32964	32699	
3601	0	32776	32832	
3602	0	32928	32917	
3603	0	32718	32555	
3604	0	32790	32670	
3605	0	32826	33348	
3606	0	32738	33751	
3607	0	33178	33383	
3608	0	32724	33182	
3609	0	32860	32922	
3610	0	32684	32641	
3611	0	32977	32470	
3612	0	32832	32513	
3613	0	32648	32176	
3614	0	32564	32399	
3615	0	32608	32687	
3616	0	32552	32840	
3617	0	32744	32812	
3618	0	32688	32712	
3619	0	32704	32810	
3620	0	32586	32929	
3621	0	32702	33190	
3622	0	32956	33364	
3623	0	32908	33031	
3624	0	32870	33094	
3625	0	32938	32892	
3626	0	32928	32662	
3627	0	33054	32670	
3628	0	33028	32430	
3629	0	32832	32288	
3630	0	32848	32084	
3631	0	32690	32044	
3632	0	32916	32234	
3633	0	32720	32314	
3634	0	32772	32615	
3635	0	33076	32868	
3636	0	32742	33034	
3637	0	32588	32916	
3638	0	32728	33192	
3639	0	32768	33159	
3640	0	32804	32982	
3641	0	32736	32960	
3642	0	32740	32958	
3643	0	32688	32810	
3644	0	32734	32816	
3645	0	32884	32986	
3646	0	32764	32884	
3647	0	32880	32838	
3648	0	33028	32834	
3649	0	32960	32814	
3650	0	33026	33145	
3651	0	32960	33346	
3652	0	32784	33086	
3653	0	32812	32628	
3654	0	33104	32398	
3655	0	32816	32326	
3656	0	32720	32420	
3657	0	32676	32424	
3658	0	32872	32194	
3659	0	32756	32218	
3660	0	32644	32290	
3661	0	32728	32536	
3662	0	33098	32704	
3663	0	32864	33287	
3664	0	32748	33094	
3665	0	32776	32832	
3666	0	32986	32808	
3667	0	32726	32972	
3668	0	32512	33134	
3669	0	32720	33124	
3670	0	32858	33276	
3671	0	32830	33158	
3672	0	32536	32901	
3673	0	32752	32775	
3674	0	32668	32734	
3675	0	32750	32684	
3676	0	32638	32488	
3677	0	32700	32551	
3678	0	32868	32390	
3679	0	32800	32324	
3680	0	32984	32196	
3681	0	32870	32319	
3682	0	32976	32172	
3683	0	32840	32516	
3684	0	32872	32722	
3685	0	32900	33014	
3686	0	32892	32836	
3687	0	32916	32920	
3688	0	32960	33566	
3689	0	33102	33583	
3690	0	32844	33550	
3691	0	32914	33334	
3692	0	32970	33360	
3693	0	32868	33154	
3694	0	32568	33266	
3695	0	32553	32410	
3696	0	32646	32074	
3697	0	32912	32038	
3698	0	32856	32016	
3699	0	32884	32314	
3700	0	32786	32344	
3701	0	32552	31960	
3702	0	32484	31810	
3703	0	32744	32198	
3704	0	32878	32935	
3705	0	32602	33058	
3706	0	32968	32903	
3707	0	32632	32998	
3708	0	32868	33052	
3709	0	32884	33066	
3710	0	32756	33135	
3711	0	32678	33031	
3712	0	32792	33076	
3713	0	32888	33127	
3714	0	32960	32916	
3715	0	32794	32932	
3716	0	32912	32894	
3717	0	32824	32827	
3718	0	32816	32770	
3719	0	32816	32712	
3720	0	32844	32644	
3721	0	33144	32666	
3722	0	33016	32888	
3723	0	32540	33311	
3724	0	32910	33718	
3725	0	33024	33308	
3726	0	32958	32966	
3727	0	32772	32524	
3728	0	32776	32224	
3729	0	32912	32110	
3730	0	32812	32324	
3731	0	32528	32182	
3732	0	32497	31976	
3733	0	32708	32156	
3734	0	33054	32127	
3735	0	32798	32252	
3736	0	32804	32278	
3737	0	32714	32594	
3738	0	32556	32748	
3739	0	32872	32868	
3740	0	32722	33238	
3741	0	32800	33627	
3742	0	32688	33975	
3743	0	33014	34103	
3744	0	32999	33536	
3745	0	32848	32966	
3746	0	32700	32950	
3747	0	33040	32798	
3748	0	32858	32614	
3749	0	32550	32262	
3750	0	32500	32063	
3751	0	32830	32158	
3752	0	32980	32080	
3753	0	32824	32424	
3754	0	32912	32716	
3755	0	32768	32583	
3756	0	32672	32822	
3757	0	32640	32812	
3758	0	32664	32879	
3759	0	32804	32892	
3760	0	32888	32799	
3761	0	32646	32540	
3762	0	32820	32794	
3763	0	32942	33123	
3764	0	32898	32990	
3765	0	32788	32832	
3766	0	32848	32928	
3767	0	32820	33156	
3768	0	32700	33311	
3769	0	33056	33642	
3770	0	33376	33580	
3771	0	33228	33212	
3772	0	33496	33047	
3773	0	32556	32607	
3774	0	32596	31632	
3775	0	32756	31562	
3776	0	32408	32100	
3777	0	32620	32378	
3778	0	32508	32058	
3779	0	32384	31924	
3780	0	32462	32182	
3781	0	32708	32452	
3782	0	32868	32724	
3783	0	32452	32826	
3784	0	32676	32912	
3785	0	32912	33106	
3786	0	32996	33175	
3787	0	32974	33335	
3788	0	33052	33356	
3789	0	33016	33437	
3790	0	33016	33402	
3791	0	32948	33569	
3792	0	32660	32990	
3793	0	32698	32719	
3794	0	33072	32468	
3795	0	32624	32300	
3796	0	32770	32102	
3797	0	32828	32204	
3798	0	32842	32573	
3799	0	32976	32550	
3800	0	32848	32536	
3801	0	32904	32500	
3802	0	32984	32564	
3803	0	32644	32862	
3804	0	33084	33028	
3805	0	33160	33480	
3806	0	32388	33648	
3807	0	32985	33356	
3808	0	32774	33304	
3809	0	32648	32862	
3810	0	32932	32775	
3811	0	33002	32312	
3812	0	32464	31968	
3813	0	32474	31948	
3814	0	32674	32070	
3815	0	32476	31999	
3816	0	32804	31988	
3817	0	32868	32356	
3818	0	32852	32822	
3819	0	32628	32537	
3820	0	32936	32784	
3821	0	32872	33028	
3822	0	32974	33020	
3823	0	33072	33120	
3824	0	32860	33063	
3825	0	33056	33342	
3826	0	32846	33190	
3827	0	32788	33172	
3828	0	32968	33204	
3829	0	32780	33146	
3830	0	32936	32736	
3831	0	33188	32807	
3832	0	33056	32631	
3833	0	32450	32775	
3834	0	32556	32674	
3835	0	32754	32449	
3836	0	32990	32337	
3837	0	32784	32406	
3838	0	32724	33068	
3839	0	32552	33994	
3840	0	32572	33958	
3841	0	32500	33114	
3842	0	32584	32772	
3843	0	32800	32350	
3844	0	33116	31972	
3845	0	32926	31894	
3846	0	32876	31786	
3847	0	32838	31640	
3848	0	33324	31434	
3849	0	32916	32224	
3850	0	32665	33208	
3851	0	32796	33080	
3852	0	32636	33188	
3853	0	33152	33194	
3854	0	33024	33200	
3855	0	32536	33271	
3856	0	32580	33196	
3857	0	33018	32799	
3858	0	32952	33007	
3859	0	32634	33050	
3860	0	32569	33159	
3861	0	32766	33206	
3862	0	33018	32912	
3863	0	33012	32894	
3864	0	32776	32492	
3865	0	32708	32482	
3866	0	32680	32990	
3867	0	32784	32828	
3868	0	32580	32849	
3869	0	32366	33028	
3870	0	32654	33062	
3871	0	32916	32705	
3872	0	32860	32256	
3873	0	32862	32302	
3874	0	32944	32135	
3875	0	32932	31751	
3876	0	33200	31704	
3877	0	33208	32584	
3878	0	32986	33543	
3879	0	32730	33596	
3880	0	32825	33340	
3881	0	33144	33063	
3882	0	32864	32614	
3883	0	32130	32344	
3884	0	32566	32420	
3885	0	32656	32576	
3886	0	32852	32446	
3887	0	33234	32416	
3888	0	32466	32628	
3889	0	32458	32756	
3890	0	32864	32754	
3891	0	32552	32999	
3892	0	32868	32870	
3893	0	32816	32863	
3894	0	32476	33548	
3895	0	33028	33367	
3896	0	33028	33144	
3897	0	33088	32822	
3898	0	32882	32700	
3899	0	32772	32738	
3900	0	32900	32535	
3901	0	33014	32415	
3902	0	32690	32308	
3903	0	32842	32508	
3904	0	32813	32564	
3905	0	32825	32608	
3906	0	32512	32820	
3907	0	32558	32922	
3908	0	33052	33196	
3909	0	32948	33474	
3910	0	32978	33198	
3911	0	32970	33368	
3912	0	32690	33092	
3913	0	32686	32868	
3914	0	32934	32809	
3915	0	33180	32550	
3916	0	33016	32020	
3917	0	32728	32361	
3918	0	32772	33030	
3919	0	32976	32304	
3920	0	32748	31966	
3921	0	32584	32298	
3922	0	32232	32326	
3923	0	32836	32550	
3924	0	33044	32964	
3925	0	32624	32980	
3926	0	33008	32881	
3927	0	32564	33410	
3928	0	32796	33542	
3929	0	32774	33041	
3930	0	32504	32398	
3931	0	32732	32056	
3932	0	32890	31914	
3933	0	32728	32532	
3934	0	32756	32526	
3935	0	32752	32559	
3936	0	32920	32978	
3937	0	32968	32766	
3938	0	32850	33418	
3939	0	32880	33190	
3940	0	32736	32982	
3941	0	32898	32646	
3942	0	32936	32534	
3943	0	32908	32698	
3944	0	32804	32746	
3945	0	33028	33006	
3946	0	32860	33340	
3947	0	33220	33310	
3948	0	32774	33432	
3949	0	32340	33173	
3950	0	33188	33436	
3951	0	33362	33252	
3952	0	32640	32928	
3953	0	32524	32871	
3954	0	32300	32449	
3955	0	32420	32188	
3956	0	33004	31820	
3957	0	32794	32024	
3958	0	32998	32166	
3959	0	32516	32051	
3960	0	33060	31952	
3961	0	32832	32380	
3962	0	32640	32626	
3963	0	32708	32655	
3964	0	32816	32686	
3965	0	32808	33022	
3966	0	32704	33214	
3967	0	32628	33338	
3968	0	32870	33439	
3969	0	32796	33110	
3970	0	32788	33334	
3971	0	32752	33086	
3972	0	32834	32646	
3973	0	32860	32713	
3974	0	32892	32624	
3975	0	32980	32760	
3976	0	32736	32638	
3977	0	32970	32668	
3978	0	33288	32168	
3979	0	32898	32806	
3980	0	32955	32638	
3981	0	32488	32440	
3982	0	32750	32384	
3983	0	32964	32615	
3984	0	33120	32486	
3985	0	32852	32666	
3986	0	32628	32919	
3987	0	33032	33196	
3988	0	32632	33220	
3989	0	32916	32943	
3990	0	32536	33344	
3991	0	32458	33870	
3992	0	32692	33896	
3993	0	32334	33036	
3994	0	32616	32712	
3995	0	32784	32407	
3996	0	32721	32422	
3997	0	32816	32596	
3998	0	32944	32602	
3999	0	33248	32593	
4000	0	33328	32618	
4001	0	33600	33074	
4002	0	33296	33306	
4003	0	32310	33207	
4004	0	32804	32630	
4005	0	32938	32236	
4006	0	32504	31938	
4007	0	32358	31844	
4008	0	32672	31396	
4009	0	32796	31388	
4010	0	32744	31268	
4011	0	32700	31838	
4012	0	32456	32608	
4013	0	32492	33326	
4014	0	32868	33632	
4015	0	32823	33814	
4016	0	32893	34076	
4017	0	32994	33748	
4018	0	33137	33718	
4019	0	33122	33401	
4020	0	32590	32882	
4021	0	33090	32446	
4022	0	32868	32490	
4023	0	33081	32472	
4024	0	33058	32452	
4025	0	32202	32212	
4026	0	33104	32172	
4027	0	32510	32332	
4028	0	32750	32887	
4029	0	32886	33492	
4030	0	33588	33608	
4031	0	32818	33640	
4032	0	32213	33318	
4033	0	32712	33542	
4034	0	33208	33210	
4035	0	32992	32742	
4036	0	32174	31830	
4037	0	32516	31722	
4038	0	32372	31470	
4039	0	32884	31444	
4040	0	32852	31340	
4041	0	32808	31556	
4042	0	32616	32238	
4043	0	32872	32122	
4044	0	32740	32800	
4045	0	32896	34014	
4046	0	33000	33935	
4047	0	32824	33732	
4048	0	33164	33418	
4049	0	32828	33480	
4050	0	32808	33285	
4051	0	33264	33330	
4052	0	32794	33218	
4053	0	32788	33044	
4054	0	32760	33068	
4055	0	32708	33004	
4056	0	32752	32881	
4057	0	32876	32754	
4058	0	32596	32579	
4059	0	32702	32476	
4060	0	32484	32260	
4061	0	33052	32372	
4062	0	32736	32218	
4063	0	32916	32356	
4064	0	32874	32692	
4065	0	32954	32892	
4066	0	32625	33028	
4067	0	33052	33190	
4068	0	33256	33144	
4069	0	32762	33242	
4070	0	33144	32984	
4071	0	32564	33192	
4072	0	32682	33511	
4073	0	32544	33301	
4074	0	32544	32992	
4075	0	33040	32428	
4076	0	32774	32408	
4077	0	32416	31998	
4078	0	32636	31798	
4079	0	32720	31840	
4080	0	32964	31584	
4081	0	32756	31468	
4082	0	32702	32020	
4083	0	32760	32766	
4084	0	32716	32951	
4085	0	33000	33274	
4086	0	32912	33254	
4087	0	33032	33205	
4088	0	32784	33391	
4089	0	32980	33871	
4090	0	32772	33887	
4091	0	33540	33761	
4092	0	32380	33262	
4093	0	32872	32708	
4094	0	33044	32492	
4095	0	32696	32183	
4096	0	32860	32004	
4097	0	32896	31780	
4098	0	32942	31836	
4099	0	32160	31643	
4100	0	32588	32228	
4101	0	33158	32786	
4102	0	32604	33018	
4103	0	32860	32999	
4104	0	32900	33214	
4105	0	32756	33210	
4106	0	32796	33094	
4107	0	32872	33364	
4108	0	32732	33272	
4109	0	32756	32883	
4110	0	32726	32551	
4111	0	32698	32422	
4112	0	32680	32710	
4113	0	32876	32792	
4114	0	32834	32672	
4115	0	32840	32862	
4116	0	32842	32836	
4117	0	32818	32874	
4118	0	32874	32941	
4119	0	32996	32764	
4120	0	32910	32742	
4121	0	32828	32656	
4122	0	32840	32644	
4123	0	33012	32750	
4124	0	33196	32847	
4125	0	32928	32900	
4126	0	32712	33164	
4127	0	32644	33096	
4128	0	32580	32988	
4129	0	32968	32730	
4130	0	33044	32722	
4131	0	32664	32646	
4132	0	32900	32626	
4133	0	33088	32430	
4134	0	32760	32566	
4135	0	32608	32536	
4136	0	32614	32558	
4137	0	32736	32852	
4138	0	32636	32949	
4139	0	32696	32764	
4140	0	32832	33031	
4141	0	32602	32902	
4142	0	32860	32846	
4143	0	32960	32716	
4144	0	33052	32655	
4145	0	32706	32470	
4146	0	32692	32684	
4147	0	32852	32742	
4148	0	32892	32636	
4149	0	32924	32666	
4150	0	33057	32944	
4151	0	32716	33230	
4152	0	33128	33382	
4153	0	32648	33366	
4154	0	32852	32868	
4155	0	32781	32536	
4156	0	32536	32448	
4157	0	32572	32053	
4158	0	32854	31722	
4159	0	32876	32007	
4160	0	32912	32116	
4161	0	32964	32230	
4162	0	32928	32244	
4163	0	32772	32538	
4164	0	32936	32644	
4165	0	33024	32746	
4166	0	32986	32702	
4167	0	32768	32902	
4168	0	32856	32896	
4169	0	32916	33191	
4170	0	32868	33258	
4171	0	32756	33096	
4172	0	32844	32928	
4173	0	32792	32761	
4174	0	32926	32970	
4175	0	32700	33095	
4176	0	32762	33270	
4177	0	32804	33338	
4178	0	32636	33319	
4179	0	32706	32948	
4180	0	32784	32680	
4181	0	32830	32644	
4182	0	32670	32456	
4183	0	32184	32494	
4184	0	32480	32870	
4185	0	32468	32928	
4186	0	32576	33287	
4187	0	32684	33510	
4188	0	32716	33471	
4189	0	32608	33510	
4190	0	32740	33182	
4191	0	32672	32879	
4192	0	32752	32610	
4193	0	32760	32320	
4194	0	32738	32252	
4195	0	32776	32156	
4196	0	32816	32344	
4197	0	32906	32378	
4198	0	32988	32480	
4199	0	33068	32602	
4200	0	33100	32537	
4201	0	33049	32752	
4202	0	33022	32858	
4203	0	33000	32868	
4204	0	33030	32838	
4205	0	33038	32710	
4206	0	32932	32711	
4207	0	33924	32828	
4208	0	32856	32880	
4209	0	32382	32916	
4210	0	32860	32796	
4211	0	33060	33095	
4212	0	32484	32926	
4213	0	32740	32747	
4214	0	32716	32607	
4215	0	32779	32680	
4216	0	32852	32550	
4217	0	32736	32402	
4218	0	32686	32544	
4219	0	32788	32366	
4220	0	32776	32514	
4221	0	32808	32538	
4222	0	32844	32580	
4223	0	32844	32718	
4224	0	32826	32703	
4225	0	32792	32932	
4226	0	32788	32940	
4227	0	32852	33084	
4228	0	32800	33012	
4229	0	32884	32970	
4230	0	32880	32974	
4231	0	32820	32967	
4232	0	32864	33050	
4233	0	32908	32986	
4234	0	32876	33180	
4235	0	32776	33528	
4236	0	32756	33536	
4237	0	32804	33440	
4238	0	32854	32878	
4239	0	32990	32448	
4240	0	32798	32132	
4241	0	32982	31796	
4242	0	33004	31944	
4243	0	32692	31964	
4244	0	32704	32074	
4245	0	32556	32453	
4246	0	32690	32482	
4247	0	32836	32614	
4248	0	32758	32548	
4249	0	32700	32336	
4250	0	32970	32594	
4251	0	32718	32498	
4252	0	32648	32615	
4253	0	32908	32862	
4254	0	32628	32975	
4255	0	32796	33140	
4256	0	32782	33216	
4257	0	32830	33360	
4258	0	32844	33304	
4259	0	32796	33130	
4260	0	32906	33148	
4261	0	32876	33118	
4262	0	32810	32903	
4263	0	32802	32956	
4264	0	32852	32946	
4265	0	32886	32708	
4266	0	32897	32834	
4267	0	32844	32810	
4268	0	32740	32720	
4269	0	32788	32834	
4270	0	32814	32694	
4271	0	32804	32714	
4272	0	32964	32767	
4273	0	33044	32570	
4274	0	32846	32648	
4275	0	32952	32519	
4276	0	32740	32742	
4277	0	32762	32869	
4278	0	32394	32630	
4279	0	32566	32630	
4280	0	32792	32696	
4281	0	32996	32792	
4282	0	32732	32519	
4283	0	32798	32426	
4284	0	33088	32743	
4285	0	32654	32751	
4286	0	32780	32580	
4287	0	32720	32684	
4288	0	32896	32702	
4289	0	32800	32906	
4290	0	32820	33068	
4291	0	32848	32970	
4292	0	32926	32944	
4293	0	32849	33054	
4294	0	32848	32863	
4295	0	32796	32890	
4296	0	33084	32938	
4297	0	32654	32796	
4298	0	32862	32839	
4299	0	32900	32841	
4300	0	32712	32808	
4301	0	32910	32870	
4302	0	32748	32772	
4303	0	32791	32909	
4304	0	32928	32880	
4305	0	32632	32761	
4306	0	32714	32668	
4307	0	32720	32484	
4308	0	32940	32640	
4309	0	32872	32690	
4310	0	32744	32519	
4311	0	32834	32802	
4312	0	33116	32750	
4313	0	32724	32986	
4314	0	32886	32912	
4315	0	32744	32847	
4316	0	32644	32623	
4317	0	32592	32400	
4318	0	32736	32414	
4319	0	33044	32380	
4320	0	32268	32277	
4321	0	32398	32312	
4322	0	33112	32369	
4323	0	33073	32438	
4324	0	32760	32860	
4325	0	33012	32972	
4326	0	32902	32974	
4327	0	32684	32928	
4328	0	32972	33010	
4329	0	33024	33000	
4330	0	33000	32958	
4331	0	32890	32804	
4332	0	32660	32926	
4333	0	32669	32894	
4334	0	32732	32928	
4335	0	32656	32870	
4336	0	32808	32846	
4337	0	32688	32878	
4338	0	32784	32775	
4339	0	32766	32804	
4340	0	32686	32964	
4341	0	32812	33172	
4342	0	32844	33174	
4343	0	33016	33124	
4344	0	32690	32767	
4345	0	33124	32607	
4346	0	33176	32511	
4347	0	32746	32436	
4348	0	33228	32246	
4349	0	32584	32326	
4350	0	32648	32567	
4351	0	32640	32591	
4352	0	33312	32732	
4353	0	32548	32700	
4354	0	32520	32628	
4355	0	32856	32673	
4356	0	32829	32842	
4357	0	32768	32988	
4358	0	32796	32820	
4359	0	32782	32946	
4360	0	32886	32962	
4361	0	32852	32836	
4362	0	32804	32948	
4363	0	32828	32934	
4364	0	32800	32876	
4365	0	32932	33034	
4366	0	32752	33122	
4367	0	32928	33263	
4368	0	32864	33230	
4369	0	32936	32847	
4370	0	32984	32689	
4371	0	32865	32136	
4372	0	32876	31998	
4373	0	32928	31980	
4374	0	33060	32002	
4375	0	33068	32271	
4376	0	32812	32540	
4377	0	32752	32740	
4378	0	32768	32977	
4379	0	32552	33038	
4380	0	32632	33127	
4381	0	33084	33111	
4382	0	32340	33002	
4383	0	32256	32992	
4384	0	32418	33278	
4385	0	32984	33028	
4386	0	32664	32708	
4387	0	32652	32740	
4388	0	32792	32682	
4389	0	32816	32598	
4390	0	32796	32878	
4391	0	32748	32938	
4392	0	32832	32772	
4393	0	33016	32842	
4394	0	33156	32766	
4395	0	33056	32606	
4396	0	32980	32550	
4397	0	33084	32415	
4398	0	32654	32386	
4399	0	33284	32506	
4400	0	33268	32674	
4401	0	32664	32658	
4402	0	32404	32759	
4403	0	32446	32922	
4404	0	32668	32862	
4405	0	32590	33100	
4406	0	32180	33247	
4407	0	33012	33062	
4408	0	32558	33094	
4409	0	32616	32910	
4410	0	32628	33090	
4411	0	32936	32852	
4412	0	32812	32802	
4413	0	32696	32666	
4414	0	33010	32444	
4415	0	32920	32366	
4416	0	32578	32370	
4417	0	32849	32791	
4418	0	32857	33222	
4419	0	32966	32983	
4420	0	32680	32492	
4421	0	32829	32200	
4422	0	32844	32220	
4423	0	32880	32119	
4424	0	32792	32224	
4425	0	33014	32423	
4426	0	33008	32708	
4427	0	32830	32932	
4428	0	32841	33048	
4429	0	32960	33231	
4430	0	32936	33088	
4431	0	32888	33322	
4432	0	32576	33306	
4433	0	32858	33541	
4434	0	32988	33429	
4435	0	32768	33214	
4436	0	33050	32880	
4437	0	33436	32674	
4438	0	32946	32360	
4439	0	32980	32230	
4440	0	32676	32292	
4441	0	32616	32430	
4442	0	32748	32516	
4443	0	32572	32703	
4444	0	32654	32942	
4445	0	32736	32800	
4446	0	32596	32798	
4447	0	32604	32714	
4448	0	33024	32604	
4449	0	32984	32508	
4450	0	32864	32430	
4451	0	32984	32578	
4452	0	32244	32918	
4453	0	32770	32996	
4454	0	32788	32936	
4455	0	32512	32689	
4456	0	32580	32638	
4457	0	32624	32684	
4458	0	33156	32685	
4459	0	32818	32727	
4460	0	32782	32548	
4461	0	32900	32775	
4462	0	33050	32690	
4463	0	33208	32704	
4464	0	33168	32842	
4465	0	33356	32918	
4466	0	33332	32930	
4467	0	33170	32847	
4468	0	33126	32850	
4469	0	32688	32671	
4470	0	32372	32914	
4471	0	32452	32868	
4472	0	32300	32904	
4473	0	32460	32948	
4474	0	32380	32716	
4475	0	32348	32928	
4476	0	32872	32940	
4477	0	32952	32920	
4478	0	32254	32852	
4479	0	33264	32922	
4480	0	33138	33138	
4481	0	32426	33030	
4482	0	32332	32748	
4483	0	32482	32699	
4484	0	32712	32596	
4485	0	32548	32191	
4486	0	32660	32382	
4487	0	33100	32212	
4488	0	32692	32152	
4489	0	32856	32380	
4490	0	33000	32299	
4491	0	33250	32502	
4492	0	33388	32632	
4493	0	33154	32807	
4494	0	33004	32928	
4495	0	32672	32878	
4496	0	33052	32977	
4497	0	32904	32912	
4498	0	32700	33110	
4499	0	33380	33062	
4500	0	32900	32856	
4501	0	32592	32992	
4502	0	32692	32984	
4503	0	33372	32968	
4504	0	33012	32903	
4505	0	33074	32718	
4506	0	32432	33052	
4507	0	33166	33143	
4508	0	32696	32920	
4509	0	32624	32970	
4510	0	32602	32934	
4511	0	32288	32731	
4512	0	32400	32656	
4513	0	32484	32444	
4514	0	32752	32166	
4515	0	32912	32146	
4516	0	32630	32230	
4517	0	32769	32274	
4518	0	32944	32387	
4519	0	32872	32596	
4520	0	32940	32935	
4521	0	32852	32992	
4522	0	32880	32956	
4523	0	32784	33063	
4524	0	33140	33020	
4525	0	33024	32910	
4526	0	32846	32902	
4527	0	32906	32897	
4528	0	33368	33000	
4529	0	32484	32852	
4530	0	32534	32918	
4531	0	33038	32990	
4532	0	32434	32821	
4533	0	32652	33110	
4534	0	32548	33191	
4535	0	32732	33102	
4536	0	32644	32876	
4537	0	32812	32794	
4538	0	32720	32596	
4539	0	32700	32458	
4540	0	32932	32432	
4541	0	32968	32124	
4542	0	32762	32102	
4543	0	32612	32135	
4544	0	32794	32404	
4545	0	32788	32666	
4546	0	33044	32676	
4547	0	33313	32726	
4548	0	32886	32884	
4549	0	32872	32966	
4550	0	32542	32985	
4551	0	32684	33056	
4552	0	32560	33031	
4553	0	32774	33028	
4554	0	32440	32992	
4555	0	32520	32962	
4556	0	32744	32766	
4557	0	32572	32878	
4558	0	32830	33045	
4559	0	32770	33208	
4560	0	32828	33064	
4561	0	33076	32990	
4562	0	33152	33030	
4563	0	32692	32840	
4564	0	32932	32455	
4565	0	32566	32213	
4566	0	32840	31686	
4567	0	33096	32160	
4568	0	32638	32188	
4569	0	32720	32004	
4570	0	32856	32454	
4571	0	32886	32564	
4572	0	32932	32700	
4573	0	33024	33102	
4574	0	33112	33076	
4575	0	33212	33030	
4576	0	32640	33094	
4577	0	32950	33054	
4578	0	33064	33006	
4579	0	32712	33060	
4580	0	32780	33092	
4581	0	32800	32832	
4582	0	32572	32916	
4583	0	32872	32886	
4584	0	33092	33010	
4585	0	32300	32754	
4586	0	32356	32686	
4587	0	32808	32724	
4588	0	32980	32764	
4589	0	32808	32820	
4590	0	32448	32890	
4591	0	32420	32976	
4592	0	32304	32792	
4593	0	32968	33156	
4594	0	32752	33174	
4595	0	32850	32962	
4596	0	32688	32424	
4597	0	32764	32226	
4598	0	32598	32177	
4599	0	33200	32022	
4600	0	33188	31922	
4601	0	32976	31886	
4602	0	32396	32078	
4603	0	32942	32420	
4604	0	33144	32940	
4605	0	32630	33348	
4606	0	32548	33287	
4607	0	33093	33100	
4608	0	32552	32888	
4609	0	33052	33070	
4610	0	32688	32638	
4611	0	32884	32551	
4612	0	32908	32757	
4613	0	32986	32979	
4614	0	32656	33148	
4615	0	32832	33358	
4616	0	32810	33186	
4617	0	33359	32924	
4618	0	33300	32902	
4619	0	32436	32867	
4620	0	32580	32488	
4621	0	32794	32505	
4622	0	32644	32390	
4623	0	32437	32434	
4624	0	33020	32701	
4625	0	32542	32676	
4626	0	32798	32796	
4627	0	32420	32646	
4628	0	33180	32958	
4629	0	32844	33026	
4630	0	32933	33053	
4631	0	32692	33015	
4632	0	32750	32652	
4633	0	32762	32718	
4634	0	32970	32810	
4635	0	32710	32657	
4636	0	32812	32722	
4637	0	32816	32770	
4638	0	32728	32838	
4639	0	32820	32804	
4640	0	32776	32622	
4641	0	32832	32646	
4642	0	32782	32642	
4643	0	33312	32724	
4644	0	32704	32927	
4645	0	32804	32856	
4646	0	33420	32876	
4647	0	32344	32746	
4648	0	32888	32944	
4649	0	33016	33158	
4650	0	33384	33181	
4651	0	32510	33034	
4652	0	32012	32971	
4653	0	33216	32846	
4654	0	32364	32718	
4655	0	32406	32462	
4656	0	33202	32458	
4657	0	32718	32689	
4658	0	32840	32616	
4659	0	32673	33008	
4660	0	33004	34183	
4661	0	32504	34044	
4662	0	32506	33268	
4663	0	32792	32688	
4664	0	32773	31968	
4665	0	32788	31438	
4666	0	32760	31136	
4667	0	32808	31074	
4668	0	32906	31108	
4669	0	33332	31767	
4670	0	32456	32594	
4671	0	32524	33167	
4672	0	32564	33344	
4673	0	33064	32996	
4674	0	33064	32750	
4675	0	32864	32816	
4676	0	32680	32830	
4677	0	32996	32966	
4678	0	33084	33056	
4679	0	32608	33218	
4680	0	32824	33287	
4681	0	32716	33096	
4682	0	32602	33264	
4683	0	32572	33159	
4684	0	32792	32996	
4685	0	32964	33062	
4686	0	32852	33020	
4687	0	32534	32927	
4688	0	33768	32948	
4689	0	33032	32896	
4690	0	32812	32919	
4691	0	32913	33010	
4692	0	32408	32834	
4693	0	33346	32890	
4694	0	33096	32884	
4695	0	31908	32799	
4696	0	32176	32832	
4697	0	33178	32716	
4698	0	32712	32646	
4699	0	32810	32666	
4700	0	32778	32724	
4701	0	32564	32542	
4702	0	32880	33028	
4703	0	33152	32814	
4704	0	33652	32706	
4705	0	33324	32538	
4706	0	32196	32184	
4707	0	32096	32239	
4708	0	33273	32320	
4709	0	32240	32270	
4710	0	32282	32600	
4711	0	33626	32946	
4712	0	32964	33238	
4713	0	32824	33174	
4714	0	32852	32938	
4715	0	32684	32946	
4716	0	32420	32680	
4717	0	32560	32700	
4718	0	32916	32446	
4719	0	33028	32763	
4720	0	32852	32895	
4721	0	33376	33390	
4722	0	32912	33650	
4723	0	32584	33604	
4724	0	32616	33500	
4725	0	32856	33246	
4726	0	32718	32526	
4727	0	32964	32367	
4728	0	32582	31984	
4729	0	33212	31670	
4730	0	32888	31612	
4731	0	32952	30906	
4732	0	32608	31734	
4733	0	32724	33076	
4734	0	33032	33076	
4735	0	33091	32876	
4736	0	32566	32854	
4737	0	32968	32830	
4738	0	32282	32920	
4739	0	32572	33128	
4740	0	34240	33320	
4741	0	32136	33331	
4742	0	32992	33270	
4743	0	32612	33132	
4744	0	31940	33060	
4745	0	32830	33190	
4746	0	32900	33191	
4747	0	32814	32834	
4748	0	33144	32634	
4749	0	32528	32385	
4750	0	32632	32130	
4751	0	32844	32230	
4752	0	32734	32366	
4753	0	32740	32464	
4754	0	32662	32494	
4755	0	33012	32594	
4756	0	32884	32698	
4757	0	32932	32932	
4758	0	33032	33112	
4759	0	32746	33140	
4760	0	33016	33145	
4761	0	32544	33074	
4762	0	32688	32844	
4763	0	33208	32679	
4764	0	33040	32774	
4765	0	32868	32935	
4766	0	32626	32796	
4767	0	32834	32798	
4768	0	32688	32759	
4769	0	32576	32878	
4770	0	33408	32964	
4771	0	32618	32968	
4772	0	33140	32964	
4773	0	33272	32872	
4774	0	33104	32920	
4775	0	32666	33079	
4776	0	32454	33228	
4777	0	32154	33164	
4778	0	32520	33116	
4779	0	32794	32942	
4780	0	32432	32654	
4781	0	32690	32244	
4782	0	33020	31808	
4783	0	32522	31942	
4784	0	32530	31974	
4785	0	33424	32214	
4786	0	33110	32526	
4787	0	32766	32396	
4788	0	32740	32972	
4789	0	32740	32966	
4790	0	32776	32775	
4791	0	32752	32682	
4792	0	33178	32823	
4793	0	33236	32819	
4794	0	32578	33000	
4795	0	33336	33468	
4796	0	33194	33772	
4797	0	32738	33524	
4798	0	32652	33128	
4799	0	33320	32870	
4800	0	32238	32089	
4801	0	32244	31992	
4802	0	32428	32160	
4803	0	32526	31988	
4804	0	32856	32064	
4805	0	32942	32284	
4806	0	32654	32216	
4807	0	32777	32408	
4808	0	32912	32800	
4809	0	32914	32790	
4810	0	32746	32994	
4811	0	32882	32936	
4812	0	33008	33103	
4813	0	33012	33142	
4814	0	32652	33078	
4815	0	32808	33164	
4816	0	33192	33172	
4817	0	33276	33151	
4818	0	32880	33312	
4819	0	32241	33468	
4820	0	33132	33340	
4821	0	32988	33596	
4822	0	33016	33511	
4823	0	32194	33382	
4824	0	32860	32760	
4825	0	32436	32918	
4826	0	32640	32440	
4827	0	32620	32046	
4828	0	32808	31904	
4829	0	33080	31512	
4830	0	33024	31608	
4831	0	32976	31591	
4832	0	32722	31750	
4833	0	33016	31680	
4834	0	32740	31855	
4835	0	32810	32420	
4836	0	32864	32616	
4837	0	32772	32792	
4838	0	32636	32966	
4839	0	32750	32988	
4840	0	32876	33196	
4841	0	33012	33184	
4842	0	33184	33068	
4843	0	32880	33126	
4844	0	33042	33080	
4845	0	32800	32924	
4846	0	32984	32949	
4847	0	33140	32882	
4848	0	33164	32928	
4849	0	32458	33084	
4850	0	32636	33362	
4851	0	32500	33652	
4852	0	32676	33628	
4853	0	32564	33526	
4854	0	32392	33394	
4855	0	32848	33164	
4856	0	32388	33060	
4857	0	32036	32928	
4858	0	32780	32654	
4859	0	32656	32592	
4860	0	32924	32630	
4861	0	32532	32808	
4862	0	32668	32802	
4863	0	32724	32766	
4864	0	32656	32494	
4865	0	32666	32708	
4866	0	32960	32752	
4867	0	32772	32896	
4868	0	32896	32756	
4869	0	33196	32686	
4870	0	33320	32721	
4871	0	32996	33116	
4872	0	33108	33350	
4873	0	33152	33113	
4874	0	33094	33086	
4875	0	32680	32967	
4876	0	32878	32680	
4877	0	33028	32212	
4878	0	32716	31934	
4879	0	32668	31960	
4880	0	32502	32164	
4881	0	33124	32218	
4882	0	32960	31970	
4883	0	32788	31772	
4884	0	32868	31684	
4885	0	32980	31864	
4886	0	32860	31991	
4887	0	32830	32424	
4888	0	32952	32676	
4889	0	32772	32768	
4890	0	32872	33089	
4891	0	32808	33140	
4892	0	32936	33260	
4893	0	32778	33279	
4894	0	32814	33398	
4895	0	32798	33338	
4896	0	32900	33254	
4897	0	32850	33160	
4898	0	33010	33287	
4899	0	32748	33248	
4900	0	32828	33042	
4901	0	32703	33123	
4902	0	32752	33002	
4903	0	32778	32876	
4904	0	32800	32854	
4905	0	32504	32878	
4906	0	32760	32830	
4907	0	32886	32710	
4908	0	32740	32850	
4909	0	32648	32838	
4910	0	32878	32682	
4911	0	32876	32602	
4912	0	32836	32426	
4913	0	32760	32480	
4914	0	32734	32294	
4915	0	32794	32362	
4916	0	32616	32455	
4917	0	32758	32326	
4918	0	33130	32474	
4919	0	32852	32708	
4920	0	32820	32999	
4921	0	32780	33052	
4922	0	33068	32936	
4923	0	32874	32950	
4924	0	32692	32775	
4925	0	32732	32887	
4926	0	33240	32908	
4927	0	32716	32706	
4928	0	32788	32768	
4929	0	32528	32862	
4930	0	32664	32968	
4931	0	32600	32758	
4932	0	32668	32940	
4933	0	32744	33127	
4934	0	32676	32980	
4935	0	32848	32737	
4936	0	33128	32706	
4937	0	32896	32698	
4938	0	32806	32726	
4939	0	32798	32500	
4940	0	32696	32335	
4941	0	32620	32436	
4942	0	32842	32640	
4943	0	32988	32920	
4944	0	32940	32916	
4945	0	32780	32935	
4946	0	32840	32892	
4947	0	32764	32952	
4948	0	32720	32878	
4949	0	32768	32676	
4950	0	32780	32607	
4951	0	32764	32824	
4952	0	32917	33102	
4953	0	33004	33052	
4954	0	32736	32772	
4955	0	33144	32838	
4956	0	32873	32648	
4957	0	33356	32400	
4958	0	32422	32156	
4959	0	32548	31976	
4960	0	32672	31695	
4961	0	32820	32262	
4962	0	32738	32638	
4963	0	32652	32854	
4964	0	32884	32959	
4965	0	32676	32814	
4966	0	33056	32871	
4967	0	32800	33140	
4968	0	32820	33172	
4969	0	32772	33143	
4970	0	32764	33080	
4971	0	32686	32976	
4972	0	32624	33103	
4973	0	32854	32866	
4974	0	32764	32572	
4975	0	32920	32828	
4976	0	32752	33014	
4977	0	32904	32935	
4978	0	33048	33056	
4979	0	33236	33004	
4980	0	32732	32950	
4981	0	32852	32908	
4982	0	32736	32763	
4983	0	32956	32760	
4984	0	32842	32752	
4985	0	32922	32656	
4986	0	33140	32676	
4987	0	32722	32766	
4988	0	32876	32798	
4989	0	32684	32772	
4990	0	33152	32672	
4991	0	32508	32814	
4992	0	32366	32686	
4993	0	32362	32661	
4994	0	32808	32591	
4995	0	32888	32612	
4996	0	32920	32544	
4997	0	32642	32550	
4998	0	32576	32566	
4999	0	32684	32628	
5000	0	32808	32532	
5001	0	32664	32641	
5002	0	32970	32572	
5003	0	32840	32790	
5004	0	32918	32906	
5005	0	32822	32847	
5006	0	33074	32872	
5007	0	32828	33058	
5008	0	32840	32995	
5009	0	32732	32826	
5010	0	32836	32850	
5011	0	32964	32960	
5012	0	32676	32990	
5013	0	32748	32886	
5014	0	32812	32830	
5015	0	32788	32676	
5016	0	32928	32802	
5017	0	32892	32710	
5018	0	32768	32828	
5019	0	32964	32789	
5020	0	32622	32692	
5021	0	32652	32806	
5022	0	32904	32716	
5023	0	32945	32772	
5024	0	32544	32728	
5025	0	33337	32676	
5026	0	32484	32569	
5027	0	32616	32639	
5028	0	32900	32675	
5029	0	33024	32738	
5030	0	32760	32688	
5031	0	32612	32865	
5032	0	32668	32868	
5033	0	32820	32926	
5034	0	32726	32798	
5035	0	32780	32998	
5036	0	32848	33230	
5037	0	32836	33122	
5038	0	32996	32876	
5039	0	32764	33228	
5040	0	32740	32700	
5041	0	32480	32510	
5042	0	32768	32288	
5043	0	32624	31888	
5044	0	32654	31751	
5045	0	32868	31960	
5046	0	32684	32220	
5047	0	32772	32358	
5048	0	32758	32522	
5049	0	32900	32552	
5050	0	32960	32742	
5051	0	32816	32852	
5052	0	32820	33061	
5053	0	32828	33156	
5054	0	32922	33191	
5055	0	32700	33372	
5056	0	32980	33162	
5057	0	32960	33215	
5058	0	32846	33223	
5059	0	32848	32961	
5060	0	32818	32964	
5061	0	32828	32668	
5062	0	32774	32855	
5063	0	32828	32766	
5064	0	32852	32702	
5065	0	32772	32534	
5066	0	32908	32868	
5067	0	33002	32903	
5068	0	33092	32858	
5069	0	32616	32807	
5070	0	32662	32670	
5071	0	32958	32730	
5072	0	32692	32678	
5073	0	32918	32754	
5074	0	32888	32756	
5075	0	32588	32775	
5076	0	32696	32882	
5077	0	33000	32727	
5078	0	32740	32871	
5079	0	32600	32758	
5080	0	32962	32839	
5081	0	32704	32852	
5082	0	32760	32757	
5083	0	32834	32654	
5084	0	32780	32580	
5085	0	32734	32698	
5086	0	32744	32706	
5087	0	32856	32834	
5088	0	32836	32764	
5089	0	32866	32754	
5090	0	32904	32833	
5091	0	32724	32916	
5092	0	32872	32868	
5093	0	32796	32692	
5094	0	32908	32756	
5095	0	32712	32688	
5096	0	33068	32775	
5097	0	32796	32820	
5098	0	32712	32624	
5099	0	32760	32798	
5100	0	32752	32916	
5101	0	32636	32744	
5102	0	32616	32682	
5103	0	32800	32682	
5104	0	32914	32766	
5105	0	32564	32918	
5106	0	32592	32980	
5107	0	32908	33340	
5108	0	32860	33454	
5109	0	32714	33188	
5110	0	33076	32826	
5111	0	32972	32744	
5112	0	32428	32346	
5113	0	32932	32132	
5114	0	32916	32134	
5115	0	32696	32150	
5116	0	32952	32316	
5117	0	32862	32640	
5118	0	32804	32672	
5119	0	32740	32774	
5120	0	32816	32958	
5121	0	32804	32800	
5122	0	32886	32834	
5123	0	32884	32641	
5124	0	32956	32486	
5125	0	32822	32636	
5126	0	32884	32816	
5127	0	32952	32844	
5128	0	32852	33070	
5129	0	32864	33003	
5130	0	32980	32882	
5131	0	32928	32998	
5132	0	32682	32800	
5133	0	32744	32842	
5134	0	32676	32984	
5135	0	32952	32960	
5136	0	32644	32802	
5137	0	32836	32842	
5138	0	32898	32871	
5139	0	32662	32750	
5140	0	32672	32754	
5141	0	32816	32738	
5142	0	32740	32703	
5143	0	32916	32800	
5144	0	32828	32793	
5145	0	32808	32671	
5146	0	32828	32792	
5147	0	32964	32752	
5148	0	32800	32852	
5149	0	32744	33116	
5150	0	32788	32860	
5151	0	32782	32904	
5152	0	32648	32912	
5153	0	32732	32798	
5154	0	32846	32666	
5155	0	32900	32604	
5156	0	32920	32620	
5157	0	32916	32544	
5158	0	32872	32382	
5159	0	32861	32534	
5160	0	32801	32596	
5161	0	32824	32460	
5162	0	32852	32624	
5163	0	32820	32657	
5164	0	32774	32660	
5165	0	32798	32844	
5166	0	32948	32854	
5167	0	32852	32766	
5168	0	32641	33010	
5169	0	32782	32960	
5170	0	32784	33068	
5171	0	32800	33147	
5172	0	32676	33156	
5173	0	32720	32964	
5174	0	32840	33063	
5175	0	32676	32942	
5176	0	32884	32740	
5177	0	32880	32703	
5178	0	32766	32452	
5179	0	32792	32322	
5180	0	32768	32426	
5181	0	32654	32502	
5182	0	32822	32454	
5183	0	33000	32324	
5184	0	32738	32434	
5185	0	32884	32439	
5186	0	32872	32771	
5187	0	32824	32879	
5188	0	32846	32992	
5189	0	32788	33006	
5190	0	32718	32992	
5191	0	32930	32982	
5192	0	32789	33036	
5193	0	32840	32852	
5194	0	32748	32775	
5195	0	32714	32814	
5196	0	32792	32855	
5197	0	32802	32758	
5198	0	32852	32934	
5199	0	33022	32986	
5200	0	32872	32863	
5201	0	32726	32788	
5202	0	33044	32764	
5203	0	33086	32948	
5204	0	32652	33031	
5205	0	32782	33095	
5206	0	32758	32935	
5207	0	32846	32854	
5208	0	32760	32604	
5209	0	32552	32644	
5210	0	32722	32583	
5211	0	32842	32479	
5212	0	32832	32448	
5213	0	32776	32440	
5214	0	32896	32556	
5215	0	32904	32618	
5216	0	32748	32588	
5217	0	32844	32486	
5218	0	32920	32556	
5219	0	32784	32554	
5220	0	32786	32454	
5221	0	32788	32494	
5222	0	32740	32724	
5223	0	32884	32890	
5224	0	33022	32902	
5225	0	32688	33040	
5226	0	32724	32908	
5227	0	32768	32950	
5228	0	32784	33050	
5229	0	32718	32908	
5230	0	32696	32935	
5231	0	32808	32922	
5232	0	32816	32788	
5233	0	32788	32903	
5234	0	32928	32868	
5235	0	32776	32760	
5236	0	32836	32858	
5237	0	32818	32998	
5238	0	32876	32935	
5239	0	32814	32884	
5240	0	32788	32800	
5241	0	32736	32728	
5242	0	32686	32792	
5243	0	32720	32612	
5244	0	32820	32560	
5245	0	32808	32559	
5246	0	32868	32551	
5247	0	32852	32806	
5248	0	32806	32848	
5249	0	32884	32540	
5250	0	32864	32481	
5251	0	32910	32500	
5252	0	32912	32452	
5253	0	32872	32658	
5254	0	32792	32555	
5255	0	32748	32714	
5256	0	32792	32727	
5257	0	32758	32758	
5258	0	32820	32697	
5259	0	32768	32872	
5260	0	32816	32988	
5261	0	32724	32710	
5262	0	32804	33031	
5263	0	32760	32961	
5264	0	32680	32932	
5265	0	32752	33023	
5266	0	32728	33010	
5267	0	32668	32852	
5268	0	32970	32914	
5269	0	32796	32839	
5270	0	32938	32644	
5271	0	32864	32679	
5272	0	32938	32734	
5273	0	32932	32824	
5274	0	32892	32840	
5275	0	32840	32990	
5276	0	32916	33060	
5277	0	32764	32895	
5278	0	32882	32815	
5279	0	32858	32688	
5280	0	32920	32716	
5281	0	32962	32567	
5282	0	32724	32643	
5283	0	32716	32575	
5284	0	32776	32481	
5285	0	32712	32490	
5286	0	32706	32482	
5287	0	32740	32696	
5288	0	32824	32704	
5289	0	32830	32464	
5290	0	32708	32508	
5291	0	32780	32738	
5292	0	32726	32712	
5293	0	32782	32783	
5294	0	32782	32814	
5295	0	32816	32756	
5296	0	32808	32892	
5297	0	32736	32884	
5298	0	32866	32879	
5299	0	32796	32812	
5300	0	32800	32948	
5301	0	32824	32838	
5302	0	32928	33036	
5303	0	33020	32876	
5304	0	32840	32961	
5305	0	32740	32850	
5306	0	32618	33031	
5307	0	32896	32796	
5308	0	32956	32942	
5309	0	32932	32980	
5310	0	32906	32714	
5311	0	32862	32838	
5312	0	32714	32722	
5313	0	32720	32580	
5314	0	32740	32586	
5315	0	32578	32536	
5316	0	32602	32582	
5317	0	32716	32415	
5318	0	32980	32548	
5319	0	32932	32744	
5320	0	32866	32734	
5321	0	32756	32620	
5322	0	32768	32756	
5323	0	32702	32804	
5324	0	32778	32826	
5325	0	32782	32632	
5326	0	32849	32769	
5327	0	32780	32694	
5328	0	32858	32629	
5329	0	32832	32674	
5330	0	32805	32846	
5331	0	32836	32876	
5332	0	32870	32756	
5333	0	32856	32926	
5334	0	32848	33020	
5335	0	32858	32964	
5336	0	32916	32866	
5337	0	32972	33068	
5338	0	32976	33020	
5339	0	32936	33066	
5340	0	32862	32796	
5341	0	32832	32775	
5342	0	32874	32804	
5343	0	32864	32562	
5344	0	32788	32679	
5345	0	32724	32700	
5346	0	32766	32607	
5347	0	32712	32644	
5348	0	32844	32676	
5349	0	32744	32855	
5350	0	32824	32910	
5351	0	32852	32758	
5352	0	32858	32770	
5353	0	32716	32748	
5354	0	32808	32844	
5355	0	32680	32716	
5356	0	32790	32686	
5357	0	32740	32606	
5358	0	32836	32398	
5359	0	32866	32662	
5360	0	32878	32774	
5361	0	32756	32808	
5362	0	32788	32666	
5363	0	32780	32774	
5364	0	32856	32810	
5365	0	32874	32902	
5366	0	32808	32794	
5367	0	32820	32721	
5368	0	32824	32681	
5369	0	32800	32508	
5370	0	32872	32531	
5371	0	32880	32420	
5372	0	32824	32564	
5373	0	32784	32716	
5374	0	32788	32919	
5375	0	32756	32931	
5376	0	32704	33102	
5377	0	32858	33152	
5378	0	32880	33074	
5379	0	32814	33052	
5380	0	32800	32964	
5381	0	32692	32935	
5382	0	32832	32952	
5383	0	32734	32903	
5384	0	32856	32860	
5385	0	32836	32756	
5386	0	32748	32604	
5387	0	32952	32775	
5388	0	32844	32656	
5389	0	32820	32748	
5390	0	32748	32775	
5391	0	32724	32628	
5392	0	32810	32744	
5393	0	32796	32812	
5394	0	32808	32596	
5395	0	32836	32775	
5396	0	32875	32818	
5397	0	32804	32630	
5398	0	32930	32692	
5399	0	32864	32486	
5400	0	32898	32626	
5401	0	32946	32804	
5402	0	32878	32740	
5403	0	32864	32560	
5404	0	32776	32672	
5405	0	32740	32686	
5406	0	32702	32584	
5407	0	32780	32582	
5408	0	32716	32603	
5409	0	32690	32830	
5410	0	32712	32924	
5411	0	32760	32871	
5412	0	32760	33028	
5413	0	32814	33027	
5414	0	32768	32918	
5415	0	32814	32990	
5416	0	32768	32988	
5417	0	32796	33050	
5418	0	32848	32946	
5419	0	32880	32879	
5420	0	32904	32784	
5421	0	32872	32679	
5422	0	32908	32472	
5423	0	32934	32340	
5424	0	32856	32414	
5425	0	32784	32512	
5426	0	32768	32410	
5427	0	32834	32574	
5428	0	32808	32583	
5429	0	32796	32615	
5430	0	32812	32755	
5431	0	32832	32748	
5432	0	32840	32775	
5433	0	32760	32870	
5434	0	32812	33124	
5435	0	32764	32898	
5436	0	32833	32762	
5437	0	32916	32938	
5438	0	32854	32842	
5439	0	32862	32956	
5440	0	32838	32774	
5441	0	32786	32982	
5442	0	32868	32990	
5443	0	32612	33003	
5444	0	32724	32958	
5445	0	32620	32836	
5446	0	32676	32900	
5447	0	32693	32808	
5448	0	32684	32935	
5449	0	32800	32920	
5450	0	32808	32752	
5451	0	32824	32804	
5452	0	32820	32642	
5453	0	32964	32714	
5454	0	32896	32736	
5455	0	32946	32610	
5456	0	32986	32728	
5457	0	32996	32774	
5458	0	32844	32868	
5459	0	32824	32570	
5460	0	32760	32462	
5461	0	32804	32532	
5462	0	32776	32539	
5463	0	32828	32332	
5464	0	32788	32292	
5465	0	32736	32544	
5466	0	32716	32788	
5467	0	32704	32882	
5468	0	32852	32906	
5469	0	32750	33050	
5470	0	32868	33166	
5471	0	32888	33252	
5472	0	32876	33202	
5473	0	32852	33232	
5474	0	32896	33332	
5475	0	32892	33106	
5476	0	32904	32834	
5477	0	32848	32870	
5478	0	32856	32900	
5479	0	32880	32450	
5480	0	32800	32502	
5481	0	32820	32475	
5482	0	32788	32633	
5483	0	32700	32593	
5484	0	32760	32228	
5485	0	32808	32186	
5486	0	32800	32234	
5487	0	32748	32314	
5488	0	32778	32288	
5489	0	32820	32186	
5490	0	32806	32351	
5491	0	32778	32626	
5492	0	32712	32842	
5493	0	32792	32839	
5494	0	32828	32822	
5495	0	32869	32954	
5496	0	32890	33103	
5497	0	32784	32910	
5498	0	32766	33000	
5499	0	32804	32966	
5500	0	32916	33046	
5501	0	32842	33048	
5502	0	32822	33137	
5503	0	32840	33120	
5504	0	32870	33092	
5505	0	32838	32942	
5506	0	32820	32760	
5507	0	32728	32806	
5508	0	32792	32712	
5509	0	32872	32750	
5510	0	32872	32710	
5511	0	32896	32734	
5512	0	32920	32806	
5513	0	32908	32638	
5514	0	32900	32592	
5515	0	32844	32516	
5516	0	32913	32342	
5517	0	32872	32359	
5518	0	32864	32396	
5519	0	32846	32288	
5520	0	32908	32400	
5521	0	32840	32292	
5522	0	32828	32380	
5523	0	32852	32444	
5524	0	32854	32495	
5525	0	32823	32369	
5526	0	32860	32620	
5527	0	32856	32696	
5528	0	32744	32596	
5529	0	32744	32924	
5530	0	32840	33031	
5531	0	32790	33228	
5532	0	32812	33366	
5533	0	32688	33350	
5534	0	32640	33630	
5535	0	32608	33634	
5536	0	32540	33766	
5537	0	32481	33748	
5538	0	32506	33716	
5539	0	32480	33454	
5540	0	32484	33580	
5541	0	32552	33347	
5542	0	32628	33207	
5543	0	32624	33108	
5544	0	32682	32770	
5545	0	32792	32846	
5546	0	32810	32652	
5547	0	32932	32436	
5548	0	32836	32320	
5549	0	32892	32384	
5550	0	32828	32414	
5551	0	32842	32417	
5552	0	32932	32376	
5553	0	32988	32394	
5554	0	32990	32348	
5555	0	33072	32294	
5556	0	32964	32152	
5557	0	32888	32135	
5558	0	32870	32296	
5559	0	32832	32290	
5560	0	32952	32320	
5561	0	32898	32503	
5562	0	32868	32548	
5563	0	32968	32705	
5564	0	32864	32460	
5565	0	32884	32628	
5566	0	32900	32636	
5567	0	32908	32640	
5568	0	32916	32502	
5569	0	32890	32492	
5570	0	32884	32640	
5571	0	32888	32748	
5572	0	32868	32895	
5573	0	32800	32828	
5574	0	32804	33004	
5575	0	32792	32922	
5576	0	32752	32815	
5577	0	32792	32850	
5578	0	32732	32944	
5579	0	32752	33188	
5580	0	32828	33390	
5581	0	32846	33052	
5582	0	32848	32966	
5583	0	32809	32831	
5584	0	32792	32892	
5585	0	32760	32898	
5586	0	32772	32708	
5587	0	32854	32724	
5588	0	32720	32775	
5589	0	32824	32648	
5590	0	32836	32668	
5591	0	32748	32607	
5592	0	32768	32760	
5593	0	32832	32766	
5594	0	32788	32821	
5595	0	32806	32831	
5596	0	32756	32836	
5597	0	32804	33004	
5598	0	32800	32991	
5599	0	32772	32753	
5600	0	32840	32876	
5601	0	32802	32830	
5602	0	32796	32839	
5603	0	32850	32894	
5604	0	32828	32570	
5605	0	32848	32263	
5606	0	32824	32617	
5607	0	32876	32568	
5608	0	32840	32463	
5609	0	32826	32702	
5610	0	32828	32684	
5611	0	32788	32634	
5612	0	32836	32876	
5613	0	32778	32935	
5614	0	32796	32824	
5615	0	32672	32836	
5616	0	32750	32886	
5617	0	32812	32955	
5618	0	32720	32879	
5619	0	32824	32964	
5620	0	32783	32975	
5621	0	32867	32912	
5622	0	32888	33018	
5623	0	32798	32846	
5624	0	32818	32828	
5625	0	32904	33031	
5626	0	32824	32662	
5627	0	32844	32442	
5628	0	32920	32352	
5629	0	32838	32336	
5630	0	32768	32212	
5631	0	32782	32028	
5632	0	32816	32342	
5633	0	32776	32454	
5634	0	32784	32620	
5635	0	32756	32692	
5636	0	32840	32814	
5637	0	32788	32812	
5638	0	32794	32902	
5639	0	32860	32870	
5640	0	32842	33058	
5641	0	32756	33018	
5642	0	32768	32990	
5643	0	32828	33088	
5644	0	32902	33104	
5645	0	32778	32960	
5646	0	32816	32782	
5647	0	32744	32799	
5648	0	32828	32842	
5649	0	32872	32887	
5650	0	32892	32871	
5651	0	32772	32793	
5652	0	32864	32734	
5653	0	32808	32851	
5654	0	32740	32660	
5655	0	32700	32839	
5656	0	32840	32641	
5657	0	32832	32770	
5658	0	32762	32577	
5659	0	32806	32946	
5660	0	32756	32656	
5661	0	32852	32660	
5662	0	32826	32754	
5663	0	32832	32710	
5664	0	32768	32706	
5665	0	32816	32558	
5666	0	32820	32772	
5667	0	32884	32740	
5668	0	32888	32748	
5669	0	32816	32840	
5670	0	32828	32740	
5671	0	32792	32842	
5672	0	32844	32766	
5673	0	32836	32740	
5674	0	32832	32642	
5675	0	32798	32724	
5676	0	32792	33164	
5677	0	32800	33021	
5678	0	32754	32774	
5679	0	32804	32788	
5680	0	32792	32718	
5681	0	32772	32844	
5682	0	32836	32798	
5683	0	32876	32655	
5684	0	32828	32698	
5685	0	32816	32748	
5686	0	32784	32638	
5687	0	32832	32775	
5688	0	32848	32828	
5689	0	32764	32702	
5690	0	32776	32912	
5691	0	32758	32864	
5692	0	32816	32788	
5693	0	32850	32708	
5694	0	32829	32714	
5695	0	32868	32718	
5696	0	32824	32726	
5697	0	32886	32770	
5698	0	32838	32678	
5699	0	32788	32769	
5700	0	32848	32884	
5701	0	32776	32946	
5702	0	32812	32865	
5703	0	32764	32740	
5704	0	32796	32828	
5705	0	32840	32834	
5706	0	32744	32846	
5707	0	32820	32884	
5708	0	32874	32808	
5709	0	32866	32854	
5710	0	32864	32788	
5711	0	32836	32739	
5712	0	32796	32806	
5713	0	32844	32750	
5714	0	32834	32590	
5715	0	32874	32704	
5716	0	32844	32732	
5717	0	32804	32733	
5718	0	32840	32758	
5719	0	32772	32656	
5720	0	32720	32614	
5721	0	32752	32886	
5722	0	32716	32834	
5723	0	32760	32630	
5724	0	32768	32762	
5725	0	32820	32840	
5726	0	32746	32823	
5727	0	32794	32679	
5728	0	32752	32788	
5729	0	32754	32754	
5730	0	32880	32756	
5731	0	32844	32858	
5732	0	32852	32862	
5733	0	32776	32772	
5734	0	32794	32800	
5735	0	32812	32752	
5736	0	32804	32868	
5737	0	32824	32775	
5738	0	32924	32814	
5739	0	32884	32800	
5740	0	32894	32756	
5741	0	32869	32710	
5742	0	32876	32754	
5743	0	32868	32734	
5744	0	32756	32687	
5745	0	32750	32680	
5746	0	32744	32814	
5747	0	32778	32792	
5748	0	32688	32752	
5749	0	32812	32807	
5750	0	32762	32786	
5751	0	32722	32887	
5752	0	32788	32916	
5753	0	32836	32798	
5754	0	32856	32810	
5755	0	32834	32873	
5756	0	32748	32960	
5757	0	32832	32704	
5758	0	32796	32710	
5759	0	32800	32924	
5760	0	32790	32744	
5761	0	32794	32618	
5762	0	32812	32984	
5763	0	32814	32920	
5764	0	32792	32818	
5765	0	32780	32884	
5766	0	32812	32660	
5767	0	32793	32615	
5768	0	32868	32746	
5769	0	32900	32664	
5770	0	32824	32752	
5771	0	32814	32636	
5772	0	32792	32559	
5773	0	32790	32601	
5774	0	32709	32696	
5775	0	32788	32715	
5776	0	32774	32730	
5777	0	32810	32798	
5778	0	32772	32764	
5779	0	32788	32736	
5780	0	32762	32670	
5781	0	32756	32788	
5782	0	32780	32738	
5783	0	32700	32902	
5784	0	32798	32972	
5785	0	32828	32949	
5786	0	32756	32954	
5787	0	32832	32908	
5788	0	32864	32976	
5789	0	32912	33064	
5790	0	32928	32998	
5791	0	32908	32948	
5792	0	32840	32870	
5793	0	32798	32772	
5794	0	32828	32556	
5795	0	32844	32456	
5796	0	32876	32556	
5797	0	32838	32568	
5798	0	32794	32536	
5799	0	32720	32590	
5800	0	32768	32537	
5801	0	32680	32724	
5802	0	32704	32814	
5803	0	32744	32662	
5804	0	32784	32775	
5805	0	32728	32891	
5806	0	32874	32894	
5807	0	32820	32807	
5808	0	32764	32754	
5809	0	32752	32775	
5810	0	32824	32915	
5811	0	32896	32772	
5812	0	32920	32711	
5813	0	32948	32810	
5814	0	32976	32788	
5815	0	33012	32772	
5816	0	32968	32814	
5817	0	32926	32952	
5818	0	32832	32834	
5819	0	32740	32772	
5820	0	32772	32766	
5821	0	32776	32818	
5822	0	32734	32846	
5823	0	32754	32764	
5824	0	32892	32737	
5825	0	32804	32744	
5826	0	32840	32692	
5827	0	32740	32692	
5828	0	32772	32590	
5829	0	32712	32668	
5830	0	32796	32722	
5831	0	32752	32675	
5832	0	32872	32838	
5833	0	32798	32802	
5834	0	32806	32636	
5835	0	32830	32910	
5836	0	32864	32715	
5837	0	32858	32736	
5838	0	32764	32682	
5839	0	32788	32740	
5840	0	32786	32848	
5841	0	32781	32752	
5842	0	32810	32775	
5843	0	32868	32874	
5844	0	32852	32828	
5845	0	32820	32684	
5846	0	32892	32775	
5847	0	32878	32788	
5848	0	32776	32642	
5849	0	32768	32772	
5850	0	32716	32840	
5851	0	32752	32742	
5852	0	32830	32860	
5853	0	32816	32760	
5854	0	32817	32876	
5855	0	32782	32774	
5856	0	32772	32761	
5857	0	32868	32758	
5858	0	32848	32746	
5859	0	32856	32872	
5860	0	32828	32692	
5861	0	32824	32863	
5862	0	32808	32746	
5863	0	32888	32734	
5864	0	32846	32775	
5865	0	32816	32810	
5866	0	32738	32843	
5867	0	32808	32668	
5868	0	32782	32683	
5869	0	32776	32739	
5870	0	32804	32766	
5871	0	32780	32804	
5872	0	32812	32604	
5873	0	32862	32736	
5874	0	32832	32764	
5875	0	32760	32879	
5876	0	32804	32860	
5877	0	32858	32696	
5878	0	32812	32775	
5879	0	32828	32578	
5880	0	32772	32751	
5881	0	32760	32719	
5882	0	32776	32868	
5883	0	32804	32834	
5884	0	32764	32684	
5885	0	32836	32735	
5886	0	32806	32689	
5887	0	32760	32804	
5888	0	32820	32750	
5889	0	32885	32858	
5890	0	32868	32862	
5891	0	32892	32818	
5892	0	32834	32797	
5893	0	32836	32640	
5894	0	32812	32748	
5895	0	32830	32806	
5896	0	32812	32692	
5897	0	32804	32672	
5898	0	32868	32646	
5899	0	32880	32679	
5900	0	32738	32752	
5901	0	32840	32646	
5902	0	32837	32761	
5903	0	32740	32824	
5904	0	32756	32860	
5905	0	32786	32871	
5906	0	32874	32810	
5907	0	32856	32980	
5908	0	32808	32826	
5909	0	32802	32760	
5910	0	32816	32594	
5911	0	32736	32732	
5912	0	32792	32686	
5913	0	32660	32625	
5914	0	32788	32759	
5915	0	32824	32874	
5916	0	32774	32706	
5917	0	32732	32732	
5918	0	32784	32734	
5919	0	32806	32950	
5920	0	32808	32826	
5921	0	32824	32870	
5922	0	32884	32830	
5923	0	32864	32720	
5924	0	32812	32775	
5925	0	32792	32662	
5926	0	32816	32660	
5927	0	32828	32744	
5928	0	32828	32730	
5929	0	32810	32784	
5930	0	32804	32654	
5931	0	32836	32704	
5932	0	32812	32723	
5933	0	32869	32670	
5934	0	32900	32770	
5935	0	32822	32702	
5936	0	32820	32834	
5937	0	32860	32796	
5938	0	32776	32684	
5939	0	32810	32840	
5940	0	32768	32732	
5941	0	32756	32863	
5942	0	32840	32775	
5943	0	32776	32710	
5944	0	32832	32828	
5945	0	32752	32654	
5946	0	32840	32766	
5947	0	32834	32769	
5948	0	32798	32788	
5949	0	32794	32718	
5950	0	32792	32705	
5951	0	32868	32760	
5952	0	32776	32834	
5953	0	32842	32720	
5954	0	32774	32740	
5955	0	32780	32740	
5956	0	32832	32853	
5957	0	32824	32838	
5958	0	32756	32704	
5959	0	32766	32798	
5960	0	32798	32824	
5961	0	32728	32844	
5962	0	32802	32799	
5963	0	32836	32686	
5964	0	32772	32812	
5965	0	32792	32720	
5966	0	32764	32756	
5967	0	32756	32775	
5968	0	32802	32668	
5969	0	32796	32750	
5970	0	32768	32666	
5971	0	32842	32724	
5972	0	32734	32724	
5973	0	32778	32775	
5974	0	32832	32814	
5975	0	32840	32756	
5976	0	32832	32848	
5977	0	32834	32655	
5978	0	32784	32764	
5979	0	32842	32654	
5980	0	32824	32842	
5981	0	32864	32788	
5982	0	32812	32704	
5983	0	32798	32754	
5984	0	32796	32800	
5985	0	32836	32822	
5986	0	32810	32830	
5987	0	32820	32719	
5988	0	32830	32786	
5989	0	32888	32784	
5990	0	32876	32872	
5991	0	32778	32852	
5992	0	32832	32804	
5993	0	32746	32794	
5994	0	32786	32708	
5995	0	32792	32830	
5996	0	32826	32858	
5997	0	32788	32590	
5998	0	32760	32724	
5999	0	32768	32646	
6000	0	32885	32724	
6001	0	32880	32774	
6002	0	32842	32762	
6003	0	32804	32746	
6004	0	32776	32698	
6005	0	32792	32796	
6006	0	32852	32751	
6007	0	32912	32675	
6008	0	32828	32855	
6009	0	32768	32725	
6010	0	32776	32678	
6011	0	32808	32726	
6012	0	32832	32710	
