# OpenSignals Text File Format. Version 1
# {"00:07:80:8C:0A:39": {"position": 0, "device": "biosignalsplux", "device name": "00:07:80:8C:0A:39", "device connection": "BTH00:07:80:8C:0A:39", "sampling rate": 1000, "resolution": [16, 16], "firmware version": 776, "comments": "", "keywords": "", "mode": 0, "sync interval": 2, "date": "2023-3-16", "time": "10:44:23.555", "channels": [1, 2], "sensor": ["EMG", "EMG"], "label": ["CH1", "CH2"], "column": ["nSeq", "DI", "CH1", "CH2"], "special": [{"SpO2": [80, 40, 5, 4, 3, 3]}, {"SpO2": [80, 40, 5, 4, 3, 3]}, {"SpO2": [80, 40, 5, 4, 3, 3]}, {"SpO2": [80, 40, 5, 4, 3, 3]}, {"SpO2": [80, 40, 5, 4, 3, 3]}, {"SpO2": [80, 40, 5, 4, 3, 3]}, {"SpO2": [80, 40, 5, 4, 3, 3]}, {"SpO2": [80, 40, 5, 4, 3, 3]}], "digital IO": [0, 1], "sleeve color": ["gray", "yellow"], "convertedValues": 0}}
# EndOfHeader
0	0	32788	32736	
1	0	32784	32743	
2	0	32860	32810	
3	0	32830	32684	
4	0	32864	32802	
5	0	32836	32806	
6	0	32786	32807	
7	0	32844	32764	
8	0	32790	32719	
9	0	32888	32728	
10	0	32782	32702	
11	0	32784	32710	
12	0	32776	32788	
13	0	32784	32830	
14	0	32804	32772	
15	0	32840	32740	
16	0	32826	32864	
17	0	32764	32744	
18	0	32790	32676	
19	0	32844	32660	
20	0	32798	32772	
21	0	32852	32767	
22	0	32792	32714	
23	0	32868	32748	
24	0	32862	32692	
25	0	32888	32775	
26	0	32824	32816	
27	0	32768	32792	
28	0	32804	32792	
29	0	32772	32712	
30	0	32804	32810	
31	0	32784	32710	
32	0	32804	32834	
33	0	32832	32832	
34	0	32808	32668	
35	0	32852	32796	
36	0	32760	32708	
37	0	32840	32770	
38	0	32860	32679	
39	0	32780	32815	
40	0	32798	32846	
41	0	32868	32702	
42	0	32788	32786	
43	0	32812	32690	
44	0	32814	32810	
45	0	32868	32808	
46	0	32775	32680	
47	0	32776	32775	
48	0	32806	32736	
49	0	32808	32814	
50	0	32872	32782	
51	0	32828	32809	
52	0	32796	32775	
53	0	32716	32676	
54	0	32784	32792	
55	0	32776	32700	
56	0	32792	32802	
57	0	32756	32830	
58	0	32764	32660	
59	0	32782	32775	
60	0	32868	32704	
61	0	32768	32726	
62	0	32856	32742	
63	0	32844	32790	
64	0	32800	32804	
65	0	32820	32768	
66	0	32804	32760	
67	0	32828	32736	
68	0	32844	32775	
69	0	32788	32746	
70	0	32760	32630	
71	0	32784	32762	
72	0	32812	32775	
73	0	32776	32798	
74	0	32824	32796	
75	0	32828	32774	
76	0	32832	32742	
77	0	32824	32660	
78	0	32836	32740	
79	0	32792	32678	
80	0	32818	32822	
81	0	32836	32759	
82	0	32828	32863	
83	0	32840	32798	
84	0	32824	32775	
85	0	32788	32752	
86	0	32786	32772	
87	0	32836	32734	
88	0	32884	32658	
89	0	32850	32822	
90	0	32834	32724	
91	0	32782	32732	
92	0	32766	32770	
93	0	32748	32722	
94	0	32796	32854	
95	0	32888	32808	
96	0	32874	32752	
97	0	32804	32775	
98	0	32766	32775	
99	0	32766	32806	
100	0	32876	32775	
101	0	32800	32706	
102	0	32841	32716	
103	0	32838	32740	
104	0	32780	32724	
105	0	32792	32758	
106	0	32842	32844	
107	0	32796	32903	
108	0	32848	32738	
109	0	32858	32798	
110	0	32764	32696	
111	0	32834	32728	
112	0	32816	32756	
113	0	32828	32658	
114	0	32848	32788	
115	0	32800	32723	
116	0	32800	32854	
117	0	32836	32822	
118	0	32806	32697	
119	0	32838	32764	
120	0	32836	32752	
121	0	32752	32736	
122	0	32804	32736	
123	0	32868	32774	
124	0	32768	32774	
125	0	32792	32700	
126	0	32798	32807	
127	0	32816	32688	
128	0	32762	32828	
129	0	32898	32710	
130	0	32800	32676	
131	0	32830	32784	
132	0	32762	32726	
133	0	32788	32810	
134	0	32794	32838	
135	0	32812	32812	
136	0	32748	32766	
137	0	32802	32772	
138	0	32806	32862	
139	0	32844	32711	
140	0	32812	32807	
141	0	32856	32770	
142	0	32768	32790	
143	0	32801	32775	
144	0	32866	32768	
145	0	32776	32798	
146	0	32832	32762	
147	0	32764	32700	
148	0	32792	32772	
149	0	32834	32826	
150	0	32828	32640	
151	0	32868	32871	
152	0	32810	32758	
153	0	32792	32903	
154	0	32736	32664	
155	0	32788	32730	
156	0	32880	32742	
157	0	32844	32660	
158	0	32762	32736	
159	0	32788	32678	
160	0	32788	32828	
161	0	32830	32818	
162	0	32732	32770	
163	0	32804	32840	
164	0	32834	32772	
165	0	32802	32704	
166	0	32858	32812	
167	0	32776	32812	
168	0	32838	32719	
169	0	32804	32792	
170	0	32860	32767	
171	0	32794	32662	
172	0	32796	32802	
173	0	32736	32806	
174	0	32786	32684	
175	0	32884	32838	
176	0	32865	32842	
177	0	32798	32663	
178	0	32800	32762	
179	0	32758	32860	
180	0	32832	32738	
181	0	32828	32760	
182	0	32806	32725	
183	0	32850	32831	
184	0	32758	32849	
185	0	32796	32820	
186	0	32856	32802	
187	0	32848	32700	
188	0	32824	32686	
189	0	32800	32724	
190	0	32802	32903	
191	0	32804	32830	
192	0	32772	32760	
193	0	32776	32708	
194	0	32824	32815	
195	0	32860	32738	
196	0	32774	32775	
197	0	32876	32719	
198	0	32820	32743	
199	0	32812	32775	
200	0	32794	32705	
201	0	32770	32864	
202	0	32854	32828	
203	0	32808	32704	
204	0	32784	32672	
205	0	32792	32686	
206	0	32824	32810	
207	0	32776	32784	
208	0	32798	32602	
209	0	32864	32756	
210	0	32832	32668	
211	0	32792	32834	
212	0	32806	32878	
213	0	32821	32753	
214	0	32826	32742	
215	0	32804	32748	
216	0	32870	32802	
217	0	32756	32850	
218	0	32820	32820	
219	0	32768	32858	
220	0	32840	32730	
221	0	32814	32766	
222	0	32828	32647	
223	0	32810	32799	
224	0	32768	32794	
225	0	32778	32814	
226	0	32834	32746	
227	0	32868	32710	
228	0	32784	32802	
229	0	32828	32734	
230	0	32748	32892	
231	0	32800	32844	
232	0	32840	32704	
233	0	32860	32822	
234	0	32782	32796	
235	0	32862	32792	
236	0	32774	32754	
237	0	32800	32736	
238	0	32832	32772	
239	0	32852	32674	
240	0	32812	32702	
241	0	32784	32720	
242	0	32814	32736	
243	0	32836	32766	
244	0	32758	32752	
245	0	32844	32836	
246	0	32854	32718	
247	0	32746	32732	
248	0	32782	32696	
249	0	32823	32846	
250	0	32772	32794	
251	0	32832	32726	
252	0	32778	32732	
253	0	32848	32722	
254	0	32860	32756	
255	0	32776	32840	
256	0	32856	32702	
257	0	32882	32800	
258	0	32908	32754	
259	0	32864	32748	
260	0	32774	32812	
261	0	32802	32684	
262	0	32794	32775	
263	0	32794	32744	
264	0	32860	32800	
265	0	32820	32788	
266	0	32772	32775	
267	0	32836	32810	
268	0	32794	32599	
269	0	32816	32799	
270	0	32762	32792	
271	0	32808	32642	
272	0	32878	32790	
273	0	32794	32770	
274	0	32740	32832	
275	0	32802	32839	
276	0	32836	32734	
277	0	32852	32759	
278	0	32828	32876	
279	0	32878	32762	
280	0	32754	32710	
281	0	32832	32762	
282	0	32768	32786	
283	0	32864	32811	
284	0	32762	32676	
285	0	32804	32887	
286	0	32796	32756	
287	0	32816	32767	
288	0	32776	32798	
289	0	32828	32688	
290	0	32796	32734	
291	0	32792	32820	
292	0	32726	32694	
293	0	32822	32752	
294	0	32852	32692	
295	0	32776	32714	
296	0	32781	32798	
297	0	32804	32890	
298	0	32832	32726	
299	0	32886	32748	
300	0	32842	32756	
301	0	32844	32822	
302	0	32880	32814	
303	0	32796	32716	
304	0	32782	32752	
305	0	32796	32806	
306	0	32866	32760	
307	0	32874	32716	
308	0	32832	32830	
309	0	32838	32711	
310	0	32816	32812	
311	0	32812	32762	
312	0	32736	32646	
313	0	32768	32764	
314	0	32806	32774	
315	0	32818	32746	
316	0	32844	32842	
317	0	32820	32747	
318	0	32784	32692	
319	0	32868	32775	
320	0	32811	32839	
321	0	32712	32726	
322	0	32806	32800	
323	0	32800	32788	
324	0	32772	32788	
325	0	32818	32679	
326	0	32812	32674	
327	0	32768	32775	
328	0	32784	32767	
329	0	32820	32746	
330	0	32864	32848	
331	0	32892	32872	
332	0	32798	32718	
333	0	32812	32750	
334	0	32768	32839	
335	0	32804	32758	
336	0	32768	32744	
337	0	32848	32812	
338	0	32764	32831	
339	0	32800	32804	
340	0	32812	32670	
341	0	32782	32690	
342	0	32860	32722	
343	0	32828	32790	
344	0	32750	32836	
345	0	32752	32767	
346	0	32784	32826	
347	0	32804	32721	
348	0	32888	32676	
349	0	32872	32718	
350	0	32840	32836	
351	0	32810	32772	
352	0	32772	32802	
353	0	32848	32680	
354	0	32752	32628	
355	0	32844	32838	
356	0	32816	32742	
357	0	32825	32788	
358	0	32760	32762	
359	0	32756	32738	
360	0	32816	32826	
361	0	32800	32792	
362	0	32792	32772	
363	0	32800	32854	
364	0	32844	32764	
365	0	32854	32684	
366	0	32860	32708	
367	0	32736	32839	
368	0	32786	32799	
369	0	32816	32838	
370	0	32776	32790	
371	0	32832	32784	
372	0	32810	32775	
373	0	32840	32796	
374	0	32842	32678	
375	0	32908	32682	
376	0	32804	32791	
377	0	32848	32752	
378	0	32840	32814	
379	0	32832	32656	
380	0	32832	32740	
381	0	32788	32820	
382	0	32826	32800	
383	0	32780	32822	
384	0	32806	32636	
385	0	32796	32746	
386	0	32808	32767	
387	0	32810	32798	
388	0	32780	32694	
389	0	32792	32712	
390	0	32842	32816	
391	0	32816	32759	
392	0	32832	32822	
393	0	32770	32711	
394	0	32842	32770	
395	0	32792	32844	
396	0	32780	32736	
397	0	32782	32804	
398	0	32808	32740	
399	0	32774	32719	
400	0	32796	32740	
401	0	32800	32774	
402	0	32802	32743	
403	0	32824	32762	
404	0	32788	32743	
405	0	32760	32662	
406	0	32810	32678	
407	0	32832	32820	
408	0	32740	32814	
409	0	32776	32768	
410	0	32810	32770	
411	0	32800	32756	
412	0	32834	32796	
413	0	32848	32839	
414	0	32862	32820	
415	0	32796	32816	
416	0	32864	32726	
417	0	32810	32668	
418	0	32844	32698	
419	0	32822	32860	
420	0	32770	32807	
421	0	32804	32916	
422	0	32764	32704	
423	0	32784	32730	
424	0	32840	32834	
425	0	32800	32811	
426	0	32804	32775	
427	0	32850	32748	
428	0	32820	32708	
429	0	32796	32695	
430	0	32785	32804	
431	0	32792	32748	
432	0	32848	32775	
433	0	32840	32838	
434	0	32892	32690	
435	0	32816	32788	
436	0	32738	32884	
437	0	32838	32775	
438	0	32832	32804	
439	0	32808	32768	
440	0	32832	32757	
441	0	32760	32666	
442	0	32884	32732	
443	0	32776	32870	
444	0	32818	32822	
445	0	32878	32821	
446	0	32828	32727	
447	0	32852	32722	
448	0	32804	32719	
449	0	32804	32852	
450	0	32808	32775	
451	0	32804	32858	
452	0	32782	32775	
453	0	32798	32672	
454	0	32836	32682	
455	0	32796	32696	
456	0	32814	32862	
457	0	32814	32674	
458	0	32742	32812	
459	0	32716	32806	
460	0	32736	32598	
461	0	32716	32558	
462	0	32716	32594	
463	0	32632	32628	
464	0	32714	32710	
465	0	32654	32690	
466	0	32708	32710	
467	0	32714	32766	
468	0	32762	32697	
469	0	32730	32668	
470	0	32762	32716	
471	0	32714	32764	
472	0	32714	32814	
473	0	32716	32800	
474	0	32744	32792	
475	0	32754	32702	
476	0	32776	32652	
477	0	32698	32618	
478	0	32790	32843	
479	0	32772	32746	
480	0	32812	32714	
481	0	32808	32844	
482	0	32790	32820	
483	0	32856	32725	
484	0	32974	32852	
485	0	33032	32986	
486	0	33136	33004	
487	0	33188	33098	
488	0	33172	32987	
489	0	33208	33052	
490	0	33164	33062	
491	0	33058	32964	
492	0	33068	32892	
493	0	33012	32804	
494	0	32982	32828	
495	0	32880	32596	
496	0	32886	32750	
497	0	32924	32710	
498	0	32784	32824	
499	0	32704	32774	
500	0	32744	32768	
501	0	32704	32768	
502	0	32633	32738	
503	0	32690	32654	
504	0	32740	32676	
505	0	32736	32622	
506	0	32716	32788	
507	0	32756	32600	
508	0	32800	32742	
509	0	32724	32714	
510	0	32648	32603	
511	0	32664	32654	
512	0	32706	32740	
513	0	32764	32639	
514	0	32678	32775	
515	0	32696	32668	
516	0	32780	32774	
517	0	32808	32712	
518	0	32832	32664	
519	0	32834	32644	
520	0	32780	32774	
521	0	32800	32830	
522	0	32826	32742	
523	0	32826	32786	
524	0	32818	32871	
525	0	32750	32703	
526	0	32792	32868	
527	0	32808	32734	
528	0	32876	32754	
529	0	32790	32766	
530	0	32852	32756	
531	0	32756	32734	
532	0	32732	32788	
533	0	32866	32810	
534	0	32886	32711	
535	0	32808	32806	
536	0	32750	32837	
537	0	32812	32718	
538	0	32844	32796	
539	0	32846	32708	
540	0	32764	32775	
541	0	32792	32834	
542	0	32862	32660	
543	0	32828	32816	
544	0	32820	32804	
545	0	32756	32775	
546	0	32896	32828	
547	0	32800	32702	
548	0	32824	32712	
549	0	32836	32704	
550	0	32808	32721	
551	0	32804	32816	
552	0	32864	32686	
553	0	32808	32744	
554	0	32816	32828	
555	0	32860	32717	
556	0	32840	32775	
557	0	32856	32903	
558	0	32836	32721	
559	0	32816	32775	
560	0	32782	32847	
561	0	32858	32704	
562	0	32768	32790	
563	0	32824	32772	
564	0	32820	32729	
565	0	32784	32775	
566	0	32784	32852	
567	0	32696	32862	
568	0	32744	32828	
569	0	32764	32704	
570	0	32772	32784	
571	0	32820	32722	
572	0	32848	32674	
573	0	32784	32838	
574	0	32833	32812	
575	0	32842	32650	
576	0	32786	32788	
577	0	32832	32792	
578	0	32801	32694	
579	0	32796	32775	
580	0	32752	32826	
581	0	32806	32660	
582	0	32796	32852	
583	0	32814	32766	
584	0	32796	32768	
585	0	32776	32858	
586	0	32845	32775	
587	0	32804	32839	
588	0	32892	32696	
589	0	32848	32754	
590	0	32816	32752	
591	0	32776	32814	
592	0	32772	32775	
593	0	32808	32724	
594	0	32844	32762	
595	0	32762	32738	
596	0	32812	32775	
597	0	32768	32770	
598	0	32792	32668	
599	0	32780	32710	
600	0	32866	32732	
601	0	32808	32810	
602	0	32848	32810	
603	0	32832	32698	
604	0	32810	32760	
605	0	32826	32772	
606	0	32890	32732	
607	0	32714	32803	
608	0	32840	32894	
609	0	32840	32775	
610	0	32876	32743	
611	0	32752	32750	
612	0	32844	32770	
613	0	32788	32820	
614	0	32804	32824	
615	0	32856	32790	
616	0	32788	32718	
617	0	32754	32642	
618	0	32790	32822	
619	0	32814	32759	
620	0	32836	32775	
621	0	32820	32816	
622	0	32800	32632	
623	0	32778	32716	
624	0	32788	32722	
625	0	32804	32824	
626	0	32820	32802	
627	0	32804	32722	
628	0	32776	32802	
629	0	32772	32775	
630	0	32820	32852	
631	0	32844	32774	
632	0	32864	32648	
633	0	32844	32830	
634	0	32794	32862	
635	0	32826	32694	
636	0	32768	32775	
637	0	32842	32686	
638	0	32760	32838	
639	0	32812	32855	
640	0	32842	32774	
641	0	32802	32789	
642	0	32828	32711	
643	0	32826	32743	
644	0	32756	32775	
645	0	32802	32632	
646	0	32784	32804	
647	0	32798	32682	
648	0	32800	32822	
649	0	32836	32692	
650	0	32788	32752	
651	0	32782	32772	
652	0	32820	32804	
653	0	32868	32848	
654	0	32834	32766	
655	0	32840	32860	
656	0	32836	32678	
657	0	32804	32740	
658	0	32832	32855	
659	0	32844	32676	
660	0	32812	32804	
661	0	32874	32788	
662	0	32774	32684	
663	0	32860	32864	
664	0	32738	32807	
665	0	32756	32810	
666	0	32924	32810	
667	0	32820	32654	
668	0	32800	32684	
669	0	32838	32796	
670	0	32820	32868	
671	0	32814	32638	
672	0	32824	32775	
673	0	32816	32716	
674	0	32806	32812	
675	0	32840	32775	
676	0	32848	32752	
677	0	32786	32802	
678	0	32868	32804	
679	0	32761	32699	
680	0	32838	32743	
681	0	32764	32746	
682	0	32810	32752	
683	0	32764	32810	
684	0	32766	32798	
685	0	32776	32652	
686	0	32824	32844	
687	0	32812	32775	
688	0	32844	32772	
689	0	32830	32858	
690	0	32816	32703	
691	0	32704	32775	
692	0	32792	32774	
693	0	32736	32682	
694	0	32824	32775	
695	0	32830	32786	
696	0	32800	32674	
697	0	32814	32750	
698	0	32868	32794	
699	0	32860	32668	
700	0	32868	32709	
701	0	32852	32766	
702	0	32824	32728	
703	0	32852	32775	
704	0	32776	32764	
705	0	32764	32688	
706	0	32788	32856	
707	0	32812	32774	
708	0	32804	32720	
709	0	32850	32756	
710	0	32824	32788	
711	0	32838	32644	
712	0	32841	32860	
713	0	32820	32704	
714	0	32816	32842	
715	0	32796	32836	
716	0	32810	32768	
717	0	32844	32798	
718	0	32820	32752	
719	0	32806	32812	
720	0	32808	32738	
721	0	32798	32716	
722	0	32864	32740	
723	0	32824	32802	
724	0	32858	32896	
725	0	32828	32828	
726	0	32844	32818	
727	0	32800	32792	
728	0	32892	32766	
729	0	32810	32636	
730	0	32860	32798	
731	0	32788	32754	
732	0	32794	32764	
733	0	32810	32720	
734	0	32886	32679	
735	0	32832	32767	
736	0	32760	32852	
737	0	32828	32716	
738	0	32796	32758	
739	0	32764	32712	
740	0	32784	32814	
741	0	32792	32752	
742	0	32786	32670	
743	0	32828	32744	
744	0	32786	32690	
745	0	32810	32838	
746	0	32852	32826	
747	0	32788	32775	
748	0	32840	32830	
749	0	32792	32852	
750	0	32784	32800	
751	0	32830	32764	
752	0	32768	32732	
753	0	32744	32838	
754	0	32780	32760	
755	0	32834	32775	
756	0	32840	32730	
757	0	32788	32718	
758	0	32802	32712	
759	0	32876	32722	
760	0	32812	32863	
761	0	32826	32888	
762	0	32834	32709	
763	0	32836	32748	
764	0	32800	32732	
765	0	32780	32788	
766	0	32810	32790	
767	0	32800	32746	
768	0	32800	32800	
769	0	32740	32762	
770	0	32754	32736	
771	0	32796	32775	
772	0	32816	32807	
773	0	32816	32702	
774	0	32824	32710	
775	0	32832	32903	
776	0	32796	32775	
777	0	32892	32758	
778	0	32856	32724	
779	0	32834	32860	
780	0	32824	32766	
781	0	32824	32660	
782	0	32836	32727	
783	0	32788	32835	
784	0	32800	32774	
785	0	32856	32830	
786	0	32784	32775	
787	0	32820	32822	
788	0	32820	32746	
789	0	32820	32712	
790	0	32786	32724	
791	0	32770	32740	
792	0	32868	32806	
793	0	32790	32762	
794	0	32848	32738	
795	0	32828	32756	
796	0	32828	32652	
797	0	32832	32772	
798	0	32792	32852	
799	0	32824	32732	
800	0	32858	32704	
801	0	32796	32710	
802	0	32846	32848	
803	0	32800	32762	
804	0	32788	32774	
805	0	32792	32706	
806	0	32844	32782	
807	0	32832	32792	
808	0	32746	32824	
809	0	32868	32725	
810	0	32844	32640	
811	0	32852	32716	
812	0	32740	32724	
813	0	32820	32708	
814	0	32768	32836	
815	0	32730	32899	
816	0	32840	32718	
817	0	32760	32738	
818	0	32780	32844	
819	0	32812	32806	
820	0	32820	32791	
821	0	32794	32708	
822	0	32828	32782	
823	0	32836	32706	
824	0	32804	32740	
825	0	32896	32692	
826	0	32776	32750	
827	0	32812	32815	
828	0	32776	32806	
829	0	32828	32724	
830	0	32820	32828	
831	0	32800	32707	
832	0	32794	32734	
833	0	32830	32780	
834	0	32784	32840	
835	0	32832	32794	
836	0	32744	32730	
837	0	32864	32784	
838	0	32848	32752	
839	0	32864	32764	
840	0	32728	32832	
841	0	32894	32796	
842	0	32864	32703	
843	0	32828	32724	
844	0	32780	32744	
845	0	32788	32788	
846	0	32814	32782	
847	0	32798	32682	
848	0	32880	32702	
849	0	32822	32898	
850	0	32818	32815	
851	0	32766	32764	
852	0	32808	32724	
853	0	32884	32658	
854	0	32794	32750	
855	0	32794	32775	
856	0	32796	32742	
857	0	32828	32864	
858	0	32798	32844	
859	0	32808	32698	
860	0	32910	32688	
861	0	32844	32812	
862	0	32740	32805	
863	0	32784	32820	
864	0	32816	32774	
865	0	32778	32730	
866	0	32816	32792	
867	0	32802	32828	
868	0	32804	32712	
869	0	32836	32847	
870	0	32842	32830	
871	0	32860	32772	
872	0	32816	32850	
873	0	32766	32864	
874	0	32812	32628	
875	0	32816	32775	
876	0	32794	32712	
877	0	32816	32814	
878	0	32840	32764	
879	0	32844	32714	
880	0	32836	32800	
881	0	32834	32775	
882	0	32804	32742	
883	0	32844	32708	
884	0	32864	32850	
885	0	32764	32774	
886	0	32744	32708	
887	0	32816	32784	
888	0	32874	32734	
889	0	32872	32742	
890	0	32760	32704	
891	0	32824	32678	
892	0	32796	32746	
893	0	32810	32756	
894	0	32788	32766	
895	0	32852	32882	
896	0	32840	32852	
897	0	32796	32711	
898	0	32760	32700	
899	0	32812	32736	
900	0	32828	32756	
901	0	32832	32711	
902	0	32766	32836	
903	0	32726	32695	
904	0	32724	32727	
905	0	32864	32903	
906	0	32808	32832	
907	0	32740	32834	
908	0	32780	32768	
909	0	32932	32710	
910	0	32814	32672	
911	0	32804	32788	
912	0	32865	32814	
913	0	32802	32775	
914	0	32736	32762	
915	0	32774	32836	
916	0	32780	32804	
917	0	32760	32784	
918	0	32864	32872	
919	0	32768	32832	
920	0	32800	32742	
921	0	32844	32759	
922	0	32776	32709	
923	0	32836	32748	
924	0	32860	32830	
925	0	32814	32822	
926	0	32824	32839	
927	0	32816	32796	
928	0	32824	32718	
929	0	32838	32874	
930	0	32782	32774	
931	0	32812	32772	
932	0	32820	32846	
933	0	32816	32831	
934	0	32833	32652	
935	0	32788	32746	
936	0	32804	32876	
937	0	32828	32775	
938	0	32870	32762	
939	0	32812	32764	
940	0	32816	32770	
941	0	32800	32760	
942	0	32820	32676	
943	0	32780	32856	
944	0	32794	32742	
945	0	32804	32772	
946	0	32808	32871	
947	0	32776	32740	
948	0	32844	32692	
949	0	32832	32807	
950	0	32820	32788	
951	0	32856	32772	
952	0	32810	32775	
953	0	32836	32856	
954	0	32856	32712	
955	0	32804	32702	
956	0	32806	32822	
957	0	32800	32774	
958	0	32824	32822	
959	0	32804	32839	
960	0	32840	32668	
961	0	32820	32708	
962	0	32822	32805	
963	0	32868	32828	
964	0	32776	32744	
965	0	32798	32740	
966	0	32816	32744	
967	0	32796	32718	
968	0	32788	32718	
969	0	32770	32756	
970	0	32780	32715	
971	0	32764	32698	
972	0	32796	32800	
973	0	32856	32834	
974	0	32858	32832	
975	0	32852	32709	
976	0	32796	32734	
977	0	32896	32832	
978	0	32772	32770	
979	0	32824	32816	
980	0	32848	32830	
981	0	32768	32746	
982	0	32784	32704	
983	0	32844	32775	
984	0	32792	32793	
985	0	32760	32724	
986	0	32788	32919	
987	0	32816	32775	
988	0	32784	32730	
989	0	32820	32677	
990	0	32720	32650	
991	0	32824	32670	
992	0	32808	32680	
993	0	32780	32812	
994	0	32788	32831	
995	0	32808	32806	
996	0	32780	32730	
997	0	32816	32842	
998	0	32788	32802	
999	0	32838	32775	
1000	0	32856	32738	
1001	0	32852	32756	
1002	0	32794	32752	
1003	0	32804	32746	
1004	0	32800	32856	
1005	0	32832	32766	
1006	0	32818	32644	
1007	0	32768	32758	
1008	0	32784	32839	
1009	0	32798	32714	
1010	0	32834	32838	
1011	0	32810	32818	
1012	0	32846	32756	
1013	0	32804	32680	
1014	0	32824	32704	
1015	0	32852	32800	
1016	0	32802	32844	
1017	0	32796	32818	
1018	0	32760	32727	
1019	0	32764	32748	
1020	0	32816	32744	
1021	0	32834	32848	
1022	0	32830	32842	
1023	0	32808	32748	
1024	0	32822	32702	
1025	0	32822	32732	
1026	0	32752	32708	
1027	0	32784	32713	
1028	0	32824	32714	
1029	0	32832	32689	
1030	0	32846	32807	
1031	0	32850	32761	
1032	0	32802	32806	
1033	0	32838	32862	
1034	0	32756	32834	
1035	0	32828	32698	
1036	0	32760	32740	
1037	0	32830	32700	
1038	0	32808	32844	
1039	0	32832	32865	
1040	0	32872	32678	
1041	0	32836	32845	
1042	0	32794	32730	
1043	0	32826	32760	
1044	0	32802	32806	
1045	0	32816	32844	
1046	0	32800	32758	
1047	0	32780	32775	
1048	0	32832	32670	
1049	0	32788	32706	
1050	0	32808	32771	
1051	0	32792	32812	
1052	0	32853	32798	
1053	0	32852	32808	
1054	0	32800	32708	
1055	0	32816	32756	
1056	0	32856	32766	
1057	0	32722	32784	
1058	0	32844	32840	
1059	0	32820	32790	
1060	0	32826	32728	
1061	0	32856	32714	
1062	0	32828	32708	
1063	0	32762	32752	
1064	0	32824	32720	
1065	0	32892	32775	
1066	0	32812	32750	
1067	0	32756	32838	
1068	0	32892	32798	
1069	0	32790	32775	
1070	0	32812	32774	
1071	0	32772	32785	
1072	0	32800	32775	
1073	0	32812	32775	
1074	0	32804	32732	
1075	0	32824	32724	
1076	0	32764	32720	
1077	0	32814	32838	
1078	0	32802	32842	
1079	0	32804	32812	
1080	0	32812	32794	
1081	0	32849	32752	
1082	0	32830	32647	
1083	0	32804	32711	
1084	0	32788	32692	
1085	0	32824	32888	
1086	0	32798	32812	
1087	0	32784	32814	
1088	0	32828	32764	
1089	0	32800	32706	
1090	0	32722	32716	
1091	0	32708	32758	
1092	0	32862	32807	
1093	0	32852	32804	
1094	0	32812	32802	
1095	0	32844	32751	
1096	0	32832	32726	
1097	0	32836	32676	
1098	0	32800	32676	
1099	0	32784	32804	
1100	0	32808	32706	
1101	0	32858	32674	
1102	0	32800	32746	
1103	0	32818	32670	
1104	0	32862	32748	
1105	0	32858	32684	
1106	0	32736	32762	
1107	0	32775	32782	
1108	0	32824	32716	
1109	0	32744	32656	
1110	0	32788	32706	
1111	0	32776	32700	
1112	0	32790	32692	
1113	0	32848	32694	
1114	0	32852	32724	
1115	0	32860	32732	
1116	0	32832	32869	
1117	0	32890	32852	
1118	0	32822	32846	
1119	0	32808	32743	
1120	0	32708	32830	
1121	0	32784	32892	
1122	0	32774	32784	
1123	0	32877	32743	
1124	0	32772	32708	
1125	0	32794	32830	
1126	0	32844	32834	
1127	0	32804	32726	
1128	0	32820	32628	
1129	0	32848	32718	
1130	0	32798	32678	
1131	0	32782	32688	
1132	0	32864	32785	
1133	0	32772	32758	
1134	0	32825	32770	
1135	0	32820	32792	
1136	0	32868	32756	
1137	0	32832	32775	
1138	0	32806	32824	
1139	0	32774	32824	
1140	0	32834	32674	
1141	0	32788	32705	
1142	0	32800	32828	
1143	0	32780	32858	
1144	0	32860	32764	
1145	0	32864	32748	
1146	0	32844	32801	
1147	0	32768	32708	
1148	0	32784	32742	
1149	0	32864	32774	
1150	0	32812	32686	
1151	0	32780	32712	
1152	0	32804	32892	
1153	0	32768	32852	
1154	0	32828	32814	
1155	0	32732	32790	
1156	0	32808	32743	
1157	0	32796	32704	
1158	0	32836	32760	
1159	0	32838	32764	
1160	0	32848	32800	
1161	0	32876	32743	
1162	0	32856	32758	
1163	0	32748	32736	
1164	0	32862	32720	
1165	0	32822	32775	
1166	0	32750	32796	
1167	0	32772	32812	
1168	0	32756	32806	
1169	0	32826	32812	
1170	0	32789	32816	
1171	0	32736	32792	
1172	0	32800	32786	
1173	0	32848	32762	
1174	0	32800	32705	
1175	0	32808	32816	
1176	0	32897	32716	
1177	0	32864	32738	
1178	0	32800	32742	
1179	0	32828	32750	
1180	0	32768	32723	
1181	0	32792	32732	
1182	0	32776	32690	
1183	0	32762	32826	
1184	0	32788	32764	
1185	0	32868	32745	
1186	0	32848	32862	
1187	0	32768	32780	
1188	0	32824	32892	
1189	0	32844	32668	
1190	0	32864	32722	
1191	0	32820	32746	
1192	0	32852	32699	
1193	0	32845	32691	
1194	0	32824	32815	
1195	0	32822	32736	
1196	0	32800	32716	
1197	0	32844	32828	
1198	0	32782	32820	
1199	0	32820	32775	
1200	0	32868	32714	
1201	0	32804	32758	
1202	0	32764	32816	
1203	0	32818	32830	
1204	0	32820	32823	
1205	0	32776	32740	
1206	0	32818	32807	
1207	0	32884	32740	
1208	0	32796	32668	
1209	0	32800	32775	
1210	0	32808	32748	
1211	0	32832	32834	
1212	0	32816	32774	
1213	0	32834	32767	
1214	0	32800	32708	
1215	0	32782	32772	
1216	0	32870	32738	
1217	0	32792	32704	
1218	0	32792	32660	
1219	0	32824	32704	
1220	0	32736	32796	
1221	0	32814	32744	
1222	0	32751	32642	
1223	0	32706	32799	
1224	0	32720	32750	
1225	0	32720	32612	
1226	0	32736	32684	
1227	0	32712	32616	
1228	0	32714	32666	
1229	0	32672	32762	
1230	0	32788	32700	
1231	0	32788	32737	
1232	0	32632	32836	
1233	0	32744	32684	
1234	0	32652	32707	
1235	0	32696	32660	
1236	0	32712	32668	
1237	0	32788	32792	
1238	0	32832	32748	
1239	0	32744	32728	
1240	0	32756	32770	
1241	0	32760	32846	
1242	0	32760	32804	
1243	0	32780	32720	
1244	0	32820	32664	
1245	0	32884	32758	
1246	0	32970	32808	
1247	0	33012	32908	
1248	0	33040	33030	
1249	0	33164	33030	
1250	0	33112	33102	
1251	0	33152	33074	
1252	0	33184	32952	
1253	0	33020	32922	
1254	0	33060	32867	
1255	0	33012	32863	
1256	0	32988	32848	
1257	0	32970	32798	
1258	0	32952	32744	
1259	0	32916	32792	
1260	0	32856	32647	
1261	0	32854	32647	
1262	0	32750	32688	
1263	0	32732	32752	
1264	0	32660	32740	
1265	0	32686	32716	
1266	0	32740	32674	
1267	0	32682	32728	
1268	0	32740	32748	
1269	0	32720	32752	
1270	0	32708	32659	
1271	0	32698	32738	
1272	0	32658	32702	
1273	0	32724	32628	
1274	0	32688	32642	
1275	0	32736	32692	
1276	0	32776	32753	
1277	0	32716	32775	
1278	0	32692	32724	
1279	0	32800	32743	
1280	0	32840	32752	
1281	0	32860	32802	
1282	0	32796	32822	
1283	0	32768	32775	
1284	0	32768	32730	
1285	0	32780	32636	
1286	0	32832	32767	
1287	0	32832	32682	
1288	0	32778	32800	
1289	0	32804	32814	
1290	0	32808	32838	
1291	0	32852	32864	
1292	0	32840	32772	
1293	0	32848	32710	
1294	0	32853	32756	
1295	0	32750	32858	
1296	0	32800	32738	
1297	0	32760	32796	
1298	0	32800	32704	
1299	0	32864	32656	
1300	0	32792	32720	
1301	0	32760	32823	
1302	0	32810	32766	
1303	0	32814	32727	
1304	0	32818	32828	
1305	0	32820	32758	
1306	0	32768	32756	
1307	0	32744	32628	
1308	0	32740	32818	
1309	0	32776	32770	
1310	0	32796	32752	
1311	0	32824	32762	
1312	0	32862	32874	
1313	0	32896	32718	
1314	0	32832	32642	
1315	0	32828	32671	
1316	0	32836	32661	
1317	0	32824	32706	
1318	0	32756	32663	
1319	0	32816	32852	
1320	0	32780	32820	
1321	0	32824	32708	
1322	0	32778	32774	
1323	0	32812	32818	
1324	0	32804	32826	
1325	0	32858	32858	
1326	0	32760	32775	
1327	0	32788	32743	
1328	0	32808	32756	
1329	0	32843	32677	
1330	0	32852	32662	
1331	0	32850	32775	
1332	0	32892	32775	
1333	0	32804	32775	
1334	0	32800	32695	
1335	0	32810	32920	
1336	0	32802	32788	
1337	0	32788	32732	
1338	0	32802	32714	
1339	0	32782	32712	
1340	0	32784	32806	
1341	0	32823	32792	
1342	0	32796	32775	
1343	0	32800	32838	
1344	0	32804	32814	
1345	0	32852	32775	
1346	0	32834	32744	
1347	0	32870	32800	
1348	0	32814	32665	
1349	0	32804	32644	
1350	0	32772	32720	
1351	0	32850	32775	
1352	0	32880	32839	
1353	0	32744	32726	
1354	0	32826	32711	
1355	0	32808	32775	
1356	0	32812	32828	
1357	0	32822	32858	
1358	0	32844	32744	
1359	0	32772	32753	
1360	0	32768	32718	
1361	0	32820	32740	
1362	0	32796	32788	
1363	0	32838	32738	
1364	0	32816	32810	
1365	0	32824	32834	
1366	0	32816	32706	
1367	0	32822	32678	
1368	0	32868	32732	
1369	0	32754	32774	
1370	0	32808	32762	
1371	0	32838	32847	
1372	0	32784	32748	
1373	0	32868	32654	
1374	0	32788	32685	
1375	0	32832	32702	
1376	0	32778	32744	
1377	0	32824	32786	
1378	0	32744	32788	
1379	0	32760	32818	
1380	0	32788	32832	
1381	0	32824	32810	
1382	0	32800	32748	
1383	0	32836	32702	
1384	0	32854	32762	
1385	0	32856	32830	
1386	0	32836	32822	
1387	0	32764	32836	
1388	0	32740	32711	
1389	0	32808	32682	
1390	0	32793	32852	
1391	0	32768	32751	
1392	0	32812	32743	
1393	0	32784	32745	
1394	0	32810	32762	
1395	0	32828	32692	
1396	0	32812	32702	
1397	0	32824	32686	
1398	0	32884	32764	
1399	0	32808	32748	
1400	0	32810	32754	
1401	0	32832	32732	
1402	0	32840	32852	
1403	0	32816	32754	
1404	0	32774	32700	
1405	0	32782	32826	
1406	0	32818	32804	
1407	0	32844	32752	
1408	0	32768	32742	
1409	0	32784	32743	
1410	0	32780	32754	
1411	0	32792	32840	
1412	0	32848	32790	
1413	0	32816	32830	
1414	0	32768	32800	
1415	0	32740	32711	
1416	0	32798	32645	
1417	0	32820	32676	
1418	0	32760	32775	
1419	0	32826	32804	
1420	0	32858	32732	
1421	0	32780	32743	
1422	0	32776	32818	
1423	0	32764	32734	
1424	0	32834	32802	
1425	0	32814	32694	
1426	0	32786	32646	
1427	0	32777	32956	
1428	0	32806	32762	
1429	0	32784	32804	
1430	0	32826	32788	
1431	0	32788	32750	
1432	0	32778	32823	
1433	0	32900	32804	
1434	0	32808	32775	
1435	0	32810	32746	
1436	0	32812	32672	
1437	0	32848	32734	
1438	0	32856	32802	
1439	0	32808	32743	
1440	0	32766	32730	
1441	0	32832	32732	
1442	0	32840	32823	
1443	0	32736	32795	
1444	0	32832	32834	
1445	0	32814	32722	
1446	0	32768	32710	
1447	0	32836	32843	
1448	0	32908	32710	
1449	0	32844	32762	
1450	0	32812	32822	
1451	0	32780	32750	
1452	0	32804	32707	
1453	0	32800	32740	
1454	0	32798	32887	
1455	0	32792	32902	
1456	0	32798	32742	
1457	0	32812	32714	
1458	0	32796	32809	
1459	0	32808	32816	
1460	0	32816	32849	
1461	0	32840	32647	
1462	0	32768	32695	
1463	0	32784	32751	
1464	0	32776	32884	
1465	0	32812	32800	
1466	0	32824	32808	
1467	0	32785	32878	
1468	0	32772	32830	
1469	0	32792	32672	
1470	0	32820	32722	
1471	0	32836	32874	
1472	0	32788	32791	
1473	0	32849	32738	
1474	0	32888	32852	
1475	0	32828	32751	
1476	0	32856	32664	
1477	0	32856	32736	
1478	0	32844	32683	
1479	0	32880	32782	
1480	0	32794	32726	
1481	0	32804	32775	
1482	0	32808	32734	
1483	0	32820	32679	
1484	0	32896	32692	
1485	0	32804	32814	
1486	0	32752	32790	
1487	0	32806	32846	
1488	0	32848	32817	
1489	0	32846	32660	
1490	0	32828	32656	
1491	0	32808	32732	
1492	0	32776	32802	
1493	0	32712	32756	
1494	0	32824	32774	
1495	0	32796	32742	
1496	0	32800	32836	
1497	0	32800	32808	
1498	0	32776	32796	
1499	0	32762	32702	
1500	0	32846	32672	
1501	0	32846	32834	
1502	0	32786	32830	
1503	0	32862	32712	
1504	0	32828	32814	
1505	0	32776	32750	
1506	0	32822	32666	
1507	0	32778	32786	
1508	0	32758	32780	
1509	0	32788	32748	
1510	0	32834	32832	
1511	0	32772	32719	
1512	0	32784	32772	
1513	0	32840	32840	
1514	0	32768	32787	
1515	0	32816	32767	
1516	0	32764	32796	
1517	0	32796	32856	
1518	0	32816	32728	
1519	0	32808	32768	
1520	0	32718	32884	
1521	0	32842	32757	
1522	0	32748	32834	
1523	0	32840	32786	
1524	0	32802	32660	
1525	0	32824	32800	
1526	0	32840	32774	
1527	0	32804	32759	
1528	0	32752	32812	
1529	0	32776	32714	
1530	0	32832	32679	
1531	0	32840	32714	
1532	0	32772	32826	
1533	0	32832	32766	
1534	0	32764	32756	
1535	0	32798	32706	
1536	0	32808	32691	
1537	0	32816	32775	
1538	0	32816	32670	
1539	0	32840	32856	
1540	0	32816	32750	
1541	0	32748	32646	
1542	0	32836	32834	
1543	0	32824	32775	
1544	0	32820	32640	
1545	0	32724	32775	
1546	0	32772	32802	
1547	0	32884	32724	
1548	0	32816	32710	
1549	0	32828	32768	
1550	0	32808	32775	
1551	0	32840	32654	
1552	0	32772	32682	
1553	0	32802	32798	
1554	0	32824	32796	
1555	0	32816	32796	
1556	0	32816	32808	
1557	0	32844	32810	
1558	0	32808	32804	
1559	0	32824	32774	
1560	0	32764	32738	
1561	0	32778	32808	
1562	0	32824	32770	
1563	0	32808	32734	
1564	0	32784	32714	
1565	0	32760	32713	
1566	0	32840	32766	
1567	0	32808	32742	
1568	0	32812	32804	
1569	0	32836	32718	
1570	0	32796	32682	
1571	0	32860	32888	
1572	0	32796	32775	
1573	0	32804	32844	
1574	0	32816	32724	
1575	0	32824	32755	
1576	0	32768	32704	
1577	0	32840	32679	
1578	0	32800	32830	
1579	0	32836	32770	
1580	0	32784	32822	
1581	0	32828	32852	
1582	0	32816	32687	
1583	0	32856	32742	
1584	0	32814	32806	
1585	0	32788	32774	
1586	0	32826	32758	
1587	0	32780	32820	
1588	0	32866	32772	
1589	0	32768	32839	
1590	0	32840	32708	
1591	0	32812	32727	
1592	0	32802	32724	
1593	0	32866	32775	
1594	0	32836	32816	
1595	0	32808	32804	
1596	0	32824	32807	
1597	0	32824	32750	
1598	0	32840	32810	
1599	0	32776	32802	
1600	0	32772	32798	
1601	0	32826	32774	
1602	0	32810	32774	
1603	0	32812	32684	
1604	0	32804	32706	
1605	0	32804	32647	
1606	0	32846	32640	
1607	0	32802	32716	
1608	0	32852	32793	
1609	0	32835	32839	
1610	0	32801	32720	
1611	0	32810	32743	
1612	0	32750	32752	
1613	0	32782	32870	
1614	0	32816	32764	
1615	0	32810	32774	
1616	0	32720	32676	
1617	0	32806	32722	
1618	0	32836	32824	
1619	0	32796	32872	
1620	0	32732	32704	
1621	0	32784	32839	
1622	0	32792	32839	
1623	0	32812	32775	
1624	0	32828	32668	
1625	0	32848	32682	
1626	0	32804	32772	
1627	0	32796	32775	
1628	0	32796	32824	
1629	0	32816	32892	
1630	0	32816	32810	
1631	0	32760	32775	
1632	0	32820	32753	
1633	0	32840	32747	
1634	0	32916	32775	
1635	0	32812	32791	
1636	0	32808	32682	
1637	0	32785	32900	
1638	0	32788	32734	
1639	0	32868	32782	
1640	0	32814	32815	
1641	0	32804	32727	
1642	0	32838	32758	
1643	0	32836	32660	
1644	0	32820	32740	
1645	0	32784	32746	
1646	0	32828	32772	
1647	0	32778	32752	
1648	0	32868	32871	
1649	0	32748	32767	
1650	0	32808	32775	
1651	0	32796	32788	
1652	0	32840	32807	
1653	0	32792	32790	
1654	0	32788	32728	
1655	0	32760	32689	
1656	0	32772	32794	
1657	0	32774	32766	
1658	0	32832	32754	
1659	0	32856	32842	
1660	0	32882	32807	
1661	0	32860	32750	
1662	0	32808	32730	
1663	0	32766	32822	
1664	0	32768	32772	
1665	0	32808	32796	
1666	0	32856	32758	
1667	0	32766	32700	
1668	0	32800	32722	
1669	0	32816	32667	
1670	0	32792	32775	
1671	0	32768	32766	
1672	0	32806	32884	
1673	0	32812	32775	
1674	0	32832	32810	
1675	0	32746	32796	
1676	0	32784	32762	
1677	0	32872	32748	
1678	0	32824	32798	
1679	0	32852	32726	
1680	0	32832	32700	
1681	0	32868	32711	
1682	0	32852	32760	
1683	0	32784	32752	
1684	0	32830	32760	
1685	0	32858	32810	
1686	0	32832	32676	
1687	0	32768	32692	
1688	0	32776	32710	
1689	0	32798	32714	
1690	0	32784	32688	
1691	0	32752	32670	
1692	0	32784	32652	
1693	0	32836	32754	
1694	0	32784	32642	
1695	0	32868	32839	
1696	0	32832	32807	
1697	0	32808	32820	
1698	0	32804	32794	
1699	0	32786	32759	
1700	0	32756	32830	
1701	0	32796	32807	
1702	0	32780	32760	
1703	0	32844	32740	
1704	0	32812	32704	
1705	0	32768	32727	
1706	0	32816	32711	
1707	0	32844	32718	
1708	0	32836	32715	
1709	0	32834	32705	
1710	0	32842	32840	
1711	0	32866	32817	
1712	0	32884	32818	
1713	0	32820	32775	
1714	0	32888	32739	
1715	0	32784	32775	
1716	0	32790	32830	
1717	0	32760	32846	
1718	0	32818	32807	
1719	0	32798	32764	
1720	0	32768	32694	
1721	0	32774	32774	
1722	0	32892	32871	
1723	0	32824	32830	
1724	0	32796	32840	
1725	0	32806	32812	
1726	0	32760	32808	
1727	0	32836	32730	
1728	0	32782	32652	
1729	0	32804	32715	
1730	0	32790	32828	
1731	0	32726	32754	
1732	0	32776	32736	
1733	0	32829	32659	
1734	0	32852	32758	
1735	0	32814	32775	
1736	0	32760	32718	
1737	0	32840	32775	
1738	0	32788	32672	
1739	0	32792	32806	
1740	0	32788	32772	
1741	0	32804	32822	
1742	0	32760	32882	
1743	0	32774	32710	
1744	0	32836	32814	
1745	0	32860	32806	
1746	0	32768	32802	
1747	0	32808	32850	
1748	0	32864	32775	
1749	0	32852	32734	
1750	0	32826	32664	
1751	0	32780	32790	
1752	0	32864	32732	
1753	0	32872	32807	
1754	0	32832	32790	
1755	0	32804	32750	
1756	0	32800	32744	
1757	0	32786	32748	
1758	0	32812	32790	
1759	0	32792	32824	
1760	0	32828	32615	
1761	0	32844	32762	
1762	0	32848	32724	
1763	0	32846	32780	
1764	0	32785	32714	
1765	0	32752	32839	
1766	0	32790	32732	
1767	0	32796	32834	
1768	0	32824	32724	
1769	0	32796	32775	
1770	0	32868	32716	
1771	0	32882	32720	
1772	0	32774	32748	
1773	0	32796	32798	
1774	0	32738	32804	
1775	0	32848	32750	
1776	0	32821	32684	
1777	0	32775	32826	
1778	0	32836	32816	
1779	0	32788	32860	
1780	0	32802	32682	
1781	0	32800	32772	
1782	0	32838	32756	
1783	0	32772	32808	
1784	0	32784	32772	
1785	0	32740	32680	
1786	0	32784	32774	
1787	0	32808	32823	
1788	0	32844	32762	
1789	0	32802	32692	
1790	0	32740	32748	
1791	0	32822	32844	
1792	0	32754	32822	
1793	0	32864	32760	
1794	0	32792	32775	
1795	0	32800	32804	
1796	0	32908	32771	
1797	0	32868	32693	
1798	0	32828	32684	
1799	0	32804	32788	
1800	0	32784	32775	
1801	0	32838	32844	
1802	0	32816	32730	
1803	0	32770	32788	
1804	0	32812	32686	
1805	0	32784	32843	
1806	0	32812	32738	
1807	0	32902	32668	
1808	0	32838	32806	
1809	0	32842	32722	
1810	0	32796	32720	
1811	0	32864	32824	
1812	0	32836	32772	
1813	0	32812	32756	
1814	0	32809	32786	
1815	0	32824	32772	
1816	0	32836	32752	
1817	0	32840	32822	
1818	0	32830	32790	
1819	0	32764	32718	
1820	0	32780	32736	
1821	0	32828	32758	
1822	0	32800	32860	
1823	0	32880	32764	
1824	0	32844	32850	
1825	0	32824	32698	
1826	0	32778	32712	
1827	0	32858	32738	
1828	0	32796	32774	
1829	0	32770	32844	
1830	0	32767	32679	
1831	0	32826	32806	
1832	0	32808	32810	
1833	0	32818	32736	
1834	0	32800	32806	
1835	0	32804	32767	
1836	0	32856	32705	
1837	0	32780	32830	
1838	0	32752	32766	
1839	0	32736	32714	
1840	0	32796	32756	
1841	0	32842	32838	
1842	0	32808	32814	
1843	0	32832	32736	
1844	0	32844	32756	
1845	0	32796	32644	
1846	0	32860	32852	
1847	0	32892	32796	
1848	0	32822	32790	
1849	0	32816	32871	
1850	0	32826	32726	
1851	0	32812	32718	
1852	0	32798	32754	
1853	0	32816	32767	
1854	0	32846	32804	
1855	0	32770	32772	
1856	0	32740	32770	
1857	0	32732	32775	
1858	0	32824	32743	
1859	0	32852	32676	
1860	0	32862	32810	
1861	0	32870	32806	
1862	0	32858	32740	
1863	0	32744	32796	
1864	0	32862	32732	
1865	0	32856	32775	
1866	0	32774	32757	
1867	0	32752	32788	
1868	0	32814	32728	
1869	0	32770	32736	
1870	0	32732	32710	
1871	0	32785	32799	
1872	0	32802	32772	
1873	0	32776	32772	
1874	0	32846	32820	
1875	0	32868	32774	
1876	0	32828	32668	
1877	0	32820	32710	
1878	0	32808	32732	
1879	0	32796	32678	
1880	0	32768	32806	
1881	0	32810	32718	
1882	0	32864	32812	
1883	0	32788	32860	
1884	0	32900	32854	
1885	0	32801	32806	
1886	0	32856	32756	
1887	0	32852	32788	
1888	0	32848	32752	
1889	0	32824	32792	
1890	0	32801	32830	
1891	0	32852	32688	
1892	0	32780	32710	
1893	0	32818	32756	
1894	0	32836	32768	
1895	0	32842	32702	
1896	0	32814	32696	
1897	0	32786	32728	
1898	0	32780	32868	
1899	0	32789	32844	
1900	0	32792	32679	
1901	0	32782	32833	
1902	0	32876	32858	
1903	0	32776	32816	
1904	0	32780	32824	
1905	0	32860	32711	
1906	0	32800	32798	
1907	0	32856	32832	
1908	0	32878	32766	
1909	0	32756	32848	
1910	0	32902	32790	
1911	0	32832	32794	
1912	0	32758	32766	
1913	0	32856	32716	
1914	0	32764	32724	
1915	0	32850	32716	
1916	0	32788	32767	
1917	0	32794	32764	
1918	0	32780	32668	
1919	0	32804	32756	
1920	0	32864	32774	
1921	0	32800	32796	
1922	0	32772	32814	
1923	0	32772	32804	
1924	0	32848	32744	
1925	0	32856	32775	
1926	0	32808	32720	
1927	0	32798	32814	
1928	0	32768	32861	
1929	0	32784	32871	
1930	0	32832	32682	
1931	0	32792	32742	
1932	0	32906	32647	
1933	0	32838	32732	
1934	0	32792	32762	
1935	0	32790	32790	
1936	0	32792	32790	
1937	0	32788	32796	
1938	0	32738	32792	
1939	0	32788	32700	
1940	0	32860	32800	
1941	0	32780	32720	
1942	0	32836	32806	
1943	0	32812	32756	
1944	0	32756	32760	
1945	0	32724	32910	
1946	0	32880	32743	
1947	0	32806	32718	
1948	0	32900	32756	
1949	0	32772	32806	
1950	0	32822	32706	
1951	0	32796	32738	
1952	0	32788	32734	
1953	0	32770	32824	
1954	0	32838	32847	
1955	0	32840	32816	
1956	0	32794	32828	
1957	0	32784	32816	
1958	0	32796	32704	
1959	0	32784	32800	
1960	0	32772	32772	
1961	0	32796	32696	
1962	0	32838	32796	
1963	0	32844	32830	
1964	0	32828	32682	
1965	0	32920	32804	
1966	0	32876	32796	
1967	0	32880	32680	
1968	0	32794	32824	
1969	0	32781	32704	
1970	0	32810	32792	
1971	0	32820	32758	
1972	0	32824	32708	
1973	0	32784	32807	
1974	0	32742	32832	
1975	0	32792	32726	
1976	0	32808	32814	
1977	0	32808	32812	
1978	0	32776	32774	
1979	0	32796	32686	
1980	0	32830	32750	
1981	0	32874	32775	
1982	0	32852	32852	
1983	0	32854	32800	
1984	0	32842	32724	
1985	0	32744	32760	
1986	0	32822	32855	
1987	0	32868	32812	
1988	0	32784	32758	
1989	0	32822	32718	
1990	0	32736	32746	
1991	0	32840	32802	
1992	0	32788	32762	
1993	0	32785	32710	
1994	0	32856	32772	
1995	0	32802	32828	
1996	0	32808	32655	
1997	0	32852	32710	
1998	0	32840	32834	
1999	0	32808	32719	
2000	0	32816	32831	
2001	0	32832	32716	
2002	0	32836	32644	
2003	0	32804	32884	
2004	0	32796	32847	
2005	0	32888	32803	
2006	0	32808	32822	
2007	0	32816	32676	
2008	0	32850	32722	
2009	0	32740	32766	
2010	0	32736	32752	
2011	0	32768	32726	
2012	0	32792	32664	
2013	0	32756	32732	
2014	0	32864	32772	
2015	0	32800	32768	
2016	0	32762	32756	
2017	0	32754	32628	
2018	0	32736	32752	
2019	0	32754	32668	
2020	0	32748	32720	
2021	0	32692	32762	
2022	0	32716	32616	
2023	0	32752	32647	
2024	0	32676	32718	
2025	0	32688	32706	
2026	0	32676	32711	
2027	0	32700	32790	
2028	0	32682	32759	
2029	0	32666	32670	
2030	0	32710	32746	
2031	0	32728	32775	
2032	0	32764	32738	
2033	0	32784	32710	
2034	0	32748	32823	
2035	0	32744	32775	
2036	0	32704	32680	
2037	0	32796	32768	
2038	0	32748	32698	
2039	0	32792	32775	
2040	0	32864	32814	
2041	0	32916	32728	
2042	0	32996	32860	
2043	0	33048	33024	
2044	0	33128	33108	
2045	0	33056	33124	
2046	0	33194	32958	
2047	0	33104	32899	
2048	0	33052	32899	
2049	0	33076	32858	
2050	0	33100	32836	
2051	0	33064	32856	
2052	0	33096	32736	
2053	0	33008	32714	
2054	0	33034	32834	
2055	0	32892	32800	
2056	0	32866	32753	
2057	0	32872	32812	
2058	0	32752	32634	
2059	0	32732	32680	
2060	0	32684	32698	
2061	0	32712	32690	
2062	0	32680	32775	
2063	0	32696	32666	
2064	0	32680	32645	
2065	0	32648	32660	
2066	0	32692	32692	
2067	0	32632	32766	
2068	0	32728	32628	
2069	0	32748	32740	
2070	0	32732	32734	
2071	0	32738	32682	
2072	0	32800	32782	
2073	0	32784	32784	
2074	0	32834	32729	
2075	0	32840	32813	
2076	0	32766	32758	
2077	0	32820	32879	
2078	0	32848	32788	
2079	0	32814	32634	
2080	0	32824	32723	
2081	0	32804	32836	
2082	0	32828	32838	
2083	0	32816	32850	
2084	0	32748	32834	
2085	0	32782	32718	
2086	0	32804	32646	
2087	0	32700	32750	
2088	0	32784	32775	
2089	0	32738	32790	
2090	0	32778	32662	
2091	0	32792	32705	
2092	0	32804	32775	
2093	0	32840	32744	
2094	0	32876	32789	
2095	0	32754	32794	
2096	0	32812	32748	
2097	0	32860	32654	
2098	0	32816	32814	
2099	0	32760	32696	
2100	0	32800	32832	
2101	0	32800	32720	
2102	0	32788	32742	
2103	0	32740	32754	
2104	0	32806	32840	
2105	0	32796	32734	
2106	0	32816	32812	
2107	0	32816	32690	
2108	0	32784	32718	
2109	0	32812	32814	
2110	0	32844	32758	
2111	0	32804	32775	
2112	0	32823	32806	
2113	0	32772	32742	
2114	0	32840	32698	
2115	0	32804	32736	
2116	0	32839	32794	
2117	0	32772	32787	
2118	0	32816	32824	
2119	0	32808	32686	
2120	0	32800	32722	
2121	0	32812	32805	
2122	0	32808	32758	
2123	0	32820	32756	
2124	0	32810	32676	
2125	0	32812	32760	
2126	0	32848	32775	
2127	0	32775	32806	
2128	0	32760	32692	
2129	0	32840	32640	
2130	0	32872	32774	
2131	0	32780	32808	
2132	0	32808	32775	
2133	0	32760	32711	
2134	0	32816	32788	
2135	0	32840	32788	
2136	0	32820	32784	
2137	0	32772	32676	
2138	0	32840	32656	
2139	0	32816	32743	
2140	0	32856	32804	
2141	0	32772	32775	
2142	0	32808	32826	
2143	0	32760	32674	
2144	0	32860	32723	
2145	0	32828	32820	
2146	0	32772	32805	
2147	0	32898	32834	
2148	0	32790	32775	
2149	0	32792	32756	
2150	0	32868	32679	
2151	0	32876	32734	
2152	0	32852	32742	
2153	0	32792	32816	
2154	0	32800	32766	
2155	0	32826	32754	
2156	0	32772	32871	
2157	0	32792	32704	
2158	0	32864	32640	
2159	0	32790	32714	
2160	0	32800	32694	
2161	0	32848	32702	
2162	0	32800	32807	
2163	0	32788	32848	
2164	0	32800	32748	
2165	0	32826	32806	
2166	0	32820	32748	
2167	0	32804	32775	
2168	0	32872	32871	
2169	0	32776	32804	
2170	0	32910	32692	
2171	0	32784	32738	
2172	0	32780	32734	
2173	0	32834	32784	
2174	0	32816	32732	
2175	0	32834	32742	
2176	0	32892	32794	
2177	0	32794	32784	
2178	0	32832	32752	
2179	0	32806	32711	
2180	0	32866	32775	
2181	0	32764	32772	
2182	0	32795	32772	
2183	0	32812	32750	
2184	0	32858	32737	
2185	0	32798	32775	
2186	0	32736	32730	
2187	0	32756	32742	
2188	0	32764	32725	
2189	0	32820	32774	
2190	0	32762	32807	
2191	0	32884	32838	
2192	0	32782	32732	
2193	0	32780	32796	
2194	0	32868	32708	
2195	0	32848	32790	
2196	0	32786	32854	
2197	0	32785	32760	
2198	0	32784	32852	
2199	0	32868	32838	
2200	0	32764	32752	
2201	0	32852	32718	
2202	0	32820	32716	
2203	0	32796	32716	
2204	0	32796	32788	
2205	0	32860	32868	
2206	0	32834	32716	
2207	0	32800	32804	
2208	0	32836	32842	
2209	0	32782	32760	
2210	0	32750	32610	
2211	0	32792	32682	
2212	0	32804	32890	
2213	0	32781	32854	
2214	0	32820	32796	
2215	0	32804	32697	
2216	0	32814	32775	
2217	0	32794	32810	
2218	0	32848	32816	
2219	0	32790	32734	
2220	0	32832	32670	
2221	0	32824	32802	
2222	0	32788	32734	
2223	0	32790	32767	
2224	0	32808	32807	
2225	0	32828	32775	
2226	0	32832	32799	
2227	0	32798	32788	
2228	0	32826	32796	
2229	0	32878	32678	
2230	0	32876	32726	
2231	0	32860	32740	
2232	0	32832	32760	
2233	0	32868	32764	
2234	0	32848	32748	
2235	0	32756	32840	
2236	0	32858	32806	
2237	0	32764	32730	
2238	0	32742	32720	
2239	0	32742	32716	
2240	0	32796	32860	
2241	0	32790	32772	
2242	0	32764	32774	
2243	0	32868	32764	
2244	0	32750	32838	
2245	0	32828	32868	
2246	0	32832	32788	
2247	0	32802	32746	
2248	0	32824	32720	
2249	0	32868	32692	
2250	0	32846	32672	
2251	0	32780	32816	
2252	0	32784	32754	
2253	0	32852	32754	
2254	0	32820	32826	
2255	0	32856	32796	
2256	0	32864	32703	
2257	0	32823	32738	
2258	0	32814	32715	
2259	0	32824	32902	
2260	0	32814	32822	
2261	0	32784	32819	
2262	0	32782	32775	
2263	0	32828	32768	
2264	0	32848	32730	
2265	0	32776	32725	
2266	0	32796	32798	
2267	0	32776	32894	
2268	0	32738	32758	
2269	0	32820	32792	
2270	0	32859	32711	
2271	0	32810	32720	
2272	0	32852	32752	
2273	0	32890	32754	
2274	0	32860	32775	
2275	0	32840	32772	
2276	0	32814	32822	
2277	0	32828	32804	
2278	0	32850	32812	
2279	0	32848	32756	
2280	0	32824	32716	
2281	0	32864	32739	
2282	0	32844	32791	
2283	0	32824	32768	
2284	0	32796	32818	
2285	0	32792	32758	
2286	0	32736	32748	
2287	0	32818	32810	
2288	0	32808	32740	
2289	0	32784	32668	
2290	0	32828	32854	
2291	0	32788	32738	
2292	0	32798	32814	
2293	0	32816	32742	
2294	0	32816	32732	
2295	0	32847	32784	
2296	0	32848	32822	
2297	0	32900	32775	
2298	0	32732	32716	
2299	0	32768	32862	
2300	0	32872	32775	
2301	0	32792	32711	
2302	0	32758	32792	
2303	0	32836	32796	
2304	0	32788	32792	
2305	0	32774	32856	
2306	0	32788	32724	
2307	0	32828	32701	
2308	0	32772	32704	
2309	0	32792	32743	
2310	0	32752	32806	
2311	0	32780	32724	
2312	0	32838	32775	
2313	0	32832	32806	
2314	0	32866	32670	
2315	0	32852	32735	
2316	0	32820	32714	
2317	0	32772	32820	
2318	0	32808	32784	
2319	0	32828	32759	
2320	0	32828	32722	
2321	0	32860	32887	
2322	0	32776	32812	
2323	0	32708	32725	
2324	0	32840	32604	
2325	0	32828	32736	
2326	0	32832	32767	
2327	0	32800	32847	
2328	0	32824	32696	
2329	0	32836	32732	
2330	0	32806	32842	
2331	0	32860	32803	
2332	0	32804	32800	
2333	0	32760	32689	
2334	0	32866	32740	
2335	0	32832	32824	
2336	0	32844	32700	
2337	0	32728	32878	
2338	0	32822	32773	
2339	0	32852	32736	
2340	0	32796	32850	
2341	0	32848	32824	
2342	0	32812	32750	
2343	0	32852	32775	
2344	0	32772	32814	
2345	0	32750	32698	
2346	0	32752	32775	
2347	0	32816	32704	
2348	0	32806	32826	
2349	0	32816	32802	
2350	0	32736	32807	
2351	0	32836	32824	
2352	0	32852	32698	
2353	0	32808	32646	
2354	0	32846	32804	
2355	0	32804	32792	
2356	0	32802	32788	
2357	0	32832	32794	
2358	0	32780	32684	
2359	0	32842	32808	
2360	0	32832	32800	
2361	0	32820	32710	
2362	0	32816	32816	
2363	0	32788	32710	
2364	0	32752	32696	
2365	0	32848	32738	
2366	0	32788	32838	
2367	0	32828	32754	
2368	0	32828	32878	
2369	0	32836	32748	
2370	0	32820	32750	
2371	0	32780	32736	
2372	0	32820	32734	
2373	0	32778	32748	
2374	0	32800	32748	
2375	0	32852	32775	
2376	0	32820	32744	
2377	0	32836	32756	
2378	0	32828	32764	
2379	0	32780	32738	
2380	0	32760	32792	
2381	0	32802	32716	
2382	0	32846	32736	
2383	0	32778	32810	
2384	0	32844	32764	
2385	0	32764	32759	
2386	0	32792	32839	
2387	0	32790	32838	
2388	0	32792	32775	
2389	0	32790	32734	
2390	0	32796	32702	
2391	0	32832	32828	
2392	0	32752	32730	
2393	0	32836	32743	
2394	0	32844	32727	
2395	0	32868	32798	
2396	0	32812	32748	
2397	0	32836	32775	
2398	0	32846	32762	
2399	0	32822	32775	
2400	0	32782	32636	
2401	0	32766	32842	
2402	0	32808	32807	
2403	0	32876	32704	
2404	0	32844	32828	
2405	0	32852	32790	
2406	0	32748	32710	
2407	0	32788	32810	
2408	0	32834	32662	
2409	0	32822	32756	
2410	0	32852	32748	
2411	0	32832	32826	
2412	0	32806	32850	
2413	0	32810	32764	
2414	0	32764	32852	
2415	0	32772	32704	
2416	0	32786	32830	
2417	0	32820	32700	
2418	0	32836	32775	
2419	0	32826	32801	
2420	0	32832	32794	
2421	0	32810	32894	
2422	0	32824	32828	
2423	0	32812	32812	
2424	0	32808	32664	
2425	0	32864	32792	
2426	0	32818	32769	
2427	0	32840	32706	
2428	0	32812	32668	
2429	0	32818	32802	
2430	0	32736	32808	
2431	0	32808	32706	
2432	0	32865	32804	
2433	0	32816	32842	
2434	0	32856	32708	
2435	0	32810	32774	
2436	0	32804	32785	
2437	0	32836	32622	
2438	0	32849	32775	
2439	0	32784	32708	
2440	0	32840	32678	
2441	0	32832	32695	
2442	0	32846	32908	
2443	0	32768	32702	
2444	0	32812	32732	
2445	0	32736	32786	
2446	0	32794	32752	
2447	0	32784	32712	
2448	0	32762	32670	
2449	0	32840	32702	
2450	0	32806	32730	
2451	0	32832	32738	
2452	0	32784	32922	
2453	0	32842	32818	
2454	0	32852	32805	
2455	0	32820	32738	
2456	0	32816	32796	
2457	0	32788	32860	
2458	0	32788	32742	
2459	0	32848	32682	
2460	0	32828	32694	
2461	0	32794	32775	
2462	0	32848	32748	
2463	0	32788	32832	
2464	0	32806	32772	
2465	0	32822	32801	
2466	0	32792	32686	
2467	0	32784	32800	
2468	0	32798	32718	
2469	0	32774	32814	
2470	0	32808	32816	
2471	0	32822	32790	
2472	0	32804	32790	
2473	0	32828	32820	
2474	0	32784	32650	
2475	0	32802	32740	
2476	0	32768	32810	
2477	0	32828	32758	
2478	0	32744	32785	
2479	0	32880	32839	
2480	0	32836	32678	
2481	0	32816	32644	
2482	0	32736	32676	
2483	0	32778	32780	
2484	0	32804	32843	
2485	0	32806	32800	
2486	0	32798	32768	
2487	0	32916	32812	
2488	0	32908	32858	
2489	0	32796	32756	
2490	0	32766	32732	
2491	0	32748	32704	
2492	0	32840	32708	
2493	0	32836	32770	
2494	0	32828	32775	
2495	0	32848	32796	
2496	0	32772	32748	
2497	0	32824	32775	
2498	0	32768	32794	
2499	0	32820	32740	
2500	0	32775	32726	
2501	0	32808	32764	
2502	0	32788	32721	
2503	0	32860	32692	
2504	0	32760	32660	
2505	0	32752	32758	
2506	0	32842	32764	
2507	0	32820	32827	
2508	0	32864	32725	
2509	0	32768	32692	
2510	0	32804	32658	
2511	0	32852	32806	
2512	0	32860	32796	
2513	0	32872	32807	
2514	0	32808	32818	
2515	0	32798	32766	
2516	0	32768	32682	
2517	0	32808	32791	
2518	0	32772	32788	
2519	0	32844	32826	
2520	0	32848	32794	
2521	0	32812	32672	
2522	0	32804	32775	
2523	0	32868	32684	
2524	0	32770	32807	
2525	0	32900	32775	
2526	0	32820	32871	
2527	0	32796	32769	
2528	0	32760	32729	
2529	0	32828	32829	
2530	0	32836	32738	
2531	0	32792	32839	
2532	0	32746	32674	
2533	0	32800	32714	
2534	0	32868	32830	
2535	0	32772	32684	
2536	0	32748	32796	
2537	0	32812	32822	
2538	0	32856	32674	
2539	0	32836	32712	
2540	0	32776	32770	
2541	0	32832	32846	
2542	0	32840	32756	
2543	0	32768	32820	
2544	0	32820	32686	
2545	0	32817	32743	
2546	0	32832	32798	
2547	0	32832	32700	
2548	0	32860	32804	
2549	0	32888	32784	
2550	0	32828	32774	
2551	0	32838	32703	
2552	0	32800	32886	
2553	0	32778	32784	
2554	0	32833	32774	
2555	0	32864	32740	
2556	0	32824	32796	
2557	0	32768	32726	
2558	0	32804	32647	
2559	0	32772	32700	
2560	0	32824	32852	
2561	0	32778	32840	
2562	0	32832	32756	
2563	0	32744	32856	
2564	0	32838	32743	
2565	0	32814	32618	
2566	0	32784	32687	
2567	0	32804	32868	
2568	0	32772	32766	
2569	0	32768	32740	
2570	0	32828	32775	
2571	0	32792	32770	
2572	0	32744	32698	
2573	0	32864	32712	
2574	0	32846	32694	
2575	0	32838	32758	
2576	0	32822	32775	
2577	0	32860	32804	
2578	0	32846	32724	
2579	0	32810	32922	
2580	0	32752	32710	
2581	0	32780	32886	
2582	0	32828	32806	
2583	0	32836	32850	
2584	0	32792	32727	
2585	0	32804	32744	
2586	0	32782	32702	
2587	0	32764	32754	
2588	0	32772	32758	
2589	0	32808	32680	
2590	0	32808	32712	
2591	0	32756	32673	
2592	0	32814	32688	
2593	0	32810	32810	
2594	0	32824	32750	
2595	0	32794	32811	
2596	0	32828	32804	
2597	0	32752	32736	
2598	0	32808	32696	
2599	0	32816	32724	
2600	0	32824	32839	
2601	0	32816	32751	
2602	0	32764	32765	
2603	0	32788	32816	
2604	0	32856	32748	
2605	0	32844	32828	
2606	0	32792	32764	
2607	0	32868	32763	
2608	0	32830	32860	
2609	0	32836	32743	
2610	0	32792	32775	
2611	0	32820	32724	
2612	0	32810	32674	
2613	0	32760	32804	
2614	0	32812	32902	
2615	0	32852	32750	
2616	0	32744	32852	
2617	0	32804	32700	
2618	0	32820	32692	
2619	0	32794	32864	
2620	0	32796	32775	
2621	0	32816	32743	
2622	0	32776	32768	
2623	0	32780	32756	
2624	0	32804	32820	
2625	0	32838	32714	
2626	0	32850	32814	
2627	0	32812	32732	
2628	0	32810	32792	
2629	0	32792	32890	
2630	0	32848	32834	
2631	0	32832	32693	
2632	0	32800	32688	
2633	0	32752	32839	
2634	0	32756	32792	
2635	0	32808	32834	
2636	0	32864	32728	
2637	0	32848	32735	
2638	0	32742	32790	
2639	0	32890	32769	
2640	0	32716	32820	
2641	0	32886	32810	
2642	0	32804	32634	
2643	0	32874	32716	
2644	0	32824	32864	
2645	0	32832	32702	
2646	0	32864	32798	
2647	0	32824	32784	
2648	0	32744	32576	
2649	0	32844	32727	
2650	0	32774	32743	
2651	0	32816	32759	
2652	0	32844	32768	
2653	0	32828	32852	
2654	0	32868	32796	
2655	0	32822	32662	
2656	0	32848	32730	
2657	0	32816	32784	
2658	0	32848	32775	
2659	0	32760	32836	
2660	0	32748	32664	
2661	0	32760	32704	
2662	0	32772	32862	
2663	0	32804	32794	
2664	0	32722	32748	
2665	0	32845	32800	
2666	0	32748	32734	
2667	0	32775	32762	
2668	0	32768	32812	
2669	0	32808	32761	
2670	0	32756	32802	
2671	0	32784	32744	
2672	0	32864	32664	
2673	0	32792	32707	
2674	0	32780	32756	
2675	0	32820	32775	
2676	0	32846	32744	
2677	0	32784	32775	
2678	0	32834	32724	
2679	0	32794	32758	
2680	0	32840	32807	
2681	0	32820	32826	
2682	0	32756	32817	
2683	0	32856	32804	
2684	0	32806	32824	
2685	0	32832	32840	
2686	0	32810	32774	
2687	0	32784	32774	
2688	0	32852	32754	
2689	0	32820	32858	
2690	0	32760	32802	
2691	0	32826	32754	
2692	0	32792	32744	
2693	0	32848	32730	
2694	0	32880	32738	
2695	0	32804	32842	
2696	0	32820	32740	
2697	0	32830	32774	
2698	0	32758	32794	
2699	0	32752	32700	
2700	0	32824	32694	
2701	0	32840	32767	
2702	0	32820	32822	
2703	0	32788	32758	
2704	0	32778	32789	
2705	0	32714	32764	
2706	0	32744	32638	
2707	0	32804	32770	
2708	0	32770	32709	
2709	0	32772	32886	
2710	0	32786	32806	
2711	0	32844	32775	
2712	0	32816	32832	
2713	0	32828	32764	
2714	0	32824	32684	
2715	0	32820	32788	
2716	0	32840	32816	
2717	0	32822	32766	
2718	0	32858	32807	
2719	0	32826	32800	
2720	0	32776	32710	
2721	0	32804	32684	
2722	0	32812	32810	
2723	0	32832	32704	
2724	0	32762	32810	
2725	0	32801	32772	
2726	0	32892	32820	
2727	0	32924	32742	
2728	0	32844	32754	
2729	0	32816	32879	
2730	0	32810	32767	
2731	0	32846	32746	
2732	0	32780	32808	
2733	0	32794	32784	
2734	0	32764	32763	
2735	0	32764	32704	
2736	0	32774	32762	
2737	0	32775	32760	
2738	0	32792	32720	
2739	0	32876	32696	
2740	0	32860	32810	
2741	0	32836	32892	
2742	0	32820	32764	
2743	0	32784	32732	
2744	0	32896	32764	
2745	0	32820	32844	
2746	0	32830	32830	
2747	0	32816	32729	
2748	0	32821	32806	
2749	0	32832	32714	
2750	0	32830	32742	
2751	0	32800	32800	
2752	0	32824	32817	
2753	0	32808	32798	
2754	0	32812	32772	
2755	0	32862	32702	
2756	0	32800	32794	
2757	0	32830	32824	
2758	0	32804	32790	
2759	0	32896	32771	
2760	0	32742	32775	
2761	0	32800	32804	
2762	0	32736	32756	
2763	0	32776	32671	
2764	0	32798	32743	
2765	0	32804	32711	
2766	0	32816	32871	
2767	0	32812	32761	
2768	0	32836	32820	
2769	0	32826	32760	
2770	0	32732	32764	
2771	0	32832	32583	
2772	0	32860	32784	
2773	0	32764	32775	
2774	0	32840	32839	
2775	0	32852	32775	
2776	0	32774	32775	
2777	0	32812	32724	
2778	0	32816	32879	
2779	0	32752	32772	
2780	0	32852	32842	
2781	0	32884	32798	
2782	0	32804	32716	
2783	0	32824	32724	
2784	0	32844	32660	
2785	0	32846	32734	
2786	0	32792	32750	
2787	0	32776	32846	
2788	0	32820	32826	
2789	0	32752	32725	
2790	0	32824	32727	
2791	0	32816	32775	
2792	0	32856	32816	
2793	0	32836	32823	
2794	0	32828	32724	
2795	0	32873	32724	
2796	0	32836	32775	
2797	0	32756	32810	
2798	0	32780	32750	
2799	0	32776	32713	
2800	0	32832	32775	
2801	0	32864	32775	
2802	0	32728	32730	
2803	0	32840	32724	
2804	0	32842	32852	
2805	0	32802	32839	
2806	0	32804	32814	
2807	0	32858	32721	
2808	0	32752	32725	
2809	0	32768	32770	
2810	0	32792	32775	
2811	0	32828	32698	
2812	0	32828	32820	
2813	0	32860	32852	
2814	0	32796	32694	
2815	0	32758	32726	
2816	0	32842	32682	
2817	0	32784	32664	
2818	0	32828	32818	
2819	0	32816	32746	
2820	0	32806	32824	
2821	0	32818	32828	
2822	0	32836	32688	
2823	0	32848	32723	
2824	0	32852	32760	
2825	0	32788	32807	
2826	0	32804	32692	
2827	0	32808	32692	
2828	0	32862	32647	
2829	0	32840	32828	
2830	0	32836	32712	
2831	0	32792	32740	
2832	0	32808	32792	
2833	0	32808	32836	
2834	0	32832	32826	
2835	0	32896	32630	
2836	0	32762	32668	
2837	0	32774	32626	
2838	0	32772	32729	
2839	0	32775	32628	
2840	0	32752	32687	
2841	0	32752	32644	
2842	0	32772	32687	
2843	0	32760	32708	
2844	0	32680	32802	
2845	0	32720	32656	
2846	0	32696	32572	
2847	0	32656	32598	
2848	0	32744	32606	
2849	0	32828	32752	
2850	0	32656	32711	
2851	0	32704	32876	
2852	0	32750	32775	
2853	0	32732	32840	
2854	0	32648	32774	
2855	0	32692	32756	
2856	0	32680	32742	
2857	0	32748	32833	
2858	0	32708	32756	
2859	0	32772	32856	
2860	0	32756	32818	
2861	0	32752	32790	
2862	0	32796	32672	
2863	0	32762	32680	
2864	0	32780	32792	
2865	0	32808	32748	
2866	0	32940	32874	
2867	0	32946	32996	
2868	0	33168	33106	
2869	0	33140	33094	
2870	0	33214	33012	
2871	0	33216	32996	
2872	0	33238	32887	
2873	0	33142	32940	
2874	0	33108	32790	
2875	0	33088	32772	
2876	0	33076	32858	
2877	0	32968	32864	
2878	0	32940	32735	
2879	0	32868	32800	
2880	0	32856	32772	
2881	0	32736	32764	
2882	0	32742	32808	
2883	0	32716	32720	
2884	0	32686	32783	
2885	0	32704	32806	
2886	0	32756	32756	
2887	0	32736	32736	
2888	0	32674	32612	
2889	0	32690	32708	
2890	0	32748	32750	
2891	0	32648	32640	
2892	0	32660	32660	
2893	0	32684	32671	
2894	0	32748	32543	
2895	0	32744	32586	
2896	0	32724	32631	
2897	0	32742	32646	
2898	0	32760	32775	
2899	0	32844	32630	
2900	0	32752	32620	
2901	0	32752	32710	
2902	0	32784	32841	
2903	0	32768	32712	
2904	0	32780	32775	
2905	0	32784	32832	
2906	0	32784	32812	
2907	0	32788	32772	
2908	0	32808	32772	
2909	0	32844	32670	
2910	0	32748	32692	
2911	0	32816	32722	
2912	0	32790	32919	
2913	0	32788	32836	
2914	0	32836	32856	
2915	0	32858	32831	
2916	0	32788	32759	
2917	0	32804	32674	
2918	0	32816	32848	
2919	0	32836	32812	
2920	0	32888	32798	
2921	0	32776	32772	
2922	0	32816	32727	
2923	0	32864	32788	
2924	0	32786	32711	
2925	0	32736	32732	
2926	0	32785	32636	
2927	0	32816	32682	
2928	0	32788	32775	
2929	0	32798	32646	
2930	0	32720	32652	
2931	0	32792	32838	
2932	0	32752	32802	
2933	0	32880	32774	
2934	0	32840	32720	
2935	0	32792	32855	
2936	0	32756	32756	
2937	0	32792	32775	
2938	0	32824	32679	
2939	0	32786	32724	
2940	0	32868	32806	
2941	0	32844	32830	
2942	0	32874	32770	
2943	0	32852	32670	
2944	0	32804	32800	
2945	0	32822	32670	
2946	0	32824	32678	
2947	0	32778	32698	
2948	0	32804	32856	
2949	0	32840	32804	
2950	0	32856	32860	
2951	0	32802	32846	
2952	0	32844	32743	
2953	0	32832	32664	
2954	0	32780	32838	
2955	0	32816	32860	
2956	0	32788	32788	
2957	0	32832	32760	
2958	0	32818	32602	
2959	0	32760	32710	
2960	0	32790	32846	
2961	0	32862	32758	
2962	0	32812	32772	
2963	0	32808	32862	
2964	0	32816	32726	
2965	0	32800	32702	
2966	0	32788	32840	
2967	0	32824	32796	
2968	0	32826	32752	
2969	0	32820	32754	
2970	0	32806	32638	
2971	0	32780	32696	
2972	0	32786	32836	
2973	0	32870	32800	
2974	0	32892	32788	
2975	0	32844	32764	
2976	0	32816	32642	
2977	0	32834	32750	
2978	0	32788	32668	
2979	0	32777	32846	
2980	0	32736	32764	
2981	0	32798	32718	
2982	0	32682	32558	
2983	0	32772	32730	
2984	0	32832	32708	
2985	0	32820	32832	
2986	0	32834	32720	
2987	0	32872	32710	
2988	0	32886	32852	
2989	0	32820	32836	
2990	0	32788	32868	
2991	0	32864	32866	
2992	0	32780	32768	
2993	0	32768	32742	
2994	0	32802	32838	
2995	0	32804	32778	
2996	0	32786	32710	
2997	0	32832	32804	
2998	0	32784	32678	
2999	0	32864	32728	
3000	0	32816	32750	
3001	0	32796	32775	
3002	0	32740	32760	
3003	0	32916	32808	
3004	0	32804	32830	
3005	0	32792	32720	
3006	0	32832	32687	
3007	0	32856	32775	
3008	0	32824	32800	
3009	0	32818	32786	
3010	0	32880	32792	
3011	0	32824	32794	
3012	0	32818	32728	
3013	0	32792	32800	
3014	0	32828	32888	
3015	0	32744	32802	
3016	0	32868	32792	
3017	0	32768	32806	
3018	0	32826	32756	
3019	0	32858	32668	
3020	0	32806	32732	
3021	0	32806	32772	
3022	0	32836	32712	
3023	0	32786	32774	
3024	0	32748	32865	
3025	0	32808	32734	
3026	0	32729	32708	
3027	0	32780	32746	
3028	0	32884	32855	
3029	0	32884	32824	
3030	0	32764	32708	
3031	0	32712	32678	
3032	0	32772	32849	
3033	0	32740	32690	
3034	0	32752	32687	
3035	0	32768	32706	
3036	0	32802	32752	
3037	0	32780	32810	
3038	0	32792	32768	
3039	0	32800	32710	
3040	0	32824	32763	
3041	0	32872	32816	
3042	0	32814	32864	
3043	0	32800	32750	
3044	0	32890	32826	
3045	0	32800	32744	
3046	0	32770	32677	
3047	0	32812	32658	
3048	0	32808	32790	
3049	0	32836	32802	
3050	0	32820	32807	
3051	0	32864	32660	
3052	0	32782	32695	
3053	0	32768	32790	
3054	0	32830	32775	
3055	0	32780	32718	
3056	0	32820	32638	
3057	0	32890	32616	
3058	0	32896	32706	
3059	0	32852	32708	
3060	0	32698	32884	
3061	0	32752	32878	
3062	0	32820	32828	
3063	0	32824	32806	
3064	0	32834	32892	
3065	0	32840	32890	
3066	0	32792	32873	
3067	0	32820	32775	
3068	0	32832	32814	
3069	0	32772	32844	
3070	0	32788	32684	
3071	0	32808	32692	
3072	0	32768	32820	
3073	0	32844	32774	
3074	0	32896	32818	
3075	0	32812	32724	
3076	0	32798	32704	
3077	0	32810	32740	
3078	0	32912	32670	
3079	0	32804	32736	
3080	0	32860	32784	
3081	0	32756	32768	
3082	0	32832	32742	
3083	0	32756	32664	
3084	0	32718	32598	
3085	0	32728	32698	
3086	0	32784	32788	
3087	0	32800	32732	
3088	0	32804	32822	
3089	0	32800	32799	
3090	0	32752	32796	
3091	0	32852	32782	
3092	0	32748	32688	
3093	0	32824	32856	
3094	0	32908	32842	
3095	0	32942	32790	
3096	0	32836	32879	
3097	0	32834	32734	
3098	0	32760	32628	
3099	0	32804	32736	
3100	0	32806	32806	
3101	0	32784	32736	
3102	0	32948	32796	
3103	0	32856	32842	
3104	0	32730	32822	
3105	0	32804	32775	
3106	0	32860	32782	
3107	0	32844	32862	
3108	0	32928	32759	
3109	0	32826	32850	
3110	0	32820	32775	
3111	0	32836	32736	
3112	0	32822	32806	
3113	0	32688	32775	
3114	0	32720	32756	
3115	0	32680	32742	
3116	0	32860	32646	
3117	0	32766	32754	
3118	0	32716	32816	
3119	0	32710	32774	
3120	0	32712	32741	
3121	0	32814	32764	
3122	0	32872	32648	
3123	0	32844	32810	
3124	0	32776	32736	
3125	0	32830	32775	
3126	0	32796	32760	
3127	0	32822	32578	
3128	0	32840	32712	
3129	0	32820	32804	
3130	0	32896	32750	
3131	0	32748	32799	
3132	0	32816	32723	
3133	0	32836	32666	
3134	0	32852	32719	
3135	0	32796	32828	
3136	0	32828	32836	
3137	0	32808	32784	
3138	0	32808	32796	
3139	0	32780	32704	
3140	0	32804	32716	
3141	0	32820	32770	
3142	0	32916	32700	
3143	0	32860	32847	
3144	0	32820	32749	
3145	0	32796	32692	
3146	0	32758	32628	
3147	0	32768	32838	
3148	0	32814	32775	
3149	0	32826	32810	
3150	0	32800	32764	
3151	0	32774	32705	
3152	0	32782	32668	
3153	0	32812	32724	
3154	0	32804	32716	
3155	0	32800	32806	
3156	0	32876	32774	
3157	0	32854	32678	
3158	0	32892	32700	
3159	0	32808	32820	
3160	0	32904	32852	
3161	0	32926	32876	
3162	0	32868	32822	
3163	0	32874	32736	
3164	0	32764	32822	
3165	0	32916	32826	
3166	0	32730	32723	
3167	0	32722	32646	
3168	0	32775	32742	
3169	0	32768	32674	
3170	0	32776	32843	
3171	0	32775	32832	
3172	0	32692	32746	
3173	0	32768	32788	
3174	0	32776	32772	
3175	0	32808	32756	
3176	0	32754	32830	
3177	0	32784	32740	
3178	0	32744	32775	
3179	0	32740	32767	
3180	0	32768	32726	
3181	0	32864	32830	
3182	0	32824	32871	
3183	0	32844	32808	
3184	0	32852	32714	
3185	0	32812	32630	
3186	0	32776	32647	
3187	0	32788	32798	
3188	0	32876	32748	
3189	0	32806	32706	
3190	0	32821	32816	
3191	0	32922	32820	
3192	0	32908	32694	
3193	0	32984	32711	
3194	0	32828	32769	
3195	0	32664	32696	
3196	0	32788	32824	
3197	0	32848	32744	
3198	0	32920	32836	
3199	0	32808	32692	
3200	0	32688	32568	
3201	0	32694	32583	
3202	0	32814	32644	
3203	0	32788	32704	
3204	0	32816	32788	
3205	0	32768	32828	
3206	0	32852	32842	
3207	0	32804	32839	
3208	0	32677	32896	
3209	0	32728	32744	
3210	0	32716	32832	
3211	0	32798	32732	
3212	0	32892	32792	
3213	0	32856	32856	
3214	0	32808	32738	
3215	0	32788	32830	
3216	0	32878	32841	
3217	0	32784	32824	
3218	0	32810	32755	
3219	0	32814	32628	
3220	0	32810	32720	
3221	0	32824	32708	
3222	0	32808	32611	
3223	0	32856	32720	
3224	0	32892	32752	
3225	0	32904	32718	
3226	0	32852	32804	
3227	0	32818	32804	
3228	0	32916	32774	
3229	0	32928	32631	
3230	0	32918	32580	
3231	0	32948	32692	
3232	0	32924	32786	
3233	0	32768	32788	
3234	0	32760	32854	
3235	0	32693	32888	
3236	0	32608	32788	
3237	0	32632	32820	
3238	0	32708	32908	
3239	0	32698	32743	
3240	0	32746	32806	
3241	0	32760	32700	
3242	0	32718	32762	
3243	0	32782	32870	
3244	0	32834	32865	
3245	0	32822	32820	
3246	0	32928	32775	
3247	0	32814	32868	
3248	0	32840	32784	
3249	0	32808	32814	
3250	0	32860	32775	
3251	0	32868	32748	
3252	0	32844	32807	
3253	0	32934	32666	
3254	0	32944	32795	
3255	0	32986	32764	
3256	0	32725	32790	
3257	0	32708	32696	
3258	0	32816	32808	
3259	0	32904	32823	
3260	0	32758	32740	
3261	0	32876	32838	
3262	0	32912	32790	
3263	0	32836	32684	
3264	0	32668	32878	
3265	0	32766	32743	
3266	0	32766	32788	
3267	0	32852	32768	
3268	0	32852	32828	
3269	0	32688	32790	
3270	0	32776	32935	
3271	0	32772	32870	
3272	0	32772	32775	
3273	0	32740	32836	
3274	0	32780	32842	
3275	0	32696	32824	
3276	0	32916	32895	
3277	0	32852	32864	
3278	0	32864	32804	
3279	0	32916	32775	
3280	0	32920	32826	
3281	0	32722	32860	
3282	0	32786	32770	
3283	0	32688	32668	
3284	0	32760	32844	
3285	0	32732	32769	
3286	0	32732	32670	
3287	0	32756	32866	
3288	0	32760	32822	
3289	0	32826	32720	
3290	0	32814	32794	
3291	0	32916	32726	
3292	0	33084	32870	
3293	0	32892	32912	
3294	0	32938	32744	
3295	0	32890	32830	
3296	0	32776	32775	
3297	0	32668	32674	
3298	0	32884	32711	
3299	0	32948	32676	
3300	0	32856	32680	
3301	0	32780	32704	
3302	0	32864	32788	
3303	0	32826	32824	
3304	0	32848	32696	
3305	0	32756	32799	
3306	0	32548	32786	
3307	0	32684	32814	
3308	0	32796	32704	
3309	0	32824	32678	
3310	0	32672	32730	
3311	0	32704	32716	
3312	0	32708	32662	
3313	0	32794	32624	
3314	0	32804	32742	
3315	0	32790	32660	
3316	0	32732	32583	
3317	0	32756	32597	
3318	0	32778	32716	
3319	0	32694	32708	
3320	0	32624	32604	
3321	0	32784	32666	
3322	0	32932	32602	
3323	0	32960	32676	
3324	0	32948	32616	
3325	0	32928	32584	
3326	0	32962	32592	
3327	0	33042	32624	
3328	0	33013	32679	
3329	0	33040	32838	
3330	0	32740	32794	
3331	0	32760	32768	
3332	0	32868	32766	
3333	0	32858	32774	
3334	0	32944	32832	
3335	0	32992	32678	
3336	0	33040	32720	
3337	0	32858	32716	
3338	0	32760	32592	
3339	0	32568	32812	
3340	0	32388	32798	
3341	0	32490	32674	
3342	0	32684	32852	
3343	0	32524	32839	
3344	0	32720	32820	
3345	0	32916	32911	
3346	0	32888	32872	
3347	0	32864	32834	
3348	0	32736	32766	
3349	0	32802	32890	
3350	0	32672	32788	
3351	0	32864	32824	
3352	0	32800	32726	
3353	0	32896	32695	
3354	0	32916	32709	
3355	0	32692	32775	
3356	0	32872	32880	
3357	0	32976	32854	
3358	0	33004	32762	
3359	0	32948	32864	
3360	0	32942	32874	
3361	0	32804	32870	
3362	0	32724	32762	
3363	0	32976	32870	
3364	0	32960	32704	
3365	0	32764	32611	
3366	0	32344	32720	
3367	0	32684	32698	
3368	0	32880	32660	
3369	0	33024	32664	
3370	0	33016	32656	
3371	0	32864	32736	
3372	0	32556	32710	
3373	0	32775	32830	
3374	0	32804	32910	
3375	0	32960	32800	
3376	0	33108	32870	
3377	0	33060	32960	
3378	0	32480	32866	
3379	0	32400	32830	
3380	0	32604	32916	
3381	0	32448	32876	
3382	0	32524	33026	
3383	0	32736	32879	
3384	0	32986	32759	
3385	0	32928	32849	
3386	0	32826	32885	
3387	0	32894	32740	
3388	0	32852	32572	
3389	0	33182	32622	
3390	0	33088	32644	
3391	0	32968	32616	
3392	0	32880	32674	
3393	0	32712	32647	
3394	0	32857	32526	
3395	0	33238	32519	
3396	0	33152	32512	
3397	0	32908	32458	
3398	0	32322	32452	
3399	0	32250	32494	
3400	0	32452	32586	
3401	0	32656	32852	
3402	0	32492	32916	
3403	0	32540	33062	
3404	0	32838	33144	
3405	0	32900	33126	
3406	0	32808	33072	
3407	0	32880	33092	
3408	0	32788	33172	
3409	0	32858	33116	
3410	0	32936	33072	
3411	0	32885	33020	
3412	0	32922	32864	
3413	0	33068	32722	
3414	0	33076	32687	
3415	0	33170	32798	
3416	0	33000	32704	
3417	0	32740	32628	
3418	0	33044	32692	
3419	0	32688	32642	
3420	0	32696	32551	
3421	0	32756	32485	
3422	0	32748	32590	
3423	0	32684	32628	
3424	0	32672	32502	
3425	0	32644	32540	
3426	0	32772	32607	
3427	0	32830	32626	
3428	0	32778	32657	
3429	0	32804	32714	
3430	0	32768	32541	
3431	0	32924	32648	
3432	0	32736	32676	
3433	0	32868	32772	
3434	0	32762	32738	
3435	0	32758	32686	
3436	0	32944	32650	
3437	0	32888	32670	
3438	0	32952	32738	
3439	0	33036	32702	
3440	0	33000	32688	
3441	0	33016	32756	
3442	0	33076	32656	
3443	0	32652	32618	
3444	0	32490	32756	
3445	0	32952	32676	
3446	0	33186	32744	
3447	0	32596	32737	
3448	0	32636	32673	
3449	0	32616	32647	
3450	0	32708	32614	
3451	0	32754	32644	
3452	0	32646	32622	
3453	0	32700	32423	
3454	0	32884	32374	
3455	0	32984	32432	
3456	0	32272	32578	
3457	0	32424	32992	
3458	0	32536	33080	
3459	0	32704	33287	
3460	0	32664	33552	
3461	0	32660	33678	
3462	0	32898	33664	
3463	0	32856	33446	
3464	0	32974	33311	
3465	0	32870	33166	
3466	0	32954	33008	
3467	0	33112	32902	
3468	0	33074	32880	
3469	0	33016	32775	
3470	0	33136	32592	
3471	0	32868	32518	
3472	0	32904	32450	
3473	0	32996	32394	
3474	0	33152	32519	
3475	0	33152	32534	
3476	0	32872	32512	
3477	0	32870	32516	
3478	0	32864	32455	
3479	0	32408	32498	
3480	0	32480	32378	
3481	0	32704	32620	
3482	0	32784	32538	
3483	0	32488	32468	
3484	0	32532	32532	
3485	0	32748	32466	
3486	0	33032	32676	
3487	0	33064	32798	
3488	0	33036	32822	
3489	0	32775	32868	
3490	0	32904	32934	
3491	0	32924	33063	
3492	0	32888	33104	
3493	0	32948	32886	
3494	0	32732	32932	
3495	0	32684	32736	
3496	0	32614	32606	
3497	0	32394	32574	
3498	0	32480	32614	
3499	0	32752	32807	
3500	0	32552	32762	
3501	0	32740	32810	
3502	0	32820	32895	
3503	0	32808	32884	
3504	0	32664	32716	
3505	0	32900	32796	
3506	0	32968	32814	
3507	0	33124	32976	
3508	0	33084	32926	
3509	0	33092	32796	
3510	0	32732	32706	
3511	0	32668	32380	
3512	0	32952	32072	
3513	0	32760	32254	
3514	0	32684	32312	
3515	0	33000	32376	
3516	0	33022	32519	
3517	0	32704	32725	
3518	0	32888	32938	
3519	0	32600	33066	
3520	0	32666	33154	
3521	0	32860	33322	
3522	0	32744	33584	
3523	0	32670	33366	
3524	0	32832	33367	
3525	0	32928	33366	
3526	0	32984	33089	
3527	0	32484	32775	
3528	0	32634	32820	
3529	0	32804	32686	
3530	0	33102	32646	
3531	0	33126	32838	
3532	0	32798	32775	
3533	0	32594	32796	
3534	0	32916	32852	
3535	0	32852	32742	
3536	0	32720	32738	
3537	0	33264	32582	
3538	0	33504	32290	
3539	0	32412	32218	
3540	0	32492	32350	
3541	0	32998	32418	
3542	0	33092	32538	
3543	0	32948	32631	
3544	0	32528	32711	
3545	0	32492	32802	
3546	0	32752	33008	
3547	0	33096	33047	
3548	0	32412	32952	
3549	0	32292	32998	
3550	0	32732	33016	
3551	0	32844	32746	
3552	0	32550	32794	
3553	0	32756	32784	
3554	0	33012	32742	
3555	0	33072	32632	
3556	0	32956	32618	
3557	0	32944	32622	
3558	0	32922	32656	
3559	0	32952	32684	
3560	0	32832	32736	
3561	0	32842	32630	
3562	0	32800	32730	
3563	0	32990	32848	
3564	0	32584	32956	
3565	0	32600	32938	
3566	0	32718	32966	
3567	0	32596	32962	
3568	0	32700	32816	
3569	0	32796	32673	
3570	0	33073	32918	
3571	0	33180	32782	
3572	0	33046	32738	
3573	0	32836	32671	
3574	0	33016	32670	
3575	0	33202	32709	
3576	0	33248	32762	
3577	0	33192	32532	
3578	0	32784	32529	
3579	0	32448	32712	
3580	0	32834	32610	
3581	0	33102	32401	
3582	0	32978	32628	
3583	0	32290	32660	
3584	0	32328	32445	
3585	0	32210	32567	
3586	0	32000	32598	
3587	0	32216	32534	
3588	0	32288	32538	
3589	0	32388	32934	
3590	0	32628	33126	
3591	0	32922	33282	
3592	0	33100	33194	
3593	0	33100	33322	
3594	0	33060	33287	
3595	0	33164	33255	
3596	0	33113	33192	
3597	0	33128	33119	
3598	0	33198	32906	
3599	0	33042	33004	
3600	0	32897	33016	
3601	0	32888	33090	
3602	0	32976	32988	
3603	0	33032	32912	
3604	0	32808	32727	
3605	0	32888	32528	
3606	0	33114	32546	
3607	0	33044	32576	
3608	0	32868	32383	
3609	0	32760	32408	
3610	0	32776	32060	
3611	0	32188	31372	
3612	0	32088	31046	
3613	0	32561	31194	
3614	0	32616	31452	
3615	0	32674	31882	
3616	0	32802	32540	
3617	0	32952	33137	
3618	0	32948	33478	
3619	0	32876	33860	
3620	0	33024	34206	
3621	0	32972	34462	
3622	0	32560	34288	
3623	0	32584	34414	
3624	0	32734	34436	
3625	0	32682	34028	
3626	0	32712	33523	
3627	0	32906	32858	
3628	0	33272	32679	
3629	0	33520	32444	
3630	0	33148	32382	
3631	0	32480	32134	
3632	0	32224	32068	
3633	0	32660	32162	
3634	0	32872	32020	
3635	0	32334	32124	
3636	0	32180	32146	
3637	0	32548	31888	
3638	0	32576	31924	
3639	0	32750	32034	
3640	0	32744	32074	
3641	0	32732	32154	
3642	0	32902	32476	
3643	0	32952	32514	
3644	0	32588	32594	
3645	0	32670	32648	
3646	0	32780	32876	
3647	0	33034	32966	
3648	0	33028	33366	
3649	0	33380	33244	
3650	0	33522	33144	
3651	0	32410	33140	
3652	0	32404	33052	
3653	0	32952	33276	
3654	0	33344	33328	
3655	0	33032	33359	
3656	0	32898	33255	
3657	0	33480	33236	
3658	0	33556	33090	
3659	0	32880	32828	
3660	0	32404	32740	
3661	0	32646	32662	
3662	0	33076	32575	
3663	0	33244	32432	
3664	0	33180	32258	
3665	0	32948	32254	
3666	0	32824	32436	
3667	0	32844	32519	
3668	0	32672	32689	
3669	0	32714	32666	
3670	0	32648	32672	
3671	0	32622	32676	
3672	0	32696	32670	
3673	0	32724	32703	
3674	0	32820	32896	
3675	0	32720	32944	
3676	0	32768	33041	
3677	0	32808	33068	
3678	0	32712	33031	
3679	0	32784	33132	
3680	0	32908	32998	
3681	0	32664	32903	
3682	0	32632	32798	
3683	0	32864	32672	
3684	0	32924	32484	
3685	0	32940	32544	
3686	0	32402	32504	
3687	0	32312	32518	
3688	0	32754	32638	
3689	0	32736	32668	
3690	0	32870	32646	
3691	0	32860	32724	
3692	0	32952	32634	
3693	0	32948	32756	
3694	0	32686	32770	
3695	0	32584	33051	
3696	0	32756	33164	
3697	0	32932	33180	
3698	0	32876	33100	
3699	0	32984	33000	
3700	0	32964	32995	
3701	0	32736	32754	
3702	0	33022	32678	
3703	0	33348	32564	
3704	0	32828	32552	
3705	0	32690	32598	
3706	0	32336	32232	
3707	0	32604	32122	
3708	0	32744	31978	
3709	0	33226	32148	
3710	0	33184	32194	
3711	0	32624	32310	
3712	0	32564	32512	
3713	0	32900	32582	
3714	0	32615	32742	
3715	0	32424	32954	
3716	0	32436	33332	
3717	0	32732	33489	
3718	0	32744	33780	
3719	0	32712	33742	
3720	0	32716	33543	
3721	0	32790	33418	
3722	0	32896	33316	
3723	0	32864	33231	
3724	0	32940	33158	
3725	0	33032	33100	
3726	0	32960	32906	
3727	0	32956	32862	
3728	0	32896	32598	
3729	0	32980	32574	
3730	0	32960	32487	
3731	0	32964	32378	
3732	0	32860	32480	
3733	0	32914	32496	
3734	0	32972	32324	
3735	0	32864	32358	
3736	0	32650	32478	
3737	0	32816	32484	
3738	0	32816	32591	
3739	0	33024	32446	
3740	0	32720	32464	
3741	0	32690	32542	
3742	0	32900	32670	
3743	0	32612	32652	
3744	0	32814	32780	
3745	0	32904	32810	
3746	0	32910	32775	
3747	0	32952	32795	
3748	0	32920	32654	
3749	0	32816	32588	
3750	0	32472	32738	
3751	0	32600	32722	
3752	0	32686	32918	
3753	0	32774	32878	
3754	0	32836	32853	
3755	0	32830	33000	
3756	0	32832	32870	
3757	0	32792	32808	
3758	0	32460	32711	
3759	0	32714	32991	
3760	0	32752	33088	
3761	0	32844	32900	
3762	0	33244	32874	
3763	0	32678	32839	
3764	0	32686	32932	
3765	0	33034	32900	
3766	0	32988	33004	
3767	0	33000	32932	
3768	0	32928	32758	
3769	0	32826	32738	
3770	0	33082	32804	
3771	0	33104	32724	
3772	0	33296	32544	
3773	0	32472	32508	
3774	0	32456	32484	
3775	0	32996	32626	
3776	0	32818	32748	
3777	0	32348	32575	
3778	0	32644	32662	
3779	0	32856	32560	
3780	0	32640	32732	
3781	0	32422	32788	
3782	0	32532	32731	
3783	0	32728	32775	
3784	0	32832	32784	
3785	0	32856	32902	
3786	0	32816	33066	
3787	0	32916	33042	
3788	0	32894	33082	
3789	0	32936	33135	
3790	0	32938	32834	
3791	0	32918	32775	
3792	0	32864	32786	
3793	0	32884	32826	
3794	0	32916	32932	
3795	0	32830	32623	
3796	0	32798	32462	
3797	0	33000	32638	
3798	0	33048	32658	
3799	0	32976	32642	
3800	0	32892	32705	
3801	0	33136	32768	
3802	0	32574	32716	
3803	0	32674	32654	
3804	0	32872	32679	
3805	0	32884	32551	
3806	0	32742	32322	
3807	0	32616	32480	
3808	0	32796	32348	
3809	0	33036	32356	
3810	0	32784	32540	
3811	0	32410	32788	
3812	0	32586	33062	
3813	0	32528	33076	
3814	0	32576	33284	
3815	0	32608	33287	
3816	0	32808	33412	
3817	0	32782	33398	
3818	0	32874	33148	
3819	0	32928	33058	
3820	0	32958	32808	
3821	0	32996	32478	
3822	0	33052	32458	
3823	0	32840	32575	
3824	0	33100	31952	
3825	0	33120	31866	
3826	0	33012	32052	
3827	0	32838	32039	
3828	0	32788	32180	
3829	0	33040	32478	
3830	0	32698	32644	
3831	0	32522	32852	
3832	0	32542	33060	
3833	0	32856	33500	
3834	0	32772	33608	
3835	0	32734	33704	
3836	0	33004	33690	
3837	0	32898	33578	
3838	0	32916	33631	
3839	0	32972	33560	
3840	0	33080	33414	
3841	0	32778	33080	
3842	0	32648	32948	
3843	0	32734	32684	
3844	0	32614	32384	
3845	0	32620	32290	
3846	0	32928	32124	
3847	0	33200	32084	
3848	0	33088	32096	
3849	0	32996	31910	
3850	0	32962	31844	
3851	0	32930	31930	
3852	0	31766	32148	
3853	0	32290	32286	
3854	0	32958	32386	
3855	0	32964	32656	
3856	0	31916	32928	
3857	0	32428	33095	
3858	0	33008	33154	
3859	0	33088	33154	
3860	0	32878	33440	
3861	0	32936	33687	
3862	0	32748	34066	
3863	0	32758	33852	
3864	0	32934	33767	
3865	0	33174	33690	
3866	0	33276	33308	
3867	0	33092	32834	
3868	0	32868	32590	
3869	0	33006	32636	
3870	0	33304	32519	
3871	0	32720	32536	
3872	0	33092	32462	
3873	0	33274	32447	
3874	0	32816	32428	
3875	0	32608	32276	
3876	0	33052	32114	
3877	0	32716	31943	
3878	0	32014	31952	
3879	0	32440	32172	
3880	0	32600	32456	
3881	0	32668	32827	
3882	0	32216	32904	
3883	0	32213	32775	
3884	0	32632	32698	
3885	0	32906	32510	
3886	0	32832	32974	
3887	0	32988	32878	
3888	0	33064	32794	
3889	0	33048	32952	
3890	0	33042	33095	
3891	0	32930	33140	
3892	0	33008	32904	
3893	0	32980	33050	
3894	0	32970	32698	
3895	0	32966	32544	
3896	0	32904	32652	
3897	0	32824	32796	
3898	0	32980	32818	
3899	0	32924	32862	
3900	0	32912	32696	
3901	0	33054	32588	
3902	0	32920	32465	
3903	0	32648	32460	
3904	0	32654	32582	
3905	0	32792	32570	
3906	0	32932	32620	
3907	0	33042	32220	
3908	0	32960	31966	
3909	0	32932	32028	
3910	0	32862	32142	
3911	0	32794	31747	
3912	0	32740	31710	
3913	0	32630	31742	
3914	0	33324	31948	
3915	0	32970	32180	
3916	0	32590	32618	
3917	0	32516	33188	
3918	0	32104	33648	
3919	0	32304	33838	
3920	0	32572	34164	
3921	0	32560	34378	
3922	0	32212	34624	
3923	0	32464	34996	
3924	0	32940	34960	
3925	0	32836	34870	
3926	0	32656	34599	
3927	0	32734	34048	
3928	0	33244	33812	
3929	0	33592	33152	
3930	0	33436	32676	
3931	0	33194	32410	
3932	0	32692	32022	
3933	0	32760	31864	
3934	0	32900	31254	
3935	0	33422	30814	
3936	0	33946	30630	
3937	0	33556	30424	
3938	0	32368	30012	
3939	0	32444	30178	
3940	0	32794	30780	
3941	0	31920	31432	
3942	0	31928	32220	
3943	0	33288	32920	
3944	0	33312	33644	
3945	0	32049	34172	
3946	0	31786	34662	
3947	0	32402	34932	
3948	0	32700	34814	
3949	0	32564	34807	
3950	0	32474	34290	
3951	0	32648	33896	
3952	0	33436	33754	
3953	0	33333	33724	
3954	0	32820	33718	
3955	0	32528	33358	
3956	0	32556	32742	
3957	0	33118	32540	
3958	0	33588	32168	
3959	0	33492	31884	
3960	0	33724	31776	
3961	0	33456	31381	
3962	0	33588	30752	
3963	0	33048	29952	
3964	0	31610	29524	
3965	0	32706	28984	
3966	0	33422	29308	
3967	0	32494	30706	
3968	0	32116	32144	
3969	0	31604	33260	
3970	0	32504	34440	
3971	0	32660	35172	
3972	0	31696	35646	
3973	0	31868	36238	
3974	0	32746	36356	
3975	0	32692	35944	
3976	0	32972	35540	
3977	0	32894	34999	
3978	0	32840	34230	
3979	0	33102	33320	
3980	0	33020	32724	
3981	0	33108	32254	
3982	0	32956	31982	
3983	0	33084	31660	
3984	0	32902	31612	
3985	0	32952	31514	
3986	0	33212	31416	
3987	0	33532	31160	
3988	0	32966	31149	
3989	0	33192	31263	
3990	0	33302	31307	
3991	0	33388	31398	
3992	0	33610	30810	
3993	0	33008	30600	
3994	0	32860	30654	
3995	0	32480	31288	
3996	0	32654	32160	
3997	0	32044	32666	
3998	0	31412	33482	
3999	0	31808	34226	
4000	0	31964	34564	
4001	0	31988	35068	
4002	0	32408	35239	
4003	0	32996	35260	
4004	0	34008	34886	
4005	0	33620	34176	
4006	0	32314	33710	
4007	0	32354	32996	
4008	0	32864	32516	
4009	0	32902	32398	
4010	0	32624	32313	
4011	0	32700	31812	
4012	0	32728	31478	
4013	0	32565	30800	
4014	0	33040	30876	
4015	0	32900	31206	
4016	0	32948	31110	
4017	0	33184	31536	
4018	0	33236	32222	
4019	0	33034	32628	
4020	0	33062	33196	
4021	0	32924	33708	
4022	0	33392	34106	
4023	0	32876	34230	
4024	0	33976	34256	
4025	0	33636	34236	
4026	0	33302	34682	
4027	0	32488	34534	
4028	0	31408	34276	
4029	0	31186	34151	
4030	0	31282	33704	
4031	0	32080	33310	
4032	0	32908	33072	
4033	0	32390	32644	
4034	0	32132	32200	
4035	0	32952	31660	
4036	0	32916	31399	
4037	0	33252	31465	
4038	0	33204	31244	
4039	0	33076	31012	
4040	0	33216	30464	
4041	0	33576	30351	
4042	0	34778	30512	
4043	0	33872	30032	
4044	0	32224	30868	
4045	0	32928	32007	
4046	0	32664	32215	
4047	0	32234	32900	
4048	0	31684	33400	
4049	0	31712	34702	
4050	0	32372	35240	
4051	0	32206	35620	
4052	0	32452	36166	
4053	0	32676	36442	
4054	0	32524	35890	
4055	0	32436	35079	
4056	0	32732	34266	
4057	0	32521	33774	
4058	0	32782	33576	
4059	0	32644	33220	
4060	0	32960	32522	
4061	0	33114	31714	
4062	0	33164	30916	
4063	0	34324	30776	
4064	0	32548	30392	
4065	0	33832	30414	
4066	0	34176	30687	
4067	0	32766	30616	
4068	0	32476	30695	
4069	0	32080	31048	
4070	0	31884	31612	
4071	0	32534	32388	
4072	0	33044	32775	
4073	0	31974	33328	
4074	0	32040	33436	
4075	0	32678	33703	
4076	0	32656	33836	
4077	0	32738	33614	
4078	0	33226	33300	
4079	0	32938	33306	
4080	0	32664	33460	
4081	0	32520	33284	
4082	0	32872	33374	
4083	0	33170	33309	
4084	0	33464	33058	
4085	0	33328	32940	
4086	0	33148	32775	
4087	0	33180	32576	
4088	0	33420	32182	
4089	0	33414	31370	
4090	0	33748	30672	
4091	0	32328	30320	
4092	0	32022	30612	
4093	0	31938	31356	
4094	0	32616	31790	
4095	0	31840	32298	
4096	0	32132	32618	
4097	0	33148	33200	
4098	0	33404	34224	
4099	0	31824	34628	
4100	0	32446	34988	
4101	0	32648	35468	
4102	0	32980	35242	
4103	0	31406	34400	
4104	0	31780	33575	
4105	0	32764	33031	
4106	0	33494	32740	
4107	0	33610	32984	
4108	0	33262	33110	
4109	0	32946	33158	
4110	0	32840	33100	
4111	0	32818	33014	
4112	0	33206	32775	
4113	0	32900	32410	
4114	0	32766	32428	
4115	0	33460	32244	
4116	0	33640	32340	
4117	0	33860	31968	
4118	0	32924	31150	
4119	0	33258	30524	
4120	0	33360	30260	
4121	0	31592	30550	
4122	0	31968	30724	
4123	0	32684	31175	
4124	0	31456	31761	
4125	0	31524	32632	
4126	0	32600	33620	
4127	0	32356	34326	
4128	0	32052	34106	
4129	0	32388	33462	
4130	0	32706	33158	
4131	0	33386	32650	
4132	0	32806	33150	
4133	0	33092	33504	
4134	0	33496	33310	
4135	0	33240	33383	
4136	0	33022	33786	
4137	0	33008	33831	
4138	0	33010	33831	
4139	0	32968	33810	
4140	0	33236	33924	
4141	0	32896	33827	
4142	0	33168	33860	
4143	0	33240	33340	
4144	0	32700	33089	
4145	0	33196	32750	
4146	0	33234	32478	
4147	0	33112	32020	
4148	0	32692	32234	
4149	0	32165	32244	
4150	0	31974	31760	
4151	0	32568	31847	
4152	0	32278	31982	
4153	0	32702	31790	
4154	0	32940	31358	
4155	0	31664	30250	
4156	0	32657	29326	
4157	0	32984	29488	
4158	0	33906	30386	
4159	0	33264	31494	
4160	0	32174	32504	
4161	0	31532	33874	
4162	0	32230	34964	
4163	0	32668	35444	
4164	0	32970	35494	
4165	0	31986	35072	
4166	0	32656	35190	
4167	0	32880	34796	
4168	0	32938	34983	
4169	0	33166	34428	
4170	0	33152	33682	
4171	0	33088	33204	
4172	0	33308	32614	
4173	0	33128	32108	
4174	0	32974	31631	
4175	0	33240	31430	
4176	0	32980	31060	
4177	0	33096	30498	
4178	0	33276	29562	
4179	0	33664	29620	
4180	0	32774	29900	
4181	0	32096	30718	
4182	0	32484	31236	
4183	0	32548	31758	
4184	0	32472	32182	
4185	0	32260	32948	
4186	0	32944	33322	
4187	0	32760	33723	
4188	0	32052	34284	
4189	0	31968	34844	
4190	0	32704	35056	
4191	0	32152	35556	
4192	0	32774	35820	
4193	0	33788	35802	
4194	0	32704	35356	
4195	0	32650	34436	
4196	0	33212	33975	
4197	0	33048	33650	
4198	0	32504	32976	
4199	0	32782	32366	
4200	0	32328	32028	
4201	0	32484	31872	
4202	0	32580	31489	
4203	0	32780	31448	
4204	0	33012	31484	
4205	0	32540	31166	
4206	0	32934	30644	
4207	0	33146	30330	
4208	0	33018	30703	
4209	0	32608	31360	
4210	0	32192	31656	
4211	0	32754	31568	
4212	0	32832	32108	
4213	0	32720	32292	
4214	0	32716	32620	
4215	0	32962	32808	
4216	0	32920	33156	
4217	0	32972	33684	
4218	0	33128	34086	
4219	0	32908	34359	
4220	0	32624	34494	
4221	0	32502	34334	
4222	0	32760	34260	
4223	0	33376	33676	
4224	0	33392	33366	
4225	0	33404	32997	
4226	0	33302	32548	
4227	0	32480	31732	
4228	0	33156	30680	
4229	0	32904	30688	
4230	0	32634	30087	
4231	0	31774	30076	
4232	0	31632	30303	
4233	0	31786	30911	
4234	0	32612	32140	
4235	0	33426	33516	
4236	0	32706	34380	
4237	0	32224	35630	
4238	0	32614	35708	
4239	0	32404	35540	
4240	0	32216	35536	
4241	0	32588	35388	
4242	0	32590	34932	
4243	0	32812	34764	
4244	0	33154	34402	
4245	0	33246	33896	
4246	0	33328	33336	
4247	0	33272	32912	
4248	0	33204	32546	
4249	0	33442	31890	
4250	0	33050	31239	
4251	0	32484	30922	
4252	0	32365	31012	
4253	0	32976	31174	
4254	0	33076	30924	
4255	0	32808	30718	
4256	0	32948	30966	
4257	0	33212	31018	
4258	0	33018	30418	
4259	0	33336	30456	
4260	0	33616	31238	
4261	0	33656	32112	
4262	0	32014	32702	
4263	0	32184	33287	
4264	0	30764	33888	
4265	0	31480	34244	
4266	0	32424	34234	
4267	0	34080	34064	
4268	0	32720	34286	
4269	0	31724	33926	
4270	0	31536	33286	
4271	0	32116	32853	
4272	0	32274	32860	
4273	0	32892	32460	
4274	0	33060	32601	
4275	0	32948	32548	
4276	0	33168	32721	
4277	0	33124	32992	
4278	0	33274	32822	
4279	0	33064	32574	
4280	0	33060	32543	
4281	0	33200	32001	
4282	0	33172	32130	
4283	0	33292	32242	
4284	0	33158	32202	
4285	0	33484	31543	
4286	0	33724	31264	
4287	0	32540	31208	
4288	0	31788	31558	
4289	0	32152	32418	
4290	0	32196	32710	
4291	0	32640	33558	
4292	0	32962	33998	
4293	0	32440	33908	
4294	0	32660	33452	
4295	0	32816	33439	
4296	0	32624	33845	
4297	0	32996	33830	
4298	0	33228	33297	
4299	0	32268	32679	
4300	0	31990	32686	
4301	0	32660	32602	
4302	0	32856	32882	
4303	0	33220	32748	
4304	0	34266	32738	
4305	0	33112	32916	
4306	0	31948	33450	
4307	0	32328	33140	
4308	0	32564	33270	
4309	0	31802	33656	
4310	0	32120	33588	
4311	0	32808	33562	
4312	0	32926	33218	
4313	0	32968	32560	
4314	0	32836	32391	
4315	0	32920	32398	
4316	0	32424	32224	
4317	0	32804	31856	
4318	0	33232	31495	
4319	0	33088	31670	
4320	0	32736	31884	
4321	0	32830	31722	
4322	0	33124	31402	
4323	0	33543	31456	
4324	0	34088	31553	
4325	0	33400	31625	
4326	0	32164	32212	
4327	0	32416	32498	
4328	0	32082	33442	
4329	0	32804	33843	
4330	0	32130	34311	
4331	0	32362	34168	
4332	0	32514	33918	
4333	0	32706	33612	
4334	0	32772	32884	
4335	0	32812	33162	
4336	0	32852	33287	
4337	0	33250	32826	
4338	0	32760	32772	
4339	0	33178	33258	
4340	0	33294	33512	
4341	0	32424	33436	
4342	0	32688	33107	
4343	0	32492	32864	
4344	0	32924	32596	
4345	0	33080	32534	
4346	0	32452	32216	
4347	0	32452	31356	
4348	0	32456	31056	
4349	0	32736	30716	
4350	0	32820	30341	
4351	0	33146	30854	
4352	0	33796	31262	
4353	0	33176	30854	
4354	0	33252	31514	
4355	0	32460	32498	
4356	0	31948	33592	
4357	0	32164	34432	
4358	0	31876	34946	
4359	0	32884	35158	
4360	0	33128	35560	
4361	0	32760	35136	
4362	0	32680	34918	
4363	0	33080	34484	
4364	0	32672	33828	
4365	0	33006	33382	
4366	0	32564	33076	
4367	0	32834	32924	
4368	0	32624	32636	
4369	0	32496	32224	
4370	0	32368	31998	
4371	0	32304	31898	
4372	0	32632	31928	
4373	0	32956	31636	
4374	0	33358	31408	
4375	0	33422	31408	
4376	0	33128	31224	
4377	0	32702	31376	
4378	0	32614	31134	
4379	0	32812	30520	
4380	0	32924	30358	
4381	0	32726	30920	
4382	0	32808	31125	
4383	0	32696	32422	
4384	0	33004	34036	
4385	0	32830	34954	
4386	0	32687	35366	
4387	0	32682	35494	
4388	0	31760	35364	
4389	0	31730	34522	
4390	0	31996	33904	
4391	0	32506	33408	
4392	0	32900	33075	
4393	0	33110	32936	
4394	0	33248	32838	
4395	0	32990	32624	
4396	0	33000	32314	
4397	0	32788	32188	
4398	0	32876	31964	
4399	0	33022	31790	
4400	0	32706	31932	
4401	0	32908	31936	
4402	0	32748	31943	
4403	0	32516	31948	
4404	0	32766	32024	
4405	0	32546	32358	
4406	0	32564	32242	
4407	0	32937	31996	
4408	0	33580	32060	
4409	0	32108	32132	
4410	0	32200	31926	
4411	0	33032	31358	
4412	0	33030	30888	
4413	0	32492	30530	
4414	0	32296	31160	
4415	0	32556	32230	
4416	0	32354	33496	
4417	0	32212	34478	
4418	0	32526	34720	
4419	0	32832	34862	
4420	0	32614	35556	
4421	0	32916	35496	
4422	0	33376	35476	
4423	0	33416	35360	
4424	0	33684	35022	
4425	0	33548	34418	
4426	0	33432	33601	
4427	0	33578	32712	
4428	0	33276	32088	
4429	0	33328	31964	
4430	0	33372	31334	
4431	0	33040	31286	
4432	0	32930	31642	
4433	0	32888	31239	
4434	0	32190	30870	
4435	0	32502	31140	
4436	0	32548	32170	
4437	0	32704	32690	
4438	0	32264	33138	
4439	0	31784	33268	
4440	0	31596	33360	
4441	0	31926	33408	
4442	0	32274	33336	
4443	0	33276	32815	
4444	0	33232	31841	
4445	0	33200	32028	
4446	0	33412	31782	
4447	0	32938	31412	
4448	0	32670	31495	
4449	0	32792	31480	
4450	0	32556	32032	
4451	0	32880	32614	
4452	0	32156	32988	
4453	0	32460	33700	
4454	0	32556	34228	
4455	0	32020	33919	
4456	0	32764	34196	
4457	0	33134	34106	
4458	0	33136	34150	
4459	0	33016	33780	
4460	0	32492	33382	
4461	0	32704	33382	
4462	0	32878	33354	
4463	0	32844	33044	
4464	0	32612	32758	
4465	0	32772	32396	
4466	0	32960	31854	
4467	0	32968	31800	
4468	0	33146	31688	
4469	0	32644	31694	
4470	0	32412	31272	
4471	0	32528	30326	
4472	0	33540	30062	
4473	0	33312	30674	
4474	0	32612	31439	
4475	0	32606	32358	
4476	0	32828	33306	
4477	0	32912	34004	
4478	0	32720	34190	
4479	0	32344	34324	
4480	0	32396	34434	
4481	0	32432	33940	
4482	0	32640	33614	
4483	0	33022	33610	
4484	0	32924	32998	
4485	0	32968	32742	
4486	0	33072	32958	
4487	0	33112	32868	
4488	0	33048	32786	
4489	0	32876	32574	
4490	0	32776	32494	
4491	0	33052	32296	
4492	0	33034	32364	
4493	0	32510	32108	
4494	0	32112	31420	
4495	0	32632	31106	
4496	0	32734	31201	
4497	0	33292	32200	
4498	0	32786	33158	
4499	0	32758	33788	
4500	0	32564	34038	
4501	0	32916	34212	
4502	0	32570	33762	
4503	0	32692	33082	
4504	0	32864	32894	
4505	0	33122	32774	
4506	0	32978	32876	
4507	0	32812	32561	
4508	0	32454	32406	
4509	0	32636	32600	
4510	0	33116	32823	
4511	0	32724	32468	
4512	0	32710	31870	
4513	0	32584	32063	
4514	0	32685	31508	
4515	0	32950	31404	
4516	0	32984	31575	
4517	0	32428	32052	
4518	0	32480	32198	
4519	0	32772	32412	
4520	0	32848	33078	
4521	0	32622	33670	
4522	0	32632	34050	
4523	0	32760	34204	
4524	0	32880	34296	
4525	0	32894	33958	
4526	0	32774	33351	
4527	0	32764	33536	
4528	0	32902	33796	
4529	0	32772	33606	
4530	0	32806	33434	
4531	0	32657	33128	
4532	0	32804	32734	
4533	0	32874	32600	
4534	0	32778	32450	
4535	0	32720	32318	
4536	0	33004	32350	
4537	0	32744	32104	
4538	0	32560	31916	
4539	0	32940	31490	
4540	0	33156	30878	
4541	0	32876	30212	
4542	0	32630	29950	
4543	0	32676	30614	
4544	0	33008	31734	
4545	0	32672	32784	
4546	0	32680	33702	
4547	0	33076	33940	
4548	0	32460	33911	
4549	0	32334	33904	
4550	0	32394	33986	
4551	0	32484	33823	
4552	0	32640	33942	
4553	0	33204	33927	
4554	0	33008	33844	
4555	0	32828	33730	
4556	0	32796	33616	
4557	0	32884	33786	
4558	0	32821	33620	
4559	0	33072	33031	
4560	0	33124	32559	
4561	0	32878	32338	
4562	0	32576	32090	
4563	0	32842	31826	
4564	0	32664	31751	
4565	0	32384	31847	
4566	0	32684	31782	
4567	0	33004	31812	
4568	0	32760	31986	
4569	0	32804	32194	
4570	0	32432	32020	
4571	0	33137	31520	
4572	0	33632	31288	
4573	0	33008	31062	
4574	0	32764	31516	
4575	0	32250	32012	
4576	0	32192	32623	
4577	0	32304	33136	
4578	0	32420	33444	
4579	0	32892	33753	
4580	0	33184	33898	
4581	0	33006	33575	
4582	0	33256	33374	
4583	0	32936	33623	
4584	0	32560	34140	
4585	0	32684	34311	
4586	0	32564	34530	
4587	0	32561	34346	
4588	0	32790	33502	
4589	0	32808	33174	
4590	0	32724	32852	
4591	0	32864	32775	
4592	0	32942	32572	
4593	0	32900	32583	
4594	0	32897	32598	
4595	0	32700	32290	
4596	0	32704	32184	
4597	0	32864	32345	
4598	0	32782	32063	
4599	0	32450	31812	
4600	0	32484	31768	
4601	0	32656	31610	
4602	0	32708	31816	
4603	0	33096	32129	
4604	0	33216	32148	
4605	0	33154	31982	
4606	0	32824	32416	
4607	0	32756	31934	
4608	0	32452	30948	
4609	0	32592	31300	
4610	0	32304	32244	
4611	0	32852	33094	
4612	0	32830	33820	
4613	0	32660	34377	
4614	0	32872	34724	
4615	0	32740	34457	
4616	0	32700	34383	
4617	0	32632	34290	
4618	0	32818	33586	
4619	0	32936	33260	
4620	0	33056	33008	
4621	0	32872	32578	
4622	0	32740	32320	
4623	0	32664	31976	
4624	0	32660	32064	
4625	0	32708	32124	
4626	0	32828	32212	
4627	0	32868	32246	
4628	0	32860	32506	
4629	0	32974	32588	
4630	0	33000	32892	
4631	0	32896	32890	
4632	0	32800	32600	
4633	0	32976	32494	
4634	0	32800	32351	
4635	0	33152	32430	
4636	0	33393	32646	
4637	0	32507	32421	
4638	0	32376	32432	
4639	0	32348	32487	
4640	0	32450	32668	
4641	0	32508	32432	
4642	0	32428	32186	
4643	0	32728	31990	
4644	0	32916	32304	
4645	0	32832	32680	
4646	0	32624	32628	
4647	0	32688	32817	
4648	0	32744	33377	
4649	0	32900	33342	
4650	0	32936	33498	
4651	0	32903	33398	
4652	0	32880	33314	
4653	0	32924	33400	
4654	0	32961	33351	
4655	0	33048	33332	
4656	0	32964	32944	
4657	0	33031	32722	
4658	0	32944	32700	
4659	0	33120	32828	
4660	0	33084	32804	
4661	0	32912	32610	
4662	0	32842	32808	
4663	0	32396	32652	
4664	0	32532	32054	
4665	0	32304	32222	
4666	0	32495	32692	
4667	0	32424	32554	
4668	0	32616	32516	
4669	0	32836	32874	
4670	0	32944	32976	
4671	0	32900	32810	
4672	0	32688	32833	
4673	0	32764	32844	
4674	0	32896	33116	
4675	0	32848	33365	
4676	0	32980	33539	
4677	0	33020	33458	
4678	0	32968	33020	
4679	0	32916	32836	
4680	0	32956	32724	
4681	0	32872	32710	
4682	0	32680	32440	
4683	0	32484	32404	
4684	0	32662	32478	
4685	0	32736	32327	
4686	0	32784	32140	
4687	0	32928	32154	
4688	0	32668	32248	
4689	0	32636	32302	
4690	0	32746	32440	
4691	0	32818	32378	
4692	0	32832	32590	
4693	0	33010	32584	
4694	0	33004	32599	
4695	0	32944	32606	
4696	0	32808	32672	
4697	0	32852	32619	
4698	0	32888	32604	
4699	0	32706	32681	
4700	0	32618	32842	
4701	0	32416	32839	
4702	0	32472	32886	
4703	0	32494	32902	
4704	0	32570	32845	
4705	0	32588	32992	
4706	0	32835	33218	
4707	0	32788	32908	
4708	0	32838	33016	
4709	0	32824	32815	
4710	0	32884	32756	
4711	0	32848	32892	
4712	0	32928	32673	
4713	0	33024	32596	
4714	0	32996	32702	
4715	0	32940	32711	
4716	0	32832	32544	
4717	0	32772	32570	
4718	0	32972	32636	
4719	0	32832	32551	
4720	0	33344	32644	
4721	0	33156	32544	
4722	0	32200	32672	
4723	0	32262	32848	
4724	0	32552	32818	
4725	0	32692	32640	
4726	0	32396	32480	
4727	0	32422	32310	
4728	0	32596	32460	
4729	0	32816	32756	
4730	0	33012	33101	
4731	0	32948	33420	
4732	0	32984	33681	
4733	0	32800	33630	
4734	0	32888	33564	
4735	0	33080	33226	
4736	0	33082	32966	
4737	0	32828	32859	
4738	0	32864	32588	
4739	0	32900	32463	
4740	0	32796	32455	
4741	0	32704	32451	
4742	0	32684	32542	
4743	0	32730	32664	
4744	0	32810	32657	
4745	0	32700	32460	
4746	0	32754	32602	
4747	0	32840	32602	
4748	0	32706	32566	
4749	0	32744	32340	
4750	0	33050	32051	
4751	0	32884	31872	
4752	0	32608	32180	
4753	0	32844	32478	
4754	0	32788	32454	
4755	0	32942	32711	
4756	0	32672	33112	
4757	0	32696	33480	
4758	0	32772	33622	
4759	0	32938	33606	
4760	0	32875	33442	
4761	0	32664	33284	
4762	0	32484	33162	
4763	0	32592	33182	
4764	0	32720	32751	
4765	0	32700	32788	
4766	0	32794	32892	
4767	0	32876	32854	
4768	0	32988	32940	
4769	0	32826	32810	
4770	0	32928	32618	
4771	0	32982	32558	
4772	0	32768	32503	
4773	0	32704	32480	
4774	0	32852	32442	
4775	0	32906	32196	
4776	0	32636	32166	
4777	0	32840	32206	
4778	0	32812	32364	
4779	0	32968	32619	
4780	0	32888	32647	
4781	0	32992	32802	
4782	0	32728	32936	
4783	0	32536	32858	
4784	0	32602	32692	
4785	0	33036	33022	
4786	0	32984	33004	
4787	0	32824	32786	
4788	0	32564	32878	
4789	0	32634	32808	
4790	0	32788	32871	
4791	0	32872	32858	
4792	0	32906	32802	
4793	0	32840	32970	
4794	0	32778	32996	
4795	0	32644	32934	
4796	0	32650	32714	
4797	0	32720	32774	
4798	0	32788	32684	
4799	0	32808	32615	
4800	0	32842	32558	
4801	0	32868	32518	
4802	0	32776	32504	
4803	0	32868	32614	
4804	0	32930	32694	
4805	0	32832	32810	
4806	0	32864	32834	
4807	0	32850	32775	
4808	0	32804	32692	
4809	0	32864	32940	
4810	0	32836	32900	
4811	0	32902	32932	
4812	0	32804	33031	
4813	0	32868	32834	
4814	0	32852	32488	
4815	0	32824	32492	
4816	0	32644	32708	
4817	0	32644	32656	
4818	0	32752	32686	
4819	0	32592	32542	
4820	0	32704	32784	
4821	0	32638	32874	
4822	0	32620	32816	
4823	0	33040	32754	
4824	0	32892	32624	
4825	0	32850	32551	
4826	0	32840	32114	
4827	0	32774	32120	
4828	0	32736	31966	
4829	0	32768	32472	
4830	0	32884	32748	
4831	0	32602	33064	
4832	0	32804	33218	
4833	0	32972	33464	
4834	0	32908	33810	
4835	0	32668	33831	
4836	0	32772	33480	
4837	0	32816	33660	
4838	0	32780	33460	
4839	0	32688	33102	
4840	0	32804	32836	
4841	0	32732	32871	
4842	0	32776	32704	
4843	0	32949	32380	
4844	0	32944	32242	
4845	0	32994	32402	
4846	0	32952	32519	
4847	0	32910	32505	
4848	0	32992	32519	
4849	0	33080	32399	
4850	0	33056	32372	
4851	0	32798	32576	
4852	0	32768	32538	
4853	0	32578	32364	
4854	0	32610	32438	
4855	0	32732	32304	
4856	0	32768	32250	
4857	0	32720	32316	
4858	0	32754	32684	
4859	0	32671	32862	
4860	0	32732	32796	
4861	0	32732	32977	
4862	0	32786	33070	
4863	0	32868	33086	
4864	0	32880	33090	
4865	0	32844	33052	
4866	0	32986	33156	
4867	0	32904	33287	
4868	0	32684	33246	
4869	0	32586	33174	
4870	0	32690	33460	
4871	0	32620	32944	
4872	0	32692	32620	
4873	0	33120	32974	
4874	0	32884	32870	
4875	0	32896	32559	
4876	0	32772	32606	
4877	0	32854	32704	
4878	0	32960	32664	
4879	0	32924	32668	
4880	0	32884	32431	
4881	0	32888	32510	
4882	0	32732	32364	
4883	0	32522	32408	
4884	0	32810	32612	
4885	0	32780	32682	
4886	0	32808	32920	
4887	0	32810	32854	
4888	0	32888	32816	
4889	0	32996	32768	
4890	0	33012	32804	
4891	0	32902	32790	
4892	0	32676	32852	
4893	0	32612	32807	
4894	0	32646	32740	
4895	0	32622	32736	
4896	0	32804	32694	
4897	0	32788	32798	
4898	0	32882	32742	
4899	0	33013	32704	
4900	0	32944	32722	
4901	0	32936	32700	
4902	0	32924	32438	
4903	0	32628	32551	
4904	0	32692	32788	
4905	0	32804	32852	
4906	0	32772	32838	
4907	0	32648	32911	
4908	0	32788	32884	
4909	0	32698	32958	
4910	0	32776	32917	
4911	0	32860	32562	
4912	0	32908	32582	
4913	0	32916	32674	
4914	0	32948	32537	
4915	0	32826	32670	
4916	0	32884	32672	
4917	0	32992	32622	
4918	0	32988	32398	
4919	0	32864	32414	
4920	0	32648	32578	
4921	0	32688	32966	
4922	0	32564	33018	
4923	0	32708	32978	
4924	0	32932	32890	
4925	0	32982	33031	
4926	0	32732	33265	
4927	0	32848	33324	
4928	0	32668	33383	
4929	0	32818	33244	
4930	0	32810	33096	
4931	0	32798	32840	
4932	0	32799	32631	
4933	0	32729	32580	
4934	0	32741	32616	
4935	0	32800	32646	
4936	0	32878	32540	
4937	0	32828	32674	
4938	0	32822	32714	
4939	0	32930	32750	
4940	0	32953	32770	
4941	0	32820	32706	
4942	0	32804	32726	
4943	0	32816	32828	
4944	0	32876	32760	
4945	0	32844	32780	
4946	0	32828	32796	
4947	0	32832	32800	
4948	0	32992	32650	
4949	0	33013	32614	
4950	0	32794	32598	
4951	0	32570	32524	
4952	0	32656	32686	
4953	0	32748	32758	
4954	0	32808	32940	
4955	0	32964	32830	
4956	0	32800	32810	
4957	0	32672	32600	
4958	0	32808	32515	
4959	0	32862	32487	
4960	0	32908	32550	
4961	0	33028	32548	
4962	0	32912	32660	
4963	0	32678	32866	
4964	0	32472	32816	
4965	0	32744	32704	
4966	0	32696	32806	
4967	0	32712	33012	
4968	0	32664	33040	
4969	0	32864	33168	
4970	0	32920	33010	
4971	0	32908	33154	
4972	0	32796	33000	
4973	0	32760	32858	
4974	0	32820	32844	
4975	0	32810	32866	
4976	0	32932	32766	
4977	0	32812	32740	
4978	0	32762	32740	
4979	0	32880	32666	
4980	0	32936	32711	
4981	0	32844	32675	
4982	0	32816	32679	
4983	0	32836	32769	
4984	0	32838	32718	
4985	0	32844	32734	
4986	0	32748	32968	
4987	0	32764	32852	
4988	0	32802	32726	
4989	0	32918	32790	
4990	0	32888	32644	
4991	0	32798	32624	
4992	0	32944	32794	
4993	0	32786	32679	
4994	0	32782	32488	
4995	0	32978	32420	
4996	0	32952	32498	
4997	0	32900	32680	
4998	0	32872	32838	
4999	0	32752	32914	
5000	0	32646	32911	
5001	0	32798	32730	
5002	0	32798	32775	
5003	0	32744	32775	
5004	0	32900	32906	
5005	0	32880	32935	
5006	0	32942	32594	
5007	0	32836	32794	
5008	0	32930	32731	
5009	0	32862	32804	
5010	0	32716	32725	
5011	0	32688	32796	
5012	0	32744	32726	
5013	0	32708	32804	
5014	0	32794	32716	
5015	0	32784	32748	
5016	0	32775	32768	
5017	0	32868	32754	
5018	0	32928	32853	
5019	0	32864	32806	
5020	0	32708	32671	
5021	0	32928	32766	
5022	0	32904	32807	
5023	0	32824	32712	
5024	0	32904	32868	
5025	0	33024	32991	
5026	0	32772	32876	
5027	0	32698	32796	
5028	0	32875	32628	
5029	0	32756	32686	
5030	0	32902	32714	
5031	0	32844	32738	
5032	0	32886	32695	
5033	0	32920	32630	
5034	0	33008	32732	
5035	0	32980	32831	
5036	0	33080	32824	
5037	0	32864	32882	
5038	0	32554	32796	
5039	0	32628	32714	
5040	0	32652	32562	
5041	0	32780	32542	
5042	0	32708	32550	
5043	0	32704	32414	
5044	0	32775	32482	
5045	0	32888	32820	
5046	0	32788	33052	
5047	0	32764	33066	
5048	0	32802	33202	
5049	0	32718	33240	
5050	0	32668	33134	
5051	0	32736	33110	
5052	0	32776	33059	
5053	0	32874	32954	
5054	0	32756	33084	
5055	0	32868	32858	
5056	0	32872	32652	
5057	0	32856	32549	
5058	0	32868	32494	
5059	0	33002	32364	
5060	0	33096	32570	
5061	0	32842	32792	
5062	0	32888	32645	
5063	0	33132	32720	
5064	0	33054	32670	
5065	0	32912	32698	
5066	0	32720	32887	
5067	0	32784	32868	
5068	0	32870	32745	
5069	0	32736	32736	
5070	0	32688	32748	
5071	0	32754	32590	
5072	0	32704	32734	
5073	0	32642	32825	
5074	0	32788	32820	
5075	0	32769	32696	
5076	0	32716	32561	
5077	0	32712	32655	
5078	0	32760	32591	
5079	0	32862	32796	
5080	0	32922	32980	
5081	0	32856	32923	
5082	0	32814	32874	
5083	0	32823	32744	
5084	0	32876	32673	
5085	0	32868	32725	
5086	0	32832	32824	
5087	0	33028	32820	
5088	0	32896	32878	
5089	0	32774	32828	
5090	0	32774	32740	
5091	0	32853	32734	
5092	0	32856	32784	
5093	0	32700	32551	
5094	0	32746	32478	
5095	0	32834	32574	
5096	0	32720	32878	
5097	0	32722	32988	
5098	0	32884	33024	
5099	0	32848	33062	
5100	0	32844	32901	
5101	0	32964	32967	
5102	0	32908	32938	
5103	0	32844	32844	
5104	0	32768	32626	
5105	0	32706	32775	
5106	0	32722	32804	
5107	0	32732	32790	
5108	0	32836	32732	
5109	0	32880	32718	
5110	0	32886	32806	
5111	0	32798	32732	
5112	0	32738	32740	
5113	0	32808	32702	
5114	0	32852	32664	
5115	0	32824	32647	
5116	0	32848	32702	
5117	0	32964	32679	
5118	0	33000	32764	
5119	0	32712	32760	
5120	0	32832	32860	
5121	0	32970	32862	
5122	0	32756	32806	
5123	0	32876	32480	
5124	0	32980	32519	
5125	0	32814	32524	
5126	0	33108	32606	
5127	0	32808	32782	
5128	0	32492	33066	
5129	0	32532	33031	
5130	0	32792	33004	
5131	0	32908	32994	
5132	0	32740	32827	
5133	0	32452	32846	
5134	0	32725	32772	
5135	0	32660	32808	
5136	0	32608	32678	
5137	0	32564	32535	
5138	0	32672	32542	
5139	0	32692	32460	
5140	0	32624	32452	
5141	0	32856	32511	
5142	0	32768	32702	
5143	0	32704	32806	
5144	0	32764	32908	
5145	0	32608	32847	
5146	0	32738	32718	
5147	0	32818	32710	
5148	0	33012	32688	
5149	0	32964	32760	
5150	0	32888	32586	
5151	0	32816	32510	
5152	0	32970	32550	
5153	0	33038	32540	
5154	0	33052	32533	
5155	0	33128	32638	
5156	0	33076	32968	
5157	0	33348	33184	
5158	0	33226	33502	
5159	0	33046	33678	
5160	0	33044	33705	
5161	0	33188	33666	
5162	0	33014	33509	
5163	0	32954	33176	
5164	0	33024	32960	
5165	0	33272	32769	
5166	0	33088	32591	
5167	0	32932	32480	
5168	0	32996	32360	
5169	0	32868	32348	
5170	0	32744	32414	
5171	0	32720	32375	
5172	0	32622	32414	
5173	0	32488	32528	
5174	0	32216	32480	
5175	0	32376	32436	
5176	0	32748	32572	
5177	0	32656	32892	
5178	0	32646	32900	
5179	0	32560	33006	
5180	0	32486	32934	
5181	0	32602	32798	
5182	0	32616	32950	
5183	0	32748	32978	
5184	0	32708	32974	
5185	0	32784	32983	
5186	0	32952	33014	
5187	0	33036	33052	
5188	0	33014	32868	
5189	0	32972	32596	
5190	0	32836	32698	
5191	0	32844	32662	
5192	0	32818	32588	
5193	0	32778	32566	
5194	0	32846	32728	
5195	0	32816	32870	
5196	0	32842	32868	
5197	0	32838	32678	
5198	0	32736	32558	
5199	0	32752	32416	
5200	0	32956	32490	
5201	0	32880	32519	
5202	0	32632	32486	
5203	0	32708	32478	
5204	0	32800	32530	
5205	0	32952	32647	
5206	0	32852	32630	
5207	0	32612	32770	
5208	0	32610	33031	
5209	0	32872	33000	
5210	0	32932	32990	
5211	0	32784	33188	
5212	0	32872	33220	
5213	0	32888	33102	
5214	0	32924	33201	
5215	0	33134	33137	
5216	0	32964	32914	
5217	0	32776	32900	
5218	0	32752	32806	
5219	0	32852	32679	
5220	0	32800	32644	
5221	0	32920	32903	
5222	0	32768	32870	
5223	0	32580	32606	
5224	0	32752	32620	
5225	0	32984	32672	
5226	0	32556	32774	
5227	0	32494	32621	
5228	0	32692	32527	
5229	0	32660	32562	
5230	0	32732	32601	
5231	0	32726	32513	
5232	0	32668	32536	
5233	0	32744	32566	
5234	0	32788	32436	
5235	0	32768	32436	
5236	0	32744	32572	
5237	0	32868	32636	
5238	0	32972	32900	
5239	0	32956	32895	
5240	0	32878	32964	
5241	0	32926	32970	
5242	0	32864	32940	
5243	0	32836	33054	
5244	0	32940	32809	
5245	0	32850	32874	
5246	0	32832	32894	
5247	0	32804	32912	
5248	0	32845	32860	
5249	0	32980	32775	
5250	0	33034	32730	
5251	0	33216	32998	
5252	0	33372	32868	
5253	0	33266	32775	
5254	0	33126	32775	
5255	0	32886	32636	
5256	0	32704	32576	
5257	0	32538	32588	
5258	0	32560	32762	
5259	0	32451	32612	
5260	0	32444	32519	
5261	0	32586	32844	
5262	0	32394	32682	
5263	0	32456	32761	
5264	0	32362	32852	
5265	0	32468	32666	
5266	0	32592	32606	
5267	0	32676	32519	
5268	0	32958	32574	
5269	0	32866	32506	
5270	0	32664	32538	
5271	0	32828	32660	
5272	0	32964	32848	
5273	0	33248	32942	
5274	0	32976	32977	
5275	0	32836	32828	
5276	0	32826	32746	
5277	0	32662	32817	
5278	0	32784	32934	
5279	0	32872	32919	
5280	0	33016	32919	
5281	0	32878	32948	
5282	0	32878	33087	
5283	0	32798	32970	
5284	0	32936	32996	
5285	0	32980	32952	
5286	0	32940	32966	
5287	0	32810	33038	
5288	0	32816	33158	
5289	0	32764	32943	
5290	0	32788	32769	
5291	0	32920	32688	
5292	0	32729	32644	
5293	0	32840	32482	
5294	0	32952	32476	
5295	0	32977	32476	
5296	0	32756	32486	
5297	0	32644	32614	
5298	0	32740	32674	
5299	0	32838	32760	
5300	0	32792	32654	
5301	0	32840	32606	
5302	0	32720	32580	
5303	0	32700	32796	
5304	0	32932	32687	
5305	0	32936	32723	
5306	0	32908	32672	
5307	0	32940	32769	
5308	0	32936	32790	
5309	0	32822	32742	
5310	0	32672	32638	
5311	0	32612	32665	
5312	0	32800	32658	
5313	0	32806	32847	
5314	0	32806	32730	
5315	0	32780	32858	
5316	0	32832	32818	
5317	0	32886	32503	
5318	0	32992	32374	
5319	0	32996	32552	
5320	0	32868	32647	
5321	0	32862	32671	
5322	0	32734	32688	
5323	0	32920	32982	
5324	0	32696	33094	
5325	0	32618	33096	
5326	0	32956	33168	
5327	0	33194	32984	
5328	0	32804	32804	
5329	0	32772	32829	
5330	0	33064	32974	
5331	0	33336	32852	
5332	0	33090	32958	
5333	0	32910	33040	
5334	0	32932	33020	
5335	0	32704	32886	
5336	0	32522	32756	
5337	0	32586	32717	
5338	0	32542	32642	
5339	0	32244	32586	
5340	0	32032	32582	
5341	0	32148	32711	
5342	0	32190	32761	
5343	0	32420	32679	
5344	0	32544	32690	
5345	0	32660	32914	
5346	0	32760	32871	
5347	0	32848	32711	
5348	0	33008	32503	
5349	0	33034	32510	
5350	0	33124	32418	
5351	0	32936	32314	
5352	0	32964	32368	
5353	0	32920	32444	
5354	0	32434	32784	
5355	0	32724	33054	
5356	0	33212	33160	
5357	0	32994	32981	
5358	0	32910	32996	
5359	0	32976	33134	
5360	0	33046	33030	
5361	0	33153	32828	
5362	0	33188	32704	
5363	0	33024	32743	
5364	0	32750	32862	
5365	0	32488	32999	
5366	0	32692	33119	
5367	0	32700	33182	
5368	0	32962	33257	
5369	0	33128	33056	
5370	0	33152	32952	
5371	0	33159	32984	
5372	0	33048	32927	
5373	0	32927	32630	
5374	0	32812	32140	
5375	0	32724	32242	
5376	0	32626	32348	
5377	0	32628	32440	
5378	0	32652	32500	
5379	0	32708	32554	
5380	0	32666	32575	
5381	0	32734	32766	
5382	0	32680	32820	
5383	0	32706	32804	
5384	0	32744	32774	
5385	0	32568	32602	
5386	0	32778	32644	
5387	0	32798	32692	
5388	0	32856	32668	
5389	0	33044	32679	
5390	0	32650	32606	
5391	0	32816	32456	
5392	0	33184	32590	
5393	0	33078	32738	
5394	0	32676	32657	
5395	0	32542	32868	
5396	0	32614	32903	
5397	0	32832	33024	
5398	0	32880	33134	
5399	0	32812	33140	
5400	0	32922	33111	
5401	0	32992	33026	
5402	0	32932	32992	
5403	0	32864	32916	
5404	0	32810	32951	
5405	0	32746	32956	
5406	0	32876	32934	
5407	0	32928	32884	
5408	0	33030	32748	
5409	0	32944	32735	
5410	0	33096	32636	
5411	0	32998	32657	
5412	0	32924	32628	
5413	0	33000	32496	
5414	0	32926	32452	
5415	0	32932	32576	
5416	0	32892	32484	
5417	0	32768	32494	
5418	0	32700	32567	
5419	0	32580	32732	
5420	0	32498	32814	
5421	0	32506	32824	
5422	0	32446	32814	
5423	0	32386	32784	
5424	0	32486	33030	
5425	0	32502	32935	
5426	0	32544	32902	
5427	0	32733	32894	
5428	0	32920	32695	
5429	0	32985	32674	
5430	0	32720	32670	
5431	0	32764	32698	
5432	0	32880	32796	
5433	0	32826	32692	
5434	0	32908	32862	
5435	0	33094	32742	
5436	0	32860	32932	
5437	0	32818	32710	
5438	0	32880	32684	
5439	0	32888	32804	
5440	0	32938	32772	
5441	0	32876	32702	
5442	0	32866	32898	
5443	0	32808	32896	
5444	0	32832	32820	
5445	0	32820	32772	
5446	0	32792	32775	
5447	0	33148	32646	
5448	0	33120	32688	
5449	0	33042	32732	
5450	0	33024	32822	
5451	0	32884	32790	
5452	0	32836	32682	
5453	0	32820	32750	
5454	0	32756	32588	
5455	0	32738	32436	
5456	0	32664	32530	
5457	0	32632	32634	
5458	0	32716	32962	
5459	0	32668	32918	
5460	0	32666	32790	
5461	0	32684	32790	
5462	0	32580	32775	
5463	0	32712	32789	
5464	0	32724	32972	
5465	0	32704	32903	
5466	0	32784	32870	
5467	0	32682	32960	
5468	0	32750	32968	
5469	0	32744	32867	
5470	0	32826	32760	
5471	0	32964	32684	
5472	0	33068	32756	
5473	0	32970	32740	
5474	0	32757	32849	
5475	0	32666	32862	
5476	0	32856	32900	
5477	0	32772	32810	
5478	0	32632	32698	
5479	0	32742	32580	
5480	0	32817	32570	
5481	0	32892	32746	
5482	0	32806	32705	
5483	0	32900	32775	
5484	0	32950	32878	
5485	0	32952	32796	
5486	0	32948	32743	
5487	0	32856	32554	
5488	0	32952	32778	
5489	0	32866	32812	
5490	0	32816	32721	
5491	0	32960	32654	
5492	0	32728	32720	
5493	0	32660	32920	
5494	0	32869	32754	
5495	0	32830	32632	
5496	0	32756	32758	
5497	0	32702	32844	
5498	0	32726	32775	
5499	0	32732	32806	
5500	0	32744	32807	
5501	0	32741	32686	
5502	0	32752	32738	
5503	0	32760	32826	
5504	0	32808	32764	
5505	0	32874	32761	
5506	0	32818	32688	
5507	0	32868	32600	
5508	0	32950	32716	
5509	0	32800	32767	
5510	0	32828	32756	
5511	0	32820	32774	
5512	0	32820	32678	
5513	0	32864	32710	
5514	0	32828	32694	
5515	0	32810	32687	
5516	0	32850	32880	
5517	0	32900	32832	
5518	0	32810	32788	
5519	0	32988	32688	
5520	0	33064	32736	
5521	0	32988	32748	
5522	0	32898	32815	
5523	0	32848	32700	
5524	0	32932	32924	
5525	0	32852	32764	
5526	0	32752	32640	
5527	0	32648	32676	
5528	0	32554	32754	
5529	0	32686	32866	
5530	0	32608	32826	
5531	0	32596	32647	
5532	0	32632	32817	
5533	0	32652	32753	
5534	0	32612	33004	
5535	0	32759	32764	
5536	0	32769	32892	
5537	0	32676	32884	
5538	0	32644	32854	
5539	0	32646	32684	
5540	0	32748	32586	
5541	0	32864	32750	
5542	0	32960	32762	
5543	0	32958	32752	
5544	0	33070	32664	
5545	0	33132	32716	
5546	0	33112	32655	
5547	0	32980	32756	
5548	0	32874	32871	
5549	0	32740	32748	
5550	0	32592	32743	
5551	0	32604	32774	
5552	0	32568	32656	
5553	0	32464	32742	
5554	0	32618	32742	
5555	0	32636	32796	
5556	0	32800	32775	
5557	0	32804	32764	
5558	0	32840	32785	
5559	0	32872	32847	
5560	0	32876	32748	
5561	0	32886	32664	
5562	0	32868	32636	
5563	0	32944	32654	
5564	0	33064	32747	
5565	0	33008	32860	
5566	0	33050	32890	
5567	0	32892	32858	
5568	0	32888	32918	
5569	0	32980	32994	
5570	0	32920	32707	
5571	0	32776	32668	
5572	0	32940	32742	
5573	0	32938	32704	
5574	0	32804	32656	
5575	0	32704	32796	
5576	0	32708	32876	
5577	0	32652	32895	
5578	0	32500	32970	
5579	0	32490	32970	
5580	0	32466	32808	
5581	0	32532	32824	
5582	0	32676	32807	
5583	0	32800	32724	
5584	0	32994	32728	
5585	0	32752	32734	
5586	0	32568	32646	
5587	0	32544	32498	
5588	0	32918	32036	
5589	0	33058	31944	
5590	0	32920	32196	
5591	0	33028	32306	
5592	0	33142	32444	
5593	0	32836	32588	
5594	0	32910	32748	
5595	0	32910	33028	
5596	0	32852	33382	
5597	0	32752	33415	
5598	0	32666	33650	
5599	0	32662	33738	
5600	0	32696	33724	
5601	0	32788	33584	
5602	0	32872	33340	
5603	0	32836	33031	
5604	0	32818	32766	
5605	0	32804	32639	
5606	0	32816	32660	
5607	0	32890	32474	
5608	0	32918	32442	
5609	0	32864	32588	
5610	0	32820	32519	
5611	0	32756	32600	
5612	0	32780	32546	
5613	0	32872	32519	
5614	0	32832	32519	
5615	0	32832	32464	
5616	0	32836	32440	
5617	0	32800	32492	
5618	0	32812	32558	
5619	0	32862	32598	
5620	0	32840	32692	
5621	0	32922	32664	
5622	0	32868	32596	
5623	0	32752	32668	
5624	0	32740	32788	
5625	0	32784	32822	
5626	0	32680	32686	
5627	0	32732	32714	
5628	0	32788	32782	
5629	0	32808	32718	
5630	0	32844	32628	
5631	0	32920	32772	
5632	0	32880	32868	
5633	0	32956	32762	
5634	0	32938	32932	
5635	0	33072	32900	
5636	0	33002	32826	
5637	0	33020	32915	
5638	0	32879	32790	
5639	0	32800	32798	
5640	0	32752	32766	
5641	0	32736	32852	
5642	0	32704	32862	
5643	0	32546	32818	
5644	0	32534	32906	
5645	0	32648	32912	
5646	0	32552	32876	
5647	0	32490	32732	
5648	0	32652	32714	
5649	0	32728	32743	
5650	0	32676	32772	
5651	0	32730	32810	
5652	0	32804	32800	
5653	0	32752	32816	
5654	0	32808	32692	
5655	0	32842	32724	
5656	0	32958	32830	
5657	0	32888	32818	
5658	0	33076	32663	
5659	0	33220	32662	
5660	0	33252	32642	
5661	0	33180	32536	
5662	0	33146	32502	
5663	0	33122	32709	
5664	0	32932	32726	
5665	0	32710	32830	
5666	0	32434	32836	
5667	0	32474	32880	
5668	0	32406	32888	
5669	0	32604	32814	
5670	0	32656	32801	
5671	0	32526	32775	
5672	0	32640	32652	
5673	0	32942	32798	
5674	0	32854	32764	
5675	0	32608	32460	
5676	0	33080	32310	
5677	0	32788	32350	
5678	0	32714	32590	
5679	0	32782	32768	
5680	0	32724	32807	
5681	0	32976	32852	
5682	0	33016	32891	
5683	0	32828	32927	
5684	0	32760	33014	
5685	0	32924	33048	
5686	0	32910	33159	
5687	0	32936	33220	
5688	0	32898	33287	
5689	0	32794	33324	
5690	0	32824	33188	
5691	0	32872	33088	
5692	0	32928	32868	
5693	0	32904	32550	
5694	0	32764	32519	
5695	0	32626	32651	
5696	0	32696	32610	
5697	0	32654	32592	
5698	0	32742	32544	
5699	0	32710	32647	
5700	0	32722	32580	
5701	0	32596	32610	
5702	0	32740	32622	
5703	0	32888	32560	
5704	0	33048	32496	
5705	0	32992	32516	
5706	0	32800	32634	
5707	0	32848	32674	
5708	0	32828	32702	
5709	0	32840	32798	
5710	0	32860	32695	
5711	0	32920	32686	
5712	0	32938	32820	
5713	0	32832	32796	
5714	0	32866	32722	
5715	0	32828	32694	
5716	0	32800	32719	
5717	0	32766	32750	
5718	0	32892	32884	
5719	0	32922	32862	
5720	0	32842	32804	
5721	0	32890	33010	
5722	0	32954	32924	
5723	0	32916	32804	
5724	0	32952	32844	
5725	0	32876	32728	
5726	0	32938	32775	
5727	0	32848	32646	
5728	0	32800	32764	
5729	0	32624	32774	
5730	0	32720	32740	
5731	0	32493	32764	
5732	0	32536	32734	
5733	0	32564	32804	
5734	0	32524	32656	
5735	0	32556	32679	
5736	0	32546	32608	
5737	0	32644	32519	
5738	0	32808	32576	
5739	0	32860	32647	
5740	0	32832	32862	
5741	0	32792	33000	
5742	0	32816	32998	
5743	0	32976	33048	
5744	0	32948	32996	
5745	0	32958	33127	
5746	0	32932	32894	
5747	0	32992	32848	
5748	0	32864	32647	
5749	0	32906	32663	
5750	0	32970	32822	
5751	0	33040	32712	
5752	0	33068	32626	
5753	0	32908	32700	
5754	0	32746	32688	
5755	0	32712	32740	
5756	0	32668	32766	
5757	0	32646	32814	
5758	0	32608	32772	
5759	0	32753	32784	
5760	0	32856	32744	
5761	0	32708	32742	
5762	0	32584	32696	
5763	0	32552	32660	
5764	0	32700	32599	
5765	0	32632	32639	
5766	0	32644	32558	
5767	0	32832	32690	
5768	0	32880	32800	
5769	0	32824	32748	
5770	0	32998	32940	
5771	0	33056	32862	
5772	0	33068	32852	
5773	0	33128	32742	
5774	0	33064	32596	
5775	0	32976	32679	
5776	0	32900	32896	
5777	0	32860	32766	
5778	0	32876	32759	
5779	0	32834	32846	
5780	0	32860	32756	
5781	0	32740	32724	
5782	0	32620	32674	
5783	0	32620	32610	
5784	0	32782	32830	
5785	0	32678	32814	
5786	0	32641	32775	
5787	0	32544	32654	
5788	0	32500	32838	
5789	0	32684	32924	
5790	0	32788	32516	
5791	0	32848	31678	
5792	0	32736	31401	
5793	0	32784	31751	
5794	0	32992	32222	
5795	0	32926	32692	
5796	0	32862	33108	
5797	0	32896	33536	
5798	0	32822	33836	
5799	0	32776	33796	
5800	0	32836	33612	
5801	0	32916	33578	
5802	0	32760	33486	
5803	0	32902	33294	
5804	0	32949	33158	
5805	0	32822	33031	
5806	0	32911	32930	
5807	0	32844	32956	
5808	0	32890	32670	
5809	0	32890	32436	
5810	0	32716	32484	
5811	0	32792	32516	
5812	0	32772	32383	
5813	0	32757	32519	
5814	0	32928	32376	
5815	0	32820	32359	
5816	0	32708	32508	
5817	0	32660	32476	
5818	0	32640	32530	
5819	0	32748	32624	
5820	0	32788	32572	
5821	0	32660	32607	
5822	0	32596	32698	
5823	0	32732	32775	
5824	0	32934	32760	
5825	0	32832	32658	
5826	0	32972	32712	
5827	0	32744	32719	
5828	0	32804	32740	
5829	0	32856	32774	
5830	0	32936	32710	
5831	0	32916	32766	
5832	0	33056	32714	
5833	0	32986	32644	
5834	0	32984	32758	
5835	0	32900	32866	
5836	0	32838	32838	
5837	0	32784	32814	
5838	0	32860	32920	
5839	0	32850	32736	
5840	0	32742	32740	
5841	0	32816	32625	
5842	0	32790	32622	
5843	0	32672	32670	
5844	0	32692	32708	
5845	0	32592	32804	
5846	0	32538	32792	
5847	0	32556	32746	
5848	0	32704	32794	
5849	0	32708	32660	
5850	0	32816	32647	
5851	0	32720	32676	
5852	0	32638	32688	
5853	0	32736	32775	
5854	0	32872	32908	
5855	0	33020	33122	
5856	0	32932	33073	
5857	0	32922	32892	
5858	0	32764	32860	
5859	0	32892	32919	
5860	0	32740	32774	
5861	0	32730	32710	
5862	0	32802	32656	
5863	0	32762	32676	
5864	0	32784	32734	
5865	0	32832	32624	
5866	0	32952	32668	
5867	0	32578	32522	
5868	0	32532	32542	
5869	0	32580	32596	
5870	0	32560	32732	
5871	0	32592	32750	
5872	0	32768	32647	
5873	0	32846	32678	
5874	0	32804	32762	
5875	0	32896	32734	
5876	0	32808	32714	
5877	0	32744	32666	
5878	0	32694	32596	
5879	0	32988	32816	
5880	0	32940	32707	
5881	0	32860	32689	
5882	0	32896	32676	
5883	0	32992	32679	
5884	0	33088	32644	
5885	0	32906	32655	
5886	0	32916	32820	
5887	0	32908	32828	
5888	0	32836	32775	
5889	0	32864	32880	
5890	0	33000	33081	
5891	0	33042	33234	
5892	0	32876	33224	
5893	0	32904	33214	
5894	0	32838	33076	
5895	0	32964	33182	
5896	0	32940	32847	
5897	0	33048	32758	
5898	0	32950	32654	
5899	0	32800	32666	
5900	0	33012	32676	
5901	0	33168	32730	
5902	0	33124	32766	
5903	0	32943	32862	
5904	0	32882	32806	
5905	0	32759	32918	
5906	0	32716	32770	
5907	0	32582	32832	
5908	0	32636	32788	
5909	0	32680	32714	
5910	0	32422	32679	
5911	0	32576	32734	
5912	0	32806	32654	
5913	0	32660	32562	
5914	0	32656	32483	
5915	0	32754	32546	
5916	0	32672	32592	
5917	0	32500	32686	
5918	0	32640	32760	
5919	0	32688	32818	
5920	0	32710	32812	
5921	0	33076	32726	
5922	0	32966	32815	
5923	0	32876	32775	
5924	0	32872	32738	
5925	0	32920	32818	
5926	0	32876	32862	
5927	0	32852	32687	
5928	0	32784	32626	
5929	0	32792	32611	
5930	0	32904	32639	
5931	0	32874	32734	
5932	0	32860	32790	
5933	0	32836	32840	
5934	0	32848	32858	
5935	0	32900	32740	
5936	0	32880	32740	
5937	0	32810	32752	
5938	0	32798	32809	
5939	0	32734	32862	
5940	0	32752	32836	
5941	0	32708	32720	
5942	0	32792	32790	
5943	0	32786	32775	
5944	0	32816	32794	
5945	0	32860	32710	
5946	0	32976	32764	
5947	0	32878	32726	
5948	0	32884	32736	
5949	0	32914	32768	
5950	0	32972	32732	
5951	0	32936	32740	
5952	0	32836	32775	
5953	0	32792	32774	
5954	0	32828	32796	
5955	0	32677	32804	
5956	0	32532	32814	
5957	0	32504	32736	
5958	0	32550	32606	
5959	0	32624	32564	
5960	0	32650	32568	
5961	0	32600	32728	
5962	0	32656	32878	
5963	0	32628	32748	
5964	0	32866	32641	
5965	0	32964	32690	
5966	0	33012	32848	
5967	0	33064	32804	
5968	0	33048	32746	
5969	0	32968	32710	
5970	0	32896	32736	
5971	0	32986	32751	
5972	0	32884	32798	
5973	0	32708	32870	
5974	0	32774	32856	
5975	0	32756	32752	
5976	0	32640	32762	
5977	0	32586	32784	
5978	0	32596	32871	
5979	0	32724	32760	
5980	0	32720	32724	
5981	0	32724	32698	
5982	0	32572	32636	
5983	0	32750	32567	
5984	0	32756	32647	
5985	0	33032	32884	
5986	0	33144	32878	
5987	0	33004	32832	
5988	0	32892	32671	
5989	0	32860	32616	
5990	0	32948	32672	
5991	0	32938	32636	
5992	0	32848	32700	
5993	0	32876	32718	
5994	0	32868	32860	
5995	0	32826	32910	
5996	0	32852	32874	
5997	0	32764	33012	
5998	0	32864	33000	
5999	0	32820	33108	
6000	0	32808	33022	
6001	0	32754	32852	
6002	0	32894	32752	
6003	0	32938	32746	
6004	0	32820	32852	
6005	0	32750	32770	
6006	0	32716	32775	
6007	0	32782	32697	
6008	0	32826	32687	
6009	0	32876	32868	
6010	0	32832	32676	
6011	0	32808	32604	
6012	0	32896	32567	
