# OpenSignals Text File Format. Version 1
# {"00:07:80:8C:0A:39": {"position": 0, "device": "biosignalsplux", "device name": "00:07:80:8C:0A:39", "device connection": "BTH00:07:80:8C:0A:39", "sampling rate": 1000, "resolution": [16, 16], "firmware version": 776, "comments": "", "keywords": "", "mode": 0, "sync interval": 2, "date": "2023-3-19", "time": "11:4:14.770", "channels": [1, 2], "sensor": ["EMG", "EMG"], "label": ["CH1", "CH2"], "column": ["nSeq", "DI", "CH1", "CH2"], "special": [{"SpO2": [80, 40, 5, 4, 3, 3]}, {"SpO2": [80, 40, 5, 4, 3, 3]}, {"SpO2": [80, 40, 5, 4, 3, 3]}, {"SpO2": [80, 40, 5, 4, 3, 3]}, {"SpO2": [80, 40, 5, 4, 3, 3]}, {"SpO2": [80, 40, 5, 4, 3, 3]}, {"SpO2": [80, 40, 5, 4, 3, 3]}, {"SpO2": [80, 40, 5, 4, 3, 3]}], "digital IO": [0, 1], "sleeve color": ["gray", "yellow"], "convertedValues": 0}}
# EndOfHeader
0	0	32856	32832	
1	0	32762	32804	
2	0	32773	32716	
3	0	32760	32855	
4	0	32846	32914	
5	0	32790	32892	
6	0	32802	32737	
7	0	32836	32736	
8	0	32896	32804	
9	0	32880	32866	
10	0	32804	32711	
11	0	32768	32616	
12	0	32812	32847	
13	0	32770	32750	
14	0	32764	32807	
15	0	32756	32696	
16	0	32794	32769	
17	0	32838	32722	
18	0	32870	32832	
19	0	32856	32698	
20	0	32800	32748	
21	0	32848	32895	
22	0	32816	32814	
23	0	32780	32815	
24	0	32744	32703	
25	0	32848	32736	
26	0	32784	32791	
27	0	32804	32784	
28	0	32764	32825	
29	0	32738	32697	
30	0	32730	32775	
31	0	32800	32828	
32	0	32832	32862	
33	0	32848	32792	
34	0	32832	32845	
35	0	32785	32766	
36	0	32808	32684	
37	0	32808	32862	
38	0	32804	32768	
39	0	32800	32775	
40	0	32844	32676	
41	0	32832	32857	
42	0	32828	32750	
43	0	32878	32774	
44	0	32844	32727	
45	0	32768	32823	
46	0	32806	32824	
47	0	32832	32806	
48	0	32760	32743	
49	0	32768	32672	
50	0	32780	32844	
51	0	32820	32740	
52	0	32832	32806	
53	0	32808	32708	
54	0	32812	32767	
55	0	32800	32775	
56	0	32812	32728	
57	0	32789	32772	
58	0	32848	32758	
59	0	32842	32775	
60	0	32804	32711	
61	0	32816	32756	
62	0	32804	32823	
63	0	32832	32690	
64	0	32820	32832	
65	0	32740	32807	
66	0	32820	32798	
67	0	32792	32706	
68	0	32776	32792	
69	0	32836	32747	
70	0	32828	32855	
71	0	32836	32654	
72	0	32844	32702	
73	0	32798	32844	
74	0	32764	32754	
75	0	32860	32823	
76	0	32820	32740	
77	0	32830	32775	
78	0	32892	32750	
79	0	32832	32764	
80	0	32792	32669	
81	0	32820	32807	
82	0	32782	32770	
83	0	32840	32775	
84	0	32844	32672	
85	0	32796	32720	
86	0	32864	32790	
87	0	32856	32788	
88	0	32804	32736	
89	0	32800	32706	
90	0	32810	32812	
91	0	32752	32750	
92	0	32823	32836	
93	0	32780	32788	
94	0	32802	32704	
95	0	32808	32871	
96	0	32792	32750	
97	0	32844	32822	
98	0	32882	32730	
99	0	32834	32625	
100	0	32778	32730	
101	0	32774	32790	
102	0	32804	32775	
103	0	32868	32806	
104	0	32853	32724	
105	0	32814	32775	
106	0	32796	32788	
107	0	32852	32744	
108	0	32793	32764	
109	0	32816	32687	
110	0	32832	32878	
111	0	32756	32750	
112	0	32780	32878	
113	0	32856	32700	
114	0	32860	32798	
115	0	32810	32802	
116	0	32804	32706	
117	0	32770	32679	
118	0	32776	32836	
119	0	32868	32748	
120	0	32826	32788	
121	0	32840	32769	
122	0	32784	32714	
123	0	32800	32751	
124	0	32840	32775	
125	0	32814	32764	
126	0	32860	32808	
127	0	32788	32849	
128	0	32856	32767	
129	0	32788	32832	
130	0	32776	32619	
131	0	32752	32684	
132	0	32816	32839	
133	0	32788	32784	
134	0	32758	32688	
135	0	32838	32810	
136	0	32832	32775	
137	0	32848	32736	
138	0	32712	32689	
139	0	32820	32835	
140	0	32768	32854	
141	0	32854	32700	
142	0	32820	32772	
143	0	32808	32743	
144	0	32798	32739	
145	0	32752	32760	
146	0	32784	32897	
147	0	32792	32775	
148	0	32828	32768	
149	0	32840	32752	
150	0	32836	32728	
151	0	32764	32740	
152	0	32816	32714	
153	0	32814	32726	
154	0	32794	32748	
155	0	32796	32804	
156	0	32756	32644	
157	0	32752	32800	
158	0	32784	32808	
159	0	32740	32668	
160	0	32826	32814	
161	0	32836	32794	
162	0	32816	32775	
163	0	32860	32879	
164	0	32752	32791	
165	0	32800	32775	
166	0	32842	32772	
167	0	32792	32738	
168	0	32762	32702	
169	0	32756	32838	
170	0	32844	32812	
171	0	32824	32775	
172	0	32744	32668	
173	0	32740	32766	
174	0	32841	32769	
175	0	32804	32727	
176	0	32784	32809	
177	0	32874	32764	
178	0	32894	32828	
179	0	32799	32688	
180	0	32836	32840	
181	0	32812	32817	
182	0	32792	32718	
183	0	32748	32806	
184	0	32756	32772	
185	0	32804	32708	
186	0	32844	32828	
187	0	32844	32809	
188	0	32838	32869	
189	0	32808	32700	
190	0	32782	32788	
191	0	32764	32748	
192	0	32742	32788	
193	0	32776	32687	
194	0	32836	32728	
195	0	32816	32786	
196	0	32788	32746	
197	0	32776	32700	
198	0	32788	32770	
199	0	32858	32839	
200	0	32836	32687	
201	0	32784	32876	
202	0	32854	32786	
203	0	32796	32695	
204	0	32740	32802	
205	0	32788	32760	
206	0	32868	32696	
207	0	32816	32762	
208	0	32866	32806	
209	0	32828	32818	
210	0	32837	32706	
211	0	32848	32768	
212	0	32780	32820	
213	0	32816	32642	
214	0	32792	32832	
215	0	32818	32760	
216	0	32858	32718	
217	0	32756	32806	
218	0	32900	32794	
219	0	32832	32700	
220	0	32810	32818	
221	0	32832	32750	
222	0	32872	32696	
223	0	32812	32839	
224	0	32772	32824	
225	0	32802	32720	
226	0	32860	32893	
227	0	32798	32816	
228	0	32872	32814	
229	0	32884	32716	
230	0	32830	32792	
231	0	32864	32736	
232	0	32780	32730	
233	0	32820	32775	
234	0	32848	32751	
235	0	32836	32759	
236	0	32780	32799	
237	0	32790	32750	
238	0	32822	32766	
239	0	32752	32724	
240	0	32830	32892	
241	0	32814	32801	
242	0	32801	32718	
243	0	32850	32690	
244	0	32846	32798	
245	0	32772	32807	
246	0	32816	32748	
247	0	32794	32839	
248	0	32856	32740	
249	0	32820	32750	
250	0	32802	32834	
251	0	32752	32775	
252	0	32824	32812	
253	0	32750	32644	
254	0	32815	32884	
255	0	32808	32796	
256	0	32720	32647	
257	0	32776	32756	
258	0	32828	32775	
259	0	32806	32784	
260	0	32800	32756	
261	0	32810	32772	
262	0	32728	32752	
263	0	32814	32743	
264	0	32868	32789	
265	0	32777	32824	
266	0	32844	32697	
267	0	32788	32830	
268	0	32844	32798	
269	0	32788	32706	
270	0	32764	32660	
271	0	32830	32818	
272	0	32788	32798	
273	0	32772	32743	
274	0	32792	32800	
275	0	32860	32812	
276	0	32798	32668	
277	0	32818	32768	
278	0	32856	32794	
279	0	32798	32702	
280	0	32828	32804	
281	0	32886	32746	
282	0	32818	32647	
283	0	32826	32830	
284	0	32800	32790	
285	0	32836	32682	
286	0	32852	32850	
287	0	32868	32888	
288	0	32730	32682	
289	0	32780	32798	
290	0	32912	32774	
291	0	32832	32740	
292	0	32828	32754	
293	0	32776	32775	
294	0	32832	32798	
295	0	32852	32732	
296	0	32748	32646	
297	0	32781	32846	
298	0	32758	32850	
299	0	32832	32676	
300	0	32836	32740	
301	0	32812	32702	
302	0	32820	32708	
303	0	32844	32756	
304	0	32782	32724	
305	0	32816	32879	
306	0	32864	32785	
307	0	32804	32814	
308	0	32784	32759	
309	0	32746	32708	
310	0	32753	32693	
311	0	32888	32775	
312	0	32816	32820	
313	0	32772	32754	
314	0	32800	32934	
315	0	32800	32854	
316	0	32890	32774	
317	0	32824	32676	
318	0	32875	32810	
319	0	32772	32730	
320	0	32816	32831	
321	0	32804	32732	
322	0	32816	32820	
323	0	32826	32750	
324	0	32744	32702	
325	0	32762	32775	
326	0	32856	32770	
327	0	32758	32750	
328	0	32856	32836	
329	0	32852	32810	
330	0	32766	32679	
331	0	32804	32714	
332	0	32748	32743	
333	0	32824	32762	
334	0	32732	32792	
335	0	32784	32844	
336	0	32834	32716	
337	0	32797	32751	
338	0	32784	32800	
339	0	32834	32678	
340	0	32824	32766	
341	0	32840	32846	
342	0	32852	32869	
343	0	32828	32647	
344	0	32810	32790	
345	0	32832	32792	
346	0	32826	32686	
347	0	32808	32836	
348	0	32850	32774	
349	0	32828	32715	
350	0	32732	32766	
351	0	32744	32805	
352	0	32800	32787	
353	0	32816	32820	
354	0	32836	32881	
355	0	32844	32708	
356	0	32752	32762	
357	0	32872	32710	
358	0	32848	32832	
359	0	32856	32712	
360	0	32832	32738	
361	0	32858	32794	
362	0	32792	32716	
363	0	32780	32839	
364	0	32836	32802	
365	0	32742	32710	
366	0	32792	32722	
367	0	32886	32866	
368	0	32848	32742	
369	0	32836	32822	
370	0	32810	32762	
371	0	32788	32695	
372	0	32824	32743	
373	0	32860	32822	
374	0	32768	32903	
375	0	32768	32767	
376	0	32784	32855	
377	0	32816	32741	
378	0	32816	32670	
379	0	32818	32802	
380	0	32864	32736	
381	0	32896	32788	
382	0	32846	32678	
383	0	32770	32820	
384	0	32900	32796	
385	0	32816	32854	
386	0	32812	32686	
387	0	32828	32828	
388	0	32804	32810	
389	0	32784	32714	
390	0	32780	32882	
391	0	32822	32774	
392	0	32826	32616	
393	0	32824	32863	
394	0	32822	32740	
395	0	32842	32746	
396	0	32832	32804	
397	0	32770	32823	
398	0	32776	32699	
399	0	32824	32711	
400	0	32816	32807	
401	0	32820	32794	
402	0	32812	32764	
403	0	32832	32746	
404	0	32764	32806	
405	0	32820	32807	
406	0	32838	32764	
407	0	32836	32706	
408	0	32865	32692	
409	0	32852	32831	
410	0	32802	32775	
411	0	32828	32830	
412	0	32772	32746	
413	0	32806	32834	
414	0	32756	32775	
415	0	32858	32868	
416	0	32768	32716	
417	0	32808	32900	
418	0	32802	32719	
419	0	32836	32759	
420	0	32810	32766	
421	0	32784	32742	
422	0	32868	32727	
423	0	32868	32678	
424	0	32836	32791	
425	0	32822	32812	
426	0	32776	32694	
427	0	32792	32775	
428	0	32900	32835	
429	0	32796	32748	
430	0	32872	32742	
431	0	32792	32842	
432	0	32798	32711	
433	0	32754	32723	
434	0	32810	32823	
435	0	32839	32724	
436	0	32828	32806	
437	0	32840	32838	
438	0	32796	32802	
439	0	32752	32838	
440	0	32826	32775	
441	0	32790	32870	
442	0	32780	32704	
443	0	32812	32806	
444	0	32760	32711	
445	0	32800	32660	
446	0	32780	32820	
447	0	32778	32748	
448	0	32792	32774	
449	0	32790	32750	
450	0	32780	32825	
451	0	32810	32880	
452	0	32780	32802	
453	0	32860	32769	
454	0	32812	32815	
455	0	32814	32671	
456	0	32810	32788	
457	0	32796	32756	
458	0	32852	32740	
459	0	32774	32735	
460	0	32810	32772	
461	0	32864	32662	
462	0	32882	32732	
463	0	32828	32662	
464	0	32792	32802	
465	0	32804	32676	
466	0	32820	32819	
467	0	32774	32711	
468	0	32872	32770	
469	0	32796	32740	
470	0	32826	32760	
471	0	32824	32774	
472	0	32770	32708	
473	0	32772	32855	
474	0	32834	32730	
475	0	32769	32862	
476	0	32876	32679	
477	0	32772	32860	
478	0	32801	32750	
479	0	32778	32734	
480	0	32762	32804	
481	0	32742	32790	
482	0	32808	32820	
483	0	32840	32656	
484	0	32836	32805	
485	0	32888	32863	
486	0	32900	32711	
487	0	32820	32726	
488	0	32832	32743	
489	0	32844	32772	
490	0	32740	32722	
491	0	32832	32700	
492	0	32818	32804	
493	0	32756	32751	
494	0	32772	32760	
495	0	32744	32799	
496	0	32782	32768	
497	0	32860	32864	
498	0	32832	32732	
499	0	32720	32750	
500	0	32768	32814	
501	0	32852	32748	
502	0	32766	32678	
503	0	32764	32798	
504	0	32805	32794	
505	0	32840	32853	
506	0	32820	32702	
507	0	32804	32780	
508	0	32844	32724	
509	0	32796	32655	
510	0	32834	32736	
511	0	32800	32756	
512	0	32838	32748	
513	0	32834	32775	
514	0	32822	32702	
515	0	32752	32796	
516	0	32812	32788	
517	0	32748	32895	
518	0	32810	32672	
519	0	32744	32830	
520	0	32748	32792	
521	0	32852	32720	
522	0	32848	32780	
523	0	32712	32732	
524	0	32784	32855	
525	0	32808	32796	
526	0	32868	32807	
527	0	32836	32775	
528	0	32816	32834	
529	0	32900	32708	
530	0	32844	32751	
531	0	32912	32768	
532	0	32876	32676	
533	0	32800	32766	
534	0	32792	32761	
535	0	32808	32832	
536	0	32824	32799	
537	0	32816	32774	
538	0	32888	32736	
539	0	32868	32770	
540	0	32850	32694	
541	0	32834	32864	
542	0	32860	32742	
543	0	32764	32866	
544	0	32846	32716	
545	0	32836	32808	
546	0	32780	32800	
547	0	32799	32852	
548	0	32784	32738	
549	0	32764	32722	
550	0	32792	32750	
551	0	32800	32793	
552	0	32816	32668	
553	0	32788	32746	
554	0	32828	32798	
555	0	32752	32714	
556	0	32856	32722	
557	0	32808	32790	
558	0	32838	32793	
559	0	32820	32839	
560	0	32916	32706	
561	0	32848	32766	
562	0	32844	32830	
563	0	32844	32804	
564	0	32748	32700	
565	0	32808	32818	
566	0	32784	32802	
567	0	32804	32820	
568	0	32772	32869	
569	0	32808	32698	
570	0	32794	32902	
571	0	32775	32752	
572	0	32898	32768	
573	0	32764	32703	
574	0	32800	32764	
575	0	32788	32748	
576	0	32832	32674	
577	0	32824	32854	
578	0	32844	32791	
579	0	32792	32720	
580	0	32736	32847	
581	0	32788	32816	
582	0	32784	32748	
583	0	32804	32719	
584	0	32796	32826	
585	0	32772	32756	
586	0	32760	32866	
587	0	32800	32760	
588	0	32772	32708	
589	0	32860	32798	
590	0	32780	32748	
591	0	32824	32818	
592	0	32860	32738	
593	0	32858	32750	
594	0	32778	32807	
595	0	32890	32798	
596	0	32820	32858	
597	0	32792	32694	
598	0	32804	32713	
599	0	32822	32832	
600	0	32800	32654	
601	0	32852	32830	
602	0	32788	32750	
603	0	32796	32802	
604	0	32860	32833	
605	0	32824	32724	
606	0	32776	32768	
607	0	32768	32738	
608	0	32804	32812	
609	0	32758	32858	
610	0	32828	32642	
611	0	32824	32775	
612	0	32796	32752	
613	0	32826	32700	
614	0	32844	32740	
615	0	32792	32806	
616	0	32774	32666	
617	0	32848	32806	
618	0	32836	32871	
619	0	32764	32742	
620	0	32830	32790	
621	0	32884	32828	
622	0	32806	32636	
623	0	32774	32768	
624	0	32849	32837	
625	0	32792	32641	
626	0	32844	32750	
627	0	32808	32838	
628	0	32788	32628	
629	0	32846	32775	
630	0	32812	32822	
631	0	32828	32674	
632	0	32742	32804	
633	0	32732	32788	
634	0	32852	32724	
635	0	32840	32806	
636	0	32766	32780	
637	0	32860	32696	
638	0	32824	32804	
639	0	32814	32882	
640	0	32808	32684	
641	0	32842	32834	
642	0	32828	32853	
643	0	32840	32746	
644	0	32836	32768	
645	0	32796	32722	
646	0	32792	32716	
647	0	32838	32766	
648	0	32775	32766	
649	0	32784	32796	
650	0	32796	32727	
651	0	32820	32820	
652	0	32754	32807	
653	0	32864	32735	
654	0	32800	32772	
655	0	32778	32775	
656	0	32796	32743	
657	0	32808	32834	
658	0	32784	32788	
659	0	32780	32766	
660	0	32862	32737	
661	0	32852	32736	
662	0	32816	32832	
663	0	32810	32660	
664	0	32842	32852	
665	0	32796	32802	
666	0	32808	32698	
667	0	32816	32892	
668	0	32774	32690	
669	0	32780	32716	
670	0	32786	32794	
671	0	32757	32772	
672	0	32732	32762	
673	0	32862	32764	
674	0	32830	32668	
675	0	32798	32852	
676	0	32800	32775	
677	0	32848	32842	
678	0	32862	32684	
679	0	32828	32775	
680	0	32792	32769	
681	0	32820	32870	
682	0	32846	32756	
683	0	32828	32740	
684	0	32808	32775	
685	0	32828	32742	
686	0	32816	32775	
687	0	32844	32782	
688	0	32776	32722	
689	0	32828	32730	
690	0	32768	32734	
691	0	32816	32810	
692	0	32796	32735	
693	0	32816	32817	
694	0	32766	32823	
695	0	32756	32824	
696	0	32820	32668	
697	0	32750	32854	
698	0	32844	32820	
699	0	32804	32756	
700	0	32812	32820	
701	0	32820	32689	
702	0	32880	32754	
703	0	32805	32718	
704	0	32896	32796	
705	0	32804	32759	
706	0	32770	32834	
707	0	32828	32774	
708	0	32852	32748	
709	0	32804	32692	
710	0	32797	32820	
711	0	32796	32740	
712	0	32784	32722	
713	0	32830	32896	
714	0	32820	32775	
715	0	32796	32676	
716	0	32784	32712	
717	0	32796	32765	
718	0	32788	32775	
719	0	32864	32663	
720	0	32784	32766	
721	0	32814	32798	
722	0	32798	32828	
723	0	32752	32672	
724	0	32806	32748	
725	0	32838	32807	
726	0	32832	32792	
727	0	32848	32703	
728	0	32828	32856	
729	0	32812	32732	
730	0	32800	32790	
731	0	32784	32708	
732	0	32760	32752	
733	0	32808	32789	
734	0	32786	32772	
735	0	32838	32744	
736	0	32802	32808	
737	0	32784	32840	
738	0	32804	32788	
739	0	32793	32854	
740	0	32832	32711	
741	0	32856	32814	
742	0	32812	32716	
743	0	32816	32732	
744	0	32848	32775	
745	0	32812	32822	
746	0	32810	32870	
747	0	32812	32790	
748	0	32802	32742	
749	0	32736	32872	
750	0	32852	32708	
751	0	32840	32834	
752	0	32834	32846	
753	0	32786	32612	
754	0	32796	32862	
755	0	32846	32756	
756	0	32880	32678	
757	0	32796	32716	
758	0	32820	32804	
759	0	32888	32710	
760	0	32766	32792	
761	0	32847	32819	
762	0	32864	32772	
763	0	32772	32766	
764	0	32844	32718	
765	0	32844	32700	
766	0	32824	32775	
767	0	32832	32871	
768	0	32780	32788	
769	0	32796	32686	
770	0	32814	32838	
771	0	32800	32702	
772	0	32822	32723	
773	0	32736	32775	
774	0	32817	32772	
775	0	32828	32817	
776	0	32804	32716	
777	0	32812	32756	
778	0	32816	32763	
779	0	32820	32804	
780	0	32834	32775	
781	0	32804	32770	
782	0	32848	32812	
783	0	32840	32742	
784	0	32748	32847	
785	0	32816	32764	
786	0	32816	32750	
787	0	32836	32756	
788	0	32814	32866	
789	0	32798	32760	
790	0	32812	32824	
791	0	32780	32730	
792	0	32800	32764	
793	0	32820	32750	
794	0	32774	32791	
795	0	32809	32783	
796	0	32828	32775	
797	0	32840	32774	
798	0	32820	32746	
799	0	32774	32760	
800	0	32841	32766	
801	0	32844	32864	
802	0	32824	32752	
803	0	32724	32692	
804	0	32812	32730	
805	0	32834	32828	
806	0	32814	32647	
807	0	32744	32824	
808	0	32832	32792	
809	0	32776	32824	
810	0	32754	32775	
811	0	32844	32751	
812	0	32820	32724	
813	0	32864	32719	
814	0	32804	32806	
815	0	32746	32838	
816	0	32824	32740	
817	0	32792	32757	
818	0	32856	32810	
819	0	32852	32744	
820	0	32840	32753	
821	0	32788	32790	
822	0	32798	32716	
823	0	32812	32770	
824	0	32796	32854	
825	0	32784	32842	
826	0	32762	32748	
827	0	32786	32653	
828	0	32742	32844	
829	0	32784	32768	
830	0	32741	32726	
831	0	32796	32745	
832	0	32824	32677	
833	0	32744	32791	
834	0	32828	32737	
835	0	32812	32732	
836	0	32834	32801	
837	0	32840	32741	
838	0	32864	32736	
839	0	32876	32764	
840	0	32832	32740	
841	0	32912	32714	
842	0	32996	32688	
843	0	32904	32631	
844	0	32892	32608	
845	0	32896	32660	
846	0	32956	32658	
847	0	32902	32676	
848	0	32932	32514	
849	0	33010	32668	
850	0	32930	32671	
851	0	32938	32614	
852	0	32952	32694	
853	0	32862	32636	
854	0	32912	32722	
855	0	32887	32657	
856	0	32888	32676	
857	0	32884	32742	
858	0	32848	32660	
859	0	32824	32759	
860	0	32808	32903	
861	0	32612	32902	
862	0	32472	32974	
863	0	32480	33031	
864	0	32488	33068	
865	0	32452	33214	
866	0	32329	33296	
867	0	32196	33497	
868	0	32256	33580	
869	0	32496	33257	
870	0	32666	33056	
871	0	32640	33001	
872	0	32744	32856	
873	0	32792	32926	
874	0	32800	32816	
875	0	32764	32704	
876	0	32784	32812	
877	0	32810	32718	
878	0	32876	32596	
879	0	32852	32670	
880	0	32936	32628	
881	0	33016	32492	
882	0	33016	32548	
883	0	32948	32555	
884	0	33030	32502	
885	0	32998	32486	
886	0	32988	32504	
887	0	32932	32638	
888	0	32913	32539	
889	0	32928	32606	
890	0	32913	32644	
891	0	32940	32718	
892	0	32844	32716	
893	0	32904	32604	
894	0	32828	32774	
895	0	32800	32691	
896	0	32836	32628	
897	0	32820	32713	
898	0	32792	32743	
899	0	32820	32808	
900	0	32848	32706	
901	0	32852	32647	
902	0	32836	32754	
903	0	32820	32828	
904	0	32784	32746	
905	0	32760	32828	
906	0	32816	32742	
907	0	32792	32817	
908	0	32826	32856	
909	0	32808	32814	
910	0	32806	32722	
911	0	32728	32791	
912	0	32780	32802	
913	0	32748	32716	
914	0	32792	32919	
915	0	32798	32798	
916	0	32860	32807	
917	0	32864	32666	
918	0	32792	32798	
919	0	32824	32764	
920	0	32816	32775	
921	0	32862	32738	
922	0	32844	32790	
923	0	32800	32812	
924	0	32804	32775	
925	0	32864	32708	
926	0	32822	32734	
927	0	32796	32808	
928	0	32768	32838	
929	0	32724	32788	
930	0	32808	32830	
931	0	32820	32812	
932	0	32780	32764	
933	0	32796	32662	
934	0	32808	32791	
935	0	32816	32766	
936	0	32902	32700	
937	0	32844	32813	
938	0	32800	32775	
939	0	32775	32788	
940	0	32744	32710	
941	0	32824	32858	
942	0	32814	32760	
943	0	32786	32722	
944	0	32848	32860	
945	0	32794	32796	
946	0	32816	32718	
947	0	32844	32810	
948	0	32826	32784	
949	0	32802	32756	
950	0	32868	32820	
951	0	32828	32794	
952	0	32792	32858	
953	0	32852	32721	
954	0	32806	32806	
955	0	32775	32758	
956	0	32772	32821	
957	0	32828	32804	
958	0	32792	32695	
959	0	32741	32730	
960	0	32882	32786	
961	0	32788	32868	
962	0	32804	32799	
963	0	32820	32822	
964	0	32910	32688	
965	0	32792	32746	
966	0	32740	32712	
967	0	32806	32896	
968	0	32828	32698	
969	0	32860	32724	
970	0	32868	32775	
971	0	32802	32754	
972	0	32844	32772	
973	0	32820	32698	
974	0	32732	32830	
975	0	32701	32872	
976	0	32766	32768	
977	0	32780	32807	
978	0	32796	32756	
979	0	32820	32800	
980	0	32808	32707	
981	0	32852	32730	
982	0	32836	32775	
983	0	32798	32772	
984	0	32804	32782	
985	0	32790	32800	
986	0	32804	32862	
987	0	32716	32812	
988	0	32794	32754	
989	0	32911	32732	
990	0	32794	32814	
991	0	32772	32788	
992	0	32782	32700	
993	0	32816	32718	
994	0	32784	32878	
995	0	32836	32764	
996	0	32884	32742	
997	0	32832	32738	
998	0	32784	32883	
999	0	32844	32807	
1000	0	32808	32639	
1001	0	32822	32676	
1002	0	32804	32748	
1003	0	32862	32760	
1004	0	32776	32697	
1005	0	32842	32735	
1006	0	32796	32818	
1007	0	32846	32863	
1008	0	32778	32679	
1009	0	32808	32754	
1010	0	32856	32822	
1011	0	32836	32804	
1012	0	32868	32740	
1013	0	32856	32719	
1014	0	32820	32857	
1015	0	32836	32790	
1016	0	32828	32688	
1017	0	32796	32804	
1018	0	32810	32718	
1019	0	32786	32775	
1020	0	32786	32694	
1021	0	32900	32839	
1022	0	32948	32746	
1023	0	32816	32787	
1024	0	32860	32668	
1025	0	32880	32846	
1026	0	32768	32788	
1027	0	32832	32758	
1028	0	32784	32812	
1029	0	32780	32856	
1030	0	32792	32820	
1031	0	32794	32708	
1032	0	32800	32752	
1033	0	32808	32815	
1034	0	32832	32806	
1035	0	32836	32686	
1036	0	32820	32743	
1037	0	32800	32751	
1038	0	32884	32808	
1039	0	32836	32748	
1040	0	32816	32830	
1041	0	32828	32766	
1042	0	32846	32868	
1043	0	32822	32714	
1044	0	32786	32930	
1045	0	32816	32848	
1046	0	32752	32678	
1047	0	32834	32772	
1048	0	32856	32820	
1049	0	32798	32738	
1050	0	32764	32746	
1051	0	32722	32732	
1052	0	32750	32770	
1053	0	32856	32663	
1054	0	32852	32756	
1055	0	32820	32805	
1056	0	32764	32678	
1057	0	32800	32804	
1058	0	32832	32799	
1059	0	32744	32798	
1060	0	32804	32719	
1061	0	32866	32785	
1062	0	32820	32788	
1063	0	32854	32710	
1064	0	32838	32662	
1065	0	32798	32788	
1066	0	32848	32775	
1067	0	32848	32725	
1068	0	32772	32792	
1069	0	32760	32727	
1070	0	32729	32788	
1071	0	32804	32758	
1072	0	32830	32712	
1073	0	32808	32859	
1074	0	32782	32836	
1075	0	32796	32722	
1076	0	32858	32806	
1077	0	32874	32775	
1078	0	32780	32805	
1079	0	32788	32668	
1080	0	32756	32762	
1081	0	32844	32750	
1082	0	32804	32837	
1083	0	32830	32703	
1084	0	32796	32824	
1085	0	32816	32752	
1086	0	32738	32740	
1087	0	32868	32630	
1088	0	32848	32710	
1089	0	32804	32790	
1090	0	32836	32730	
1091	0	32918	32775	
1092	0	32858	32775	
1093	0	32834	32775	
1094	0	32828	32732	
1095	0	32868	32762	
1096	0	32764	32834	
1097	0	32856	32676	
1098	0	32800	32801	
1099	0	32800	32786	
1100	0	32812	32788	
1101	0	32828	32704	
1102	0	32808	32820	
1103	0	32838	32724	
1104	0	32802	32722	
1105	0	32810	32700	
1106	0	32874	32807	
1107	0	32842	32850	
1108	0	32774	32801	
1109	0	32816	32718	
1110	0	32716	32832	
1111	0	32740	32770	
1112	0	32720	32664	
1113	0	32820	32722	
1114	0	32796	32802	
1115	0	32800	32696	
1116	0	32804	32834	
1117	0	32800	32766	
1118	0	32760	32731	
1119	0	32836	32850	
1120	0	32924	32636	
1121	0	32824	32751	
1122	0	32808	32838	
1123	0	32742	32763	
1124	0	32824	32830	
1125	0	32836	32858	
1126	0	32848	32798	
1127	0	32780	32714	
1128	0	32832	32662	
1129	0	32850	32804	
1130	0	32808	32807	
1131	0	32800	32839	
1132	0	32834	32706	
1133	0	32808	32760	
1134	0	32800	32856	
1135	0	32806	32700	
1136	0	32824	32854	
1137	0	32804	32807	
1138	0	32884	32719	
1139	0	32778	32872	
1140	0	32782	32771	
1141	0	32831	32794	
1142	0	32828	32732	
1143	0	32832	32878	
1144	0	32788	32732	
1145	0	32776	32816	
1146	0	32808	32709	
1147	0	32804	32824	
1148	0	32740	32796	
1149	0	32762	32742	
1150	0	32692	32788	
1151	0	32804	32823	
1152	0	32798	32788	
1153	0	32800	32706	
1154	0	32868	32798	
1155	0	32796	32775	
1156	0	32840	32728	
1157	0	32812	32730	
1158	0	32768	32767	
1159	0	32898	32956	
1160	0	32796	32700	
1161	0	32842	32710	
1162	0	32742	32722	
1163	0	32816	32722	
1164	0	32810	32807	
1165	0	32828	32788	
1166	0	32836	32680	
1167	0	32778	32850	
1168	0	32768	32836	
1169	0	32882	32711	
1170	0	32824	32789	
1171	0	32856	32710	
1172	0	32760	32802	
1173	0	32801	32722	
1174	0	32808	32874	
1175	0	32806	32770	
1176	0	32828	32834	
1177	0	32828	32718	
1178	0	32772	32788	
1179	0	32834	32748	
1180	0	32766	32838	
1181	0	32786	32788	
1182	0	32784	32824	
1183	0	32788	32742	
1184	0	32770	32858	
1185	0	32852	32706	
1186	0	32808	32694	
1187	0	32820	32716	
1188	0	32884	32902	
1189	0	32824	32742	
1190	0	32800	32810	
1191	0	32846	32738	
1192	0	32836	32713	
1193	0	32834	32732	
1194	0	32792	32716	
1195	0	32740	32774	
1196	0	32820	32733	
1197	0	32812	32764	
1198	0	32804	32877	
1199	0	32814	32700	
1200	0	32810	32830	
1201	0	32785	32911	
1202	0	32800	32806	
1203	0	32860	32746	
1204	0	32826	32852	
1205	0	32868	32720	
1206	0	32840	32816	
1207	0	32878	32698	
1208	0	32734	32686	
1209	0	32740	32720	
1210	0	32864	32788	
1211	0	32817	32718	
1212	0	32828	32724	
1213	0	32772	32876	
1214	0	32808	32790	
1215	0	32810	32825	
1216	0	32772	32696	
1217	0	32832	32772	
1218	0	32812	32814	
1219	0	32772	32732	
1220	0	32836	32871	
1221	0	32860	32718	
1222	0	32804	32710	
1223	0	32820	32719	
1224	0	32816	32732	
1225	0	32872	32722	
1226	0	32800	32876	
1227	0	32836	32680	
1228	0	32804	32775	
1229	0	32812	32807	
1230	0	32848	32822	
1231	0	32804	32802	
1232	0	32840	32790	
1233	0	32856	32740	
1234	0	32820	32871	
1235	0	32752	32647	
1236	0	32784	32702	
1237	0	32808	32744	
1238	0	32768	32694	
1239	0	32796	32838	
1240	0	32780	32800	
1241	0	32852	32707	
1242	0	32804	32826	
1243	0	32808	32820	
1244	0	32796	32703	
1245	0	32778	32807	
1246	0	32888	32841	
1247	0	32750	32816	
1248	0	32756	32647	
1249	0	32756	32767	
1250	0	32775	32802	
1251	0	32804	32900	
1252	0	32832	32654	
1253	0	32834	32746	
1254	0	32852	32798	
1255	0	32816	32736	
1256	0	32848	32766	
1257	0	32846	32746	
1258	0	32816	32727	
1259	0	32828	32794	
1260	0	32770	32756	
1261	0	32772	32684	
1262	0	32844	32788	
1263	0	32816	32854	
1264	0	32838	32754	
1265	0	32800	32810	
1266	0	32814	32766	
1267	0	32816	32820	
1268	0	32816	32754	
1269	0	32800	32722	
1270	0	32800	32788	
1271	0	32832	32790	
1272	0	32896	32790	
1273	0	32808	32775	
1274	0	32828	32812	
1275	0	32824	32746	
1276	0	32751	32796	
1277	0	32790	32748	
1278	0	32856	32804	
1279	0	32788	32804	
1280	0	32838	32850	
1281	0	32834	32725	
1282	0	32894	32750	
1283	0	32844	32844	
1284	0	32830	32736	
1285	0	32839	32704	
1286	0	32784	32788	
1287	0	32744	32796	
1288	0	32750	32668	
1289	0	32796	32696	
1290	0	32760	32784	
1291	0	32744	32802	
1292	0	32776	32866	
1293	0	32752	32758	
1294	0	32784	32764	
1295	0	32836	32788	
1296	0	32864	32775	
1297	0	32888	32664	
1298	0	32852	32726	
1299	0	32876	32746	
1300	0	32754	32822	
1301	0	32824	32704	
1302	0	32804	32710	
1303	0	32808	32752	
1304	0	32798	32839	
1305	0	32812	32742	
1306	0	32784	32808	
1307	0	32864	32671	
1308	0	32848	32724	
1309	0	32814	32775	
1310	0	32788	32775	
1311	0	32852	32738	
1312	0	32796	32768	
1313	0	32862	32862	
1314	0	32828	32818	
1315	0	32812	32817	
1316	0	32836	32698	
1317	0	32776	32798	
1318	0	32800	32807	
1319	0	32812	32768	
1320	0	32786	32846	
1321	0	32778	32664	
1322	0	32770	32746	
1323	0	32816	32836	
1324	0	32876	32775	
1325	0	32825	32686	
1326	0	32742	32838	
1327	0	32792	32746	
1328	0	32816	32812	
1329	0	32820	32825	
1330	0	32796	32788	
1331	0	32808	32716	
1332	0	32801	32687	
1333	0	32845	32760	
1334	0	32772	32716	
1335	0	32826	32680	
1336	0	32840	32710	
1337	0	32796	32834	
1338	0	32828	32828	
1339	0	32773	32871	
1340	0	32828	32721	
1341	0	32874	32785	
1342	0	32844	32775	
1343	0	32804	32772	
1344	0	32848	32775	
1345	0	32828	32910	
1346	0	32812	32794	
1347	0	32788	32702	
1348	0	32804	32753	
1349	0	32724	32769	
1350	0	32748	32798	
1351	0	32840	32668	
1352	0	32856	32795	
1353	0	32792	32743	
1354	0	32808	32684	
1355	0	32848	32738	
1356	0	32806	32824	
1357	0	32808	32821	
1358	0	32812	32762	
1359	0	32804	32775	
1360	0	32832	32647	
1361	0	32874	32868	
1362	0	32826	32858	
1363	0	32732	32670	
1364	0	32744	32800	
1365	0	32828	32800	
1366	0	32836	32743	
1367	0	32800	32770	
1368	0	32820	32746	
1369	0	32780	32830	
1370	0	32854	32866	
1371	0	32800	32766	
1372	0	32784	32764	
1373	0	32832	32767	
1374	0	32764	32775	
1375	0	32780	32724	
1376	0	32760	32796	
1377	0	32868	32710	
1378	0	32848	32788	
1379	0	32766	32708	
1380	0	32822	32814	
1381	0	32738	32735	
1382	0	32864	32871	
1383	0	32786	32692	
1384	0	32864	32816	
1385	0	32802	32762	
1386	0	32844	32732	
1387	0	32804	32799	
1388	0	32810	32775	
1389	0	32778	32852	
1390	0	32828	32664	
1391	0	32820	32770	
1392	0	32832	32830	
1393	0	32836	32680	
1394	0	32760	32876	
1395	0	32820	32758	
1396	0	32752	32736	
1397	0	32868	32655	
1398	0	32846	32908	
1399	0	32804	32750	
1400	0	32828	32798	
1401	0	32868	32727	
1402	0	32852	32726	
1403	0	32780	32748	
1404	0	32804	32798	
1405	0	32860	32865	
1406	0	32792	32734	
1407	0	32798	32828	
1408	0	32834	32742	
1409	0	32778	32772	
1410	0	32792	32674	
1411	0	32868	32807	
1412	0	32810	32767	
1413	0	32796	32762	
1414	0	32780	32738	
1415	0	32846	32822	
1416	0	32852	32726	
1417	0	32772	32670	
1418	0	32820	32742	
1419	0	32852	32822	
1420	0	32760	32814	
1421	0	32784	32646	
1422	0	32780	32804	
1423	0	32808	32812	
1424	0	32784	32671	
1425	0	32780	32791	
1426	0	32814	32775	
1427	0	32836	32791	
1428	0	32793	32750	
1429	0	32800	32775	
1430	0	32840	32766	
1431	0	32864	32839	
1432	0	32768	32714	
1433	0	32768	32784	
1434	0	32808	32800	
1435	0	32868	32759	
1436	0	32804	32750	
1437	0	32835	32752	
1438	0	32794	32850	
1439	0	32810	32816	
1440	0	32836	32774	
1441	0	32792	32702	
1442	0	32792	32726	
1443	0	32764	32804	
1444	0	32860	32816	
1445	0	32780	32836	
1446	0	32832	32838	
1447	0	32812	32728	
1448	0	32768	32728	
1449	0	32804	32811	
1450	0	32856	32666	
1451	0	32864	32727	
1452	0	32774	32846	
1453	0	32828	32754	
1454	0	32872	32721	
1455	0	32804	32852	
1456	0	32804	32820	
1457	0	32792	32714	
1458	0	32884	32687	
1459	0	32854	32764	
1460	0	32748	32698	
1461	0	32844	32834	
1462	0	32798	32680	
1463	0	32800	32708	
1464	0	32832	32714	
1465	0	32864	32796	
1466	0	32792	32679	
1467	0	32816	32806	
1468	0	32824	32724	
1469	0	32780	32871	
1470	0	32756	32752	
1471	0	32804	32686	
1472	0	32792	32802	
1473	0	32804	32734	
1474	0	32852	32650	
1475	0	32788	32689	
1476	0	32791	32820	
1477	0	32848	32740	
1478	0	32852	32823	
1479	0	32876	32668	
1480	0	32776	32832	
1481	0	32844	32830	
1482	0	32812	32824	
1483	0	32794	32708	
1484	0	32812	32684	
1485	0	32820	32812	
1486	0	32913	32796	
1487	0	32828	32775	
1488	0	32864	32772	
1489	0	32800	32832	
1490	0	32830	32769	
1491	0	32822	32796	
1492	0	32800	32775	
1493	0	32804	32753	
1494	0	32824	32824	
1495	0	32816	32803	
1496	0	32804	32738	
1497	0	32712	32862	
1498	0	32708	32770	
1499	0	32828	32938	
1500	0	32824	32735	
1501	0	32798	32796	
1502	0	32775	32740	
1503	0	32828	32740	
1504	0	32808	32655	
1505	0	32844	32722	
1506	0	32800	32788	
1507	0	32816	32724	
1508	0	32792	32684	
1509	0	32820	32756	
1510	0	32812	32790	
1511	0	32824	32871	
1512	0	32809	32690	
1513	0	32746	32868	
1514	0	32884	32684	
1515	0	32812	32839	
1516	0	32824	32804	
1517	0	32752	32743	
1518	0	32868	32820	
1519	0	32832	32774	
1520	0	32810	32836	
1521	0	32812	32704	
1522	0	32840	32756	
1523	0	32800	32879	
1524	0	32758	32814	
1525	0	32776	32775	
1526	0	32818	32724	
1527	0	32788	32826	
1528	0	32848	32724	
1529	0	32838	32847	
1530	0	32790	32792	
1531	0	32816	32887	
1532	0	32872	32816	
1533	0	32904	32802	
1534	0	32748	32732	
1535	0	32788	32831	
1536	0	32776	32824	
1537	0	32782	32773	
1538	0	32828	32717	
1539	0	32758	32848	
1540	0	32732	32764	
1541	0	32824	32678	
1542	0	32854	32734	
1543	0	32844	32804	
1544	0	32740	32662	
1545	0	32780	32823	
1546	0	32800	32663	
1547	0	32764	32814	
1548	0	32788	32748	
1549	0	32830	32716	
1550	0	32892	32742	
1551	0	32796	32775	
1552	0	32878	32806	
1553	0	32752	32738	
1554	0	32816	32770	
1555	0	32808	32743	
1556	0	32780	32846	
1557	0	32812	32678	
1558	0	32748	32863	
1559	0	32772	32836	
1560	0	32860	32738	
1561	0	32846	32775	
1562	0	32876	32719	
1563	0	32812	32743	
1564	0	32816	32674	
1565	0	32804	32838	
1566	0	32824	32775	
1567	0	32760	32676	
1568	0	32756	32775	
1569	0	32836	32784	
1570	0	32788	32738	
1571	0	32800	32724	
1572	0	32844	32742	
1573	0	32798	32798	
1574	0	32812	32638	
1575	0	32820	32766	
1576	0	32884	32822	
1577	0	32784	32753	
1578	0	32802	32641	
1579	0	32768	32676	
1580	0	32904	32756	
1581	0	32842	32903	
1582	0	32868	32720	
1583	0	32836	32716	
1584	0	32826	32796	
1585	0	32784	32712	
1586	0	32756	32726	
1587	0	32848	32876	
1588	0	32808	32756	
1589	0	32721	32770	
1590	0	32794	32790	
1591	0	32800	32766	
1592	0	32774	32665	
1593	0	32764	32775	
1594	0	32816	32775	
1595	0	32913	32761	
1596	0	32860	32768	
1597	0	32846	32775	
1598	0	32800	32774	
1599	0	32856	32743	
1600	0	32808	32811	
1601	0	32856	32838	
1602	0	32840	32719	
1603	0	32844	32739	
1604	0	32752	32762	
1605	0	32880	32838	
1606	0	32818	32693	
1607	0	32837	32750	
1608	0	32814	32840	
1609	0	32796	32732	
1610	0	32816	32822	
1611	0	32800	32738	
1612	0	32838	32725	
1613	0	32774	32636	
1614	0	32760	32874	
1615	0	32804	32775	
1616	0	32832	32694	
1617	0	32812	32788	
1618	0	32784	32742	
1619	0	32800	32812	
1620	0	32828	32716	
1621	0	32860	32766	
1622	0	32804	32742	
1623	0	32834	32871	
1624	0	32808	32740	
1625	0	32838	32766	
1626	0	32796	32740	
1627	0	32836	32630	
1628	0	32806	32750	
1629	0	32788	32831	
1630	0	32786	32871	
1631	0	32756	32738	
1632	0	32834	32830	
1633	0	32844	32750	
1634	0	32768	32790	
1635	0	32806	32695	
1636	0	32784	32896	
1637	0	32748	32738	
1638	0	32792	32736	
1639	0	32832	32902	
1640	0	32776	32720	
1641	0	32772	32702	
1642	0	32810	32782	
1643	0	32864	32694	
1644	0	32860	32743	
1645	0	32774	32686	
1646	0	32800	32759	
1647	0	32780	32791	
1648	0	32760	32812	
1649	0	32814	32743	
1650	0	32886	32790	
1651	0	32804	32790	
1652	0	32780	32784	
1653	0	32862	32800	
1654	0	32800	32768	
1655	0	32800	32806	
1656	0	32826	32788	
1657	0	32772	32743	
1658	0	32814	32724	
1659	0	32828	32734	
1660	0	32800	32770	
1661	0	32830	32816	
1662	0	32752	32720	
1663	0	32814	32856	
1664	0	32784	32800	
1665	0	32840	32764	
1666	0	32816	32775	
1667	0	32860	32767	
1668	0	32832	32624	
1669	0	32724	32775	
1670	0	32794	32768	
1671	0	32868	32725	
1672	0	32816	32738	
1673	0	32820	32846	
1674	0	32848	32714	
1675	0	32796	32792	
1676	0	32800	32852	
1677	0	32854	32634	
1678	0	32768	32814	
1679	0	32820	32750	
1680	0	32828	32672	
1681	0	32762	32785	
1682	0	32830	32840	
1683	0	32822	32748	
1684	0	32830	32775	
1685	0	32836	32711	
1686	0	32814	32774	
1687	0	32820	32743	
1688	0	32780	32785	
1689	0	32812	32848	
1690	0	32828	32793	
1691	0	32804	32810	
1692	0	32756	32702	
1693	0	32844	32772	
1694	0	32784	32738	
1695	0	32828	32647	
1696	0	32808	32832	
1697	0	32834	32799	
1698	0	32782	32730	
1699	0	32870	32927	
1700	0	32832	32752	
1701	0	32804	32719	
1702	0	32862	32844	
1703	0	32822	32846	
1704	0	32840	32634	
1705	0	32804	32888	
1706	0	32872	32812	
1707	0	32844	32746	
1708	0	32820	32846	
1709	0	32848	32724	
1710	0	32788	32684	
1711	0	32774	32743	
1712	0	32752	32806	
1713	0	32772	32716	
1714	0	32776	32666	
1715	0	32788	32794	
1716	0	32804	32764	
1717	0	32812	32674	
1718	0	32792	32804	
1719	0	32756	32871	
1720	0	32802	32722	
1721	0	32796	32826	
1722	0	32836	32758	
1723	0	32886	32710	
1724	0	32854	32743	
1725	0	32828	32764	
1726	0	32766	32764	
1727	0	32822	32754	
1728	0	32758	32867	
1729	0	32826	32714	
1730	0	32768	32839	
1731	0	32860	32681	
1732	0	32775	32726	
1733	0	32832	32836	
1734	0	32804	32640	
1735	0	32816	32820	
1736	0	32744	32702	
1737	0	32844	32746	
1738	0	32836	32850	
1739	0	32852	32792	
1740	0	32862	32732	
1741	0	32776	32822	
1742	0	32824	32823	
1743	0	32793	32628	
1744	0	32780	32738	
1745	0	32849	32725	
1746	0	32796	32767	
1747	0	32788	32758	
1748	0	32820	32820	
1749	0	32770	32850	
1750	0	32764	32731	
1751	0	32810	32847	
1752	0	32804	32720	
1753	0	32804	32692	
1754	0	32822	32772	
1755	0	32876	32790	
1756	0	32830	32690	
1757	0	32804	32712	
1758	0	32804	32758	
1759	0	32754	32806	
1760	0	32804	32775	
1761	0	32788	32788	
1762	0	32840	32756	
1763	0	32784	32724	
1764	0	32808	32798	
1765	0	32838	32666	
1766	0	32796	32768	
1767	0	32868	32854	
1768	0	32810	32826	
1769	0	32792	32840	
1770	0	32768	32820	
1771	0	32790	32721	
1772	0	32816	32750	
1773	0	32792	32750	
1774	0	32768	32714	
1775	0	32740	32696	
1776	0	32724	32761	
1777	0	32790	32860	
1778	0	32772	32724	
1779	0	32788	32804	
1780	0	32844	32768	
1781	0	32796	32704	
1782	0	32776	32744	
1783	0	32772	32636	
1784	0	32796	32815	
1785	0	32834	32831	
1786	0	32792	32775	
1787	0	32724	32855	
1788	0	32788	32782	
1789	0	32908	32754	
1790	0	32806	32847	
1791	0	32816	32794	
1792	0	32788	32775	
1793	0	32804	32742	
1794	0	32848	32828	
1795	0	32838	32684	
1796	0	32788	32807	
1797	0	32816	32726	
1798	0	32798	32774	
1799	0	32798	32696	
1800	0	32808	32770	
1801	0	32834	32839	
1802	0	32836	32735	
1803	0	32836	32844	
1804	0	32838	32748	
1805	0	32860	32702	
1806	0	32798	32847	
1807	0	32898	32792	
1808	0	32768	32740	
1809	0	32844	32788	
1810	0	32788	32775	
1811	0	32710	32871	
1812	0	32840	32698	
1813	0	32799	32734	
1814	0	32854	32751	
1815	0	32844	32664	
1816	0	32774	32756	
1817	0	32856	32792	
1818	0	32756	32708	
1819	0	32838	32734	
1820	0	32820	32770	
1821	0	32828	32711	
1822	0	32832	32762	
1823	0	32828	32807	
1824	0	32840	32740	
1825	0	32872	32836	
1826	0	32900	32813	
1827	0	32826	32724	
1828	0	32806	32766	
1829	0	32814	32752	
1830	0	32832	32772	
1831	0	32780	32711	
1832	0	32749	32662	
1833	0	32768	32938	
1834	0	32842	32844	
1835	0	32748	32660	
1836	0	32748	32718	
1837	0	32828	32686	
1838	0	32826	32838	
1839	0	32816	32788	
1840	0	32772	32694	
1841	0	32760	32874	
1842	0	32792	32767	
1843	0	32764	32657	
1844	0	32784	32839	
1845	0	32784	32786	
1846	0	32840	32716	
1847	0	32770	32884	
1848	0	32828	32775	
1849	0	32728	32702	
1850	0	32808	32794	
1851	0	32844	32775	
1852	0	32866	32684	
1853	0	32780	32732	
1854	0	32826	32742	
1855	0	32820	32692	
1856	0	32800	32876	
1857	0	32772	32766	
1858	0	32794	32793	
1859	0	32826	32788	
1860	0	32812	32785	
1861	0	32727	32794	
1862	0	32808	32679	
1863	0	32844	32792	
1864	0	32824	32788	
1865	0	32824	32774	
1866	0	32890	32753	
1867	0	32826	32794	
1868	0	32892	32710	
1869	0	32892	32668	
1870	0	32856	32767	
1871	0	32872	32620	
1872	0	32884	32663	
1873	0	32854	32668	
1874	0	32907	32628	
1875	0	32894	32653	
1876	0	32908	32666	
1877	0	32976	32562	
1878	0	32976	32670	
1879	0	32980	32707	
1880	0	32972	32575	
1881	0	32966	32647	
1882	0	32952	32634	
1883	0	32912	32618	
1884	0	32936	32714	
1885	0	32892	32742	
1886	0	32872	32712	
1887	0	32876	32705	
1888	0	32896	32788	
1889	0	32824	32910	
1890	0	32712	32930	
1891	0	32562	32980	
1892	0	32572	33031	
1893	0	32492	33094	
1894	0	32392	33122	
1895	0	32376	33232	
1896	0	32260	33306	
1897	0	32248	33535	
1898	0	32400	33346	
1899	0	32538	33156	
1900	0	32656	32854	
1901	0	32804	32838	
1902	0	32836	32894	
1903	0	32796	32934	
1904	0	32802	32768	
1905	0	32828	32838	
1906	0	32876	32804	
1907	0	32846	32684	
1908	0	32840	32618	
1909	0	32872	32690	
1910	0	32922	32559	
1911	0	32984	32516	
1912	0	33028	32412	
1913	0	32982	32472	
1914	0	32948	32474	
1915	0	32916	32560	
1916	0	32934	32592	
1917	0	32936	32562	
1918	0	32880	32687	
1919	0	32892	32703	
1920	0	32900	32646	
1921	0	32844	32624	
1922	0	32864	32609	
1923	0	32901	32712	
1924	0	32792	32718	
1925	0	32876	32756	
1926	0	32848	32676	
1927	0	32860	32764	
1928	0	32890	32760	
1929	0	32900	32744	
1930	0	32884	32720	
1931	0	32864	32802	
1932	0	32804	32810	
1933	0	32762	32855	
1934	0	32792	32736	
1935	0	32836	32791	
1936	0	32772	32852	
1937	0	32824	32818	
1938	0	32802	32702	
1939	0	32748	32727	
1940	0	32838	32756	
1941	0	32782	32886	
1942	0	32736	32743	
1943	0	32784	32791	
1944	0	32774	32760	
1945	0	32836	32841	
1946	0	32904	32743	
1947	0	32824	32858	
1948	0	32784	32791	
1949	0	32778	32866	
1950	0	32740	32738	
1951	0	32804	32844	
1952	0	32808	32840	
1953	0	32788	32836	
1954	0	32756	32703	
1955	0	32760	32748	
1956	0	32832	32775	
1957	0	32844	32766	
1958	0	32808	32748	
1959	0	32792	32788	
1960	0	32823	32800	
1961	0	32860	32844	
1962	0	32824	32692	
1963	0	32830	32862	
1964	0	32846	32841	
1965	0	32752	32852	
1966	0	32832	32692	
1967	0	32812	32820	
1968	0	32752	32810	
1969	0	32748	32855	
1970	0	32812	32636	
1971	0	32820	32775	
1972	0	32805	32772	
1973	0	32832	32743	
1974	0	32760	32766	
1975	0	32684	32825	
1976	0	32858	32772	
1977	0	32828	32718	
1978	0	32860	32732	
1979	0	32822	32736	
1980	0	32846	32750	
1981	0	32762	32720	
1982	0	32812	32734	
1983	0	32820	32748	
1984	0	32838	32871	
1985	0	32808	32730	
1986	0	32844	32800	
1987	0	32824	32739	
1988	0	32800	32792	
1989	0	32824	32718	
1990	0	32816	32719	
1991	0	32836	32924	
1992	0	32824	32768	
1993	0	32802	32736	
1994	0	32788	32738	
1995	0	32828	32810	
1996	0	32794	32775	
1997	0	32790	32844	
1998	0	32788	32719	
1999	0	32772	32775	
2000	0	32820	32772	
2001	0	32740	32772	
2002	0	32826	32800	
2003	0	32780	32800	
2004	0	32775	32737	
2005	0	32808	32772	
2006	0	32808	32834	
2007	0	32836	32793	
2008	0	32806	32775	
2009	0	32778	32824	
2010	0	32792	32673	
2011	0	32820	32756	
2012	0	32788	32708	
2013	0	32812	32886	
2014	0	32824	32766	
2015	0	32734	32775	
2016	0	32824	32888	
2017	0	32860	32710	
2018	0	32852	32675	
2019	0	32772	32724	
2020	0	32884	32760	
2021	0	32872	32775	
2022	0	32820	32716	
2023	0	32800	32810	
2024	0	32836	32682	
2025	0	32814	32798	
2026	0	32824	32826	
2027	0	32778	32668	
2028	0	32804	32726	
2029	0	32808	32820	
2030	0	32780	32792	
2031	0	32804	32718	
2032	0	32776	32718	
2033	0	32780	32692	
2034	0	32760	32774	
2035	0	32856	32774	
2036	0	32810	32900	
2037	0	32782	32735	
2038	0	32856	32754	
2039	0	32788	32774	
2040	0	32828	32806	
2041	0	32824	32836	
2042	0	32872	32800	
2043	0	32916	32708	
2044	0	32772	32679	
2045	0	32820	32736	
2046	0	32786	32806	
2047	0	32750	32720	
2048	0	32776	32750	
2049	0	32828	32833	
2050	0	32780	32775	
2051	0	32814	32716	
2052	0	32860	32727	
2053	0	32852	32724	
2054	0	32840	32775	
2055	0	32844	32740	
2056	0	32800	32796	
2057	0	32782	32708	
2058	0	32916	32680	
2059	0	32764	32850	
2060	0	32802	32775	
2061	0	32820	32800	
2062	0	32796	32654	
2063	0	32864	32854	
2064	0	32822	32750	
2065	0	32872	32809	
2066	0	32780	32712	
2067	0	32806	32796	
2068	0	32806	32775	
2069	0	32760	32672	
2070	0	32846	32758	
2071	0	32796	32800	
2072	0	32820	32764	
2073	0	32762	32736	
2074	0	32853	32732	
2075	0	32808	32792	
2076	0	32800	32811	
2077	0	32786	32726	
2078	0	32740	32844	
2079	0	32820	32775	
2080	0	32820	32684	
2081	0	32824	32740	
2082	0	32830	32788	
2083	0	32756	32806	
2084	0	32736	32722	
2085	0	32774	32680	
2086	0	32856	32825	
2087	0	32796	32790	
2088	0	32800	32876	
2089	0	32812	32647	
2090	0	32822	32806	
2091	0	32852	32764	
2092	0	32872	32774	
2093	0	32820	32676	
2094	0	32806	32789	
2095	0	32798	32760	
2096	0	32798	32734	
2097	0	32808	32676	
2098	0	32840	32831	
2099	0	32837	32740	
2100	0	32836	32804	
2101	0	32824	32730	
2102	0	32848	32863	
2103	0	32788	32818	
2104	0	32832	32702	
2105	0	32832	32775	
2106	0	32825	32794	
2107	0	32762	32786	
2108	0	32816	32722	
2109	0	32842	32820	
2110	0	32856	32788	
2111	0	32824	32716	
2112	0	32836	32714	
2113	0	32834	32798	
2114	0	32854	32686	
2115	0	32800	32791	
2116	0	32812	32812	
2117	0	32822	32838	
2118	0	32868	32632	
2119	0	32804	32846	
2120	0	32822	32775	
2121	0	32868	32884	
2122	0	32836	32736	
2123	0	32848	32726	
2124	0	32804	32822	
2125	0	32772	32738	
2126	0	32856	32683	
2127	0	32756	32806	
2128	0	32800	32838	
2129	0	32768	32820	
2130	0	32804	32866	
2131	0	32824	32770	
2132	0	32822	32730	
2133	0	32820	32764	
2134	0	32832	32752	
2135	0	32800	32718	
2136	0	32836	32746	
2137	0	32820	32807	
2138	0	32800	32822	
2139	0	32776	32750	
2140	0	32832	32842	
2141	0	32778	32844	
2142	0	32788	32794	
2143	0	32696	32774	
2144	0	32796	32676	
2145	0	32856	32854	
2146	0	32788	32846	
2147	0	32808	32894	
2148	0	32866	32676	
2149	0	32764	32734	
2150	0	32808	32844	
2151	0	32816	32788	
2152	0	32808	32737	
2153	0	32801	32769	
2154	0	32764	32724	
2155	0	32724	32686	
2156	0	32750	32804	
2157	0	32828	32747	
2158	0	32885	32743	
2159	0	32820	32754	
2160	0	32760	32692	
2161	0	32830	32822	
2162	0	32828	32716	
2163	0	32826	32872	
2164	0	32732	32754	
2165	0	32832	32796	
2166	0	32833	32828	
2167	0	32792	32770	
2168	0	32852	32756	
2169	0	32708	32806	
2170	0	32760	32804	
2171	0	32794	32806	
2172	0	32856	32711	
2173	0	32864	32798	
2174	0	32832	32756	
2175	0	32812	32860	
2176	0	32762	32679	
2177	0	32816	32828	
2178	0	32808	32732	
2179	0	32792	32684	
2180	0	32810	32784	
2181	0	32824	32871	
2182	0	32746	32724	
2183	0	32820	32706	
2184	0	32756	32775	
2185	0	32744	32775	
2186	0	32844	32798	
2187	0	32864	32684	
2188	0	32849	32788	
2189	0	32802	32754	
2190	0	32788	32853	
2191	0	32776	32710	
2192	0	32806	32791	
2193	0	32789	32838	
2194	0	32844	32812	
2195	0	32820	32748	
2196	0	32807	32820	
2197	0	32852	32775	
2198	0	32802	32748	
2199	0	32740	32801	
2200	0	32828	32742	
2201	0	32756	32708	
2202	0	32816	32820	
2203	0	32820	32815	
2204	0	32840	32708	
2205	0	32760	32812	
2206	0	32804	32817	
2207	0	32820	32654	
2208	0	32912	32746	
2209	0	32802	32756	
2210	0	32834	32752	
2211	0	32836	32870	
2212	0	32750	32775	
2213	0	32820	32682	
2214	0	32804	32775	
2215	0	32820	32747	
2216	0	32788	32694	
2217	0	32792	32792	
2218	0	32808	32839	
2219	0	32860	32740	
2220	0	32804	32808	
2221	0	32804	32810	
2222	0	32834	32750	
2223	0	32773	32806	
2224	0	32796	32720	
2225	0	32808	32752	
2226	0	32820	32775	
2227	0	32756	32620	
2228	0	32772	32775	
2229	0	32796	32794	
2230	0	32782	32720	
2231	0	32717	32820	
2232	0	32768	32862	
2233	0	32772	32616	
2234	0	32858	32811	
2235	0	32842	32790	
2236	0	32836	32700	
2237	0	32832	32821	
2238	0	32812	32727	
2239	0	32768	32628	
2240	0	32828	32832	
2241	0	32834	32806	
2242	0	32846	32703	
2243	0	32814	32858	
2244	0	32900	32800	
2245	0	32836	32738	
2246	0	32792	32767	
2247	0	32872	32714	
2248	0	32788	32721	
2249	0	32864	32775	
2250	0	32825	32758	
2251	0	32768	32705	
2252	0	32840	32764	
2253	0	32800	32769	
2254	0	32836	32760	
2255	0	32820	32844	
2256	0	32756	32744	
2257	0	32808	32812	
2258	0	32844	32610	
2259	0	32796	32833	
2260	0	32772	32804	
2261	0	32842	32814	
2262	0	32784	32618	
2263	0	32824	32782	
2264	0	32772	32720	
2265	0	32848	32726	
2266	0	32806	32772	
2267	0	32792	32703	
2268	0	32828	32775	
2269	0	32820	32679	
2270	0	32838	32727	
2271	0	32828	32744	
2272	0	32850	32798	
2273	0	32756	32695	
2274	0	32856	32823	
2275	0	32818	32807	
2276	0	32812	32669	
2277	0	32832	32775	
2278	0	32764	32796	
2279	0	32796	32654	
2280	0	32840	32761	
2281	0	32838	32860	
2282	0	32830	32704	
2283	0	32792	32884	
2284	0	32914	32846	
2285	0	32878	32758	
2286	0	32756	32800	
2287	0	32832	32759	
2288	0	32800	32798	
2289	0	32828	32678	
2290	0	32824	32743	
2291	0	32768	32738	
2292	0	32836	32724	
2293	0	32830	32730	
2294	0	32852	32743	
2295	0	32784	32858	
2296	0	32754	32766	
2297	0	32852	32762	
2298	0	32792	32775	
2299	0	32808	32775	
2300	0	32760	32762	
2301	0	32732	32828	
2302	0	32796	32823	
2303	0	32812	32839	
2304	0	32748	32628	
2305	0	32774	32804	
2306	0	32744	32814	
2307	0	32772	32647	
2308	0	32852	32806	
2309	0	32902	32772	
2310	0	32884	32818	
2311	0	32774	32756	
2312	0	32824	32772	
2313	0	32816	32790	
2314	0	32792	32660	
2315	0	32814	32798	
2316	0	32752	32766	
2317	0	32868	32718	
2318	0	32856	32775	
2319	0	32784	32770	
2320	0	32864	32830	
2321	0	32822	32664	
2322	0	32836	32848	
2323	0	32784	32775	
2324	0	32818	32804	
2325	0	32849	32680	
2326	0	32800	32836	
2327	0	32788	32828	
2328	0	32848	32711	
2329	0	32832	32760	
2330	0	32828	32790	
2331	0	32800	32718	
2332	0	32801	32700	
2333	0	32804	32839	
2334	0	32798	32840	
2335	0	32810	32694	
2336	0	32832	32767	
2337	0	32776	32689	
2338	0	32760	32799	
2339	0	32824	32822	
2340	0	32830	32702	
2341	0	32792	32809	
2342	0	32744	32820	
2343	0	32800	32681	
2344	0	32780	32718	
2345	0	32872	32802	
2346	0	32816	32868	
2347	0	32863	32708	
2348	0	32796	32802	
2349	0	32786	32808	
2350	0	32764	32801	
2351	0	32796	32742	
2352	0	32740	32823	
2353	0	32774	32756	
2354	0	32820	32700	
2355	0	32796	32810	
2356	0	32868	32754	
2357	0	32801	32697	
2358	0	32836	32708	
2359	0	32762	32698	
2360	0	32778	32819	
2361	0	32804	32836	
2362	0	32814	32774	
2363	0	32804	32800	
2364	0	32798	32799	
2365	0	32804	32756	
2366	0	32753	32775	
2367	0	32844	32852	
2368	0	32880	32812	
2369	0	32880	32702	
2370	0	32790	32670	
2371	0	32722	32841	
2372	0	32788	32743	
2373	0	32780	32760	
2374	0	32780	32698	
2375	0	32800	32838	
2376	0	32742	32821	
2377	0	32780	32823	
2378	0	32748	32716	
2379	0	32773	32871	
2380	0	32756	32752	
2381	0	32766	32730	
2382	0	32886	32790	
2383	0	32770	32831	
2384	0	32868	32752	
2385	0	32853	32792	
2386	0	32914	32767	
2387	0	32852	32732	
2388	0	32824	32654	
2389	0	32862	32766	
2390	0	32824	32825	
2391	0	32852	32686	
2392	0	32854	32855	
2393	0	32854	32802	
2394	0	32784	32727	
2395	0	32828	32710	
2396	0	32852	32684	
2397	0	32778	32723	
2398	0	32856	32740	
2399	0	32832	32775	
2400	0	32846	32740	
2401	0	32816	32807	
2402	0	32818	32806	
2403	0	32760	32766	
2404	0	32840	32839	
2405	0	32876	32766	
2406	0	32834	32711	
2407	0	32840	32750	
2408	0	32840	32756	
2409	0	32816	32784	
2410	0	32824	32816	
2411	0	32832	32775	
2412	0	32836	32715	
2413	0	32812	32750	
2414	0	32830	32760	
2415	0	32812	32807	
2416	0	32800	32756	
2417	0	32796	32758	
2418	0	32858	32821	
2419	0	32784	32716	
2420	0	32822	32824	
2421	0	32844	32759	
2422	0	32848	32748	
2423	0	32808	32775	
2424	0	32852	32775	
2425	0	32846	32762	
2426	0	32810	32668	
2427	0	32788	32775	
2428	0	32834	32775	
2429	0	32764	32700	
2430	0	32756	32854	
2431	0	32800	32748	
2432	0	32776	32808	
2433	0	32830	32723	
2434	0	32718	32783	
2435	0	32714	32751	
2436	0	32748	32715	
2437	0	32816	32716	
2438	0	32810	32806	
2439	0	32812	32844	
2440	0	32898	32750	
2441	0	32894	32848	
2442	0	32836	32728	
2443	0	32760	32814	
2444	0	32866	32764	
2445	0	32804	32815	
2446	0	32916	32844	
2447	0	32846	32704	
2448	0	32816	32849	
2449	0	32868	32711	
2450	0	32796	32807	
2451	0	32850	32696	
2452	0	32814	32839	
2453	0	32826	32732	
2454	0	32836	32822	
2455	0	32788	32774	
2456	0	32840	32708	
2457	0	32872	32746	
2458	0	32804	32712	
2459	0	32800	32892	
2460	0	32730	32744	
2461	0	32766	32771	
2462	0	32792	32710	
2463	0	32790	32728	
2464	0	32818	32774	
2465	0	32706	32772	
2466	0	32804	32647	
2467	0	32784	32853	
2468	0	32824	32766	
2469	0	32800	32816	
2470	0	32828	32740	
2471	0	32796	32807	
2472	0	32736	32701	
2473	0	32848	32748	
2474	0	32696	32712	
2475	0	32812	32798	
2476	0	32730	32740	
2477	0	32764	32646	
2478	0	32840	32744	
2479	0	32858	32770	
2480	0	32810	32744	
2481	0	32790	32712	
2482	0	32812	32800	
2483	0	32810	32825	
2484	0	32852	32836	
2485	0	32828	32686	
2486	0	32838	32812	
2487	0	32846	32866	
2488	0	32866	32743	
2489	0	32784	32831	
2490	0	32794	32832	
2491	0	32756	32672	
2492	0	32800	32821	
2493	0	32812	32714	
2494	0	32836	32772	
2495	0	32828	32742	
2496	0	32801	32788	
2497	0	32804	32770	
2498	0	32808	32836	
2499	0	32784	32647	
2500	0	32828	32782	
2501	0	32748	32822	
2502	0	32844	32816	
2503	0	32796	32615	
2504	0	32840	32839	
2505	0	32810	32766	
2506	0	32848	32806	
2507	0	32804	32739	
2508	0	32796	32798	
2509	0	32774	32854	
2510	0	32848	32756	
2511	0	32796	32775	
2512	0	32854	32740	
2513	0	32872	32788	
2514	0	32828	32692	
2515	0	32916	32794	
2516	0	32810	32796	
2517	0	32800	32742	
2518	0	32820	32848	
2519	0	32798	32807	
2520	0	32860	32792	
2521	0	32748	32755	
2522	0	32820	32706	
2523	0	32856	32852	
2524	0	32784	32727	
2525	0	32810	32860	
2526	0	32776	32804	
2527	0	32836	32734	
2528	0	32732	32814	
2529	0	32788	32806	
2530	0	32784	32720	
2531	0	32786	32748	
2532	0	32812	32838	
2533	0	32804	32692	
2534	0	32800	32836	
2535	0	32884	32770	
2536	0	32820	32698	
2537	0	32822	32750	
2538	0	32772	32766	
2539	0	32812	32700	
2540	0	32810	32900	
2541	0	32832	32812	
2542	0	32781	32689	
2543	0	32816	32826	
2544	0	32828	32788	
2545	0	32860	32752	
2546	0	32808	32816	
2547	0	32816	32814	
2548	0	32772	32730	
2549	0	32832	32736	
2550	0	32760	32807	
2551	0	32700	32753	
2552	0	32736	32814	
2553	0	32726	32748	
2554	0	32752	32758	
2555	0	32810	32790	
2556	0	32828	32796	
2557	0	32730	32674	
2558	0	32886	32760	
2559	0	32960	32838	
2560	0	32924	32736	
2561	0	32988	32814	
2562	0	32892	32756	
2563	0	32878	32789	
2564	0	32876	32716	
2565	0	32818	32807	
2566	0	32792	32702	
2567	0	32785	32806	
2568	0	32752	32750	
2569	0	32776	32742	
2570	0	32710	32812	
2571	0	32764	32798	
2572	0	32852	32790	
2573	0	32832	32673	
2574	0	32830	32806	
2575	0	32806	32756	
2576	0	32748	32815	
2577	0	32788	32702	
2578	0	32796	32782	
2579	0	32764	32775	
2580	0	32774	32738	
2581	0	32888	32750	
2582	0	32816	32847	
2583	0	32788	32835	
2584	0	32808	32784	
2585	0	32778	32692	
2586	0	32788	32664	
2587	0	32804	32789	
2588	0	32884	32810	
2589	0	32844	32734	
2590	0	32752	32804	
2591	0	32861	32772	
2592	0	32869	32808	
2593	0	32792	32775	
2594	0	32820	32745	
2595	0	32798	32807	
2596	0	32728	32772	
2597	0	32790	32766	
2598	0	32740	32766	
2599	0	32770	32736	
2600	0	32770	32844	
2601	0	32834	32812	
2602	0	32758	32748	
2603	0	32832	32823	
2604	0	32820	32756	
2605	0	32844	32722	
2606	0	32810	32706	
2607	0	32768	32844	
2608	0	32776	32708	
2609	0	32880	32819	
2610	0	32892	32716	
2611	0	32828	32688	
2612	0	32780	32736	
2613	0	32868	32726	
2614	0	32840	32750	
2615	0	32778	32632	
2616	0	32792	32775	
2617	0	32792	32756	
2618	0	32852	32786	
2619	0	32808	32684	
2620	0	32804	32775	
2621	0	32838	32846	
2622	0	32808	32814	
2623	0	32900	32735	
2624	0	32846	32708	
2625	0	32874	32774	
2626	0	32896	32810	
2627	0	32816	32788	
2628	0	32828	32788	
2629	0	32880	32806	
2630	0	32736	32775	
2631	0	32848	32738	
2632	0	32770	32775	
2633	0	32762	32804	
2634	0	32804	32647	
2635	0	32762	32767	
2636	0	32822	32768	
2637	0	32768	32740	
2638	0	32752	32652	
2639	0	32828	32807	
2640	0	32804	32790	
2641	0	32900	32815	
2642	0	32772	32728	
2643	0	32856	32868	
2644	0	32864	32775	
2645	0	32776	32735	
2646	0	32828	32700	
2647	0	32796	32775	
2648	0	32832	32719	
2649	0	32808	32856	
2650	0	32844	32756	
2651	0	32882	32852	
2652	0	32780	32767	
2653	0	32788	32816	
2654	0	32804	32676	
2655	0	32810	32800	
2656	0	32792	32772	
2657	0	32778	32700	
2658	0	32790	32750	
2659	0	32776	32738	
2660	0	32804	32826	
2661	0	32708	32758	
2662	0	32844	32692	
2663	0	32868	32732	
2664	0	32816	32716	
2665	0	32836	32784	
2666	0	32800	32764	
2667	0	32822	32728	
2668	0	32752	32824	
2669	0	32842	32716	
2670	0	32820	32811	
2671	0	32796	32740	
2672	0	32766	32820	
2673	0	32804	32660	
2674	0	32830	32895	
2675	0	32816	32736	
2676	0	32776	32750	
2677	0	32815	32682	
2678	0	32756	32800	
2679	0	32768	32786	
2680	0	32804	32748	
2681	0	32864	32796	
2682	0	32900	32736	
2683	0	32884	32736	
2684	0	32828	32796	
2685	0	32884	32756	
2686	0	32870	32830	
2687	0	32840	32636	
2688	0	32768	32798	
2689	0	32764	32798	
2690	0	32770	32775	
2691	0	32794	32758	
2692	0	32724	32681	
2693	0	32864	32819	
2694	0	32788	32799	
2695	0	32712	32702	
2696	0	32764	32772	
2697	0	32840	32817	
2698	0	32752	32790	
2699	0	32864	32719	
2700	0	32932	32730	
2701	0	32860	32870	
2702	0	32990	32775	
2703	0	32916	32849	
2704	0	32847	32719	
2705	0	32784	32719	
2706	0	32876	32816	
2707	0	32712	32750	
2708	0	32798	32892	
2709	0	32816	32742	
2710	0	32824	32775	
2711	0	32748	32854	
2712	0	32766	32858	
2713	0	32780	32690	
2714	0	32716	32831	
2715	0	32788	32808	
2716	0	32750	32764	
2717	0	32750	32687	
2718	0	32790	32767	
2719	0	32796	32804	
2720	0	32786	32726	
2721	0	32764	32630	
2722	0	32830	32798	
2723	0	32820	32759	
2724	0	32804	32734	
2725	0	32740	32820	
2726	0	32800	32852	
2727	0	32808	32726	
2728	0	32846	32834	
2729	0	32840	32736	
2730	0	32888	32730	
2731	0	32860	32668	
2732	0	32826	32903	
2733	0	32888	32766	
2734	0	32844	32682	
2735	0	32832	32831	
2736	0	32864	32748	
2737	0	32816	32700	
2738	0	32772	32716	
2739	0	32781	32760	
2740	0	32752	32774	
2741	0	32870	32720	
2742	0	32836	32839	
2743	0	32766	32754	
2744	0	32760	32699	
2745	0	32804	32858	
2746	0	32796	32775	
2747	0	32808	32674	
2748	0	32788	32828	
2749	0	32764	32784	
2750	0	32796	32720	
2751	0	32792	32772	
2752	0	32810	32794	
2753	0	32820	32734	
2754	0	32802	32748	
2755	0	32824	32810	
2756	0	32784	32686	
2757	0	32856	32775	
2758	0	32824	32704	
2759	0	32764	32858	
2760	0	32772	32736	
2761	0	32804	32832	
2762	0	32852	32790	
2763	0	32864	32766	
2764	0	32908	32720	
2765	0	32848	32732	
2766	0	32860	32760	
2767	0	32836	32676	
2768	0	32942	32732	
2769	0	32892	32795	
2770	0	32836	32818	
2771	0	32784	32702	
2772	0	32828	32792	
2773	0	32816	32743	
2774	0	32744	32818	
2775	0	32720	32714	
2776	0	32744	32823	
2777	0	32754	32794	
2778	0	32800	32716	
2779	0	32752	32648	
2780	0	32732	32812	
2781	0	32688	32871	
2782	0	32758	32708	
2783	0	32846	32764	
2784	0	32832	32771	
2785	0	32836	32801	
2786	0	32856	32857	
2787	0	32836	32726	
2788	0	32876	32682	
2789	0	32889	32862	
2790	0	32806	32758	
2791	0	32868	32734	
2792	0	32844	32696	
2793	0	32848	32696	
2794	0	32913	32804	
2795	0	32912	32716	
2796	0	32904	32564	
2797	0	32938	32696	
2798	0	32933	32647	
2799	0	32910	32582	
2800	0	32900	32590	
2801	0	32924	32630	
2802	0	32948	32561	
2803	0	33012	32546	
2804	0	32964	32695	
2805	0	32936	32630	
2806	0	32874	32743	
2807	0	32836	32646	
2808	0	32886	32775	
2809	0	32816	32703	
2810	0	32888	32758	
2811	0	32892	32718	
2812	0	32928	32775	
2813	0	32840	32860	
2814	0	32740	32775	
2815	0	32530	32961	
2816	0	32504	33118	
2817	0	32480	33044	
2818	0	32512	33031	
2819	0	32328	33232	
2820	0	32238	33312	
2821	0	32228	33526	
2822	0	32354	33348	
2823	0	32608	33167	
2824	0	32632	32908	
2825	0	32756	32838	
2826	0	32796	32896	
2827	0	32788	32850	
2828	0	32708	32816	
2829	0	32808	32775	
2830	0	32796	32766	
2831	0	32920	32634	
2832	0	32816	32676	
2833	0	32870	32588	
2834	0	32860	32494	
2835	0	32936	32472	
2836	0	32946	32568	
2837	0	32960	32488	
2838	0	32976	32516	
2839	0	32944	32479	
2840	0	32884	32614	
2841	0	32976	32684	
2842	0	32876	32556	
2843	0	32932	32730	
2844	0	32942	32694	
2845	0	32900	32604	
2846	0	32900	32647	
2847	0	32848	32711	
2848	0	32856	32722	
2849	0	32872	32647	
2850	0	32872	32758	
2851	0	32900	32784	
2852	0	32888	32616	
2853	0	32820	32826	
2854	0	32924	32834	
2855	0	32780	32654	
2856	0	32816	32814	
2857	0	32788	32767	
2858	0	32742	32814	
2859	0	32760	32694	
2860	0	32845	32738	
2861	0	32820	32756	
2862	0	32816	32796	
2863	0	32832	32720	
2864	0	32830	32839	
2865	0	32820	32846	
2866	0	32744	32742	
2867	0	32760	32760	
2868	0	32692	32728	
2869	0	32674	32830	
2870	0	32744	32735	
2871	0	32738	32766	
2872	0	32748	32775	
2873	0	32804	32758	
2874	0	32865	32844	
2875	0	32836	32793	
2876	0	32790	32732	
2877	0	32952	32844	
2878	0	32940	32771	
2879	0	32900	32887	
2880	0	32840	32704	
2881	0	32774	32862	
2882	0	32876	32828	
2883	0	32852	32766	
2884	0	32886	32870	
2885	0	32752	32824	
2886	0	32772	32868	
2887	0	32836	32720	
2888	0	32764	32746	
2889	0	32768	32839	
2890	0	32836	32645	
2891	0	32744	32847	
2892	0	32740	32832	
2893	0	32848	32704	
2894	0	32812	32791	
2895	0	32736	32839	
2896	0	32852	32758	
2897	0	32852	32705	
2898	0	32832	32718	
2899	0	32812	32778	
2900	0	32816	32824	
2901	0	32812	32636	
2902	0	32810	32863	
2903	0	32820	32730	
2904	0	32858	32839	
2905	0	32806	32757	
2906	0	32772	32774	
2907	0	32808	32750	
2908	0	32902	32805	
2909	0	32860	32703	
2910	0	32956	32800	
2911	0	32856	32825	
2912	0	32852	32826	
2913	0	32820	32832	
2914	0	32820	32692	
2915	0	32775	32765	
2916	0	32826	32750	
2917	0	32792	32847	
2918	0	32770	32679	
2919	0	32768	32823	
2920	0	32780	32826	
2921	0	32792	32820	
2922	0	32792	32715	
2923	0	32906	32774	
2924	0	32846	32775	
2925	0	32836	32823	
2926	0	32806	32748	
2927	0	32768	32772	
2928	0	32876	32852	
2929	0	32828	32710	
2930	0	32804	32836	
2931	0	32768	32794	
2932	0	32820	32702	
2933	0	32816	32728	
2934	0	32824	32796	
2935	0	32817	32775	
2936	0	32802	32764	
2937	0	32844	32712	
2938	0	32764	32592	
2939	0	32772	32694	
2940	0	32768	32740	
2941	0	32752	32871	
2942	0	32744	32724	
2943	0	32804	32750	
2944	0	32792	32775	
2945	0	32752	32794	
2946	0	32852	32679	
2947	0	32832	32884	
2948	0	32876	32806	
2949	0	32868	32799	
2950	0	32872	32710	
2951	0	32846	32767	
2952	0	32874	32708	
2953	0	32780	32708	
2954	0	32828	32766	
2955	0	32800	32740	
2956	0	32780	32694	
2957	0	32774	32684	
2958	0	32764	32764	
2959	0	32782	32772	
2960	0	32832	32724	
2961	0	32748	32866	
2962	0	32812	32762	
2963	0	32760	32742	
2964	0	32732	32743	
2965	0	32775	32753	
2966	0	32814	32783	
2967	0	32782	32742	
2968	0	32796	32824	
2969	0	32842	32884	
2970	0	32742	32844	
2971	0	32820	32598	
2972	0	32856	32822	
2973	0	32858	32807	
2974	0	32852	32656	
2975	0	32902	32752	
2976	0	32776	32742	
2977	0	32852	32770	
2978	0	32772	32700	
2979	0	32768	32748	
2980	0	32798	32775	
2981	0	32774	32695	
2982	0	32792	32764	
2983	0	32848	32854	
2984	0	32844	32794	
2985	0	32808	32688	
2986	0	32775	32816	
2987	0	32744	32841	
2988	0	32808	32798	
2989	0	32884	32725	
2990	0	32818	32775	
2991	0	32780	32814	
2992	0	32808	32714	
2993	0	32780	32820	
2994	0	32888	32810	
2995	0	32846	32741	
2996	0	32824	32734	
2997	0	32800	32798	
2998	0	32778	32794	
2999	0	32902	32874	
3000	0	32844	32676	
3001	0	32790	32728	
3002	0	32896	32798	
3003	0	32872	32839	
3004	0	32832	32775	
3005	0	32846	32824	
3006	0	32800	32719	
3007	0	32852	32704	
3008	0	32832	32704	
3009	0	32816	32810	
3010	0	32844	32775	
3011	0	32748	32775	
3012	0	32742	32769	
3013	0	32720	32783	
3014	0	32756	32871	
3015	0	32820	32711	
3016	0	32800	32734	
3017	0	32820	32804	
3018	0	32852	32647	
3019	0	32828	32764	
3020	0	32812	32748	
3021	0	32770	32708	
3022	0	32776	32724	
3023	0	32800	32881	
3024	0	32848	32752	
3025	0	32820	32811	
3026	0	32834	32804	
3027	0	32818	32644	
3028	0	32846	32775	
3029	0	32872	32840	
3030	0	32782	32746	
3031	0	32772	32742	
3032	0	32736	32828	
3033	0	32814	32742	
3034	0	32769	32954	
3035	0	32768	32696	
3036	0	32910	32723	
3037	0	32866	32756	
3038	0	32932	32670	
3039	0	32868	32795	
3040	0	32844	32775	
3041	0	32774	32739	
3042	0	32888	32704	
3043	0	32852	32775	
3044	0	32784	32870	
3045	0	32844	32707	
3046	0	32788	32826	
3047	0	32776	32812	
3048	0	32847	32810	
3049	0	32850	32728	
3050	0	32814	32862	
3051	0	32900	32698	
3052	0	32806	32794	
3053	0	32832	32695	
3054	0	32952	32726	
3055	0	32840	32802	
3056	0	32868	32820	
3057	0	32764	32800	
3058	0	32722	32692	
3059	0	32804	32669	
3060	0	32800	32760	
3061	0	32784	32729	
3062	0	32802	32754	
3063	0	32696	32650	
3064	0	32688	32788	
3065	0	32746	32766	
3066	0	32720	32729	
3067	0	32768	32646	
3068	0	32728	32769	
3069	0	32748	32792	
3070	0	32774	32822	
3071	0	32806	32758	
3072	0	32790	32748	
3073	0	32802	32852	
3074	0	32820	32768	
3075	0	32770	32932	
3076	0	32888	32768	
3077	0	32984	32788	
3078	0	32913	32772	
3079	0	32858	32746	
3080	0	32938	32788	
3081	0	32828	32775	
3082	0	32836	32740	
3083	0	32902	32740	
3084	0	32888	32852	
3085	0	32836	32846	
3086	0	32734	32708	
3087	0	32710	32775	
3088	0	32748	32775	
3089	0	32772	32710	
3090	0	32758	32713	
3091	0	32784	32822	
3092	0	32716	32816	
3093	0	32764	32702	
3094	0	32812	32760	
3095	0	32676	32736	
3096	0	32696	32694	
3097	0	32746	32718	
3098	0	32780	32742	
3099	0	32892	32772	
3100	0	32880	32854	
3101	0	32822	32812	
3102	0	32882	32834	
3103	0	32852	32726	
3104	0	32820	32804	
3105	0	32862	32704	
3106	0	32868	32889	
3107	0	32896	32692	
3108	0	32868	32801	
3109	0	32808	32684	
3110	0	32754	32668	
3111	0	32732	32732	
3112	0	32672	32810	
3113	0	32730	32814	
3114	0	32744	32704	
3115	0	32792	32775	
3116	0	32736	32878	
3117	0	32768	32679	
3118	0	32762	32768	
3119	0	32750	32710	
3120	0	32744	32775	
3121	0	32744	32802	
3122	0	32816	32834	
3123	0	32908	32816	
3124	0	32928	32662	
3125	0	32940	32730	
3126	0	32842	32848	
3127	0	32968	32794	
3128	0	32896	32749	
3129	0	32928	32722	
3130	0	32956	32732	
3131	0	32904	32775	
3132	0	32830	32684	
3133	0	32868	32746	
3134	0	32812	32878	
3135	0	32852	32808	
3136	0	32760	32878	
3137	0	32730	32692	
3138	0	32634	32762	
3139	0	32700	32708	
3140	0	32662	32634	
3141	0	32713	32802	
3142	0	32670	32823	
3143	0	32724	32724	
3144	0	32744	32806	
3145	0	32772	32824	
3146	0	32752	32718	
3147	0	32890	32850	
3148	0	32860	32800	
3149	0	32816	32758	
3150	0	32880	32612	
3151	0	32934	32804	
3152	0	32920	32826	
3153	0	32930	32849	
3154	0	33004	32770	
3155	0	32926	32800	
3156	0	32888	32702	
3157	0	32960	32692	
3158	0	32870	32718	
3159	0	32868	32839	
3160	0	32820	32743	
3161	0	32800	32732	
3162	0	32750	32732	
3163	0	32744	32789	
3164	0	32752	32806	
3165	0	32672	32618	
3166	0	32712	32756	
3167	0	32590	32732	
3168	0	32664	32838	
3169	0	32660	32714	
3170	0	32592	32734	
3171	0	32588	32814	
3172	0	32756	32791	
3173	0	32865	32688	
3174	0	32932	32743	
3175	0	33028	32860	
3176	0	33040	32871	
3177	0	33028	32808	
3178	0	33090	32820	
3179	0	33108	32860	
3180	0	33044	32814	
3181	0	32888	32775	
3182	0	32852	32852	
3183	0	32876	32839	
3184	0	32828	32702	
3185	0	32828	32730	
3186	0	32704	32706	
3187	0	32634	32708	
3188	0	32604	32725	
3189	0	32568	32788	
3190	0	32460	32775	
3191	0	32544	32700	
3192	0	32640	32592	
3193	0	32680	32614	
3194	0	32800	32638	
3195	0	32928	32624	
3196	0	32880	32692	
3197	0	32948	32695	
3198	0	32940	32770	
3199	0	32888	32724	
3200	0	32844	32890	
3201	0	32884	32895	
3202	0	32824	32748	
3203	0	32822	32804	
3204	0	32858	32848	
3205	0	32824	32815	
3206	0	32776	32833	
3207	0	32800	32710	
3208	0	32676	32808	
3209	0	32774	32764	
3210	0	32856	32834	
3211	0	32826	32702	
3212	0	32874	32775	
3213	0	32886	32793	
3214	0	32914	32816	
3215	0	32935	32808	
3216	0	32824	32711	
3217	0	32886	32740	
3218	0	32864	32596	
3219	0	32836	32867	
3220	0	32832	32714	
3221	0	32692	32812	
3222	0	32746	32768	
3223	0	32832	32666	
3224	0	32756	32782	
3225	0	32808	32828	
3226	0	32780	32698	
3227	0	32808	32752	
3228	0	32832	32775	
3229	0	32764	32624	
3230	0	32712	32743	
3231	0	32644	32682	
3232	0	32716	32736	
3233	0	32800	32790	
3234	0	32950	32722	
3235	0	32920	32766	
3236	0	32944	32695	
3237	0	32848	32844	
3238	0	32900	32870	
3239	0	32848	32633	
3240	0	32772	32757	
3241	0	32758	32852	
3242	0	32706	32740	
3243	0	32816	32742	
3244	0	32896	32748	
3245	0	32916	32838	
3246	0	32872	32740	
3247	0	32909	32690	
3248	0	32844	32854	
3249	0	32822	32866	
3250	0	32716	32686	
3251	0	32702	32728	
3252	0	32725	32724	
3253	0	32656	32794	
3254	0	32788	32732	
3255	0	32862	32820	
3256	0	32846	32830	
3257	0	32816	32735	
3258	0	32858	32792	
3259	0	32960	32844	
3260	0	33026	32743	
3261	0	33116	32862	
3262	0	32842	32706	
3263	0	32720	32807	
3264	0	32720	32688	
3265	0	32736	32775	
3266	0	32692	32864	
3267	0	32700	32756	
3268	0	32754	32734	
3269	0	32826	32711	
3270	0	32806	32833	
3271	0	32898	32796	
3272	0	32780	32674	
3273	0	32832	32775	
3274	0	32828	32892	
3275	0	32830	32718	
3276	0	32870	32750	
3277	0	32744	32760	
3278	0	32724	32676	
3279	0	32624	32724	
3280	0	32692	32567	
3281	0	32630	32764	
3282	0	32874	32748	
3283	0	32866	32814	
3284	0	32946	32855	
3285	0	32908	32784	
3286	0	33030	32846	
3287	0	32964	32783	
3288	0	32932	32830	
3289	0	32974	32736	
3290	0	32916	32759	
3291	0	32900	32810	
3292	0	32816	32775	
3293	0	32496	32788	
3294	0	32530	32753	
3295	0	32534	32880	
3296	0	32612	32856	
3297	0	32668	32724	
3298	0	32644	32835	
3299	0	32724	32801	
3300	0	32852	32790	
3301	0	32964	32796	
3302	0	32866	32673	
3303	0	32804	32684	
3304	0	32884	32820	
3305	0	32948	32724	
3306	0	32916	32750	
3307	0	32876	32705	
3308	0	32912	32863	
3309	0	32840	32775	
3310	0	32856	32718	
3311	0	32822	32768	
3312	0	32868	32724	
3313	0	32836	32806	
3314	0	32816	32708	
3315	0	32944	32756	
3316	0	32760	32806	
3317	0	32760	32775	
3318	0	32648	32764	
3319	0	32728	32775	
3320	0	32696	32720	
3321	0	32740	32815	
3322	0	32914	32716	
3323	0	32864	32842	
3324	0	32828	32775	
3325	0	32752	32690	
3326	0	32888	32775	
3327	0	32938	32700	
3328	0	33034	32775	
3329	0	32958	32769	
3330	0	32832	32798	
3331	0	32746	32832	
3332	0	32768	32706	
3333	0	32756	32724	
3334	0	32664	32714	
3335	0	32762	32760	
3336	0	32866	32780	
3337	0	32826	32743	
3338	0	32748	32856	
3339	0	32737	32714	
3340	0	32762	32782	
3341	0	32668	32744	
3342	0	32542	32738	
3343	0	32540	32809	
3344	0	32796	32775	
3345	0	32868	32762	
3346	0	32760	32718	
3347	0	32920	32608	
3348	0	32932	32800	
3349	0	32976	32738	
3350	0	32994	32806	
3351	0	32976	32712	
3352	0	32818	33020	
3353	0	32834	33026	
3354	0	32862	32854	
3355	0	32652	32928	
3356	0	32872	32841	
3357	0	32896	32702	
3358	0	32704	32638	
3359	0	32592	32738	
3360	0	32648	32730	
3361	0	32682	32687	
3362	0	32776	32592	
3363	0	32810	32680	
3364	0	32880	32647	
3365	0	32920	32775	
3366	0	32866	32751	
3367	0	32920	32775	
3368	0	32852	32828	
3369	0	32817	32792	
3370	0	32864	32802	
3371	0	32980	32860	
3372	0	32996	32742	
3373	0	32832	32799	
3374	0	32708	32721	
3375	0	32784	32772	
3376	0	32888	32791	
3377	0	32820	32632	
3378	0	32780	32799	
3379	0	32744	32826	
3380	0	32857	32790	
3381	0	32700	32838	
3382	0	32736	32732	
3383	0	32776	32860	
3384	0	32854	32818	
3385	0	32870	32664	
3386	0	32704	32865	
3387	0	32680	32807	
3388	0	32652	32798	
3389	0	32796	32825	
3390	0	32746	32657	
3391	0	32772	32839	
3392	0	32770	32692	
3393	0	32840	32668	
3394	0	32864	32820	
3395	0	32864	32724	
3396	0	32924	32802	
3397	0	33012	32943	
3398	0	33100	32655	
3399	0	33040	32884	
3400	0	33024	32878	
3401	0	32970	32812	
3402	0	32772	32710	
3403	0	32620	32644	
3404	0	32706	32722	
3405	0	32622	32732	
3406	0	32644	32764	
3407	0	32732	32647	
3408	0	32821	32743	
3409	0	32732	32822	
3410	0	32716	32830	
3411	0	32736	32647	
3412	0	32706	32678	
3413	0	32648	32676	
3414	0	32808	32856	
3415	0	32848	32884	
3416	0	32920	32814	
3417	0	32952	32740	
3418	0	33008	32772	
3419	0	32876	32826	
3420	0	32856	32750	
3421	0	32842	32838	
3422	0	32752	32775	
3423	0	32822	32682	
3424	0	32788	32748	
3425	0	32762	32710	
3426	0	32810	32714	
3427	0	32826	32710	
3428	0	32916	32841	
3429	0	33062	32732	
3430	0	32956	32654	
3431	0	32956	32716	
3432	0	32832	32710	
3433	0	32752	32636	
3434	0	32696	32759	
3435	0	32592	32832	
3436	0	32728	32786	
3437	0	32728	32860	
3438	0	32728	32838	
3439	0	32910	32927	
3440	0	32828	32702	
3441	0	32880	32708	
3442	0	32956	32770	
3443	0	32922	32863	
3444	0	32916	32810	
3445	0	32888	32920	
3446	0	32776	32903	
3447	0	32728	32711	
3448	0	32772	32657	
3449	0	32906	32714	
3450	0	32796	32636	
3451	0	32774	32754	
3452	0	32830	32803	
3453	0	32810	32719	
3454	0	32740	32826	
3455	0	32724	32834	
3456	0	32664	32710	
3457	0	32714	32735	
3458	0	32708	32848	
3459	0	32752	32766	
3460	0	32752	32772	
3461	0	32832	32816	
3462	0	32884	32674	
3463	0	32902	32764	
3464	0	32944	32836	
3465	0	32964	32844	
3466	0	32820	32814	
3467	0	32868	32792	
3468	0	32930	32754	
3469	0	33004	32895	
3470	0	33024	32848	
3471	0	32804	32770	
3472	0	32584	32738	
3473	0	32572	32832	
3474	0	32656	32850	
3475	0	32772	32640	
3476	0	32764	32695	
3477	0	32628	32624	
3478	0	32512	32599	
3479	0	32636	32766	
3480	0	32568	32834	
3481	0	32814	32850	
3482	0	32718	32900	
3483	0	32952	32998	
3484	0	33082	33022	
3485	0	33184	32885	
3486	0	33202	32688	
3487	0	33352	32656	
3488	0	33400	32736	
3489	0	33322	32572	
3490	0	32992	32692	
3491	0	32854	32684	
3492	0	32656	32621	
3493	0	32820	32647	
3494	0	32466	32742	
3495	0	32308	32792	
3496	0	32204	32775	
3497	0	32088	32775	
3498	0	32176	32680	
3499	0	32056	32618	
3500	0	32388	32760	
3501	0	33096	32575	
3502	0	33092	32840	
3503	0	33126	32850	
3504	0	33188	32930	
3505	0	33210	32775	
3506	0	33244	32808	
3507	0	33120	32678	
3508	0	33224	32782	
3509	0	33244	32832	
3510	0	33334	32660	
3511	0	33028	32686	
3512	0	32480	32722	
3513	0	32044	32714	
3514	0	31978	32692	
3515	0	31996	32834	
3516	0	32380	32766	
3517	0	32824	32716	
3518	0	32970	32804	
3519	0	32960	32814	
3520	0	33056	32754	
3521	0	32926	32739	
3522	0	32888	32794	
3523	0	32868	32775	
3524	0	32752	32839	
3525	0	32924	32876	
3526	0	32784	32682	
3527	0	32732	32735	
3528	0	32714	32775	
3529	0	32758	32702	
3530	0	32714	32798	
3531	0	32806	32692	
3532	0	32964	32888	
3533	0	32996	32862	
3534	0	33080	32816	
3535	0	32906	32892	
3536	0	32910	32920	
3537	0	32938	32838	
3538	0	32896	32708	
3539	0	32804	32758	
3540	0	32840	32798	
3541	0	32712	32743	
3542	0	32822	32718	
3543	0	32876	32711	
3544	0	32808	32775	
3545	0	32764	32794	
3546	0	32780	32838	
3547	0	32758	32696	
3548	0	32764	32716	
3549	0	32732	32775	
3550	0	32712	32822	
3551	0	32634	32688	
3552	0	32716	32679	
3553	0	32764	32888	
3554	0	32862	32806	
3555	0	32814	32838	
3556	0	32940	32790	
3557	0	33036	32580	
3558	0	32978	32714	
3559	0	32836	32892	
3560	0	32774	32851	
3561	0	32724	32824	
3562	0	32576	32734	
3563	0	32764	32903	
3564	0	32676	32732	
3565	0	32648	32768	
3566	0	32468	32567	
3567	0	32480	32678	
3568	0	32688	32708	
3569	0	33110	32775	
3570	0	33176	32710	
3571	0	32866	32679	
3572	0	33068	32736	
3573	0	32886	32884	
3574	0	32824	32692	
3575	0	32916	32852	
3576	0	32913	32898	
3577	0	33018	32836	
3578	0	32868	32788	
3579	0	32424	32756	
3580	0	32750	32762	
3581	0	32854	32708	
3582	0	32672	32794	
3583	0	32848	32720	
3584	0	32876	32654	
3585	0	32777	32694	
3586	0	32756	32737	
3587	0	32568	32913	
3588	0	32600	32913	
3589	0	32726	33028	
3590	0	32774	33092	
3591	0	32748	32972	
3592	0	32892	32871	
3593	0	32732	32508	
3594	0	33304	32423	
3595	0	33032	32634	
3596	0	33184	32638	
3597	0	33234	32536	
3598	0	32968	32686	
3599	0	32476	32646	
3600	0	32374	32724	
3601	0	32192	32926	
3602	0	32608	32922	
3603	0	32740	33147	
3604	0	32892	33056	
3605	0	33100	32860	
3606	0	33084	32932	
3607	0	33120	32862	
3608	0	32688	33031	
3609	0	32628	32668	
3610	0	32632	32800	
3611	0	32684	32564	
3612	0	32758	32606	
3613	0	32880	32593	
3614	0	32648	32796	
3615	0	32620	32854	
3616	0	32624	32653	
3617	0	32756	32609	
3618	0	32916	32740	
3619	0	32908	32775	
3620	0	32996	32816	
3621	0	33000	32689	
3622	0	32824	32750	
3623	0	32912	32778	
3624	0	32928	32834	
3625	0	32930	32682	
3626	0	32972	32660	
3627	0	32902	32802	
3628	0	32740	32836	
3629	0	32768	32884	
3630	0	32754	32700	
3631	0	32740	32753	
3632	0	32852	32796	
3633	0	32774	32760	
3634	0	32774	32838	
3635	0	32756	32790	
3636	0	32674	32812	
3637	0	32804	32854	
3638	0	32826	32820	
3639	0	32878	32680	
3640	0	32888	32644	
3641	0	32888	32826	
3642	0	32890	32775	
3643	0	32900	32702	
3644	0	32878	32839	
3645	0	32496	32796	
3646	0	32752	32806	
3647	0	32964	32696	
3648	0	32836	32836	
3649	0	32644	32700	
3650	0	32692	32746	
3651	0	32912	32952	
3652	0	32697	33101	
3653	0	33194	32991	
3654	0	33034	32774	
3655	0	32420	32558	
3656	0	32450	32612	
3657	0	32696	32647	
3658	0	32904	32647	
3659	0	32484	32671	
3660	0	32734	32820	
3661	0	33018	32804	
3662	0	33306	32766	
3663	0	33222	32774	
3664	0	33068	32838	
3665	0	32886	32802	
3666	0	32792	32740	
3667	0	32688	32490	
3668	0	32656	32596	
3669	0	32592	32860	
3670	0	32756	32959	
3671	0	32628	32846	
3672	0	32732	33012	
3673	0	32652	32768	
3674	0	32552	32684	
3675	0	32488	32638	
3676	0	32318	32631	
3677	0	32623	32748	
3678	0	32876	32647	
3679	0	33272	32730	
3680	0	32894	32610	
3681	0	32745	32746	
3682	0	33002	32732	
3683	0	33064	32658	
3684	0	32916	32732	
3685	0	32708	32824	
3686	0	33064	32740	
3687	0	33040	32760	
3688	0	32856	32670	
3689	0	32756	32582	
3690	0	32800	32822	
3691	0	32584	32832	
3692	0	32776	32842	
3693	0	33076	32666	
3694	0	32656	32836	
3695	0	32700	32754	
3696	0	32792	32846	
3697	0	32824	32849	
3698	0	32804	32686	
3699	0	32898	33031	
3700	0	32708	33052	
3701	0	32544	32775	
3702	0	32768	32816	
3703	0	32804	32564	
3704	0	33024	32775	
3705	0	33008	32746	
3706	0	32984	32770	
3707	0	32872	32623	
3708	0	32933	32796	
3709	0	32756	32903	
3710	0	32906	32744	
3711	0	32682	32796	
3712	0	32808	32820	
3713	0	32884	32647	
3714	0	33028	32742	
3715	0	33316	32864	
3716	0	33240	32782	
3717	0	32638	32726	
3718	0	32548	32632	
3719	0	32964	32662	
3720	0	32656	32662	
3721	0	33176	32590	
3722	0	33204	32582	
3723	0	32620	32562	
3724	0	32544	32610	
3725	0	32418	32526	
3726	0	32568	32652	
3727	0	32916	32790	
3728	0	33240	32736	
3729	0	33274	32960	
3730	0	33286	33138	
3731	0	33012	33024	
3732	0	32828	32943	
3733	0	32706	32559	
3734	0	32644	32279	
3735	0	32624	32293	
3736	0	32676	32348	
3737	0	33000	32294	
3738	0	32940	32528	
3739	0	32929	33072	
3740	0	32846	33025	
3741	0	32804	32846	
3742	0	32524	33144	
3743	0	32488	33215	
3744	0	32468	33266	
3745	0	32208	33489	
3746	0	31776	33628	
3747	0	31884	33352	
3748	0	32384	33272	
3749	0	33348	33107	
3750	0	33472	32775	
3751	0	33252	32752	
3752	0	32392	32692	
3753	0	32152	32881	
3754	0	32248	32764	
3755	0	32678	32794	
3756	0	33144	32756	
3757	0	33180	32821	
3758	0	32912	32928	
3759	0	32528	32593	
3760	0	33026	32466	
3761	0	33190	32034	
3762	0	33016	31929	
3763	0	32865	32098	
3764	0	32802	32428	
3765	0	32536	32600	
3766	0	32932	32800	
3767	0	33060	33010	
3768	0	33208	32804	
3769	0	33332	32804	
3770	0	33544	32764	
3771	0	33028	32960	
3772	0	32404	32898	
3773	0	31808	32702	
3774	0	32408	32638	
3775	0	32380	32772	
3776	0	33148	32718	
3777	0	33368	32416	
3778	0	33552	32263	
3779	0	33407	32668	
3780	0	33280	33118	
3781	0	32868	32712	
3782	0	32670	32972	
3783	0	32452	33191	
3784	0	32884	33150	
3785	0	32500	33090	
3786	0	32864	32886	
3787	0	32704	32902	
3788	0	32880	32596	
3789	0	33264	32647	
3790	0	32720	32596	
3791	0	32504	32586	
3792	0	32206	32672	
3793	0	32650	32864	
3794	0	32874	33130	
3795	0	33060	32936	
3796	0	33066	33087	
3797	0	32780	32638	
3798	0	32512	32446	
3799	0	32656	32878	
3800	0	33196	32752	
3801	0	33404	32498	
3802	0	33308	32615	
3803	0	32668	32708	
3804	0	32012	32750	
3805	0	31796	32904	
3806	0	32492	32742	
3807	0	33168	33050	
3808	0	33792	33226	
3809	0	33514	33027	
3810	0	33456	32914	
3811	0	33144	33088	
3812	0	33452	32746	
3813	0	32458	31975	
3814	0	32360	31828	
3815	0	31452	32310	
3816	0	31406	32412	
3817	0	32272	32586	
3818	0	32836	32600	
3819	0	33146	32519	
3820	0	33220	32856	
3821	0	32820	32906	
3822	0	32804	33008	
3823	0	32874	32808	
3824	0	32692	32726	
3825	0	32960	32740	
3826	0	33608	33002	
3827	0	33696	32984	
3828	0	33342	32964	
3829	0	33348	33142	
3830	0	31952	32816	
3831	0	31856	32791	
3832	0	31854	32839	
3833	0	33140	32775	
3834	0	33348	32588	
3835	0	33200	32532	
3836	0	32754	32646	
3837	0	32620	32468	
3838	0	32388	32744	
3839	0	32526	32720	
3840	0	32768	32808	
3841	0	32996	32820	
3842	0	33164	33009	
3843	0	33182	32930	
3844	0	33040	32862	
3845	0	32404	32880	
3846	0	32644	32816	
3847	0	32684	32756	
3848	0	32610	32750	
3849	0	33497	32890	
3850	0	33056	32886	
3851	0	32600	32688	
3852	0	32788	32590	
3853	0	32516	32676	
3854	0	32780	32497	
3855	0	32624	32596	
3856	0	33088	32638	
3857	0	32568	32736	
3858	0	32156	32708	
3859	0	32320	33344	
3860	0	31336	33862	
3861	0	33062	33076	
3862	0	34184	32718	
3863	0	33418	32545	
3864	0	32884	32350	
3865	0	33568	32726	
3866	0	33572	33228	
3867	0	33768	33702	
3868	0	32380	33670	
3869	0	31560	32734	
3870	0	32084	32624	
3871	0	33076	32375	
3872	0	33768	31970	
3873	0	33410	32116	
3874	0	32792	32158	
3875	0	32710	32470	
3876	0	32640	32223	
3877	0	32676	32407	
3878	0	32804	32516	
3879	0	32904	32462	
3880	0	33070	32647	
3881	0	32577	32822	
3882	0	31984	32872	
3883	0	31552	32494	
3884	0	31776	32481	
3885	0	32556	32342	
3886	0	33248	32551	
3887	0	32856	32771	
3888	0	32236	32676	
3889	0	31999	32769	
3890	0	32588	32926	
3891	0	33608	32852	
3892	0	34366	33124	
3893	0	34912	33130	
3894	0	34528	33102	
3895	0	32770	33263	
3896	0	32026	33114	
3897	0	32046	32952	
3898	0	32240	33155	
3899	0	32594	33406	
3900	0	32608	33199	
3901	0	32632	33378	
3902	0	32390	33124	
3903	0	32320	32960	
3904	0	32516	32801	
3905	0	32744	32396	
3906	0	33096	32032	
3907	0	33152	32188	
3908	0	32586	32230	
3909	0	32242	32250	
3910	0	32432	32252	
3911	0	32810	32408	
3912	0	33230	32428	
3913	0	34186	32352	
3914	0	33610	32420	
3915	0	32564	32584	
3916	0	32314	32798	
3917	0	32708	33046	
3918	0	33310	33570	
3919	0	33272	33846	
3920	0	33298	33424	
3921	0	32068	32948	
3922	0	32420	32919	
3923	0	32276	33018	
3924	0	33092	33296	
3925	0	33420	33070	
3926	0	32602	32710	
3927	0	31988	32580	
3928	0	32346	32316	
3929	0	32644	32176	
3930	0	32848	32580	
3931	0	32790	32420	
3932	0	32384	32412	
3933	0	32974	32591	
3934	0	32704	32514	
3935	0	33232	32991	
3936	0	34008	33016	
3937	0	32710	33068	
3938	0	32652	32854	
3939	0	32738	32994	
3940	0	33280	32742	
3941	0	33408	33090	
3942	0	33462	33217	
3943	0	32612	33160	
3944	0	31972	32499	
3945	0	32140	32026	
3946	0	32270	32358	
3947	0	32520	32791	
3948	0	32646	32848	
3949	0	32856	32942	
3950	0	33240	33383	
3951	0	32984	33150	
3952	0	33224	33260	
3953	0	33224	33050	
3954	0	33148	32839	
3955	0	32960	32464	
3956	0	31880	32775	
3957	0	31912	32216	
3958	0	32184	32146	
3959	0	32188	32455	
3960	0	33604	32622	
3961	0	34576	32068	
3962	0	34696	31856	
3963	0	33080	32332	
3964	0	32064	32554	
3965	0	31684	32668	
3966	0	30953	32820	
3967	0	31704	32848	
3968	0	32228	32600	
3969	0	32392	33596	
3970	0	33668	34118	
3971	0	33410	33918	
3972	0	34248	33496	
3973	0	33574	33600	
3974	0	32567	32807	
3975	0	32608	32239	
3976	0	33026	32230	
3977	0	33560	32342	
3978	0	33296	32644	
3979	0	32236	32216	
3980	0	31700	32519	
3981	0	32472	32838	
3982	0	32824	32646	
3983	0	32896	32558	
3984	0	31348	32354	
3985	0	32696	32185	
3986	0	33926	32328	
3987	0	33052	32435	
3988	0	33248	32687	
3989	0	33002	32897	
3990	0	33608	33190	
3991	0	33424	33560	
3992	0	32672	33543	
3993	0	32434	33300	
3994	0	32444	32959	
3995	0	33008	33031	
3996	0	33066	32640	
3997	0	32612	32234	
3998	0	32352	32628	
3999	0	32316	32456	
4000	0	32248	32354	
4001	0	32778	32436	
4002	0	33232	32662	
4003	0	32792	32772	
4004	0	32432	32868	
4005	0	31428	33159	
4006	0	31716	32429	
4007	0	33028	32322	
4008	0	35816	32988	
4009	0	34530	33186	
4010	0	33496	33182	
4011	0	33592	33304	
4012	0	30176	32868	
4013	0	31228	32734	
4014	0	32908	32647	
4015	0	33002	33284	
4016	0	32976	33262	
4017	0	32472	32894	
4018	0	32408	32642	
4019	0	32668	32604	
4020	0	32785	32474	
4021	0	32774	32542	
4022	0	33484	32632	
4023	0	33536	32652	
4024	0	33700	32800	
4025	0	32000	32944	
4026	0	33016	32852	
4027	0	32872	32486	
4028	0	31950	32322	
4029	0	32356	32707	
4030	0	33592	32580	
4031	0	33624	33269	
4032	0	32632	32773	
4033	0	32288	32456	
4034	0	31984	32516	
4035	0	32302	32590	
4036	0	32734	32710	
4037	0	32596	32868	
4038	0	32948	32888	
4039	0	32896	32756	
4040	0	33332	33110	
4041	0	33096	33252	
4042	0	32928	33198	
4043	0	32864	32932	
4044	0	32788	32639	
4045	0	33034	32478	
4046	0	32168	32480	
4047	0	32032	33150	
4048	0	33166	33342	
4049	0	33124	33372	
4050	0	33620	33168	
4051	0	32860	32551	
4052	0	32380	32350	
4053	0	31672	32174	
4054	0	32368	32095	
4055	0	32977	32326	
4056	0	33120	32284	
4057	0	33724	32932	
4058	0	33474	32930	
4059	0	33134	32908	
4060	0	32536	32558	
4061	0	32529	32734	
4062	0	32416	32758	
4063	0	32424	33184	
4064	0	32492	32990	
4065	0	32784	32858	
4066	0	32884	32775	
4067	0	32972	32916	
4068	0	32784	32769	
4069	0	32852	32792	
4070	0	32820	32584	
4071	0	32660	32476	
4072	0	32398	32404	
4073	0	32618	32206	
4074	0	32364	32486	
4075	0	32496	32532	
4076	0	34180	32054	
4077	0	34054	32543	
4078	0	33812	32924	
4079	0	33826	33392	
4080	0	32656	33370	
4081	0	32720	33624	
4082	0	32066	33518	
4083	0	32800	32960	
4084	0	32968	32728	
4085	0	32366	33008	
4086	0	31132	32775	
4087	0	32016	32730	
4088	0	32584	32761	
4089	0	32416	32790	
4090	0	32081	33028	
4091	0	33096	33287	
4092	0	34004	33318	
4093	0	33920	32716	
4094	0	31806	32180	
4095	0	30184	32038	
4096	0	32340	31687	
4097	0	33580	31522	
4098	0	34860	32260	
4099	0	33470	32618	
4100	0	33370	32998	
4101	0	33870	32982	
4102	0	33192	33012	
4103	0	33280	32974	
4104	0	32414	33058	
4105	0	32788	33094	
4106	0	31720	32632	
4107	0	31924	32724	
4108	0	32896	33396	
4109	0	33208	33787	
4110	0	33064	33316	
4111	0	33466	33414	
4112	0	33105	32656	
4113	0	32938	32196	
4114	0	32324	31988	
4115	0	33028	32260	
4116	0	32378	31950	
4117	0	32376	32079	
4118	0	32160	32348	
4119	0	31828	32252	
4120	0	32288	32511	
4121	0	32688	32583	
4122	0	32408	32993	
4123	0	32768	33758	
4124	0	32716	33960	
4125	0	33192	33369	
4126	0	33244	33119	
4127	0	33204	32504	
4128	0	33240	32540	
4129	0	33670	32859	
4130	0	32966	33214	
4131	0	32170	33242	
4132	0	32376	32655	
4133	0	32754	32039	
4134	0	32548	32212	
4135	0	32832	32220	
4136	0	33216	32579	
4137	0	32948	32456	
4138	0	32888	32612	
4139	0	33084	32604	
4140	0	33082	32826	
4141	0	33650	33121	
4142	0	32832	33080	
4143	0	31644	32908	
4144	0	31204	32998	
4145	0	33280	32992	
4146	0	33728	32848	
4147	0	32806	32644	
4148	0	31988	32628	
4149	0	32884	32592	
4150	0	33058	32366	
4151	0	33412	32708	
4152	0	32844	32892	
4153	0	32308	33368	
4154	0	33380	33158	
4155	0	32856	33124	
4156	0	32444	32897	
4157	0	32896	32660	
4158	0	32658	32704	
4159	0	32848	32608	
4160	0	33208	32446	
4161	0	33404	32642	
4162	0	33028	33044	
4163	0	32348	33172	
4164	0	33272	33121	
4165	0	32528	33399	
4166	0	31848	33316	
4167	0	32228	32862	
4168	0	32704	32663	
4169	0	32740	32604	
4170	0	33730	32852	
4171	0	33278	32314	
4172	0	33564	32314	
4173	0	32848	32482	
4174	0	32224	32558	
4175	0	30712	32150	
4176	0	32556	32302	
4177	0	34406	32404	
4178	0	35536	32366	
4179	0	33876	32500	
4180	0	31112	32390	
4181	0	32496	32487	
4182	0	32360	31874	
4183	0	31822	31864	
4184	0	32616	32414	
4185	0	33096	33342	
4186	0	33164	34276	
4187	0	33032	34434	
4188	0	33044	34196	
4189	0	32560	33618	
4190	0	32550	33703	
4191	0	31780	33326	
4192	0	33448	32898	
4193	0	33590	32626	
4194	0	31956	32250	
4195	0	32532	32130	
4196	0	33280	32476	
4197	0	33836	32456	
4198	0	33154	32252	
4199	0	31988	32604	
4200	0	32080	32603	
4201	0	33038	32836	
4202	0	33097	32790	
4203	0	32404	32760	
4204	0	32646	32812	
4205	0	32428	32296	
4206	0	32776	32102	
4207	0	33316	32282	
4208	0	32568	32694	
4209	0	33208	32686	
4210	0	32700	32932	
4211	0	32092	32942	
4212	0	33154	33028	
4213	0	32968	32496	
4214	0	33102	32612	
4215	0	33360	32516	
4216	0	33088	32743	
4217	0	33812	32612	
4218	0	32936	32820	
4219	0	32392	32944	
4220	0	32256	33108	
4221	0	32472	33100	
4222	0	32864	33108	
4223	0	32724	32682	
4224	0	32800	32918	
4225	0	32612	32992	
4226	0	32374	33388	
4227	0	32700	33110	
4228	0	32462	32830	
4229	0	32122	32714	
4230	0	33018	32340	
4231	0	33628	32460	
4232	0	33420	32814	
4233	0	33140	32775	
4234	0	33164	32672	
4235	0	33584	32655	
4236	0	32148	32702	
4237	0	32492	32558	
4238	0	32000	32694	
4239	0	32580	32704	
4240	0	32172	32492	
4241	0	33142	32608	
4242	0	33800	32584	
4243	0	33818	32862	
4244	0	32720	32935	
4245	0	32498	32770	
4246	0	32346	32949	
4247	0	32644	32680	
4248	0	32464	32468	
4249	0	32672	32610	
4250	0	32720	32886	
4251	0	32740	32999	
4252	0	32576	32828	
4253	0	32444	33454	
4254	0	32200	33642	
4255	0	32568	32968	
4256	0	33212	32206	
4257	0	32618	32600	
4258	0	31897	32968	
4259	0	33208	32950	
4260	0	33272	32722	
4261	0	34190	32500	
4262	0	33312	32504	
4263	0	33124	32804	
4264	0	32962	32767	
4265	0	34052	32872	
4266	0	34424	32952	
4267	0	32684	32372	
4268	0	30982	32084	
4269	0	32016	32294	
4270	0	31936	32772	
4271	0	32092	32743	
4272	0	31780	32673	
4273	0	32168	32642	
4274	0	33468	32702	
4275	0	34060	32730	
4276	0	33516	32903	
4277	0	32906	32818	
4278	0	32902	32886	
4279	0	33462	32916	
4280	0	33114	32816	
4281	0	32830	32604	
4282	0	32808	32824	
4283	0	32538	33031	
4284	0	32804	33214	
4285	0	31920	32980	
4286	0	32260	33080	
4287	0	31726	33237	
4288	0	31592	33494	
4289	0	34000	33120	
4290	0	32880	32864	
4291	0	32764	32774	
4292	0	34124	32369	
4293	0	34076	31828	
4294	0	32778	31324	
4295	0	31876	32172	
4296	0	32492	32808	
4297	0	32344	32460	
4298	0	32420	31704	
4299	0	32953	32188	
4300	0	33428	32586	
4301	0	32976	32609	
4302	0	33188	33168	
4303	0	33920	33524	
4304	0	32382	33889	
4305	0	32514	33432	
4306	0	32724	33242	
4307	0	32492	33118	
4308	0	32652	32830	
4309	0	32808	32911	
4310	0	32644	32646	
4311	0	32566	32324	
4312	0	32512	32466	
4313	0	32808	32833	
4314	0	32826	32898	
4315	0	32708	33099	
4316	0	32298	32775	
4317	0	31976	32871	
4318	0	32700	32452	
4319	0	32752	32110	
4320	0	32756	31916	
4321	0	32845	31998	
4322	0	34020	31975	
4323	0	33520	32551	
4324	0	33540	33100	
4325	0	33344	32868	
4326	0	32712	32884	
4327	0	32336	33276	
4328	0	32238	33322	
4329	0	33290	33170	
4330	0	32524	33156	
4331	0	31964	32884	
4332	0	31780	32448	
4333	0	33822	32652	
4334	0	33948	32684	
4335	0	33012	32814	
4336	0	31936	32480	
4337	0	32512	32584	
4338	0	33064	32756	
4339	0	32732	32932	
4340	0	32652	33252	
4341	0	32852	33528	
4342	0	32724	33430	
4343	0	32752	33190	
4344	0	33090	32818	
4345	0	33072	32758	
4346	0	32636	33464	
4347	0	32442	32984	
4348	0	32700	32465	
4349	0	32744	32352	
4350	0	33826	32463	
4351	0	32472	31748	
4352	0	31416	31559	
4353	0	32682	32396	
4354	0	33944	32430	
4355	0	33288	32182	
4356	0	32896	32623	
4357	0	33204	33498	
4358	0	32528	33190	
4359	0	33440	33263	
4360	0	33308	33058	
4361	0	32352	33060	
4362	0	32504	32764	
4363	0	32138	32889	
4364	0	32300	32456	
4365	0	32824	32330	
4366	0	33204	32298	
4367	0	33048	32678	
4368	0	33104	32766	
4369	0	32792	32852	
4370	0	32300	33054	
4371	0	32584	32898	
4372	0	32008	32386	
4373	0	32714	32748	
4374	0	33360	33089	
4375	0	33464	33976	
4376	0	33088	33231	
4377	0	33488	33224	
4378	0	32788	33084	
4379	0	32620	32814	
4380	0	32848	32618	
4381	0	32276	33224	
4382	0	31868	33624	
4383	0	32798	33256	
4384	0	33612	32560	
4385	0	32234	31879	
4386	0	31800	31972	
4387	0	32324	32272	
4388	0	33716	32388	
4389	0	33820	32295	
4390	0	33272	32532	
4391	0	32998	32342	
4392	0	32898	32358	
4393	0	32962	32672	
4394	0	32976	32856	
4395	0	32800	32824	
4396	0	32936	33006	
4397	0	32736	32773	
4398	0	32760	32628	
4399	0	32868	32684	
4400	0	32388	32924	
4401	0	32364	32712	
4402	0	33182	32931	
4403	0	32158	33063	
4404	0	32740	32771	
4405	0	32348	32846	
4406	0	32906	32748	
4407	0	32888	32674	
4408	0	32516	32490	
4409	0	32788	32236	
4410	0	32668	32014	
4411	0	33204	32263	
4412	0	33296	32703	
4413	0	33092	32918	
4414	0	32408	33407	
4415	0	32492	33576	
4416	0	33090	33508	
4417	0	32900	33799	
4418	0	32718	33144	
4419	0	32588	33143	
4420	0	32676	33270	
4421	0	32404	33151	
4422	0	32374	32640	
4423	0	32318	32337	
4424	0	33388	32236	
4425	0	34230	31982	
4426	0	33036	32408	
4427	0	32972	32484	
4428	0	32928	32537	
4429	0	32980	32261	
4430	0	32886	32192	
4431	0	32788	32232	
4432	0	33104	32650	
4433	0	32544	33098	
4434	0	31660	32890	
4435	0	31710	33190	
4436	0	32522	33466	
4437	0	33412	33639	
4438	0	33778	32900	
4439	0	33020	32758	
4440	0	33068	32816	
4441	0	32902	32668	
4442	0	32466	32496	
4443	0	32748	32252	
4444	0	32856	32180	
4445	0	32740	32526	
4446	0	32712	32718	
4447	0	32970	32466	
4448	0	33072	32304	
4449	0	32706	32686	
4450	0	33284	32860	
4451	0	33572	33046	
4452	0	33296	33180	
4453	0	32984	33173	
4454	0	32768	33248	
4455	0	32440	33126	
4456	0	32472	32702	
4457	0	32348	32250	
4458	0	32992	31878	
4459	0	32500	32204	
4460	0	32552	32934	
4461	0	31956	33418	
4462	0	31256	33556	
4463	0	31624	33282	
4464	0	33084	32560	
4465	0	33236	32478	
4466	0	33288	32776	
4467	0	33868	33726	
4468	0	33212	33880	
4469	0	33058	32549	
4470	0	32738	31948	
4471	0	32920	32007	
4472	0	32800	32258	
4473	0	32408	32676	
4474	0	32626	32296	
4475	0	32444	32378	
4476	0	32692	32455	
4477	0	33236	32992	
4478	0	33512	33138	
4479	0	33638	32888	
4480	0	33456	32966	
4481	0	33286	32593	
4482	0	33376	32490	
4483	0	33350	32455	
4484	0	33464	32764	
4485	0	32982	33092	
4486	0	33004	33220	
4487	0	33936	33353	
4488	0	34000	32962	
4489	0	33588	32822	
4490	0	33110	32646	
4491	0	32456	32260	
4492	0	32208	32146	
4493	0	32224	32273	
4494	0	32146	32602	
4495	0	30398	32591	
4496	0	30520	32538	
4497	0	30792	32566	
4498	0	32484	32480	
4499	0	33860	32927	
4500	0	31584	33116	
4501	0	30506	33064	
4502	0	31200	33311	
4503	0	33068	33486	
4504	0	33416	33232	
4505	0	33280	32792	
4506	0	33138	31968	
4507	0	33236	32710	
4508	0	33500	33484	
4509	0	33310	33364	
4510	0	33106	33344	
4511	0	32896	33284	
4512	0	33152	32680	
4513	0	32984	32871	
4514	0	33042	33031	
4515	0	32980	33318	
4516	0	32684	33022	
4517	0	33328	32292	
4518	0	33104	31792	
4519	0	33168	32198	
4520	0	32704	32151	
4521	0	32696	32100	
4522	0	33508	32146	
4523	0	33692	32217	
4524	0	32832	32772	
4525	0	33360	33002	
4526	0	31373	33310	
4527	0	33502	33238	
4528	0	33056	32836	
4529	0	32908	32551	
4530	0	32588	32220	
4531	0	32836	32406	
4532	0	33078	32892	
4533	0	32812	33062	
4534	0	32985	33219	
4535	0	33296	33094	
4536	0	33456	32806	
4537	0	32926	32356	
4538	0	33100	32042	
4539	0	32848	32312	
4540	0	32404	32302	
4541	0	32352	33444	
4542	0	32262	33982	
4543	0	32232	33667	
4544	0	32588	33088	
4545	0	33992	33216	
4546	0	35452	32935	
4547	0	35728	33024	
4548	0	34992	32846	
4549	0	34412	32406	
4550	0	33312	32215	
4551	0	32680	32440	
4552	0	32064	32818	
4553	0	32012	32615	
4554	0	30676	32328	
4555	0	30878	32292	
4556	0	30880	32356	
4557	0	30640	32952	
4558	0	29374	33056	
4559	0	29596	32711	
4560	0	30842	32558	
4561	0	31314	32528	
4562	0	31480	32830	
4563	0	32146	32716	
4564	0	32256	32711	
4565	0	32624	32866	
4566	0	33064	33095	
4567	0	33120	33320	
4568	0	33390	33156	
4569	0	33462	33263	
4570	0	33660	32888	
4571	0	33668	33031	
4572	0	33684	32966	
4573	0	34264	32616	
4574	0	34464	32710	
4575	0	34168	32487	
4576	0	33732	32330	
4577	0	33694	31736	
4578	0	32560	32020	
4579	0	33856	32254	
4580	0	33528	32406	
4581	0	33640	32475	
4582	0	33024	32820	
4583	0	33076	32892	
4584	0	33900	32751	
4585	0	32868	32727	
4586	0	32568	32842	
4587	0	32258	33318	
4588	0	31860	33266	
4589	0	32058	33476	
4590	0	32824	33448	
4591	0	33562	33284	
4592	0	34832	32836	
4593	0	36330	32892	
4594	0	36252	32740	
4595	0	35856	32430	
4596	0	35980	32232	
4597	0	35176	32090	
4598	0	33584	32124	
4599	0	32048	32404	
4600	0	30844	32625	
4601	0	30096	32782	
4602	0	29984	32732	
4603	0	29924	32710	
4604	0	29572	33079	
4605	0	29020	33205	
4606	0	28674	33233	
4607	0	28720	33398	
4608	0	28954	33236	
4609	0	29288	33054	
4610	0	29330	32928	
4611	0	30264	32660	
4612	0	32340	32798	
4613	0	33280	32917	
4614	0	32990	33354	
4615	0	33796	33161	
4616	0	34792	32743	
4617	0	34494	32588	
4618	0	34834	32574	
4619	0	34780	32310	
4620	0	34974	32404	
4621	0	35060	32396	
4622	0	34468	32328	
4623	0	33898	32375	
4624	0	34276	32744	
4625	0	35098	32956	
4626	0	36850	32756	
4627	0	37772	33048	
4628	0	36422	33132	
4629	0	34428	33152	
4630	0	33158	33154	
4631	0	32560	32898	
4632	0	32036	32416	
4633	0	31928	32346	
4634	0	31117	32592	
4635	0	30732	32648	
4636	0	29920	32209	
4637	0	29838	32540	
4638	0	29430	32892	
4639	0	29762	32970	
4640	0	29920	33388	
4641	0	31244	33716	
4642	0	32024	33470	
4643	0	32480	32748	
4644	0	32792	32514	
4645	0	33920	33054	
4646	0	34184	33280	
4647	0	34316	32717	
4648	0	33844	32478	
4649	0	33644	32000	
4650	0	32820	32196	
4651	0	32746	32640	
4652	0	32704	32310	
4653	0	32876	32586	
4654	0	32836	32868	
4655	0	32910	32648	
4656	0	33204	32310	
4657	0	33564	32448	
4658	0	33650	32682	
4659	0	33630	33004	
4660	0	33645	33144	
4661	0	33648	33520	
4662	0	33408	33146	
4663	0	33100	32716	
4664	0	32844	32299	
4665	0	33300	32695	
4666	0	33520	33095	
4667	0	33470	32900	
4668	0	33174	32460	
4669	0	32832	32178	
4670	0	32312	32454	
4671	0	31928	32382	
4672	0	32111	32391	
4673	0	33544	32476	
4674	0	33280	32544	
4675	0	32732	32711	
4676	0	32116	32628	
4677	0	32096	32817	
4678	0	32028	32944	
4679	0	32387	32600	
4680	0	33616	32302	
4681	0	34126	32156	
4682	0	32988	32286	
4683	0	32782	32826	
4684	0	33232	32890	
4685	0	34124	33226	
4686	0	34430	33196	
4687	0	33688	33132	
4688	0	33808	33222	
4689	0	33588	33092	
4690	0	33488	32384	
4691	0	33400	32328	
4692	0	32322	32385	
4693	0	30650	32464	
4694	0	30174	32718	
4695	0	29646	33066	
4696	0	29532	32898	
4697	0	30256	33048	
4698	0	30876	32748	
4699	0	32734	32904	
4700	0	33732	33044	
4701	0	33736	32786	
4702	0	32628	32754	
4703	0	31772	32832	
4704	0	30876	33038	
4705	0	31038	33151	
4706	0	31317	33000	
4707	0	31952	32833	
4708	0	32318	32562	
4709	0	32296	32646	
4710	0	32588	32655	
4711	0	33238	32942	
4712	0	34556	32948	
4713	0	34792	32711	
4714	0	34504	32875	
4715	0	34458	32918	
4716	0	34104	32772	
4717	0	33680	32937	
4718	0	33052	33172	
4719	0	33252	33100	
4720	0	33844	32896	
4721	0	33860	32756	
4722	0	32120	32763	
4723	0	31240	32656	
4724	0	30870	32464	
4725	0	32026	32252	
4726	0	32468	32274	
4727	0	32042	32056	
4728	0	33472	32252	
4729	0	33828	32458	
4730	0	34494	32807	
4731	0	33984	33382	
4732	0	33112	33514	
4733	0	33180	33340	
4734	0	33444	33533	
4735	0	33380	33543	
4736	0	33236	33596	
4737	0	33188	33031	
4738	0	33076	32862	
4739	0	33286	32857	
4740	0	33334	32487	
4741	0	33342	32358	
4742	0	33172	32326	
4743	0	33048	32355	
4744	0	32888	32514	
4745	0	32834	32438	
4746	0	32772	32466	
4747	0	32706	32578	
4748	0	32664	32456	
4749	0	32734	32458	
4750	0	32658	32501	
4751	0	32542	32550	
4752	0	32492	32542	
4753	0	32570	32820	
4754	0	32480	32672	
4755	0	32640	32956	
4756	0	32666	32992	
4757	0	32673	33174	
4758	0	32674	33399	
4759	0	32568	33198	
4760	0	32504	33060	
4761	0	32522	32961	
4762	0	32520	32788	
4763	0	32584	32448	
4764	0	32676	32103	
4765	0	32640	32152	
4766	0	33048	32472	
4767	0	33232	32528	
4768	0	32788	32660	
4769	0	32436	32532	
4770	0	32256	32580	
4771	0	32496	32560	
4772	0	32832	32975	
4773	0	32700	33179	
4774	0	32722	33310	
4775	0	33160	33415	
4776	0	33448	33617	
4777	0	33152	33222	
4778	0	32960	32474	
4779	0	32736	32508	
4780	0	33296	32516	
4781	0	33896	32644	
4782	0	34213	32618	
4783	0	33304	32575	
4784	0	32740	32546	
4785	0	32680	32412	
4786	0	33076	32462	
4787	0	33972	32528	
4788	0	34198	32748	
4789	0	33580	32608	
4790	0	33604	32586	
4791	0	32656	32748	
4792	0	31648	32984	
4793	0	31028	32896	
4794	0	30804	32824	
4795	0	31109	32748	
4796	0	32308	32680	
4797	0	33544	32738	
4798	0	34116	32692	
4799	0	33948	32715	
4800	0	32708	32734	
4801	0	32242	33216	
4802	0	31760	33089	
4803	0	31014	32832	
4804	0	30428	32716	
4805	0	29546	32714	
4806	0	29680	32892	
4807	0	30094	32614	
4808	0	30596	32768	
4809	0	31680	32688	
4810	0	32542	32623	
4811	0	33550	32671	
4812	0	34480	32689	
4813	0	34625	32636	
4814	0	34289	32614	
4815	0	34292	32668	
4816	0	34116	32695	
4817	0	34014	32738	
4818	0	34252	32800	
4819	0	34356	32952	
4820	0	34436	32880	
4821	0	34736	33064	
4822	0	34532	33048	
4823	0	33192	32680	
4824	0	32824	32704	
4825	0	32436	32662	
4826	0	32534	32664	
4827	0	32320	32788	
4828	0	32168	32549	
4829	0	32160	32655	
4830	0	32456	32708	
4831	0	32898	32714	
4832	0	32740	32607	
4833	0	32368	32828	
4834	0	33004	32698	
4835	0	32586	32626	
4836	0	33016	32668	
4837	0	33068	32648	
4838	0	33020	32742	
4839	0	32584	32934	
4840	0	32356	33070	
4841	0	32522	33060	
4842	0	32775	32614	
4843	0	32860	32864	
4844	0	32926	32804	
4845	0	32858	32652	
4846	0	32774	32622	
4847	0	32884	32984	
4848	0	32908	33122	
4849	0	33378	32889	
4850	0	34070	32724	
4851	0	33946	32722	
4852	0	34346	32832	
4853	0	34442	32910	
4854	0	34134	33070	
4855	0	33172	33168	
4856	0	32244	33010	
4857	0	31512	32903	
4858	0	31258	32486	
4859	0	31460	32292	
4860	0	31222	32490	
4861	0	31796	32714	
4862	0	31676	32743	
4863	0	31376	32738	
4864	0	31832	32692	
4865	0	31716	32818	
4866	0	31284	32576	
4867	0	30992	32614	
4868	0	31138	32616	
4869	0	32228	32600	
4870	0	32944	32823	
4871	0	33368	32762	
4872	0	33606	32584	
4873	0	34148	32806	
4874	0	34532	32942	
4875	0	34432	32843	
4876	0	34062	32836	
4877	0	34250	32980	
4878	0	34772	32772	
4879	0	34372	32742	
4880	0	33758	32638	
4881	0	33248	32570	
4882	0	32900	32894	
4883	0	32504	32868	
4884	0	31704	32801	
4885	0	31428	32604	
4886	0	31044	32704	
4887	0	31036	32742	
4888	0	31084	32594	
4889	0	31100	32893	
4890	0	31646	33198	
4891	0	32500	32764	
4892	0	32137	32775	
4893	0	33170	32810	
4894	0	34268	32886	
4895	0	32928	32902	
4896	0	33226	32800	
4897	0	33284	32708	
4898	0	33336	32732	
4899	0	33472	33020	
4900	0	33448	32818	
4901	0	33438	32914	
4902	0	33442	32770	
4903	0	33484	32692	
4904	0	33508	32720	
4905	0	33388	32768	
4906	0	33202	32835	
4907	0	32970	32764	
4908	0	32872	32684	
4909	0	32748	32554	
4910	0	32702	32536	
4911	0	32708	32676	
4912	0	32832	32668	
4913	0	32904	32706	
4914	0	32938	32730	
4915	0	32928	32754	
4916	0	33282	32720	
4917	0	33188	32626	
4918	0	32762	32668	
4919	0	32404	32886	
4920	0	32144	32796	
4921	0	32188	32966	
4922	0	32168	32895	
4923	0	32124	32695	
4924	0	32284	32948	
4925	0	32646	32868	
4926	0	32638	32602	
4927	0	32566	32670	
4928	0	32852	32737	
4929	0	32738	32532	
4930	0	33248	32746	
4931	0	33244	32794	
4932	0	32752	32895	
4933	0	32970	33152	
4934	0	33044	33148	
4935	0	33344	33182	
4936	0	33978	32856	
4937	0	34928	32758	
4938	0	34728	32946	
4939	0	33696	32943	
4940	0	33020	32870	
4941	0	32404	32732	
4942	0	32042	32682	
4943	0	31984	32658	
4944	0	31812	32492	
4945	0	31764	32660	
4946	0	31854	32398	
4947	0	31572	32631	
4948	0	31988	32828	
4949	0	31562	32898	
4950	0	31524	32642	
4951	0	31354	32628	
4952	0	31670	32660	
4953	0	32340	32652	
4954	0	33290	32756	
4955	0	33760	32580	
4956	0	33732	32655	
4957	0	33654	32644	
4958	0	33624	32764	
4959	0	33628	32748	
4960	0	33600	32800	
4961	0	33464	32738	
4962	0	33432	32690	
4963	0	33140	32752	
4964	0	32896	32844	
4965	0	32640	32884	
4966	0	32232	32924	
4967	0	32242	32946	
4968	0	32218	32800	
4969	0	32344	32676	
4970	0	32652	32574	
4971	0	32660	32698	
4972	0	32918	32702	
4973	0	33148	32965	
4974	0	32970	32774	
4975	0	33494	32920	
4976	0	32996	32864	
4977	0	33252	32608	
4978	0	33344	32768	
4979	0	33328	32828	
4980	0	32928	32612	
4981	0	32724	32558	
4982	0	32724	32588	
4983	0	32838	32743	
4984	0	32904	32870	
4985	0	32948	32820	
4986	0	32920	32771	
4987	0	32780	32775	
4988	0	32798	32750	
4989	0	32754	32860	
4990	0	32936	32647	
4991	0	33324	32647	
4992	0	32696	32646	
4993	0	32497	32739	
4994	0	32596	32554	
4995	0	33002	32810	
4996	0	33456	32918	
4997	0	33512	32828	
4998	0	33254	33054	
4999	0	32814	32775	
5000	0	32476	32786	
5001	0	32232	32788	
5002	0	32016	32913	
5003	0	32004	32840	
5004	0	32344	32900	
5005	0	32500	32855	
5006	0	32506	32966	
5007	0	32802	32912	
5008	0	32924	32867	
5009	0	32964	32814	
5010	0	33048	32900	
5011	0	33060	32682	
5012	0	33080	32818	
5013	0	33232	32775	
5014	0	33076	32686	
5015	0	32816	32775	
5016	0	32756	32612	
5017	0	32760	32590	
5018	0	32748	32656	
5019	0	32492	32636	
5020	0	32089	32640	
5021	0	32040	32738	
5022	0	32944	32672	
5023	0	32604	32727	
5024	0	33081	32678	
5025	0	33192	32884	
5026	0	33084	32966	
5027	0	33338	33086	
5028	0	33140	32822	
5029	0	32810	33086	
5030	0	32985	32870	
5031	0	32812	32804	
5032	0	32422	32603	
5033	0	32408	32775	
5034	0	32616	32932	
5035	0	32864	33062	
5036	0	33224	32620	
5037	0	33636	32518	
5038	0	33822	32580	
5039	0	33808	32593	
5040	0	33434	32576	
5041	0	32960	32647	
5042	0	32364	32608	
5043	0	32119	32740	
5044	0	32154	32806	
5045	0	31648	32772	
5046	0	31716	32750	
5047	0	31903	32676	
5048	0	32364	32807	
5049	0	32498	32868	
5050	0	32232	32700	
5051	0	32404	32784	
5052	0	33044	32868	
5053	0	32878	32722	
5054	0	33452	32750	
5055	0	33448	32612	
5056	0	33390	32670	
5057	0	32764	32756	
5058	0	33268	32758	
5059	0	32968	32500	
5060	0	33024	32624	
5061	0	32968	32963	
5062	0	33000	33058	
5063	0	32976	32848	
5064	0	33104	32762	
5065	0	33172	32737	
5066	0	33204	32758	
5067	0	32944	32846	
5068	0	32836	32940	
5069	0	32780	32958	
5070	0	32712	32775	
5071	0	32856	32561	
5072	0	32384	32822	
5073	0	32292	32676	
5074	0	32410	32740	
5075	0	32596	32910	
5076	0	32920	32873	
5077	0	32860	32750	
5078	0	32810	32775	
5079	0	33084	32510	
5080	0	33034	32614	
5081	0	32824	32782	
5082	0	32546	32822	
5083	0	32654	32872	
5084	0	32814	32798	
5085	0	32780	32606	
5086	0	33008	32704	
5087	0	33056	32738	
5088	0	32914	32742	
5089	0	32902	32664	
5090	0	32778	32804	
5091	0	32739	32775	
5092	0	32612	32674	
5093	0	32944	32775	
5094	0	33191	32794	
5095	0	33400	32679	
5096	0	33330	32840	
5097	0	32342	32798	
5098	0	32388	32736	
5099	0	32856	32654	
5100	0	32408	32788	
5101	0	31706	32911	
5102	0	31832	33098	
5103	0	31888	32814	
5104	0	31526	32697	
5105	0	31912	32738	
5106	0	32956	32460	
5107	0	33348	32492	
5108	0	32888	32726	
5109	0	32800	32984	
5110	0	33254	32726	
5111	0	33269	32807	
5112	0	33068	32903	
5113	0	32900	32892	
5114	0	33348	33144	
5115	0	33280	32884	
5116	0	33400	32828	
5117	0	32799	32660	
5118	0	33016	32810	
5119	0	32844	32720	
5120	0	32992	32826	
5121	0	33004	32740	
5122	0	32902	32448	
5123	0	32754	32423	
5124	0	33024	32748	
5125	0	32978	32646	
5126	0	33056	32740	
5127	0	32722	32839	
5128	0	32512	32756	
5129	0	32712	32681	
5130	0	32960	32766	
5131	0	32740	32867	
5132	0	32714	32894	
5133	0	32774	32752	
5134	0	32804	33052	
5135	0	32740	32916	
5136	0	32686	32528	
5137	0	32450	32674	
5138	0	32956	32656	
5139	0	32900	32686	
5140	0	33072	32775	
5141	0	32746	32922	
5142	0	32481	32607	
5143	0	32586	32743	
5144	0	32740	32769	
5145	0	33030	32856	
5146	0	33040	32934	
5147	0	32886	32775	
5148	0	32708	32780	
5149	0	32792	32750	
5150	0	32912	32732	
5151	0	32904	32756	
5152	0	32993	32724	
5153	0	32968	32921	
5154	0	32938	32830	
5155	0	32840	32708	
5156	0	32826	33016	
5157	0	32732	33074	
5158	0	32634	32826	
5159	0	32544	32548	
5160	0	32634	32486	
5161	0	32764	32464	
5162	0	32564	32775	
5163	0	32756	32724	
5164	0	32764	32686	
5165	0	32844	32766	
5166	0	32996	32828	
5167	0	33040	32692	
5168	0	32742	32724	
5169	0	32964	32600	
5170	0	32768	32872	
5171	0	32684	32740	
5172	0	32769	32852	
5173	0	32860	32992	
5174	0	32822	32738	
5175	0	32908	32708	
5176	0	32852	32788	
5177	0	32840	32804	
5178	0	32478	32880	
5179	0	32548	32966	
5180	0	32510	32994	
5181	0	32716	33016	
5182	0	32692	32968	
5183	0	32862	32837	
5184	0	33012	32900	
5185	0	33130	32660	
5186	0	33164	32984	
5187	0	32968	32758	
5188	0	32712	32561	
5189	0	32750	32746	
5190	0	32706	32604	
5191	0	32764	32638	
5192	0	32670	32684	
5193	0	32476	32758	
5194	0	32680	32866	
5195	0	32850	32710	
5196	0	32828	32791	
5197	0	32634	32808	
5198	0	33140	32742	
5199	0	33182	32760	
5200	0	33196	32870	
5201	0	32528	32796	
5202	0	32512	32604	
5203	0	32772	32804	
5204	0	33212	32750	
5205	0	33016	32812	
5206	0	32870	32618	
5207	0	32968	32848	
5208	0	32780	32860	
5209	0	32778	32836	
5210	0	32760	32638	
5211	0	32836	32569	
5212	0	32544	32660	
5213	0	32604	32742	
5214	0	32788	32790	
5215	0	32740	32732	
5216	0	32740	32665	
5217	0	32926	32804	
5218	0	32908	32789	
5219	0	32960	32828	
5220	0	32880	32860	
5221	0	32944	32847	
5222	0	32980	32824	
5223	0	33012	32750	
5224	0	32832	32730	
5225	0	32974	32838	
5226	0	32968	32764	
5227	0	32812	32588	
5228	0	32604	32620	
5229	0	32436	32697	
5230	0	32512	32920	
5231	0	32529	33095	
5232	0	32528	32798	
5233	0	32610	32756	
5234	0	32802	32698	
5235	0	32660	32784	
5236	0	32662	32708	
5237	0	32900	32550	
5238	0	32848	32734	
5239	0	32872	32734	
5240	0	33028	32728	
5241	0	32920	32900	
5242	0	32838	32730	
5243	0	32736	32846	
5244	0	32860	32736	
5245	0	32952	32768	
5246	0	32992	32790	
5247	0	32682	32742	
5248	0	32796	32720	
5249	0	33090	32775	
5250	0	32860	32798	
5251	0	32909	32662	
5252	0	32816	32692	
5253	0	32740	32686	
5254	0	33036	32692	
5255	0	32954	32920	
5256	0	32956	32958	
5257	0	32848	32871	
5258	0	32710	32815	
5259	0	32754	32916	
5260	0	32884	32918	
5261	0	32504	32808	
5262	0	32596	32758	
5263	0	32660	32750	
5264	0	32702	32620	
5265	0	32912	32586	
5266	0	32924	32340	
5267	0	33026	32660	
5268	0	32852	32670	
5269	0	32760	32738	
5270	0	33252	32800	
5271	0	32628	32822	
5272	0	32750	32749	
5273	0	32760	32654	
5274	0	32812	32884	
5275	0	32826	32860	
5276	0	32678	32816	
5277	0	32736	32632	
5278	0	32728	32812	
5279	0	32740	32764	
5280	0	32792	32847	
5281	0	32736	32900	
5282	0	32834	32820	
5283	0	32885	32748	
5284	0	32894	32862	
5285	0	32926	32524	
5286	0	33048	32682	
5287	0	32980	32726	
5288	0	32774	32440	
5289	0	32756	32762	
5290	0	32852	32671	
5291	0	32676	32538	
5292	0	32732	32948	
5293	0	32696	33164	
5294	0	32692	32956	
5295	0	32578	32944	
5296	0	32812	32874	
5297	0	32860	32774	
5298	0	32712	32702	
5299	0	32722	32712	
5300	0	32752	32711	
5301	0	32764	32706	
5302	0	32996	32815	
5303	0	33062	32772	
5304	0	32656	32767	
5305	0	32982	32820	
5306	0	32856	32736	
5307	0	32776	32822	
5308	0	32775	32862	
5309	0	32878	32770	
5310	0	32836	32746	
5311	0	32588	32724	
5312	0	32628	32756	
5313	0	32712	32684	
5314	0	32624	32684	
5315	0	32724	32740	
5316	0	32638	32886	
5317	0	32626	32762	
5318	0	32716	32623	
5319	0	32772	32576	
5320	0	32896	32634	
5321	0	32722	32902	
5322	0	32744	32754	
5323	0	32976	32598	
5324	0	32980	32818	
5325	0	33130	32842	
5326	0	33060	32892	
5327	0	33016	32674	
5328	0	32712	32854	
5329	0	32992	32764	
5330	0	32660	32548	
5331	0	32520	32768	
5332	0	32820	32820	
5333	0	32792	32819	
5334	0	32714	32830	
5335	0	33160	32744	
5336	0	33116	32748	
5337	0	32806	32775	
5338	0	32946	32748	
5339	0	32572	32662	
5340	0	32842	32790	
5341	0	32868	32874	
5342	0	32866	32782	
5343	0	32826	32822	
5344	0	32766	32722	
5345	0	32666	32702	
5346	0	32618	32592	
5347	0	32944	32775	
5348	0	32904	32647	
5349	0	32824	32768	
5350	0	32820	32935	
5351	0	32556	32802	
5352	0	32756	32844	
5353	0	32658	32818	
5354	0	32902	32672	
5355	0	32798	32839	
5356	0	32576	32832	
5357	0	32976	32726	
5358	0	32768	32775	
5359	0	32862	32762	
5360	0	33136	32784	
5361	0	33024	32836	
5362	0	32892	32823	
5363	0	32776	32898	
5364	0	32748	32604	
5365	0	32652	32772	
5366	0	32730	32798	
5367	0	32884	32834	
5368	0	32846	32781	
5369	0	32808	32719	
5370	0	32828	32726	
5371	0	32812	32820	
5372	0	32774	32756	
5373	0	32756	32748	
5374	0	32820	32602	
5375	0	32880	32684	
5376	0	32828	32744	
5377	0	32804	32638	
5378	0	32852	32711	
5379	0	33072	32713	
5380	0	32548	32732	
5381	0	32884	32910	
5382	0	32624	32816	
5383	0	32790	32822	
5384	0	32806	32828	
5385	0	32742	32722	
5386	0	32888	32964	
5387	0	32865	32960	
5388	0	32980	32838	
5389	0	32948	33078	
5390	0	32804	32903	
5391	0	32840	32664	
5392	0	32964	32698	
5393	0	32912	32568	
5394	0	32824	32734	
5395	0	32860	32604	
5396	0	32816	32734	
5397	0	32834	32775	
5398	0	32792	32916	
5399	0	32792	32762	
5400	0	32856	32748	
5401	0	32758	32850	
5402	0	32552	32910	
5403	0	32616	32732	
5404	0	32664	32755	
5405	0	32794	32772	
5406	0	32786	32647	
5407	0	32744	32751	
5408	0	32764	32758	
5409	0	32706	32696	
5410	0	32648	32572	
5411	0	32700	32647	
5412	0	32802	32710	
5413	0	33040	32647	
5414	0	33080	32712	
5415	0	33118	32710	
5416	0	33084	32583	
5417	0	32744	32647	
5418	0	32484	32624	
5419	0	32584	32519	
5420	0	32814	32660	
5421	0	33022	32726	
5422	0	32878	32654	
5423	0	32796	32632	
5424	0	32794	32593	
5425	0	33030	32488	
5426	0	32912	32538	
5427	0	32996	32967	
5428	0	32908	32842	
5429	0	32516	32762	
5430	0	32104	32830	
5431	0	32476	32832	
5432	0	32732	33018	
5433	0	32834	33183	
5434	0	32664	33092	
5435	0	32528	33223	
5436	0	32336	33376	
5437	0	32263	33450	
5438	0	32406	33464	
5439	0	32556	33173	
5440	0	32728	33028	
5441	0	32790	32942	
5442	0	32774	32885	
5443	0	32784	32799	
5444	0	32734	32871	
5445	0	32716	32711	
5446	0	32842	32788	
5447	0	32888	32718	
5448	0	32904	32647	
5449	0	33030	32681	
5450	0	33000	32679	
5451	0	32902	32476	
5452	0	32952	32622	
5453	0	33070	32576	
5454	0	32900	32514	
5455	0	32934	32593	
5456	0	32904	32540	
5457	0	33032	32487	
5458	0	33058	32682	
5459	0	32962	32718	
5460	0	32740	32704	
5461	0	32814	32722	
5462	0	32862	32676	
5463	0	32750	32624	
5464	0	32908	32696	
5465	0	33006	32614	
5466	0	33080	32666	
5467	0	33032	32714	
5468	0	32920	32740	
5469	0	32836	32889	
5470	0	32818	32710	
5471	0	32924	32713	
5472	0	32824	32660	
5473	0	32748	32593	
5474	0	32904	32814	
5475	0	32970	32736	
5476	0	32912	32850	
5477	0	32824	32764	
5478	0	32744	32653	
5479	0	32802	32872	
5480	0	32756	32903	
5481	0	32732	32644	
5482	0	32670	32775	
5483	0	32728	32852	
5484	0	32992	32736	
5485	0	32680	32828	
5486	0	32598	32856	
5487	0	32876	32814	
5488	0	32784	32856	
5489	0	32824	32838	
5490	0	32781	32678	
5491	0	32974	32688	
5492	0	32932	32646	
5493	0	32900	32590	
5494	0	32812	32615	
5495	0	32846	32806	
5496	0	32858	32748	
5497	0	32682	32852	
5498	0	32708	32862	
5499	0	32764	32804	
5500	0	32788	32922	
5501	0	32592	32708	
5502	0	32724	32756	
5503	0	32854	32766	
5504	0	32968	32663	
5505	0	32963	32896	
5506	0	33008	32916	
5507	0	32984	32827	
5508	0	32792	32840	
5509	0	32640	32679	
5510	0	32426	32354	
5511	0	32642	32682	
5512	0	32880	32876	
5513	0	32976	32793	
5514	0	32884	32860	
5515	0	32892	32984	
5516	0	32866	32896	
5517	0	32790	32924	
5518	0	32748	32708	
5519	0	32598	32414	
5520	0	32816	32681	
5521	0	33144	32742	
5522	0	32872	32726	
5523	0	32972	32870	
5524	0	32952	32768	
5525	0	32978	32650	
5526	0	32912	32767	
5527	0	32860	32818	
5528	0	32814	32724	
5529	0	32856	32965	
5530	0	32752	32871	
5531	0	32772	32615	
5532	0	32712	32728	
5533	0	32696	32716	
5534	0	32716	32668	
5535	0	32674	32786	
5536	0	32676	32820	
5537	0	32710	32694	
5538	0	32712	32712	
5539	0	32756	32836	
5540	0	32784	32806	
5541	0	32812	32812	
5542	0	32772	32824	
5543	0	32770	32613	
5544	0	32820	32854	
5545	0	32758	32774	
5546	0	32772	32722	
5547	0	32828	32647	
5548	0	32749	32825	
5549	0	32752	32798	
5550	0	32770	32714	
5551	0	32804	32788	
5552	0	32896	32746	
5553	0	32944	32775	
5554	0	32892	32646	
5555	0	32750	32775	
5556	0	32586	32842	
5557	0	32648	32683	
5558	0	32772	32714	
5559	0	32852	32775	
5560	0	32780	32828	
5561	0	32476	32839	
5562	0	32650	32876	
5563	0	32892	32788	
5564	0	32892	32871	
5565	0	32938	32871	
5566	0	32942	32687	
5567	0	32900	32700	
5568	0	32916	32996	
5569	0	32900	32932	
5570	0	32844	32769	
5571	0	32810	32663	
5572	0	32784	32832	
5573	0	32764	32775	
5574	0	32832	32839	
5575	0	32840	32728	
5576	0	32872	32798	
5577	0	32864	32768	
5578	0	32876	32719	
5579	0	32836	32772	
5580	0	32762	32800	
5581	0	32748	32890	
5582	0	32720	32878	
5583	0	32784	32903	
5584	0	32812	32482	
5585	0	32860	32539	
5586	0	32828	32775	
5587	0	32858	32806	
5588	0	32832	32788	
5589	0	32880	32768	
5590	0	32856	32765	
5591	0	32848	32666	
5592	0	32888	32752	
5593	0	32852	32870	
5594	0	32880	32762	
5595	0	32800	32818	
5596	0	32864	32812	
5597	0	32784	32574	
5598	0	32794	32832	
5599	0	32748	32768	
5600	0	32772	32886	
5601	0	32824	32742	
5602	0	32748	32796	
5603	0	32826	32848	
5604	0	32916	32772	
5605	0	32860	32834	
5606	0	32836	32875	
5607	0	32816	32756	
5608	0	32780	32732	
5609	0	32732	32746	
5610	0	32812	32660	
5611	0	32712	32687	
5612	0	32760	32680	
5613	0	32724	32775	
5614	0	32726	32884	
5615	0	32844	32808	
5616	0	32836	32716	
5617	0	32888	32634	
5618	0	32864	32743	
5619	0	32860	32775	
5620	0	32886	32816	
5621	0	32892	32712	
5622	0	32808	32790	
5623	0	32756	32804	
5624	0	32680	32730	
5625	0	32704	32788	
5626	0	32718	32775	
5627	0	32824	32718	
5628	0	32812	32762	
5629	0	32770	32818	
5630	0	32764	32804	
5631	0	32774	32750	
5632	0	32764	32723	
5633	0	32762	32876	
5634	0	32694	32825	
5635	0	32798	32775	
5636	0	32814	32721	
5637	0	32804	32610	
5638	0	32844	32736	
5639	0	32826	32692	
5640	0	32853	32734	
5641	0	32790	32812	
5642	0	32792	32693	
5643	0	32796	32710	
5644	0	32868	32714	
5645	0	32876	32808	
5646	0	32710	32832	
5647	0	32706	32935	
5648	0	32856	32850	
5649	0	32740	32738	
5650	0	32702	32823	
5651	0	32742	32810	
5652	0	32812	32740	
5653	0	32864	32662	
5654	0	32794	32711	
5655	0	32812	32572	
5656	0	32856	32735	
5657	0	32844	32886	
5658	0	32810	32814	
5659	0	32822	32830	
5660	0	32770	32738	
5661	0	32806	32642	
5662	0	32852	32750	
5663	0	32872	32646	
5664	0	32836	32796	
5665	0	32864	32814	
5666	0	32885	32812	
5667	0	32890	32726	
5668	0	32936	32790	
5669	0	32832	32892	
5670	0	32783	32848	
5671	0	32808	32666	
5672	0	32820	32775	
5673	0	32780	32676	
5674	0	32788	32827	
5675	0	32778	32694	
5676	0	32712	32750	
5677	0	32780	32800	
5678	0	32968	32749	
5679	0	32864	32894	
5680	0	32874	32700	
5681	0	32852	32814	
5682	0	32720	32828	
5683	0	32676	32742	
5684	0	32760	32858	
5685	0	32748	32806	
5686	0	32842	32798	
5687	0	32800	32676	
5688	0	32750	32519	
5689	0	32840	32884	
5690	0	32804	32884	
5691	0	32738	32892	
5692	0	32712	32707	
5693	0	32796	32790	
5694	0	32746	32874	
5695	0	32778	32764	
5696	0	32804	32673	
5697	0	32828	32636	
5698	0	32814	32884	
5699	0	32924	32990	
5700	0	32952	32814	
5701	0	32823	32808	
5702	0	32753	32914	
5703	0	32698	32812	
5704	0	32713	32800	
5705	0	32712	32750	
5706	0	32806	32801	
5707	0	32874	32826	
5708	0	32806	32733	
5709	0	32740	32729	
5710	0	32652	32782	
5711	0	32788	32826	
5712	0	32780	32716	
5713	0	32860	32865	
5714	0	32890	32762	
5715	0	32782	32748	
5716	0	32948	32838	
5717	0	32906	32882	
5718	0	32720	32791	
5719	0	32830	32764	
5720	0	32880	32824	
5721	0	32958	32692	
5722	0	32858	32775	
5723	0	32822	32901	
5724	0	32600	32668	
5725	0	32708	32754	
5726	0	33036	32762	
5727	0	32846	32952	
5728	0	32740	32830	
5729	0	32818	32674	
5730	0	32818	32584	
5731	0	32800	32662	
5732	0	32764	32751	
5733	0	32744	32804	
5734	0	32860	32836	
5735	0	32868	32807	
5736	0	32837	32764	
5737	0	32836	32735	
5738	0	32864	32794	
5739	0	32916	32887	
5740	0	32808	32741	
5741	0	32782	32864	
5742	0	32806	32760	
5743	0	32934	32794	
5744	0	32900	32786	
5745	0	32804	32670	
5746	0	32808	32842	
5747	0	32802	32882	
5748	0	32804	32793	
5749	0	32826	32686	
5750	0	32888	32729	
5751	0	32912	32812	
5752	0	32844	32794	
5753	0	32752	32682	
5754	0	32716	32756	
5755	0	32682	32668	
5756	0	32800	32526	
5757	0	32936	32689	
5758	0	32880	32821	
5759	0	32884	32939	
5760	0	32852	32816	
5761	0	32802	32666	
5762	0	32920	32824	
5763	0	32856	32854	
5764	0	32668	32722	
5765	0	32788	32652	
5766	0	32936	32784	
5767	0	32810	32924	
5768	0	32848	32768	
5769	0	32864	32839	
5770	0	32834	32775	
5771	0	32740	32822	
5772	0	32764	32800	
5773	0	32858	32813	
5774	0	32832	32688	
5775	0	32802	32796	
5776	0	32760	32680	
5777	0	32782	32700	
5778	0	32824	32750	
5779	0	32832	32756	
5780	0	32880	32732	
5781	0	32864	32738	
5782	0	32792	32794	
5783	0	32768	32746	
5784	0	32698	32858	
5785	0	32796	32724	
5786	0	32810	32760	
5787	0	32872	32830	
5788	0	32830	32798	
5789	0	32828	32699	
5790	0	32812	32642	
5791	0	32757	32756	
5792	0	32808	32734	
5793	0	32804	32860	
5794	0	32792	32650	
5795	0	32828	32655	
5796	0	32892	32690	
5797	0	32780	32799	
5798	0	32844	32775	
5799	0	32886	32738	
5800	0	32740	32770	
5801	0	32752	32762	
5802	0	32794	32840	
5803	0	32804	32878	
5804	0	32836	32860	
5805	0	32738	32662	
5806	0	32714	32775	
5807	0	32848	32700	
5808	0	32832	32772	
5809	0	32714	32862	
5810	0	32678	32718	
5811	0	32714	32646	
5812	0	32820	32679	
5813	0	32804	32742	
5814	0	32884	32728	
5815	0	32808	32708	
5816	0	32852	32935	
5817	0	32768	32690	
5818	0	32752	32700	
5819	0	32810	32900	
5820	0	32796	32748	
5821	0	32758	32686	
5822	0	32746	32732	
5823	0	32790	32775	
5824	0	32808	32726	
5825	0	32804	32792	
5826	0	32824	32730	
5827	0	32780	32854	
5828	0	33060	32775	
5829	0	32964	32664	
5830	0	32928	32592	
5831	0	32768	32696	
5832	0	32732	32820	
5833	0	32952	32806	
5834	0	33004	32828	
5835	0	32938	32730	
5836	0	32780	32630	
5837	0	32592	32698	
5838	0	32496	32775	
5839	0	32606	32750	
5840	0	32660	32806	
5841	0	32760	32788	
5842	0	32888	32788	
5843	0	32922	32834	
5844	0	32906	32764	
5845	0	32922	32807	
5846	0	32844	32775	
5847	0	32846	32786	
5848	0	32924	32802	
5849	0	32824	32820	
5850	0	32864	32647	
5851	0	32860	32732	
5852	0	32768	32910	
5853	0	32772	32836	
5854	0	32732	32862	
5855	0	32748	32750	
5856	0	32808	32852	
5857	0	32800	32746	
5858	0	32730	32796	
5859	0	32836	32732	
5860	0	32814	32802	
5861	0	32808	32888	
5862	0	32848	32822	
5863	0	32880	32818	
5864	0	32900	32926	
5865	0	32828	32580	
5866	0	32828	32679	
5867	0	32896	32790	
5868	0	32864	32676	
5869	0	32826	32711	
5870	0	32840	32735	
5871	0	32800	32744	
5872	0	32842	32794	
5873	0	32760	32688	
5874	0	32808	32761	
5875	0	32852	32820	
5876	0	32910	32746	
5877	0	32820	32804	
5878	0	32812	32700	
5879	0	32852	32762	
5880	0	32816	32868	
5881	0	32820	32810	
5882	0	32835	32752	
5883	0	32836	32692	
5884	0	32792	32804	
5885	0	32792	32764	
5886	0	32790	32784	
5887	0	32784	32749	
5888	0	32760	32831	
5889	0	32880	32799	
5890	0	32798	32774	
5891	0	32876	32762	
5892	0	32836	32807	
5893	0	32828	32828	
5894	0	32834	32764	
5895	0	32704	32724	
5896	0	32792	32607	
5897	0	32720	32748	
5898	0	32866	32788	
5899	0	32802	32721	
5900	0	32804	32799	
5901	0	32796	32801	
5902	0	32860	32884	
5903	0	32880	32774	
5904	0	32858	32839	
5905	0	32860	32868	
5906	0	32845	32734	
5907	0	32816	32674	
5908	0	32878	32860	
5909	0	32872	32970	
5910	0	32910	32742	
5911	0	32882	32766	
5912	0	32853	32682	
5913	0	32860	32814	
5914	0	32800	32798	
5915	0	32820	32824	
5916	0	32847	32758	
5917	0	32884	32692	
5918	0	32812	32798	
5919	0	32788	32815	
5920	0	32801	32674	
5921	0	32684	32844	
5922	0	32672	32728	
5923	0	32836	32681	
5924	0	32782	32727	
5925	0	32736	32814	
5926	0	32680	32738	
5927	0	32648	32676	
5928	0	32696	32800	
5929	0	32852	32775	
5930	0	32818	32719	
5931	0	32848	32858	
5932	0	32948	32774	
5933	0	32864	32802	
5934	0	32822	32758	
5935	0	32718	32743	
5936	0	32744	32768	
5937	0	32920	32792	
5938	0	32794	32695	
5939	0	32828	32831	
5940	0	32804	32798	
5941	0	32696	32694	
5942	0	32792	32793	
5943	0	32748	32794	
5944	0	32876	32722	
5945	0	32912	32567	
5946	0	32896	32718	
5947	0	32860	32852	
5948	0	32862	32764	
5949	0	32774	32832	
5950	0	32778	32593	
5951	0	32746	32724	
5952	0	32788	32847	
5953	0	32796	32840	
5954	0	32808	32852	
5955	0	32836	32746	
5956	0	32766	32848	
5957	0	32768	32815	
5958	0	32776	32869	
5959	0	32794	32704	
5960	0	32812	32764	
5961	0	32834	32708	
5962	0	32804	32802	
5963	0	32868	32680	
5964	0	32826	32826	
5965	0	32668	32804	
5966	0	32648	32740	
5967	0	32736	32682	
5968	0	32772	32818	
5969	0	32792	32801	
5970	0	32784	32746	
5971	0	32772	32742	
5972	0	32726	32868	
5973	0	32844	32810	
5974	0	32868	32686	
5975	0	32806	32740	
5976	0	32864	32818	
5977	0	32964	32703	
5978	0	32818	32722	
5979	0	32753	32798	
5980	0	32828	32714	
5981	0	32732	32766	
5982	0	32768	32700	
5983	0	32842	32862	
5984	0	32924	32775	
5985	0	32942	32780	
5986	0	32834	32885	
5987	0	32830	32708	
5988	0	32740	32734	
5989	0	32804	32660	
5990	0	32800	32738	
5991	0	32746	32775	
5992	0	32824	32718	
5993	0	32832	32736	
5994	0	32928	32720	
5995	0	32918	32802	
5996	0	32756	32711	
5997	0	32692	32723	
5998	0	32764	32810	
5999	0	32736	32682	
6000	0	32838	32818	
6001	0	32876	32807	
6002	0	32836	32836	
6003	0	32836	32848	
6004	0	32868	32828	
6005	0	32900	32668	
6006	0	32858	32684	
6007	0	32908	32789	
6008	0	32864	32758	
6009	0	32860	32738	
6010	0	32710	32756	
6011	0	32748	32700	
6012	0	32740	32800	
