# OpenSignals Text File Format. Version 1
# {"00:07:80:8C:0A:39": {"position": 0, "device": "biosignalsplux", "device name": "00:07:80:8C:0A:39", "device connection": "BTH00:07:80:8C:0A:39", "sampling rate": 1000, "resolution": [16, 16], "firmware version": 776, "comments": "", "keywords": "", "mode": 0, "sync interval": 2, "date": "2023-3-19", "time": "11:21:46.357", "channels": [1, 2], "sensor": ["EMG", "EMG"], "label": ["CH1", "CH2"], "column": ["nSeq", "DI", "CH1", "CH2"], "special": [{"SpO2": [80, 40, 5, 4, 3, 3]}, {"SpO2": [80, 40, 5, 4, 3, 3]}, {"SpO2": [80, 40, 5, 4, 3, 3]}, {"SpO2": [80, 40, 5, 4, 3, 3]}, {"SpO2": [80, 40, 5, 4, 3, 3]}, {"SpO2": [80, 40, 5, 4, 3, 3]}, {"SpO2": [80, 40, 5, 4, 3, 3]}, {"SpO2": [80, 40, 5, 4, 3, 3]}], "digital IO": [0, 1], "sleeve color": ["gray", "yellow"], "convertedValues": 0}}
# EndOfHeader
0	0	32788	32684	
1	0	32772	32762	
2	0	32828	32726	
3	0	32824	32790	
4	0	32794	32775	
5	0	32768	32722	
6	0	32888	32768	
7	0	32914	32678	
8	0	32812	32774	
9	0	32740	32722	
10	0	32776	32724	
11	0	32856	32679	
12	0	32836	32790	
13	0	32816	32716	
14	0	32852	32775	
15	0	32836	32686	
16	0	32752	32688	
17	0	32788	32658	
18	0	32792	32775	
19	0	32823	32644	
20	0	32816	32810	
21	0	32852	32746	
22	0	32792	32806	
23	0	32836	32788	
24	0	32864	32854	
25	0	32816	32720	
26	0	32802	32784	
27	0	32840	32686	
28	0	32816	32740	
29	0	32814	32704	
30	0	32836	32804	
31	0	32806	32756	
32	0	32814	32768	
33	0	32884	32694	
34	0	32764	32758	
35	0	32768	32780	
36	0	32896	32775	
37	0	32782	32754	
38	0	32828	32775	
39	0	32834	32728	
40	0	32856	32828	
41	0	32798	32799	
42	0	32760	32768	
43	0	32858	32802	
44	0	32830	32772	
45	0	32806	32844	
46	0	32821	32756	
47	0	32784	32815	
48	0	32832	32820	
49	0	32772	32850	
50	0	32798	32824	
51	0	32844	32828	
52	0	32718	32740	
53	0	32800	32806	
54	0	32858	32718	
55	0	32856	32810	
56	0	32822	32790	
57	0	32824	32762	
58	0	32796	32775	
59	0	32817	32892	
60	0	32824	32744	
61	0	32780	32830	
62	0	32816	32770	
63	0	32784	32828	
64	0	32758	32710	
65	0	32838	32698	
66	0	32814	32696	
67	0	32794	32775	
68	0	32790	32790	
69	0	32801	32832	
70	0	32798	32712	
71	0	32822	32786	
72	0	32820	32706	
73	0	32844	32884	
74	0	32810	32815	
75	0	32772	32798	
76	0	32812	32769	
77	0	32821	32812	
78	0	32772	32756	
79	0	32848	32730	
80	0	32840	32764	
81	0	32834	32788	
82	0	32834	32775	
83	0	32784	32732	
84	0	32848	32742	
85	0	32796	32750	
86	0	32826	32804	
87	0	32836	32695	
88	0	32852	32775	
89	0	32896	32750	
90	0	32844	32762	
91	0	32736	32836	
92	0	32744	32864	
93	0	32828	32860	
94	0	32772	32734	
95	0	32770	32834	
96	0	32768	32740	
97	0	32836	32774	
98	0	32826	32876	
99	0	32764	32876	
100	0	32810	32762	
101	0	32752	32774	
102	0	32804	32789	
103	0	32784	32689	
104	0	32812	32845	
105	0	32856	32692	
106	0	32832	32804	
107	0	32828	32866	
108	0	32792	32844	
109	0	32812	32774	
110	0	32790	32756	
111	0	32752	32742	
112	0	32796	32743	
113	0	32780	32664	
114	0	32794	32710	
115	0	32784	32831	
116	0	32832	32744	
117	0	32826	32695	
118	0	32816	32712	
119	0	32816	32708	
120	0	32896	32828	
121	0	32804	32832	
122	0	32764	32704	
123	0	32872	32839	
124	0	32804	32852	
125	0	32808	32692	
126	0	32872	32804	
127	0	32824	32852	
128	0	32854	32736	
129	0	32736	32823	
130	0	32780	32719	
131	0	32834	32760	
132	0	32784	32700	
133	0	32884	32768	
134	0	32824	32800	
135	0	32824	32775	
136	0	32838	32831	
137	0	32840	32695	
138	0	32878	32727	
139	0	32794	32584	
140	0	32768	32794	
141	0	32766	32822	
142	0	32774	32642	
143	0	32856	32862	
144	0	32832	32770	
145	0	32892	32775	
146	0	32849	32750	
147	0	32828	32670	
148	0	32836	32820	
149	0	32856	32724	
150	0	32858	32774	
151	0	32812	32794	
152	0	32764	32692	
153	0	32854	32708	
154	0	32760	32720	
155	0	32810	32850	
156	0	32756	32728	
157	0	32796	32839	
158	0	32792	32836	
159	0	32804	32711	
160	0	32812	32812	
161	0	32808	32870	
162	0	32788	32775	
163	0	32844	32762	
164	0	32849	32742	
165	0	32828	32702	
166	0	32850	32722	
167	0	32760	32796	
168	0	32828	32847	
169	0	32886	32736	
170	0	32840	32838	
171	0	32820	32767	
172	0	32772	32732	
173	0	32824	32786	
174	0	32772	32811	
175	0	32836	32814	
176	0	32808	32712	
177	0	32768	32775	
178	0	32804	32692	
179	0	32804	32852	
180	0	32788	32824	
181	0	32794	32678	
182	0	32826	32760	
183	0	32834	32767	
184	0	32888	32772	
185	0	32888	32864	
186	0	32776	32646	
187	0	32856	32713	
188	0	32911	32690	
189	0	32828	32775	
190	0	32848	32832	
191	0	32828	32748	
192	0	32802	32754	
193	0	32788	32782	
194	0	32820	32682	
195	0	32776	32790	
196	0	32780	32700	
197	0	32792	32775	
198	0	32758	32743	
199	0	32826	32768	
200	0	32836	32735	
201	0	32790	32728	
202	0	32742	32761	
203	0	32796	32757	
204	0	32884	32820	
205	0	32828	32768	
206	0	32808	32862	
207	0	32802	32839	
208	0	32798	32768	
209	0	32840	32860	
210	0	32808	32828	
211	0	32828	32806	
212	0	32836	32808	
213	0	32774	32822	
214	0	32870	32738	
215	0	32824	32764	
216	0	32852	32701	
217	0	32757	32816	
218	0	32862	32857	
219	0	32706	32874	
220	0	32828	32812	
221	0	32836	32756	
222	0	32760	32826	
223	0	32744	32700	
224	0	32864	32853	
225	0	32807	32686	
226	0	32802	32756	
227	0	32814	32731	
228	0	32840	32768	
229	0	32814	32710	
230	0	32908	32912	
231	0	32780	32823	
232	0	32816	32772	
233	0	32794	32684	
234	0	32764	32807	
235	0	32836	32738	
236	0	32848	32714	
237	0	32780	32798	
238	0	32804	32770	
239	0	32808	32804	
240	0	32844	32882	
241	0	32810	32724	
242	0	32778	32759	
243	0	32812	32768	
244	0	32858	32795	
245	0	32808	32802	
246	0	32772	32837	
247	0	32814	32710	
248	0	32824	32846	
249	0	32760	32766	
250	0	32832	32758	
251	0	32858	32676	
252	0	32724	32846	
253	0	32888	32798	
254	0	32822	32775	
255	0	32812	32807	
256	0	32774	32728	
257	0	32794	32756	
258	0	32808	32710	
259	0	32816	32852	
260	0	32816	32714	
261	0	32820	32775	
262	0	32788	32760	
263	0	32870	32736	
264	0	32768	32828	
265	0	32775	32764	
266	0	32808	32851	
267	0	32820	32796	
268	0	32828	32766	
269	0	32792	32772	
270	0	32762	32716	
271	0	32784	32764	
272	0	32812	32838	
273	0	32754	32676	
274	0	32814	32810	
275	0	32786	32805	
276	0	32888	32646	
277	0	32750	32775	
278	0	32818	32718	
279	0	32744	32756	
280	0	32840	32620	
281	0	32868	32792	
282	0	32884	32716	
283	0	32800	32790	
284	0	32752	32726	
285	0	32820	32693	
286	0	32800	32740	
287	0	32822	32836	
288	0	32812	32764	
289	0	32800	32814	
290	0	32792	32744	
291	0	32790	32772	
292	0	32848	32702	
293	0	32824	32734	
294	0	32810	32678	
295	0	32840	32702	
296	0	32792	32686	
297	0	32796	32772	
298	0	32852	32717	
299	0	32816	32775	
300	0	32744	32689	
301	0	32780	32832	
302	0	32798	32740	
303	0	32832	32808	
304	0	32812	32844	
305	0	32808	32836	
306	0	32832	32836	
307	0	32864	32684	
308	0	32880	32824	
309	0	32808	32710	
310	0	32808	32796	
311	0	32768	32762	
312	0	32780	32806	
313	0	32804	32780	
314	0	32753	32740	
315	0	32794	32803	
316	0	32808	32775	
317	0	32824	32850	
318	0	32812	32678	
319	0	32856	32812	
320	0	32828	32772	
321	0	32848	32743	
322	0	32798	32786	
323	0	32824	32740	
324	0	32856	32860	
325	0	32736	32788	
326	0	32792	32738	
327	0	32828	32832	
328	0	32828	32722	
329	0	32770	32756	
330	0	32788	32752	
331	0	32908	32818	
332	0	32808	32788	
333	0	32820	32674	
334	0	32806	32746	
335	0	32744	32686	
336	0	32792	32844	
337	0	32856	32775	
338	0	32868	32698	
339	0	32894	32764	
340	0	32748	32728	
341	0	32780	32802	
342	0	32766	32790	
343	0	32774	32754	
344	0	32768	32800	
345	0	32792	32679	
346	0	32800	32718	
347	0	32808	32750	
348	0	32856	32814	
349	0	32812	32726	
350	0	32784	32774	
351	0	32756	32746	
352	0	32746	32732	
353	0	32844	32802	
354	0	32881	32674	
355	0	32806	32788	
356	0	32776	32697	
357	0	32804	32670	
358	0	32852	32715	
359	0	32788	32684	
360	0	32808	32871	
361	0	32836	32852	
362	0	32792	32716	
363	0	32832	32807	
364	0	32832	32816	
365	0	32820	32806	
366	0	32788	32831	
367	0	32828	32775	
368	0	32832	32756	
369	0	32774	32711	
370	0	32808	32890	
371	0	32844	32894	
372	0	32784	32670	
373	0	32768	32743	
374	0	32832	32720	
375	0	32792	32810	
376	0	32860	32806	
377	0	32846	32709	
378	0	32756	32792	
379	0	32788	32701	
380	0	32844	32798	
381	0	32786	32794	
382	0	32800	32775	
383	0	32782	32719	
384	0	32808	32638	
385	0	32892	32806	
386	0	32792	32664	
387	0	32894	32879	
388	0	32810	32838	
389	0	32844	32716	
390	0	32808	32754	
391	0	32814	32822	
392	0	32842	32775	
393	0	32832	32726	
394	0	32788	32782	
395	0	32788	32702	
396	0	32774	32766	
397	0	32794	32786	
398	0	32818	32806	
399	0	32830	32764	
400	0	32778	32760	
401	0	32810	32768	
402	0	32836	32743	
403	0	32802	32775	
404	0	32792	32708	
405	0	32726	32810	
406	0	32830	32826	
407	0	32816	32700	
408	0	32798	32796	
409	0	32744	32817	
410	0	32848	32854	
411	0	32848	32743	
412	0	32790	32862	
413	0	32886	32830	
414	0	32838	32796	
415	0	32848	32865	
416	0	32774	32802	
417	0	32752	32764	
418	0	32794	32839	
419	0	32786	32764	
420	0	32870	32734	
421	0	32818	32724	
422	0	32842	32652	
423	0	32828	32792	
424	0	32804	32678	
425	0	32798	32868	
426	0	32838	32800	
427	0	32760	32716	
428	0	32774	32736	
429	0	32854	32686	
430	0	32830	32812	
431	0	32744	32703	
432	0	32804	32886	
433	0	32826	32891	
434	0	32896	32666	
435	0	32798	32692	
436	0	32840	32714	
437	0	32754	32840	
438	0	32740	32812	
439	0	32832	32724	
440	0	32804	32818	
441	0	32820	32646	
442	0	32794	32806	
443	0	32788	32702	
444	0	32844	32768	
445	0	32902	32758	
446	0	32862	32804	
447	0	32828	32866	
448	0	32854	32775	
449	0	32780	32810	
450	0	32800	32692	
451	0	32744	32838	
452	0	32828	32900	
453	0	32793	32884	
454	0	32832	32820	
455	0	32752	32694	
456	0	32820	32840	
457	0	32860	32746	
458	0	32824	32804	
459	0	32786	32788	
460	0	32775	32764	
461	0	32820	32818	
462	0	32820	32750	
463	0	32752	32878	
464	0	32808	32810	
465	0	32808	32807	
466	0	32752	32688	
467	0	32826	32721	
468	0	32796	32666	
469	0	32862	32818	
470	0	32800	32704	
471	0	32796	32800	
472	0	32808	32859	
473	0	32768	32732	
474	0	32828	32775	
475	0	32804	32775	
476	0	32848	32830	
477	0	32824	32775	
478	0	32770	32722	
479	0	32836	32796	
480	0	32768	32650	
481	0	32806	32759	
482	0	32824	32878	
483	0	32766	32792	
484	0	32832	32775	
485	0	32754	32734	
486	0	32842	32769	
487	0	32804	32718	
488	0	32804	32846	
489	0	32874	32743	
490	0	32814	32614	
491	0	32788	32770	
492	0	32772	32750	
493	0	32788	32772	
494	0	32832	32888	
495	0	32784	32754	
496	0	32868	32820	
497	0	32808	32694	
498	0	32830	32740	
499	0	32788	32791	
500	0	32824	32724	
501	0	32832	32768	
502	0	32808	32719	
503	0	32784	32775	
504	0	32780	32756	
505	0	32848	32746	
506	0	32772	32726	
507	0	32780	32738	
508	0	32804	32871	
509	0	32778	32672	
510	0	32788	32750	
511	0	32868	32888	
512	0	32834	32656	
513	0	32866	32759	
514	0	32821	32734	
515	0	32772	32692	
516	0	32802	32775	
517	0	32802	32710	
518	0	32814	32788	
519	0	32828	32775	
520	0	32772	32743	
521	0	32858	32792	
522	0	32760	32764	
523	0	32756	32814	
524	0	32848	32828	
525	0	32770	32958	
526	0	32808	32768	
527	0	32834	32784	
528	0	32836	32775	
529	0	32808	32678	
530	0	32840	32748	
531	0	32792	32745	
532	0	32864	32698	
533	0	32836	32750	
534	0	32796	32808	
535	0	32796	32710	
536	0	32738	32772	
537	0	32862	32726	
538	0	32740	32878	
539	0	32794	32774	
540	0	32788	32662	
541	0	32786	32804	
542	0	32772	32792	
543	0	32832	32732	
544	0	32828	32775	
545	0	32828	32728	
546	0	32800	32746	
547	0	32810	32816	
548	0	32784	32720	
549	0	32804	32696	
550	0	32840	32812	
551	0	32826	32838	
552	0	32848	32668	
553	0	32872	32743	
554	0	32778	32641	
555	0	32756	32822	
556	0	32744	32768	
557	0	32784	32708	
558	0	32788	32798	
559	0	32817	32628	
560	0	32788	32736	
561	0	32794	32647	
562	0	32804	32838	
563	0	32816	32775	
564	0	32826	32742	
565	0	32804	32774	
566	0	32836	32708	
567	0	32732	32800	
568	0	32824	32722	
569	0	32836	32806	
570	0	32786	32828	
571	0	32828	32808	
572	0	32718	32926	
573	0	32814	32839	
574	0	32812	32738	
575	0	32852	32716	
576	0	32796	32687	
577	0	32802	32796	
578	0	32792	32842	
579	0	32780	32713	
580	0	32772	32775	
581	0	32816	32784	
582	0	32750	32746	
583	0	32824	32734	
584	0	32904	32774	
585	0	32884	32822	
586	0	32772	32836	
587	0	32908	32791	
588	0	32752	32736	
589	0	32808	32895	
590	0	32774	32816	
591	0	32792	32722	
592	0	32788	32746	
593	0	32870	32679	
594	0	32832	32769	
595	0	32824	32775	
596	0	32878	32647	
597	0	32820	32812	
598	0	32845	32706	
599	0	32792	32826	
600	0	32784	32652	
601	0	32792	32752	
602	0	32752	32690	
603	0	32834	32802	
604	0	32808	32709	
605	0	32856	32764	
606	0	32816	32788	
607	0	32822	32832	
608	0	32876	32756	
609	0	32804	32826	
610	0	32724	32830	
611	0	32817	32774	
612	0	32824	32775	
613	0	32792	32756	
614	0	32748	32736	
615	0	32844	32644	
616	0	32826	32820	
617	0	32808	32754	
618	0	32788	32775	
619	0	32832	32892	
620	0	32836	32710	
621	0	32784	32788	
622	0	32768	32700	
623	0	32808	32816	
624	0	32844	32700	
625	0	32828	32828	
626	0	32774	32831	
627	0	32770	32766	
628	0	32866	32742	
629	0	32836	32743	
630	0	32804	32752	
631	0	32792	32798	
632	0	32808	32676	
633	0	32804	32766	
634	0	32802	32666	
635	0	32812	32804	
636	0	32812	32775	
637	0	32836	32668	
638	0	32804	32823	
639	0	32884	32773	
640	0	32834	32742	
641	0	32836	32772	
642	0	32820	32720	
643	0	32796	32828	
644	0	32810	32796	
645	0	32852	32775	
646	0	32820	32742	
647	0	32824	32810	
648	0	32870	32790	
649	0	32804	32775	
650	0	32798	32740	
651	0	32832	32790	
652	0	32792	32764	
653	0	32780	32663	
654	0	32760	32735	
655	0	32818	32711	
656	0	32784	32812	
657	0	32844	32808	
658	0	32832	32647	
659	0	32774	32838	
660	0	32776	32768	
661	0	32820	32775	
662	0	32760	32695	
663	0	32782	32672	
664	0	32822	32847	
665	0	32804	32698	
666	0	32792	32884	
667	0	32848	32814	
668	0	32782	32676	
669	0	32838	32762	
670	0	32770	32696	
671	0	32836	32790	
672	0	32796	32664	
673	0	32832	32791	
674	0	32802	32848	
675	0	32810	32758	
676	0	32775	32830	
677	0	32828	32760	
678	0	32804	32770	
679	0	32856	32801	
680	0	32796	32806	
681	0	32808	32834	
682	0	32840	32752	
683	0	32856	32678	
684	0	32868	32684	
685	0	32792	32668	
686	0	32804	32822	
687	0	32838	32844	
688	0	32780	32743	
689	0	32880	32844	
690	0	32830	32730	
691	0	32840	32832	
692	0	32852	32848	
693	0	32812	32775	
694	0	32792	32751	
695	0	32792	32655	
696	0	32812	32775	
697	0	32754	32724	
698	0	32828	32846	
699	0	32840	32742	
700	0	32772	32676	
701	0	32764	32775	
702	0	32776	32647	
703	0	32792	32772	
704	0	32816	32844	
705	0	32804	32770	
706	0	32808	32807	
707	0	32808	32732	
708	0	32834	32743	
709	0	32808	32704	
710	0	32836	32738	
711	0	32804	32722	
712	0	32844	32756	
713	0	32860	32833	
714	0	32796	32724	
715	0	32816	32698	
716	0	32846	32814	
717	0	32774	32775	
718	0	32752	32740	
719	0	32836	32742	
720	0	32794	32775	
721	0	32798	32738	
722	0	32840	32746	
723	0	32822	32794	
724	0	32810	32775	
725	0	32826	32822	
726	0	32828	32774	
727	0	32830	32775	
728	0	32812	32752	
729	0	32798	32692	
730	0	32820	32644	
731	0	32800	32744	
732	0	32780	32834	
733	0	32848	32708	
734	0	32774	32838	
735	0	32808	32762	
736	0	32800	32800	
737	0	32828	32758	
738	0	32824	32740	
739	0	32856	32740	
740	0	32804	32742	
741	0	32789	32686	
742	0	32761	32807	
743	0	32817	32728	
744	0	32768	32744	
745	0	32856	32796	
746	0	32780	32656	
747	0	32832	32759	
748	0	32800	32725	
749	0	32788	32878	
750	0	32786	32774	
751	0	32844	32657	
752	0	32800	32772	
753	0	32894	32728	
754	0	32832	32839	
755	0	32764	32834	
756	0	32720	32766	
757	0	32760	32758	
758	0	32790	32728	
759	0	32704	32835	
760	0	32836	32748	
761	0	32788	32726	
762	0	32794	32767	
763	0	32872	32704	
764	0	32888	32772	
765	0	32788	32871	
766	0	32854	32758	
767	0	32870	32752	
768	0	32876	32638	
769	0	32864	32686	
770	0	32876	32568	
771	0	32916	32666	
772	0	32912	32607	
773	0	33008	32624	
774	0	32968	32725	
775	0	32954	32540	
776	0	32934	32652	
777	0	32948	32614	
778	0	32924	32647	
779	0	32976	32647	
780	0	32956	32687	
781	0	32900	32566	
782	0	32900	32682	
783	0	32910	32655	
784	0	32932	32764	
785	0	32862	32862	
786	0	32868	32807	
787	0	32764	32842	
788	0	32712	32866	
789	0	32588	32996	
790	0	32516	33104	
791	0	32464	33024	
792	0	32472	33088	
793	0	32407	33158	
794	0	32224	33476	
795	0	32224	33616	
796	0	32396	33367	
797	0	32560	33075	
798	0	32718	32931	
799	0	32736	32886	
800	0	32740	32775	
801	0	32780	32922	
802	0	32800	32791	
803	0	32780	32838	
804	0	32788	32775	
805	0	32810	32676	
806	0	32860	32678	
807	0	32852	32640	
808	0	32904	32617	
809	0	32940	32565	
810	0	32984	32448	
811	0	33040	32450	
812	0	33008	32464	
813	0	33020	32562	
814	0	32992	32420	
815	0	32896	32558	
816	0	33004	32625	
817	0	32900	32624	
818	0	32956	32652	
819	0	32896	32718	
820	0	32894	32668	
821	0	32874	32676	
822	0	32842	32684	
823	0	32900	32692	
824	0	32808	32758	
825	0	32902	32660	
826	0	32840	32728	
827	0	32768	32668	
828	0	32900	32750	
829	0	32780	32684	
830	0	32862	32756	
831	0	32860	32775	
832	0	32762	32704	
833	0	32824	32810	
834	0	32760	32807	
835	0	32744	32674	
836	0	32764	32750	
837	0	32770	32724	
838	0	32724	32824	
839	0	32808	32824	
840	0	32828	32828	
841	0	32780	32868	
842	0	32856	32775	
843	0	32778	32754	
844	0	32798	32710	
845	0	32820	32844	
846	0	32750	32740	
847	0	32756	32882	
848	0	32824	32807	
849	0	32808	32769	
850	0	32836	32818	
851	0	32824	32775	
852	0	32816	32762	
853	0	32756	32690	
854	0	32820	32775	
855	0	32856	32718	
856	0	32820	32826	
857	0	32828	32839	
858	0	32826	32756	
859	0	32816	32760	
860	0	32788	32746	
861	0	32824	32842	
862	0	32810	32692	
863	0	32775	32796	
864	0	32784	32772	
865	0	32814	32732	
866	0	32774	32774	
867	0	32792	32728	
868	0	32814	32714	
869	0	32796	32753	
870	0	32784	32714	
871	0	32816	32684	
872	0	32834	32834	
873	0	32772	32686	
874	0	32762	32807	
875	0	32752	32775	
876	0	32832	32766	
877	0	32830	32846	
878	0	32878	32698	
879	0	32828	32647	
880	0	32878	32794	
881	0	32882	32839	
882	0	32840	32774	
883	0	32816	32796	
884	0	32864	32735	
885	0	32804	32863	
886	0	32808	32775	
887	0	32808	32775	
888	0	32806	32762	
889	0	32828	32839	
890	0	32836	32822	
891	0	32810	32852	
892	0	32836	32746	
893	0	32834	32802	
894	0	32784	32678	
895	0	32854	32730	
896	0	32816	32720	
897	0	32872	32775	
898	0	32792	32708	
899	0	32784	32700	
900	0	32744	32626	
901	0	32812	32807	
902	0	32836	32792	
903	0	32790	32775	
904	0	32840	32764	
905	0	32792	32688	
906	0	32788	32775	
907	0	32820	32860	
908	0	32798	32743	
909	0	32800	32768	
910	0	32856	32684	
911	0	32896	32724	
912	0	32816	32736	
913	0	32802	32821	
914	0	32734	32826	
915	0	32788	32788	
916	0	32836	32775	
917	0	32814	32684	
918	0	32770	32862	
919	0	32764	32734	
920	0	32804	32836	
921	0	32864	32702	
922	0	32790	32724	
923	0	32820	32738	
924	0	32826	32758	
925	0	32906	32687	
926	0	32838	32836	
927	0	32880	32764	
928	0	32756	32830	
929	0	32800	32736	
930	0	32792	32802	
931	0	32836	32816	
932	0	32802	32794	
933	0	32762	32748	
934	0	32812	32744	
935	0	32846	32743	
936	0	32778	32714	
937	0	32814	32662	
938	0	32866	32756	
939	0	32776	32740	
940	0	32782	32820	
941	0	32784	32820	
942	0	32802	32695	
943	0	32788	32730	
944	0	32880	32758	
945	0	32850	32688	
946	0	32818	32678	
947	0	32766	32823	
948	0	32828	32775	
949	0	32764	32682	
950	0	32816	32786	
951	0	32784	32743	
952	0	32844	32760	
953	0	32808	32718	
954	0	32828	32804	
955	0	32816	32788	
956	0	32842	32770	
957	0	32784	32810	
958	0	32816	32735	
959	0	32806	32770	
960	0	32806	32718	
961	0	32836	32802	
962	0	32824	32843	
963	0	32836	32743	
964	0	32849	32738	
965	0	32836	32654	
966	0	32849	32722	
967	0	32884	32738	
968	0	32794	32772	
969	0	32900	32792	
970	0	32772	32742	
971	0	32760	32766	
972	0	32820	32836	
973	0	32780	32740	
974	0	32820	32789	
975	0	32808	32758	
976	0	32808	32823	
977	0	32808	32748	
978	0	32816	32684	
979	0	32788	32811	
980	0	32812	32801	
981	0	32856	32686	
982	0	32778	32834	
983	0	32804	32764	
984	0	32820	32720	
985	0	32796	32806	
986	0	32802	32759	
987	0	32776	32724	
988	0	32800	32800	
989	0	32810	32712	
990	0	32804	32720	
991	0	32862	32754	
992	0	32824	32711	
993	0	32790	32732	
994	0	32844	32680	
995	0	32786	32808	
996	0	32778	32838	
997	0	32768	32743	
998	0	32812	32775	
999	0	32852	32775	
1000	0	32786	32748	
1001	0	32810	32847	
1002	0	32841	32742	
1003	0	32812	32820	
1004	0	32806	32804	
1005	0	32760	32652	
1006	0	32752	32774	
1007	0	32724	32752	
1008	0	32796	32809	
1009	0	32792	32825	
1010	0	32812	32832	
1011	0	32838	32752	
1012	0	32800	32794	
1013	0	32838	32710	
1014	0	32824	32680	
1015	0	32788	32725	
1016	0	32828	32724	
1017	0	32852	32799	
1018	0	32812	32782	
1019	0	32836	32660	
1020	0	32800	32807	
1021	0	32764	32842	
1022	0	32820	32768	
1023	0	32860	32710	
1024	0	32788	32702	
1025	0	32792	32802	
1026	0	32808	32766	
1027	0	32764	32761	
1028	0	32812	32810	
1029	0	32844	32796	
1030	0	32796	32738	
1031	0	32746	32816	
1032	0	32812	32856	
1033	0	32848	32774	
1034	0	32788	32790	
1035	0	32804	32656	
1036	0	32809	32820	
1037	0	32772	32785	
1038	0	32800	32742	
1039	0	32870	32848	
1040	0	32820	32844	
1041	0	32832	32751	
1042	0	32840	32766	
1043	0	32832	32676	
1044	0	32774	32846	
1045	0	32776	32816	
1046	0	32826	32761	
1047	0	32758	32878	
1048	0	32796	32858	
1049	0	32808	32807	
1050	0	32720	32796	
1051	0	32832	32785	
1052	0	32844	32754	
1053	0	32816	32775	
1054	0	32812	32747	
1055	0	32828	32766	
1056	0	32786	32890	
1057	0	32752	32866	
1058	0	32894	32806	
1059	0	32830	32846	
1060	0	32894	32842	
1061	0	32768	32804	
1062	0	32834	32775	
1063	0	32810	32772	
1064	0	32808	32919	
1065	0	32796	32810	
1066	0	32775	32800	
1067	0	32810	32824	
1068	0	32832	32804	
1069	0	32884	32862	
1070	0	32844	32762	
1071	0	32800	32762	
1072	0	32756	32678	
1073	0	32754	32704	
1074	0	32808	32746	
1075	0	32758	32824	
1076	0	32806	32816	
1077	0	32750	32808	
1078	0	32854	32775	
1079	0	32792	32786	
1080	0	32760	32766	
1081	0	32800	32672	
1082	0	32852	32769	
1083	0	32808	32712	
1084	0	32784	32806	
1085	0	32760	32710	
1086	0	32868	32870	
1087	0	32832	32718	
1088	0	32840	32775	
1089	0	32832	32658	
1090	0	32828	32734	
1091	0	32824	32646	
1092	0	32872	32807	
1093	0	32796	32684	
1094	0	32792	32761	
1095	0	32792	32688	
1096	0	32828	32702	
1097	0	32830	32732	
1098	0	32830	32774	
1099	0	32860	32676	
1100	0	32808	32734	
1101	0	32856	32702	
1102	0	32836	32775	
1103	0	32774	32726	
1104	0	32812	32784	
1105	0	32826	32866	
1106	0	32788	32767	
1107	0	32836	32871	
1108	0	32776	32768	
1109	0	32828	32718	
1110	0	32768	32768	
1111	0	32808	32768	
1112	0	32856	32774	
1113	0	32798	32686	
1114	0	32848	32775	
1115	0	32800	32754	
1116	0	32788	32816	
1117	0	32792	32698	
1118	0	32874	32718	
1119	0	32812	32679	
1120	0	32820	32720	
1121	0	32848	32775	
1122	0	32788	32726	
1123	0	32812	32762	
1124	0	32892	32721	
1125	0	32800	32796	
1126	0	32776	32708	
1127	0	32846	32832	
1128	0	32808	32798	
1129	0	32832	32739	
1130	0	32788	32684	
1131	0	32792	32772	
1132	0	32772	32712	
1133	0	32808	32871	
1134	0	32760	32708	
1135	0	32824	32836	
1136	0	32795	32706	
1137	0	32820	32832	
1138	0	32860	32840	
1139	0	32848	32828	
1140	0	32824	32826	
1141	0	32796	32850	
1142	0	32844	32805	
1143	0	32832	32854	
1144	0	32832	32792	
1145	0	32784	32756	
1146	0	32828	32816	
1147	0	32800	32849	
1148	0	32866	32820	
1149	0	32804	32847	
1150	0	32870	32890	
1151	0	32758	32836	
1152	0	32848	32837	
1153	0	32758	32792	
1154	0	32768	32840	
1155	0	32828	32736	
1156	0	32832	32804	
1157	0	32868	32738	
1158	0	32842	32794	
1159	0	32752	32834	
1160	0	32788	32708	
1161	0	32810	32775	
1162	0	32842	32636	
1163	0	32844	32748	
1164	0	32796	32678	
1165	0	32811	32764	
1166	0	32788	32647	
1167	0	32816	32760	
1168	0	32844	32736	
1169	0	32820	32758	
1170	0	32836	32704	
1171	0	32824	32833	
1172	0	32760	32748	
1173	0	32844	32834	
1174	0	32790	32772	
1175	0	32772	32704	
1176	0	32872	32796	
1177	0	32864	32636	
1178	0	32808	32850	
1179	0	32872	32727	
1180	0	32872	32672	
1181	0	32825	32828	
1182	0	32798	32841	
1183	0	32792	32660	
1184	0	32804	32834	
1185	0	32718	32680	
1186	0	32740	32842	
1187	0	32808	32807	
1188	0	32840	32698	
1189	0	32824	32796	
1190	0	32848	32711	
1191	0	32842	32790	
1192	0	32832	32856	
1193	0	32814	32738	
1194	0	32770	32766	
1195	0	32764	32638	
1196	0	32852	32798	
1197	0	32808	32775	
1198	0	32806	32746	
1199	0	32778	32711	
1200	0	32832	32774	
1201	0	32830	32774	
1202	0	32839	32732	
1203	0	32804	32775	
1204	0	32756	32786	
1205	0	32746	32718	
1206	0	32782	32732	
1207	0	32820	32734	
1208	0	32812	32754	
1209	0	32800	32807	
1210	0	32786	32758	
1211	0	32856	32659	
1212	0	32848	32836	
1213	0	32750	32770	
1214	0	32766	32770	
1215	0	32782	32698	
1216	0	32852	32775	
1217	0	32832	32769	
1218	0	32846	32756	
1219	0	32868	32676	
1220	0	32804	32804	
1221	0	32764	32814	
1222	0	32788	32740	
1223	0	32836	32824	
1224	0	32776	32694	
1225	0	32836	32748	
1226	0	32766	32756	
1227	0	32820	32708	
1228	0	32834	32832	
1229	0	32874	32774	
1230	0	32764	32700	
1231	0	32808	32694	
1232	0	32802	32720	
1233	0	32816	32784	
1234	0	32718	32852	
1235	0	32724	32694	
1236	0	32800	32768	
1237	0	32804	32766	
1238	0	32804	32698	
1239	0	32812	32746	
1240	0	32798	32812	
1241	0	32792	32679	
1242	0	32876	32812	
1243	0	32788	32834	
1244	0	32816	32832	
1245	0	32856	32790	
1246	0	32849	32640	
1247	0	32848	32832	
1248	0	32834	32796	
1249	0	32762	32756	
1250	0	32812	32751	
1251	0	32808	32814	
1252	0	32744	32720	
1253	0	32836	32758	
1254	0	32836	32786	
1255	0	32826	32647	
1256	0	32800	32756	
1257	0	32804	32846	
1258	0	32798	32672	
1259	0	32776	32846	
1260	0	32852	32799	
1261	0	32868	32740	
1262	0	32826	32716	
1263	0	32798	32775	
1264	0	32852	32826	
1265	0	32848	32808	
1266	0	32840	32643	
1267	0	32792	32848	
1268	0	32848	32810	
1269	0	32720	32775	
1270	0	32768	32775	
1271	0	32900	32660	
1272	0	32890	32762	
1273	0	32788	32790	
1274	0	32828	32682	
1275	0	32808	32840	
1276	0	32808	32818	
1277	0	32846	32695	
1278	0	32824	32800	
1279	0	32772	32801	
1280	0	32768	32638	
1281	0	32772	32814	
1282	0	32818	32792	
1283	0	32808	32712	
1284	0	32884	32852	
1285	0	32884	32800	
1286	0	32826	32696	
1287	0	32860	32726	
1288	0	32790	32654	
1289	0	32876	32801	
1290	0	32788	32810	
1291	0	32776	32775	
1292	0	32840	32824	
1293	0	32768	32772	
1294	0	32830	32774	
1295	0	32790	32690	
1296	0	32836	32735	
1297	0	32820	32774	
1298	0	32800	32858	
1299	0	32760	32772	
1300	0	32796	32742	
1301	0	32796	32730	
1302	0	32808	32775	
1303	0	32828	32784	
1304	0	32794	32766	
1305	0	32764	32836	
1306	0	32792	32770	
1307	0	32852	32688	
1308	0	32842	32770	
1309	0	32816	32670	
1310	0	32844	32748	
1311	0	32836	32868	
1312	0	32792	32708	
1313	0	32832	32775	
1314	0	32798	32816	
1315	0	32846	32704	
1316	0	32816	32733	
1317	0	32816	32736	
1318	0	32800	32820	
1319	0	32814	32792	
1320	0	32800	32626	
1321	0	32860	32807	
1322	0	32790	32744	
1323	0	32788	32775	
1324	0	32816	32775	
1325	0	32788	32711	
1326	0	32864	32824	
1327	0	32816	32858	
1328	0	32792	32754	
1329	0	32824	32792	
1330	0	32810	32697	
1331	0	32836	32766	
1332	0	32766	32858	
1333	0	32774	32656	
1334	0	32808	32764	
1335	0	32806	32724	
1336	0	32824	32752	
1337	0	32768	32808	
1338	0	32776	32788	
1339	0	32820	32794	
1340	0	32864	32734	
1341	0	32820	32800	
1342	0	32792	32716	
1343	0	32834	32880	
1344	0	32830	32767	
1345	0	32920	32756	
1346	0	32792	32756	
1347	0	32830	32695	
1348	0	32782	32725	
1349	0	32806	32724	
1350	0	32828	32821	
1351	0	32844	32831	
1352	0	32742	32814	
1353	0	32788	32800	
1354	0	32792	32734	
1355	0	32788	32700	
1356	0	32740	32756	
1357	0	32792	32775	
1358	0	32848	32672	
1359	0	32774	32733	
1360	0	32814	32818	
1361	0	32808	32647	
1362	0	32808	32804	
1363	0	32802	32892	
1364	0	32816	32782	
1365	0	32816	32804	
1366	0	32844	32608	
1367	0	32804	32775	
1368	0	32852	32635	
1369	0	32802	32850	
1370	0	32788	32794	
1371	0	32804	32852	
1372	0	32832	32794	
1373	0	32804	32755	
1374	0	32808	32752	
1375	0	32718	32801	
1376	0	32850	32884	
1377	0	32828	32702	
1378	0	32792	32775	
1379	0	32860	32775	
1380	0	32822	32838	
1381	0	32864	32718	
1382	0	32820	32866	
1383	0	32798	32836	
1384	0	32802	32800	
1385	0	32844	32800	
1386	0	32820	32694	
1387	0	32814	32826	
1388	0	32724	32684	
1389	0	32865	32759	
1390	0	32800	32682	
1391	0	32792	32706	
1392	0	32752	32692	
1393	0	32806	32757	
1394	0	32804	32748	
1395	0	32821	32769	
1396	0	32824	32722	
1397	0	32846	32799	
1398	0	32760	32801	
1399	0	32858	32660	
1400	0	32810	32775	
1401	0	32786	32878	
1402	0	32796	32760	
1403	0	32816	32791	
1404	0	32832	32816	
1405	0	32826	32750	
1406	0	32840	32815	
1407	0	32788	32742	
1408	0	32764	32720	
1409	0	32856	32828	
1410	0	32896	32724	
1411	0	32792	32839	
1412	0	32834	32770	
1413	0	32824	32668	
1414	0	32796	32728	
1415	0	32772	32666	
1416	0	32802	32823	
1417	0	32838	32730	
1418	0	32808	32700	
1419	0	32780	32696	
1420	0	32902	32752	
1421	0	32820	32723	
1422	0	32868	32760	
1423	0	32804	32694	
1424	0	32864	32788	
1425	0	32792	32839	
1426	0	32760	32897	
1427	0	32802	32882	
1428	0	32804	32864	
1429	0	32818	32884	
1430	0	32792	32828	
1431	0	32840	32628	
1432	0	32836	32846	
1433	0	32870	32692	
1434	0	32800	32811	
1435	0	32848	32702	
1436	0	32842	32760	
1437	0	32732	32738	
1438	0	32820	32792	
1439	0	32832	32810	
1440	0	32764	32722	
1441	0	32872	32775	
1442	0	32804	32664	
1443	0	32876	32806	
1444	0	32776	32708	
1445	0	32775	32818	
1446	0	32848	32660	
1447	0	32843	32834	
1448	0	32774	32751	
1449	0	32800	32863	
1450	0	32838	32710	
1451	0	32781	32769	
1452	0	32784	32792	
1453	0	32880	32951	
1454	0	32832	32820	
1455	0	32820	32775	
1456	0	32775	32760	
1457	0	32752	32900	
1458	0	32800	32854	
1459	0	32786	32729	
1460	0	32820	32806	
1461	0	32778	32596	
1462	0	32828	32838	
1463	0	32816	32712	
1464	0	32808	32826	
1465	0	32824	32709	
1466	0	32816	32751	
1467	0	32812	32744	
1468	0	32850	32722	
1469	0	32836	32805	
1470	0	32846	32800	
1471	0	32856	32759	
1472	0	32780	32858	
1473	0	32768	32738	
1474	0	32792	32762	
1475	0	32810	32636	
1476	0	32834	32766	
1477	0	32862	32711	
1478	0	32776	32764	
1479	0	32816	32798	
1480	0	32784	32708	
1481	0	32820	32734	
1482	0	32748	32684	
1483	0	32780	32791	
1484	0	32854	32846	
1485	0	32812	32756	
1486	0	32844	32759	
1487	0	32792	32688	
1488	0	32796	32794	
1489	0	32792	32774	
1490	0	32816	32825	
1491	0	32858	32784	
1492	0	32808	32724	
1493	0	32794	32802	
1494	0	32792	32682	
1495	0	32764	32752	
1496	0	32840	32824	
1497	0	32872	32738	
1498	0	32788	32802	
1499	0	32804	32817	
1500	0	32760	32792	
1501	0	32796	32716	
1502	0	32800	32823	
1503	0	32772	32808	
1504	0	32832	32742	
1505	0	32824	32794	
1506	0	32820	32730	
1507	0	32816	32878	
1508	0	32812	32726	
1509	0	32816	32812	
1510	0	32836	32692	
1511	0	32786	32768	
1512	0	32824	32789	
1513	0	32796	32800	
1514	0	32808	32775	
1515	0	32840	32711	
1516	0	32784	32714	
1517	0	32768	32679	
1518	0	32784	32870	
1519	0	32752	32774	
1520	0	32806	32772	
1521	0	32860	32812	
1522	0	32748	32660	
1523	0	32819	32797	
1524	0	32786	32712	
1525	0	32832	32758	
1526	0	32868	32804	
1527	0	32863	32752	
1528	0	32824	32729	
1529	0	32842	32855	
1530	0	32794	32768	
1531	0	32868	32724	
1532	0	32768	32736	
1533	0	32776	32662	
1534	0	32856	32740	
1535	0	32836	32647	
1536	0	32828	32754	
1537	0	32830	32870	
1538	0	32808	32872	
1539	0	32808	32807	
1540	0	32726	32764	
1541	0	32866	32794	
1542	0	32810	32772	
1543	0	32820	32796	
1544	0	32796	32775	
1545	0	32792	32767	
1546	0	32852	32706	
1547	0	32814	32834	
1548	0	32880	32712	
1549	0	32828	32774	
1550	0	32832	32743	
1551	0	32778	32846	
1552	0	32804	32866	
1553	0	32836	32688	
1554	0	32824	32754	
1555	0	32764	32668	
1556	0	32768	32743	
1557	0	32756	32812	
1558	0	32860	32716	
1559	0	32792	32794	
1560	0	32776	32838	
1561	0	32856	32679	
1562	0	32784	32866	
1563	0	32856	32812	
1564	0	32754	32791	
1565	0	32810	32796	
1566	0	32788	32714	
1567	0	32836	32784	
1568	0	32896	32802	
1569	0	32820	32714	
1570	0	32820	32728	
1571	0	32788	32774	
1572	0	32848	32687	
1573	0	32776	32742	
1574	0	32776	32748	
1575	0	32810	32814	
1576	0	32742	32685	
1577	0	32774	32792	
1578	0	32852	32789	
1579	0	32812	32766	
1580	0	32772	32720	
1581	0	32808	32752	
1582	0	32844	32892	
1583	0	32812	32832	
1584	0	32776	32728	
1585	0	32748	32744	
1586	0	32876	32757	
1587	0	32832	32707	
1588	0	32830	32715	
1589	0	32782	32764	
1590	0	32762	32689	
1591	0	32776	32802	
1592	0	32812	32756	
1593	0	32852	32766	
1594	0	32852	32816	
1595	0	32800	32768	
1596	0	32820	32757	
1597	0	32842	32734	
1598	0	32834	32798	
1599	0	32816	32746	
1600	0	32834	32800	
1601	0	32756	32828	
1602	0	32840	32788	
1603	0	32814	32812	
1604	0	32706	32666	
1605	0	32802	32760	
1606	0	32856	32716	
1607	0	32836	32912	
1608	0	32836	32746	
1609	0	32812	32736	
1610	0	32824	32614	
1611	0	32880	32750	
1612	0	32810	32748	
1613	0	32810	32800	
1614	0	32876	32670	
1615	0	32766	32711	
1616	0	32796	32679	
1617	0	32824	32752	
1618	0	32788	32623	
1619	0	32810	32794	
1620	0	32860	32683	
1621	0	32860	32784	
1622	0	32800	32847	
1623	0	32836	32886	
1624	0	32834	32772	
1625	0	32728	32823	
1626	0	32816	32704	
1627	0	32794	32678	
1628	0	32744	32775	
1629	0	32834	32775	
1630	0	32732	32743	
1631	0	32792	32743	
1632	0	32784	32716	
1633	0	32772	32846	
1634	0	32772	32682	
1635	0	32760	32760	
1636	0	32808	32708	
1637	0	32816	32708	
1638	0	32816	32647	
1639	0	32848	32775	
1640	0	32798	32652	
1641	0	32848	32774	
1642	0	32844	32710	
1643	0	32820	32837	
1644	0	32868	32826	
1645	0	32884	32852	
1646	0	32826	32742	
1647	0	32826	32632	
1648	0	32804	32760	
1649	0	32832	32714	
1650	0	32776	32761	
1651	0	32777	32720	
1652	0	32784	32764	
1653	0	32760	32644	
1654	0	32800	32725	
1655	0	32828	32703	
1656	0	32840	32775	
1657	0	32796	32694	
1658	0	32852	32768	
1659	0	32848	32772	
1660	0	32784	32775	
1661	0	32768	32838	
1662	0	32766	32742	
1663	0	32760	32775	
1664	0	32796	32718	
1665	0	32796	32839	
1666	0	32890	32690	
1667	0	32849	32754	
1668	0	32816	32772	
1669	0	32806	32844	
1670	0	32808	32711	
1671	0	32780	32772	
1672	0	32862	32810	
1673	0	32802	32768	
1674	0	32876	32828	
1675	0	32810	32808	
1676	0	32820	32758	
1677	0	32752	32684	
1678	0	32710	32769	
1679	0	32808	32740	
1680	0	32780	32876	
1681	0	32764	32825	
1682	0	32810	32740	
1683	0	32836	32846	
1684	0	32848	32700	
1685	0	32764	32798	
1686	0	32768	32678	
1687	0	32832	32743	
1688	0	32804	32769	
1689	0	32770	32854	
1690	0	32788	32817	
1691	0	32858	32770	
1692	0	32804	32852	
1693	0	32856	32902	
1694	0	32824	32882	
1695	0	32764	32850	
1696	0	32802	32754	
1697	0	32808	32688	
1698	0	32796	32790	
1699	0	32802	32646	
1700	0	32828	32738	
1701	0	32760	32663	
1702	0	32728	32720	
1703	0	32780	32724	
1704	0	32754	32812	
1705	0	32826	32711	
1706	0	32768	32724	
1707	0	32824	32692	
1708	0	32840	32804	
1709	0	32816	32724	
1710	0	32852	32754	
1711	0	32860	32716	
1712	0	32834	32722	
1713	0	32868	32772	
1714	0	32872	32694	
1715	0	32884	32849	
1716	0	32924	32696	
1717	0	32894	32716	
1718	0	32896	32703	
1719	0	32876	32659	
1720	0	32940	32716	
1721	0	32880	32592	
1722	0	32936	32554	
1723	0	32956	32576	
1724	0	32948	32512	
1725	0	32954	32535	
1726	0	32904	32620	
1727	0	32908	32710	
1728	0	32910	32702	
1729	0	32992	32640	
1730	0	32936	32711	
1731	0	32876	32775	
1732	0	32842	32728	
1733	0	32854	32735	
1734	0	32732	32806	
1735	0	32684	32900	
1736	0	32608	32991	
1737	0	32552	32938	
1738	0	32490	33048	
1739	0	32416	33068	
1740	0	32404	33223	
1741	0	32246	33396	
1742	0	32294	33520	
1743	0	32388	33274	
1744	0	32516	33159	
1745	0	32678	32916	
1746	0	32718	33002	
1747	0	32758	32830	
1748	0	32692	32940	
1749	0	32836	32888	
1750	0	32780	32824	
1751	0	32856	32826	
1752	0	32850	32700	
1753	0	32856	32642	
1754	0	32900	32574	
1755	0	32884	32456	
1756	0	32980	32564	
1757	0	32968	32402	
1758	0	32934	32513	
1759	0	33030	32564	
1760	0	32936	32551	
1761	0	32954	32596	
1762	0	33036	32606	
1763	0	32992	32593	
1764	0	32960	32722	
1765	0	32932	32640	
1766	0	32849	32796	
1767	0	32902	32636	
1768	0	32872	32726	
1769	0	32856	32788	
1770	0	32890	32718	
1771	0	32892	32689	
1772	0	32814	32646	
1773	0	32760	32676	
1774	0	32824	32710	
1775	0	32852	32757	
1776	0	32792	32720	
1777	0	32801	32774	
1778	0	32782	32695	
1779	0	32761	32903	
1780	0	32864	32775	
1781	0	32796	32790	
1782	0	32802	32775	
1783	0	32764	32788	
1784	0	32844	32688	
1785	0	32836	32826	
1786	0	32860	32711	
1787	0	32798	32774	
1788	0	32776	32775	
1789	0	32802	32798	
1790	0	32804	32756	
1791	0	32776	32762	
1792	0	32772	32740	
1793	0	32748	32808	
1794	0	32790	32716	
1795	0	32852	32810	
1796	0	32818	32753	
1797	0	32800	32710	
1798	0	32780	32785	
1799	0	32863	32775	
1800	0	32880	32744	
1801	0	32758	32772	
1802	0	32728	32826	
1803	0	32782	32799	
1804	0	32824	32836	
1805	0	32860	32710	
1806	0	32826	32822	
1807	0	32800	32775	
1808	0	32816	32774	
1809	0	32824	32672	
1810	0	32784	32792	
1811	0	32856	32674	
1812	0	32848	32728	
1813	0	32772	32711	
1814	0	32828	32764	
1815	0	32858	32748	
1816	0	32890	32775	
1817	0	32832	32726	
1818	0	32836	32816	
1819	0	32768	32688	
1820	0	32772	32828	
1821	0	32764	32860	
1822	0	32864	32828	
1823	0	32778	32772	
1824	0	32824	32708	
1825	0	32832	32842	
1826	0	32836	32741	
1827	0	32820	32764	
1828	0	32804	32710	
1829	0	32776	32826	
1830	0	32796	32698	
1831	0	32836	32736	
1832	0	32802	32830	
1833	0	32820	32722	
1834	0	32812	32718	
1835	0	32788	32770	
1836	0	32826	32820	
1837	0	32844	32794	
1838	0	32806	32774	
1839	0	32804	32792	
1840	0	32766	32743	
1841	0	32792	32706	
1842	0	32794	32746	
1843	0	32814	32789	
1844	0	32856	32844	
1845	0	32760	32724	
1846	0	32780	32796	
1847	0	32844	32708	
1848	0	32828	32775	
1849	0	32860	32666	
1850	0	32778	32791	
1851	0	32876	32732	
1852	0	32784	32775	
1853	0	32784	32718	
1854	0	32792	32750	
1855	0	32806	32688	
1856	0	32864	32872	
1857	0	32816	32740	
1858	0	32882	32794	
1859	0	32778	32772	
1860	0	32780	32758	
1861	0	32832	32700	
1862	0	32838	32796	
1863	0	32820	32788	
1864	0	32776	32822	
1865	0	32818	32706	
1866	0	32832	32784	
1867	0	32816	32734	
1868	0	32828	32752	
1869	0	32792	32762	
1870	0	32720	32758	
1871	0	32786	32788	
1872	0	32780	32736	
1873	0	32792	32804	
1874	0	32814	32842	
1875	0	32876	32860	
1876	0	32896	32830	
1877	0	32788	32818	
1878	0	32844	32834	
1879	0	32836	32790	
1880	0	32744	32775	
1881	0	32810	32718	
1882	0	32788	32819	
1883	0	32853	32732	
1884	0	32772	32850	
1885	0	32792	32812	
1886	0	32826	32758	
1887	0	32824	32800	
1888	0	32836	32810	
1889	0	32784	32764	
1890	0	32868	32798	
1891	0	32816	32752	
1892	0	32760	32836	
1893	0	32796	32784	
1894	0	32826	32847	
1895	0	32804	32790	
1896	0	32828	32740	
1897	0	32786	32744	
1898	0	32816	32796	
1899	0	32840	32760	
1900	0	32842	32800	
1901	0	32786	32766	
1902	0	32846	32839	
1903	0	32868	32828	
1904	0	32824	32850	
1905	0	32788	32775	
1906	0	32872	32830	
1907	0	32740	32759	
1908	0	32844	32747	
1909	0	32772	32872	
1910	0	32798	32654	
1911	0	32824	32716	
1912	0	32784	32682	
1913	0	32810	32764	
1914	0	32778	32660	
1915	0	32802	32842	
1916	0	32830	32756	
1917	0	32852	32775	
1918	0	32752	32636	
1919	0	32784	32714	
1920	0	32818	32708	
1921	0	32866	32788	
1922	0	32812	32686	
1923	0	32852	32765	
1924	0	32848	32704	
1925	0	32852	32868	
1926	0	32810	32878	
1927	0	32846	32800	
1928	0	32776	32807	
1929	0	32820	32676	
1930	0	32844	32718	
1931	0	32816	32727	
1932	0	32844	32788	
1933	0	32812	32708	
1934	0	32858	32788	
1935	0	32844	32666	
1936	0	32850	32799	
1937	0	32824	32696	
1938	0	32794	32770	
1939	0	32830	32746	
1940	0	32834	32855	
1941	0	32878	32712	
1942	0	32800	32823	
1943	0	32816	32726	
1944	0	32824	32826	
1945	0	32848	32838	
1946	0	32864	32768	
1947	0	32834	32796	
1948	0	32775	32750	
1949	0	32832	32744	
1950	0	32836	32828	
1951	0	32804	32886	
1952	0	32752	32774	
1953	0	32808	32804	
1954	0	32772	32775	
1955	0	32816	32818	
1956	0	32778	32847	
1957	0	32784	32708	
1958	0	32804	32814	
1959	0	32768	32670	
1960	0	32816	32766	
1961	0	32816	32890	
1962	0	32836	32784	
1963	0	32830	32770	
1964	0	32856	32718	
1965	0	32844	32840	
1966	0	32844	32676	
1967	0	32748	32780	
1968	0	32868	32674	
1969	0	32832	32775	
1970	0	32848	32746	
1971	0	32880	32852	
1972	0	32912	32812	
1973	0	32820	32764	
1974	0	32784	32732	
1975	0	32788	32700	
1976	0	32792	32710	
1977	0	32842	32700	
1978	0	32820	32802	
1979	0	32812	32760	
1980	0	32862	32764	
1981	0	32766	32852	
1982	0	32762	32720	
1983	0	32808	32762	
1984	0	32845	32678	
1985	0	32804	32800	
1986	0	32794	32754	
1987	0	32768	32755	
1988	0	32792	32756	
1989	0	32812	32842	
1990	0	32878	32744	
1991	0	32820	32844	
1992	0	32878	32838	
1993	0	32890	32743	
1994	0	32782	32734	
1995	0	32750	32679	
1996	0	32748	32794	
1997	0	32790	32652	
1998	0	32798	32798	
1999	0	32808	32766	
2000	0	32816	32775	
2001	0	32864	32627	
2002	0	32782	32704	
2003	0	32808	32726	
2004	0	32740	32775	
2005	0	32806	32906	
2006	0	32862	32832	
2007	0	32852	32884	
2008	0	32816	32748	
2009	0	32684	32828	
2010	0	32750	32678	
2011	0	32822	32766	
2012	0	32830	32686	
2013	0	32796	32734	
2014	0	32800	32750	
2015	0	32740	32609	
2016	0	32773	32734	
2017	0	32808	32852	
2018	0	32788	32827	
2019	0	32824	32840	
2020	0	32808	32828	
2021	0	32860	32864	
2022	0	32828	32740	
2023	0	32800	32704	
2024	0	32816	32828	
2025	0	32788	32666	
2026	0	32804	32818	
2027	0	32790	32718	
2028	0	32780	32806	
2029	0	32788	32808	
2030	0	32824	32775	
2031	0	32774	32756	
2032	0	32856	32842	
2033	0	32760	32754	
2034	0	32788	32830	
2035	0	32820	32807	
2036	0	32860	32686	
2037	0	32834	32657	
2038	0	32768	32654	
2039	0	32808	32825	
2040	0	32876	32764	
2041	0	32800	32684	
2042	0	32844	32846	
2043	0	32792	32842	
2044	0	32886	32802	
2045	0	32834	32828	
2046	0	32804	32752	
2047	0	32904	32796	
2048	0	32748	32806	
2049	0	32772	32870	
2050	0	32808	32744	
2051	0	32796	32664	
2052	0	32800	32743	
2053	0	32810	32628	
2054	0	32780	32748	
2055	0	32804	32836	
2056	0	32888	32738	
2057	0	32864	32788	
2058	0	32848	32662	
2059	0	32836	32881	
2060	0	32816	32822	
2061	0	32800	32732	
2062	0	32744	32764	
2063	0	32839	32775	
2064	0	32826	32790	
2065	0	32842	32764	
2066	0	32783	32858	
2067	0	32868	32871	
2068	0	32858	32775	
2069	0	32832	32768	
2070	0	32764	32679	
2071	0	32816	32720	
2072	0	32856	32710	
2073	0	32816	32710	
2074	0	32824	32864	
2075	0	32774	32775	
2076	0	32852	32756	
2077	0	32844	32718	
2078	0	32792	32756	
2079	0	32830	32718	
2080	0	32858	32802	
2081	0	32728	32792	
2082	0	32706	32775	
2083	0	32840	32772	
2084	0	32816	32736	
2085	0	32828	32724	
2086	0	32764	32812	
2087	0	32790	32790	
2088	0	32866	32761	
2089	0	32854	32806	
2090	0	32788	32764	
2091	0	32792	32684	
2092	0	32766	32712	
2093	0	32818	32647	
2094	0	32764	32724	
2095	0	32772	32679	
2096	0	32861	32764	
2097	0	32840	32808	
2098	0	32840	32804	
2099	0	32856	32804	
2100	0	32828	32720	
2101	0	32840	32796	
2102	0	32816	32696	
2103	0	32820	32740	
2104	0	32790	32738	
2105	0	32816	32898	
2106	0	32820	32834	
2107	0	32772	32828	
2108	0	32830	32852	
2109	0	32800	32750	
2110	0	32772	32742	
2111	0	32744	32646	
2112	0	32778	32775	
2113	0	32768	32914	
2114	0	32788	32740	
2115	0	32834	32738	
2116	0	32804	32743	
2117	0	32796	32726	
2118	0	32788	32764	
2119	0	32776	32862	
2120	0	32832	32807	
2121	0	32884	32646	
2122	0	32852	32818	
2123	0	32772	32716	
2124	0	32824	32822	
2125	0	32836	32775	
2126	0	32840	32814	
2127	0	32796	32758	
2128	0	32810	32772	
2129	0	32848	32792	
2130	0	32766	32732	
2131	0	32768	32874	
2132	0	32844	32754	
2133	0	32772	32828	
2134	0	32812	32852	
2135	0	32794	32798	
2136	0	32738	32794	
2137	0	32800	32766	
2138	0	32814	32816	
2139	0	32820	32748	
2140	0	32736	32742	
2141	0	32836	32690	
2142	0	32956	32724	
2143	0	32788	32702	
2144	0	32849	32764	
2145	0	32868	32787	
2146	0	32788	32754	
2147	0	32784	32808	
2148	0	32764	32732	
2149	0	32848	32844	
2150	0	32788	32740	
2151	0	32810	32812	
2152	0	32818	32775	
2153	0	32836	32664	
2154	0	32790	32716	
2155	0	32836	32786	
2156	0	32820	32752	
2157	0	32796	32762	
2158	0	32784	32724	
2159	0	32792	32770	
2160	0	32804	32692	
2161	0	32788	32856	
2162	0	32836	32800	
2163	0	32832	32775	
2164	0	32876	32755	
2165	0	32828	32728	
2166	0	32792	32682	
2167	0	32836	32836	
2168	0	32780	32767	
2169	0	32824	32775	
2170	0	32836	32680	
2171	0	32796	32743	
2172	0	32748	32712	
2173	0	32786	32846	
2174	0	32776	32808	
2175	0	32772	32764	
2176	0	32851	32802	
2177	0	32794	32647	
2178	0	32872	32820	
2179	0	32844	32834	
2180	0	32812	32812	
2181	0	32820	32748	
2182	0	32862	32710	
2183	0	32790	32704	
2184	0	32794	32720	
2185	0	32816	32840	
2186	0	32838	32772	
2187	0	32824	32720	
2188	0	32784	32760	
2189	0	32848	32840	
2190	0	32784	32823	
2191	0	32814	32730	
2192	0	32808	32700	
2193	0	32832	32836	
2194	0	32848	32870	
2195	0	32872	32735	
2196	0	32816	32842	
2197	0	32824	32672	
2198	0	32780	32788	
2199	0	32774	32796	
2200	0	32786	32694	
2201	0	32768	32792	
2202	0	32716	32847	
2203	0	32732	32836	
2204	0	32896	32742	
2205	0	32842	32734	
2206	0	32836	32890	
2207	0	32892	32823	
2208	0	32808	32796	
2209	0	32782	32746	
2210	0	32812	32814	
2211	0	32842	32823	
2212	0	32852	32696	
2213	0	32838	32654	
2214	0	32808	32736	
2215	0	32826	32846	
2216	0	32766	32793	
2217	0	32806	32772	
2218	0	32772	32706	
2219	0	32768	32660	
2220	0	32784	32792	
2221	0	32900	32855	
2222	0	32788	32685	
2223	0	32830	32760	
2224	0	32684	32900	
2225	0	32784	32828	
2226	0	32856	32823	
2227	0	32772	32796	
2228	0	32752	32807	
2229	0	32838	32712	
2230	0	32714	32714	
2231	0	32856	32786	
2232	0	32826	32719	
2233	0	32900	32751	
2234	0	32800	32785	
2235	0	32808	32632	
2236	0	32768	32792	
2237	0	32828	32830	
2238	0	32816	32752	
2239	0	32804	32719	
2240	0	32782	32722	
2241	0	32756	32844	
2242	0	32796	32764	
2243	0	32830	32724	
2244	0	32880	32846	
2245	0	32796	32775	
2246	0	32852	32725	
2247	0	32816	32775	
2248	0	32740	32827	
2249	0	32788	32728	
2250	0	32778	32724	
2251	0	32852	32846	
2252	0	32834	32686	
2253	0	32820	32710	
2254	0	32800	32740	
2255	0	32844	32816	
2256	0	32808	32852	
2257	0	32794	32740	
2258	0	32816	32766	
2259	0	32860	32710	
2260	0	32824	32844	
2261	0	32842	32811	
2262	0	32858	32775	
2263	0	32888	32772	
2264	0	32798	32684	
2265	0	32846	32816	
2266	0	32836	32855	
2267	0	32760	32655	
2268	0	32892	32800	
2269	0	32768	32884	
2270	0	32830	32740	
2271	0	32834	32794	
2272	0	32775	32612	
2273	0	32872	32711	
2274	0	32794	32732	
2275	0	32818	32775	
2276	0	32792	32775	
2277	0	32876	32804	
2278	0	32948	32863	
2279	0	32852	32794	
2280	0	32798	32749	
2281	0	32764	32732	
2282	0	32808	32824	
2283	0	32804	32826	
2284	0	32840	32727	
2285	0	32792	32742	
2286	0	32788	32700	
2287	0	32802	32788	
2288	0	32776	32775	
2289	0	32792	32822	
2290	0	32744	32732	
2291	0	32812	32807	
2292	0	32900	32836	
2293	0	32908	32716	
2294	0	32752	32717	
2295	0	32852	32692	
2296	0	32800	32775	
2297	0	32764	32879	
2298	0	32828	32740	
2299	0	32776	32729	
2300	0	32760	32696	
2301	0	32864	32880	
2302	0	32832	32828	
2303	0	32760	32807	
2304	0	32796	32766	
2305	0	32860	32687	
2306	0	32782	32758	
2307	0	32864	32650	
2308	0	32804	32740	
2309	0	32856	32680	
2310	0	32782	32812	
2311	0	32826	32736	
2312	0	32848	32870	
2313	0	32744	32862	
2314	0	32810	32832	
2315	0	32740	32912	
2316	0	32778	32806	
2317	0	32774	32708	
2318	0	32760	32725	
2319	0	32832	32740	
2320	0	32868	32636	
2321	0	32822	32860	
2322	0	32752	32766	
2323	0	32794	32644	
2324	0	32786	32760	
2325	0	32720	32768	
2326	0	32862	32742	
2327	0	32844	32800	
2328	0	32774	32770	
2329	0	32872	32682	
2330	0	32824	32737	
2331	0	32860	32654	
2332	0	32786	32798	
2333	0	32768	32670	
2334	0	32842	32821	
2335	0	32794	32686	
2336	0	32842	32832	
2337	0	32798	32880	
2338	0	32884	32724	
2339	0	32792	32780	
2340	0	32784	32796	
2341	0	32792	32828	
2342	0	32852	32760	
2343	0	32852	32678	
2344	0	32818	32752	
2345	0	32728	32632	
2346	0	32776	32742	
2347	0	32814	32623	
2348	0	32826	32738	
2349	0	32820	32680	
2350	0	32853	32762	
2351	0	32900	32706	
2352	0	32878	32824	
2353	0	32864	32708	
2354	0	32782	32775	
2355	0	32812	32655	
2356	0	32896	32781	
2357	0	32798	32740	
2358	0	32788	32874	
2359	0	32740	32852	
2360	0	32748	32772	
2361	0	32792	32862	
2362	0	32828	32724	
2363	0	32916	32742	
2364	0	32800	32758	
2365	0	32732	32764	
2366	0	32816	32646	
2367	0	32832	32775	
2368	0	32928	32812	
2369	0	32808	32725	
2370	0	32884	32812	
2371	0	32800	32814	
2372	0	32830	32768	
2373	0	32784	32596	
2374	0	32752	32710	
2375	0	32804	32720	
2376	0	32804	32756	
2377	0	32800	32820	
2378	0	32866	32818	
2379	0	32752	32812	
2380	0	32836	32710	
2381	0	32800	32874	
2382	0	32820	32736	
2383	0	32841	32807	
2384	0	32780	32748	
2385	0	32886	32806	
2386	0	32798	32775	
2387	0	32812	32775	
2388	0	32775	32744	
2389	0	32872	32686	
2390	0	32846	32792	
2391	0	32812	32788	
2392	0	32828	32823	
2393	0	32784	32708	
2394	0	32796	32858	
2395	0	32832	32879	
2396	0	32800	32734	
2397	0	32756	32758	
2398	0	32712	32678	
2399	0	32764	32712	
2400	0	32844	32696	
2401	0	32846	32788	
2402	0	32816	32808	
2403	0	32852	32716	
2404	0	32842	32814	
2405	0	32836	32844	
2406	0	32812	32792	
2407	0	32816	32775	
2408	0	32856	32692	
2409	0	32824	32834	
2410	0	32834	32784	
2411	0	32760	32894	
2412	0	32822	32822	
2413	0	32836	32828	
2414	0	32764	32820	
2415	0	32814	32772	
2416	0	32820	32775	
2417	0	32808	32713	
2418	0	32796	32838	
2419	0	32758	32670	
2420	0	32772	32743	
2421	0	32812	32670	
2422	0	32784	32680	
2423	0	32818	32698	
2424	0	32896	32839	
2425	0	32848	32758	
2426	0	32838	32700	
2427	0	32868	32775	
2428	0	32870	32736	
2429	0	32796	32788	
2430	0	32844	32764	
2431	0	32868	32788	
2432	0	32780	32719	
2433	0	32752	32682	
2434	0	32762	32647	
2435	0	32760	32752	
2436	0	32774	32708	
2437	0	32788	32834	
2438	0	32772	32666	
2439	0	32844	32738	
2440	0	32872	32775	
2441	0	32816	32698	
2442	0	32854	32696	
2443	0	32852	32830	
2444	0	32820	32742	
2445	0	32740	32690	
2446	0	32832	32670	
2447	0	32756	32750	
2448	0	32808	32884	
2449	0	32848	32748	
2450	0	32816	32831	
2451	0	32848	32732	
2452	0	32840	32817	
2453	0	32834	32756	
2454	0	32876	32775	
2455	0	32786	32710	
2456	0	32750	32860	
2457	0	32853	32884	
2458	0	32800	32792	
2459	0	32780	32820	
2460	0	32768	32736	
2461	0	32732	32744	
2462	0	32828	32670	
2463	0	32786	32723	
2464	0	32792	32734	
2465	0	32810	32647	
2466	0	32789	32692	
2467	0	32782	32742	
2468	0	32808	32774	
2469	0	32876	32794	
2470	0	32828	32796	
2471	0	32826	32820	
2472	0	32848	32720	
2473	0	32790	32682	
2474	0	32800	32764	
2475	0	32806	32692	
2476	0	32802	32770	
2477	0	32788	32704	
2478	0	32826	32839	
2479	0	32812	32816	
2480	0	32880	32728	
2481	0	32838	32732	
2482	0	32820	32746	
2483	0	32736	32844	
2484	0	32748	32838	
2485	0	32818	32775	
2486	0	32864	32816	
2487	0	32828	32734	
2488	0	32812	32839	
2489	0	32752	32818	
2490	0	32804	32894	
2491	0	32840	32800	
2492	0	32740	32690	
2493	0	32750	32814	
2494	0	32842	32820	
2495	0	32830	32852	
2496	0	32814	32760	
2497	0	32800	32715	
2498	0	32854	32694	
2499	0	32832	32660	
2500	0	32800	32815	
2501	0	32856	32737	
2502	0	32820	32864	
2503	0	32836	32722	
2504	0	32836	32775	
2505	0	32824	32802	
2506	0	32780	32826	
2507	0	32744	32756	
2508	0	32768	32894	
2509	0	32822	32775	
2510	0	32892	32775	
2511	0	32796	32814	
2512	0	32880	32816	
2513	0	32826	32708	
2514	0	32804	32732	
2515	0	32824	32828	
2516	0	32840	32775	
2517	0	32796	32750	
2518	0	32816	32681	
2519	0	32756	32774	
2520	0	32888	32738	
2521	0	32892	32770	
2522	0	32837	32772	
2523	0	32848	32742	
2524	0	32784	32815	
2525	0	32816	32832	
2526	0	32832	32744	
2527	0	32764	32694	
2528	0	32812	32660	
2529	0	32794	32740	
2530	0	32764	32814	
2531	0	32836	32807	
2532	0	32818	32798	
2533	0	32872	32775	
2534	0	32766	32834	
2535	0	32820	32754	
2536	0	32822	32810	
2537	0	32884	32726	
2538	0	32804	32764	
2539	0	32810	32756	
2540	0	32856	32871	
2541	0	32856	32858	
2542	0	32860	32742	
2543	0	32760	32718	
2544	0	32840	32703	
2545	0	32764	32695	
2546	0	32888	32746	
2547	0	32766	32840	
2548	0	32878	32810	
2549	0	32786	32674	
2550	0	32824	32784	
2551	0	32836	32775	
2552	0	32784	32766	
2553	0	32700	32798	
2554	0	32826	32720	
2555	0	32870	32820	
2556	0	32872	32756	
2557	0	32796	32794	
2558	0	32778	32775	
2559	0	32776	32828	
2560	0	32828	32816	
2561	0	32804	32644	
2562	0	32788	32788	
2563	0	32834	32706	
2564	0	32768	32826	
2565	0	32788	32740	
2566	0	32788	32818	
2567	0	32788	32738	
2568	0	32864	32870	
2569	0	32788	32828	
2570	0	32808	32854	
2571	0	32812	32798	
2572	0	32800	32767	
2573	0	32852	32796	
2574	0	32784	32710	
2575	0	32830	32764	
2576	0	32812	32800	
2577	0	32790	32751	
2578	0	32832	32751	
2579	0	32836	32775	
2580	0	32846	32734	
2581	0	32792	32720	
2582	0	32808	32684	
2583	0	32754	32820	
2584	0	32808	32716	
2585	0	32800	32832	
2586	0	32848	32804	
2587	0	32788	32863	
2588	0	32800	32890	
2589	0	32796	32775	
2590	0	32826	32740	
2591	0	32784	32743	
2592	0	32840	32751	
2593	0	32924	32734	
2594	0	32829	32836	
2595	0	32836	32775	
2596	0	32746	32756	
2597	0	32808	32796	
2598	0	32742	32756	
2599	0	32796	32756	
2600	0	32796	32758	
2601	0	32856	32770	
2602	0	32832	32745	
2603	0	32828	32738	
2604	0	32872	32776	
2605	0	32788	32756	
2606	0	32820	32849	
2607	0	32820	32775	
2608	0	32920	32820	
2609	0	32818	32754	
2610	0	32776	32800	
2611	0	32832	32814	
2612	0	32836	32798	
2613	0	32824	32876	
2614	0	32784	32842	
2615	0	32760	32794	
2616	0	32820	32756	
2617	0	32804	32606	
2618	0	32788	32791	
2619	0	32760	32688	
2620	0	32828	32832	
2621	0	32816	32692	
2622	0	32788	32830	
2623	0	32852	32702	
2624	0	32800	32806	
2625	0	32822	32817	
2626	0	32840	32830	
2627	0	32842	32798	
2628	0	32774	32810	
2629	0	32896	32775	
2630	0	32848	32846	
2631	0	32826	32830	
2632	0	32804	32746	
2633	0	32764	32738	
2634	0	32800	32642	
2635	0	32826	32746	
2636	0	32820	32771	
2637	0	32816	32775	
2638	0	32790	32716	
2639	0	32760	32822	
2640	0	32796	32726	
2641	0	32832	32692	
2642	0	32786	32700	
2643	0	32812	32807	
2644	0	32800	32733	
2645	0	32744	32832	
2646	0	32822	32732	
2647	0	32796	32820	
2648	0	32842	32774	
2649	0	32872	32844	
2650	0	32794	32774	
2651	0	32808	32824	
2652	0	32810	32732	
2653	0	32868	32758	
2654	0	32802	32738	
2655	0	32738	32775	
2656	0	32818	32814	
2657	0	32775	32744	
2658	0	32784	32646	
2659	0	32784	32820	
2660	0	32808	32846	
2661	0	32832	32752	
2662	0	32802	32764	
2663	0	32887	32696	
2664	0	32774	32672	
2665	0	32860	32679	
2666	0	32785	32767	
2667	0	32892	32726	
2668	0	32812	32846	
2669	0	32796	32884	
2670	0	32784	32746	
2671	0	32832	32720	
2672	0	32748	32785	
2673	0	32756	32660	
2674	0	32804	32752	
2675	0	32908	32696	
2676	0	32804	32766	
2677	0	32768	32705	
2678	0	32800	32798	
2679	0	32768	32678	
2680	0	32792	32846	
2681	0	32860	32722	
2682	0	32796	32756	
2683	0	32830	32704	
2684	0	32840	32750	
2685	0	32866	32770	
2686	0	32769	32694	
2687	0	32784	32738	
2688	0	32804	32801	
2689	0	32776	32765	
2690	0	32820	32768	
2691	0	32836	32868	
2692	0	32858	32886	
2693	0	32844	32788	
2694	0	32808	32794	
2695	0	32804	32804	
2696	0	32834	32711	
2697	0	32786	32816	
2698	0	32812	32792	
2699	0	32836	32668	
2700	0	32770	32754	
2701	0	32778	32740	
2702	0	32756	32770	
2703	0	32740	32903	
2704	0	32820	32722	
2705	0	32876	32789	
2706	0	32828	32769	
2707	0	32874	32830	
2708	0	32824	32724	
2709	0	32830	32668	
2710	0	32820	32756	
2711	0	32792	32720	
2712	0	32776	32767	
2713	0	32764	32820	
2714	0	32752	32720	
2715	0	32844	32794	
2716	0	32800	32708	
2717	0	32864	32798	
2718	0	32820	32783	
2719	0	32886	32634	
2720	0	32790	32826	
2721	0	32860	32672	
2722	0	32864	32732	
2723	0	32782	32687	
2724	0	32816	32793	
2725	0	32776	32908	
2726	0	32792	32760	
2727	0	32736	32772	
2728	0	32746	32696	
2729	0	32750	32798	
2730	0	32838	32663	
2731	0	32842	32750	
2732	0	32844	32761	
2733	0	32844	32764	
2734	0	32782	32698	
2735	0	32862	32774	
2736	0	32774	32724	
2737	0	32820	32702	
2738	0	32828	32748	
2739	0	32900	32724	
2740	0	32896	32636	
2741	0	32964	32671	
2742	0	32904	32564	
2743	0	32878	32684	
2744	0	32980	32740	
2745	0	32924	32634	
2746	0	32876	32686	
2747	0	32950	32519	
2748	0	33040	32678	
2749	0	32944	32610	
2750	0	32964	32634	
2751	0	32946	32692	
2752	0	32916	32551	
2753	0	32892	32626	
2754	0	32864	32580	
2755	0	32908	32743	
2756	0	32826	32702	
2757	0	32808	32860	
2758	0	32840	32796	
2759	0	32736	32828	
2760	0	32568	33103	
2761	0	32552	33074	
2762	0	32564	32958	
2763	0	32464	33076	
2764	0	32382	33201	
2765	0	32260	33517	
2766	0	32288	33620	
2767	0	32404	33287	
2768	0	32564	33180	
2769	0	32652	32886	
2770	0	32714	32984	
2771	0	32740	32860	
2772	0	32770	32878	
2773	0	32728	32948	
2774	0	32716	32775	
2775	0	32784	32742	
2776	0	32868	32612	
2777	0	32798	32647	
2778	0	32948	32542	
2779	0	32912	32556	
2780	0	32964	32426	
2781	0	32940	32564	
2782	0	33032	32492	
2783	0	33012	32422	
2784	0	32972	32544	
2785	0	32940	32514	
2786	0	32970	32658	
2787	0	32960	32714	
2788	0	32944	32710	
2789	0	32864	32752	
2790	0	32802	32658	
2791	0	32800	32703	
2792	0	32862	32551	
2793	0	32912	32756	
2794	0	32864	32694	
2795	0	32856	32658	
2796	0	32840	32652	
2797	0	32856	32711	
2798	0	32846	32742	
2799	0	32868	32839	
2800	0	32804	32728	
2801	0	32820	32775	
2802	0	32824	32735	
2803	0	32858	32782	
2804	0	32768	32860	
2805	0	32844	32798	
2806	0	32874	32834	
2807	0	32800	32750	
2808	0	32892	32806	
2809	0	32782	32767	
2810	0	32772	32922	
2811	0	32776	32792	
2812	0	32776	32768	
2813	0	32786	32775	
2814	0	32788	32806	
2815	0	32808	32698	
2816	0	32788	32816	
2817	0	32806	32738	
2818	0	32804	32791	
2819	0	32824	32775	
2820	0	32788	32708	
2821	0	32794	32751	
2822	0	32825	32817	
2823	0	32816	32775	
2824	0	32828	32834	
2825	0	32826	32740	
2826	0	32838	32775	
2827	0	32868	32822	
2828	0	32740	32746	
2829	0	32836	32748	
2830	0	32744	32786	
2831	0	32838	32710	
2832	0	32792	32832	
2833	0	32800	32844	
2834	0	32780	32710	
2835	0	32800	32736	
2836	0	32816	32643	
2837	0	32796	32836	
2838	0	32760	32926	
2839	0	32832	32693	
2840	0	32820	32758	
2841	0	32772	32857	
2842	0	32792	32711	
2843	0	32896	32766	
2844	0	32830	32830	
2845	0	32764	32806	
2846	0	32776	32775	
2847	0	32856	32620	
2848	0	32818	32766	
2849	0	32808	32804	
2850	0	32752	32724	
2851	0	32810	32774	
2852	0	32838	32854	
2853	0	32772	32630	
2854	0	32730	32830	
2855	0	32824	32735	
2856	0	32854	32698	
2857	0	32836	32808	
2858	0	32848	32748	
2859	0	32808	32814	
2860	0	32810	32836	
2861	0	32828	32766	
2862	0	32844	32847	
2863	0	32772	32775	
2864	0	32800	32743	
2865	0	32784	32711	
2866	0	32788	32768	
2867	0	32862	32739	
2868	0	32838	32808	
2869	0	32738	32711	
2870	0	32808	32852	
2871	0	32796	32822	
2872	0	32854	32746	
2873	0	32818	32727	
2874	0	32774	32660	
2875	0	32798	32775	
2876	0	32788	32775	
2877	0	32850	32810	
2878	0	32828	32764	
2879	0	32872	32722	
2880	0	32892	32748	
2881	0	32808	32810	
2882	0	32820	32668	
2883	0	32772	32754	
2884	0	32820	32788	
2885	0	32812	32708	
2886	0	32832	32770	
2887	0	32812	32736	
2888	0	32852	32871	
2889	0	32788	32775	
2890	0	32804	32730	
2891	0	32772	32820	
2892	0	32770	32804	
2893	0	32828	32702	
2894	0	32816	32708	
2895	0	32820	32756	
2896	0	32854	32830	
2897	0	32780	32812	
2898	0	32824	32730	
2899	0	32820	32793	
2900	0	32818	32775	
2901	0	32730	32730	
2902	0	32804	32812	
2903	0	32840	32748	
2904	0	32824	32795	
2905	0	32798	32796	
2906	0	32808	32700	
2907	0	32770	32697	
2908	0	32846	32662	
2909	0	32902	32751	
2910	0	32814	32834	
2911	0	32848	32788	
2912	0	32774	32718	
2913	0	32806	32764	
2914	0	32843	32769	
2915	0	32821	32738	
2916	0	32834	32794	
2917	0	32824	32844	
2918	0	32804	32699	
2919	0	32896	32746	
2920	0	32838	32735	
2921	0	32840	32784	
2922	0	32794	32724	
2923	0	32848	32828	
2924	0	32886	32730	
2925	0	32784	32784	
2926	0	32772	32684	
2927	0	32852	32772	
2928	0	32860	32682	
2929	0	32800	32829	
2930	0	32725	32750	
2931	0	32764	32728	
2932	0	32826	32696	
2933	0	32848	32820	
2934	0	32812	32792	
2935	0	32816	32848	
2936	0	32846	32732	
2937	0	32832	32742	
2938	0	32836	32680	
2939	0	32842	32768	
2940	0	32804	32669	
2941	0	32804	32708	
2942	0	32784	32788	
2943	0	32820	32768	
2944	0	32828	32858	
2945	0	32818	32800	
2946	0	32816	32903	
2947	0	32856	32744	
2948	0	32824	32804	
2949	0	32794	32738	
2950	0	32822	32806	
2951	0	32784	32788	
2952	0	32766	32775	
2953	0	32812	32748	
2954	0	32748	32742	
2955	0	32758	32647	
2956	0	32824	32775	
2957	0	32816	32710	
2958	0	32840	32775	
2959	0	32804	32730	
2960	0	32798	32775	
2961	0	32808	32770	
2962	0	32846	32852	
2963	0	32850	32876	
2964	0	32840	32793	
2965	0	32820	32886	
2966	0	32784	32714	
2967	0	32788	32798	
2968	0	32816	32722	
2969	0	32836	32823	
2970	0	32828	32804	
2971	0	32784	32775	
2972	0	32848	32746	
2973	0	32822	32732	
2974	0	32798	32652	
2975	0	32836	32764	
2976	0	32732	32736	
2977	0	32740	32878	
2978	0	32840	32763	
2979	0	32844	32647	
2980	0	32768	32814	
2981	0	32860	32814	
2982	0	32852	32804	
2983	0	32804	32742	
2984	0	32822	32724	
2985	0	32836	32775	
2986	0	32820	32666	
2987	0	32828	32700	
2988	0	32826	32812	
2989	0	32788	32769	
2990	0	32808	32775	
2991	0	32798	32876	
2992	0	32814	32775	
2993	0	32844	32775	
2994	0	32784	32742	
2995	0	32778	32850	
2996	0	32869	32866	
2997	0	32794	32794	
2998	0	32744	32864	
2999	0	32848	32718	
3000	0	32754	32818	
3001	0	32828	32663	
3002	0	32794	32752	
3003	0	32788	32586	
3004	0	32730	32712	
3005	0	32856	32646	
3006	0	32792	32750	
3007	0	32768	32734	
3008	0	32862	32684	
3009	0	32868	32799	
3010	0	32804	32710	
3011	0	32866	32807	
3012	0	32840	32668	
3013	0	32760	32796	
3014	0	32798	32716	
3015	0	32780	32871	
3016	0	32768	32832	
3017	0	32832	32798	
3018	0	32884	32870	
3019	0	32790	32852	
3020	0	32834	32756	
3021	0	32824	32674	
3022	0	32846	32762	
3023	0	32788	32698	
3024	0	32750	32786	
3025	0	32832	32782	
3026	0	32812	32680	
3027	0	32832	32775	
3028	0	32760	32748	
3029	0	32792	32828	
3030	0	32775	32826	
3031	0	32812	32743	
3032	0	32802	32775	
3033	0	32788	32744	
3034	0	32804	32760	
3035	0	32828	32698	
3036	0	32760	32790	
3037	0	32834	32775	
3038	0	32798	32718	
3039	0	32836	32770	
3040	0	32788	32810	
3041	0	32752	32790	
3042	0	32876	32759	
3043	0	32780	32676	
3044	0	32828	32807	
3045	0	32820	32856	
3046	0	32808	32832	
3047	0	32848	32893	
3048	0	32802	32752	
3049	0	32804	32726	
3050	0	32852	32658	
3051	0	32750	32732	
3052	0	32828	32798	
3053	0	32750	32711	
3054	0	32828	32742	
3055	0	32844	32624	
3056	0	32808	32789	
3057	0	32756	32692	
3058	0	32828	32862	
3059	0	32852	32854	
3060	0	32796	32850	
3061	0	32852	32848	
3062	0	32804	32807	
3063	0	32824	32966	
3064	0	32794	32714	
3065	0	32836	32692	
3066	0	32880	32844	
3067	0	32892	32796	
3068	0	32792	32737	
3069	0	32792	32654	
3070	0	32764	32798	
3071	0	32816	32802	
3072	0	32842	32750	
3073	0	32836	32774	
3074	0	32840	32775	
3075	0	32790	32636	
3076	0	32868	32710	
3077	0	32853	32811	
3078	0	32756	32708	
3079	0	32756	32828	
3080	0	32768	32794	
3081	0	32818	32640	
3082	0	32792	32810	
3083	0	32816	32828	
3084	0	32752	32728	
3085	0	32752	32752	
3086	0	32830	32764	
3087	0	32840	32696	
3088	0	32884	32820	
3089	0	32776	32734	
3090	0	32848	32772	
3091	0	32788	32832	
3092	0	32900	32750	
3093	0	32824	32799	
3094	0	32798	32836	
3095	0	32808	32684	
3096	0	32840	32719	
3097	0	32826	32672	
3098	0	32744	32738	
3099	0	32794	32758	
3100	0	32782	32772	
3101	0	32780	32714	
3102	0	32828	32694	
3103	0	32906	32771	
3104	0	32778	32766	
3105	0	32824	32784	
3106	0	32832	32774	
3107	0	32793	32882	
3108	0	32824	32752	
3109	0	32814	32737	
3110	0	32878	32794	
3111	0	32844	32830	
3112	0	32836	32673	
3113	0	32784	32808	
3114	0	32848	32740	
3115	0	32800	32732	
3116	0	32782	32832	
3117	0	32836	32912	
3118	0	32776	32662	
3119	0	32900	32735	
3120	0	32866	32771	
3121	0	32832	32854	
3122	0	32854	32788	
3123	0	32800	32736	
3124	0	32772	32804	
3125	0	32804	32711	
3126	0	32798	32834	
3127	0	32772	32726	
3128	0	32820	32688	
3129	0	32804	32788	
3130	0	32836	32708	
3131	0	32844	32798	
3132	0	32776	32706	
3133	0	32868	32866	
3134	0	32850	32862	
3135	0	32820	32796	
3136	0	32808	32856	
3137	0	32828	32694	
3138	0	32814	32796	
3139	0	32794	32710	
3140	0	32868	32728	
3141	0	32822	32644	
3142	0	32768	32732	
3143	0	32756	32688	
3144	0	32784	32807	
3145	0	32792	32872	
3146	0	32774	32881	
3147	0	32868	32730	
3148	0	32840	32820	
3149	0	32806	32823	
3150	0	32888	32732	
3151	0	32830	32722	
3152	0	32740	32671	
3153	0	32828	32775	
3154	0	32816	32695	
3155	0	32808	32748	
3156	0	32840	32682	
3157	0	32768	32862	
3158	0	32738	32804	
3159	0	32804	32870	
3160	0	32868	32771	
3161	0	32774	32727	
3162	0	32814	32839	
3163	0	32870	32772	
3164	0	32784	32847	
3165	0	32788	32772	
3166	0	32798	32754	
3167	0	32824	32695	
3168	0	32796	32772	
3169	0	32802	32786	
3170	0	32846	32693	
3171	0	32842	32743	
3172	0	32796	32775	
3173	0	32804	32898	
3174	0	32816	32827	
3175	0	32864	32801	
3176	0	32822	32855	
3177	0	32832	32764	
3178	0	32768	32887	
3179	0	32860	32846	
3180	0	32798	32792	
3181	0	32772	32702	
3182	0	32734	32886	
3183	0	32820	32754	
3184	0	32804	32830	
3185	0	32840	32708	
3186	0	32762	32726	
3187	0	32828	32911	
3188	0	32856	32740	
3189	0	32828	32720	
3190	0	32816	32600	
3191	0	32804	32646	
3192	0	32824	32532	
3193	0	32808	32682	
3194	0	32792	32660	
3195	0	32812	32796	
3196	0	32788	32855	
3197	0	32836	32906	
3198	0	32840	32887	
3199	0	32802	32775	
3200	0	32744	32756	
3201	0	32792	32692	
3202	0	32800	32863	
3203	0	32808	32676	
3204	0	32792	32746	
3205	0	32808	32831	
3206	0	32776	32700	
3207	0	32860	32790	
3208	0	32762	32750	
3209	0	32798	32820	
3210	0	32808	32886	
3211	0	32784	32860	
3212	0	32832	32828	
3213	0	32812	32849	
3214	0	32842	32900	
3215	0	32768	32880	
3216	0	32836	32775	
3217	0	32890	32662	
3218	0	32870	32756	
3219	0	32866	32584	
3220	0	32748	32688	
3221	0	32792	32598	
3222	0	32836	32822	
3223	0	32816	32769	
3224	0	32860	32735	
3225	0	32880	32670	
3226	0	32832	32725	
3227	0	32806	32806	
3228	0	32760	32728	
3229	0	32776	32802	
3230	0	32792	32695	
3231	0	32775	32700	
3232	0	32800	32804	
3233	0	32780	32820	
3234	0	32776	32884	
3235	0	32786	32786	
3236	0	32776	32890	
3237	0	32748	32775	
3238	0	32812	32839	
3239	0	32852	32874	
3240	0	32824	32766	
3241	0	32781	32862	
3242	0	32840	32812	
3243	0	32812	32668	
3244	0	32872	32812	
3245	0	32856	32748	
3246	0	32796	32754	
3247	0	32842	32804	
3248	0	32778	32756	
3249	0	32776	32818	
3250	0	32720	32807	
3251	0	32766	32854	
3252	0	32840	32708	
3253	0	32864	32583	
3254	0	32796	32692	
3255	0	32752	32640	
3256	0	32834	32612	
3257	0	32760	32676	
3258	0	32806	32599	
3259	0	32816	32775	
3260	0	32816	32774	
3261	0	32838	32647	
3262	0	32790	32764	
3263	0	32788	32720	
3264	0	32840	32882	
3265	0	32792	32854	
3266	0	32852	32756	
3267	0	32868	32948	
3268	0	32852	32866	
3269	0	32800	32662	
3270	0	32692	32604	
3271	0	32810	32768	
3272	0	32840	32572	
3273	0	32792	32634	
3274	0	32828	32708	
3275	0	32834	32678	
3276	0	32840	32770	
3277	0	32894	32801	
3278	0	32866	32843	
3279	0	32800	32814	
3280	0	32816	32772	
3281	0	32802	32793	
3282	0	32810	32856	
3283	0	32788	32944	
3284	0	32792	32839	
3285	0	32804	32732	
3286	0	32784	32839	
3287	0	32836	32950	
3288	0	32760	32807	
3289	0	32788	32752	
3290	0	32894	32680	
3291	0	32880	32775	
3292	0	32809	32647	
3293	0	32866	32708	
3294	0	32800	32766	
3295	0	32792	32652	
3296	0	32780	32706	
3297	0	32836	32774	
3298	0	32784	32826	
3299	0	32836	32922	
3300	0	32802	32852	
3301	0	32848	32756	
3302	0	32868	32796	
3303	0	32828	32775	
3304	0	32820	32823	
3305	0	32808	32967	
3306	0	32776	32868	
3307	0	32792	32721	
3308	0	32800	32804	
3309	0	32798	32734	
3310	0	32780	32634	
3311	0	32724	32775	
3312	0	32782	32740	
3313	0	32716	32482	
3314	0	32872	32543	
3315	0	32808	32564	
3316	0	32756	32698	
3317	0	32832	32636	
3318	0	32858	32740	
3319	0	32832	32864	
3320	0	32940	32846	
3321	0	32840	32919	
3322	0	32792	32935	
3323	0	32752	32977	
3324	0	32840	32863	
3325	0	32818	32892	
3326	0	32792	32850	
3327	0	32800	32862	
3328	0	32820	32690	
3329	0	32800	32428	
3330	0	32752	32406	
3331	0	32810	32426	
3332	0	32778	32550	
3333	0	32758	32620	
3334	0	32738	32792	
3335	0	32706	32908	
3336	0	32798	32703	
3337	0	32826	32881	
3338	0	32792	32967	
3339	0	32904	32980	
3340	0	32768	33172	
3341	0	32808	32914	
3342	0	32810	32922	
3343	0	32790	32820	
3344	0	32848	32679	
3345	0	32832	32743	
3346	0	32792	32654	
3347	0	32852	32714	
3348	0	32810	32712	
3349	0	32864	32676	
3350	0	32868	32762	
3351	0	32756	32678	
3352	0	32826	32704	
3353	0	32814	32682	
3354	0	32816	32560	
3355	0	32820	32588	
3356	0	32816	32715	
3357	0	32766	32622	
3358	0	32808	32600	
3359	0	32818	32604	
3360	0	32812	32856	
3361	0	32820	32860	
3362	0	32840	32878	
3363	0	32832	32980	
3364	0	32801	32750	
3365	0	32784	32964	
3366	0	32860	32992	
3367	0	32808	32897	
3368	0	32744	32900	
3369	0	32844	32903	
3370	0	32794	32983	
3371	0	32832	32846	
3372	0	32810	32876	
3373	0	32898	32835	
3374	0	32820	32615	
3375	0	32840	32623	
3376	0	32788	32706	
3377	0	32814	32602	
3378	0	32864	32732	
3379	0	32820	32638	
3380	0	32796	32502	
3381	0	32816	32623	
3382	0	32784	32736	
3383	0	32804	32610	
3384	0	32832	32720	
3385	0	32798	32601	
3386	0	32764	32612	
3387	0	32804	32588	
3388	0	32776	32816	
3389	0	32804	32764	
3390	0	32858	32570	
3391	0	32908	32898	
3392	0	32775	32854	
3393	0	32808	32897	
3394	0	32776	33056	
3395	0	32788	33124	
3396	0	32800	33052	
3397	0	32768	32903	
3398	0	32732	32934	
3399	0	32760	32980	
3400	0	32814	32678	
3401	0	32808	32622	
3402	0	32764	32748	
3403	0	32830	32696	
3404	0	32844	32732	
3405	0	32802	32664	
3406	0	32906	32608	
3407	0	32864	32622	
3408	0	32844	32672	
3409	0	32860	32600	
3410	0	32804	32628	
3411	0	32788	32708	
3412	0	32800	32544	
3413	0	32752	32716	
3414	0	32748	32656	
3415	0	32798	32812	
3416	0	32752	32798	
3417	0	32801	32646	
3418	0	32780	32914	
3419	0	32792	32868	
3420	0	32742	32757	
3421	0	32864	32880	
3422	0	32846	32950	
3423	0	32808	32924	
3424	0	32824	32962	
3425	0	32808	32752	
3426	0	32750	32887	
3427	0	32780	32916	
3428	0	32796	32902	
3429	0	32830	32706	
3430	0	32848	32730	
3431	0	32912	32694	
3432	0	32772	32712	
3433	0	32872	32766	
3434	0	32836	32704	
3435	0	32794	32696	
3436	0	32888	32671	
3437	0	32864	32687	
3438	0	32804	32574	
3439	0	32820	32662	
3440	0	32798	32716	
3441	0	32796	32806	
3442	0	32760	32830	
3443	0	32768	32852	
3444	0	32808	32785	
3445	0	32744	32746	
3446	0	32806	32880	
3447	0	32864	32903	
3448	0	32824	32892	
3449	0	32798	32900	
3450	0	32766	32807	
3451	0	32704	32760	
3452	0	32720	32742	
3453	0	32720	32810	
3454	0	32770	33023	
3455	0	32872	32988	
3456	0	32856	32980	
3457	0	32856	32745	
3458	0	32832	32674	
3459	0	32966	32508	
3460	0	32942	32392	
3461	0	32892	32417	
3462	0	32784	32664	
3463	0	32912	32839	
3464	0	32890	32835	
3465	0	32784	32820	
3466	0	32853	32930	
3467	0	32792	32924	
3468	0	32794	32871	
3469	0	32640	32775	
3470	0	32726	32706	
3471	0	32784	32698	
3472	0	32878	32814	
3473	0	32834	32620	
3474	0	32852	32730	
3475	0	32878	32684	
3476	0	32824	32668	
3477	0	32804	32760	
3478	0	32766	32820	
3479	0	32772	32878	
3480	0	32728	32807	
3481	0	32772	32974	
3482	0	32814	33154	
3483	0	32768	32843	
3484	0	32796	32924	
3485	0	32810	32945	
3486	0	32810	32334	
3487	0	32800	32519	
3488	0	32788	32632	
3489	0	32790	32500	
3490	0	32834	32680	
3491	0	32836	32622	
3492	0	32880	32416	
3493	0	32840	32370	
3494	0	32758	32726	
3495	0	32890	32756	
3496	0	32872	32856	
3497	0	32778	33020	
3498	0	32770	33088	
3499	0	32846	33256	
3500	0	32820	33159	
3501	0	32812	33166	
3502	0	32764	32806	
3503	0	32724	32550	
3504	0	32708	32690	
3505	0	32792	32408	
3506	0	32720	32488	
3507	0	32744	32708	
3508	0	32860	32722	
3509	0	32804	32832	
3510	0	32834	32702	
3511	0	32836	32700	
3512	0	32880	32516	
3513	0	32908	32680	
3514	0	32852	32754	
3515	0	32810	32700	
3516	0	32828	32850	
3517	0	32800	32693	
3518	0	32772	32899	
3519	0	32764	32871	
3520	0	32754	33074	
3521	0	32848	32986	
3522	0	32738	32916	
3523	0	32790	32928	
3524	0	32820	33162	
3525	0	32832	32830	
3526	0	32784	32566	
3527	0	32780	32320	
3528	0	32810	32628	
3529	0	32785	32652	
3530	0	32780	32774	
3531	0	32772	32768	
3532	0	32816	32822	
3533	0	32888	32974	
3534	0	32880	32804	
3535	0	32936	32696	
3536	0	32852	32722	
3537	0	32848	32612	
3538	0	32770	32530	
3539	0	32964	32564	
3540	0	32876	32478	
3541	0	32796	32775	
3542	0	32840	32736	
3543	0	32814	32794	
3544	0	32832	32647	
3545	0	32844	32788	
3546	0	32864	33013	
3547	0	32784	32842	
3548	0	32726	33066	
3549	0	32860	32942	
3550	0	32778	32903	
3551	0	32750	32878	
3552	0	32736	32792	
3553	0	32818	32788	
3554	0	32772	32732	
3555	0	32756	32598	
3556	0	32720	32734	
3557	0	32828	32646	
3558	0	32868	32704	
3559	0	32864	32714	
3560	0	32852	32702	
3561	0	32860	32769	
3562	0	32920	32862	
3563	0	32824	32846	
3564	0	32832	32823	
3565	0	32880	32908	
3566	0	32836	32976	
3567	0	32794	32958	
3568	0	32826	32787	
3569	0	32792	32956	
3570	0	32704	32944	
3571	0	32800	32900	
3572	0	32724	32468	
3573	0	32710	32072	
3574	0	32784	32204	
3575	0	32798	32497	
3576	0	32808	32655	
3577	0	32812	32711	
3578	0	32812	32860	
3579	0	32868	33088	
3580	0	32872	33056	
3581	0	32772	32940	
3582	0	32740	33011	
3583	0	32772	33013	
3584	0	32878	32930	
3585	0	32774	32790	
3586	0	32834	32417	
3587	0	32800	32586	
3588	0	32932	32638	
3589	0	32996	32948	
3590	0	32885	32886	
3591	0	32932	32802	
3592	0	32808	32658	
3593	0	32664	32850	
3594	0	32648	32647	
3595	0	32696	32842	
3596	0	32654	32568	
3597	0	32652	32892	
3598	0	32732	32852	
3599	0	32614	32806	
3600	0	32608	32724	
3601	0	32692	32771	
3602	0	32800	32498	
3603	0	33016	32352	
3604	0	33108	32190	
3605	0	33200	32380	
3606	0	33002	32868	
3607	0	32976	32952	
3608	0	33002	33010	
3609	0	32900	32788	
3610	0	32660	32452	
3611	0	32754	32754	
3612	0	32888	32920	
3613	0	32942	32751	
3614	0	32890	32913	
3615	0	32740	32988	
3616	0	32696	33368	
3617	0	32676	33302	
3618	0	32712	33045	
3619	0	32748	33090	
3620	0	32796	32838	
3621	0	32768	32688	
3622	0	32800	32552	
3623	0	32808	32167	
3624	0	32754	32435	
3625	0	32760	32356	
3626	0	32780	32246	
3627	0	32890	32935	
3628	0	32852	33054	
3629	0	32864	33152	
3630	0	32892	33168	
3631	0	32930	33286	
3632	0	32836	32988	
3633	0	32884	32664	
3634	0	32808	32410	
3635	0	32696	32450	
3636	0	32680	32910	
3637	0	32768	32940	
3638	0	32818	32902	
3639	0	32729	32664	
3640	0	32724	32647	
3641	0	32698	32430	
3642	0	32796	32412	
3643	0	32734	32646	
3644	0	32760	32716	
3645	0	32716	32752	
3646	0	32632	32878	
3647	0	32766	32375	
3648	0	32752	32655	
3649	0	32826	32498	
3650	0	32804	32890	
3651	0	32732	33306	
3652	0	32872	33300	
3653	0	33136	33090	
3654	0	33090	32860	
3655	0	32985	32730	
3656	0	32832	32647	
3657	0	32769	32396	
3658	0	32864	32416	
3659	0	32836	32572	
3660	0	32760	32752	
3661	0	32586	32838	
3662	0	32616	33062	
3663	0	32674	32804	
3664	0	32724	32790	
3665	0	32796	32790	
3666	0	32794	32614	
3667	0	32940	32636	
3668	0	33306	32775	
3669	0	33112	33137	
3670	0	33000	32742	
3671	0	32876	32664	
3672	0	32640	32319	
3673	0	32636	32426	
3674	0	32604	33068	
3675	0	32604	32942	
3676	0	32792	32659	
3677	0	32884	32634	
3678	0	32696	32724	
3679	0	32584	32568	
3680	0	32614	32262	
3681	0	32654	32538	
3682	0	32820	32734	
3683	0	32882	32964	
3684	0	32896	33044	
3685	0	32880	33198	
3686	0	32900	33120	
3687	0	32808	33039	
3688	0	32872	32942	
3689	0	32928	33124	
3690	0	32764	32892	
3691	0	32744	32808	
3692	0	32628	32772	
3693	0	32662	33196	
3694	0	32676	32720	
3695	0	32706	32674	
3696	0	32684	32590	
3697	0	32990	32706	
3698	0	33316	32418	
3699	0	33336	32345	
3700	0	33158	32714	
3701	0	32780	32540	
3702	0	32574	32498	
3703	0	32478	32574	
3704	0	32610	32852	
3705	0	32572	32892	
3706	0	32567	32702	
3707	0	32704	33174	
3708	0	32716	32770	
3709	0	32846	32696	
3710	0	32768	32486	
3711	0	32780	31982	
3712	0	32948	31992	
3713	0	33040	31962	
3714	0	33162	32684	
3715	0	33204	33155	
3716	0	32926	33372	
3717	0	32820	33202	
3718	0	32878	32744	
3719	0	32804	32444	
3720	0	32702	32284	
3721	0	32752	32862	
3722	0	32804	33026	
3723	0	32906	33044	
3724	0	32956	32852	
3725	0	33080	32401	
3726	0	33100	32421	
3727	0	32928	32674	
3728	0	32689	32806	
3729	0	32490	33240	
3730	0	32414	33058	
3731	0	32508	32961	
3732	0	32360	33308	
3733	0	32318	33556	
3734	0	32196	33436	
3735	0	32408	33378	
3736	0	32684	33206	
3737	0	32688	32830	
3738	0	32700	32888	
3739	0	32590	32891	
3740	0	32704	32884	
3741	0	32680	33230	
3742	0	32908	33396	
3743	0	33108	33174	
3744	0	33240	32964	
3745	0	33048	32898	
3746	0	32848	32308	
3747	0	32566	32032	
3748	0	32496	31010	
3749	0	32428	31900	
3750	0	32560	32492	
3751	0	32716	32888	
3752	0	32860	33222	
3753	0	33072	32832	
3754	0	33030	32641	
3755	0	32944	32134	
3756	0	32880	32396	
3757	0	32954	32726	
3758	0	32906	33372	
3759	0	32872	33566	
3760	0	32838	33127	
3761	0	32712	32876	
3762	0	32668	32481	
3763	0	32657	32108	
3764	0	32692	32326	
3765	0	32840	33096	
3766	0	32988	32134	
3767	0	32848	31869	
3768	0	32880	31964	
3769	0	32884	32170	
3770	0	32780	33000	
3771	0	32908	33206	
3772	0	33040	32751	
3773	0	33188	33312	
3774	0	33136	32938	
3775	0	32874	33252	
3776	0	32540	33644	
3777	0	32332	33508	
3778	0	32428	32502	
3779	0	32536	32774	
3780	0	32676	32551	
3781	0	32606	32071	
3782	0	32778	32583	
3783	0	32984	32924	
3784	0	33020	33404	
3785	0	32938	32898	
3786	0	32708	32852	
3787	0	32472	32652	
3788	0	32472	32818	
3789	0	32220	32078	
3790	0	31940	32516	
3791	0	32060	33145	
3792	0	32170	33223	
3793	0	32536	32800	
3794	0	32628	32556	
3795	0	32820	32342	
3796	0	33048	32358	
3797	0	33148	32280	
3798	0	33144	32441	
3799	0	32992	33324	
3800	0	32756	33134	
3801	0	32816	33383	
3802	0	32744	33300	
3803	0	32756	33116	
3804	0	32816	32935	
3805	0	32522	32668	
3806	0	32420	32422	
3807	0	32864	32814	
3808	0	33020	32630	
3809	0	33188	32258	
3810	0	33434	32034	
3811	0	33334	32454	
3812	0	33042	32230	
3813	0	32984	32324	
3814	0	32956	33064	
3815	0	32684	33086	
3816	0	32680	32873	
3817	0	32804	32774	
3818	0	32830	33628	
3819	0	33080	33639	
3820	0	33372	33072	
3821	0	33442	32546	
3822	0	33822	33066	
3823	0	33516	33799	
3824	0	33004	33223	
3825	0	32842	31944	
3826	0	33044	32202	
3827	0	33172	32458	
3828	0	33204	30650	
3829	0	33184	30979	
3830	0	32796	33082	
3831	0	32468	33878	
3832	0	32356	33558	
3833	0	32464	32948	
3834	0	32496	32986	
3835	0	32594	32765	
3836	0	32636	33030	
3837	0	32504	33724	
3838	0	32308	33296	
3839	0	32212	32422	
3840	0	32324	32610	
3841	0	32386	31690	
3842	0	32548	32519	
3843	0	32498	33086	
3844	0	32844	33380	
3845	0	33162	33668	
3846	0	33060	34484	
3847	0	32754	33402	
3848	0	32536	32390	
3849	0	32744	31412	
3850	0	32816	31604	
3851	0	32822	32336	
3852	0	32852	33196	
3853	0	32796	33178	
3854	0	32788	32844	
3855	0	32896	32410	
3856	0	33344	33072	
3857	0	33796	33296	
3858	0	33762	32622	
3859	0	33356	31784	
3860	0	33096	31536	
3861	0	32920	31144	
3862	0	32902	32354	
3863	0	32444	34202	
3864	0	32348	34266	
3865	0	32900	33700	
3866	0	32988	32544	
3867	0	33138	32184	
3868	0	32940	31308	
3869	0	32901	32174	
3870	0	32638	33025	
3871	0	32316	33362	
3872	0	32332	33510	
3873	0	32472	33244	
3874	0	32392	33248	
3875	0	32662	33364	
3876	0	33300	32823	
3877	0	33616	32632	
3878	0	33414	32924	
3879	0	33346	31831	
3880	0	33066	30380	
3881	0	33340	31826	
3882	0	33452	34196	
3883	0	33248	34350	
3884	0	33084	33620	
3885	0	33424	33390	
3886	0	33604	32354	
3887	0	33570	31729	
3888	0	33268	32293	
3889	0	33112	32796	
3890	0	32878	32730	
3891	0	32746	33194	
3892	0	32688	32908	
3893	0	32612	32903	
3894	0	32650	32060	
3895	0	32700	32284	
3896	0	32744	32088	
3897	0	32840	32704	
3898	0	32666	33593	
3899	0	32772	33154	
3900	0	32964	33022	
3901	0	33178	32656	
3902	0	33128	32810	
3903	0	32940	33322	
3904	0	32942	32836	
3905	0	32998	32674	
3906	0	32942	32228	
3907	0	32796	31622	
3908	0	32808	32788	
3909	0	32858	33394	
3910	0	32888	33822	
3911	0	32752	33530	
3912	0	32692	32184	
3913	0	32624	32817	
3914	0	32718	32980	
3915	0	32676	32712	
3916	0	32846	32634	
3917	0	32840	32484	
3918	0	32742	32426	
3919	0	32768	32572	
3920	0	32888	32678	
3921	0	33030	32792	
3922	0	32934	32362	
3923	0	32686	32388	
3924	0	32744	33340	
3925	0	32644	33703	
3926	0	32836	33528	
3927	0	32772	32572	
3928	0	32786	30276	
3929	0	33128	31022	
3930	0	33144	33742	
3931	0	32876	34168	
3932	0	32964	33487	
3933	0	32616	33010	
3934	0	32364	33020	
3935	0	32492	32822	
3936	0	32852	32810	
3937	0	32768	32608	
3938	0	32586	31798	
3939	0	32554	31495	
3940	0	32648	33068	
3941	0	32840	33612	
3942	0	32960	33185	
3943	0	33058	32322	
3944	0	33072	33076	
3945	0	33098	33020	
3946	0	33176	32984	
3947	0	32844	32826	
3948	0	32775	32646	
3949	0	32674	32751	
3950	0	32912	33446	
3951	0	32868	33086	
3952	0	32664	33234	
3953	0	32712	32391	
3954	0	32780	32400	
3955	0	32772	32212	
3956	0	32496	31974	
3957	0	32344	32192	
3958	0	32506	32380	
3959	0	32520	32855	
3960	0	32936	32902	
3961	0	33020	32750	
3962	0	32736	32638	
3963	0	32560	32932	
3964	0	32774	33252	
3965	0	32920	33148	
3966	0	32896	33238	
3967	0	32792	32814	
3968	0	32806	32596	
3969	0	32846	32732	
3970	0	32776	32919	
3971	0	32640	32788	
3972	0	32846	31976	
3973	0	33176	32510	
3974	0	33258	32224	
3975	0	33068	33722	
3976	0	33126	33460	
3977	0	33096	31990	
3978	0	33060	31590	
3979	0	32474	32400	
3980	0	32716	33909	
3981	0	32916	33496	
3982	0	32916	32156	
3983	0	33024	31678	
3984	0	32984	32636	
3985	0	32926	33506	
3986	0	32786	33506	
3987	0	32616	32884	
3988	0	32394	32840	
3989	0	32364	32616	
3990	0	32336	32500	
3991	0	32244	33096	
3992	0	32432	33130	
3993	0	32696	32514	
3994	0	32836	31676	
3995	0	32992	30839	
3996	0	32932	32846	
3997	0	32664	33646	
3998	0	32742	33076	
3999	0	32492	33454	
4000	0	32452	33450	
4001	0	32812	33604	
4002	0	33320	33244	
4003	0	33576	33242	
4004	0	33040	31824	
4005	0	32614	31983	
4006	0	32324	32962	
4007	0	32330	32764	
4008	0	32652	32774	
4009	0	32686	32598	
4010	0	32522	32604	
4011	0	32630	32855	
4012	0	32576	33242	
4013	0	32656	32768	
4014	0	32710	32840	
4015	0	32748	33276	
4016	0	32914	32748	
4017	0	32318	31228	
4018	0	32136	32128	
4019	0	32702	32698	
4020	0	33160	33600	
4021	0	32985	33308	
4022	0	32578	31986	
4023	0	32652	32308	
4024	0	32704	32551	
4025	0	32644	32010	
4026	0	32588	32396	
4027	0	32552	33358	
4028	0	32636	33608	
4029	0	32704	33050	
4030	0	32620	32852	
4031	0	32568	33177	
4032	0	32606	33152	
4033	0	32936	33636	
4034	0	33308	33884	
4035	0	33106	33024	
4036	0	32996	32074	
4037	0	32912	30215	
4038	0	33156	31048	
4039	0	32820	33287	
4040	0	32666	33684	
4041	0	32700	33538	
4042	0	32889	33040	
4043	0	32930	33092	
4044	0	32640	32666	
4045	0	32508	32438	
4046	0	32484	31902	
4047	0	32596	32372	
4048	0	32864	32878	
4049	0	32748	33018	
4050	0	32790	32924	
4051	0	32884	33058	
4052	0	32896	32898	
4053	0	32780	33088	
4054	0	33038	32829	
4055	0	33000	32348	
4056	0	32996	32072	
4057	0	33064	33010	
4058	0	32898	33350	
4059	0	32874	33216	
4060	0	32644	32676	
4061	0	32858	32374	
4062	0	33024	32836	
4063	0	33038	33136	
4064	0	32879	32878	
4065	0	32632	33186	
4066	0	32300	32614	
4067	0	32520	32283	
4068	0	32728	32494	
4069	0	32716	32262	
4070	0	32764	32510	
4071	0	32816	33354	
4072	0	32580	33272	
4073	0	32718	32152	
4074	0	32616	31544	
4075	0	32800	32167	
4076	0	32388	32908	
4077	0	32898	34026	
4078	0	32990	33468	
4079	0	33000	33118	
4080	0	32856	32673	
4081	0	32780	32628	
4082	0	32994	32420	
4083	0	32800	32708	
4084	0	32668	32762	
4085	0	32596	33118	
4086	0	32636	32862	
4087	0	32756	32775	
4088	0	32744	32936	
4089	0	32590	32832	
4090	0	32656	33172	
4091	0	32692	31985	
4092	0	33024	32020	
4093	0	33044	32536	
4094	0	32960	32534	
4095	0	32996	32879	
4096	0	33188	33799	
4097	0	33120	33460	
4098	0	32780	33136	
4099	0	32642	32402	
4100	0	33012	32404	
4101	0	33156	31847	
4102	0	32720	32470	
4103	0	32724	33310	
4104	0	32833	32871	
4105	0	32912	32640	
4106	0	32658	32406	
4107	0	32812	33052	
4108	0	32938	32282	
4109	0	32980	32928	
4110	0	32810	33100	
4111	0	32754	32404	
4112	0	32874	32388	
4113	0	33024	32360	
4114	0	33066	33167	
4115	0	32740	32976	
4116	0	32498	32764	
4117	0	32812	33176	
4118	0	32836	32847	
4119	0	32838	32916	
4120	0	32560	33156	
4121	0	32536	32044	
4122	0	32580	32230	
4123	0	32724	32506	
4124	0	32910	32678	
4125	0	32676	33216	
4126	0	32529	33559	
4127	0	32564	32506	
4128	0	32775	32828	
4129	0	32932	33628	
4130	0	32780	33492	
4131	0	32856	32719	
4132	0	33036	32278	
4133	0	33078	32004	
4134	0	33180	32236	
4135	0	33022	32298	
4136	0	32960	32391	
4137	0	32800	32332	
4138	0	32616	32919	
4139	0	32476	32930	
4140	0	32668	32716	
4141	0	32866	33119	
4142	0	32958	32654	
4143	0	32836	33383	
4144	0	32724	32752	
4145	0	32584	32646	
4146	0	32578	33287	
4147	0	32686	32300	
4148	0	33144	31746	
4149	0	33102	33332	
4150	0	32836	34374	
4151	0	32684	33424	
4152	0	32496	31964	
4153	0	32452	32286	
4154	0	32332	32948	
4155	0	32458	32772	
4156	0	32872	32830	
4157	0	33088	32416	
4158	0	33141	32255	
4159	0	33168	32810	
4160	0	33008	32734	
4161	0	32974	32396	
4162	0	32948	33045	
4163	0	32828	32977	
4164	0	32864	32516	
4165	0	32824	32567	
4166	0	32844	33054	
4167	0	32852	33062	
4168	0	32944	32896	
4169	0	32736	33002	
4170	0	32738	32775	
4171	0	32542	32583	
4172	0	32664	32694	
4173	0	32908	32884	
4174	0	32844	32948	
4175	0	32728	32892	
4176	0	33098	32532	
4177	0	33358	32496	
4178	0	33137	32388	
4179	0	32910	33349	
4180	0	32856	32672	
4181	0	32793	32564	
4182	0	32830	31906	
4183	0	32738	31495	
4184	0	32612	32892	
4185	0	32576	33402	
4186	0	32608	33812	
4187	0	32472	32872	
4188	0	32308	32336	
4189	0	32618	32586	
4190	0	32796	33031	
4191	0	32876	32998	
4192	0	32796	32207	
4193	0	33178	32506	
4194	0	33056	32668	
4195	0	32934	31672	
4196	0	33128	32232	
4197	0	33022	32823	
4198	0	32916	32950	
4199	0	32776	33578	
4200	0	32860	33626	
4201	0	32800	33260	
4202	0	32756	33799	
4203	0	33446	33724	
4204	0	33326	33226	
4205	0	32512	32564	
4206	0	32198	32474	
4207	0	32180	32016	
4208	0	32158	32104	
4209	0	32320	32258	
4210	0	32644	32405	
4211	0	32568	32646	
4212	0	32636	32804	
4213	0	32676	32968	
4214	0	32992	32190	
4215	0	33114	32507	
4216	0	33136	32591	
4217	0	33072	32995	
4218	0	33096	32840	
4219	0	32962	32764	
4220	0	32818	32570	
4221	0	32676	31736	
4222	0	33178	32426	
4223	0	33584	33064	
4224	0	33080	33380	
4225	0	32480	32678	
4226	0	32280	32832	
4227	0	32272	32478	
4228	0	32128	32526	
4229	0	32520	34220	
4230	0	33356	33600	
4231	0	33848	32888	
4232	0	33364	32506	
4233	0	32676	32756	
4234	0	32508	32668	
4235	0	32496	32631	
4236	0	32646	32326	
4237	0	32684	32460	
4238	0	32466	32496	
4239	0	32688	32556	
4240	0	32772	32475	
4241	0	32952	32330	
4242	0	33056	32752	
4243	0	33312	33122	
4244	0	33280	32642	
4245	0	32964	33030	
4246	0	32801	33404	
4247	0	32726	32328	
4248	0	32736	32550	
4249	0	32724	32774	
4250	0	32780	32596	
4251	0	32890	33312	
4252	0	32694	32846	
4253	0	32657	32362	
4254	0	32846	32582	
4255	0	32964	33470	
4256	0	32846	33955	
4257	0	32776	32788	
4258	0	32872	31840	
4259	0	32704	32240	
4260	0	32580	32386	
4261	0	32792	32759	
4262	0	32640	32295	
4263	0	32716	31924	
4264	0	33022	33073	
4265	0	33002	33822	
4266	0	32942	33716	
4267	0	33108	33332	
4268	0	33254	32484	
4269	0	33114	32744	
4270	0	33116	33223	
4271	0	32964	32434	
4272	0	32752	32342	
4273	0	32356	32836	
4274	0	32370	33157	
4275	0	32258	33111	
4276	0	32306	32476	
4277	0	32152	32100	
4278	0	32273	32218	
4279	0	32404	32735	
4280	0	32450	32046	
4281	0	32536	33012	
4282	0	32636	33660	
4283	0	32740	33620	
4284	0	32724	33602	
4285	0	32892	33268	
4286	0	33096	33086	
4287	0	33281	32520	
4288	0	33292	32968	
4289	0	33379	33668	
4290	0	33508	33572	
4291	0	33320	33350	
4292	0	32982	32746	
4293	0	32996	33095	
4294	0	33176	33079	
4295	0	32844	32791	
4296	0	32812	32534	
4297	0	32608	32401	
4298	0	32692	32748	
4299	0	32588	32548	
4300	0	32468	32660	
4301	0	32478	32679	
4302	0	32492	32686	
4303	0	32820	32800	
4304	0	32984	32992	
4305	0	32776	32772	
4306	0	32732	32684	
4307	0	32772	32510	
4308	0	32812	32658	
4309	0	33002	32536	
4310	0	33000	32330	
4311	0	32956	32288	
4312	0	32920	32366	
4313	0	32784	32322	
4314	0	32689	32490	
4315	0	32708	32474	
4316	0	32778	32604	
4317	0	32806	32732	
4318	0	32686	32830	
4319	0	32700	32679	
4320	0	32790	32646	
4321	0	32692	33246	
4322	0	32748	32516	
4323	0	32702	32184	
4324	0	32664	32786	
4325	0	32716	32336	
4326	0	32768	32050	
4327	0	32729	32636	
4328	0	32816	34150	
4329	0	33388	33926	
4330	0	33258	31984	
4331	0	32636	31654	
4332	0	32972	32806	
4333	0	33036	33044	
4334	0	32824	32690	
4335	0	32836	32308	
4336	0	32832	31830	
4337	0	32668	32328	
4338	0	32496	32462	
4339	0	32412	32540	
4340	0	32442	32610	
4341	0	32620	32660	
4342	0	32634	32474	
4343	0	32704	32744	
4344	0	32802	32910	
4345	0	32744	32694	
4346	0	32796	32668	
4347	0	32850	32574	
4348	0	32930	32490	
4349	0	32826	32263	
4350	0	32884	32220	
4351	0	32906	32462	
4352	0	32853	32358	
4353	0	32900	32255	
4354	0	32868	32746	
4355	0	33028	32744	
4356	0	32956	32723	
4357	0	32876	33048	
4358	0	32878	33116	
4359	0	32945	32999	
4360	0	32772	33010	
4361	0	32808	33127	
4362	0	32804	32768	
4363	0	32862	32722	
4364	0	32874	32796	
4365	0	32916	32700	
4366	0	32720	32318	
4367	0	32710	32648	
4368	0	32652	32614	
4369	0	32848	32228	
4370	0	32904	32048	
4371	0	32944	32532	
4372	0	32822	32723	
4373	0	32628	32196	
4374	0	32764	32364	
4375	0	32832	32518	
4376	0	32836	32338	
4377	0	32692	32666	
4378	0	32758	32558	
4379	0	32864	32692	
4380	0	32760	32368	
4381	0	32832	32828	
4382	0	32876	32720	
4383	0	32732	32332	
4384	0	32508	31585	
4385	0	32340	31780	
4386	0	32390	33136	
4387	0	32600	33104	
4388	0	32496	32716	
4389	0	32882	32452	
4390	0	34389	31652	
4391	0	34688	32070	
4392	0	33472	31708	
4393	0	32600	31526	
4394	0	32264	32346	
4395	0	32484	31922	
4396	0	32528	31815	
4397	0	32848	32614	
4398	0	32926	32359	
4399	0	32566	32234	
4400	0	32164	31959	
4401	0	32228	32036	
4402	0	32298	32486	
4403	0	32636	33152	
4404	0	32982	33226	
4405	0	33078	33244	
4406	0	33084	32844	
4407	0	32992	32458	
4408	0	32952	32209	
4409	0	32864	32580	
4410	0	32881	32488	
4411	0	32802	32346	
4412	0	32920	32220	
4413	0	32810	32172	
4414	0	32872	32252	
4415	0	32738	32304	
4416	0	32788	32292	
4417	0	32838	32258	
4418	0	32864	32502	
4419	0	32832	32996	
4420	0	32816	33287	
4421	0	32820	33696	
4422	0	32824	33972	
4423	0	32808	33992	
4424	0	32808	33831	
4425	0	32788	33016	
4426	0	32896	33543	
4427	0	32900	33626	
4428	0	32836	33018	
4429	0	32856	32871	
4430	0	32864	32710	
4431	0	32868	32702	
4432	0	32752	32076	
4433	0	32670	32199	
4434	0	32775	32240	
4435	0	32792	32646	
4436	0	33016	32930	
4437	0	32878	32903	
4438	0	32732	32942	
4439	0	32532	32746	
4440	0	32516	33218	
4441	0	32608	33578	
4442	0	32804	33966	
4443	0	32884	34268	
4444	0	32820	34410	
4445	0	32730	34230	
4446	0	32688	34134	
4447	0	32680	34200	
4448	0	32752	34140	
4449	0	32780	34140	
4450	0	32900	34152	
4451	0	32912	34300	
4452	0	32868	34142	
4453	0	32806	33958	
4454	0	32708	33896	
4455	0	32732	34234	
4456	0	32812	34192	
4457	0	32852	33966	
4458	0	32836	33966	
4459	0	32896	34208	
4460	0	32732	34138	
4461	0	32644	33974	
4462	0	32824	33730	
4463	0	32834	33679	
4464	0	32704	33776	
4465	0	32668	33608	
4466	0	32644	33636	
4467	0	33006	33498	
4468	0	32948	33606	
4469	0	32834	33680	
4470	0	32992	33506	
4471	0	33148	33552	
4472	0	32924	33836	
4473	0	32718	33830	
4474	0	32764	33494	
4475	0	32742	33480	
4476	0	32736	33366	
4477	0	32816	33420	
4478	0	32870	33284	
4479	0	32792	33460	
4480	0	32756	33212	
4481	0	32844	33122	
4482	0	32744	33374	
4483	0	32766	33258	
4484	0	32892	33126	
4485	0	32848	33172	
4486	0	32868	33194	
4487	0	32930	33004	
4488	0	32856	32954	
4489	0	32788	32556	
4490	0	32860	31970	
4491	0	32818	32084	
4492	0	32876	32126	
4493	0	32756	31945	
4494	0	32912	32252	
4495	0	32852	32288	
4496	0	32972	32132	
4497	0	32906	32234	
4498	0	32782	32593	
4499	0	32720	32076	
4500	0	32684	32167	
4501	0	32786	32260	
4502	0	32796	32332	
4503	0	32888	32182	
4504	0	32812	32124	
4505	0	32804	31919	
4506	0	32864	31876	
4507	0	32760	31872	
4508	0	32758	32104	
4509	0	32766	32186	
4510	0	32856	32263	
4511	0	32788	31990	
4512	0	32778	32180	
4513	0	32800	32044	
4514	0	32632	32037	
4515	0	32544	31914	
4516	0	32504	31820	
4517	0	32774	31687	
4518	0	32812	31402	
4519	0	32968	31876	
4520	0	33158	32354	
4521	0	33092	31978	
4522	0	32928	32113	
4523	0	32752	32582	
4524	0	32860	32796	
4525	0	32576	32838	
4526	0	32552	32688	
4527	0	32740	32906	
4528	0	32792	32996	
4529	0	32792	33012	
4530	0	32820	33076	
4531	0	32948	32910	
4532	0	32916	32724	
4533	0	33008	32858	
4534	0	33016	32838	
4535	0	33096	32828	
4536	0	33012	32688	
4537	0	32900	32350	
4538	0	32911	32228	
4539	0	32848	31960	
4540	0	32836	31946	
4541	0	32872	32172	
4542	0	32860	32512	
4543	0	32676	32552	
4544	0	32776	32532	
4545	0	32964	32368	
4546	0	32980	32839	
4547	0	32914	32320	
4548	0	32958	32620	
4549	0	32892	32738	
4550	0	32854	32974	
4551	0	32756	32909	
4552	0	32680	33060	
4553	0	32822	32584	
4554	0	32664	32542	
4555	0	32532	32343	
4556	0	32704	32640	
4557	0	32804	32388	
4558	0	32808	32224	
4559	0	32844	32316	
4560	0	32892	32628	
4561	0	32892	32489	
4562	0	32804	32548	
4563	0	32948	32673	
4564	0	32712	32512	
4565	0	32760	32484	
4566	0	33044	32618	
4567	0	32896	32790	
4568	0	32968	32775	
4569	0	32804	32807	
4570	0	32724	32842	
4571	0	32736	32756	
4572	0	32660	32628	
4573	0	32656	32316	
4574	0	32656	32359	
4575	0	32584	32202	
4576	0	32542	32800	
4577	0	32564	33404	
4578	0	32832	33312	
4579	0	33136	32908	
4580	0	33368	33002	
4581	0	33116	32980	
4582	0	33000	32988	
4583	0	32876	32608	
4584	0	32680	32558	
4585	0	32648	32628	
4586	0	32600	32580	
4587	0	32712	32458	
4588	0	32776	33072	
4589	0	32804	33140	
4590	0	32632	32896	
4591	0	32696	32666	
4592	0	32740	32647	
4593	0	32870	32840	
4594	0	32784	32903	
4595	0	32844	32871	
4596	0	32864	32830	
4597	0	32916	32704	
4598	0	32844	32423	
4599	0	32866	32548	
4600	0	32868	32540	
4601	0	32808	32640	
4602	0	32860	32647	
4603	0	32824	33028	
4604	0	32940	33316	
4605	0	32976	33534	
4606	0	33020	33519	
4607	0	33102	33388	
4608	0	33159	33133	
4609	0	33200	32967	
4610	0	33136	32618	
4611	0	33100	32164	
4612	0	32988	31882	
4613	0	32968	31656	
4614	0	32932	31878	
4615	0	32878	32151	
4616	0	32764	32553	
4617	0	32696	32374	
4618	0	32630	32190	
4619	0	32464	32192	
4620	0	32256	32646	
4621	0	32460	32948	
4622	0	32592	32751	
4623	0	32514	32500	
4624	0	32596	32861	
4625	0	32624	32874	
4626	0	32696	33039	
4627	0	32680	33140	
4628	0	32708	33303	
4629	0	32664	33493	
4630	0	32692	33596	
4631	0	32648	33383	
4632	0	32754	33348	
4633	0	32796	33134	
4634	0	32868	32927	
4635	0	32888	32652	
4636	0	32960	32866	
4637	0	32900	33007	
4638	0	32944	32788	
4639	0	33052	32622	
4640	0	32884	32478	
4641	0	32970	32366	
4642	0	32960	32620	
4643	0	32950	32674	
4644	0	32898	32747	
4645	0	32840	32608	
4646	0	32882	32670	
4647	0	32856	32636	
4648	0	32736	32668	
4649	0	32750	32722	
4650	0	32688	32698	
4651	0	32602	32736	
4652	0	32520	32704	
4653	0	32602	32878	
4654	0	32616	32808	
4655	0	32712	32934	
4656	0	32708	32758	
4657	0	32708	32724	
4658	0	32832	32702	
4659	0	32782	32846	
4660	0	32976	32798	
4661	0	32916	32929	
4662	0	32748	33016	
4663	0	32766	32834	
4664	0	32776	32956	
4665	0	32604	32940	
4666	0	32420	32622	
4667	0	32524	32444	
4668	0	32580	32359	
4669	0	32734	32376	
4670	0	32942	32276	
4671	0	32916	32490	
4672	0	32950	32678	
4673	0	32912	32769	
4674	0	32908	32802	
4675	0	32944	32832	
4676	0	32990	32892	
4677	0	32894	32814	
4678	0	32896	32744	
4679	0	32892	32807	
4680	0	32904	32750	
4681	0	32864	32852	
4682	0	32829	32944	
4683	0	32912	33304	
4684	0	32796	33310	
4685	0	32836	33074	
4686	0	32840	32976	
4687	0	32912	32890	
4688	0	32920	32954	
4689	0	32988	32879	
4690	0	32896	32750	
4691	0	32866	32666	
4692	0	32788	32640	
4693	0	32720	32916	
4694	0	32652	32682	
4695	0	32678	32738	
4696	0	32732	32807	
4697	0	32716	32769	
4698	0	32760	32655	
4699	0	32916	32614	
4700	0	33040	32612	
4701	0	33040	32810	
4702	0	33088	32590	
4703	0	32902	32858	
4704	0	32788	32807	
4705	0	32816	32772	
4706	0	32708	32702	
4707	0	32640	32746	
4708	0	32654	32830	
4709	0	32829	32882	
4710	0	32808	32759	
4711	0	32692	32847	
4712	0	32720	32958	
4713	0	32744	32821	
4714	0	32796	32943	
4715	0	32782	33220	
4716	0	32742	33208	
4717	0	32933	32990	
4718	0	32762	32880	
4719	0	32568	32761	
4720	0	32648	33174	
4721	0	32722	33078	
4722	0	32836	32540	
4723	0	32768	32464	
4724	0	32828	32422	
4725	0	32848	32636	
4726	0	32906	32528	
4727	0	32892	32388	
4728	0	32748	32500	
4729	0	32902	32488	
4730	0	32896	32359	
4731	0	32748	32260	
4732	0	32712	32038	
4733	0	32644	31804	
4734	0	32488	31846	
4735	0	32558	32130	
4736	0	32598	32502	
4737	0	32772	32736	
4738	0	32776	32846	
4739	0	32818	32950	
4740	0	32760	33196	
4741	0	32778	33195	
4742	0	32758	33527	
4743	0	32848	33504	
4744	0	32916	33626	
4745	0	32812	33684	
4746	0	32840	33342	
4747	0	32794	32900	
4748	0	32766	32791	
4749	0	32768	32604	
4750	0	32816	32574	
4751	0	32952	32585	
4752	0	33036	32474	
4753	0	32818	32342	
4754	0	32718	32092	
4755	0	32764	32094	
4756	0	32684	32356	
4757	0	32638	32612	
4758	0	32700	32812	
4759	0	32684	33004	
4760	0	32740	33263	
4761	0	32791	33222	
4762	0	32824	33196	
4763	0	32850	33228	
4764	0	32832	33108	
4765	0	32860	33036	
4766	0	32908	32838	
4767	0	32838	32962	
4768	0	32832	32772	
4769	0	32810	32822	
4770	0	32792	32446	
4771	0	32828	32519	
4772	0	32673	32451	
4773	0	32656	32513	
4774	0	32713	32566	
4775	0	32772	32546	
4776	0	32768	32658	
4777	0	32844	32528	
4778	0	32844	32838	
4779	0	32948	32814	
4780	0	32952	32786	
4781	0	32932	32956	
4782	0	32960	33180	
4783	0	32960	32922	
4784	0	32828	33060	
4785	0	32784	32850	
4786	0	32686	33124	
4787	0	32560	32898	
4788	0	32394	32615	
4789	0	32308	32544	
4790	0	32526	32656	
4791	0	32780	32710	
4792	0	33248	32536	
4793	0	33148	32472	
4794	0	33082	32604	
4795	0	33310	32494	
4796	0	33180	32308	
4797	0	33080	32438	
4798	0	33002	32480	
4799	0	32884	32612	
4800	0	32982	32558	
4801	0	32892	32960	
4802	0	32836	32994	
4803	0	32708	33119	
4804	0	32706	33082	
4805	0	32652	32836	
4806	0	32660	32668	
4807	0	32558	32800	
4808	0	32714	32774	
4809	0	32684	32695	
4810	0	32708	32916	
4811	0	32720	32928	
4812	0	32852	32871	
4813	0	32772	32974	
4814	0	32834	33244	
4815	0	32814	33696	
4816	0	32780	33714	
4817	0	32764	33579	
4818	0	32828	33202	
4819	0	32856	32610	
4820	0	32780	32153	
4821	0	32748	31399	
4822	0	32856	31520	
4823	0	32900	31980	
4824	0	32880	32060	
4825	0	32932	32282	
4826	0	32864	32052	
4827	0	33004	32174	
4828	0	32900	32652	
4829	0	32960	32572	
4830	0	32760	32868	
4831	0	32728	32810	
4832	0	32708	33076	
4833	0	32780	33020	
4834	0	32768	32853	
4835	0	32818	32935	
4836	0	32828	32916	
4837	0	32828	33114	
4838	0	32936	33322	
4839	0	32812	33543	
4840	0	32768	33653	
4841	0	32708	33808	
4842	0	32768	33770	
4843	0	32800	33638	
4844	0	32688	33412	
4845	0	32692	33122	
4846	0	32714	32832	
4847	0	32760	32238	
4848	0	32740	31868	
4849	0	32738	31679	
4850	0	32730	31160	
4851	0	32812	31650	
4852	0	32996	31826	
4853	0	32984	32476	
4854	0	32956	32452	
4855	0	32782	32263	
4856	0	32708	32404	
4857	0	32804	32573	
4858	0	32708	32712	
4859	0	32616	32948	
4860	0	32528	32906	
4861	0	32760	33071	
4862	0	32834	32992	
4863	0	32756	32986	
4864	0	32781	32971	
4865	0	32884	33152	
4866	0	32858	33111	
4867	0	32836	33226	
4868	0	32868	33404	
4869	0	32857	33382	
4870	0	32913	33208	
4871	0	32900	33160	
4872	0	32820	33140	
4873	0	32842	33062	
4874	0	32768	33182	
4875	0	32724	33084	
4876	0	32696	33232	
4877	0	32778	32984	
4878	0	32748	32970	
4879	0	32865	32600	
4880	0	32904	32262	
4881	0	32888	32186	
4882	0	32936	32302	
4883	0	32872	32284	
4884	0	32852	32144	
4885	0	32900	32342	
4886	0	32846	32568	
4887	0	32828	32556	
4888	0	32712	32638	
4889	0	32756	32513	
4890	0	32678	32612	
4891	0	32776	32661	
4892	0	32792	32768	
4893	0	32712	32854	
4894	0	32838	33204	
4895	0	32870	33148	
4896	0	32898	33222	
4897	0	32964	33191	
4898	0	32912	33310	
4899	0	32996	33040	
4900	0	32960	32682	
4901	0	32872	32404	
4902	0	32793	32352	
4903	0	32768	32263	
4904	0	32780	32692	
4905	0	32848	32726	
4906	0	32704	32796	
4907	0	32748	32888	
4908	0	32722	32968	
4909	0	32812	32702	
4910	0	32704	32660	
4911	0	32736	32700	
4912	0	32816	32775	
4913	0	32936	32997	
4914	0	32900	33184	
4915	0	32896	33300	
4916	0	32952	33462	
4917	0	32928	33287	
4918	0	32788	32932	
4919	0	32690	32792	
4920	0	32604	32327	
4921	0	32716	32180	
4922	0	32672	32162	
4923	0	32696	32284	
4924	0	32852	32142	
4925	0	32854	32199	
4926	0	32904	32222	
4927	0	32940	32580	
4928	0	32962	32983	
4929	0	32996	33132	
4930	0	32924	32844	
4931	0	32820	32870	
4932	0	32812	32556	
4933	0	32904	32368	
4934	0	32884	32263	
4935	0	32844	32468	
4936	0	32766	32930	
4937	0	32894	32884	
4938	0	32772	32916	
4939	0	32704	32852	
4940	0	32666	32775	
4941	0	32756	32791	
4942	0	32824	32826	
4943	0	32808	32992	
4944	0	32836	32884	
4945	0	32864	33002	
4946	0	32876	33007	
4947	0	32880	33118	
4948	0	32912	32990	
4949	0	32956	32908	
4950	0	32964	32770	
4951	0	32950	32631	
4952	0	32814	32632	
4953	0	32744	32796	
4954	0	32684	32674	
4955	0	32740	32615	
4956	0	32730	32703	
4957	0	32788	32707	
4958	0	32766	32750	
4959	0	32866	32775	
4960	0	32904	32858	
4961	0	33026	32852	
4962	0	32984	32838	
4963	0	32882	33180	
4964	0	32766	33114	
4965	0	32748	33198	
4966	0	32846	33054	
4967	0	32844	32818	
4968	0	32804	32494	
4969	0	32766	32318	
4970	0	32776	32468	
4971	0	32752	32376	
4972	0	32816	32774	
4973	0	32960	32856	
4974	0	32944	32796	
4975	0	32808	32852	
4976	0	32772	32804	
4977	0	32834	32844	
4978	0	32880	32816	
4979	0	32884	32854	
4980	0	32846	32820	
4981	0	32796	32686	
4982	0	32696	32704	
4983	0	32748	32858	
4984	0	32768	32998	
4985	0	32876	32838	
4986	0	32848	32656	
4987	0	32804	32774	
4988	0	32808	32794	
4989	0	32798	32872	
4990	0	32852	32878	
4991	0	32844	32984	
4992	0	32840	33031	
4993	0	32800	33086	
4994	0	32828	32912	
4995	0	32890	32968	
4996	0	32896	32800	
4997	0	32824	32903	
4998	0	32820	32511	
4999	0	32912	32500	
5000	0	32896	32481	
5001	0	32920	32454	
5002	0	32772	32650	
5003	0	32764	32540	
5004	0	32736	32547	
5005	0	32778	32568	
5006	0	32824	32848	
5007	0	32892	32775	
5008	0	33000	32850	
5009	0	32988	32910	
5010	0	32932	32816	
5011	0	32656	32817	
5012	0	32700	32807	
5013	0	32648	32596	
5014	0	32664	32555	
5015	0	32816	32636	
5016	0	32832	32474	
5017	0	32792	32775	
5018	0	32752	32794	
5019	0	32716	33066	
5020	0	32752	33080	
5021	0	32764	32996	
5022	0	32772	32903	
5023	0	32808	32980	
5024	0	32880	32939	
5025	0	32776	32992	
5026	0	32730	33118	
5027	0	32726	32896	
5028	0	32656	32908	
5029	0	32840	32790	
5030	0	32753	32908	
5031	0	32712	32784	
5032	0	32816	32775	
5033	0	32852	32618	
5034	0	32858	32477	
5035	0	32898	32734	
5036	0	32860	32982	
5037	0	32868	32788	
5038	0	32844	32868	
5039	0	32824	32810	
5040	0	32797	32820	
5041	0	32740	32542	
5042	0	32764	32416	
5043	0	32848	32400	
5044	0	32852	32452	
5045	0	32840	32600	
5046	0	32848	32630	
5047	0	32832	32804	
5048	0	32832	32660	
5049	0	32770	32747	
5050	0	32736	32774	
5051	0	32786	32854	
5052	0	32754	33016	
5053	0	32856	33102	
5054	0	32764	33078	
5055	0	32836	33054	
5056	0	32836	33024	
5057	0	32838	32836	
5058	0	32820	32868	
5059	0	32736	32734	
5060	0	32788	32695	
5061	0	32788	32692	
5062	0	32766	32718	
5063	0	32796	32738	
5064	0	32784	32842	
5065	0	32936	32807	
5066	0	32892	32708	
5067	0	32828	32874	
5068	0	32874	32834	
5069	0	32984	32748	
5070	0	33056	32854	
5071	0	32922	32898	
5072	0	32816	32846	
5073	0	32846	32690	
5074	0	32824	32624	
5075	0	32790	32648	
5076	0	32840	32764	
5077	0	32860	32698	
5078	0	32830	32706	
5079	0	32772	32534	
5080	0	32756	32488	
5081	0	32634	32486	
5082	0	32666	32443	
5083	0	32824	32630	
5084	0	32869	32632	
5085	0	32768	32903	
5086	0	32748	32972	
5087	0	32828	32886	
5088	0	32808	32994	
5089	0	32866	32968	
5090	0	32844	32812	
5091	0	32808	32775	
5092	0	32780	32871	
5093	0	32784	32865	
5094	0	32724	32828	
5095	0	32706	32540	
5096	0	32820	32606	
5097	0	32880	32654	
5098	0	32846	32698	
5099	0	32864	32812	
5100	0	32788	32840	
5101	0	32816	32758	
5102	0	32960	32824	
5103	0	32852	32930	
5104	0	32868	32818	
5105	0	32836	32724	
5106	0	32734	32736	
5107	0	32664	32598	
5108	0	32742	32586	
5109	0	32704	32630	
5110	0	32772	32708	
5111	0	32784	32806	
5112	0	32868	32848	
5113	0	32860	32922	
5114	0	32660	32576	
5115	0	32600	32620	
5116	0	32720	32694	
5117	0	32784	32962	
5118	0	32896	33026	
5119	0	32810	32964	
5120	0	32880	32935	
5121	0	32816	32799	
5122	0	32808	32786	
5123	0	32740	32708	
5124	0	32774	32760	
5125	0	32730	32802	
5126	0	32760	32688	
5127	0	32872	32652	
5128	0	32968	32708	
5129	0	32904	32727	
5130	0	32968	32839	
5131	0	32952	32630	
5132	0	32880	32679	
5133	0	32788	32742	
5134	0	32724	32858	
5135	0	32704	32680	
5136	0	32760	32823	
5137	0	32794	32734	
5138	0	32760	32486	
5139	0	32804	32790	
5140	0	32824	32734	
5141	0	32812	32810	
5142	0	32804	32770	
5143	0	32824	32807	
5144	0	32752	32756	
5145	0	32798	32826	
5146	0	32808	32750	
5147	0	32868	32855	
5148	0	32806	32878	
5149	0	32808	32742	
5150	0	32822	32927	
5151	0	32744	32928	
5152	0	32770	33060	
5153	0	32826	32828	
5154	0	32816	32616	
5155	0	32848	32349	
5156	0	32812	32263	
5157	0	32864	32334	
5158	0	32812	32452	
5159	0	32918	32555	
5160	0	32880	32772	
5161	0	32966	32798	
5162	0	32912	32620	
5163	0	32902	32744	
5164	0	32804	32756	
5165	0	32792	32753	
5166	0	32762	32913	
5167	0	32862	32822	
5168	0	32794	32794	
5169	0	32828	32680	
5170	0	32708	32650	
5171	0	32792	32720	
5172	0	32736	32890	
5173	0	32776	32814	
5174	0	32804	32744	
5175	0	32858	32920	
5176	0	32910	32804	
5177	0	32952	32994	
5178	0	32894	33095	
5179	0	32908	32912	
5180	0	32860	32900	
5181	0	32748	32718	
5182	0	32708	32744	
5183	0	32764	32736	
5184	0	32820	32672	
5185	0	32804	32815	
5186	0	32778	32976	
5187	0	32754	32519	
5188	0	32740	32676	
5189	0	32754	32800	
5190	0	32748	32642	
5191	0	32736	32775	
5192	0	32732	32708	
5193	0	32754	32868	
5194	0	32776	32774	
5195	0	32830	32830	
5196	0	32860	32840	
5197	0	32858	32852	
5198	0	32802	33224	
5199	0	32796	33268	
5200	0	32812	32896	
5201	0	32844	32804	
5202	0	32808	32712	
5203	0	32892	32655	
5204	0	32908	32615	
5205	0	32856	32761	
5206	0	32770	32662	
5207	0	32775	32702	
5208	0	32794	32767	
5209	0	32784	32772	
5210	0	32780	32614	
5211	0	32752	32620	
5212	0	32788	32720	
5213	0	32756	32746	
5214	0	32792	32686	
5215	0	32812	32810	
5216	0	32724	32746	
5217	0	32800	32792	
5218	0	32792	32606	
5219	0	32772	32660	
5220	0	32820	32620	
5221	0	32903	32906	
5222	0	32900	32759	
5223	0	32934	32810	
5224	0	32888	32768	
5225	0	32836	32646	
5226	0	32826	32630	
5227	0	32848	32940	
5228	0	32878	32962	
5229	0	32840	32844	
5230	0	32808	32929	
5231	0	32808	32728	
5232	0	32836	32474	
5233	0	32748	32422	
5234	0	32764	32411	
5235	0	32826	32604	
5236	0	32753	32763	
5237	0	32760	32766	
5238	0	32776	32734	
5239	0	32764	32711	
5240	0	32820	32929	
5241	0	32848	32814	
5242	0	32740	32866	
5243	0	32764	32940	
5244	0	32700	32510	
5245	0	32762	32830	
5246	0	32784	32892	
5247	0	32728	33018	
5248	0	32772	33154	
5249	0	32834	33446	
5250	0	32832	33444	
5251	0	32884	33215	
5252	0	32922	32807	
5253	0	32952	32446	
5254	0	32896	32098	
5255	0	32884	32024	
5256	0	32952	32278	
5257	0	32860	32583	
5258	0	32856	32916	
5259	0	32852	33002	
5260	0	32860	32740	
5261	0	32844	32661	
5262	0	32948	32567	
5263	0	32792	32328	
5264	0	32810	32360	
5265	0	32784	32604	
5266	0	32801	32812	
5267	0	32762	33020	
5268	0	32780	32830	
5269	0	32724	33018	
5270	0	32704	33112	
5271	0	32640	33030	
5272	0	32688	32800	
5273	0	32810	32775	
5274	0	32804	32634	
5275	0	32824	32646	
5276	0	32880	32718	
5277	0	32782	32788	
5278	0	32752	32772	
5279	0	32776	32804	
5280	0	32714	32731	
5281	0	32736	32884	
5282	0	32826	32828	
5283	0	32776	32652	
5284	0	32789	32636	
5285	0	32808	32678	
5286	0	32922	32752	
5287	0	32828	32662	
5288	0	32688	32728	
5289	0	32724	32798	
5290	0	32780	32766	
5291	0	32752	32740	
5292	0	32792	32710	
5293	0	32872	32805	
5294	0	32860	32758	
5295	0	32848	32647	
5296	0	32856	32725	
5297	0	32904	32678	
5298	0	32900	32770	
5299	0	32852	32828	
5300	0	32806	32858	
5301	0	32810	32903	
5302	0	32870	32982	
5303	0	32848	32897	
5304	0	32874	32724	
5305	0	32825	32758	
5306	0	32860	32768	
5307	0	32850	32782	
5308	0	32816	32540	
5309	0	32766	32795	
5310	0	32845	32652	
5311	0	32776	32657	
5312	0	32744	32510	
5313	0	32768	32587	
5314	0	32736	32832	
5315	0	32724	32824	
5316	0	32748	32762	
5317	0	32848	32846	
5318	0	32856	32672	
5319	0	32844	32775	
5320	0	32852	32798	
5321	0	32832	32896	
5322	0	32812	32878	
5323	0	32802	32782	
5324	0	32706	32850	
5325	0	32812	32838	
5326	0	32776	32868	
5327	0	32762	32727	
5328	0	32812	32444	
5329	0	32742	32596	
5330	0	32792	32647	
5331	0	32832	32823	
5332	0	32864	32740	
5333	0	32820	32866	
5334	0	32752	32638	
5335	0	32778	32695	
5336	0	32832	32466	
5337	0	32868	32918	
5338	0	32832	32766	
5339	0	32816	32962	
5340	0	32792	32775	
5341	0	32868	32704	
5342	0	32808	32828	
5343	0	32808	32670	
5344	0	32828	32796	
5345	0	32828	32746	
5346	0	32820	32819	
5347	0	32734	32766	
5348	0	32794	32848	
5349	0	32740	32924	
5350	0	32778	32842	
5351	0	32856	32826	
5352	0	32764	32692	
5353	0	32828	32724	
5354	0	32870	32640	
5355	0	32852	32686	
5356	0	32868	32663	
5357	0	32874	32822	
5358	0	32804	32756	
5359	0	32868	32772	
5360	0	32820	32710	
5361	0	32800	32687	
5362	0	32844	32616	
5363	0	32849	32704	
5364	0	32736	32823	
5365	0	32780	32836	
5366	0	32788	32770	
5367	0	32820	32774	
5368	0	32784	32802	
5369	0	32788	32754	
5370	0	32780	32726	
5371	0	32792	32892	
5372	0	32784	32716	
5373	0	32810	32856	
5374	0	32852	32828	
5375	0	32804	32903	
5376	0	32760	32804	
5377	0	32846	32784	
5378	0	32836	32694	
5379	0	32888	32807	
5380	0	32876	32708	
5381	0	32824	32775	
5382	0	32836	32576	
5383	0	32804	32806	
5384	0	32742	32716	
5385	0	32776	32804	
5386	0	32816	32738	
5387	0	32736	32796	
5388	0	32798	32743	
5389	0	32746	32720	
5390	0	32740	32775	
5391	0	32748	32683	
5392	0	32736	32708	
5393	0	32736	32590	
5394	0	32768	32582	
5395	0	32898	32618	
5396	0	32764	32748	
5397	0	32780	32751	
5398	0	32794	32820	
5399	0	32824	32742	
5400	0	32808	32765	
5401	0	32792	32712	
5402	0	32852	32954	
5403	0	32802	32678	
5404	0	32778	32864	
5405	0	32876	32879	
5406	0	32716	32934	
5407	0	32752	32954	
5408	0	32768	33031	
5409	0	32754	32893	
5410	0	32744	32810	
5411	0	32736	32830	
5412	0	32920	32814	
5413	0	32820	32842	
5414	0	32746	32654	
5415	0	32840	32775	
5416	0	32950	32610	
5417	0	32952	32708	
5418	0	32936	32692	
5419	0	32916	32774	
5420	0	32824	32676	
5421	0	32848	32663	
5422	0	32924	32742	
5423	0	32820	32934	
5424	0	32736	32868	
5425	0	32812	32896	
5426	0	32749	32775	
5427	0	32794	32828	
5428	0	32798	32760	
5429	0	32740	32638	
5430	0	32759	32650	
5431	0	32864	32632	
5432	0	32892	32676	
5433	0	32838	32612	
5434	0	32948	32756	
5435	0	32880	32775	
5436	0	32778	32770	
5437	0	32762	32792	
5438	0	32772	32788	
5439	0	32848	32732	
5440	0	32772	32860	
5441	0	32812	32678	
5442	0	32832	32734	
5443	0	32804	32712	
5444	0	32774	32782	
5445	0	32832	32846	
5446	0	32816	32720	
5447	0	32812	32700	
5448	0	32852	32732	
5449	0	32896	33031	
5450	0	32886	32967	
5451	0	32884	33072	
5452	0	32890	32948	
5453	0	32884	32897	
5454	0	32876	32851	
5455	0	32868	32688	
5456	0	32940	32860	
5457	0	32948	32679	
5458	0	32964	32612	
5459	0	32988	32551	
5460	0	33050	32608	
5461	0	32996	32470	
5462	0	32980	32519	
5463	0	33008	32604	
5464	0	33008	32573	
5465	0	33084	32623	
5466	0	33040	32640	
5467	0	33060	32686	
5468	0	32944	32732	
5469	0	32920	32766	
5470	0	32862	32696	
5471	0	32806	32802	
5472	0	32664	32724	
5473	0	32616	32910	
5474	0	32492	32856	
5475	0	32436	32992	
5476	0	32376	33064	
5477	0	32200	33088	
5478	0	32048	33230	
5479	0	32074	33252	
5480	0	32250	33226	
5481	0	32448	33063	
5482	0	32520	32976	
5483	0	32644	32775	
5484	0	32652	32936	
5485	0	32718	33066	
5486	0	32712	32866	
5487	0	32742	32743	
5488	0	32728	32276	
5489	0	32800	32476	
5490	0	32992	32354	
5491	0	33004	32412	
5492	0	32992	32584	
5493	0	33080	32430	
5494	0	33048	32486	
5495	0	33122	32475	
5496	0	33072	32612	
5497	0	32960	32710	
5498	0	33052	32711	
5499	0	33042	32704	
5500	0	32942	32686	
5501	0	32920	32702	
5502	0	32912	32628	
5503	0	32990	32804	
5504	0	32920	32640	
5505	0	32834	32674	
5506	0	32890	32686	
5507	0	32880	32850	
5508	0	32932	32674	
5509	0	32968	32744	
5510	0	32908	32740	
5511	0	32912	32672	
5512	0	32836	32858	
5513	0	32740	32898	
5514	0	32720	33014	
5515	0	32784	33030	
5516	0	32768	33064	
5517	0	32740	33145	
5518	0	32772	32978	
5519	0	32846	32834	
5520	0	32772	32663	
5521	0	32788	32542	
5522	0	32660	32554	
5523	0	32810	32685	
5524	0	32800	32572	
5525	0	32840	32814	
5526	0	32850	32703	
5527	0	32766	32735	
5528	0	32792	32876	
5529	0	32908	32674	
5530	0	32816	32666	
5531	0	32804	32668	
5532	0	32816	32766	
5533	0	32828	32664	
5534	0	32828	32657	
5535	0	32764	32700	
5536	0	32820	32718	
5537	0	32830	32743	
5538	0	32792	32708	
5539	0	32856	32734	
5540	0	32792	32622	
5541	0	32788	32775	
5542	0	32838	32808	
5543	0	32848	32810	
5544	0	32840	32840	
5545	0	32896	32847	
5546	0	32896	32916	
5547	0	32860	32970	
5548	0	32818	32830	
5549	0	32860	32804	
5550	0	32806	32736	
5551	0	32820	32806	
5552	0	32732	32744	
5553	0	32792	32794	
5554	0	32796	32734	
5555	0	32762	32967	
5556	0	32784	32860	
5557	0	32752	32734	
5558	0	32748	32810	
5559	0	32878	32716	
5560	0	32768	32750	
5561	0	32802	32828	
5562	0	32832	32840	
5563	0	32808	32806	
5564	0	32882	32823	
5565	0	32812	32784	
5566	0	32788	32688	
5567	0	32744	32747	
5568	0	32852	32775	
5569	0	32744	32822	
5570	0	32820	32886	
5571	0	32808	32921	
5572	0	32772	32903	
5573	0	32798	32984	
5574	0	32646	32852	
5575	0	32688	32792	
5576	0	32788	32798	
5577	0	32740	32736	
5578	0	32832	32866	
5579	0	32804	32806	
5580	0	32824	32908	
5581	0	32858	32858	
5582	0	32880	32874	
5583	0	32914	32900	
5584	0	32824	32786	
5585	0	32764	32865	
5586	0	32720	32764	
5587	0	32834	32756	
5588	0	32792	32790	
5589	0	32804	32726	
5590	0	32830	32813	
5591	0	32810	32688	
5592	0	32792	32734	
5593	0	32836	32725	
5594	0	32780	32773	
5595	0	32796	32754	
5596	0	32804	32860	
5597	0	32828	32815	
5598	0	32832	32770	
5599	0	32868	32806	
5600	0	32814	32772	
5601	0	32808	32763	
5602	0	32760	32890	
5603	0	32844	32638	
5604	0	32806	32714	
5605	0	32828	32679	
5606	0	32840	32810	
5607	0	32768	32807	
5608	0	32784	32826	
5609	0	32744	32876	
5610	0	32808	32716	
5611	0	32824	32804	
5612	0	32808	32722	
5613	0	32769	32718	
5614	0	32784	32700	
5615	0	32820	32782	
5616	0	32844	32806	
5617	0	32784	32820	
5618	0	32842	32746	
5619	0	32796	32794	
5620	0	32872	32704	
5621	0	32866	32806	
5622	0	32788	32764	
5623	0	32796	32820	
5624	0	32850	32753	
5625	0	32844	32799	
5626	0	32768	32852	
5627	0	32832	32804	
5628	0	32814	32743	
5629	0	32856	32701	
5630	0	32836	32660	
5631	0	32884	32682	
5632	0	32748	32488	
5633	0	32776	32631	
5634	0	32716	32750	
5635	0	32718	32804	
5636	0	32808	32758	
5637	0	32764	32870	
5638	0	32832	32725	
5639	0	32800	32902	
5640	0	32828	32775	
5641	0	32852	32789	
5642	0	32808	32790	
5643	0	32840	32728	
5644	0	32832	32721	
5645	0	32792	32711	
5646	0	32884	32866	
5647	0	32884	32796	
5648	0	32834	32759	
5649	0	32900	32871	
5650	0	32844	32732	
5651	0	32876	32744	
5652	0	32900	32686	
5653	0	32844	32868	
5654	0	32840	32804	
5655	0	32710	32632	
5656	0	32741	32743	
5657	0	32812	32830	
5658	0	32834	32756	
5659	0	32824	32918	
5660	0	32840	32798	
5661	0	32864	32796	
5662	0	32808	32775	
5663	0	32776	32655	
5664	0	32774	32671	
5665	0	32740	32661	
5666	0	32792	32725	
5667	0	32760	32726	
5668	0	32818	32754	
5669	0	32700	32730	
5670	0	32796	32614	
5671	0	32913	32702	
5672	0	32840	32634	
5673	0	32860	32742	
5674	0	32844	32741	
5675	0	32848	32826	
5676	0	32884	32744	
5677	0	32894	32578	
5678	0	32724	32704	
5679	0	32764	32578	
5680	0	32862	32746	
5681	0	32768	32720	
5682	0	32836	32746	
5683	0	32820	32846	
5684	0	32760	32799	
5685	0	32788	32775	
5686	0	32836	32768	
5687	0	32806	32750	
5688	0	32804	32657	
5689	0	32664	32718	
5690	0	32784	32828	
5691	0	32828	32625	
5692	0	32800	32742	
5693	0	32746	32671	
5694	0	32782	32762	
5695	0	32832	32788	
5696	0	32880	32704	
5697	0	32818	32789	
5698	0	32848	32708	
5699	0	32804	32800	
5700	0	32848	32734	
5701	0	32792	32710	
5702	0	32792	32794	
5703	0	32792	32716	
5704	0	32784	32678	
5705	0	32760	32792	
5706	0	32756	32800	
5707	0	32788	32711	
5708	0	32782	32764	
5709	0	32744	32700	
5710	0	32816	32822	
5711	0	32792	32806	
5712	0	32816	32708	
5713	0	32822	32712	
5714	0	32860	32684	
5715	0	32828	32762	
5716	0	32898	32716	
5717	0	32832	32802	
5718	0	32786	32708	
5719	0	32832	32800	
5720	0	32874	32775	
5721	0	32820	32746	
5722	0	32816	32706	
5723	0	32784	32775	
5724	0	32816	32826	
5725	0	32748	32725	
5726	0	32830	32820	
5727	0	32776	32708	
5728	0	32760	32798	
5729	0	32812	32606	
5730	0	32756	32684	
5731	0	32790	32762	
5732	0	32840	32791	
5733	0	32824	32718	
5734	0	32858	32799	
5735	0	32828	32775	
5736	0	32845	32828	
5737	0	32847	32710	
5738	0	32792	32785	
5739	0	32848	32830	
5740	0	32874	32742	
5741	0	32860	32792	
5742	0	32810	32758	
5743	0	32752	32764	
5744	0	32810	32756	
5745	0	32784	32794	
5746	0	32802	32775	
5747	0	32772	32728	
5748	0	32784	32678	
5749	0	32736	32854	
5750	0	32732	32728	
5751	0	32818	32798	
5752	0	32790	32716	
5753	0	32748	32822	
5754	0	32754	32756	
5755	0	32820	32825	
5756	0	32772	32870	
5757	0	32748	32792	
5758	0	32826	32774	
5759	0	32808	32838	
5760	0	32832	32891	
5761	0	32758	32752	
5762	0	32772	32852	
5763	0	32804	32694	
5764	0	32784	32750	
5765	0	32808	32626	
5766	0	32798	32814	
5767	0	32836	32684	
5768	0	32856	32700	
5769	0	32752	32723	
5770	0	32756	32820	
5771	0	32832	32742	
5772	0	32888	32870	
5773	0	32798	32790	
5774	0	32784	32740	
5775	0	32752	32748	
5776	0	32794	32698	
5777	0	32800	32722	
5778	0	32838	32582	
5779	0	32868	32824	
5780	0	32820	32711	
5781	0	32844	32865	
5782	0	32840	32847	
5783	0	32868	32732	
5784	0	32761	32740	
5785	0	32872	32774	
5786	0	32716	32888	
5787	0	32800	32756	
5788	0	32828	32775	
5789	0	32860	32772	
5790	0	32844	32752	
5791	0	32834	32767	
5792	0	32844	32700	
5793	0	32862	32676	
5794	0	32860	32744	
5795	0	32768	32820	
5796	0	32826	32775	
5797	0	32822	32790	
5798	0	32842	32790	
5799	0	32836	32688	
5800	0	32736	32814	
5801	0	32836	32703	
5802	0	32790	32800	
5803	0	32840	32834	
5804	0	32848	32694	
5805	0	32824	32764	
5806	0	32838	32727	
5807	0	32868	32768	
5808	0	32796	32775	
5809	0	32788	32840	
5810	0	32830	32871	
5811	0	32770	32703	
5812	0	32804	32732	
5813	0	32794	32676	
5814	0	32808	32708	
5815	0	32796	32666	
5816	0	32842	32832	
5817	0	32752	32700	
5818	0	32836	32774	
5819	0	32858	32758	
5820	0	32828	32810	
5821	0	32810	32734	
5822	0	32844	32730	
5823	0	32812	32712	
5824	0	32848	32732	
5825	0	32820	32634	
5826	0	32852	32748	
5827	0	32784	32716	
5828	0	32820	32812	
5829	0	32776	32692	
5830	0	32768	32768	
5831	0	32712	32747	
5832	0	32762	32734	
5833	0	32804	32730	
5834	0	32924	32660	
5835	0	32856	32750	
5836	0	32750	32742	
5837	0	32836	32744	
5838	0	32968	32703	
5839	0	32906	32774	
5840	0	32818	32654	
5841	0	32740	32702	
5842	0	32832	32650	
5843	0	32752	32668	
5844	0	32804	32688	
5845	0	32784	32810	
5846	0	32724	32716	
5847	0	32756	32826	
5848	0	32760	32714	
5849	0	32772	32836	
5850	0	32800	32775	
5851	0	32818	32856	
5852	0	32780	32922	
5853	0	32862	32743	
5854	0	32784	32817	
5855	0	32848	32742	
5856	0	32906	32742	
5857	0	32876	32826	
5858	0	32836	32710	
5859	0	32801	32844	
5860	0	32828	32820	
5861	0	32774	32872	
5862	0	32768	32693	
5863	0	32796	32828	
5864	0	32840	32682	
5865	0	32750	32828	
5866	0	32810	32714	
5867	0	32808	32775	
5868	0	32764	32728	
5869	0	32788	32762	
5870	0	32836	32724	
5871	0	32778	32766	
5872	0	32786	32726	
5873	0	32782	32702	
5874	0	32848	32742	
5875	0	32842	32826	
5876	0	32856	32709	
5877	0	32892	32807	
5878	0	32808	32792	
5879	0	32778	32842	
5880	0	32868	32839	
5881	0	32804	32812	
5882	0	32748	32734	
5883	0	32836	32694	
5884	0	32804	32768	
5885	0	32736	32686	
5886	0	32788	32818	
5887	0	32852	32719	
5888	0	32832	32798	
5889	0	32840	32740	
5890	0	32772	32775	
5891	0	32812	32816	
5892	0	32844	32678	
5893	0	32820	32712	
5894	0	32734	32672	
5895	0	32762	32807	
5896	0	32784	32682	
5897	0	32858	32774	
5898	0	32824	32886	
5899	0	32802	32742	
5900	0	32800	32878	
5901	0	32856	32718	
5902	0	32844	32687	
5903	0	32790	32655	
5904	0	32792	32830	
5905	0	32780	32772	
5906	0	32800	32792	
5907	0	32820	32788	
5908	0	32868	32792	
5909	0	32876	32756	
5910	0	32920	32775	
5911	0	32878	32806	
5912	0	32824	32730	
5913	0	32804	32711	
5914	0	32768	32760	
5915	0	32752	32846	
5916	0	32744	32734	
5917	0	32828	32847	
5918	0	32830	32736	
5919	0	32828	32774	
5920	0	32904	32820	
5921	0	32798	32775	
5922	0	32782	32810	
5923	0	32826	32647	
5924	0	32864	32838	
5925	0	32780	32676	
5926	0	32792	32743	
5927	0	32784	32762	
5928	0	32802	32690	
5929	0	32774	32743	
5930	0	32812	32806	
5931	0	32772	32775	
5932	0	32808	32692	
5933	0	32734	32742	
5934	0	32804	32711	
5935	0	32806	32743	
5936	0	32764	32775	
5937	0	32876	32716	
5938	0	32740	32748	
5939	0	32858	32658	
5940	0	32804	32775	
5941	0	32800	32725	
5942	0	32800	32724	
5943	0	32836	32698	
5944	0	32834	32784	
5945	0	32864	32878	
5946	0	32846	32775	
5947	0	32842	32860	
5948	0	32836	32896	
5949	0	32858	32658	
5950	0	32792	32794	
5951	0	32824	32700	
5952	0	32812	32708	
5953	0	32780	32700	
5954	0	32860	32711	
5955	0	32808	32710	
5956	0	32788	32752	
5957	0	32892	32668	
5958	0	32792	32788	
5959	0	32788	32738	
5960	0	32742	32766	
5961	0	32796	32743	
5962	0	32784	32754	
5963	0	32848	32678	
5964	0	32860	32722	
5965	0	32792	32704	
5966	0	32812	32801	
5967	0	32848	32924	
5968	0	32783	32862	
5969	0	32820	32872	
5970	0	32844	32844	
5971	0	32814	32898	
5972	0	32788	32815	
5973	0	32848	32784	
5974	0	32724	32744	
5975	0	32804	32682	
5976	0	32816	32850	
5977	0	32824	32881	
5978	0	32804	32814	
5979	0	32804	32830	
5980	0	32842	32742	
5981	0	32744	32780	
5982	0	32892	32750	
5983	0	32816	32832	
5984	0	32804	32848	
5985	0	32912	32816	
5986	0	32780	32775	
5987	0	32820	32768	
5988	0	32860	32818	
5989	0	32764	32790	
5990	0	32814	32712	
5991	0	32832	32816	
5992	0	32800	32759	
5993	0	32758	32828	
5994	0	32726	32842	
5995	0	32781	32738	
5996	0	32818	32786	
5997	0	32814	32652	
5998	0	32802	32850	
5999	0	32884	32738	
6000	0	32872	32775	
6001	0	32862	32758	
6002	0	32892	32760	
6003	0	32816	32748	
6004	0	32836	32870	
6005	0	32788	32799	
6006	0	32814	32892	
6007	0	32764	32743	
6008	0	32740	32760	
6009	0	32792	32750	
6010	0	32808	32758	
6011	0	32760	32774	
6012	0	32775	32826	
