# OpenSignals Text File Format. Version 1
# {"00:07:80:8C:0A:39": {"position": 0, "device": "biosignalsplux", "device name": "00:07:80:8C:0A:39", "device connection": "BTH00:07:80:8C:0A:39", "sampling rate": 1000, "resolution": [16, 16], "firmware version": 776, "comments": "", "keywords": "", "mode": 0, "sync interval": 2, "date": "2023-3-16", "time": "13:36:20.894", "channels": [1, 2], "sensor": ["EMG", "EMG"], "label": ["CH1", "CH2"], "column": ["nSeq", "DI", "CH1", "CH2"], "special": [{"SpO2": [80, 40, 5, 4, 3, 3]}, {"SpO2": [80, 40, 5, 4, 3, 3]}, {"SpO2": [80, 40, 5, 4, 3, 3]}, {"SpO2": [80, 40, 5, 4, 3, 3]}, {"SpO2": [80, 40, 5, 4, 3, 3]}, {"SpO2": [80, 40, 5, 4, 3, 3]}, {"SpO2": [80, 40, 5, 4, 3, 3]}, {"SpO2": [80, 40, 5, 4, 3, 3]}], "digital IO": [0, 1], "sleeve color": ["gray", "yellow"], "convertedValues": 0}}
# EndOfHeader
0	0	32848	32788	
1	0	32804	32788	
2	0	32772	32817	
3	0	32772	32834	
4	0	32778	32816	
5	0	32812	32738	
6	0	32810	32775	
7	0	32794	32756	
8	0	32860	32798	
9	0	32828	32802	
10	0	32832	32814	
11	0	32796	32690	
12	0	32868	32696	
13	0	32816	32728	
14	0	32816	32775	
15	0	32856	32818	
16	0	32848	32836	
17	0	32764	32718	
18	0	32832	32736	
19	0	32852	32679	
20	0	32836	32822	
21	0	32812	32854	
22	0	32842	32830	
23	0	32844	32732	
24	0	32748	32759	
25	0	32804	32862	
26	0	32824	32708	
27	0	32816	32752	
28	0	32778	32696	
29	0	32848	32748	
30	0	32776	32840	
31	0	32834	32849	
32	0	32748	32838	
33	0	32808	32764	
34	0	32812	32860	
35	0	32816	32684	
36	0	32824	32708	
37	0	32792	32752	
38	0	32772	32798	
39	0	32790	32775	
40	0	32776	32826	
41	0	32840	32767	
42	0	32832	32814	
43	0	32846	32824	
44	0	32852	32711	
45	0	32808	32708	
46	0	32840	32727	
47	0	32810	32808	
48	0	32784	32708	
49	0	32840	32735	
50	0	32738	32828	
51	0	32775	32710	
52	0	32788	32775	
53	0	32874	32772	
54	0	32844	32836	
55	0	32836	32792	
56	0	32824	32786	
57	0	32878	32775	
58	0	32778	32774	
59	0	32798	32775	
60	0	32882	32770	
61	0	32874	32692	
62	0	32808	32798	
63	0	32844	32846	
64	0	32744	32791	
65	0	32856	32871	
66	0	32718	32830	
67	0	32783	32734	
68	0	32820	32704	
69	0	32842	32808	
70	0	32748	32812	
71	0	32790	32750	
72	0	32832	32807	
73	0	32794	32710	
74	0	32746	32663	
75	0	32774	32750	
76	0	32850	32772	
77	0	32804	32863	
78	0	32836	32768	
79	0	32788	32810	
80	0	32836	32722	
81	0	32868	32692	
82	0	32774	32810	
83	0	32872	32816	
84	0	32824	32712	
85	0	32822	32734	
86	0	32836	32858	
87	0	32832	32754	
88	0	32816	32650	
89	0	32772	32854	
90	0	32838	32775	
91	0	32762	32720	
92	0	32864	32724	
93	0	32848	32792	
94	0	32844	32654	
95	0	32788	32814	
96	0	32804	32764	
97	0	32836	32766	
98	0	32840	32769	
99	0	32816	32862	
100	0	32796	32824	
101	0	32892	32866	
102	0	32864	32734	
103	0	32776	32664	
104	0	32836	32775	
105	0	32782	32775	
106	0	32800	32826	
107	0	32852	32764	
108	0	32772	32802	
109	0	32816	32903	
110	0	32836	32862	
111	0	32738	32711	
112	0	32800	32676	
113	0	32812	32740	
114	0	32834	32769	
115	0	32764	32842	
116	0	32868	32750	
117	0	32776	32774	
118	0	32796	32766	
119	0	32848	32808	
120	0	32804	32774	
121	0	32828	32724	
122	0	32824	32680	
123	0	32770	32630	
124	0	32784	32699	
125	0	32752	32658	
126	0	32774	32729	
127	0	32852	32770	
128	0	32804	32746	
129	0	32854	32743	
130	0	32832	32775	
131	0	32792	32790	
132	0	32872	32723	
133	0	32804	32700	
134	0	32804	32647	
135	0	32846	32726	
136	0	32836	32796	
137	0	32764	32812	
138	0	32840	32710	
139	0	32796	32830	
140	0	32832	32843	
141	0	32800	32740	
142	0	32776	32703	
143	0	32876	32732	
144	0	32818	32775	
145	0	32784	32839	
146	0	32804	32807	
147	0	32820	32794	
148	0	32756	32750	
149	0	32832	32834	
150	0	32768	32796	
151	0	32830	32823	
152	0	32810	32712	
153	0	32809	32744	
154	0	32816	32710	
155	0	32898	32718	
156	0	32833	32678	
157	0	32832	32686	
158	0	32712	32738	
159	0	32780	32720	
160	0	32854	32732	
161	0	32796	32678	
162	0	32790	32756	
163	0	32788	32866	
164	0	32848	32823	
165	0	32868	32798	
166	0	32804	32824	
167	0	32752	32730	
168	0	32854	32732	
169	0	32786	32794	
170	0	32784	32724	
171	0	32868	32846	
172	0	32782	32878	
173	0	32830	32768	
174	0	32824	32775	
175	0	32804	32747	
176	0	32768	32775	
177	0	32820	32775	
178	0	32754	32788	
179	0	32744	32828	
180	0	32864	32740	
181	0	32800	32758	
182	0	32752	32759	
183	0	32828	32806	
184	0	32774	32849	
185	0	32810	32820	
186	0	32864	32772	
187	0	32860	32804	
188	0	32742	32703	
189	0	32788	32684	
190	0	32848	32704	
191	0	32798	32724	
192	0	32896	32775	
193	0	32864	32775	
194	0	32764	32820	
195	0	32780	32738	
196	0	32849	32656	
197	0	32744	32775	
198	0	32820	32876	
199	0	32848	32794	
200	0	32808	32773	
201	0	32790	32770	
202	0	32812	32820	
203	0	32836	32688	
204	0	32828	32630	
205	0	32868	32766	
206	0	32832	32876	
207	0	32828	32775	
208	0	32830	32784	
209	0	32820	32824	
210	0	32784	32700	
211	0	32796	32714	
212	0	32760	32744	
213	0	32776	32756	
214	0	32784	32756	
215	0	32788	32818	
216	0	32776	32728	
217	0	32766	32828	
218	0	32784	32823	
219	0	32842	32756	
220	0	32856	32775	
221	0	32828	32698	
222	0	32870	32766	
223	0	32800	32714	
224	0	32842	32772	
225	0	32888	32804	
226	0	32808	32684	
227	0	32806	32834	
228	0	32812	32764	
229	0	32864	32679	
230	0	32794	32668	
231	0	32776	32730	
232	0	32796	32807	
233	0	32834	32746	
234	0	32756	32847	
235	0	32792	32716	
236	0	32820	32848	
237	0	32826	32860	
238	0	32834	32896	
239	0	32870	32853	
240	0	32828	32726	
241	0	32792	32700	
242	0	32814	32700	
243	0	32888	32686	
244	0	32790	32734	
245	0	32808	32726	
246	0	32775	32852	
247	0	32792	32830	
248	0	32804	32775	
249	0	32828	32772	
250	0	32804	32798	
251	0	32804	32792	
252	0	32850	32676	
253	0	32848	32710	
254	0	32804	32746	
255	0	32817	32692	
256	0	32832	32682	
257	0	32848	32732	
258	0	32812	32708	
259	0	32884	32806	
260	0	32806	32848	
261	0	32736	32718	
262	0	32792	32740	
263	0	32804	32775	
264	0	32788	32796	
265	0	32864	32682	
266	0	32808	32656	
267	0	32820	32708	
268	0	32832	32732	
269	0	32800	32678	
270	0	32796	32775	
271	0	32836	32892	
272	0	32832	32814	
273	0	32780	32743	
274	0	32780	32790	
275	0	32828	32750	
276	0	32754	32788	
277	0	32854	32772	
278	0	32884	32764	
279	0	32816	32726	
280	0	32804	32870	
281	0	32832	32767	
282	0	32792	32818	
283	0	32832	32759	
284	0	32802	32738	
285	0	32808	32711	
286	0	32828	32675	
287	0	32781	32830	
288	0	32776	32806	
289	0	32808	32742	
290	0	32836	32810	
291	0	32808	32668	
292	0	32776	32682	
293	0	32848	32736	
294	0	32742	32756	
295	0	32774	32762	
296	0	32792	32784	
297	0	32836	32775	
298	0	32836	32836	
299	0	32744	32913	
300	0	32798	32772	
301	0	32852	32734	
302	0	32854	32708	
303	0	32856	32772	
304	0	32824	32775	
305	0	32793	32794	
306	0	32808	32790	
307	0	32812	32775	
308	0	32734	32660	
309	0	32840	32710	
310	0	32832	32754	
311	0	32854	32790	
312	0	32840	32712	
313	0	32802	32759	
314	0	32812	32694	
315	0	32866	32696	
316	0	32852	32820	
317	0	32836	32854	
318	0	32830	32698	
319	0	32804	32806	
320	0	32760	32876	
321	0	32796	32724	
322	0	32804	32730	
323	0	32840	32736	
324	0	32816	32751	
325	0	32820	32896	
326	0	32792	32664	
327	0	32856	32766	
328	0	32790	32860	
329	0	32780	32710	
330	0	32856	32808	
331	0	32816	32820	
332	0	32766	32654	
333	0	32784	32774	
334	0	32816	32775	
335	0	32776	32610	
336	0	32832	32828	
337	0	32836	32812	
338	0	32842	32786	
339	0	32844	32846	
340	0	32832	32705	
341	0	32824	32772	
342	0	32816	32772	
343	0	32892	32730	
344	0	32826	32822	
345	0	32820	32812	
346	0	32784	32786	
347	0	32808	32716	
348	0	32804	32762	
349	0	32724	32792	
350	0	32816	32692	
351	0	32844	32842	
352	0	32709	32804	
353	0	32876	32704	
354	0	32804	32727	
355	0	32848	32775	
356	0	32884	32719	
357	0	32850	32764	
358	0	32822	32742	
359	0	32840	32770	
360	0	32796	32775	
361	0	32876	32748	
362	0	32802	32884	
363	0	32802	32764	
364	0	32806	32728	
365	0	32824	32684	
366	0	32748	32772	
367	0	32838	32728	
368	0	32760	32652	
369	0	32830	32738	
370	0	32780	32711	
371	0	32752	32838	
372	0	32860	32690	
373	0	32816	32788	
374	0	32860	32838	
375	0	32856	32794	
376	0	32788	32852	
377	0	32798	32789	
378	0	32852	32688	
379	0	32808	32768	
380	0	32820	32886	
381	0	32768	32732	
382	0	32826	32790	
383	0	32852	32879	
384	0	32796	32594	
385	0	32788	32846	
386	0	32816	32740	
387	0	32832	32622	
388	0	32820	32796	
389	0	32816	32768	
390	0	32788	32646	
391	0	32820	32828	
392	0	32820	32758	
393	0	32838	32654	
394	0	32812	32848	
395	0	32804	32775	
396	0	32822	32696	
397	0	32764	32732	
398	0	32872	32794	
399	0	32782	32708	
400	0	32828	32816	
401	0	32816	32855	
402	0	32854	32740	
403	0	32804	32772	
404	0	32788	32823	
405	0	32764	32690	
406	0	32788	32812	
407	0	32756	32807	
408	0	32828	32800	
409	0	32912	32816	
410	0	32776	32807	
411	0	32828	32860	
412	0	32864	32766	
413	0	32764	32636	
414	0	32844	32774	
415	0	32852	32852	
416	0	32784	32702	
417	0	32800	32798	
418	0	32844	32674	
419	0	32860	32871	
420	0	32792	32860	
421	0	32846	32660	
422	0	32836	32770	
423	0	32780	32804	
424	0	32812	32726	
425	0	32874	32820	
426	0	32800	32810	
427	0	32820	32767	
428	0	32800	32704	
429	0	32860	32756	
430	0	32820	32775	
431	0	32776	32756	
432	0	32856	32684	
433	0	32830	32748	
434	0	32804	32775	
435	0	32792	32760	
436	0	32784	32838	
437	0	32788	32808	
438	0	32836	32628	
439	0	32804	32799	
440	0	32828	32775	
441	0	32816	32675	
442	0	32896	32839	
443	0	32820	32775	
444	0	32780	32732	
445	0	32836	32775	
446	0	32788	32740	
447	0	32808	32752	
448	0	32764	32790	
449	0	32840	32756	
450	0	32768	32742	
451	0	32828	32756	
452	0	32850	32802	
453	0	32800	32658	
454	0	32780	32808	
455	0	32796	32775	
456	0	32798	32752	
457	0	32778	32788	
458	0	32768	32802	
459	0	32804	32775	
460	0	32796	32768	
461	0	32832	32903	
462	0	32860	32724	
463	0	32804	32775	
464	0	32756	32764	
465	0	32828	32750	
466	0	32792	32711	
467	0	32788	32758	
468	0	32849	32740	
469	0	32836	32775	
470	0	32796	32775	
471	0	32782	32804	
472	0	32836	32718	
473	0	32782	32806	
474	0	32768	32766	
475	0	32800	32742	
476	0	32846	32822	
477	0	32800	32764	
478	0	32820	32876	
479	0	32870	32807	
480	0	32792	32692	
481	0	32864	32758	
482	0	32834	32748	
483	0	32778	32744	
484	0	32774	32788	
485	0	32764	32720	
486	0	32788	32852	
487	0	32828	32834	
488	0	32816	32714	
489	0	32894	32806	
490	0	32824	32806	
491	0	32808	32698	
492	0	32760	32764	
493	0	32842	32775	
494	0	32798	32730	
495	0	32822	32830	
496	0	32836	32832	
497	0	32784	32702	
498	0	32736	32871	
499	0	32774	32698	
500	0	32812	32615	
501	0	32845	32839	
502	0	32804	32806	
503	0	32750	32742	
504	0	32824	32748	
505	0	32825	32800	
506	0	32762	32730	
507	0	32826	32878	
508	0	32768	32830	
509	0	32836	32854	
510	0	32876	32710	
511	0	32838	32740	
512	0	32788	32775	
513	0	32880	32709	
514	0	32824	32775	
515	0	32810	32666	
516	0	32800	32814	
517	0	32804	32824	
518	0	32834	32708	
519	0	32828	32766	
520	0	32772	32888	
521	0	32762	32732	
522	0	32832	32806	
523	0	32748	32734	
524	0	32812	32736	
525	0	32841	32754	
526	0	32782	32759	
527	0	32804	32842	
528	0	32780	32766	
529	0	32778	32676	
530	0	32842	32706	
531	0	32834	32775	
532	0	32808	32687	
533	0	32862	32714	
534	0	32768	32678	
535	0	32852	32774	
536	0	32780	32842	
537	0	32852	32762	
538	0	32828	32818	
539	0	32832	32808	
540	0	32836	32710	
541	0	32832	32716	
542	0	32802	32818	
543	0	32856	32756	
544	0	32842	32775	
545	0	32830	32789	
546	0	32796	32775	
547	0	32792	32824	
548	0	32832	32828	
549	0	32824	32662	
550	0	32780	32807	
551	0	32802	32727	
552	0	32810	32876	
553	0	32764	32816	
554	0	32848	32766	
555	0	32760	32850	
556	0	32796	32736	
557	0	32792	32704	
558	0	32792	32762	
559	0	32826	32864	
560	0	32816	32724	
561	0	32796	32775	
562	0	32808	32824	
563	0	32840	32678	
564	0	32808	32684	
565	0	32792	32693	
566	0	32832	32709	
567	0	32801	32816	
568	0	32828	32759	
569	0	32854	32798	
570	0	32730	32840	
571	0	32840	32802	
572	0	32760	32820	
573	0	32826	32682	
574	0	32738	32750	
575	0	32822	32714	
576	0	32825	32839	
577	0	32832	32791	
578	0	32806	32767	
579	0	32808	32738	
580	0	32854	32764	
581	0	32734	32736	
582	0	32780	32800	
583	0	32786	32718	
584	0	32776	32766	
585	0	32864	32884	
586	0	32846	32647	
587	0	32784	32823	
588	0	32826	32774	
589	0	32816	32730	
590	0	32808	32731	
591	0	32872	32775	
592	0	32836	32700	
593	0	32872	32794	
594	0	32820	32732	
595	0	32892	32788	
596	0	32832	32840	
597	0	32832	32718	
598	0	32946	32742	
599	0	32868	32687	
600	0	32922	32724	
601	0	32892	32647	
602	0	32870	32484	
603	0	32906	32596	
604	0	32892	32562	
605	0	32826	32562	
606	0	32882	32546	
607	0	32808	32560	
608	0	32852	32588	
609	0	32842	32434	
610	0	32802	32519	
611	0	32812	32598	
612	0	32852	32580	
613	0	32764	32610	
614	0	32780	32814	
615	0	32748	32762	
616	0	32740	32762	
617	0	32736	32966	
618	0	32708	33095	
619	0	32642	33206	
620	0	32628	33414	
621	0	32596	33364	
622	0	32612	33440	
623	0	32600	33543	
624	0	32576	33492	
625	0	32540	33468	
626	0	32704	33426	
627	0	32708	33390	
628	0	32712	33146	
629	0	32758	33018	
630	0	32760	32790	
631	0	32836	32554	
632	0	32878	32500	
633	0	32770	32501	
634	0	32880	32548	
635	0	32902	32368	
636	0	32960	32364	
637	0	32956	32424	
638	0	32900	32494	
639	0	32892	32454	
640	0	32956	32391	
641	0	32962	32532	
642	0	32904	32606	
643	0	32900	32633	
644	0	32874	32566	
645	0	32836	32612	
646	0	32872	32724	
647	0	32832	32692	
648	0	32872	32662	
649	0	32886	32711	
650	0	32836	32818	
651	0	32858	32775	
652	0	32888	32774	
653	0	32852	32822	
654	0	32784	32734	
655	0	32844	32775	
656	0	32821	32762	
657	0	32884	32742	
658	0	32896	32710	
659	0	32884	32754	
660	0	32808	32804	
661	0	32814	32856	
662	0	32806	32796	
663	0	32766	32807	
664	0	32848	32798	
665	0	32800	32871	
666	0	32716	32775	
667	0	32808	32750	
668	0	32792	32750	
669	0	32728	32810	
670	0	32802	32852	
671	0	32858	32800	
672	0	32752	32798	
673	0	32821	32814	
674	0	32796	32718	
675	0	32724	32726	
676	0	32812	32718	
677	0	32760	32841	
678	0	32788	32754	
679	0	32832	32736	
680	0	32858	32802	
681	0	32801	32735	
682	0	32792	32694	
683	0	32750	32636	
684	0	32752	32652	
685	0	32744	32806	
686	0	32806	32816	
687	0	32766	32790	
688	0	32792	32804	
689	0	32840	32690	
690	0	32756	32728	
691	0	32846	32822	
692	0	32810	32806	
693	0	32804	32810	
694	0	32800	32830	
695	0	32842	32730	
696	0	32848	32762	
697	0	32836	32728	
698	0	32808	32774	
699	0	32812	32924	
700	0	32808	32800	
701	0	32784	32700	
702	0	32800	32801	
703	0	32808	32832	
704	0	32812	32726	
705	0	32828	32788	
706	0	32796	32768	
707	0	32888	32806	
708	0	32852	32796	
709	0	32792	32788	
710	0	32800	32703	
711	0	32812	32792	
712	0	32884	32692	
713	0	32808	32772	
714	0	32796	32796	
715	0	32868	32800	
716	0	32788	32860	
717	0	32852	32806	
718	0	32788	32756	
719	0	32748	32834	
720	0	32792	32710	
721	0	32872	32740	
722	0	32808	32812	
723	0	32820	32756	
724	0	32808	32738	
725	0	32764	32775	
726	0	32800	32775	
727	0	32810	32726	
728	0	32812	32798	
729	0	32752	32775	
730	0	32842	32822	
731	0	32814	32792	
732	0	32830	32734	
733	0	32848	32834	
734	0	32820	32775	
735	0	32832	32650	
736	0	32792	32794	
737	0	32836	32734	
738	0	32804	32834	
739	0	32836	32732	
740	0	32812	32648	
741	0	32808	32802	
742	0	32784	32774	
743	0	32772	32714	
744	0	32816	32722	
745	0	32824	32762	
746	0	32760	32802	
747	0	32816	32756	
748	0	32772	32836	
749	0	32780	32700	
750	0	32848	32698	
751	0	32828	32676	
752	0	32760	32743	
753	0	32832	32751	
754	0	32836	32760	
755	0	32778	32774	
756	0	32838	32799	
757	0	32834	32714	
758	0	32828	32816	
759	0	32816	32860	
760	0	32840	32810	
761	0	32792	32770	
762	0	32832	32881	
763	0	32824	32702	
764	0	32848	32724	
765	0	32844	32848	
766	0	32756	32752	
767	0	32786	32744	
768	0	32780	32872	
769	0	32808	32743	
770	0	32822	32698	
771	0	32830	32646	
772	0	32798	32718	
773	0	32820	32696	
774	0	32820	32768	
775	0	32802	32732	
776	0	32832	32791	
777	0	32800	32775	
778	0	32790	32726	
779	0	32800	32740	
780	0	32810	32818	
781	0	32792	32760	
782	0	32738	32858	
783	0	32798	32839	
784	0	32792	32847	
785	0	32864	32638	
786	0	32814	32768	
787	0	32800	32716	
788	0	32826	32761	
789	0	32798	32866	
790	0	32826	32772	
791	0	32836	32798	
792	0	32832	32774	
793	0	32820	32838	
794	0	32836	32684	
795	0	32830	32727	
796	0	32848	32775	
797	0	32800	32790	
798	0	32768	32724	
799	0	32810	32824	
800	0	32784	32758	
801	0	32856	32706	
802	0	32824	32815	
803	0	32804	32770	
804	0	32830	32775	
805	0	32828	32775	
806	0	32804	32743	
807	0	32872	32703	
808	0	32816	32708	
809	0	32828	32736	
810	0	32826	32734	
811	0	32806	32794	
812	0	32824	32856	
813	0	32788	32738	
814	0	32836	32647	
815	0	32796	32728	
816	0	32808	32806	
817	0	32764	32863	
818	0	32914	32772	
819	0	32800	32774	
820	0	32852	32706	
821	0	32752	32673	
822	0	32836	32712	
823	0	32840	32832	
824	0	32766	32819	
825	0	32800	32864	
826	0	32784	32736	
827	0	32824	32728	
828	0	32817	32772	
829	0	32840	32846	
830	0	32868	32678	
831	0	32850	32676	
832	0	32860	32684	
833	0	32826	32806	
834	0	32782	32807	
835	0	32820	32792	
836	0	32872	32800	
837	0	32800	32744	
838	0	32836	32871	
839	0	32716	32775	
840	0	32780	32704	
841	0	32832	32670	
842	0	32804	32828	
843	0	32768	32878	
844	0	32750	32814	
845	0	32790	32846	
846	0	32804	32662	
847	0	32798	32728	
848	0	32804	32801	
849	0	32804	32772	
850	0	32818	32902	
851	0	32892	32728	
852	0	32740	32772	
853	0	32804	32792	
854	0	32820	32830	
855	0	32802	32772	
856	0	32808	32690	
857	0	32770	32668	
858	0	32788	32760	
859	0	32766	32858	
860	0	32792	32830	
861	0	32784	32702	
862	0	32820	32808	
863	0	32772	32800	
864	0	32780	32774	
865	0	32828	32748	
866	0	32814	32740	
867	0	32784	32822	
868	0	32852	32837	
869	0	32820	32740	
870	0	32850	32794	
871	0	32768	32806	
872	0	32830	32801	
873	0	32772	32800	
874	0	32812	32854	
875	0	32804	32758	
876	0	32804	32686	
877	0	32846	32775	
878	0	32866	32676	
879	0	32800	32722	
880	0	32784	32794	
881	0	32770	32764	
882	0	32828	32755	
883	0	32836	32775	
884	0	32772	32810	
885	0	32836	32750	
886	0	32764	32706	
887	0	32880	32654	
888	0	32840	32688	
889	0	32872	32839	
890	0	32840	32818	
891	0	32816	32759	
892	0	32764	32766	
893	0	32836	32794	
894	0	32824	32764	
895	0	32836	32830	
896	0	32802	32743	
897	0	32764	32884	
898	0	32816	32690	
899	0	32792	32748	
900	0	32784	32714	
901	0	32788	32600	
902	0	32856	32726	
903	0	32796	32726	
904	0	32832	32746	
905	0	32776	32820	
906	0	32800	32816	
907	0	32874	32775	
908	0	32808	32792	
909	0	32832	32706	
910	0	32792	32707	
911	0	32776	32736	
912	0	32826	32790	
913	0	32865	32799	
914	0	32820	32788	
915	0	32790	32810	
916	0	32814	32764	
917	0	32802	32702	
918	0	32828	32624	
919	0	32820	32708	
920	0	32818	32824	
921	0	32800	32798	
922	0	32804	32748	
923	0	32808	32798	
924	0	32820	32754	
925	0	32828	32798	
926	0	32772	32693	
927	0	32820	32684	
928	0	32808	32894	
929	0	32760	32846	
930	0	32802	32807	
931	0	32848	32758	
932	0	32804	32775	
933	0	32808	32838	
934	0	32796	32808	
935	0	32838	32704	
936	0	32776	32652	
937	0	32742	32817	
938	0	32816	32784	
939	0	32856	32760	
940	0	32822	32756	
941	0	32834	32775	
942	0	32804	32702	
943	0	32830	32742	
944	0	32816	32796	
945	0	32808	32825	
946	0	32876	32836	
947	0	32778	32808	
948	0	32792	32719	
949	0	32754	32812	
950	0	32848	32807	
951	0	32772	32692	
952	0	32812	32775	
953	0	32832	32807	
954	0	32830	32816	
955	0	32836	32810	
956	0	32840	32750	
957	0	32768	32704	
958	0	32784	32712	
959	0	32838	32679	
960	0	32812	32826	
961	0	32782	32716	
962	0	32864	32796	
963	0	32822	32770	
964	0	32828	32706	
965	0	32760	32743	
966	0	32816	32816	
967	0	32882	32704	
968	0	32836	32760	
969	0	32916	32807	
970	0	32760	32680	
971	0	32775	32774	
972	0	32768	32746	
973	0	32880	32702	
974	0	32816	32774	
975	0	32876	32732	
976	0	32828	32734	
977	0	32814	32798	
978	0	32868	32768	
979	0	32790	32844	
980	0	32836	32758	
981	0	32822	32708	
982	0	32794	32712	
983	0	32806	32839	
984	0	32760	32756	
985	0	32864	32807	
986	0	32844	32874	
987	0	32758	32794	
988	0	32817	32700	
989	0	32772	32878	
990	0	32808	32824	
991	0	32820	32744	
992	0	32834	32768	
993	0	32760	32751	
994	0	32860	32838	
995	0	32820	32812	
996	0	32820	32788	
997	0	32780	32775	
998	0	32816	32772	
999	0	32792	32844	
1000	0	32782	32744	
1001	0	32864	32791	
1002	0	32820	32823	
1003	0	32784	32774	
1004	0	32800	32645	
1005	0	32840	32714	
1006	0	32852	32770	
1007	0	32854	32640	
1008	0	32880	32811	
1009	0	32826	32770	
1010	0	32762	32791	
1011	0	32814	32746	
1012	0	32816	32631	
1013	0	32840	32775	
1014	0	32830	32804	
1015	0	32856	32700	
1016	0	32872	32858	
1017	0	32860	32788	
1018	0	32816	32663	
1019	0	32812	32852	
1020	0	32792	32812	
1021	0	32846	32736	
1022	0	32794	32846	
1023	0	32822	32738	
1024	0	32800	32694	
1025	0	32764	32864	
1026	0	32852	32788	
1027	0	32792	32752	
1028	0	32764	32775	
1029	0	32792	32662	
1030	0	32820	32848	
1031	0	32824	32774	
1032	0	32792	32718	
1033	0	32834	32742	
1034	0	32856	32754	
1035	0	32816	32866	
1036	0	32756	32660	
1037	0	32798	32796	
1038	0	32834	32824	
1039	0	32860	32672	
1040	0	32808	32743	
1041	0	32821	32812	
1042	0	32836	32824	
1043	0	32782	32768	
1044	0	32764	32766	
1045	0	32832	32878	
1046	0	32804	32692	
1047	0	32820	32834	
1048	0	32828	32852	
1049	0	32788	32626	
1050	0	32820	32775	
1051	0	32790	32822	
1052	0	32808	32742	
1053	0	32816	32788	
1054	0	32810	32794	
1055	0	32836	32775	
1056	0	32762	32744	
1057	0	32854	32796	
1058	0	32821	32719	
1059	0	32766	32790	
1060	0	32808	32794	
1061	0	32888	32694	
1062	0	32820	32846	
1063	0	32832	32774	
1064	0	32808	32710	
1065	0	32780	32762	
1066	0	32760	32690	
1067	0	32778	32800	
1068	0	32828	32718	
1069	0	32782	32735	
1070	0	32788	32704	
1071	0	32876	32820	
1072	0	32830	32822	
1073	0	32844	32655	
1074	0	32828	32774	
1075	0	32820	32792	
1076	0	32796	32712	
1077	0	32852	32806	
1078	0	32810	32825	
1079	0	32792	32670	
1080	0	32798	32826	
1081	0	32836	32838	
1082	0	32828	32818	
1083	0	32800	32798	
1084	0	32820	32868	
1085	0	32830	32710	
1086	0	32866	32868	
1087	0	32800	32814	
1088	0	32728	32684	
1089	0	32838	32934	
1090	0	32816	32680	
1091	0	32844	32799	
1092	0	32868	32822	
1093	0	32800	32730	
1094	0	32764	32772	
1095	0	32800	32716	
1096	0	32864	32730	
1097	0	32826	32712	
1098	0	32804	32796	
1099	0	32792	32821	
1100	0	32836	32702	
1101	0	32806	32846	
1102	0	32900	32794	
1103	0	32828	32775	
1104	0	32836	32700	
1105	0	32800	32742	
1106	0	32744	32724	
1107	0	32786	32770	
1108	0	32838	32734	
1109	0	32828	32784	
1110	0	32908	32686	
1111	0	32800	32704	
1112	0	32804	32754	
1113	0	32832	32775	
1114	0	32784	32743	
1115	0	32790	32834	
1116	0	32808	32756	
1117	0	32775	32712	
1118	0	32816	32864	
1119	0	32796	32927	
1120	0	32828	32750	
1121	0	32792	32845	
1122	0	32798	32759	
1123	0	32852	32727	
1124	0	32866	32735	
1125	0	32836	32775	
1126	0	32820	32729	
1127	0	32816	32864	
1128	0	32832	32756	
1129	0	32810	32775	
1130	0	32821	32740	
1131	0	32820	32772	
1132	0	32760	32804	
1133	0	32798	32797	
1134	0	32778	32830	
1135	0	32802	32816	
1136	0	32796	32686	
1137	0	32744	32816	
1138	0	32794	32802	
1139	0	32813	32735	
1140	0	32874	32816	
1141	0	32832	32788	
1142	0	32836	32748	
1143	0	32796	32722	
1144	0	32784	32849	
1145	0	32764	32762	
1146	0	32834	32775	
1147	0	32788	32758	
1148	0	32832	32802	
1149	0	32838	32658	
1150	0	32848	32791	
1151	0	32844	32792	
1152	0	32860	32708	
1153	0	32746	32764	
1154	0	32836	32868	
1155	0	32760	32732	
1156	0	32804	32792	
1157	0	32788	32825	
1158	0	32836	32696	
1159	0	32830	32791	
1160	0	32756	32874	
1161	0	32814	32684	
1162	0	32820	32726	
1163	0	32868	32862	
1164	0	32836	32664	
1165	0	32824	32762	
1166	0	32844	32826	
1167	0	32828	32628	
1168	0	32832	32755	
1169	0	32794	32792	
1170	0	32748	32702	
1171	0	32829	32846	
1172	0	32752	32799	
1173	0	32794	32681	
1174	0	32778	32760	
1175	0	32834	32764	
1176	0	32792	32736	
1177	0	32864	32762	
1178	0	32826	32736	
1179	0	32798	32830	
1180	0	32826	32814	
1181	0	32796	32676	
1182	0	32784	32810	
1183	0	32850	32732	
1184	0	32844	32714	
1185	0	32780	32774	
1186	0	32784	32696	
1187	0	32798	32790	
1188	0	32710	32804	
1189	0	32808	32786	
1190	0	32792	32814	
1191	0	32820	32728	
1192	0	32816	32711	
1193	0	32832	32756	
1194	0	32816	32856	
1195	0	32844	32758	
1196	0	32820	32775	
1197	0	32852	32676	
1198	0	32788	32812	
1199	0	32744	32775	
1200	0	32794	32820	
1201	0	32848	32838	
1202	0	32834	32836	
1203	0	32788	32826	
1204	0	32800	32725	
1205	0	32842	32738	
1206	0	32800	32839	
1207	0	32852	32716	
1208	0	32874	32672	
1209	0	32736	32676	
1210	0	32848	32790	
1211	0	32884	32688	
1212	0	32830	32768	
1213	0	32792	32816	
1214	0	32794	32676	
1215	0	32796	32852	
1216	0	32772	32726	
1217	0	32804	32742	
1218	0	32744	32630	
1219	0	32796	32848	
1220	0	32836	32727	
1221	0	32928	32804	
1222	0	32836	32764	
1223	0	32804	32838	
1224	0	32816	32793	
1225	0	32812	32674	
1226	0	32882	32775	
1227	0	32764	32796	
1228	0	32784	32698	
1229	0	32804	32807	
1230	0	32784	32766	
1231	0	32793	32676	
1232	0	32792	32750	
1233	0	32804	32750	
1234	0	32774	32688	
1235	0	32808	32806	
1236	0	32786	32832	
1237	0	32800	32728	
1238	0	32868	32794	
1239	0	32860	32674	
1240	0	32868	32860	
1241	0	32786	32775	
1242	0	32830	32890	
1243	0	32812	32824	
1244	0	32876	32766	
1245	0	32812	32823	
1246	0	32820	32830	
1247	0	32796	32688	
1248	0	32880	32791	
1249	0	32782	32852	
1250	0	32812	32724	
1251	0	32792	32742	
1252	0	32816	32738	
1253	0	32808	32806	
1254	0	32816	32806	
1255	0	32724	32734	
1256	0	32868	32724	
1257	0	32808	32710	
1258	0	32760	32888	
1259	0	32802	32761	
1260	0	32790	32702	
1261	0	32830	32697	
1262	0	32792	32740	
1263	0	32774	32740	
1264	0	32826	32624	
1265	0	32846	32791	
1266	0	32808	32678	
1267	0	32858	32775	
1268	0	32802	32752	
1269	0	32826	32652	
1270	0	32834	32816	
1271	0	32836	32754	
1272	0	32708	32698	
1273	0	32844	32850	
1274	0	32834	32768	
1275	0	32766	32796	
1276	0	32816	32724	
1277	0	32788	32832	
1278	0	32838	32822	
1279	0	32792	32735	
1280	0	32792	32810	
1281	0	32800	32800	
1282	0	32832	32720	
1283	0	32862	32736	
1284	0	32810	32817	
1285	0	32804	32814	
1286	0	32776	32688	
1287	0	32823	32814	
1288	0	32868	32805	
1289	0	32796	32628	
1290	0	32801	32756	
1291	0	32880	32836	
1292	0	32898	32775	
1293	0	32906	32750	
1294	0	32890	32718	
1295	0	32916	32814	
1296	0	32802	32656	
1297	0	32872	32564	
1298	0	32842	32699	
1299	0	32860	32630	
1300	0	32782	32493	
1301	0	32908	32578	
1302	0	32938	32495	
1303	0	32828	32540	
1304	0	32854	32486	
1305	0	32848	32468	
1306	0	32816	32510	
1307	0	32872	32528	
1308	0	32764	32567	
1309	0	32764	32578	
1310	0	32800	32736	
1311	0	32724	32766	
1312	0	32768	32816	
1313	0	32696	32828	
1314	0	32740	32966	
1315	0	32728	33132	
1316	0	32672	33240	
1317	0	32568	33392	
1318	0	32596	33434	
1319	0	32580	33502	
1320	0	32612	33528	
1321	0	32604	33526	
1322	0	32644	33527	
1323	0	32640	33514	
1324	0	32640	33326	
1325	0	32736	33114	
1326	0	32842	32910	
1327	0	32748	32762	
1328	0	32868	32696	
1329	0	32848	32590	
1330	0	32870	32458	
1331	0	32856	32346	
1332	0	32982	32324	
1333	0	32910	32416	
1334	0	32904	32455	
1335	0	32896	32415	
1336	0	32892	32388	
1337	0	32880	32512	
1338	0	32888	32472	
1339	0	32884	32496	
1340	0	32840	32550	
1341	0	32832	32550	
1342	0	32836	32583	
1343	0	32876	32674	
1344	0	32848	32700	
1345	0	32860	32756	
1346	0	32932	32814	
1347	0	32884	32798	
1348	0	32900	32832	
1349	0	32892	32700	
1350	0	32860	32720	
1351	0	32860	32774	
1352	0	32884	32743	
1353	0	32864	32726	
1354	0	32910	32767	
1355	0	32870	32828	
1356	0	32800	32863	
1357	0	32852	32742	
1358	0	32864	32752	
1359	0	32838	32718	
1360	0	32812	32751	
1361	0	32814	32646	
1362	0	32820	32728	
1363	0	32754	32792	
1364	0	32762	32660	
1365	0	32794	32638	
1366	0	32728	32668	
1367	0	32752	32692	
1368	0	32722	32775	
1369	0	32772	32798	
1370	0	32788	32835	
1371	0	32771	32806	
1372	0	32780	32774	
1373	0	32760	32768	
1374	0	32812	32754	
1375	0	32840	32756	
1376	0	32812	32704	
1377	0	32776	32772	
1378	0	32848	32834	
1379	0	32828	32838	
1380	0	32798	32807	
1381	0	32756	32790	
1382	0	32864	32876	
1383	0	32848	32804	
1384	0	32860	32814	
1385	0	32816	32804	
1386	0	32804	32766	
1387	0	32860	32818	
1388	0	32844	32846	
1389	0	32768	32819	
1390	0	32780	32772	
1391	0	32822	32716	
1392	0	32792	32796	
1393	0	32778	32759	
1394	0	32824	32775	
1395	0	32792	32743	
1396	0	32806	32748	
1397	0	32792	32711	
1398	0	32804	32678	
1399	0	32824	32606	
1400	0	32820	32704	
1401	0	32804	32664	
1402	0	32740	32742	
1403	0	32856	32775	
1404	0	32796	32798	
1405	0	32804	32762	
1406	0	32852	32828	
1407	0	32816	32794	
1408	0	32848	32762	
1409	0	32804	32903	
1410	0	32808	32814	
1411	0	32786	32798	
1412	0	32820	32796	
1413	0	32822	32828	
1414	0	32744	32678	
1415	0	32697	32774	
1416	0	32836	32799	
1417	0	32872	32804	
1418	0	32844	32760	
1419	0	32772	32734	
1420	0	32780	32710	
1421	0	32766	32854	
1422	0	32864	32876	
1423	0	32716	32820	
1424	0	32828	32796	
1425	0	32862	32762	
1426	0	32896	32790	
1427	0	32784	32826	
1428	0	32784	32754	
1429	0	32852	32674	
1430	0	32766	32644	
1431	0	32822	32730	
1432	0	32846	32754	
1433	0	32738	32746	
1434	0	32784	32768	
1435	0	32772	32815	
1436	0	32824	32832	
1437	0	32816	32736	
1438	0	32872	32800	
1439	0	32788	32764	
1440	0	32780	32758	
1441	0	32820	32826	
1442	0	32854	32714	
1443	0	32860	32768	
1444	0	32836	32811	
1445	0	32774	32754	
1446	0	32800	32796	
1447	0	32798	32736	
1448	0	32838	32790	
1449	0	32820	32722	
1450	0	32828	32738	
1451	0	32868	32655	
1452	0	32804	32722	
1453	0	32838	32736	
1454	0	32880	32734	
1455	0	32834	32702	
1456	0	32772	32820	
1457	0	32788	32752	
1458	0	32796	32768	
1459	0	32782	32775	
1460	0	32760	32808	
1461	0	32768	32775	
1462	0	32864	32844	
1463	0	32868	32854	
1464	0	32778	32802	
1465	0	32798	32731	
1466	0	32804	32742	
1467	0	32728	32784	
1468	0	32798	32756	
1469	0	32788	32718	
1470	0	32756	32724	
1471	0	32832	32694	
1472	0	32728	32684	
1473	0	32798	32656	
1474	0	32858	32616	
1475	0	32938	32739	
1476	0	32838	32700	
1477	0	32818	32744	
1478	0	32840	32720	
1479	0	32836	32746	
1480	0	32840	32708	
1481	0	32788	32698	
1482	0	32788	32694	
1483	0	32846	32644	
1484	0	32836	32670	
1485	0	32856	32740	
1486	0	32854	32839	
1487	0	32774	32790	
1488	0	32780	32852	
1489	0	32822	32775	
1490	0	32820	32774	
1491	0	32816	32775	
1492	0	32820	32855	
1493	0	32772	32842	
1494	0	32862	32806	
1495	0	32850	32806	
1496	0	32802	32816	
1497	0	32824	32754	
1498	0	32868	32796	
1499	0	32792	32897	
1500	0	32820	32746	
1501	0	32772	32664	
1502	0	32884	32652	
1503	0	32792	32692	
1504	0	32810	32736	
1505	0	32782	32756	
1506	0	32864	32796	
1507	0	32808	32830	
1508	0	32828	32832	
1509	0	32746	32744	
1510	0	32816	32730	
1511	0	32828	32844	
1512	0	32812	32798	
1513	0	32794	32714	
1514	0	32790	32764	
1515	0	32826	32810	
1516	0	32822	32709	
1517	0	32808	32731	
1518	0	32836	32791	
1519	0	32828	32823	
1520	0	32874	32775	
1521	0	32788	32767	
1522	0	32776	32708	
1523	0	32824	32718	
1524	0	32802	32700	
1525	0	32772	32746	
1526	0	32856	32760	
1527	0	32768	32774	
1528	0	32772	32798	
1529	0	32820	32856	
1530	0	32840	32764	
1531	0	32816	32810	
1532	0	32876	32806	
1533	0	32814	32759	
1534	0	32806	32848	
1535	0	32816	32794	
1536	0	32804	32734	
1537	0	32796	32823	
1538	0	32764	32884	
1539	0	32774	32804	
1540	0	32812	32775	
1541	0	32800	32775	
1542	0	32800	32712	
1543	0	32776	32804	
1544	0	32832	32798	
1545	0	32760	32748	
1546	0	32828	32774	
1547	0	32844	32903	
1548	0	32802	32788	
1549	0	32768	32804	
1550	0	32824	32847	
1551	0	32760	32772	
1552	0	32800	32868	
1553	0	32808	32763	
1554	0	32796	32924	
1555	0	32792	32864	
1556	0	32824	32848	
1557	0	32840	32838	
1558	0	32794	32887	
1559	0	32756	32804	
1560	0	32822	32820	
1561	0	32840	32846	
1562	0	32772	32856	
1563	0	32768	32802	
1564	0	32844	32676	
1565	0	32832	32730	
1566	0	32796	32750	
1567	0	32800	32732	
1568	0	32840	32747	
1569	0	32788	32734	
1570	0	32812	32772	
1571	0	32796	32792	
1572	0	32752	32775	
1573	0	32804	32772	
1574	0	32856	32768	
1575	0	32808	32826	
1576	0	32816	32775	
1577	0	32772	32712	
1578	0	32836	32775	
1579	0	32802	32814	
1580	0	32810	32719	
1581	0	32868	32774	
1582	0	32830	32836	
1583	0	32792	32804	
1584	0	32860	32870	
1585	0	32822	32660	
1586	0	32768	32622	
1587	0	32792	32714	
1588	0	32828	32704	
1589	0	32724	32679	
1590	0	32836	32796	
1591	0	32864	32796	
1592	0	32832	32824	
1593	0	32796	32855	
1594	0	32812	32871	
1595	0	32800	32832	
1596	0	32804	32792	
1597	0	32872	32716	
1598	0	32808	32850	
1599	0	32778	32774	
1600	0	32800	32770	
1601	0	32804	32818	
1602	0	32814	32700	
1603	0	32824	32696	
1604	0	32878	32738	
1605	0	32888	32676	
1606	0	32790	32726	
1607	0	32801	32702	
1608	0	32804	32732	
1609	0	32832	32836	
1610	0	32844	32880	
1611	0	32848	32762	
1612	0	32820	32783	
1613	0	32822	32775	
1614	0	32748	32802	
1615	0	32820	32798	
1616	0	32798	32775	
1617	0	32798	32826	
1618	0	32790	32772	
1619	0	32846	32702	
1620	0	32808	32714	
1621	0	32864	32792	
1622	0	32780	32678	
1623	0	32768	32687	
1624	0	32796	32798	
1625	0	32836	32806	
1626	0	32786	32788	
1627	0	32852	32744	
1628	0	32744	32682	
1629	0	32774	32698	
1630	0	32864	32756	
1631	0	32832	32772	
1632	0	32874	32664	
1633	0	32769	32692	
1634	0	32816	32736	
1635	0	32736	32760	
1636	0	32748	32714	
1637	0	32844	32688	
1638	0	32796	32720	
1639	0	32826	32727	
1640	0	32816	32743	
1641	0	32780	32836	
1642	0	32832	32876	
1643	0	32858	32864	
1644	0	32792	32799	
1645	0	32836	32732	
1646	0	32840	32738	
1647	0	32804	32794	
1648	0	32798	32775	
1649	0	32838	32720	
1650	0	32836	32734	
1651	0	32860	32754	
1652	0	32786	32764	
1653	0	32794	32710	
1654	0	32828	32772	
1655	0	32848	32690	
1656	0	32812	32724	
1657	0	32744	32775	
1658	0	32816	32796	
1659	0	32776	32742	
1660	0	32836	32764	
1661	0	32868	32775	
1662	0	32814	32772	
1663	0	32820	32926	
1664	0	32724	32846	
1665	0	32804	32818	
1666	0	32860	32812	
1667	0	32888	32808	
1668	0	32808	32782	
1669	0	32824	32768	
1670	0	32793	32760	
1671	0	32828	32718	
1672	0	32800	32706	
1673	0	32832	32648	
1674	0	32800	32624	
1675	0	32792	32712	
1676	0	32814	32716	
1677	0	32822	32792	
1678	0	32760	32903	
1679	0	32810	32769	
1680	0	32800	32748	
1681	0	32748	32748	
1682	0	32841	32744	
1683	0	32844	32792	
1684	0	32832	32715	
1685	0	32842	32758	
1686	0	32832	32770	
1687	0	32782	32714	
1688	0	32808	32687	
1689	0	32804	32710	
1690	0	32816	32764	
1691	0	32782	32760	
1692	0	32792	32760	
1693	0	32848	32630	
1694	0	32806	32647	
1695	0	32784	32708	
1696	0	32876	32796	
1697	0	32804	32688	
1698	0	32804	32676	
1699	0	32840	32764	
1700	0	32760	32839	
1701	0	32860	32767	
1702	0	32828	32839	
1703	0	32832	32775	
1704	0	32830	32786	
1705	0	32852	32757	
1706	0	32788	32769	
1707	0	32792	32742	
1708	0	32712	32838	
1709	0	32768	32864	
1710	0	32808	32890	
1711	0	32788	32830	
1712	0	32800	32691	
1713	0	32888	32680	
1714	0	32848	32714	
1715	0	32860	32711	
1716	0	32786	32710	
1717	0	32732	32640	
1718	0	32824	32756	
1719	0	32804	32804	
1720	0	32816	32734	
1721	0	32822	32868	
1722	0	32856	32828	
1723	0	32808	32850	
1724	0	32784	32792	
1725	0	32808	32860	
1726	0	32792	32722	
1727	0	32808	32754	
1728	0	32840	32823	
1729	0	32822	32804	
1730	0	32804	32800	
1731	0	32836	32775	
1732	0	32860	32729	
1733	0	32790	32794	
1734	0	32764	32846	
1735	0	32808	32884	
1736	0	32808	32852	
1737	0	32780	32810	
1738	0	32820	32706	
1739	0	32808	32740	
1740	0	32758	32704	
1741	0	32832	32666	
1742	0	32782	32775	
1743	0	32840	32798	
1744	0	32836	32788	
1745	0	32864	32796	
1746	0	32815	32796	
1747	0	32848	32730	
1748	0	32784	32734	
1749	0	32832	32662	
1750	0	32780	32797	
1751	0	32760	32748	
1752	0	32848	32791	
1753	0	32836	32796	
1754	0	32826	32774	
1755	0	32768	32901	
1756	0	32840	32821	
1757	0	32848	32832	
1758	0	32912	32928	
1759	0	32780	32824	
1760	0	32828	32740	
1761	0	32854	32687	
1762	0	32834	32734	
1763	0	32742	32684	
1764	0	32832	32749	
1765	0	32836	32698	
1766	0	32772	32806	
1767	0	32852	32836	
1768	0	32804	32802	
1769	0	32768	32838	
1770	0	32796	32746	
1771	0	32812	32798	
1772	0	32816	32838	
1773	0	32734	32702	
1774	0	32776	32752	
1775	0	32756	32775	
1776	0	32812	32732	
1777	0	32758	32775	
1778	0	32822	32788	
1779	0	32838	32788	
1780	0	32866	32838	
1781	0	32861	32760	
1782	0	32814	32903	
1783	0	32848	32775	
1784	0	32842	32801	
1785	0	32792	32868	
1786	0	32744	32852	
1787	0	32816	32775	
1788	0	32808	32774	
1789	0	32800	32752	
1790	0	32818	32796	
1791	0	32828	32775	
1792	0	32874	32768	
1793	0	32834	32876	
1794	0	32838	32883	
1795	0	32870	32874	
1796	0	32736	32927	
1797	0	32792	32864	
1798	0	32836	32808	
1799	0	32794	32814	
1800	0	32798	32798	
1801	0	32849	32748	
1802	0	32862	32711	
1803	0	32752	32670	
1804	0	32828	32699	
1805	0	32792	32687	
1806	0	32848	32742	
1807	0	32852	32775	
1808	0	32812	32820	
1809	0	32826	32788	
1810	0	32772	32692	
1811	0	32736	32724	
1812	0	32856	32748	
1813	0	32812	32758	
1814	0	32826	32722	
1815	0	32828	32830	
1816	0	32824	32771	
1817	0	32748	32791	
1818	0	32822	32848	
1819	0	32816	32806	
1820	0	32832	32932	
1821	0	32772	32698	
1822	0	32836	32788	
1823	0	32836	32711	
1824	0	32808	32652	
1825	0	32804	32684	
1826	0	32796	32739	
1827	0	32806	32844	
1828	0	32796	32793	
1829	0	32808	32794	
1830	0	32808	32775	
1831	0	32868	32764	
1832	0	32836	32828	
1833	0	32844	32784	
1834	0	32812	32820	
1835	0	32808	32756	
1836	0	32788	32807	
1837	0	32856	32647	
1838	0	32828	32775	
1839	0	32828	32676	
1840	0	32856	32697	
1841	0	32836	32790	
1842	0	32848	32752	
1843	0	32866	32752	
1844	0	32886	32740	
1845	0	32808	32746	
1846	0	32870	32720	
1847	0	32740	32746	
1848	0	32788	32788	
1849	0	32786	32732	
1850	0	32780	32758	
1851	0	32772	32752	
1852	0	32780	32817	
1853	0	32752	32838	
1854	0	32732	32896	
1855	0	32808	32710	
1856	0	32842	32775	
1857	0	32898	32782	
1858	0	32832	32775	
1859	0	32804	32814	
1860	0	32836	32798	
1861	0	32824	32844	
1862	0	32820	32744	
1863	0	32820	32791	
1864	0	32784	32767	
1865	0	32852	32828	
1866	0	32784	32732	
1867	0	32818	32791	
1868	0	32852	32734	
1869	0	32788	32801	
1870	0	32778	32810	
1871	0	32776	32806	
1872	0	32856	32768	
1873	0	32804	32766	
1874	0	32758	32672	
1875	0	32834	32758	
1876	0	32784	32708	
1877	0	32848	32766	
1878	0	32842	32810	
1879	0	32810	32775	
1880	0	32886	32832	
1881	0	32820	32852	
1882	0	32800	32743	
1883	0	32764	32734	
1884	0	32800	32658	
1885	0	32764	32686	
1886	0	32800	32714	
1887	0	32784	32724	
1888	0	32824	32692	
1889	0	32780	32730	
1890	0	32800	32686	
1891	0	32836	32640	
1892	0	32826	32668	
1893	0	32764	32720	
1894	0	32812	32724	
1895	0	32774	32814	
1896	0	32852	32822	
1897	0	32816	32712	
1898	0	32794	32700	
1899	0	32878	32788	
1900	0	32784	32796	
1901	0	32792	32816	
1902	0	32828	32796	
1903	0	32796	32775	
1904	0	32804	32726	
1905	0	32894	32756	
1906	0	32856	32796	
1907	0	32796	32760	
1908	0	32844	32768	
1909	0	32742	32796	
1910	0	32816	32812	
1911	0	32822	32730	
1912	0	32824	32716	
1913	0	32860	32838	
1914	0	32774	32824	
1915	0	32802	32836	
1916	0	32778	32724	
1917	0	32868	32718	
1918	0	32788	32798	
1919	0	32792	32714	
1920	0	32864	32646	
1921	0	32800	32679	
1922	0	32794	32724	
1923	0	32850	32722	
1924	0	32768	32691	
1925	0	32810	32792	
1926	0	32786	32832	
1927	0	32848	32791	
1928	0	32824	32799	
1929	0	32828	32812	
1930	0	32822	32791	
1931	0	32776	32822	
1932	0	32826	32880	
1933	0	32788	32838	
1934	0	32808	32736	
1935	0	32812	32700	
1936	0	32786	32690	
1937	0	32834	32774	
1938	0	32820	32774	
1939	0	32836	32724	
1940	0	32816	32750	
1941	0	32810	32742	
1942	0	32808	32738	
1943	0	32792	32718	
1944	0	32804	32698	
1945	0	32794	32630	
1946	0	32828	32775	
1947	0	32852	32760	
1948	0	32834	32796	
1949	0	32844	32742	
1950	0	32816	32714	
1951	0	32832	32742	
1952	0	32816	32784	
1953	0	32786	32791	
1954	0	32776	32774	
1955	0	32820	32732	
1956	0	32854	32796	
1957	0	32838	32724	
1958	0	32870	32773	
1959	0	32748	32754	
1960	0	32806	32758	
1961	0	32852	32810	
1962	0	32780	32766	
1963	0	32854	32720	
1964	0	32804	32800	
1965	0	32774	32756	
1966	0	32840	32719	
1967	0	32808	32837	
1968	0	32820	32807	
1969	0	32892	32799	
1970	0	32832	32668	
1971	0	32920	32768	
1972	0	32848	32746	
1973	0	32868	32630	
1974	0	32876	32623	
1975	0	32868	32583	
1976	0	32888	32516	
1977	0	32864	32518	
1978	0	32884	32610	
1979	0	32858	32574	
1980	0	32900	32455	
1981	0	32908	32506	
1982	0	32804	32423	
1983	0	32868	32356	
1984	0	32820	32478	
1985	0	32888	32494	
1986	0	32846	32495	
1987	0	32874	32500	
1988	0	32828	32600	
1989	0	32772	32820	
1990	0	32740	32795	
1991	0	32816	32864	
1992	0	32732	33047	
1993	0	32676	33180	
1994	0	32684	33372	
1995	0	32596	33498	
1996	0	32572	33543	
1997	0	32570	33438	
1998	0	32580	33532	
1999	0	32580	33607	
2000	0	32596	33530	
2001	0	32604	33536	
2002	0	32642	33391	
2003	0	32756	33254	
2004	0	32754	33063	
2005	0	32784	32805	
2006	0	32792	32574	
2007	0	32816	32621	
2008	0	32854	32422	
2009	0	32806	32415	
2010	0	32886	32386	
2011	0	32884	32436	
2012	0	32930	32438	
2013	0	32870	32337	
2014	0	32900	32334	
2015	0	32952	32482	
2016	0	32960	32486	
2017	0	32846	32480	
2018	0	32848	32588	
2019	0	32888	32560	
2020	0	32848	32628	
2021	0	32900	32646	
2022	0	32830	32718	
2023	0	32800	32743	
2024	0	32840	32775	
2025	0	32884	32814	
2026	0	32886	32772	
2027	0	32889	32825	
2028	0	32910	32772	
2029	0	32860	32775	
2030	0	32912	32680	
2031	0	32852	32710	
2032	0	32888	32750	
2033	0	32846	32814	
2034	0	32828	32868	
2035	0	32784	32902	
2036	0	32816	32866	
2037	0	32862	32784	
2038	0	32792	32790	
2039	0	32778	32843	
2040	0	32804	32764	
2041	0	32760	32812	
2042	0	32809	32748	
2043	0	32788	32775	
2044	0	32812	32772	
2045	0	32824	32775	
2046	0	32728	32774	
2047	0	32786	32775	
2048	0	32720	32759	
2049	0	32856	32748	
2050	0	32804	32748	
2051	0	32776	32750	
2052	0	32756	32711	
2053	0	32816	32824	
2054	0	32770	32806	
2055	0	32780	32807	
2056	0	32768	32798	
2057	0	32810	32818	
2058	0	32868	32846	
2059	0	32818	32800	
2060	0	32792	32788	
2061	0	32820	32768	
2062	0	32788	32775	
2063	0	32800	32711	
2064	0	32808	32794	
2065	0	32852	32758	
2066	0	32832	32808	
2067	0	32816	32828	
2068	0	32892	32758	
2069	0	32748	32775	
2070	0	32808	32832	
2071	0	32864	32775	
2072	0	32792	32822	
2073	0	32816	32796	
2074	0	32852	32790	
2075	0	32822	32730	
2076	0	32756	32810	
2077	0	32796	32864	
2078	0	32820	32843	
2079	0	32826	32766	
2080	0	32836	32807	
2081	0	32838	32820	
2082	0	32816	32724	
2083	0	32826	32786	
2084	0	32798	32752	
2085	0	32816	32838	
2086	0	32852	32772	
2087	0	32808	32678	
2088	0	32760	32692	
2089	0	32832	32724	
2090	0	32824	32646	
2091	0	32788	32708	
2092	0	32788	32738	
2093	0	32836	32725	
2094	0	32834	32673	
2095	0	32808	32652	
2096	0	32894	32764	
2097	0	32856	32696	
2098	0	32852	32718	
2099	0	32806	32682	
2100	0	32780	32740	
2101	0	32778	32820	
2102	0	32824	32748	
2103	0	32768	32839	
2104	0	32804	32898	
2105	0	32760	32732	
2106	0	32832	32644	
2107	0	32840	32742	
2108	0	32844	32692	
2109	0	32852	32870	
2110	0	32892	32804	
2111	0	32780	32824	
2112	0	32792	32802	
2113	0	32826	32911	
2114	0	32810	32732	
2115	0	32836	32824	
2116	0	32864	32812	
2117	0	32836	32714	
2118	0	32832	32720	
2119	0	32772	32634	
2120	0	32736	32639	
2121	0	32780	32850	
2122	0	32752	32775	
2123	0	32876	32800	
2124	0	32796	32812	
2125	0	32756	32788	
2126	0	32800	32792	
2127	0	32812	32764	
2128	0	32831	32752	
2129	0	32780	32730	
2130	0	32844	32692	
2131	0	32800	32702	
2132	0	32808	32794	
2133	0	32846	32726	
2134	0	32864	32712	
2135	0	32760	32748	
2136	0	32860	32738	
2137	0	32874	32775	
2138	0	32872	32888	
2139	0	32812	32695	
2140	0	32886	32692	
2141	0	32864	32806	
2142	0	32802	32742	
2143	0	32788	32720	
2144	0	32872	32724	
2145	0	32860	32758	
2146	0	32820	32718	
2147	0	32772	32774	
2148	0	32796	32874	
2149	0	32770	32848	
2150	0	32800	32775	
2151	0	32778	32863	
2152	0	32868	32746	
2153	0	32816	32688	
2154	0	32820	32772	
2155	0	32842	32706	
2156	0	32850	32876	
2157	0	32810	32834	
2158	0	32812	32796	
2159	0	32836	32742	
2160	0	32794	32768	
2161	0	32788	32806	
2162	0	32872	32743	
2163	0	32812	32774	
2164	0	32788	32775	
2165	0	32760	32786	
2166	0	32812	32712	
2167	0	32864	32767	
2168	0	32768	32730	
2169	0	32890	32775	
2170	0	32798	32788	
2171	0	32800	32839	
2172	0	32868	32800	
2173	0	32826	32756	
2174	0	32788	32810	
2175	0	32816	32804	
2176	0	32840	32775	
2177	0	32804	32762	
2178	0	32808	32754	
2179	0	32813	32814	
2180	0	32828	32794	
2181	0	32784	32772	
2182	0	32768	32714	
2183	0	32852	32760	
2184	0	32872	32744	
2185	0	32830	32697	
2186	0	32824	32801	
2187	0	32846	32868	
2188	0	32830	32832	
2189	0	32820	32852	
2190	0	32806	32788	
2191	0	32832	32660	
2192	0	32800	32734	
2193	0	32868	32774	
2194	0	32734	32616	
2195	0	32812	32748	
2196	0	32776	32748	
2197	0	32832	32736	
2198	0	32778	32702	
2199	0	32852	32711	
2200	0	32746	32712	
2201	0	32754	32743	
2202	0	32800	32768	
2203	0	32808	32740	
2204	0	32868	32710	
2205	0	32852	32676	
2206	0	32830	32628	
2207	0	32788	32703	
2208	0	32778	32722	
2209	0	32784	32657	
2210	0	32826	32798	
2211	0	32710	32775	
2212	0	32864	32806	
2213	0	32824	32750	
2214	0	32804	32766	
2215	0	32764	32741	
2216	0	32884	32799	
2217	0	32868	32822	
2218	0	32774	32804	
2219	0	32848	32803	
2220	0	32808	32792	
2221	0	32844	32792	
2222	0	32780	32896	
2223	0	32806	32806	
2224	0	32808	32806	
2225	0	32816	32734	
2226	0	32804	32775	
2227	0	32788	32847	
2228	0	32702	32856	
2229	0	32804	32775	
2230	0	32764	32726	
2231	0	32844	32814	
2232	0	32760	32764	
2233	0	32784	32820	
2234	0	32826	32772	
2235	0	32782	32766	
2236	0	32800	32798	
2237	0	32768	32820	
2238	0	32794	32874	
2239	0	32788	32828	
2240	0	32820	32774	
2241	0	32848	32810	
2242	0	32772	32807	
2243	0	32784	32740	
2244	0	32816	32724	
2245	0	32854	32732	
2246	0	32830	32775	
2247	0	32816	32810	
2248	0	32836	32830	
2249	0	32816	32692	
2250	0	32794	32701	
2251	0	32792	32728	
2252	0	32792	32732	
2253	0	32789	32647	
2254	0	32778	32700	
2255	0	32768	32812	
2256	0	32880	32720	
2257	0	32864	32742	
2258	0	32844	32884	
2259	0	32792	32806	
2260	0	32800	32772	
2261	0	32818	32764	
2262	0	32820	32838	
2263	0	32824	32754	
2264	0	32788	32802	
2265	0	32816	32802	
2266	0	32812	32752	
2267	0	32802	32764	
2268	0	32794	32764	
2269	0	32826	32704	
2270	0	32872	32756	
2271	0	32832	32759	
2272	0	32764	32800	
2273	0	32816	32760	
2274	0	32752	32756	
2275	0	32834	32695	
2276	0	32822	32710	
2277	0	32816	32693	
2278	0	32808	32730	
2279	0	32800	32692	
2280	0	32854	32734	
2281	0	32874	32698	
2282	0	32808	32716	
2283	0	32816	32772	
2284	0	32812	32698	
2285	0	32836	32775	
2286	0	32760	32748	
2287	0	32828	32872	
2288	0	32744	32830	
2289	0	32840	32852	
2290	0	32748	32775	
2291	0	32836	32730	
2292	0	32876	32738	
2293	0	32804	32752	
2294	0	32830	32775	
2295	0	32768	32772	
2296	0	32836	32775	
2297	0	32814	32808	
2298	0	32824	32708	
2299	0	32796	32758	
2300	0	32856	32743	
2301	0	32836	32766	
2302	0	32812	32764	
2303	0	32736	32801	
2304	0	32824	32775	
2305	0	32840	32766	
2306	0	32776	32758	
2307	0	32798	32746	
2308	0	32828	32820	
2309	0	32788	32738	
2310	0	32800	32726	
2311	0	32736	32647	
2312	0	32884	32734	
2313	0	32868	32732	
2314	0	32736	32686	
2315	0	32823	32754	
2316	0	32760	32832	
2317	0	32856	32730	
2318	0	32876	32830	
2319	0	32814	32834	
2320	0	32776	32820	
2321	0	32872	32798	
2322	0	32776	32858	
2323	0	32910	32766	
2324	0	32816	32884	
2325	0	32828	32788	
2326	0	32792	32732	
2327	0	32820	32823	
2328	0	32828	32924	
2329	0	32772	32808	
2330	0	32778	32764	
2331	0	32804	32770	
2332	0	32790	32636	
2333	0	32832	32692	
2334	0	32760	32752	
2335	0	32768	32804	
2336	0	32750	32754	
2337	0	32766	32802	
2338	0	32814	32712	
2339	0	32820	32828	
2340	0	32824	32800	
2341	0	32784	32810	
2342	0	32836	32775	
2343	0	32754	32914	
2344	0	32832	32866	
2345	0	32830	32822	
2346	0	32724	32722	
2347	0	32800	32678	
2348	0	32778	32772	
2349	0	32836	32860	
2350	0	32860	32834	
2351	0	32790	32804	
2352	0	32860	32794	
2353	0	32828	32726	
2354	0	32797	32708	
2355	0	32862	32748	
2356	0	32822	32838	
2357	0	32806	32796	
2358	0	32794	32806	
2359	0	32778	32810	
2360	0	32840	32748	
2361	0	32806	32725	
2362	0	32812	32716	
2363	0	32844	32676	
2364	0	32804	32708	
2365	0	32834	32634	
2366	0	32742	32647	
2367	0	32800	32694	
2368	0	32754	32668	
2369	0	32800	32726	
2370	0	32802	32654	
2371	0	32816	32724	
2372	0	32820	32744	
2373	0	32872	32694	
2374	0	32776	32742	
2375	0	32854	32834	
2376	0	32848	32842	
2377	0	32862	32755	
2378	0	32728	32763	
2379	0	32852	32800	
2380	0	32828	32802	
2381	0	32804	32810	
2382	0	32788	32764	
2383	0	32836	32775	
2384	0	32816	32924	
2385	0	32896	32807	
2386	0	32900	32814	
2387	0	32764	32786	
2388	0	32856	32814	
2389	0	32833	32820	
2390	0	32712	32876	
2391	0	32732	32866	
2392	0	32872	32804	
2393	0	32720	32761	
2394	0	32818	32812	
2395	0	32768	32844	
2396	0	32784	32800	
2397	0	32772	32716	
2398	0	32784	32671	
2399	0	32822	32726	
2400	0	32812	32678	
2401	0	32808	32784	
2402	0	32880	32825	
2403	0	32896	32775	
2404	0	32832	32775	
2405	0	32752	32806	
2406	0	32868	32834	
2407	0	32810	32852	
2408	0	32780	32804	
2409	0	32788	32804	
2410	0	32798	32804	
2411	0	32804	32846	
2412	0	32776	32772	
2413	0	32772	32742	
2414	0	32812	32844	
2415	0	32788	32775	
2416	0	32788	32740	
2417	0	32752	32728	
2418	0	32842	32774	
2419	0	32820	32818	
2420	0	32788	32744	
2421	0	32852	32730	
2422	0	32834	32711	
2423	0	32820	32674	
2424	0	32870	32710	
2425	0	32780	32810	
2426	0	32844	32760	
2427	0	32824	32852	
2428	0	32768	32834	
2429	0	32854	32816	
2430	0	32844	32804	
2431	0	32768	32862	
2432	0	32768	32836	
2433	0	32864	32903	
2434	0	32776	32720	
2435	0	32826	32700	
2436	0	32790	32639	
2437	0	32800	32654	
2438	0	32798	32719	
2439	0	32788	32724	
2440	0	32806	32748	
2441	0	32832	32762	
2442	0	32806	32775	
2443	0	32792	32813	
2444	0	32798	32742	
2445	0	32792	32780	
2446	0	32814	32816	
2447	0	32814	32767	
2448	0	32792	32788	
2449	0	32774	32678	
2450	0	32822	32768	
2451	0	32860	32880	
2452	0	32834	32871	
2453	0	32824	32805	
2454	0	32742	32652	
2455	0	32820	32708	
2456	0	32730	32663	
2457	0	32852	32754	
2458	0	32780	32804	
2459	0	32784	32719	
2460	0	32794	32758	
2461	0	32868	32750	
2462	0	32824	32743	
2463	0	32834	32695	
2464	0	32882	32748	
2465	0	32830	32788	
2466	0	32768	32734	
2467	0	32816	32712	
2468	0	32740	32756	
2469	0	32796	32788	
2470	0	32820	32647	
2471	0	32812	32694	
2472	0	32816	32686	
2473	0	32780	32655	
2474	0	32800	32684	
2475	0	32798	32660	
2476	0	32904	32726	
2477	0	32818	32622	
2478	0	32766	32686	
2479	0	32836	32775	
2480	0	32814	32816	
2481	0	32806	32786	
2482	0	32840	32754	
2483	0	32760	32766	
2484	0	32834	32805	
2485	0	32852	32822	
2486	0	32876	32803	
2487	0	32704	32680	
2488	0	32868	32750	
2489	0	32758	32736	
2490	0	32845	32738	
2491	0	32848	32728	
2492	0	32850	32740	
2493	0	32821	32775	
2494	0	32736	32832	
2495	0	32796	32828	
2496	0	32812	32879	
2497	0	32780	32806	
2498	0	32872	32792	
2499	0	32820	32736	
2500	0	32856	32784	
2501	0	32802	32715	
2502	0	32792	32716	
2503	0	32832	32698	
2504	0	32808	32696	
2505	0	32772	32688	
2506	0	32836	32744	
2507	0	32808	32736	
2508	0	32810	32665	
2509	0	32828	32748	
2510	0	32788	32902	
2511	0	32824	32775	
2512	0	32824	32698	
2513	0	32800	32694	
2514	0	32780	32772	
2515	0	32768	32838	
2516	0	32812	32750	
2517	0	32856	32752	
2518	0	32808	32708	
2519	0	32832	32810	
2520	0	32830	32743	
2521	0	32848	32858	
2522	0	32798	32800	
2523	0	32868	32847	
2524	0	32772	32718	
2525	0	32756	32680	
2526	0	32854	32734	
2527	0	32844	32740	
2528	0	32750	32740	
2529	0	32814	32710	
2530	0	32768	32734	
2531	0	32764	32656	
2532	0	32780	32658	
2533	0	32824	32708	
2534	0	32782	32660	
2535	0	32750	32679	
2536	0	32740	32706	
2537	0	32844	32750	
2538	0	32842	32724	
2539	0	32849	32804	
2540	0	32816	32838	
2541	0	32804	32802	
2542	0	32816	32800	
2543	0	32864	32703	
2544	0	32824	32700	
2545	0	32756	32832	
2546	0	32822	32828	
2547	0	32768	32898	
2548	0	32752	32718	
2549	0	32808	32668	
2550	0	32804	32774	
2551	0	32800	32655	
2552	0	32804	32760	
2553	0	32804	32731	
2554	0	32812	32638	
2555	0	32800	32775	
2556	0	32856	32732	
2557	0	32844	32680	
2558	0	32832	32750	
2559	0	32798	32808	
2560	0	32794	32686	
2561	0	32776	32686	
2562	0	32832	32726	
2563	0	32806	32714	
2564	0	32836	32705	
2565	0	32868	32758	
2566	0	32756	32748	
2567	0	32796	32804	
2568	0	32792	32732	
2569	0	32840	32834	
2570	0	32784	32775	
2571	0	32824	32774	
2572	0	32772	32839	
2573	0	32840	32770	
2574	0	32824	32826	
2575	0	32814	32766	
2576	0	32834	32786	
2577	0	32800	32790	
2578	0	32872	32800	
2579	0	32860	32804	
2580	0	32858	32752	
2581	0	32774	32842	
2582	0	32756	32760	
2583	0	32852	32775	
2584	0	32758	32768	
2585	0	32830	32838	
2586	0	32780	32830	
2587	0	32824	32806	
2588	0	32788	32836	
2589	0	32820	32826	
2590	0	32840	32763	
2591	0	32850	32774	
2592	0	32832	32775	
2593	0	32864	32738	
2594	0	32848	32799	
2595	0	32780	32774	
2596	0	32856	32748	
2597	0	32764	32824	
2598	0	32792	32804	
2599	0	32820	32826	
2600	0	32820	32804	
2601	0	32850	32823	
2602	0	32820	32794	
2603	0	32778	32844	
2604	0	32832	32740	
2605	0	32760	32706	
2606	0	32848	32732	
2607	0	32820	32756	
2608	0	32842	32814	
2609	0	32836	32742	
2610	0	32828	32824	
2611	0	32826	32816	
2612	0	32800	32672	
2613	0	32785	32694	
2614	0	32888	32758	
2615	0	32760	32892	
2616	0	32778	32748	
2617	0	32752	32740	
2618	0	32786	32736	
2619	0	32848	32775	
2620	0	32828	32742	
2621	0	32820	32834	
2622	0	32816	32774	
2623	0	32816	32756	
2624	0	32752	32806	
2625	0	32834	32732	
2626	0	32865	32768	
2627	0	32854	32756	
2628	0	32898	32754	
2629	0	32816	32735	
2630	0	32804	32832	
2631	0	32798	32810	
2632	0	32808	32794	
2633	0	32796	32775	
2634	0	32796	32836	
2635	0	32780	32868	
2636	0	32824	32652	
2637	0	32784	32748	
2638	0	32820	32760	
2639	0	32752	32767	
2640	0	32896	32836	
2641	0	32856	32846	
2642	0	32768	32732	
2643	0	32762	32743	
2644	0	32952	32844	
2645	0	32896	32871	
2646	0	32918	32838	
2647	0	32906	32755	
2648	0	32870	32679	
2649	0	32928	32680	
2650	0	32868	32694	
2651	0	32850	32574	
2652	0	32844	32474	
2653	0	32804	32508	
2654	0	32832	32484	
2655	0	32856	32455	
2656	0	32844	32519	
2657	0	32836	32450	
2658	0	32888	32594	
2659	0	32848	32644	
2660	0	32834	32590	
2661	0	32828	32678	
2662	0	32772	32730	
2663	0	32790	32719	
2664	0	32789	32670	
2665	0	32836	32802	
2666	0	32752	33014	
2667	0	32688	33060	
2668	0	32684	33114	
2669	0	32582	33316	
2670	0	32648	33404	
2671	0	32534	33494	
2672	0	32482	33526	
2673	0	32588	33620	
2674	0	32652	33554	
2675	0	32656	33530	
2676	0	32636	33439	
2677	0	32668	33332	
2678	0	32720	33100	
2679	0	32800	32904	
2680	0	32788	32743	
2681	0	32856	32596	
2682	0	32874	32488	
2683	0	32920	32462	
2684	0	32888	32406	
2685	0	32898	32460	
2686	0	32912	32500	
2687	0	32904	32422	
2688	0	32888	32561	
2689	0	32888	32370	
2690	0	32864	32552	
2691	0	32896	32556	
2692	0	32924	32554	
2693	0	32874	32518	
2694	0	32854	32634	
2695	0	32880	32551	
2696	0	32896	32642	
2697	0	32892	32697	
2698	0	32914	32690	
2699	0	32932	32710	
2700	0	32904	32894	
2701	0	32944	32712	
2702	0	32858	32767	
2703	0	32836	32764	
2704	0	32852	32796	
2705	0	32778	32775	
2706	0	32896	32768	
2707	0	32866	32792	
2708	0	32804	32850	
2709	0	32882	32769	
2710	0	32836	32830	
2711	0	32760	32775	
2712	0	32832	32754	
2713	0	32744	32764	
2714	0	32792	32775	
2715	0	32768	32878	
2716	0	32740	32839	
2717	0	32776	32884	
2718	0	32768	32908	
2719	0	32816	32802	
2720	0	32830	32775	
2721	0	32804	32872	
2722	0	32780	32871	
2723	0	32790	32748	
2724	0	32852	32767	
2725	0	32748	32668	
2726	0	32780	32756	
2727	0	32804	32774	
2728	0	32836	32655	
2729	0	32894	32640	
2730	0	32824	32696	
2731	0	32814	32698	
2732	0	32744	32792	
2733	0	32784	32630	
2734	0	32772	32762	
2735	0	32820	32692	
2736	0	32804	32674	
2737	0	32838	32772	
2738	0	32856	32712	
2739	0	32836	32722	
2740	0	32900	32762	
2741	0	32796	32732	
2742	0	32720	32684	
2743	0	32804	32764	
2744	0	32808	32728	
2745	0	32808	32706	
2746	0	32800	32716	
2747	0	32836	32742	
2748	0	32839	32775	
2749	0	32816	32690	
2750	0	32864	32678	
2751	0	32808	32624	
2752	0	32750	32764	
2753	0	32844	32724	
2754	0	32786	32678	
2755	0	32814	32696	
2756	0	32864	32688	
2757	0	32788	32798	
2758	0	32758	32814	
2759	0	32872	32736	
2760	0	32790	32732	
2761	0	32806	32756	
2762	0	32784	32703	
2763	0	32748	32828	
2764	0	32808	32790	
2765	0	32820	32808	
2766	0	32820	32850	
2767	0	32884	32746	
2768	0	32746	32764	
2769	0	32752	32847	
2770	0	32812	32866	
2771	0	32788	32820	
2772	0	32848	32756	
2773	0	32816	32834	
2774	0	32824	32844	
2775	0	32798	32798	
2776	0	32820	32796	
2777	0	32868	32810	
2778	0	32724	32792	
2779	0	32812	32774	
2780	0	32872	32854	
2781	0	32792	32756	
2782	0	32856	32775	
2783	0	32872	32775	
2784	0	32792	32768	
2785	0	32812	32794	
2786	0	32802	32770	
2787	0	32738	32864	
2788	0	32852	32840	
2789	0	32844	32774	
2790	0	32796	32704	
2791	0	32804	32664	
2792	0	32760	32680	
2793	0	32844	32708	
2794	0	32856	32828	
2795	0	32860	32871	
2796	0	32828	32845	
2797	0	32872	32768	
2798	0	32842	32834	
2799	0	32748	32798	
2800	0	32856	32751	
2801	0	32832	32826	
2802	0	32824	32798	
2803	0	32788	32918	
2804	0	32802	32839	
2805	0	32814	32784	
2806	0	32816	32774	
2807	0	32820	32746	
2808	0	32860	32753	
2809	0	32780	32798	
2810	0	32810	32758	
2811	0	32784	32732	
2812	0	32752	32766	
2813	0	32816	32768	
2814	0	32850	32742	
2815	0	32800	32720	
2816	0	32822	32832	
2817	0	32808	32826	
2818	0	32796	32822	
2819	0	32802	32756	
2820	0	32824	32698	
2821	0	32820	32807	
2822	0	32756	32806	
2823	0	32842	32732	
2824	0	32862	32802	
2825	0	32808	32775	
2826	0	32796	32739	
2827	0	32744	32726	
2828	0	32802	32807	
2829	0	32800	32830	
2830	0	32792	32788	
2831	0	32840	32802	
2832	0	32864	32760	
2833	0	32830	32788	
2834	0	32852	32792	
2835	0	32904	32770	
2836	0	32860	32866	
2837	0	32828	32690	
2838	0	32804	32764	
2839	0	32796	32775	
2840	0	32866	32821	
2841	0	32812	32759	
2842	0	32836	32810	
2843	0	32728	32790	
2844	0	32832	32834	
2845	0	32788	32802	
2846	0	32852	32878	
2847	0	32814	32880	
2848	0	32792	32730	
2849	0	32884	32719	
2850	0	32818	32730	
2851	0	32792	32775	
2852	0	32836	32793	
2853	0	32782	32752	
2854	0	32796	32700	
2855	0	32806	32698	
2856	0	32810	32647	
2857	0	32838	32672	
2858	0	32856	32744	
2859	0	32844	32775	
2860	0	32808	32716	
2861	0	32808	32684	
2862	0	32788	32752	
2863	0	32754	32679	
2864	0	32836	32746	
2865	0	32852	32748	
2866	0	32866	32696	
2867	0	32780	32672	
2868	0	32756	32772	
2869	0	32833	32839	
2870	0	32860	32804	
2871	0	32804	32775	
2872	0	32780	32816	
2873	0	32802	32826	
2874	0	32860	32775	
2875	0	32710	32806	
2876	0	32788	32766	
2877	0	32808	32826	
2878	0	32808	32704	
2879	0	32844	32808	
2880	0	32816	32792	
2881	0	32858	32760	
2882	0	32824	32757	
2883	0	32782	32762	
2884	0	32816	32786	
2885	0	32824	32864	
2886	0	32816	32800	
2887	0	32784	32839	
2888	0	32796	32764	
2889	0	32760	32804	
2890	0	32796	32871	
2891	0	32808	32718	
2892	0	32822	32754	
2893	0	32816	32762	
2894	0	32764	32844	
2895	0	32768	32764	
2896	0	32836	32768	
2897	0	32730	32848	
2898	0	32796	32794	
2899	0	32816	32882	
2900	0	32828	32890	
2901	0	32798	32817	
2902	0	32820	32801	
2903	0	32796	32802	
2904	0	32816	32775	
2905	0	32792	32758	
2906	0	32816	32790	
2907	0	32772	32729	
2908	0	32820	32824	
2909	0	32810	32870	
2910	0	32824	32819	
2911	0	32878	32847	
2912	0	32864	32710	
2913	0	32828	32738	
2914	0	32838	32711	
2915	0	32729	32705	
2916	0	32844	32728	
2917	0	32756	32710	
2918	0	32788	32860	
2919	0	32762	32804	
2920	0	32792	32799	
2921	0	32776	32812	
2922	0	32808	32788	
2923	0	32856	32736	
2924	0	32844	32814	
2925	0	32864	32798	
2926	0	32772	32676	
2927	0	32804	32742	
2928	0	32784	32775	
2929	0	32826	32728	
2930	0	32844	32772	
2931	0	32760	32807	
2932	0	32828	32810	
2933	0	32840	32786	
2934	0	32872	32670	
2935	0	32844	32662	
2936	0	32854	32676	
2937	0	32788	32738	
2938	0	32790	32758	
2939	0	32816	32644	
2940	0	32744	32714	
2941	0	32820	32644	
2942	0	32792	32748	
2943	0	32838	32678	
2944	0	32836	32766	
2945	0	32852	32700	
2946	0	32782	32748	
2947	0	32860	32738	
2948	0	32810	32762	
2949	0	32792	32775	
2950	0	32782	32766	
2951	0	32824	32714	
2952	0	32824	32696	
2953	0	32858	32826	
2954	0	32804	32766	
2955	0	32742	32808	
2956	0	32780	32772	
2957	0	32904	32816	
2958	0	32776	32890	
2959	0	32792	32824	
2960	0	32864	32807	
2961	0	32832	32814	
2962	0	32856	32823	
2963	0	32840	32798	
2964	0	32828	32806	
2965	0	32760	32850	
2966	0	32836	32790	
2967	0	32840	32764	
2968	0	32824	32714	
2969	0	32888	32766	
2970	0	32800	32682	
2971	0	32876	32714	
2972	0	32768	32712	
2973	0	32788	32678	
2974	0	32772	32690	
2975	0	32844	32672	
2976	0	32736	32718	
2977	0	32806	32706	
2978	0	32804	32807	
2979	0	32756	32902	
2980	0	32796	32847	
2981	0	32820	32812	
2982	0	32842	32871	
2983	0	32816	32820	
2984	0	32828	32789	
2985	0	32834	32804	
2986	0	32830	32766	
2987	0	32824	32828	
2988	0	32762	32812	
2989	0	32776	32745	
2990	0	32832	32744	
2991	0	32848	32710	
2992	0	32816	32743	
2993	0	32820	32807	
2994	0	32772	32823	
2995	0	32752	32774	
2996	0	32794	32792	
2997	0	32760	32738	
2998	0	32852	32812	
2999	0	32858	32796	
3000	0	32832	32862	
3001	0	32804	32913	
3002	0	32804	32775	
3003	0	32838	32820	
3004	0	32732	32788	
3005	0	32784	32775	
3006	0	32754	32745	
3007	0	32834	32808	
3008	0	32824	32764	
3009	0	32780	32786	
3010	0	32776	32732	
3011	0	32806	32894	
3012	0	32858	32896	
3013	0	32776	32690	
3014	0	32852	32702	
3015	0	32838	32730	
3016	0	32830	32724	
3017	0	32828	32837	
3018	0	32692	32850	
3019	0	32820	32895	
3020	0	32852	32820	
3021	0	32784	32676	
3022	0	32808	32748	
3023	0	32814	32714	
3024	0	32812	32888	
3025	0	32844	32710	
3026	0	32812	32833	
3027	0	32872	32798	
3028	0	32826	32720	
3029	0	32856	32732	
3030	0	32824	32726	
3031	0	32746	32838	
3032	0	32832	32712	
3033	0	32768	32807	
3034	0	32816	32806	
3035	0	32776	32873	
3036	0	32820	32764	
3037	0	32812	32871	
3038	0	32784	32790	
3039	0	32830	32772	
3040	0	32806	32834	
3041	0	32808	32792	
3042	0	32776	32758	
3043	0	32836	32680	
3044	0	32832	32726	
3045	0	32864	32682	
3046	0	32840	32770	
3047	0	32814	32638	
3048	0	32752	32679	
3049	0	32794	32686	
3050	0	32848	32682	
3051	0	32860	32840	
3052	0	32802	32758	
3053	0	32800	32708	
3054	0	32808	32702	
3055	0	32828	32810	
3056	0	32808	32860	
3057	0	32768	32798	
3058	0	32828	32714	
3059	0	32796	32722	
3060	0	32782	32842	
3061	0	32890	32820	
3062	0	32832	32738	
3063	0	32878	32798	
3064	0	32756	32790	
3065	0	32810	32775	
3066	0	32840	32740	
3067	0	32828	32822	
3068	0	32780	32842	
3069	0	32772	32801	
3070	0	32810	32704	
3071	0	32794	32738	
3072	0	32768	32692	
3073	0	32826	32704	
3074	0	32842	32732	
3075	0	32804	32719	
3076	0	32840	32716	
3077	0	32834	32690	
3078	0	32840	32710	
3079	0	32814	32828	
3080	0	32816	32860	
3081	0	32754	32852	
3082	0	32830	32800	
3083	0	32802	32751	
3084	0	32801	32830	
3085	0	32820	32826	
3086	0	32876	32759	
3087	0	32838	32670	
3088	0	32806	32705	
3089	0	32792	32736	
3090	0	32758	32661	
3091	0	32786	32670	
3092	0	32804	32646	
3093	0	32808	32726	
3094	0	32812	32724	
3095	0	32852	32802	
3096	0	32816	32804	
3097	0	32814	32806	
3098	0	32816	32734	
3099	0	32840	32844	
3100	0	32776	32800	
3101	0	32872	32844	
3102	0	32832	32894	
3103	0	32761	32798	
3104	0	32754	32640	
3105	0	32900	32722	
3106	0	32748	32720	
3107	0	32776	32668	
3108	0	32792	32793	
3109	0	32814	32736	
3110	0	32812	32710	
3111	0	32824	32746	
3112	0	32784	32664	
3113	0	32812	32718	
3114	0	32800	32714	
3115	0	32826	32704	
3116	0	32804	32724	
3117	0	32876	32751	
3118	0	32808	32870	
3119	0	32844	32750	
3120	0	32808	32711	
3121	0	32810	32800	
3122	0	32808	32806	
3123	0	32812	32820	
3124	0	32812	32742	
3125	0	32764	32808	
3126	0	32802	32756	
3127	0	32776	32818	
3128	0	32764	32788	
3129	0	32874	32748	
3130	0	32800	32816	
3131	0	32814	32726	
3132	0	32820	32724	
3133	0	32814	32775	
3134	0	32784	32732	
3135	0	32844	32766	
3136	0	32768	32792	
3137	0	32824	32704	
3138	0	32816	32710	
3139	0	32846	32802	
3140	0	32812	32764	
3141	0	32804	32775	
3142	0	32732	32828	
3143	0	32820	32798	
3144	0	32824	32884	
3145	0	32876	32746	
3146	0	32812	32775	
3147	0	32800	32737	
3148	0	32796	32839	
3149	0	32768	32765	
3150	0	32850	32812	
3151	0	32896	32766	
3152	0	32828	32734	
3153	0	32768	32790	
3154	0	32834	32855	
3155	0	32828	32768	
3156	0	32828	32702	
3157	0	32820	32818	
3158	0	32740	32863	
3159	0	32870	32775	
3160	0	32842	32796	
3161	0	32780	32794	
3162	0	32884	32892	
3163	0	32804	32810	
3164	0	32788	32786	
3165	0	32808	32759	
3166	0	32782	32903	
3167	0	32816	32830	
3168	0	32810	32775	
3169	0	32836	32820	
3170	0	32832	32846	
3171	0	32810	32770	
3172	0	32748	32775	
3173	0	32824	32775	
3174	0	32816	32806	
3175	0	32828	32734	
3176	0	32842	32682	
3177	0	32794	32684	
3178	0	32800	32692	
3179	0	32784	32689	
3180	0	32804	32742	
3181	0	32912	32791	
3182	0	32806	32770	
3183	0	32790	32820	
3184	0	32812	32818	
3185	0	32784	32839	
3186	0	32860	32743	
3187	0	32788	32726	
3188	0	32837	32718	
3189	0	32812	32775	
3190	0	32776	32679	
3191	0	32864	32708	
3192	0	32880	32682	
3193	0	32846	32742	
3194	0	32800	32804	
3195	0	32824	32729	
3196	0	32816	32806	
3197	0	32856	32806	
3198	0	32774	32724	
3199	0	32810	32800	
3200	0	32828	32823	
3201	0	32758	32870	
3202	0	32808	32818	
3203	0	32772	32830	
3204	0	32828	32775	
3205	0	32836	32663	
3206	0	32776	32703	
3207	0	32856	32711	
3208	0	32790	32749	
3209	0	32816	32654	
3210	0	32824	32715	
3211	0	32793	32842	
3212	0	32788	32812	
3213	0	32818	32848	
3214	0	32856	32772	
3215	0	32808	32700	
3216	0	32744	32808	
3217	0	32838	32718	
3218	0	32824	32766	
3219	0	32790	32775	
3220	0	32808	32816	
3221	0	32784	32684	
3222	0	32784	32794	
3223	0	32796	32756	
3224	0	32876	32802	
3225	0	32768	32760	
3226	0	32796	32828	
3227	0	32798	32826	
3228	0	32808	32816	
3229	0	32816	32760	
3230	0	32788	32736	
3231	0	32772	32772	
3232	0	32798	32718	
3233	0	32776	32676	
3234	0	32816	32778	
3235	0	32836	32743	
3236	0	32860	32738	
3237	0	32788	32820	
3238	0	32724	32850	
3239	0	32784	32811	
3240	0	32820	32775	
3241	0	32864	32916	
3242	0	32800	32735	
3243	0	32832	32804	
3244	0	32775	32876	
3245	0	32868	32862	
3246	0	32816	32793	
3247	0	32800	32820	
3248	0	32826	32775	
3249	0	32868	32771	
3250	0	32808	32673	
3251	0	32812	32758	
3252	0	32760	32840	
3253	0	32840	32796	
3254	0	32804	32788	
3255	0	32796	32682	
3256	0	32840	32768	
3257	0	32884	32838	
3258	0	32860	32806	
3259	0	32784	32812	
3260	0	32756	32798	
3261	0	32820	32798	
3262	0	32832	32772	
3263	0	32840	32772	
3264	0	32814	32734	
3265	0	32780	32734	
3266	0	32868	32758	
3267	0	32786	32848	
3268	0	32834	32836	
3269	0	32766	32775	
3270	0	32804	32738	
3271	0	32824	32716	
3272	0	32816	32615	
3273	0	32792	32666	
3274	0	32724	32775	
3275	0	32832	32682	
3276	0	32840	32662	
3277	0	32784	32664	
3278	0	32812	32741	
3279	0	32804	32708	
3280	0	32832	32734	
3281	0	32808	32732	
3282	0	32836	32690	
3283	0	32784	32702	
3284	0	32842	32784	
3285	0	32804	32834	
3286	0	32804	32722	
3287	0	32846	32788	
3288	0	32836	32784	
3289	0	32836	32750	
3290	0	32884	32760	
3291	0	32844	32826	
3292	0	32798	32724	
3293	0	32804	32830	
3294	0	32768	32802	
3295	0	32856	32849	
3296	0	32732	32810	
3297	0	32844	32836	
3298	0	32816	32730	
3299	0	32772	32718	
3300	0	32812	32658	
3301	0	32786	32719	
3302	0	32800	32764	
3303	0	32792	32763	
3304	0	32752	32668	
3305	0	32780	32746	
3306	0	32756	32710	
3307	0	32840	32734	
3308	0	32870	32714	
3309	0	32841	32676	
3310	0	32852	32769	
3311	0	32776	32820	
3312	0	32816	32854	
3313	0	32820	32852	
3314	0	32784	32775	
3315	0	32888	32800	
3316	0	32776	32736	
3317	0	32824	32764	
3318	0	32824	32796	
3319	0	32820	32816	
3320	0	32860	32856	
3321	0	32884	32788	
3322	0	32820	32786	
3323	0	32840	32774	
3324	0	32924	32676	
3325	0	32864	32692	
3326	0	32914	32598	
3327	0	32898	32668	
3328	0	32916	32556	
3329	0	32844	32534	
3330	0	32894	32494	
3331	0	32888	32542	
3332	0	32868	32572	
3333	0	32780	32570	
3334	0	32784	32511	
3335	0	32812	32494	
3336	0	32856	32494	
3337	0	32828	32626	
3338	0	32828	32647	
3339	0	32814	32600	
3340	0	32860	32676	
3341	0	32780	32766	
3342	0	32704	32696	
3343	0	32744	32816	
3344	0	32738	33044	
3345	0	32660	33213	
3346	0	32730	33252	
3347	0	32608	33383	
3348	0	32536	33350	
3349	0	32528	33474	
3350	0	32540	33564	
3351	0	32560	33527	
3352	0	32588	33498	
3353	0	32638	33396	
3354	0	32628	33415	
3355	0	32762	33183	
3356	0	32740	33066	
3357	0	32870	32828	
3358	0	32860	32684	
3359	0	32864	32616	
3360	0	32840	32452	
3361	0	32920	32428	
3362	0	32912	32262	
3363	0	32938	32320	
3364	0	32932	32460	
3365	0	32946	32430	
3366	0	32916	32460	
3367	0	32916	32496	
3368	0	32860	32504	
3369	0	32868	32519	
3370	0	32918	32464	
3371	0	32866	32656	
3372	0	32856	32596	
3373	0	32853	32670	
3374	0	32836	32702	
3375	0	32834	32692	
3376	0	32880	32732	
3377	0	32924	32760	
3378	0	32810	32788	
3379	0	32864	32746	
3380	0	32920	32740	
3381	0	32892	32772	
3382	0	32892	32666	
3383	0	32874	32740	
3384	0	32842	32686	
3385	0	32806	32706	
3386	0	32856	32698	
3387	0	32845	32775	
3388	0	32870	32736	
3389	0	32778	32726	
3390	0	32858	32762	
3391	0	32794	32740	
3392	0	32740	32876	
3393	0	32788	32772	
3394	0	32872	32828	
3395	0	32750	32794	
3396	0	32760	32850	
3397	0	32728	32854	
3398	0	32788	32834	
3399	0	32744	32817	
3400	0	32764	32852	
3401	0	32820	32844	
3402	0	32764	32775	
3403	0	32764	32775	
3404	0	32744	32800	
3405	0	32832	32816	
3406	0	32744	32846	
3407	0	32752	32814	
3408	0	32742	32708	
3409	0	32812	32744	
3410	0	32848	32766	
3411	0	32836	32728	
3412	0	32808	32743	
3413	0	32864	32723	
3414	0	32826	32743	
3415	0	32834	32708	
3416	0	32858	32674	
3417	0	32804	32656	
3418	0	32788	32740	
3419	0	32806	32746	
3420	0	32844	32664	
3421	0	32820	32782	
3422	0	32774	32788	
3423	0	32800	32846	
3424	0	32844	32884	
3425	0	32802	32870	
3426	0	32820	32807	
3427	0	32824	32809	
3428	0	32816	32750	
3429	0	32792	32775	
3430	0	32804	32734	
3431	0	32820	32760	
3432	0	32828	32810	
3433	0	32760	32791	
3434	0	32772	32800	
3435	0	32764	32766	
3436	0	32812	32839	
3437	0	32754	32828	
3438	0	32782	32807	
3439	0	32788	32682	
3440	0	32908	32640	
3441	0	32784	32802	
3442	0	32738	32678	
3443	0	32830	32708	
3444	0	32812	32855	
3445	0	32854	32870	
3446	0	32768	32838	
3447	0	32802	32788	
3448	0	32762	32792	
3449	0	32856	32720	
3450	0	32836	32736	
3451	0	32804	32734	
3452	0	32764	32742	
3453	0	32865	32848	
3454	0	32772	32828	
3455	0	32802	32714	
3456	0	32828	32687	
3457	0	32868	32740	
3458	0	32868	32814	
3459	0	32856	32834	
3460	0	32772	32796	
3461	0	32776	32702	
3462	0	32878	32794	
3463	0	32828	32839	
3464	0	32824	32843	
3465	0	32808	32700	
3466	0	32808	32662	
3467	0	32746	32684	
3468	0	32772	32771	
3469	0	32824	32824	
3470	0	32868	32792	
3471	0	32800	32775	
3472	0	32810	32748	
3473	0	32774	32798	
3474	0	32824	32808	
3475	0	32816	32844	
3476	0	32796	32708	
3477	0	32818	32710	
3478	0	32816	32626	
3479	0	32788	32721	
3480	0	32784	32804	
3481	0	32792	32866	
3482	0	32856	32769	
3483	0	32878	32816	
3484	0	32808	32756	
3485	0	32716	32764	
3486	0	32816	32743	
3487	0	32868	32775	
3488	0	32804	32762	
3489	0	32784	32860	
3490	0	32857	32796	
3491	0	32790	32732	
3492	0	32828	32750	
3493	0	32816	32726	
3494	0	32758	32716	
3495	0	32756	32730	
3496	0	32784	32682	
3497	0	32732	32718	
3498	0	32776	32714	
3499	0	32864	32794	
3500	0	32840	32775	
3501	0	32844	32762	
3502	0	32840	32759	
3503	0	32868	32734	
3504	0	32816	32718	
3505	0	32892	32682	
3506	0	32816	32738	
3507	0	32824	32686	
3508	0	32740	32680	
3509	0	32836	32726	
3510	0	32800	32684	
3511	0	32814	32766	
3512	0	32836	32774	
3513	0	32804	32772	
3514	0	32836	32838	
3515	0	32798	32860	
3516	0	32820	32874	
3517	0	32820	32736	
3518	0	32810	32668	
3519	0	32780	32718	
3520	0	32864	32740	
3521	0	32772	32802	
3522	0	32852	32828	
3523	0	32844	32762	
3524	0	32816	32729	
3525	0	32812	32734	
3526	0	32820	32752	
3527	0	32824	32693	
3528	0	32870	32696	
3529	0	32784	32644	
3530	0	32764	32734	
3531	0	32775	32774	
3532	0	32740	32730	
3533	0	32750	32702	
3534	0	32814	32740	
3535	0	32790	32716	
3536	0	32824	32678	
3537	0	32826	32775	
3538	0	32810	32790	
3539	0	32868	32762	
3540	0	32840	32750	
3541	0	32836	32706	
3542	0	32800	32706	
3543	0	32780	32711	
3544	0	32854	32790	
3545	0	32808	32872	
3546	0	32736	32840	
3547	0	32816	32836	
3548	0	32804	32838	
3549	0	32852	32826	
3550	0	32854	32704	
3551	0	32800	32740	
3552	0	32756	32768	
3553	0	32800	32750	
3554	0	32856	32796	
3555	0	32798	32672	
3556	0	32824	32752	
3557	0	32822	32724	
3558	0	32816	32804	
3559	0	32836	32738	
3560	0	32844	32853	
3561	0	32892	32802	
3562	0	32769	32732	
3563	0	32804	32760	
3564	0	32836	32820	
3565	0	32780	32817	
3566	0	32768	32794	
3567	0	32772	32672	
3568	0	32784	32666	
3569	0	32782	32664	
3570	0	32826	32716	
3571	0	32808	32742	
3572	0	32832	32808	
3573	0	32804	32700	
3574	0	32828	32676	
3575	0	32744	32740	
3576	0	32780	32636	
3577	0	32774	32656	
3578	0	32788	32703	
3579	0	32782	32654	
3580	0	32801	32899	
3581	0	32824	32796	
3582	0	32808	32772	
3583	0	32836	32759	
3584	0	32860	32877	
3585	0	32828	32732	
3586	0	32832	32708	
3587	0	32802	32796	
3588	0	32730	32794	
3589	0	32762	32802	
3590	0	32804	32854	
3591	0	32780	32799	
3592	0	32792	32862	
3593	0	32810	32734	
3594	0	32766	32738	
3595	0	32804	32854	
3596	0	32792	32750	
3597	0	32804	32639	
3598	0	32800	32754	
3599	0	32806	32676	
3600	0	32830	32808	
3601	0	32852	32796	
3602	0	32842	32666	
3603	0	32836	32816	
3604	0	32768	32848	
3605	0	32792	32804	
3606	0	32836	32836	
3607	0	32836	32768	
3608	0	32840	32660	
3609	0	32828	32727	
3610	0	32766	32740	
3611	0	32808	32863	
3612	0	32748	32774	
3613	0	32784	32770	
3614	0	32854	32727	
3615	0	32844	32810	
3616	0	32796	32834	
3617	0	32808	32822	
3618	0	32824	32734	
3619	0	32828	32663	
3620	0	32858	32800	
3621	0	32900	32888	
3622	0	32834	32802	
3623	0	32780	32824	
3624	0	32792	32716	
3625	0	32872	32742	
3626	0	32768	32790	
3627	0	32818	32735	
3628	0	32840	32610	
3629	0	32840	32672	
3630	0	32798	32704	
3631	0	32854	32666	
3632	0	32796	32734	
3633	0	32832	32671	
3634	0	32778	32740	
3635	0	32802	32718	
3636	0	32840	32836	
3637	0	32832	32764	
3638	0	32816	32766	
3639	0	32880	32808	
3640	0	32792	32820	
3641	0	32744	32880	
3642	0	32848	32790	
3643	0	32770	32772	
3644	0	32868	32810	
3645	0	32790	32804	
3646	0	32844	32815	
3647	0	32800	32794	
3648	0	32840	32804	
3649	0	32792	32711	
3650	0	32852	32719	
3651	0	32856	32632	
3652	0	32862	32772	
3653	0	32766	32800	
3654	0	32768	32810	
3655	0	32801	32711	
3656	0	32848	32775	
3657	0	32880	32848	
3658	0	32864	32771	
3659	0	32824	32764	
3660	0	32748	32775	
3661	0	32784	32800	
3662	0	32784	32828	
3663	0	32828	32836	
3664	0	32828	32806	
3665	0	32842	32836	
3666	0	32848	32775	
3667	0	32828	32864	
3668	0	32866	32838	
3669	0	32818	32850	
3670	0	32828	32774	
3671	0	32816	32720	
3672	0	32806	32843	
3673	0	32830	32828	
3674	0	32840	32828	
3675	0	32788	32775	
3676	0	32810	32804	
3677	0	32824	32678	
3678	0	32796	32679	
3679	0	32848	32724	
3680	0	32824	32700	
3681	0	32820	32656	
3682	0	32784	32687	
3683	0	32742	32854	
3684	0	32864	32820	
3685	0	32784	32775	
3686	0	32772	32870	
3687	0	32792	32823	
3688	0	32774	32730	
3689	0	32788	32818	
3690	0	32748	32746	
3691	0	32778	32820	
3692	0	32840	32775	
3693	0	32868	32820	
3694	0	32840	32817	
3695	0	32810	32874	
3696	0	32794	32798	
3697	0	32780	32710	
3698	0	32796	32796	
3699	0	32804	32742	
3700	0	32808	32738	
3701	0	32787	32708	
3702	0	32876	32736	
3703	0	32844	32667	
3704	0	32828	32702	
3705	0	32846	32876	
3706	0	32756	32796	
3707	0	32868	32790	
3708	0	32805	32807	
3709	0	32800	32814	
3710	0	32828	32824	
3711	0	32814	32736	
3712	0	32842	32878	
3713	0	32820	32743	
3714	0	32768	32803	
3715	0	32784	32746	
3716	0	32796	32716	
3717	0	32840	32596	
3718	0	32808	32706	
3719	0	32772	32699	
3720	0	32816	32862	
3721	0	32844	32750	
3722	0	32820	32790	
3723	0	32828	32814	
3724	0	32752	32830	
3725	0	32792	32852	
3726	0	32788	32748	
3727	0	32772	32772	
3728	0	32754	32817	
3729	0	32844	32748	
3730	0	32792	32812	
3731	0	32846	32807	
3732	0	32838	32814	
3733	0	32812	32799	
3734	0	32836	32818	
3735	0	32740	32806	
3736	0	32836	32668	
3737	0	32868	32670	
3738	0	32848	32756	
3739	0	32828	32756	
3740	0	32792	32846	
3741	0	32828	32700	
3742	0	32860	32775	
3743	0	32764	32770	
3744	0	32792	32768	
3745	0	32756	32764	
3746	0	32786	32772	
3747	0	32764	32775	
3748	0	32860	32775	
3749	0	32820	32738	
3750	0	32725	32754	
3751	0	32846	32742	
3752	0	32838	32764	
3753	0	32802	32835	
3754	0	32856	32830	
3755	0	32820	32788	
3756	0	32810	32882	
3757	0	32774	32770	
3758	0	32774	32750	
3759	0	32798	32732	
3760	0	32852	32818	
3761	0	32798	32718	
3762	0	32864	32708	
3763	0	32816	32769	
3764	0	32822	32852	
3765	0	32834	32766	
3766	0	32766	32788	
3767	0	32798	32754	
3768	0	32816	32732	
3769	0	32842	32680	
3770	0	32812	32742	
3771	0	32760	32868	
3772	0	32808	32750	
3773	0	32806	32756	
3774	0	32832	32736	
3775	0	32848	32735	
3776	0	32788	32804	
3777	0	32794	32758	
3778	0	32752	32738	
3779	0	32770	32796	
3780	0	32782	32775	
3781	0	32844	32740	
3782	0	32854	32736	
3783	0	32864	32696	
3784	0	32812	32834	
3785	0	32760	32828	
3786	0	32856	32786	
3787	0	32824	32828	
3788	0	32808	32775	
3789	0	32814	32794	
3790	0	32832	32806	
3791	0	32832	32824	
3792	0	32880	32830	
3793	0	32848	32830	
3794	0	32804	32775	
3795	0	32868	32788	
3796	0	32832	32842	
3797	0	32730	32840	
3798	0	32778	32880	
3799	0	32832	32780	
3800	0	32806	32744	
3801	0	32816	32794	
3802	0	32856	32734	
3803	0	32830	32775	
3804	0	32782	32800	
3805	0	32864	32802	
3806	0	32806	32756	
3807	0	32840	32852	
3808	0	32852	32775	
3809	0	32858	32852	
3810	0	32814	32830	
3811	0	32864	32800	
3812	0	32828	32880	
3813	0	32928	32847	
3814	0	32820	32794	
3815	0	32770	32691	
3816	0	32782	32687	
3817	0	32784	32696	
3818	0	32802	32694	
3819	0	32804	32742	
3820	0	32784	32734	
3821	0	32768	32710	
3822	0	32748	32660	
3823	0	32826	32655	
3824	0	32840	32738	
3825	0	32764	32758	
3826	0	32852	32812	
3827	0	32822	32900	
3828	0	32804	32926	
3829	0	32768	32758	
3830	0	32744	32790	
3831	0	32772	32802	
3832	0	32804	32844	
3833	0	32848	32876	
3834	0	32788	32775	
3835	0	32804	32816	
3836	0	32780	32692	
3837	0	32826	32788	
3838	0	32852	32812	
3839	0	32796	32718	
3840	0	32816	32732	
3841	0	32788	32775	
3842	0	32740	32730	
3843	0	32854	32790	
3844	0	32848	32848	
3845	0	32838	32836	
3846	0	32842	32828	
3847	0	32828	32636	
3848	0	32782	32663	
3849	0	32844	32756	
3850	0	32800	32855	
3851	0	32804	32860	
3852	0	32908	32794	
3853	0	32798	32830	
3854	0	32780	32716	
3855	0	32840	32800	
3856	0	32878	32814	
3857	0	32744	32775	
3858	0	32872	32775	
3859	0	32854	32794	
3860	0	32836	32802	
3861	0	32800	32764	
3862	0	32754	32754	
3863	0	32750	32750	
3864	0	32856	32768	
3865	0	32768	32822	
3866	0	32824	32860	
3867	0	32896	32775	
3868	0	32812	32802	
3869	0	32840	32751	
3870	0	32832	32756	
3871	0	32840	32770	
3872	0	32849	32764	
3873	0	32810	32814	
3874	0	32768	32743	
3875	0	32846	32668	
3876	0	32778	32743	
3877	0	32808	32750	
3878	0	32746	32775	
3879	0	32825	32758	
3880	0	32822	32818	
3881	0	32804	32858	
3882	0	32792	32792	
3883	0	32858	32837	
3884	0	32832	32814	
3885	0	32772	32775	
3886	0	32804	32810	
3887	0	32828	32764	
3888	0	32800	32743	
3889	0	32804	32711	
3890	0	32804	32803	
3891	0	32788	32647	
3892	0	32810	32790	
3893	0	32828	32748	
3894	0	32788	32740	
3895	0	32816	32734	
3896	0	32825	32734	
3897	0	32780	32783	
3898	0	32796	32766	
3899	0	32836	32752	
3900	0	32804	32756	
3901	0	32820	32750	
3902	0	32812	32823	
3903	0	32744	32866	
3904	0	32804	32814	
3905	0	32804	32676	
3906	0	32772	32704	
3907	0	32838	32734	
3908	0	32816	32735	
3909	0	32796	32826	
3910	0	32736	32845	
3911	0	32824	32822	
3912	0	32780	32812	
3913	0	32796	32736	
3914	0	32798	32735	
3915	0	32816	32775	
3916	0	32864	32775	
3917	0	32886	32816	
3918	0	32926	32844	
3919	0	32839	32854	
3920	0	32828	32804	
3921	0	32780	32774	
3922	0	32820	32762	
3923	0	32784	32838	
3924	0	32804	32848	
3925	0	32792	32692	
3926	0	32804	32694	
3927	0	32828	32743	
3928	0	32852	32775	
3929	0	32832	32692	
3930	0	32832	32824	
3931	0	32772	32836	
3932	0	32800	32789	
3933	0	32784	32903	
3934	0	32810	32790	
3935	0	32830	32720	
3936	0	32792	32736	
3937	0	32836	32754	
3938	0	32868	32758	
3939	0	32772	32718	
3940	0	32812	32799	
3941	0	32848	32774	
3942	0	32788	32700	
3943	0	32862	32710	
3944	0	32854	32695	
3945	0	32826	32820	
3946	0	32704	32832	
3947	0	32808	32752	
3948	0	32766	32819	
3949	0	32876	32839	
3950	0	32828	32684	
3951	0	32822	32704	
3952	0	32806	32660	
3953	0	32824	32687	
3954	0	32812	32698	
3955	0	32718	32756	
3956	0	32802	32734	
3957	0	32816	32690	
3958	0	32840	32802	
3959	0	32802	32760	
3960	0	32800	32842	
3961	0	32856	32860	
3962	0	32784	32866	
3963	0	32818	32882	
3964	0	32884	32796	
3965	0	32826	32748	
3966	0	32730	32824	
3967	0	32840	32817	
3968	0	32785	32772	
3969	0	32822	32828	
3970	0	32768	32768	
3971	0	32768	32759	
3972	0	32812	32742	
3973	0	32824	32710	
3974	0	32852	32668	
3975	0	32788	32714	
3976	0	32828	32774	
3977	0	32854	32772	
3978	0	32858	32792	
3979	0	32836	32774	
3980	0	32696	32775	
3981	0	32800	32767	
3982	0	32846	32832	
3983	0	32884	32887	
3984	0	32840	32862	
3985	0	32808	32888	
3986	0	32848	32839	
3987	0	32762	32775	
3988	0	32817	32670	
3989	0	32896	32772	
3990	0	32772	32800	
3991	0	32824	32775	
3992	0	32804	32758	
3993	0	32760	32808	
3994	0	32772	32723	
3995	0	32778	32774	
3996	0	32920	32743	
3997	0	32864	32743	
3998	0	32884	32784	
3999	0	32858	32752	
4000	0	32844	32706	
4001	0	32850	32679	
4002	0	32948	32618	
4003	0	32970	32519	
4004	0	32916	32484	
4005	0	32918	32494	
4006	0	32916	32574	
4007	0	32920	32546	
4008	0	32820	32671	
4009	0	32844	32674	
4010	0	32784	32596	
4011	0	32846	32640	
4012	0	32864	32618	
4013	0	32844	32682	
4014	0	32832	32740	
4015	0	32804	32800	
4016	0	32766	32786	
4017	0	32726	32916	
4018	0	32654	32876	
4019	0	32828	32944	
4020	0	32824	32868	
4021	0	32576	32935	
4022	0	32576	33022	
4023	0	32582	33163	
4024	0	32496	33208	
4025	0	32554	33384	
4026	0	32568	33552	
4027	0	32534	33569	
4028	0	32532	33624	
4029	0	32628	33446	
4030	0	32832	33238	
4031	0	32840	33062	
4032	0	32816	33007	
4033	0	32930	32946	
4034	0	32890	32811	
4035	0	32972	32676	
4036	0	32916	32404	
4037	0	33016	32258	
4038	0	32916	32310	
4039	0	32948	32359	
4040	0	32932	32310	
4041	0	32848	32430	
4042	0	32896	32412	
4043	0	32904	32480	
4044	0	32936	32400	
4045	0	32834	32364	
4046	0	32816	32369	
4047	0	32918	32398	
4048	0	32800	32504	
4049	0	32858	32519	
4050	0	32840	32774	
4051	0	32901	32764	
4052	0	32808	32895	
4053	0	32830	32775	
4054	0	32834	32838	
4055	0	32924	32903	
4056	0	32872	32903	
4057	0	32868	32790	
4058	0	32912	32740	
4059	0	32880	32706	
4060	0	32886	32714	
4061	0	32832	32785	
4062	0	32824	32838	
4063	0	32828	32862	
4064	0	32716	32775	
4065	0	32784	32784	
4066	0	32788	32854	
4067	0	32768	32730	
4068	0	32860	32808	
4069	0	32800	32774	
4070	0	32821	32607	
4071	0	32774	32791	
4072	0	32702	32742	
4073	0	32772	32690	
4074	0	32756	32704	
4075	0	32808	32710	
4076	0	32794	32772	
4077	0	32872	32879	
4078	0	32812	32820	
4079	0	32897	32636	
4080	0	32956	32750	
4081	0	32752	32832	
4082	0	32706	32868	
4083	0	32724	32858	
4084	0	32730	32830	
4085	0	32872	32886	
4086	0	32842	32892	
4087	0	32876	32882	
4088	0	32908	32726	
4089	0	32856	32712	
4090	0	32656	32626	
4091	0	32732	32501	
4092	0	32760	32540	
4093	0	32734	32492	
4094	0	32796	32519	
4095	0	32756	32692	
4096	0	32848	32644	
4097	0	32752	32679	
4098	0	32716	32854	
4099	0	32768	32846	
4100	0	32784	32992	
4101	0	32912	32924	
4102	0	32912	33162	
4103	0	32800	33200	
4104	0	32736	33110	
4105	0	32896	33031	
4106	0	32884	33031	
4107	0	32908	32817	
4108	0	32872	32596	
4109	0	32806	32540	
4110	0	32890	32286	
4111	0	32948	32288	
4112	0	32848	32358	
4113	0	32760	32448	
4114	0	32764	32572	
4115	0	32812	32810	
4116	0	32724	32862	
4117	0	32808	32748	
4118	0	32696	32764	
4119	0	32640	32699	
4120	0	32798	32832	
4121	0	32656	32876	
4122	0	32696	32948	
4123	0	32694	32890	
4124	0	32800	32862	
4125	0	32720	32938	
4126	0	32774	32940	
4127	0	32876	32924	
4128	0	32804	32956	
4129	0	32884	33014	
4130	0	32849	32858	
4131	0	32992	32830	
4132	0	32994	32928	
4133	0	32840	33010	
4134	0	32754	32849	
4135	0	33144	32798	
4136	0	32724	32742	
4137	0	32968	32560	
4138	0	32976	32634	
4139	0	32790	32662	
4140	0	32670	32688	
4141	0	32688	32670	
4142	0	32820	32628	
4143	0	32700	32583	
4144	0	32736	32730	
4145	0	32804	32630	
4146	0	32802	32655	
4147	0	32732	32804	
4148	0	32774	33004	
4149	0	32796	32834	
4150	0	32852	32639	
4151	0	32760	32654	
4152	0	32708	32684	
4153	0	32812	32718	
4154	0	32840	32684	
4155	0	32836	32740	
4156	0	32750	32759	
4157	0	32736	32770	
4158	0	32858	32790	
4159	0	32802	32738	
4160	0	32872	32764	
4161	0	32866	32862	
4162	0	32872	32762	
4163	0	32798	32562	
4164	0	32832	32460	
4165	0	32848	32570	
4166	0	32760	32672	
4167	0	32801	32686	
4168	0	32808	32700	
4169	0	32748	32698	
4170	0	32840	32853	
4171	0	32860	32862	
4172	0	32848	32924	
4173	0	32768	32935	
4174	0	32772	32919	
4175	0	32848	32658	
4176	0	32868	32724	
4177	0	32876	32840	
4178	0	32984	32818	
4179	0	32852	32948	
4180	0	32804	32770	
4181	0	32744	32658	
4182	0	32774	32700	
4183	0	32750	32558	
4184	0	32724	32558	
4185	0	32832	32564	
4186	0	32772	32612	
4187	0	32888	32532	
4188	0	32826	32702	
4189	0	32736	32558	
4190	0	32796	32647	
4191	0	32852	32638	
4192	0	32792	32864	
4193	0	32772	32926	
4194	0	32716	32887	
4195	0	32764	32936	
4196	0	32768	32942	
4197	0	32796	32730	
4198	0	32778	32876	
4199	0	32836	32898	
4200	0	32810	32808	
4201	0	32760	32932	
4202	0	32912	32990	
4203	0	32764	33159	
4204	0	32852	32988	
4205	0	32964	32858	
4206	0	32913	32764	
4207	0	32708	32511	
4208	0	32846	32519	
4209	0	32780	32372	
4210	0	32776	32496	
4211	0	32808	32378	
4212	0	32936	32380	
4213	0	32726	32488	
4214	0	32768	32614	
4215	0	32776	32798	
4216	0	32752	32736	
4217	0	32724	32756	
4218	0	32836	32786	
4219	0	32840	32844	
4220	0	32822	32847	
4221	0	32800	32990	
4222	0	32816	33159	
4223	0	32842	33054	
4224	0	32792	33070	
4225	0	32610	33076	
4226	0	32776	32958	
4227	0	32756	32976	
4228	0	32766	33028	
4229	0	32788	32672	
4230	0	32764	32583	
4231	0	32888	32554	
4232	0	32914	32800	
4233	0	32824	32984	
4234	0	32912	32910	
4235	0	32844	32726	
4236	0	32848	32496	
4237	0	32876	32471	
4238	0	32752	32324	
4239	0	32844	32314	
4240	0	32808	32357	
4241	0	32804	32360	
4242	0	32800	32647	
4243	0	32764	32710	
4244	0	32828	32839	
4245	0	32914	32772	
4246	0	32804	32732	
4247	0	32892	32854	
4248	0	32838	33252	
4249	0	32794	33358	
4250	0	32836	33198	
4251	0	32809	33050	
4252	0	32776	33030	
4253	0	32744	33040	
4254	0	32840	32974	
4255	0	32836	32854	
4256	0	32664	32630	
4257	0	32818	32474	
4258	0	32750	32330	
4259	0	32780	32278	
4260	0	32808	32428	
4261	0	32938	32550	
4262	0	32724	32560	
4263	0	32688	32660	
4264	0	32804	32802	
4265	0	32608	32900	
4266	0	32912	32966	
4267	0	32852	32992	
4268	0	32580	33044	
4269	0	32644	33210	
4270	0	32704	33230	
4271	0	32684	33031	
4272	0	32810	32775	
4273	0	33098	32708	
4274	0	32904	32724	
4275	0	32922	32666	
4276	0	32758	32599	
4277	0	32676	32562	
4278	0	32756	32672	
4279	0	32774	32688	
4280	0	32728	32630	
4281	0	32772	32717	
4282	0	32900	32728	
4283	0	32943	32740	
4284	0	32738	32660	
4285	0	32697	32834	
4286	0	32696	32948	
4287	0	32820	32811	
4288	0	32824	32885	
4289	0	32748	32906	
4290	0	32828	32956	
4291	0	32662	32848	
4292	0	32710	32865	
4293	0	32792	32881	
4294	0	32892	32811	
4295	0	32948	32699	
4296	0	32936	32551	
4297	0	32856	32591	
4298	0	32988	32660	
4299	0	32740	32634	
4300	0	32880	32646	
4301	0	33116	32718	
4302	0	33024	32962	
4303	0	32740	33268	
4304	0	32748	33076	
4305	0	32760	32974	
4306	0	32966	32876	
4307	0	32810	32700	
4308	0	32829	32470	
4309	0	32776	32448	
4310	0	32620	32335	
4311	0	32794	32284	
4312	0	32916	32232	
4313	0	32802	32318	
4314	0	32686	32486	
4315	0	32740	32536	
4316	0	32744	32662	
4317	0	32868	32808	
4318	0	32886	32967	
4319	0	32784	33045	
4320	0	32848	33248	
4321	0	32952	33175	
4322	0	32800	33052	
4323	0	32774	32986	
4324	0	32794	32740	
4325	0	32924	32557	
4326	0	32810	32516	
4327	0	32580	32503	
4328	0	32640	32612	
4329	0	32752	32670	
4330	0	32744	32660	
4331	0	32784	32718	
4332	0	32816	32860	
4333	0	32836	32679	
4334	0	32906	32760	
4335	0	32828	32838	
4336	0	32850	32848	
4337	0	32768	32871	
4338	0	32920	32884	
4339	0	32916	32864	
4340	0	32848	32986	
4341	0	32790	33192	
4342	0	32816	33151	
4343	0	32856	32948	
4344	0	32700	32756	
4345	0	32810	32832	
4346	0	32842	32670	
4347	0	32852	32615	
4348	0	32944	32647	
4349	0	32952	32410	
4350	0	32940	32396	
4351	0	32680	32612	
4352	0	32422	32608	
4353	0	32740	32884	
4354	0	32952	32964	
4355	0	32742	33414	
4356	0	32692	33415	
4357	0	32738	33278	
4358	0	32708	33000	
4359	0	32896	32654	
4360	0	32850	32517	
4361	0	32906	32310	
4362	0	32628	32506	
4363	0	32866	32396	
4364	0	32808	32340	
4365	0	32818	32470	
4366	0	32912	32540	
4367	0	32882	32640	
4368	0	32926	32694	
4369	0	33008	32692	
4370	0	33042	32654	
4371	0	32674	32510	
4372	0	32732	32610	
4373	0	32816	32732	
4374	0	32696	32716	
4375	0	32872	32748	
4376	0	32720	32775	
4377	0	32744	32752	
4378	0	32952	32687	
4379	0	32804	32662	
4380	0	32852	32772	
4381	0	32674	33078	
4382	0	32634	33143	
4383	0	32796	33156	
4384	0	32750	33236	
4385	0	32846	33158	
4386	0	32660	33240	
4387	0	32618	33126	
4388	0	32850	33010	
4389	0	33020	32800	
4390	0	32856	32815	
4391	0	32748	32722	
4392	0	32806	32732	
4393	0	32864	32558	
4394	0	32868	32456	
4395	0	32984	32592	
4396	0	33136	32628	
4397	0	32936	32647	
4398	0	32564	32306	
4399	0	32804	32412	
4400	0	32590	32684	
4401	0	32784	32924	
4402	0	32812	32631	
4403	0	32918	32775	
4404	0	32772	33224	
4405	0	32826	33255	
4406	0	32766	32994	
4407	0	32773	32696	
4408	0	32888	32646	
4409	0	32885	32670	
4410	0	32846	32684	
4411	0	32946	32428	
4412	0	33002	32288	
4413	0	32648	32645	
4414	0	32544	32938	
4415	0	32800	33138	
4416	0	32824	33104	
4417	0	32904	32792	
4418	0	32884	32498	
4419	0	32764	32555	
4420	0	32726	32422	
4421	0	32786	32263	
4422	0	32982	32446	
4423	0	32706	32551	
4424	0	32736	32614	
4425	0	32756	32724	
4426	0	32680	32806	
4427	0	32694	32794	
4428	0	32870	33012	
4429	0	32934	33140	
4430	0	33066	33116	
4431	0	32722	33088	
4432	0	32742	32992	
4433	0	32708	32710	
4434	0	32814	32998	
4435	0	32808	32932	
4436	0	32738	32842	
4437	0	32812	32926	
4438	0	32864	33013	
4439	0	32842	32700	
4440	0	32672	32660	
4441	0	32724	32668	
4442	0	32672	32758	
4443	0	32906	32734	
4444	0	32954	32775	
4445	0	32720	32723	
4446	0	32796	32808	
4447	0	32940	33168	
4448	0	32872	33054	
4449	0	32828	32680	
4450	0	32804	32628	
4451	0	32844	32644	
4452	0	32796	32503	
4453	0	32980	32487	
4454	0	32766	32436	
4455	0	32708	32434	
4456	0	32866	32567	
4457	0	32780	32560	
4458	0	33014	32640	
4459	0	33044	32606	
4460	0	32730	32818	
4461	0	32864	32790	
4462	0	32896	32894	
4463	0	32892	32902	
4464	0	32900	32932	
4465	0	32642	33060	
4466	0	32660	33060	
4467	0	32798	32858	
4468	0	32840	32828	
4469	0	32924	33031	
4470	0	32808	32823	
4471	0	32622	32491	
4472	0	32729	32612	
4473	0	32732	32876	
4474	0	32802	32764	
4475	0	32864	32660	
4476	0	32776	32742	
4477	0	32996	32838	
4478	0	32564	32871	
4479	0	32900	32775	
4480	0	32896	32775	
4481	0	32860	32914	
4482	0	32788	32812	
4483	0	32956	32481	
4484	0	33092	32254	
4485	0	32996	32188	
4486	0	32676	32234	
4487	0	32632	32391	
4488	0	32666	32640	
4489	0	32500	32826	
4490	0	32548	32926	
4491	0	32714	33030	
4492	0	32825	33262	
4493	0	32872	33208	
4494	0	32922	33174	
4495	0	32988	33110	
4496	0	32860	32952	
4497	0	32908	32736	
4498	0	32888	32602	
4499	0	32928	32484	
4500	0	32924	32418	
4501	0	32820	32614	
4502	0	32782	32838	
4503	0	32632	33024	
4504	0	32704	33118	
4505	0	32788	32934	
4506	0	32792	33108	
4507	0	32756	32998	
4508	0	32854	32922	
4509	0	32872	32644	
4510	0	32932	32506	
4511	0	32750	32458	
4512	0	33246	32280	
4513	0	33012	32369	
4514	0	32588	32728	
4515	0	32574	32838	
4516	0	32408	32620	
4517	0	32872	32956	
4518	0	32864	33036	
4519	0	33104	32926	
4520	0	32944	33236	
4521	0	32640	33434	
4522	0	32444	32934	
4523	0	32880	32775	
4524	0	32908	32323	
4525	0	33016	32143	
4526	0	32488	32334	
4527	0	32664	32228	
4528	0	32824	31998	
4529	0	32796	32204	
4530	0	32944	32916	
4531	0	32624	32964	
4532	0	32704	33006	
4533	0	33120	33182	
4534	0	32760	33142	
4535	0	32896	33028	
4536	0	33070	32990	
4537	0	33301	33002	
4538	0	32628	32999	
4539	0	32516	33156	
4540	0	32736	32977	
4541	0	32720	33236	
4542	0	32792	33198	
4543	0	32642	33002	
4544	0	32652	32775	
4545	0	32540	32486	
4546	0	32768	32335	
4547	0	32902	32386	
4548	0	32816	32431	
4549	0	32710	32564	
4550	0	32760	32449	
4551	0	32848	32196	
4552	0	32908	32263	
4553	0	32776	32376	
4554	0	32846	32510	
4555	0	32932	32668	
4556	0	32954	32759	
4557	0	32868	32775	
4558	0	32954	32866	
4559	0	32958	32916	
4560	0	32902	32847	
4561	0	33080	32914	
4562	0	32564	32886	
4563	0	32592	32914	
4564	0	32864	32742	
4565	0	32868	32722	
4566	0	32756	32846	
4567	0	32656	33140	
4568	0	32832	33252	
4569	0	32868	33062	
4570	0	32548	32918	
4571	0	32788	32775	
4572	0	32672	32940	
4573	0	32740	32736	
4574	0	32748	32730	
4575	0	32712	32689	
4576	0	32810	32666	
4577	0	32912	32658	
4578	0	32776	32742	
4579	0	32824	33084	
4580	0	32924	33254	
4581	0	32944	32948	
4582	0	33052	32890	
4583	0	32880	32862	
4584	0	32782	32670	
4585	0	32820	32728	
4586	0	32764	32632	
4587	0	32800	32444	
4588	0	33062	32474	
4589	0	32864	32792	
4590	0	32630	32660	
4591	0	32580	32708	
4592	0	32784	32475	
4593	0	32913	32574	
4594	0	32704	32512	
4595	0	32782	32582	
4596	0	32904	32624	
4597	0	32896	32646	
4598	0	32908	32711	
4599	0	32736	32796	
4600	0	32644	32914	
4601	0	32748	32759	
4602	0	32840	32844	
4603	0	32606	32860	
4604	0	32784	32800	
4605	0	32785	32716	
4606	0	32756	32724	
4607	0	32952	33048	
4608	0	32890	33222	
4609	0	32986	33355	
4610	0	33136	33028	
4611	0	33260	32716	
4612	0	32604	32676	
4613	0	32236	32746	
4614	0	32790	32960	
4615	0	32800	32552	
4616	0	32786	32362	
4617	0	32740	32620	
4618	0	33156	32886	
4619	0	33152	32742	
4620	0	32748	32760	
4621	0	32528	32768	
4622	0	32530	32731	
4623	0	32616	32807	
4624	0	32776	32956	
4625	0	32768	32720	
4626	0	32744	32924	
4627	0	32792	32950	
4628	0	32844	33018	
4629	0	32922	32728	
4630	0	32932	32804	
4631	0	32764	32902	
4632	0	32808	32752	
4633	0	32898	32585	
4634	0	32892	32530	
4635	0	32784	32382	
4636	0	32956	32348	
4637	0	32706	32478	
4638	0	32580	32786	
4639	0	32672	32908	
4640	0	32702	32679	
4641	0	32852	32796	
4642	0	32924	32936	
4643	0	32864	32846	
4644	0	32716	32923	
4645	0	33098	33132	
4646	0	33106	32831	
4647	0	32892	32518	
4648	0	32836	32678	
4649	0	32652	32650	
4650	0	32958	32548	
4651	0	32980	32660	
4652	0	32836	32790	
4653	0	32692	32982	
4654	0	32810	32863	
4655	0	32878	32824	
4656	0	32876	32572	
4657	0	32760	32460	
4658	0	32768	32666	
4659	0	33142	32740	
4660	0	32986	32308	
4661	0	32840	32280	
4662	0	32842	32263	
4663	0	32768	32196	
4664	0	32760	31934	
4665	0	32824	32455	
4666	0	32934	32956	
4667	0	32856	33046	
4668	0	32984	33351	
4669	0	32868	33668	
4670	0	32496	33684	
4671	0	32752	33271	
4672	0	32898	32846	
4673	0	32926	32616	
4674	0	32804	32282	
4675	0	32528	32482	
4676	0	32524	32898	
4677	0	32644	32726	
4678	0	32420	32863	
4679	0	32536	33359	
4680	0	32454	33662	
4681	0	32624	33820	
4682	0	32678	34014	
4683	0	32252	33671	
4684	0	32508	33426	
4685	0	32590	33062	
4686	0	32712	32814	
4687	0	32814	32448	
4688	0	32908	32314	
4689	0	32944	32326	
4690	0	32978	32280	
4691	0	33124	32384	
4692	0	33016	32775	
4693	0	33236	32864	
4694	0	33012	32588	
4695	0	32768	32468	
4696	0	33121	32118	
4697	0	33060	32222	
4698	0	32676	32354	
4699	0	32528	32446	
4700	0	32636	32538	
4701	0	32796	32460	
4702	0	32820	32332	
4703	0	32866	32410	
4704	0	32818	32754	
4705	0	32836	32670	
4706	0	33074	32758	
4707	0	32932	32798	
4708	0	32914	32720	
4709	0	33112	32662	
4710	0	33048	32948	
4711	0	33132	33058	
4712	0	33030	33254	
4713	0	32596	33226	
4714	0	32654	33442	
4715	0	32824	33492	
4716	0	32800	33265	
4717	0	32592	33098	
4718	0	32780	32832	
4719	0	32800	32455	
4720	0	32772	32326	
4721	0	32720	32052	
4722	0	32864	31988	
4723	0	32760	32006	
4724	0	32886	32110	
4725	0	32872	32452	
4726	0	32804	32556	
4727	0	32920	32938	
4728	0	32774	33260	
4729	0	32756	33274	
4730	0	32742	33186	
4731	0	32668	32956	
4732	0	32720	32982	
4733	0	32798	32899	
4734	0	32712	32656	
4735	0	32932	32418	
4736	0	33208	32327	
4737	0	32952	32888	
4738	0	32492	33052	
4739	0	32896	33006	
4740	0	32804	33266	
4741	0	32760	33329	
4742	0	32756	32976	
4743	0	32742	32531	
4744	0	32644	32370	
4745	0	32650	32452	
4746	0	32696	32423	
4747	0	32458	32372	
4748	0	32756	32525	
4749	0	32816	32791	
4750	0	32740	32885	
4751	0	32828	32786	
4752	0	32842	32986	
4753	0	32868	33106	
4754	0	32974	33252	
4755	0	32936	33204	
4756	0	32834	33076	
4757	0	33000	33318	
4758	0	33140	33005	
4759	0	32716	32508	
4760	0	32968	32506	
4761	0	32838	32424	
4762	0	32800	32434	
4763	0	32536	32362	
4764	0	32824	32426	
4765	0	32812	32500	
4766	0	33130	32660	
4767	0	32526	32858	
4768	0	32700	33287	
4769	0	32788	33228	
4770	0	32644	33280	
4771	0	32804	32990	
4772	0	32784	32598	
4773	0	32672	32518	
4774	0	32652	32464	
4775	0	32696	32600	
4776	0	32706	32760	
4777	0	32774	33052	
4778	0	32904	32943	
4779	0	32808	32619	
4780	0	32938	32790	
4781	0	32748	32822	
4782	0	32932	32337	
4783	0	32848	32378	
4784	0	32824	32350	
4785	0	32952	32386	
4786	0	32968	32628	
4787	0	32914	32775	
4788	0	32916	32888	
4789	0	32666	32792	
4790	0	32988	32910	
4791	0	32856	32936	
4792	0	32856	32998	
4793	0	32720	33031	
4794	0	32644	32903	
4795	0	32740	32788	
4796	0	32608	32576	
4797	0	32646	32282	
4798	0	32710	32155	
4799	0	32824	32668	
4800	0	33168	33204	
4801	0	32712	33306	
4802	0	32834	32775	
4803	0	32732	33006	
4804	0	32892	33048	
4805	0	32870	32906	
4806	0	32790	32930	
4807	0	32944	33040	
4808	0	32936	33364	
4809	0	33220	33810	
4810	0	32856	33364	
4811	0	32900	32690	
4812	0	32462	32103	
4813	0	32520	31732	
4814	0	32780	31711	
4815	0	32838	31868	
4816	0	32820	31998	
4817	0	32612	32430	
4818	0	32602	32614	
4819	0	32644	32692	
4820	0	32736	32820	
4821	0	32870	32664	
4822	0	32864	32800	
4823	0	32922	32839	
4824	0	32830	32967	
4825	0	32740	33031	
4826	0	33122	32888	
4827	0	32964	32962	
4828	0	32764	32966	
4829	0	32780	33044	
4830	0	33084	32838	
4831	0	33128	32492	
4832	0	32808	32406	
4833	0	32602	32470	
4834	0	32778	32812	
4835	0	32922	32714	
4836	0	32700	33050	
4837	0	32556	32854	
4838	0	32680	32939	
4839	0	32868	32944	
4840	0	32432	32961	
4841	0	32730	33096	
4842	0	32792	33219	
4843	0	32928	33287	
4844	0	32900	33282	
4845	0	32872	33328	
4846	0	32980	33264	
4847	0	32968	33128	
4848	0	32860	32912	
4849	0	32964	32550	
4850	0	33308	31924	
4851	0	32528	31930	
4852	0	32260	32391	
4853	0	33112	32321	
4854	0	32740	32236	
4855	0	32604	32126	
4856	0	33196	32258	
4857	0	32996	32328	
4858	0	32512	32656	
4859	0	32786	32647	
4860	0	32574	33084	
4861	0	32668	33391	
4862	0	32562	33508	
4863	0	32836	33159	
4864	0	32712	32692	
4865	0	32646	32876	
4866	0	32922	32879	
4867	0	32986	32506	
4868	0	32896	32506	
4869	0	32982	32559	
4870	0	32956	32649	
4871	0	32884	32528	
4872	0	32948	32555	
4873	0	32692	32366	
4874	0	32500	32642	
4875	0	32726	33118	
4876	0	32940	33242	
4877	0	33124	33260	
4878	0	32640	33368	
4879	0	32584	33415	
4880	0	32924	33314	
4881	0	32928	33300	
4882	0	32784	33240	
4883	0	32976	32897	
4884	0	32964	32478	
4885	0	32986	31472	
4886	0	32734	31539	
4887	0	32354	32156	
4888	0	32746	32529	
4889	0	32646	32292	
4890	0	32564	32428	
4891	0	32898	32776	
4892	0	32836	32934	
4893	0	32664	32807	
4894	0	32976	32788	
4895	0	33056	33556	
4896	0	32920	33756	
4897	0	33074	33710	
4898	0	33122	33905	
4899	0	32824	33910	
4900	0	32360	33236	
4901	0	32808	32614	
4902	0	32746	32112	
4903	0	32552	32194	
4904	0	32790	31738	
4905	0	32996	31510	
4906	0	32640	31728	
4907	0	32322	32300	
4908	0	32828	32682	
4909	0	32832	32628	
4910	0	32828	32932	
4911	0	33000	33111	
4912	0	33000	33056	
4913	0	32708	32814	
4914	0	32808	33031	
4915	0	32732	32903	
4916	0	32840	32970	
4917	0	32636	32794	
4918	0	33368	32750	
4919	0	32976	33108	
4920	0	33200	33000	
4921	0	32934	33044	
4922	0	32524	33031	
4923	0	32660	32816	
4924	0	32812	32583	
4925	0	32804	32820	
4926	0	32612	32958	
4927	0	32748	32716	
4928	0	32868	33109	
4929	0	32440	33504	
4930	0	32622	33851	
4931	0	32762	33652	
4932	0	33176	33405	
4933	0	33232	32718	
4934	0	32880	32220	
4935	0	32770	32308	
4936	0	32976	32092	
4937	0	32236	32106	
4938	0	32798	32170	
4939	0	32660	31932	
4940	0	32776	31562	
4941	0	32648	31738	
4942	0	32996	31942	
4943	0	33208	31904	
4944	0	32580	32070	
4945	0	32732	32436	
4946	0	32928	32471	
4947	0	32592	32702	
4948	0	33240	33334	
4949	0	33006	33992	
4950	0	32212	33564	
4951	0	32684	33543	
4952	0	32986	33520	
4953	0	33304	33116	
4954	0	33184	32668	
4955	0	33004	32468	
4956	0	32932	32506	
4957	0	33016	32956	
4958	0	32620	32804	
4959	0	32588	33150	
4960	0	32932	33318	
4961	0	32766	33684	
4962	0	32440	33468	
4963	0	32200	33090	
4964	0	32838	32962	
4965	0	32764	32591	
4966	0	32917	32384	
4967	0	32680	31978	
4968	0	32712	31764	
4969	0	32929	31974	
4970	0	33052	32244	
4971	0	33026	32418	
4972	0	32612	32764	
4973	0	32584	32774	
4974	0	32724	32754	
4975	0	32742	32918	
4976	0	32888	32928	
4977	0	33040	32894	
4978	0	32736	32920	
4979	0	32920	32804	
4980	0	32880	32726	
4981	0	32986	32748	
4982	0	32932	32959	
4983	0	32744	32920	
4984	0	33004	33238	
4985	0	32912	33167	
4986	0	33184	33084	
4987	0	33104	32966	
4988	0	32862	33060	
4989	0	33020	32791	
4990	0	32288	33024	
4991	0	32660	33092	
4992	0	33054	32775	
4993	0	32536	32824	
4994	0	32492	32724	
4995	0	32548	32556	
4996	0	32704	32607	
4997	0	32964	32585	
4998	0	32956	32680	
4999	0	32376	32634	
5000	0	32456	32504	
5001	0	32824	32412	
5002	0	32850	32433	
5003	0	32920	32406	
5004	0	33588	32524	
5005	0	32780	32476	
5006	0	32568	32688	
5007	0	32668	32916	
5008	0	32820	32903	
5009	0	32789	33126	
5010	0	33080	33167	
5011	0	33010	33092	
5012	0	32964	32930	
5013	0	32752	32752	
5014	0	32584	32728	
5015	0	33000	33172	
5016	0	32702	33080	
5017	0	32620	32519	
5018	0	32768	32080	
5019	0	32758	31972	
5020	0	32584	32030	
5021	0	32844	31768	
5022	0	32912	31846	
5023	0	32920	32855	
5024	0	32654	33412	
5025	0	32816	33358	
5026	0	32884	33392	
5027	0	32992	33543	
5028	0	32924	33543	
5029	0	32708	33647	
5030	0	32792	33334	
5031	0	32918	33050	
5032	0	32730	32924	
5033	0	32934	32970	
5034	0	32992	32975	
5035	0	33184	32775	
5036	0	32410	32522	
5037	0	32420	32376	
5038	0	32808	32096	
5039	0	32916	32220	
5040	0	32880	32368	
5041	0	32804	32340	
5042	0	32828	32298	
5043	0	32712	32558	
5044	0	32816	32836	
5045	0	32812	32711	
5046	0	32708	32519	
5047	0	32833	32653	
5048	0	32812	32940	
5049	0	32730	32888	
5050	0	32794	33098	
5051	0	32748	33076	
5052	0	32956	33438	
5053	0	32992	33598	
5054	0	32864	33758	
5055	0	32928	33191	
5056	0	33200	32774	
5057	0	32910	32418	
5058	0	32800	32524	
5059	0	32744	32304	
5060	0	32584	32183	
5061	0	32728	32074	
5062	0	32660	31956	
5063	0	32512	32068	
5064	0	32724	32154	
5065	0	32760	32656	
5066	0	32736	32924	
5067	0	32804	33076	
5068	0	32790	33303	
5069	0	33008	33368	
5070	0	32852	33212	
5071	0	32902	32994	
5072	0	32868	32850	
5073	0	32742	32748	
5074	0	32688	32700	
5075	0	32880	32622	
5076	0	33136	32902	
5077	0	33000	32980	
5078	0	32730	32788	
5079	0	32718	32784	
5080	0	32660	33232	
5081	0	32832	33030	
5082	0	32728	32750	
5083	0	33006	32696	
5084	0	32796	32660	
5085	0	32636	32518	
5086	0	32942	32294	
5087	0	33020	32167	
5088	0	32472	32340	
5089	0	32696	32382	
5090	0	32720	32444	
5091	0	33098	32676	
5092	0	32808	32758	
5093	0	33028	32852	
5094	0	32688	32828	
5095	0	32444	32710	
5096	0	33096	32674	
5097	0	33004	32614	
5098	0	32920	32874	
5099	0	32986	32807	
5100	0	32584	32564	
5101	0	32990	33020	
5102	0	33096	33700	
5103	0	32448	33450	
5104	0	32545	33292	
5105	0	32888	33062	
5106	0	32952	32559	
5107	0	32680	32390	
5108	0	32760	31968	
5109	0	32840	31920	
5110	0	32784	32296	
5111	0	32936	32215	
5112	0	32892	32423	
5113	0	32612	32660	
5114	0	32756	32940	
5115	0	32768	32880	
5116	0	32720	32946	
5117	0	33072	32874	
5118	0	32672	32682	
5119	0	32774	32770	
5120	0	32822	32932	
5121	0	32918	32809	
5122	0	32808	32702	
5123	0	32822	33124	
5124	0	32826	33354	
5125	0	32748	33240	
5126	0	32910	33088	
5127	0	32924	32824	
5128	0	32656	32639	
5129	0	32992	32406	
5130	0	32920	32314	
5131	0	32696	32066	
5132	0	32536	32406	
5133	0	32676	32487	
5134	0	32852	32588	
5135	0	32884	32720	
5136	0	32670	32680	
5137	0	33112	32894	
5138	0	32810	32806	
5139	0	32602	33000	
5140	0	32830	33164	
5141	0	33036	33204	
5142	0	32798	32970	
5143	0	33080	32903	
5144	0	32812	32892	
5145	0	32960	33095	
5146	0	32964	33135	
5147	0	32768	32942	
5148	0	32870	32464	
5149	0	32708	32396	
5150	0	32676	32784	
5151	0	32674	32775	
5152	0	32806	32174	
5153	0	32780	32062	
5154	0	32714	32068	
5155	0	32776	32210	
5156	0	32548	32564	
5157	0	32596	32918	
5158	0	32804	33104	
5159	0	32930	33124	
5160	0	33028	33031	
5161	0	32712	33102	
5162	0	32932	32910	
5163	0	32808	32992	
5164	0	33048	32966	
5165	0	32836	32852	
5166	0	32868	32786	
5167	0	32532	32785	
5168	0	32900	32807	
5169	0	32764	32855	
5170	0	32698	32714	
5171	0	32804	32676	
5172	0	32776	32756	
5173	0	32716	32722	
5174	0	32708	32772	
5175	0	32864	32844	
5176	0	32750	32744	
5177	0	32782	32826	
5178	0	32816	32838	
5179	0	33002	32680	
5180	0	32744	32647	
5181	0	33104	32496	
5182	0	32906	32398	
5183	0	33072	32487	
5184	0	32788	32450	
5185	0	32948	32614	
5186	0	32780	32636	
5187	0	32144	32788	
5188	0	33002	32903	
5189	0	32988	32950	
5190	0	32792	33248	
5191	0	32548	33745	
5192	0	32968	33448	
5193	0	32776	33250	
5194	0	32280	32718	
5195	0	32702	32726	
5196	0	32962	32477	
5197	0	32736	32342	
5198	0	32752	32194	
5199	0	32686	32068	
5200	0	32762	32134	
5201	0	32836	32348	
5202	0	32824	32719	
5203	0	32822	32986	
5204	0	32796	33196	
5205	0	32784	33194	
5206	0	32814	33203	
5207	0	32866	33180	
5208	0	33080	32960	
5209	0	32958	32658	
5210	0	32692	32454	
5211	0	32832	32222	
5212	0	32932	32160	
5213	0	32670	32434	
5214	0	32716	32588	
5215	0	32668	32722	
5216	0	32860	32769	
5217	0	32836	32904	
5218	0	33018	33080	
5219	0	32960	33121	
5220	0	32816	32994	
5221	0	32768	33095	
5222	0	32624	33016	
5223	0	32946	33004	
5224	0	32820	32910	
5225	0	32636	32871	
5226	0	32790	32940	
5227	0	32708	32734	
5228	0	32916	32775	
5229	0	32708	32816	
5230	0	32798	32868	
5231	0	32944	32738	
5232	0	32916	32768	
5233	0	32824	32748	
5234	0	32902	32519	
5235	0	33016	32470	
5236	0	33136	32276	
5237	0	32896	32135	
5238	0	32442	32430	
5239	0	32700	32500	
5240	0	32892	32599	
5241	0	32920	32738	
5242	0	32888	32949	
5243	0	32848	32992	
5244	0	32928	32978	
5245	0	33498	32872	
5246	0	32062	33014	
5247	0	32394	33014	
5248	0	32760	33048	
5249	0	32864	32944	
5250	0	32748	32834	
5251	0	32704	32896	
5252	0	32802	32800	
5253	0	32824	32991	
5254	0	32884	32818	
5255	0	32898	32728	
5256	0	32816	32550	
5257	0	32916	32667	
5258	0	32960	32672	
5259	0	32948	32775	
5260	0	32908	32817	
5261	0	33030	32774	
5262	0	33224	32796	
5263	0	32900	32900	
5264	0	32026	32802	
5265	0	33120	32886	
5266	0	32892	32854	
5267	0	32624	32727	
5268	0	32926	32720	
5269	0	33200	32420	
5270	0	32296	32360	
5271	0	32458	32278	
5272	0	32604	32510	
5273	0	32792	32935	
5274	0	32736	32853	
5275	0	32812	32788	
5276	0	32800	32697	
5277	0	32888	32798	
5278	0	32824	32760	
5279	0	32876	32828	
5280	0	32984	32852	
5281	0	32820	32956	
5282	0	32652	32967	
5283	0	32780	33004	
5284	0	32780	32769	
5285	0	32880	32604	
5286	0	32848	32810	
5287	0	32852	33054	
5288	0	32877	32932	
5289	0	33074	32884	
5290	0	32820	32774	
5291	0	32910	32668	
5292	0	32760	32588	
5293	0	32960	32483	
5294	0	32876	32446	
5295	0	32844	32328	
5296	0	32870	32304	
5297	0	33094	32354	
5298	0	32780	32484	
5299	0	32736	32583	
5300	0	33042	32636	
5301	0	32916	32710	
5302	0	33206	32750	
5303	0	33136	32652	
5304	0	32728	32732	
5305	0	32576	32608	
5306	0	32880	32628	
5307	0	33256	32720	
5308	0	31988	32738	
5309	0	31948	32692	
5310	0	33180	32904	
5311	0	32888	32792	
5312	0	32796	32756	
5313	0	32652	33010	
5314	0	32710	33319	
5315	0	32752	33028	
5316	0	32676	32656	
5317	0	32440	33062	
5318	0	32618	33648	
5319	0	32536	33654	
5320	0	32608	33422	
5321	0	32656	33399	
5322	0	32650	33372	
5323	0	32662	33258	
5324	0	32704	33222	
5325	0	32724	33047	
5326	0	32818	32912	
5327	0	32776	32462	
5328	0	32888	32460	
5329	0	32776	32628	
5330	0	32808	32414	
5331	0	33040	32319	
5332	0	33012	32404	
5333	0	33080	32535	
5334	0	32420	32662	
5335	0	33460	32486	
5336	0	33034	32678	
5337	0	32776	32639	
5338	0	32744	32452	
5339	0	32768	32646	
5340	0	33156	32638	
5341	0	33012	32624	
5342	0	32624	32636	
5343	0	32670	32506	
5344	0	32744	32447	
5345	0	32798	32430	
5346	0	32788	32591	
5347	0	32970	32696	
5348	0	32880	32564	
5349	0	32884	32725	
5350	0	32962	32774	
5351	0	32880	32839	
5352	0	32936	32746	
5353	0	32956	32888	
5354	0	32804	32934	
5355	0	32858	33198	
5356	0	32792	33287	
5357	0	32804	33190	
5358	0	32752	33104	
5359	0	32828	32996	
5360	0	32788	32800	
5361	0	32734	32602	
5362	0	32706	32550	
5363	0	32812	32406	
5364	0	32964	32440	
5365	0	32812	32452	
5366	0	32504	32538	
5367	0	33158	32554	
5368	0	32648	32775	
5369	0	33016	32902	
5370	0	33088	32846	
5371	0	32626	32903	
5372	0	32812	32898	
5373	0	32566	32878	
5374	0	32616	32634	
5375	0	32804	32727	
5376	0	32858	33002	
5377	0	32538	32754	
5378	0	32832	32636	
5379	0	32736	32606	
5380	0	32622	32631	
5381	0	32746	32654	
5382	0	32818	32842	
5383	0	32852	32926	
5384	0	32693	32764	
5385	0	32860	32857	
5386	0	32716	32914	
5387	0	32804	32928	
5388	0	32936	32844	
5389	0	32872	32812	
5390	0	32848	32879	
5391	0	32868	32882	
5392	0	32812	32836	
5393	0	32876	32802	
5394	0	32744	32770	
5395	0	32796	32750	
5396	0	32800	32752	
5397	0	32784	32844	
5398	0	32896	32710	
5399	0	32752	32782	
5400	0	32902	32888	
5401	0	32864	32847	
5402	0	32812	32840	
5403	0	33000	32932	
5404	0	32668	32916	
5405	0	33308	32846	
5406	0	32834	32662	
5407	0	32470	32424	
5408	0	32732	32312	
5409	0	32908	32408	
5410	0	32802	32448	
5411	0	32680	32735	
5412	0	32672	32823	
5413	0	32632	32839	
5414	0	32794	32884	
5415	0	32756	32800	
5416	0	32858	32814	
5417	0	32756	32724	
5418	0	32768	32638	
5419	0	32778	32634	
5420	0	32798	32710	
5421	0	32806	32798	
5422	0	32812	32852	
5423	0	32852	32934	
5424	0	32836	33050	
5425	0	32928	32892	
5426	0	32912	32832	
5427	0	32872	32820	
5428	0	32866	32760	
5429	0	32768	32836	
5430	0	32838	32798	
5431	0	32906	32720	
5432	0	32845	32710	
5433	0	32956	32788	
5434	0	32692	32762	
5435	0	32724	32692	
5436	0	32904	32732	
5437	0	32852	32756	
5438	0	32800	32860	
5439	0	33008	32641	
5440	0	32862	32708	
5441	0	32816	32807	
5442	0	32566	32790	
5443	0	32054	32884	
5444	0	33248	32656	
5445	0	33060	32750	
5446	0	32768	32748	
5447	0	32664	32514	
5448	0	32796	32730	
5449	0	32756	32638	
5450	0	32756	32572	
5451	0	32932	32742	
5452	0	32854	32714	
5453	0	32690	32838	
5454	0	33004	32766	
5455	0	32796	32866	
5456	0	32822	32948	
5457	0	32786	33000	
5458	0	32916	32888	
5459	0	32800	32902	
5460	0	32876	32839	
5461	0	32802	32790	
5462	0	32826	32530	
5463	0	32816	32614	
5464	0	32844	32692	
5465	0	32856	32668	
5466	0	32888	32592	
5467	0	32820	32838	
5468	0	33033	33066	
5469	0	32668	33038	
5470	0	32792	33023	
5471	0	32828	32888	
5472	0	32780	32820	
5473	0	33104	32666	
5474	0	32632	32614	
5475	0	32648	32600	
5476	0	32944	32647	
5477	0	32796	32518	
5478	0	32956	32481	
5479	0	32864	32542	
5480	0	32824	32464	
5481	0	32504	32324	
5482	0	32792	32594	
5483	0	32972	32675	
5484	0	32688	32670	
5485	0	32620	32724	
5486	0	32692	32919	
5487	0	32868	33000	
5488	0	32784	32928	
5489	0	32876	33004	
5490	0	32868	33010	
5491	0	32750	32980	
5492	0	32868	33031	
5493	0	32834	32902	
5494	0	32892	33031	
5495	0	32888	32968	
5496	0	32956	32759	
5497	0	32892	32726	
5498	0	32944	32564	
5499	0	33072	32626	
5500	0	33100	32584	
5501	0	32948	32702	
5502	0	32852	32732	
5503	0	32788	32775	
5504	0	32764	32823	
5505	0	32825	32724	
5506	0	32424	32789	
5507	0	32452	32646	
5508	0	32458	32661	
5509	0	32400	32712	
5510	0	32354	32705	
5511	0	32794	32784	
5512	0	33320	32756	
5513	0	32628	32750	
5514	0	32500	32878	
5515	0	32804	32762	
5516	0	32744	32640	
5517	0	32922	32682	
5518	0	32744	32662	
5519	0	32938	32664	
5520	0	32924	32854	
5521	0	32936	32756	
5522	0	33044	32851	
5523	0	33000	32806	
5524	0	33080	32828	
5525	0	33008	32895	
5526	0	32952	32900	
5527	0	32948	32775	
5528	0	32964	32668	
5529	0	32868	32880	
5530	0	32764	32742	
5531	0	32770	32514	
5532	0	32768	32614	
5533	0	32828	32774	
5534	0	32824	32788	
5535	0	32782	32834	
5536	0	32732	32791	
5537	0	32710	32666	
5538	0	32712	32586	
5539	0	32906	32628	
5540	0	32396	32672	
5541	0	32568	33012	
5542	0	32522	33194	
5543	0	32986	33216	
5544	0	32410	33096	
5545	0	33076	33009	
5546	0	32984	32792	
5547	0	32624	32610	
5548	0	32356	32455	
5549	0	33080	32082	
5550	0	32960	32420	
5551	0	33090	32500	
5552	0	32776	32308	
5553	0	32788	32470	
5554	0	32808	32582	
5555	0	32844	32690	
5556	0	32956	32858	
5557	0	32784	32960	
5558	0	32748	32922	
5559	0	32844	32874	
5560	0	32872	32902	
5561	0	32836	32942	
5562	0	32844	33054	
5563	0	32846	32944	
5564	0	32936	33014	
5565	0	33040	32966	
5566	0	32750	32889	
5567	0	32850	32842	
5568	0	32900	32748	
5569	0	32744	32712	
5570	0	32552	32684	
5571	0	32578	32743	
5572	0	32746	32710	
5573	0	32808	32871	
5574	0	32394	32772	
5575	0	32856	32638	
5576	0	32792	32668	
5577	0	32360	32669	
5578	0	32762	32760	
5579	0	33060	32775	
5580	0	32734	32736	
5581	0	32800	32820	
5582	0	33064	32852	
5583	0	32930	32930	
5584	0	32830	32732	
5585	0	32812	32610	
5586	0	32900	32654	
5587	0	32882	32766	
5588	0	32934	32882	
5589	0	33036	32760	
5590	0	32980	32804	
5591	0	33116	32836	
5592	0	32936	32760	
5593	0	32800	32714	
5594	0	32702	32734	
5595	0	32826	32820	
5596	0	32862	32928	
5597	0	32846	32874	
5598	0	32834	32808	
5599	0	32788	32753	
5600	0	32852	32808	
5601	0	32844	32694	
5602	0	32740	32622	
5603	0	32964	32636	
5604	0	32478	32727	
5605	0	32920	32680	
5606	0	32648	32764	
5607	0	32708	32678	
5608	0	32792	32744	
5609	0	32720	32775	
5610	0	32904	32802	
5611	0	32688	32704	
5612	0	32844	32678	
5613	0	32940	32700	
5614	0	32692	32750	
5615	0	32968	32808	
5616	0	32880	32860	
5617	0	32812	32831	
5618	0	32718	32746	
5619	0	33044	32860	
5620	0	32828	32838	
5621	0	32860	32668	
5622	0	32570	32668	
5623	0	32794	32696	
5624	0	33000	32714	
5625	0	32792	32842	
5626	0	32770	32792	
5627	0	32836	32780	
5628	0	32872	32904	
5629	0	33128	32772	
5630	0	33140	32632	
5631	0	33156	32732	
5632	0	33108	32796	
5633	0	33100	32757	
5634	0	33102	32706	
5635	0	32944	32704	
5636	0	32912	32738	
5637	0	32766	32796	
5638	0	32456	32832	
5639	0	32056	32804	
5640	0	32040	32748	
5641	0	32158	32775	
5642	0	32308	32792	
5643	0	32404	32664	
5644	0	32682	32820	
5645	0	32508	32644	
5646	0	32832	32743	
5647	0	32896	32821	
5648	0	32836	32782	
5649	0	32658	32728	
5650	0	32730	32758	
5651	0	32841	32743	
5652	0	32718	32622	
5653	0	32458	32775	
5654	0	32978	32815	
5655	0	32818	32798	
5656	0	32912	32808	
5657	0	32920	32830	
5658	0	32980	32890	
5659	0	32960	32775	
5660	0	33080	32726	
5661	0	33054	32602	
5662	0	33032	32700	
5663	0	33031	32802	
5664	0	32950	32775	
5665	0	32928	32826	
5666	0	32948	32818	
5667	0	33026	32828	
5668	0	32800	32838	
5669	0	32868	32870	
5670	0	32822	32820	
5671	0	32652	32668	
5672	0	32820	32620	
5673	0	33000	32672	
5674	0	32648	32788	
5675	0	32852	32868	
5676	0	32876	32775	
5677	0	32824	32790	
5678	0	32722	32820	
5679	0	32720	32935	
5680	0	32766	32868	
5681	0	32746	32692	
5682	0	32698	32676	
5683	0	32810	32660	
5684	0	32880	32799	
5685	0	32742	32720	
5686	0	32644	32696	
5687	0	32776	32724	
5688	0	32878	32816	
5689	0	32948	32764	
5690	0	32964	32744	
5691	0	33120	32810	
5692	0	33046	32864	
5693	0	33092	32874	
5694	0	32902	32744	
5695	0	33004	32754	
5696	0	32528	32682	
5697	0	32678	32775	
5698	0	32368	32744	
5699	0	32786	32807	
5700	0	32416	32824	
5701	0	32512	32696	
5702	0	32492	32834	
5703	0	32414	32706	
5704	0	32624	32742	
5705	0	32794	32678	
5706	0	33048	32686	
5707	0	32886	32678	
5708	0	32808	32620	
5709	0	32988	32655	
5710	0	33036	32748	
5711	0	32980	32912	
5712	0	32932	32828	
5713	0	32996	32753	
5714	0	32956	32897	
5715	0	32864	32862	
5716	0	32968	32760	
5717	0	32832	32718	
5718	0	32712	32754	
5719	0	32738	32742	
5720	0	32680	32738	
5721	0	32666	32676	
5722	0	32792	32710	
5723	0	32698	32852	
5724	0	32532	32716	
5725	0	32520	32830	
5726	0	32964	32894	
5727	0	32962	32807	
5728	0	32760	32702	
5729	0	32674	32794	
5730	0	32702	32728	
5731	0	32868	32700	
5732	0	32884	32802	
5733	0	32896	32708	
5734	0	32878	32666	
5735	0	32984	32700	
5736	0	32956	32594	
5737	0	32962	32670	
5738	0	32854	32634	
5739	0	32896	32716	
5740	0	32756	32636	
5741	0	32832	32700	
5742	0	32820	32800	
5743	0	32804	32902	
5744	0	32930	32774	
5745	0	32930	32850	
5746	0	32904	32864	
5747	0	32834	32862	
5748	0	32624	32868	
5749	0	32940	32775	
5750	0	32928	32775	
5751	0	32628	32804	
5752	0	32848	32812	
5753	0	32888	32744	
5754	0	32632	32664	
5755	0	32778	32702	
5756	0	32816	32838	
5757	0	32684	32764	
5758	0	32560	32736	
5759	0	32688	32700	
5760	0	32776	32879	
5761	0	32980	32720	
5762	0	32696	32820	
5763	0	32780	32751	
5764	0	32868	32719	
5765	0	32862	32726	
5766	0	32932	32698	
5767	0	32800	32740	
5768	0	32792	32775	
5769	0	32760	32800	
5770	0	32796	32799	
5771	0	32808	32874	
5772	0	32644	32724	
5773	0	32892	32702	
5774	0	32954	32810	
5775	0	32872	32860	
5776	0	33100	32761	
5777	0	32660	32736	
5778	0	32888	32774	
5779	0	32820	32782	
5780	0	32764	32564	
5781	0	32836	32716	
5782	0	32728	32874	
5783	0	32676	32794	
5784	0	32740	32906	
5785	0	32694	32896	
5786	0	32660	32730	
5787	0	32736	32696	
5788	0	32784	32640	
5789	0	32834	32580	
5790	0	32880	32652	
5791	0	32810	32676	
5792	0	32780	32736	
5793	0	32784	32738	
5794	0	32828	32880	
5795	0	32932	32958	
5796	0	32824	32832	
5797	0	32968	32716	
5798	0	32990	32775	
5799	0	32948	32882	
5800	0	32928	32903	
5801	0	32912	32630	
5802	0	33006	32834	
5803	0	33130	32871	
5804	0	32772	32827	
5805	0	32636	32708	
5806	0	32972	32630	
5807	0	32940	32864	
5808	0	32832	32866	
5809	0	32704	32722	
5810	0	32748	32824	
5811	0	32604	32812	
5812	0	32580	32746	
5813	0	32560	32686	
5814	0	32646	32688	
5815	0	32578	32672	
5816	0	32564	32679	
5817	0	32674	32686	
5818	0	32808	32721	
5819	0	32700	32671	
5820	0	33084	32753	
5821	0	32838	32808	
5822	0	32752	32762	
5823	0	32900	32838	
5824	0	33048	32838	
5825	0	32880	32750	
5826	0	32812	32718	
5827	0	32852	32636	
5828	0	32752	32567	
5829	0	32804	32586	
5830	0	33012	32636	
5831	0	32804	32678	
5832	0	32796	32683	
5833	0	32768	32618	
5834	0	32810	32572	
5835	0	32836	32668	
5836	0	32780	32738	
5837	0	32786	32804	
5838	0	32748	32918	
5839	0	32840	32970	
5840	0	32884	32884	
5841	0	32812	32958	
5842	0	32828	32775	
5843	0	32788	32948	
5844	0	32702	32802	
5845	0	32826	32822	
5846	0	32808	32846	
5847	0	32832	32786	
5848	0	32820	32802	
5849	0	32586	32736	
5850	0	32696	32716	
5851	0	32872	32822	
5852	0	32720	32839	
5853	0	32900	32775	
5854	0	32904	32768	
5855	0	32714	32810	
5856	0	32730	32807	
5857	0	33052	32812	
5858	0	32666	32764	
5859	0	32772	32664	
5860	0	32770	32686	
5861	0	32850	32686	
5862	0	32856	32540	
5863	0	32856	32528	
5864	0	32878	32519	
5865	0	32832	32646	
5866	0	32865	32600	
5867	0	32774	32636	
5868	0	32788	32710	
5869	0	32894	32742	
5870	0	32956	32746	
5871	0	33000	32705	
5872	0	32948	32727	
5873	0	32968	32822	
5874	0	32900	32817	
5875	0	32708	32808	
5876	0	32741	32834	
5877	0	32676	32700	
5878	0	32648	32752	
5879	0	32612	32696	
5880	0	32620	32775	
5881	0	32632	32854	
5882	0	32790	32844	
5883	0	32828	32774	
5884	0	32804	32756	
5885	0	32772	32726	
5886	0	32752	32766	
5887	0	32712	32728	
5888	0	32642	32725	
5889	0	32756	32807	
5890	0	32708	32926	
5891	0	32936	32814	
5892	0	33008	32834	
5893	0	32886	32820	
5894	0	32908	32820	
5895	0	32888	32838	
5896	0	32962	32794	
5897	0	32888	32903	
5898	0	32832	32839	
5899	0	32816	32743	
5900	0	33084	32798	
5901	0	32814	32796	
5902	0	32812	32868	
5903	0	32912	32672	
5904	0	32758	32828	
5905	0	32798	32822	
5906	0	32812	32840	
5907	0	32752	32794	
5908	0	32904	32816	
5909	0	32822	32796	
5910	0	32808	32700	
5911	0	32764	32764	
5912	0	32804	32913	
5913	0	32984	32826	
5914	0	33064	32794	
5915	0	32988	32727	
5916	0	32848	32858	
5917	0	32740	32863	
5918	0	32748	32870	
5919	0	32690	32790	
5920	0	32604	32800	
5921	0	32512	32788	
5922	0	32672	32794	
5923	0	32576	32758	
5924	0	32704	32798	
5925	0	32696	32830	
5926	0	32780	32790	
5927	0	32792	32671	
5928	0	32920	32758	
5929	0	32882	32692	
5930	0	32952	32664	
5931	0	32922	32720	
5932	0	32904	32644	
5933	0	32940	32706	
5934	0	32864	32682	
5935	0	32820	32682	
5936	0	32916	32860	
5937	0	32920	32856	
5938	0	32922	32866	
5939	0	33000	32786	
5940	0	32940	32756	
5941	0	32808	32730	
5942	0	32880	32702	
5943	0	32760	32623	
5944	0	32752	32696	
5945	0	32772	32634	
5946	0	32744	32618	
5947	0	32870	32544	
5948	0	32754	32519	
5949	0	32646	32554	
5950	0	32492	32576	
5951	0	32596	32530	
5952	0	32794	32472	
5953	0	32916	32543	
5954	0	32884	32519	
5955	0	32892	32455	
5956	0	33012	32494	
5957	0	33074	32485	
5958	0	32968	32591	
5959	0	33060	32562	
5960	0	33042	32600	
5961	0	32952	32564	
5962	0	32746	32625	
5963	0	32768	32710	
5964	0	32796	32908	
5965	0	32740	33082	
5966	0	32790	33262	
5967	0	32732	33464	
5968	0	32686	33462	
5969	0	32436	33528	
5970	0	32580	33572	
5971	0	32500	33588	
5972	0	32546	33634	
5973	0	32666	33518	
5974	0	32526	33484	
5975	0	32654	33382	
5976	0	32678	33233	
5977	0	32654	33082	
5978	0	32736	32932	
5979	0	32716	32634	
5980	0	32756	32576	
5981	0	32822	32552	
5982	0	32742	32436	
5983	0	32792	32378	
5984	0	32944	32230	
5985	0	32864	32244	
5986	0	33004	32333	
5987	0	32940	32259	
5988	0	32894	32362	
5989	0	32932	32519	
5990	0	32952	32556	
5991	0	32812	32622	
5992	0	32820	32704	
5993	0	32900	32774	
5994	0	32958	32698	
5995	0	32904	32690	
5996	0	32788	32700	
5997	0	32804	32710	
5998	0	32868	32671	
5999	0	32942	32734	
6000	0	32944	32760	
6001	0	32904	32764	
6002	0	32824	32788	
6003	0	32924	32820	
6004	0	32824	32715	
6005	0	32816	32582	
6006	0	32816	32644	
6007	0	32784	32698	
6008	0	32772	32710	
6009	0	32804	32654	
6010	0	32820	32737	
6011	0	32810	32738	
6012	0	32814	32727	
