# OpenSignals Text File Format. Version 1
# {"00:07:80:8C:0A:39": {"position": 0, "device": "biosignalsplux", "device name": "00:07:80:8C:0A:39", "device connection": "BTH00:07:80:8C:0A:39", "sampling rate": 1000, "resolution": [16, 16], "firmware version": 776, "comments": "", "keywords": "", "mode": 0, "sync interval": 2, "date": "2023-3-16", "time": "10:30:57.549", "channels": [1, 2], "sensor": ["EMG", "EMG"], "label": ["CH1", "CH2"], "column": ["nSeq", "DI", "CH1", "CH2"], "special": [{"SpO2": [80, 40, 5, 4, 3, 3]}, {"SpO2": [80, 40, 5, 4, 3, 3]}, {"SpO2": [80, 40, 5, 4, 3, 3]}, {"SpO2": [80, 40, 5, 4, 3, 3]}, {"SpO2": [80, 40, 5, 4, 3, 3]}, {"SpO2": [80, 40, 5, 4, 3, 3]}, {"SpO2": [80, 40, 5, 4, 3, 3]}, {"SpO2": [80, 40, 5, 4, 3, 3]}], "digital IO": [0, 1], "sleeve color": ["gray", "yellow"], "convertedValues": 0}}
# EndOfHeader
0	0	32800	32672	
1	0	32828	32718	
2	0	32836	32702	
3	0	32884	32754	
4	0	32816	32812	
5	0	32826	32808	
6	0	32752	32816	
7	0	32732	32770	
8	0	32774	32782	
9	0	32852	32766	
10	0	32838	32824	
11	0	32772	32830	
12	0	32868	32814	
13	0	32804	32740	
14	0	32784	32720	
15	0	32830	32728	
16	0	32876	32766	
17	0	32816	32821	
18	0	32776	32738	
19	0	32768	32672	
20	0	32852	32686	
21	0	32914	32714	
22	0	32808	32812	
23	0	32770	32668	
24	0	32836	32708	
25	0	32834	32738	
26	0	32892	32694	
27	0	32784	32657	
28	0	32768	32838	
29	0	32752	32816	
30	0	32788	32738	
31	0	32792	32770	
32	0	32800	32719	
33	0	32808	32759	
34	0	32780	32774	
35	0	32784	32826	
36	0	32836	32775	
37	0	32810	32692	
38	0	32808	32692	
39	0	32768	32687	
40	0	32762	32676	
41	0	32804	32802	
42	0	32844	32726	
43	0	32796	32886	
44	0	32848	32824	
45	0	32828	32764	
46	0	32874	32754	
47	0	32844	32732	
48	0	32824	32719	
49	0	32768	32820	
50	0	32834	32860	
51	0	32882	32884	
52	0	32788	32830	
53	0	32766	32874	
54	0	32792	32807	
55	0	32768	32772	
56	0	32704	32770	
57	0	32836	32836	
58	0	32906	32806	
59	0	32820	32751	
60	0	32792	32710	
61	0	32789	32888	
62	0	32836	32832	
63	0	32832	32866	
64	0	32812	32806	
65	0	32804	32694	
66	0	32832	32784	
67	0	32794	32766	
68	0	32854	32852	
69	0	32780	32770	
70	0	32808	32668	
71	0	32794	32700	
72	0	32764	32735	
73	0	32810	32740	
74	0	32852	32668	
75	0	32868	32812	
76	0	32852	32775	
77	0	32800	32728	
78	0	32808	32854	
79	0	32884	32804	
80	0	32830	32682	
81	0	32806	32784	
82	0	32836	32762	
83	0	32816	32848	
84	0	32816	32789	
85	0	32792	32711	
86	0	32736	32849	
87	0	32764	32775	
88	0	32768	32714	
89	0	32786	32688	
90	0	32784	32764	
91	0	32788	32724	
92	0	32820	32832	
93	0	32830	32775	
94	0	32848	32806	
95	0	32860	32892	
96	0	32776	32812	
97	0	32792	32854	
98	0	32770	32800	
99	0	32840	32772	
100	0	32756	32696	
101	0	32790	32856	
102	0	32756	32716	
103	0	32761	32754	
104	0	32832	32838	
105	0	32852	32746	
106	0	32866	32734	
107	0	32836	32732	
108	0	32780	32834	
109	0	32748	32753	
110	0	32772	32746	
111	0	32790	32775	
112	0	32788	32810	
113	0	32832	32706	
114	0	32760	32702	
115	0	32780	32678	
116	0	32798	32724	
117	0	32840	32698	
118	0	32800	32825	
119	0	32900	32738	
120	0	32856	32758	
121	0	32764	32756	
122	0	32820	32808	
123	0	32770	32802	
124	0	32844	32766	
125	0	32828	32762	
126	0	32810	32798	
127	0	32866	32800	
128	0	32828	32782	
129	0	32788	32770	
130	0	32856	32839	
131	0	32810	32791	
132	0	32832	32812	
133	0	32782	32656	
134	0	32790	32706	
135	0	32842	32695	
136	0	32840	32700	
137	0	32792	32836	
138	0	32844	32775	
139	0	32842	32775	
140	0	32768	32748	
141	0	32808	32732	
142	0	32772	32794	
143	0	32798	32900	
144	0	32864	32775	
145	0	32764	32750	
146	0	32840	32690	
147	0	32800	32688	
148	0	32768	32650	
149	0	32752	32756	
150	0	32776	32768	
151	0	32844	32870	
152	0	32826	32730	
153	0	32798	32732	
154	0	32860	32770	
155	0	32768	32806	
156	0	32846	32775	
157	0	32788	32761	
158	0	32776	32822	
159	0	32810	32704	
160	0	32872	32583	
161	0	32762	32732	
162	0	32820	32766	
163	0	32872	32804	
164	0	32740	32738	
165	0	32820	32750	
166	0	32778	32836	
167	0	32830	32743	
168	0	32872	32822	
169	0	32780	32828	
170	0	32776	32686	
171	0	32864	32748	
172	0	32828	32917	
173	0	32744	32766	
174	0	32856	32756	
175	0	32760	32702	
176	0	32789	32684	
177	0	32792	32695	
178	0	32800	32830	
179	0	32936	32816	
180	0	32794	32738	
181	0	32766	32744	
182	0	32810	32722	
183	0	32796	32918	
184	0	32772	32853	
185	0	32804	32796	
186	0	32791	32788	
187	0	32792	32788	
188	0	32834	32748	
189	0	32836	32839	
190	0	32806	32768	
191	0	32828	32700	
192	0	32816	32700	
193	0	32900	32679	
194	0	32836	32692	
195	0	32734	32775	
196	0	32832	32774	
197	0	32796	32728	
198	0	32788	32760	
199	0	32820	32864	
200	0	32778	32742	
201	0	32860	32775	
202	0	32844	32730	
203	0	32780	32724	
204	0	32826	32730	
205	0	32775	32680	
206	0	32788	32729	
207	0	32764	32704	
208	0	32800	32711	
209	0	32776	32699	
210	0	32800	32766	
211	0	32788	32718	
212	0	32806	32826	
213	0	32768	32804	
214	0	32760	32852	
215	0	32824	32708	
216	0	32836	32775	
217	0	32794	32826	
218	0	32820	32775	
219	0	32804	32806	
220	0	32760	32718	
221	0	32829	32704	
222	0	32868	32756	
223	0	32820	32827	
224	0	32812	32764	
225	0	32832	32674	
226	0	32842	32743	
227	0	32828	32666	
228	0	32798	32772	
229	0	32804	32684	
230	0	32864	32724	
231	0	32804	32768	
232	0	32868	32750	
233	0	32826	32772	
234	0	32808	32834	
235	0	32756	32894	
236	0	32872	32774	
237	0	32788	32736	
238	0	32782	32746	
239	0	32806	32728	
240	0	32820	32794	
241	0	32820	32815	
242	0	32800	32755	
243	0	32848	32792	
244	0	32742	32756	
245	0	32852	32770	
246	0	32780	32839	
247	0	32772	32788	
248	0	32804	32839	
249	0	32848	32810	
250	0	32836	32820	
251	0	32730	32680	
252	0	32830	32764	
253	0	32824	32702	
254	0	32894	32752	
255	0	32816	32775	
256	0	32832	32726	
257	0	32880	32693	
258	0	32832	32650	
259	0	32788	32752	
260	0	32740	32684	
261	0	32888	32876	
262	0	32792	32756	
263	0	32770	32724	
264	0	32764	32758	
265	0	32756	32836	
266	0	32770	32770	
267	0	32824	32818	
268	0	32760	32791	
269	0	32784	32711	
270	0	32834	32784	
271	0	32844	32764	
272	0	32784	32716	
273	0	32756	32818	
274	0	32792	32814	
275	0	32808	32738	
276	0	32788	32718	
277	0	32824	32646	
278	0	32790	32654	
279	0	32824	32672	
280	0	32784	32708	
281	0	32764	32857	
282	0	32812	32818	
283	0	32770	32802	
284	0	32818	32727	
285	0	32816	32740	
286	0	32817	32824	
287	0	32848	32744	
288	0	32868	32767	
289	0	32788	32728	
290	0	32870	32775	
291	0	32918	32810	
292	0	32864	32732	
293	0	32876	32775	
294	0	32800	32775	
295	0	32794	32796	
296	0	32794	32775	
297	0	32784	32684	
298	0	32774	32684	
299	0	32804	32698	
300	0	32780	32640	
301	0	32836	32636	
302	0	32810	32712	
303	0	32824	32711	
304	0	32790	32696	
305	0	32838	32768	
306	0	32828	32690	
307	0	32800	32819	
308	0	32770	32842	
309	0	32782	32734	
310	0	32834	32806	
311	0	32808	32820	
312	0	32836	32828	
313	0	32852	32793	
314	0	32778	32724	
315	0	32856	32799	
316	0	32864	32814	
317	0	32788	32842	
318	0	32764	32775	
319	0	32764	32743	
320	0	32760	32759	
321	0	32790	32772	
322	0	32760	32679	
323	0	32830	32704	
324	0	32804	32707	
325	0	32776	32692	
326	0	32906	32763	
327	0	32844	32867	
328	0	32800	32722	
329	0	32776	32730	
330	0	32856	32727	
331	0	32838	32847	
332	0	32814	32824	
333	0	32800	32750	
334	0	32780	32775	
335	0	32752	32724	
336	0	32832	32800	
337	0	32774	32695	
338	0	32822	32888	
339	0	32772	32756	
340	0	32828	32696	
341	0	32824	32756	
342	0	32800	32774	
343	0	32824	32872	
344	0	32812	32820	
345	0	32804	32814	
346	0	32768	32823	
347	0	32816	32828	
348	0	32800	32770	
349	0	32820	32814	
350	0	32836	32864	
351	0	32796	32764	
352	0	32770	32788	
353	0	32792	32791	
354	0	32848	32792	
355	0	32800	32684	
356	0	32802	32674	
357	0	32830	32732	
358	0	32790	32664	
359	0	32792	32668	
360	0	32840	32710	
361	0	32842	32736	
362	0	32784	32730	
363	0	32761	32704	
364	0	32768	32844	
365	0	32836	32718	
366	0	32824	32770	
367	0	32812	32686	
368	0	32844	32858	
369	0	32784	32800	
370	0	32844	32758	
371	0	32804	32790	
372	0	32708	32836	
373	0	32820	32828	
374	0	32824	32860	
375	0	32800	32774	
376	0	32856	32788	
377	0	32806	32824	
378	0	32828	32756	
379	0	32846	32818	
380	0	32808	32742	
381	0	32748	32756	
382	0	32808	32692	
383	0	32868	32810	
384	0	32824	32809	
385	0	32786	32791	
386	0	32916	32878	
387	0	32852	32820	
388	0	32774	32760	
389	0	32824	32759	
390	0	32834	32742	
391	0	32868	32770	
392	0	32836	32754	
393	0	32732	32732	
394	0	32780	32846	
395	0	32756	32774	
396	0	32784	32886	
397	0	32718	32742	
398	0	32744	32662	
399	0	32772	32644	
400	0	32776	32598	
401	0	32768	32609	
402	0	32684	32638	
403	0	32716	32599	
404	0	32662	32716	
405	0	32752	32647	
406	0	32704	32664	
407	0	32736	32708	
408	0	32750	32796	
409	0	32698	32828	
410	0	32662	32695	
411	0	32696	32668	
412	0	32732	32694	
413	0	32710	32764	
414	0	32704	32791	
415	0	32752	32792	
416	0	32768	32863	
417	0	32792	32800	
418	0	32744	32764	
419	0	32769	32791	
420	0	32792	32866	
421	0	32916	32903	
422	0	33040	32932	
423	0	33012	32998	
424	0	33116	33084	
425	0	33076	33084	
426	0	33165	33132	
427	0	33172	33047	
428	0	33060	32986	
429	0	33044	32920	
430	0	33056	32748	
431	0	33096	32768	
432	0	33048	32647	
433	0	33056	32706	
434	0	33000	32756	
435	0	32944	32750	
436	0	32880	32902	
437	0	32832	32836	
438	0	32690	32668	
439	0	32768	32671	
440	0	32680	32720	
441	0	32736	32692	
442	0	32712	32743	
443	0	32668	32666	
444	0	32648	32664	
445	0	32646	32628	
446	0	32612	32560	
447	0	32718	32727	
448	0	32672	32748	
449	0	32680	32726	
450	0	32713	32728	
451	0	32728	32748	
452	0	32684	32692	
453	0	32784	32692	
454	0	32782	32730	
455	0	32788	32800	
456	0	32800	32775	
457	0	32828	32804	
458	0	32837	32792	
459	0	32908	32712	
460	0	32840	32688	
461	0	32836	32720	
462	0	32808	32706	
463	0	32834	32721	
464	0	32832	32809	
465	0	32744	32852	
466	0	32828	32884	
467	0	32808	32768	
468	0	32780	32742	
469	0	32780	32680	
470	0	32846	32798	
471	0	32808	32732	
472	0	32732	32752	
473	0	32756	32796	
474	0	32804	32762	
475	0	32744	32768	
476	0	32804	32714	
477	0	32856	32767	
478	0	32788	32773	
479	0	32796	32790	
480	0	32782	32783	
481	0	32820	32726	
482	0	32790	32740	
483	0	32810	32726	
484	0	32808	32788	
485	0	32816	32752	
486	0	32828	32775	
487	0	32766	32748	
488	0	32848	32774	
489	0	32856	32684	
490	0	32760	32775	
491	0	32808	32890	
492	0	32840	32884	
493	0	32876	32839	
494	0	32840	32732	
495	0	32774	32742	
496	0	32818	32828	
497	0	32800	32858	
498	0	32788	32806	
499	0	32748	32720	
500	0	32872	32644	
501	0	32824	32696	
502	0	32772	32640	
503	0	32790	32724	
504	0	32820	32844	
505	0	32812	32856	
506	0	32816	32804	
507	0	32770	32822	
508	0	32820	32698	
509	0	32724	32792	
510	0	32804	32910	
511	0	32832	32704	
512	0	32886	32736	
513	0	32832	32714	
514	0	32822	32719	
515	0	32804	32822	
516	0	32812	32806	
517	0	32816	32711	
518	0	32796	32748	
519	0	32808	32836	
520	0	32769	32844	
521	0	32812	32754	
522	0	32788	32770	
523	0	32782	32744	
524	0	32824	32772	
525	0	32879	32687	
526	0	32808	32698	
527	0	32768	32752	
528	0	32820	32922	
529	0	32844	32830	
530	0	32826	32802	
531	0	32801	32775	
532	0	32826	32732	
533	0	32788	32738	
534	0	32804	32772	
535	0	32812	32727	
536	0	32822	32804	
537	0	32780	32684	
538	0	32842	32772	
539	0	32768	32839	
540	0	32762	32806	
541	0	32756	32726	
542	0	32882	32866	
543	0	32794	32806	
544	0	32790	32742	
545	0	32814	32760	
546	0	32772	32768	
547	0	32794	32750	
548	0	32828	32734	
549	0	32812	32801	
550	0	32760	32754	
551	0	32840	32774	
552	0	32798	32807	
553	0	32726	32790	
554	0	32785	32668	
555	0	32760	32721	
556	0	32816	32863	
557	0	32840	32795	
558	0	32818	32724	
559	0	32856	32805	
560	0	32832	32800	
561	0	32804	32802	
562	0	32784	32800	
563	0	32824	32820	
564	0	32844	32775	
565	0	32806	32714	
566	0	32900	32772	
567	0	32760	32831	
568	0	32816	32716	
569	0	32772	32738	
570	0	32756	32772	
571	0	32816	32842	
572	0	32800	32764	
573	0	32836	32697	
574	0	32814	32679	
575	0	32812	32708	
576	0	32802	32725	
577	0	32832	32736	
578	0	32836	32740	
579	0	32800	32672	
580	0	32848	32740	
581	0	32876	32902	
582	0	32754	32824	
583	0	32784	32798	
584	0	32770	32870	
585	0	32808	32736	
586	0	32808	32766	
587	0	32808	32784	
588	0	32848	32734	
589	0	32784	32770	
590	0	32814	32796	
591	0	32808	32775	
592	0	32870	32817	
593	0	32816	32799	
594	0	32736	32906	
595	0	32828	32864	
596	0	32777	32807	
597	0	32856	32808	
598	0	32816	32768	
599	0	32865	32736	
600	0	32840	32760	
601	0	32840	32764	
602	0	32808	32774	
603	0	32818	32866	
604	0	32816	32744	
605	0	32782	32820	
606	0	32816	32746	
607	0	32848	32753	
608	0	32854	32799	
609	0	32798	32798	
610	0	32796	32855	
611	0	32756	32799	
612	0	32844	32780	
613	0	32864	32840	
614	0	32796	32850	
615	0	32840	32785	
616	0	32844	32854	
617	0	32808	32688	
618	0	32770	32743	
619	0	32752	32823	
620	0	32744	32767	
621	0	32804	32764	
622	0	32844	32734	
623	0	32798	32760	
624	0	32800	32775	
625	0	32850	32820	
626	0	32814	32822	
627	0	32854	32823	
628	0	32848	32796	
629	0	32824	32768	
630	0	32844	32692	
631	0	32842	32655	
632	0	32818	32746	
633	0	32728	32774	
634	0	32828	32734	
635	0	32904	32839	
636	0	32828	32844	
637	0	32828	32728	
638	0	32812	32810	
639	0	32824	32828	
640	0	32836	32710	
641	0	32828	32740	
642	0	32840	32860	
643	0	32792	32822	
644	0	32800	32828	
645	0	32874	32855	
646	0	32832	32762	
647	0	32810	32714	
648	0	32798	32765	
649	0	32816	32798	
650	0	32798	32743	
651	0	32789	32764	
652	0	32884	32791	
653	0	32736	32816	
654	0	32788	32766	
655	0	32808	32846	
656	0	32808	32774	
657	0	32828	32756	
658	0	32804	32775	
659	0	32780	32792	
660	0	32862	32764	
661	0	32872	32774	
662	0	32868	32686	
663	0	32840	32740	
664	0	32824	32750	
665	0	32812	32704	
666	0	32808	32849	
667	0	32828	32806	
668	0	32804	32789	
669	0	32740	32704	
670	0	32796	32830	
671	0	32806	32832	
672	0	32774	32784	
673	0	32824	32705	
674	0	32844	32720	
675	0	32858	32784	
676	0	32856	32793	
677	0	32820	32654	
678	0	32796	32674	
679	0	32808	32724	
680	0	32852	32660	
681	0	32816	32706	
682	0	32804	32678	
683	0	32792	32710	
684	0	32782	32703	
685	0	32844	32748	
686	0	32788	32692	
687	0	32720	32796	
688	0	32810	32884	
689	0	32876	32748	
690	0	32740	32839	
691	0	32796	32772	
692	0	32776	32882	
693	0	32720	32784	
694	0	32848	32836	
695	0	32808	32846	
696	0	32764	32775	
697	0	32810	32736	
698	0	32820	32812	
699	0	32836	32803	
700	0	32780	32816	
701	0	32870	32788	
702	0	32800	32792	
703	0	32764	32790	
704	0	32816	32770	
705	0	32820	32712	
706	0	32802	32678	
707	0	32814	32704	
708	0	32794	32662	
709	0	32822	32704	
710	0	32745	32700	
711	0	32800	32740	
712	0	32816	32752	
713	0	32820	32692	
714	0	32816	32664	
715	0	32848	32740	
716	0	32856	32788	
717	0	32788	32668	
718	0	32770	32720	
719	0	32808	32747	
720	0	32792	32775	
721	0	32860	32680	
722	0	32736	32699	
723	0	32792	32742	
724	0	32758	32753	
725	0	32808	32762	
726	0	32852	32820	
727	0	32880	32838	
728	0	32844	32783	
729	0	32768	32828	
730	0	32866	32775	
731	0	32832	32798	
732	0	32782	32927	
733	0	32768	32788	
734	0	32836	32888	
735	0	32808	32668	
736	0	32802	32664	
737	0	32789	32684	
738	0	32800	32766	
739	0	32800	32670	
740	0	32792	32682	
741	0	32792	32838	
742	0	32844	32823	
743	0	32820	32828	
744	0	32806	32775	
745	0	32800	32710	
746	0	32790	32746	
747	0	32834	32720	
748	0	32808	32775	
749	0	32858	32814	
750	0	32754	32794	
751	0	32796	32788	
752	0	32778	32720	
753	0	32808	32708	
754	0	32856	32806	
755	0	32868	32834	
756	0	32824	32810	
757	0	32792	32796	
758	0	32824	32766	
759	0	32934	32802	
760	0	32852	32775	
761	0	32852	32770	
762	0	32826	32647	
763	0	32764	32647	
764	0	32766	32730	
765	0	32766	32820	
766	0	32800	32766	
767	0	32846	32792	
768	0	32784	32794	
769	0	32808	32799	
770	0	32840	32828	
771	0	32796	32810	
772	0	32808	32764	
773	0	32810	32775	
774	0	32840	32743	
775	0	32826	32662	
776	0	32806	32646	
777	0	32812	32706	
778	0	32848	32660	
779	0	32818	32684	
780	0	32776	32732	
781	0	32820	32728	
782	0	32820	32735	
783	0	32880	32688	
784	0	32880	32743	
785	0	32788	32647	
786	0	32752	32621	
787	0	32816	32804	
788	0	32796	32792	
789	0	32748	32798	
790	0	32762	32800	
791	0	32854	32767	
792	0	32802	32744	
793	0	32788	32832	
794	0	32837	32743	
795	0	32788	32654	
796	0	32820	32684	
797	0	32784	32628	
798	0	32874	32684	
799	0	32824	32790	
800	0	32816	32811	
801	0	32832	32804	
802	0	32880	32764	
803	0	32794	32758	
804	0	32900	32759	
805	0	32758	32794	
806	0	32772	32830	
807	0	32824	32890	
808	0	32708	32800	
809	0	32816	32816	
810	0	32786	32708	
811	0	32846	32744	
812	0	32852	32716	
813	0	32816	32792	
814	0	32742	32810	
815	0	32804	32814	
816	0	32833	32823	
817	0	32862	32762	
818	0	32872	32790	
819	0	32810	32757	
820	0	32778	32790	
821	0	32804	32784	
822	0	32785	32855	
823	0	32808	32711	
824	0	32836	32710	
825	0	32824	32795	
826	0	32832	32775	
827	0	32820	32740	
828	0	32812	32808	
829	0	32808	32832	
830	0	32821	32788	
831	0	32800	32783	
832	0	32784	32679	
833	0	32788	32762	
834	0	32776	32730	
835	0	32856	32732	
836	0	32740	32748	
837	0	32766	32724	
838	0	32810	32802	
839	0	32804	32758	
840	0	32836	32740	
841	0	32792	32750	
842	0	32814	32774	
843	0	32802	32816	
844	0	32822	32712	
845	0	32752	32721	
846	0	32810	32727	
847	0	32832	32840	
848	0	32784	32910	
849	0	32844	32884	
850	0	32728	32836	
851	0	32848	32767	
852	0	32782	32798	
853	0	32888	32856	
854	0	32804	32764	
855	0	32808	32764	
856	0	32776	32704	
857	0	32844	32598	
858	0	32736	32679	
859	0	32760	32682	
860	0	32854	32682	
861	0	32888	32850	
862	0	32852	32791	
863	0	32836	32798	
864	0	32824	32769	
865	0	32886	32748	
866	0	32853	32830	
867	0	32780	32806	
868	0	32748	32822	
869	0	32805	32743	
870	0	32750	32708	
871	0	32844	32748	
872	0	32826	32642	
873	0	32814	32695	
874	0	32788	32766	
875	0	32760	32824	
876	0	32792	32807	
877	0	32832	32772	
878	0	32864	32697	
879	0	32786	32868	
880	0	32828	32746	
881	0	32790	32760	
882	0	32784	32696	
883	0	32832	32672	
884	0	32870	32684	
885	0	32842	32775	
886	0	32796	32831	
887	0	32794	32808	
888	0	32814	32764	
889	0	32836	32854	
890	0	32776	32834	
891	0	32828	32768	
892	0	32818	32732	
893	0	32762	32856	
894	0	32884	32789	
895	0	32846	32742	
896	0	32740	32803	
897	0	32828	32775	
898	0	32840	32720	
899	0	32844	32711	
900	0	32800	32740	
901	0	32796	32871	
902	0	32804	32774	
903	0	32764	32772	
904	0	32858	32750	
905	0	32744	32725	
906	0	32864	32644	
907	0	32752	32660	
908	0	32730	32766	
909	0	32844	32660	
910	0	32836	32743	
911	0	32846	32828	
912	0	32808	32784	
913	0	32878	32820	
914	0	32740	32775	
915	0	32764	32775	
916	0	32802	32871	
917	0	32862	32788	
918	0	32820	32735	
919	0	32798	32740	
920	0	32792	32706	
921	0	32796	32736	
922	0	32816	32680	
923	0	32772	32710	
924	0	32744	32769	
925	0	32848	32788	
926	0	32836	32642	
927	0	32840	32775	
928	0	32886	32765	
929	0	32832	32720	
930	0	32780	32767	
931	0	32857	32764	
932	0	32780	32775	
933	0	32784	32697	
934	0	32766	32814	
935	0	32806	32843	
936	0	32856	32822	
937	0	32808	32804	
938	0	32780	32671	
939	0	32798	32672	
940	0	32796	32646	
941	0	32808	32726	
942	0	32808	32868	
943	0	32876	32812	
944	0	32902	32775	
945	0	32842	32807	
946	0	32856	32740	
947	0	32800	32808	
948	0	32804	32838	
949	0	32792	32804	
950	0	32760	32775	
951	0	32800	32796	
952	0	32752	32812	
953	0	32836	32750	
954	0	32752	32703	
955	0	32846	32724	
956	0	32764	32775	
957	0	32764	32738	
958	0	32760	32724	
959	0	32796	32796	
960	0	32837	32847	
961	0	32798	32804	
962	0	32742	32774	
963	0	32708	32775	
964	0	32774	32790	
965	0	32792	32736	
966	0	32856	32713	
967	0	32796	32737	
968	0	32808	32820	
969	0	32848	32818	
970	0	32870	32768	
971	0	32800	32775	
972	0	32768	32830	
973	0	32776	32738	
974	0	32874	32673	
975	0	32896	32703	
976	0	32844	32701	
977	0	32868	32828	
978	0	32758	32756	
979	0	32730	32808	
980	0	32820	32775	
981	0	32880	32720	
982	0	32796	32618	
983	0	32796	32714	
984	0	32824	32822	
985	0	32770	32818	
986	0	32840	32798	
987	0	32846	32816	
988	0	32862	32771	
989	0	32816	32710	
990	0	32808	32680	
991	0	32772	32814	
992	0	32780	32759	
993	0	32832	32844	
994	0	32812	32740	
995	0	32828	32818	
996	0	32806	32756	
997	0	32778	32820	
998	0	32824	32702	
999	0	32764	32834	
1000	0	32776	32793	
1001	0	32896	32762	
1002	0	32816	32860	
1003	0	32774	32750	
1004	0	32832	32734	
1005	0	32844	32672	
1006	0	32812	32812	
1007	0	32814	32757	
1008	0	32828	32775	
1009	0	32844	32671	
1010	0	32816	32702	
1011	0	32804	32846	
1012	0	32868	32744	
1013	0	32780	32740	
1014	0	32828	32775	
1015	0	32784	32824	
1016	0	32828	32684	
1017	0	32776	32624	
1018	0	32724	32822	
1019	0	32754	32832	
1020	0	32812	32764	
1021	0	32832	32740	
1022	0	32820	32798	
1023	0	32788	32722	
1024	0	32740	32718	
1025	0	32816	32770	
1026	0	32789	32807	
1027	0	32824	32806	
1028	0	32804	32804	
1029	0	32856	32722	
1030	0	32820	32687	
1031	0	32808	32758	
1032	0	32836	32814	
1033	0	32824	32724	
1034	0	32866	32864	
1035	0	32855	32736	
1036	0	32824	32712	
1037	0	32790	32674	
1038	0	32808	32860	
1039	0	32756	32775	
1040	0	32808	32742	
1041	0	32776	32774	
1042	0	32788	32714	
1043	0	32844	32775	
1044	0	32852	32744	
1045	0	32805	32752	
1046	0	32824	32724	
1047	0	32860	32856	
1048	0	32758	32728	
1049	0	32810	32746	
1050	0	32804	32724	
1051	0	32788	32876	
1052	0	32720	32775	
1053	0	32766	32630	
1054	0	32784	32756	
1055	0	32844	32748	
1056	0	32826	32868	
1057	0	32880	32854	
1058	0	32836	32818	
1059	0	32832	32727	
1060	0	32820	32820	
1061	0	32774	32737	
1062	0	32824	32798	
1063	0	32796	32743	
1064	0	32788	32712	
1065	0	32804	32652	
1066	0	32820	32736	
1067	0	32862	32784	
1068	0	32798	32802	
1069	0	32824	32838	
1070	0	32828	32860	
1071	0	32796	32782	
1072	0	32808	32736	
1073	0	32848	32734	
1074	0	32840	32722	
1075	0	32788	32764	
1076	0	32840	32862	
1077	0	32858	32815	
1078	0	32796	32758	
1079	0	32836	32884	
1080	0	32780	32743	
1081	0	32840	32826	
1082	0	32796	32710	
1083	0	32844	32794	
1084	0	32796	32764	
1085	0	32864	32752	
1086	0	32876	32692	
1087	0	32822	32680	
1088	0	32826	32839	
1089	0	32768	32786	
1090	0	32775	32744	
1091	0	32764	32828	
1092	0	32768	32764	
1093	0	32788	32774	
1094	0	32800	32760	
1095	0	32842	32740	
1096	0	32872	32686	
1097	0	32788	32716	
1098	0	32780	32712	
1099	0	32750	32703	
1100	0	32796	32775	
1101	0	32764	32748	
1102	0	32814	32772	
1103	0	32756	32702	
1104	0	32736	32766	
1105	0	32812	32752	
1106	0	32816	32708	
1107	0	32812	32736	
1108	0	32814	32788	
1109	0	32772	32871	
1110	0	32821	32767	
1111	0	32844	32812	
1112	0	32814	32802	
1113	0	32764	32720	
1114	0	32836	32758	
1115	0	32858	32838	
1116	0	32754	32822	
1117	0	32816	32740	
1118	0	32775	32801	
1119	0	32872	32834	
1120	0	32780	32768	
1121	0	32712	32730	
1122	0	32700	32698	
1123	0	32788	32679	
1124	0	32826	32760	
1125	0	32850	32720	
1126	0	32804	32747	
1127	0	32768	32710	
1128	0	32810	32700	
1129	0	32808	32694	
1130	0	32844	32656	
1131	0	32754	32718	
1132	0	32764	32644	
1133	0	32730	32810	
1134	0	32832	32727	
1135	0	32856	32824	
1136	0	32806	32898	
1137	0	32868	32796	
1138	0	32816	32759	
1139	0	32810	32758	
1140	0	32798	32694	
1141	0	32880	32866	
1142	0	32842	32812	
1143	0	32804	32755	
1144	0	32860	32872	
1145	0	32808	32790	
1146	0	32784	32804	
1147	0	32796	32838	
1148	0	32742	32803	
1149	0	32704	32850	
1150	0	32808	32804	
1151	0	32904	32766	
1152	0	32764	32764	
1153	0	32796	32798	
1154	0	32784	32812	
1155	0	32802	32824	
1156	0	32788	32764	
1157	0	32740	32687	
1158	0	32760	32694	
1159	0	32712	32696	
1160	0	32744	32742	
1161	0	32760	32707	
1162	0	32694	32660	
1163	0	32768	32724	
1164	0	32746	32722	
1165	0	32720	32807	
1166	0	32664	32759	
1167	0	32774	32656	
1168	0	32704	32647	
1169	0	32756	32654	
1170	0	32716	32762	
1171	0	32664	32790	
1172	0	32710	32706	
1173	0	32740	32728	
1174	0	32728	32762	
1175	0	32720	32708	
1176	0	32716	32744	
1177	0	32736	32760	
1178	0	32760	32722	
1179	0	32816	32791	
1180	0	32778	32774	
1181	0	32744	32880	
1182	0	32896	32836	
1183	0	32956	32830	
1184	0	33044	32954	
1185	0	33132	33045	
1186	0	33156	33022	
1187	0	33160	33072	
1188	0	33232	33030	
1189	0	33208	32926	
1190	0	33084	32886	
1191	0	33162	32760	
1192	0	33080	32859	
1193	0	33016	32762	
1194	0	32930	32746	
1195	0	32940	32766	
1196	0	32920	32902	
1197	0	32832	32834	
1198	0	32796	32762	
1199	0	32692	32774	
1200	0	32774	32788	
1201	0	32684	32638	
1202	0	32702	32596	
1203	0	32682	32626	
1204	0	32676	32488	
1205	0	32676	32609	
1206	0	32740	32752	
1207	0	32628	32760	
1208	0	32696	32657	
1209	0	32674	32722	
1210	0	32702	32704	
1211	0	32712	32662	
1212	0	32728	32726	
1213	0	32828	32726	
1214	0	32802	32790	
1215	0	32724	32620	
1216	0	32772	32675	
1217	0	32798	32832	
1218	0	32820	32706	
1219	0	32810	32768	
1220	0	32806	32694	
1221	0	32870	32647	
1222	0	32832	32774	
1223	0	32756	32700	
1224	0	32732	32632	
1225	0	32764	32689	
1226	0	32784	32785	
1227	0	32812	32828	
1228	0	32848	32804	
1229	0	32892	32816	
1230	0	32782	32810	
1231	0	32764	32792	
1232	0	32808	32766	
1233	0	32828	32720	
1234	0	32822	32712	
1235	0	32804	32836	
1236	0	32824	32842	
1237	0	32800	32820	
1238	0	32934	32796	
1239	0	32816	32888	
1240	0	32752	32807	
1241	0	32775	32818	
1242	0	32772	32868	
1243	0	32776	32679	
1244	0	32788	32748	
1245	0	32816	32698	
1246	0	32814	32796	
1247	0	32792	32830	
1248	0	32828	32782	
1249	0	32849	32782	
1250	0	32864	32804	
1251	0	32800	32694	
1252	0	32784	32775	
1253	0	32778	32764	
1254	0	32792	32823	
1255	0	32784	32766	
1256	0	32792	32752	
1257	0	32864	32816	
1258	0	32832	32712	
1259	0	32824	32775	
1260	0	32784	32839	
1261	0	32798	32870	
1262	0	32756	32834	
1263	0	32804	32838	
1264	0	32808	32767	
1265	0	32772	32658	
1266	0	32892	32693	
1267	0	32790	32684	
1268	0	32861	32673	
1269	0	32748	32746	
1270	0	32828	32806	
1271	0	32848	32842	
1272	0	32836	32764	
1273	0	32840	32734	
1274	0	32778	32700	
1275	0	32834	32828	
1276	0	32858	32878	
1277	0	32844	32794	
1278	0	32848	32920	
1279	0	32840	32732	
1280	0	32824	32784	
1281	0	32814	32789	
1282	0	32832	32822	
1283	0	32800	32724	
1284	0	32870	32768	
1285	0	32864	32725	
1286	0	32800	32642	
1287	0	32762	32766	
1288	0	32772	32844	
1289	0	32830	32767	
1290	0	32768	32775	
1291	0	32816	32792	
1292	0	32816	32824	
1293	0	32772	32766	
1294	0	32782	32810	
1295	0	32802	32759	
1296	0	32840	32852	
1297	0	32826	32722	
1298	0	32778	32820	
1299	0	32830	32710	
1300	0	32880	32739	
1301	0	32806	32689	
1302	0	32816	32846	
1303	0	32800	32828	
1304	0	32904	32839	
1305	0	32846	32775	
1306	0	32760	32684	
1307	0	32762	32804	
1308	0	32808	32794	
1309	0	32820	32775	
1310	0	32800	32736	
1311	0	32752	32674	
1312	0	32830	32710	
1313	0	32798	32668	
1314	0	32724	32740	
1315	0	32764	32900	
1316	0	32794	32775	
1317	0	32806	32804	
1318	0	32878	32775	
1319	0	32822	32737	
1320	0	32784	32775	
1321	0	32824	32721	
1322	0	32768	32854	
1323	0	32900	32830	
1324	0	32824	32775	
1325	0	32776	32736	
1326	0	32824	32826	
1327	0	32768	32814	
1328	0	32832	32878	
1329	0	32832	32756	
1330	0	32836	32798	
1331	0	32760	32742	
1332	0	32704	32670	
1333	0	32804	32724	
1334	0	32808	32692	
1335	0	32872	32686	
1336	0	32769	32771	
1337	0	32809	32744	
1338	0	32824	32750	
1339	0	32856	32702	
1340	0	32808	32682	
1341	0	32830	32848	
1342	0	32764	32826	
1343	0	32852	32854	
1344	0	32823	32836	
1345	0	32832	32739	
1346	0	32776	32738	
1347	0	32820	32652	
1348	0	32714	32820	
1349	0	32808	32750	
1350	0	32828	32714	
1351	0	32848	32772	
1352	0	32848	32800	
1353	0	32842	32727	
1354	0	32802	32726	
1355	0	32806	32714	
1356	0	32798	32782	
1357	0	32800	32666	
1358	0	32800	32775	
1359	0	32844	32687	
1360	0	32816	32653	
1361	0	32824	32724	
1362	0	32828	32768	
1363	0	32840	32820	
1364	0	32816	32844	
1365	0	32812	32711	
1366	0	32780	32822	
1367	0	32884	32756	
1368	0	32820	32626	
1369	0	32804	32784	
1370	0	32788	32820	
1371	0	32764	32824	
1372	0	32868	32817	
1373	0	32800	32794	
1374	0	32836	32804	
1375	0	32798	32806	
1376	0	32804	32772	
1377	0	32864	32812	
1378	0	32840	32767	
1379	0	32752	32758	
1380	0	32772	32822	
1381	0	32788	32796	
1382	0	32856	32692	
1383	0	32840	32624	
1384	0	32844	32706	
1385	0	32874	32822	
1386	0	32812	32848	
1387	0	32818	32816	
1388	0	32836	32775	
1389	0	32794	32794	
1390	0	32810	32739	
1391	0	32736	32796	
1392	0	32798	32834	
1393	0	32824	32895	
1394	0	32800	32798	
1395	0	32768	32852	
1396	0	32768	32790	
1397	0	32812	32784	
1398	0	32816	32724	
1399	0	32816	32832	
1400	0	32864	32710	
1401	0	32816	32715	
1402	0	32822	32802	
1403	0	32830	32807	
1404	0	32784	32772	
1405	0	32804	32796	
1406	0	32824	32772	
1407	0	32788	32800	
1408	0	32800	32839	
1409	0	32804	32646	
1410	0	32834	32722	
1411	0	32817	32638	
1412	0	32780	32760	
1413	0	32784	32694	
1414	0	32854	32705	
1415	0	32888	32688	
1416	0	32752	32662	
1417	0	32780	32817	
1418	0	32820	32711	
1419	0	32920	32718	
1420	0	32812	32743	
1421	0	32830	32862	
1422	0	32825	32844	
1423	0	32828	32854	
1424	0	32872	32720	
1425	0	32812	32786	
1426	0	32808	32855	
1427	0	32812	32738	
1428	0	32832	32766	
1429	0	32866	32742	
1430	0	32804	32750	
1431	0	32832	32876	
1432	0	32778	32842	
1433	0	32812	32775	
1434	0	32840	32710	
1435	0	32828	32668	
1436	0	32744	32740	
1437	0	32800	32714	
1438	0	32836	32752	
1439	0	32796	32654	
1440	0	32900	32664	
1441	0	32784	32754	
1442	0	32756	32732	
1443	0	32808	32750	
1444	0	32804	32774	
1445	0	32853	32740	
1446	0	32816	32816	
1447	0	32784	32839	
1448	0	32812	32846	
1449	0	32844	32806	
1450	0	32840	32864	
1451	0	32782	32775	
1452	0	32808	32750	
1453	0	32748	32670	
1454	0	32834	32692	
1455	0	32860	32688	
1456	0	32820	32742	
1457	0	32756	32652	
1458	0	32786	32724	
1459	0	32872	32743	
1460	0	32776	32785	
1461	0	32784	32852	
1462	0	32820	32800	
1463	0	32796	32743	
1464	0	32825	32796	
1465	0	32852	32844	
1466	0	32880	32824	
1467	0	32776	32828	
1468	0	32804	32868	
1469	0	32772	32806	
1470	0	32838	32737	
1471	0	32820	32742	
1472	0	32824	32842	
1473	0	32880	32712	
1474	0	32820	32775	
1475	0	32828	32788	
1476	0	32724	32710	
1477	0	32784	32710	
1478	0	32808	32718	
1479	0	32792	32772	
1480	0	32760	32815	
1481	0	32800	32838	
1482	0	32790	32826	
1483	0	32784	32774	
1484	0	32810	32871	
1485	0	32774	32831	
1486	0	32868	32872	
1487	0	32832	32794	
1488	0	32824	32742	
1489	0	32785	32809	
1490	0	32820	32726	
1491	0	32804	32836	
1492	0	32888	32708	
1493	0	32864	32764	
1494	0	32836	32766	
1495	0	32832	32764	
1496	0	32766	32839	
1497	0	32794	32770	
1498	0	32812	32695	
1499	0	32834	32686	
1500	0	32782	32679	
1501	0	32814	32622	
1502	0	32820	32740	
1503	0	32816	32678	
1504	0	32756	32678	
1505	0	32782	32710	
1506	0	32776	32752	
1507	0	32808	32742	
1508	0	32766	32744	
1509	0	32788	32748	
1510	0	32800	32724	
1511	0	32762	32668	
1512	0	32862	32764	
1513	0	32840	32725	
1514	0	32860	32770	
1515	0	32826	32705	
1516	0	32722	32722	
1517	0	32764	32670	
1518	0	32736	32732	
1519	0	32808	32647	
1520	0	32826	32692	
1521	0	32822	32768	
1522	0	32824	32742	
1523	0	32838	32831	
1524	0	32776	32822	
1525	0	32800	32820	
1526	0	32836	32722	
1527	0	32780	32760	
1528	0	32844	32750	
1529	0	32864	32886	
1530	0	32852	32775	
1531	0	32832	32775	
1532	0	32806	32760	
1533	0	32770	32775	
1534	0	32836	32788	
1535	0	32862	32800	
1536	0	32768	32680	
1537	0	32784	32831	
1538	0	32822	32814	
1539	0	32758	32748	
1540	0	32818	32664	
1541	0	32898	32735	
1542	0	32886	32740	
1543	0	32850	32711	
1544	0	32832	32736	
1545	0	32752	32686	
1546	0	32816	32742	
1547	0	32748	32676	
1548	0	32788	32678	
1549	0	32800	32734	
1550	0	32798	32684	
1551	0	32775	32671	
1552	0	32792	32676	
1553	0	32812	32658	
1554	0	32880	32743	
1555	0	32872	32740	
1556	0	32824	32814	
1557	0	32849	32894	
1558	0	32816	32892	
1559	0	32804	32892	
1560	0	32792	32832	
1561	0	32800	32836	
1562	0	32776	32775	
1563	0	32810	32748	
1564	0	32856	32788	
1565	0	32752	32695	
1566	0	32764	32728	
1567	0	32860	32858	
1568	0	32856	32791	
1569	0	32780	32823	
1570	0	32784	32796	
1571	0	32816	32730	
1572	0	32796	32647	
1573	0	32760	32694	
1574	0	32704	32684	
1575	0	32800	32814	
1576	0	32786	32775	
1577	0	32826	32828	
1578	0	32860	32812	
1579	0	32840	32830	
1580	0	32812	32767	
1581	0	32792	32760	
1582	0	32810	32671	
1583	0	32789	32628	
1584	0	32782	32695	
1585	0	32832	32716	
1586	0	32816	32676	
1587	0	32832	32858	
1588	0	32840	32831	
1589	0	32848	32732	
1590	0	32804	32775	
1591	0	32806	32775	
1592	0	32864	32775	
1593	0	32828	32836	
1594	0	32810	32890	
1595	0	32808	32810	
1596	0	32828	32828	
1597	0	32776	32843	
1598	0	32764	32748	
1599	0	32798	32697	
1600	0	32832	32688	
1601	0	32834	32762	
1602	0	32808	32748	
1603	0	32786	32736	
1604	0	32788	32727	
1605	0	32810	32800	
1606	0	32752	32775	
1607	0	32808	32750	
1608	0	32812	32700	
1609	0	32836	32732	
1610	0	32860	32716	
1611	0	32760	32727	
1612	0	32804	32718	
1613	0	32868	32798	
1614	0	32828	32686	
1615	0	32780	32764	
1616	0	32702	32784	
1617	0	32748	32808	
1618	0	32828	32762	
1619	0	32798	32716	
1620	0	32836	32746	
1621	0	32776	32833	
1622	0	32812	32838	
1623	0	32864	32821	
1624	0	32836	32682	
1625	0	32820	32775	
1626	0	32794	32743	
1627	0	32828	32892	
1628	0	32782	32865	
1629	0	32840	32814	
1630	0	32874	32734	
1631	0	32804	32856	
1632	0	32814	32788	
1633	0	32804	32692	
1634	0	32802	32748	
1635	0	32826	32728	
1636	0	32800	32743	
1637	0	32812	32724	
1638	0	32812	32672	
1639	0	32808	32790	
1640	0	32888	32750	
1641	0	32812	32754	
1642	0	32794	32774	
1643	0	32815	32764	
1644	0	32758	32756	
1645	0	32846	32716	
1646	0	32784	32692	
1647	0	32800	32732	
1648	0	32796	32732	
1649	0	32796	32748	
1650	0	32768	32716	
1651	0	32836	32720	
1652	0	32788	32728	
1653	0	32756	32754	
1654	0	32794	32742	
1655	0	32726	32726	
1656	0	32860	32724	
1657	0	32736	32818	
1658	0	32804	32812	
1659	0	32816	32842	
1660	0	32756	32820	
1661	0	32816	32775	
1662	0	32850	32806	
1663	0	32876	32711	
1664	0	32754	32763	
1665	0	32812	32815	
1666	0	32832	32854	
1667	0	32790	32769	
1668	0	32876	32876	
1669	0	32780	32754	
1670	0	32886	32714	
1671	0	32885	32684	
1672	0	32816	32721	
1673	0	32832	32809	
1674	0	32828	32792	
1675	0	32782	32766	
1676	0	32768	32784	
1677	0	32784	32724	
1678	0	32834	32718	
1679	0	32804	32712	
1680	0	32784	32792	
1681	0	32822	32724	
1682	0	32822	32824	
1683	0	32792	32762	
1684	0	32856	32805	
1685	0	32788	32796	
1686	0	32772	32775	
1687	0	32784	32842	
1688	0	32814	32828	
1689	0	32764	32870	
1690	0	32776	32769	
1691	0	32740	32738	
1692	0	32856	32734	
1693	0	32856	32772	
1694	0	32770	32758	
1695	0	32794	32692	
1696	0	32844	32720	
1697	0	32748	32724	
1698	0	32706	32716	
1699	0	32860	32728	
1700	0	32868	32748	
1701	0	32814	32662	
1702	0	32832	32696	
1703	0	32804	32726	
1704	0	32812	32818	
1705	0	32808	32799	
1706	0	32842	32788	
1707	0	32820	32788	
1708	0	32836	32766	
1709	0	32800	32754	
1710	0	32836	32812	
1711	0	32756	32688	
1712	0	32832	32743	
1713	0	32790	32650	
1714	0	32784	32695	
1715	0	32840	32748	
1716	0	32816	32740	
1717	0	32782	32794	
1718	0	32760	32788	
1719	0	32774	32751	
1720	0	32817	32764	
1721	0	32812	32760	
1722	0	32796	32748	
1723	0	32832	32764	
1724	0	32816	32750	
1725	0	32836	32775	
1726	0	32844	32906	
1727	0	32796	32764	
1728	0	32800	32742	
1729	0	32854	32730	
1730	0	32862	32756	
1731	0	32796	32794	
1732	0	32750	32764	
1733	0	32834	32775	
1734	0	32822	32711	
1735	0	32836	32834	
1736	0	32830	32738	
1737	0	32790	32708	
1738	0	32824	32764	
1739	0	32764	32759	
1740	0	32820	32698	
1741	0	32740	32803	
1742	0	32874	32775	
1743	0	32794	32740	
1744	0	32812	32820	
1745	0	32784	32798	
1746	0	32826	32734	
1747	0	32784	32800	
1748	0	32796	32852	
1749	0	32756	32799	
1750	0	32832	32832	
1751	0	32840	32756	
1752	0	32816	32679	
1753	0	32860	32784	
1754	0	32768	32724	
1755	0	32812	32775	
1756	0	32814	32812	
1757	0	32780	32799	
1758	0	32792	32814	
1759	0	32804	32784	
1760	0	32864	32750	
1761	0	32816	32748	
1762	0	32848	32760	
1763	0	32824	32708	
1764	0	32820	32738	
1765	0	32808	32644	
1766	0	32794	32760	
1767	0	32848	32680	
1768	0	32800	32706	
1769	0	32868	32646	
1770	0	32836	32684	
1771	0	32822	32768	
1772	0	32788	32702	
1773	0	32812	32770	
1774	0	32780	32761	
1775	0	32756	32852	
1776	0	32834	32870	
1777	0	32792	32766	
1778	0	32760	32742	
1779	0	32842	32759	
1780	0	32800	32798	
1781	0	32748	32798	
1782	0	32756	32780	
1783	0	32848	32775	
1784	0	32764	32807	
1785	0	32804	32772	
1786	0	32835	32696	
1787	0	32862	32810	
1788	0	32820	32815	
1789	0	32824	32775	
1790	0	32740	32790	
1791	0	32798	32806	
1792	0	32852	32836	
1793	0	32824	32818	
1794	0	32840	32815	
1795	0	32872	32764	
1796	0	32834	32766	
1797	0	32784	32728	
1798	0	32870	32775	
1799	0	32852	32742	
1800	0	32748	32774	
1801	0	32784	32784	
1802	0	32834	32851	
1803	0	32841	32737	
1804	0	32800	32756	
1805	0	32796	32788	
1806	0	32866	32818	
1807	0	32896	32852	
1808	0	32814	32839	
1809	0	32838	32814	
1810	0	32816	32852	
1811	0	32808	32834	
1812	0	32764	32802	
1813	0	32724	32830	
1814	0	32792	32760	
1815	0	32796	32772	
1816	0	32812	32737	
1817	0	32816	32716	
1818	0	32800	32737	
1819	0	32828	32764	
1820	0	32780	32746	
1821	0	32830	32766	
1822	0	32860	32760	
1823	0	32836	32760	
1824	0	32821	32732	
1825	0	32848	32794	
1826	0	32848	32791	
1827	0	32848	32798	
1828	0	32788	32759	
1829	0	32840	32820	
1830	0	32786	32827	
1831	0	32800	32752	
1832	0	32792	32852	
1833	0	32832	32848	
1834	0	32898	32796	
1835	0	32812	32870	
1836	0	32824	32738	
1837	0	32848	32796	
1838	0	32784	32724	
1839	0	32812	32694	
1840	0	32779	32682	
1841	0	32782	32714	
1842	0	32776	32748	
1843	0	32852	32711	
1844	0	32816	32748	
1845	0	32820	32772	
1846	0	32860	32794	
1847	0	32816	32801	
1848	0	32704	32758	
1849	0	32796	32710	
1850	0	32800	32775	
1851	0	32700	32868	
1852	0	32830	32730	
1853	0	32792	32752	
1854	0	32824	32775	
1855	0	32844	32764	
1856	0	32802	32770	
1857	0	32813	32772	
1858	0	32881	32766	
1859	0	32796	32855	
1860	0	32790	32864	
1861	0	32864	32888	
1862	0	32834	32806	
1863	0	32828	32721	
1864	0	32792	32703	
1865	0	32820	32794	
1866	0	32804	32743	
1867	0	32764	32828	
1868	0	32804	32732	
1869	0	32840	32766	
1870	0	32820	32736	
1871	0	32876	32836	
1872	0	32804	32708	
1873	0	32822	32772	
1874	0	32800	32704	
1875	0	32858	32820	
1876	0	32804	32772	
1877	0	32816	32775	
1878	0	32868	32855	
1879	0	32796	32794	
1880	0	32756	32798	
1881	0	32792	32810	
1882	0	32844	32794	
1883	0	32784	32868	
1884	0	32878	32814	
1885	0	32832	32700	
1886	0	32764	32670	
1887	0	32814	32775	
1888	0	32816	32682	
1889	0	32804	32715	
1890	0	32834	32708	
1891	0	32808	32756	
1892	0	32784	32803	
1893	0	32768	32809	
1894	0	32748	32832	
1895	0	32768	32812	
1896	0	32820	32742	
1897	0	32808	32756	
1898	0	32828	32794	
1899	0	32794	32775	
1900	0	32816	32802	
1901	0	32842	32834	
1902	0	32864	32790	
1903	0	32828	32718	
1904	0	32826	32694	
1905	0	32784	32775	
1906	0	32840	32698	
1907	0	32852	32839	
1908	0	32864	32794	
1909	0	32854	32804	
1910	0	32798	32842	
1911	0	32744	32753	
1912	0	32784	32743	
1913	0	32776	32792	
1914	0	32804	32834	
1915	0	32776	32652	
1916	0	32724	32673	
1917	0	32808	32604	
1918	0	32783	32656	
1919	0	32718	32670	
1920	0	32828	32644	
1921	0	32752	32631	
1922	0	32764	32708	
1923	0	32738	32684	
1924	0	32684	32791	
1925	0	32692	32718	
1926	0	32708	32724	
1927	0	32712	32711	
1928	0	32706	32736	
1929	0	32626	32824	
1930	0	32708	32704	
1931	0	32760	32712	
1932	0	32696	32830	
1933	0	32766	32734	
1934	0	32672	32710	
1935	0	32720	32744	
1936	0	32796	32738	
1937	0	32708	32646	
1938	0	32756	32668	
1939	0	32720	32722	
1940	0	32826	32775	
1941	0	32856	32848	
1942	0	33024	32940	
1943	0	33008	33020	
1944	0	33119	33144	
1945	0	33104	33146	
1946	0	33110	33126	
1947	0	33172	33134	
1948	0	33156	32968	
1949	0	33130	32796	
1950	0	33080	32808	
1951	0	33092	32828	
1952	0	33116	32774	
1953	0	33020	32830	
1954	0	32944	32918	
1955	0	32860	32775	
1956	0	32911	32766	
1957	0	32810	32816	
1958	0	32768	32830	
1959	0	32676	32734	
1960	0	32696	32676	
1961	0	32760	32770	
1962	0	32714	32734	
1963	0	32712	32630	
1964	0	32648	32586	
1965	0	32712	32630	
1966	0	32676	32628	
1967	0	32666	32644	
1968	0	32774	32700	
1969	0	32684	32708	
1970	0	32736	32682	
1971	0	32652	32750	
1972	0	32684	32616	
1973	0	32726	32614	
1974	0	32772	32748	
1975	0	32790	32812	
1976	0	32816	32694	
1977	0	32744	32834	
1978	0	32892	32866	
1979	0	32812	32738	
1980	0	32814	32775	
1981	0	32810	32809	
1982	0	32822	32698	
1983	0	32840	32716	
1984	0	32772	32682	
1985	0	32788	32758	
1986	0	32792	32800	
1987	0	32800	32802	
1988	0	32852	32881	
1989	0	32788	32775	
1990	0	32852	32852	
1991	0	32784	32775	
1992	0	32808	32775	
1993	0	32780	32766	
1994	0	32748	32740	
1995	0	32830	32785	
1996	0	32772	32714	
1997	0	32796	32756	
1998	0	32860	32654	
1999	0	32840	32768	
2000	0	32792	32817	
2001	0	32748	32822	
2002	0	32906	32856	
2003	0	32806	32826	
2004	0	32848	32804	
2005	0	32894	32803	
2006	0	32785	32750	
2007	0	32794	32703	
2008	0	32756	32794	
2009	0	32782	32782	
2010	0	32832	32760	
2011	0	32804	32749	
2012	0	32784	32807	
2013	0	32738	32842	
2014	0	32844	32752	
2015	0	32790	32790	
2016	0	32816	32718	
2017	0	32768	32748	
2018	0	32796	32702	
2019	0	32828	32682	
2020	0	32788	32790	
2021	0	32792	32788	
2022	0	32804	32775	
2023	0	32806	32836	
2024	0	32856	32748	
2025	0	32820	32708	
2026	0	32814	32730	
2027	0	32812	32751	
2028	0	32776	32852	
2029	0	32814	32734	
2030	0	32790	32766	
2031	0	32824	32775	
2032	0	32840	32761	
2033	0	32788	32844	
2034	0	32796	32775	
2035	0	32802	32791	
2036	0	32804	32847	
2037	0	32836	32754	
2038	0	32794	32724	
2039	0	32868	32679	
2040	0	32788	32721	
2041	0	32770	32774	
2042	0	32832	32765	
2043	0	32788	32772	
2044	0	32824	32787	
2045	0	32860	32816	
2046	0	32820	32814	
2047	0	32830	32820	
2048	0	32808	32842	
2049	0	32788	32804	
2050	0	32802	32820	
2051	0	32804	32774	
2052	0	32720	32764	
2053	0	32888	32732	
2054	0	32804	32784	
2055	0	32806	32804	
2056	0	32868	32766	
2057	0	32860	32892	
2058	0	32840	32830	
2059	0	32804	32775	
2060	0	32812	32730	
2061	0	32796	32860	
2062	0	32829	32662	
2063	0	32816	32762	
2064	0	32792	32708	
2065	0	32788	32775	
2066	0	32828	32775	
2067	0	32804	32784	
2068	0	32784	32843	
2069	0	32810	32872	
2070	0	32775	32750	
2071	0	32852	32742	
2072	0	32860	32724	
2073	0	32836	32756	
2074	0	32794	32746	
2075	0	32848	32791	
2076	0	32876	32728	
2077	0	32808	32768	
2078	0	32794	32707	
2079	0	32836	32727	
2080	0	32808	32672	
2081	0	32756	32704	
2082	0	32836	32743	
2083	0	32852	32711	
2084	0	32856	32791	
2085	0	32798	32782	
2086	0	32862	32836	
2087	0	32816	32812	
2088	0	32784	32724	
2089	0	32776	32734	
2090	0	32761	32812	
2091	0	32760	32756	
2092	0	32840	32726	
2093	0	32860	32804	
2094	0	32872	32876	
2095	0	32820	32818	
2096	0	32812	32775	
2097	0	32760	32680	
2098	0	32716	32732	
2099	0	32814	32702	
2100	0	32900	32743	
2101	0	32758	32762	
2102	0	32752	32654	
2103	0	32824	32744	
2104	0	32884	32670	
2105	0	32832	32727	
2106	0	32864	32744	
2107	0	32788	32688	
2108	0	32760	32708	
2109	0	32804	32662	
2110	0	32818	32708	
2111	0	32760	32753	
2112	0	32848	32746	
2113	0	32824	32743	
2114	0	32884	32686	
2115	0	32828	32642	
2116	0	32884	32743	
2117	0	32788	32731	
2118	0	32844	32736	
2119	0	32810	32744	
2120	0	32808	32692	
2121	0	32758	32676	
2122	0	32828	32697	
2123	0	32837	32706	
2124	0	32796	32770	
2125	0	32864	32775	
2126	0	32804	32770	
2127	0	32796	32799	
2128	0	32836	32807	
2129	0	32802	32770	
2130	0	32832	32798	
2131	0	32816	32854	
2132	0	32804	32814	
2133	0	32804	32696	
2134	0	32832	32750	
2135	0	32786	32704	
2136	0	32798	32739	
2137	0	32932	32736	
2138	0	32728	32734	
2139	0	32782	32796	
2140	0	32852	32662	
2141	0	32840	32670	
2142	0	32756	32680	
2143	0	32834	32839	
2144	0	32754	32760	
2145	0	32834	32768	
2146	0	32784	32771	
2147	0	32778	32790	
2148	0	32832	32799	
2149	0	32866	32718	
2150	0	32784	32742	
2151	0	32744	32644	
2152	0	32784	32738	
2153	0	32808	32755	
2154	0	32876	32757	
2155	0	32786	32752	
2156	0	32796	32802	
2157	0	32812	32808	
2158	0	32842	32812	
2159	0	32842	32812	
2160	0	32856	32734	
2161	0	32856	32790	
2162	0	32786	32730	
2163	0	32780	32796	
2164	0	32864	32772	
2165	0	32872	32754	
2166	0	32832	32794	
2167	0	32776	32810	
2168	0	32756	32775	
2169	0	32846	32751	
2170	0	32832	32750	
2171	0	32874	32844	
2172	0	32880	32796	
2173	0	32804	32855	
2174	0	32872	32866	
2175	0	32826	32868	
2176	0	32818	32762	
2177	0	32878	32790	
2178	0	32804	32800	
2179	0	32872	32824	
2180	0	32864	32744	
2181	0	32824	32732	
2182	0	32780	32858	
2183	0	32864	32703	
2184	0	32800	32725	
2185	0	32804	32742	
2186	0	32762	32814	
2187	0	32762	32796	
2188	0	32768	32771	
2189	0	32834	32844	
2190	0	32836	32704	
2191	0	32774	32774	
2192	0	32784	32706	
2193	0	32820	32775	
2194	0	32784	32708	
2195	0	32816	32756	
2196	0	32782	32764	
2197	0	32804	32775	
2198	0	32788	32879	
2199	0	32834	32806	
2200	0	32784	32858	
2201	0	32828	32708	
2202	0	32844	32747	
2203	0	32880	32676	
2204	0	32814	32756	
2205	0	32802	32844	
2206	0	32804	32775	
2207	0	32788	32775	
2208	0	32814	32744	
2209	0	32864	32764	
2210	0	32832	32756	
2211	0	32848	32744	
2212	0	32804	32722	
2213	0	32740	32702	
2214	0	32794	32784	
2215	0	32816	32756	
2216	0	32820	32824	
2217	0	32748	32775	
2218	0	32852	32794	
2219	0	32808	32806	
2220	0	32744	32744	
2221	0	32808	32612	
2222	0	32820	32736	
2223	0	32800	32858	
2224	0	32772	32812	
2225	0	32788	32734	
2226	0	32788	32775	
2227	0	32825	32788	
2228	0	32802	32764	
2229	0	32876	32660	
2230	0	32764	32770	
2231	0	32778	32670	
2232	0	32810	32604	
2233	0	32794	32796	
2234	0	32810	32758	
2235	0	32772	32766	
2236	0	32844	32734	
2237	0	32848	32888	
2238	0	32812	32775	
2239	0	32790	32742	
2240	0	32824	32734	
2241	0	32810	32718	
2242	0	32838	32738	
2243	0	32804	32762	
2244	0	32792	32822	
2245	0	32800	32738	
2246	0	32816	32775	
2247	0	32760	32862	
2248	0	32824	32834	
2249	0	32821	32852	
2250	0	32798	32704	
2251	0	32800	32830	
2252	0	32796	32693	
2253	0	32828	32673	
2254	0	32874	32830	
2255	0	32786	32814	
2256	0	32816	32798	
2257	0	32812	32671	
2258	0	32740	32775	
2259	0	32808	32837	
2260	0	32856	32799	
2261	0	32832	32828	
2262	0	32716	32724	
2263	0	32844	32756	
2264	0	32804	32714	
2265	0	32716	32750	
2266	0	32814	32715	
2267	0	32864	32761	
2268	0	32884	32647	
2269	0	32868	32680	
2270	0	32772	32686	
2271	0	32820	32854	
2272	0	32842	32775	
2273	0	32764	32775	
2274	0	32800	32775	
2275	0	32836	32868	
2276	0	32798	32756	
2277	0	32806	32830	
2278	0	32874	32760	
2279	0	32852	32762	
2280	0	32844	32744	
2281	0	32830	32764	
2282	0	32840	32774	
2283	0	32840	32748	
2284	0	32862	32794	
2285	0	32780	32772	
2286	0	32790	32828	
2287	0	32806	32753	
2288	0	32792	32746	
2289	0	32780	32768	
2290	0	32772	32783	
2291	0	32834	32796	
2292	0	32804	32726	
2293	0	32852	32847	
2294	0	32756	32748	
2295	0	32756	32823	
2296	0	32792	32679	
2297	0	32828	32756	
2298	0	32866	32724	
2299	0	32840	32694	
2300	0	32810	32734	
2301	0	32804	32692	
2302	0	32784	32736	
2303	0	32852	32717	
2304	0	32796	32720	
2305	0	32862	32775	
2306	0	32805	32870	
2307	0	32853	32775	
2308	0	32813	32752	
2309	0	32792	32792	
2310	0	32834	32858	
2311	0	32876	32775	
2312	0	32836	32742	
2313	0	32832	32774	
2314	0	32708	32802	
2315	0	32850	32842	
2316	0	32760	32775	
2317	0	32826	32740	
2318	0	32676	32721	
2319	0	32884	32666	
2320	0	32848	32718	
2321	0	32790	32644	
2322	0	32796	32768	
2323	0	32918	32642	
2324	0	32804	32680	
2325	0	32808	32664	
2326	0	32852	32714	
2327	0	32828	32740	
2328	0	32796	32680	
2329	0	32790	32730	
2330	0	32810	32740	
2331	0	32850	32736	
2332	0	32836	32760	
2333	0	32856	32754	
2334	0	32808	32790	
2335	0	32724	32728	
2336	0	32828	32804	
2337	0	32844	32812	
2338	0	32850	32820	
2339	0	32824	32720	
2340	0	32782	32678	
2341	0	32840	32767	
2342	0	32824	32824	
2343	0	32848	32774	
2344	0	32804	32714	
2345	0	32760	32652	
2346	0	32762	32804	
2347	0	32816	32804	
2348	0	32816	32834	
2349	0	32824	32641	
2350	0	32790	32734	
2351	0	32866	32724	
2352	0	32746	32796	
2353	0	32808	32820	
2354	0	32868	32820	
2355	0	32828	32831	
2356	0	32836	32830	
2357	0	32856	32768	
2358	0	32826	32804	
2359	0	32840	32791	
2360	0	32840	32710	
2361	0	32766	32676	
2362	0	32760	32686	
2363	0	32776	32711	
2364	0	32724	32808	
2365	0	32862	32786	
2366	0	32778	32756	
2367	0	32824	32728	
2368	0	32844	32862	
2369	0	32808	32874	
2370	0	32832	32774	
2371	0	32790	32832	
2372	0	32820	32724	
2373	0	32800	32726	
2374	0	32778	32704	
2375	0	32774	32654	
2376	0	32782	32688	
2377	0	32821	32714	
2378	0	32792	32672	
2379	0	32804	32758	
2380	0	32816	32807	
2381	0	32836	32804	
2382	0	32776	32804	
2383	0	32800	32740	
2384	0	32768	32734	
2385	0	32716	32724	
2386	0	32836	32708	
2387	0	32816	32791	
2388	0	32800	32866	
2389	0	32808	32751	
2390	0	32776	32846	
2391	0	32804	32742	
2392	0	32806	32759	
2393	0	32808	32748	
2394	0	32832	32756	
2395	0	32790	32752	
2396	0	32920	32711	
2397	0	32800	32825	
2398	0	32824	32815	
2399	0	32748	32682	
2400	0	32796	32788	
2401	0	32780	32775	
2402	0	32772	32888	
2403	0	32868	32836	
2404	0	32836	32718	
2405	0	32820	32740	
2406	0	32732	32748	
2407	0	32800	32799	
2408	0	32804	32774	
2409	0	32784	32692	
2410	0	32816	32674	
2411	0	32832	32752	
2412	0	32792	32836	
2413	0	32862	32838	
2414	0	32812	32726	
2415	0	32828	32730	
2416	0	32864	32832	
2417	0	32808	32866	
2418	0	32836	32794	
2419	0	32769	32706	
2420	0	32844	32672	
2421	0	32844	32658	
2422	0	32812	32750	
2423	0	32784	32748	
2424	0	32776	32800	
2425	0	32810	32802	
2426	0	32775	32798	
2427	0	32808	32856	
2428	0	32800	32726	
2429	0	32762	32728	
2430	0	32824	32814	
2431	0	32808	32799	
2432	0	32856	32886	
2433	0	32768	32838	
2434	0	32856	32800	
2435	0	32824	32788	
2436	0	32816	32690	
2437	0	32796	32724	
2438	0	32808	32632	
2439	0	32836	32680	
2440	0	32880	32700	
2441	0	32804	32758	
2442	0	32802	32740	
2443	0	32816	32822	
2444	0	32742	32884	
2445	0	32816	32775	
2446	0	32782	32820	
2447	0	32856	32720	
2448	0	32878	32724	
2449	0	32782	32788	
2450	0	32898	32750	
2451	0	32808	32771	
2452	0	32792	32710	
2453	0	32766	32694	
2454	0	32722	32821	
2455	0	32788	32766	
2456	0	32760	32775	
2457	0	32784	32720	
2458	0	32808	32757	
2459	0	32800	32768	
2460	0	32842	32792	
2461	0	32748	32807	
2462	0	32812	32848	
2463	0	32840	32871	
2464	0	32824	32828	
2465	0	32814	32839	
2466	0	32816	32770	
2467	0	32792	32832	
2468	0	32785	32684	
2469	0	32880	32696	
2470	0	32824	32688	
2471	0	32852	32863	
2472	0	32822	32836	
2473	0	32774	32748	
2474	0	32756	32770	
2475	0	32844	32799	
2476	0	32836	32672	
2477	0	32772	32686	
2478	0	32856	32732	
2479	0	32742	32866	
2480	0	32834	32775	
2481	0	32801	32775	
2482	0	32788	32732	
2483	0	32824	32810	
2484	0	32800	32868	
2485	0	32812	32820	
2486	0	32816	32802	
2487	0	32812	32804	
2488	0	32826	32660	
2489	0	32828	32720	
2490	0	32874	32673	
2491	0	32844	32810	
2492	0	32800	32736	
2493	0	32806	32802	
2494	0	32896	32808	
2495	0	32876	32866	
2496	0	32860	32898	
2497	0	32852	32734	
2498	0	32832	32618	
2499	0	32788	32662	
2500	0	32832	32711	
2501	0	32870	32656	
2502	0	32756	32700	
2503	0	32756	32640	
2504	0	32792	32818	
2505	0	32832	32810	
2506	0	32776	32798	
2507	0	32764	32720	
2508	0	32744	32764	
2509	0	32748	32756	
2510	0	32836	32870	
2511	0	32800	32788	
2512	0	32786	32743	
2513	0	32800	32719	
2514	0	32849	32724	
2515	0	32832	32678	
2516	0	32846	32694	
2517	0	32852	32750	
2518	0	32840	32750	
2519	0	32876	32788	
2520	0	32812	32772	
2521	0	32784	32853	
2522	0	32836	32806	
2523	0	32828	32775	
2524	0	32820	32810	
2525	0	32826	32788	
2526	0	32788	32775	
2527	0	32808	32764	
2528	0	32788	32735	
2529	0	32860	32750	
2530	0	32778	32724	
2531	0	32844	32734	
2532	0	32836	32748	
2533	0	32828	32758	
2534	0	32736	32804	
2535	0	32868	32766	
2536	0	32848	32754	
2537	0	32788	32839	
2538	0	32830	32769	
2539	0	32796	32839	
2540	0	32796	32736	
2541	0	32848	32810	
2542	0	32808	32788	
2543	0	32724	32764	
2544	0	32828	32762	
2545	0	32836	32774	
2546	0	32800	32716	
2547	0	32744	32826	
2548	0	32900	32766	
2549	0	32800	32746	
2550	0	32804	32722	
2551	0	32752	32684	
2552	0	32744	32796	
2553	0	32816	32764	
2554	0	32816	32804	
2555	0	32812	32830	
2556	0	32768	32802	
2557	0	32742	32775	
2558	0	32808	32823	
2559	0	32832	32846	
2560	0	32772	32814	
2561	0	32842	32852	
2562	0	32772	32793	
2563	0	32812	32838	
2564	0	32792	32775	
2565	0	32804	32839	
2566	0	32800	32751	
2567	0	32836	32775	
2568	0	32864	32792	
2569	0	32768	32796	
2570	0	32810	32878	
2571	0	32812	32828	
2572	0	32800	32768	
2573	0	32842	32835	
2574	0	32880	32775	
2575	0	32820	32748	
2576	0	32766	32746	
2577	0	32724	32775	
2578	0	32800	32708	
2579	0	32812	32816	
2580	0	32896	32733	
2581	0	32881	32841	
2582	0	32800	32784	
2583	0	32784	32834	
2584	0	32872	32775	
2585	0	32798	32852	
2586	0	32800	32860	
2587	0	32810	32759	
2588	0	32856	32738	
2589	0	32832	32702	
2590	0	32790	32724	
2591	0	32856	32730	
2592	0	32752	32855	
2593	0	32785	32775	
2594	0	32868	32788	
2595	0	32800	32775	
2596	0	32826	32882	
2597	0	32784	32798	
2598	0	32796	32772	
2599	0	32800	32775	
2600	0	32772	32714	
2601	0	32780	32775	
2602	0	32812	32762	
2603	0	32832	32842	
2604	0	32846	32796	
2605	0	32788	32841	
2606	0	32769	32816	
2607	0	32880	32908	
2608	0	32823	32762	
2609	0	32836	32830	
2610	0	32752	32815	
2611	0	32774	32810	
2612	0	32840	32832	
2613	0	32852	32758	
2614	0	32816	32786	
2615	0	32772	32752	
2616	0	32759	32790	
2617	0	32864	32806	
2618	0	32806	32775	
2619	0	32782	32805	
2620	0	32786	32770	
2621	0	32796	32860	
2622	0	32788	32746	
2623	0	32792	32764	
2624	0	32840	32775	
2625	0	32844	32860	
2626	0	32812	32855	
2627	0	32837	32770	
2628	0	32865	32785	
2629	0	32774	32836	
2630	0	32856	32730	
2631	0	32824	32908	
2632	0	32822	32712	
2633	0	32832	32747	
2634	0	32856	32790	
2635	0	32796	32704	
2636	0	32814	32702	
2637	0	32840	32791	
2638	0	32832	32806	
2639	0	32790	32775	
2640	0	32788	32668	
2641	0	32744	32597	
2642	0	32808	32650	
2643	0	32804	32690	
2644	0	32752	32692	
2645	0	32772	32668	
2646	0	32792	32705	
2647	0	32820	32726	
2648	0	32828	32820	
2649	0	32840	32806	
2650	0	32772	32836	
2651	0	32832	32784	
2652	0	32830	32775	
2653	0	32824	32903	
2654	0	32864	32801	
2655	0	32842	32679	
2656	0	32836	32679	
2657	0	32834	32668	
2658	0	32748	32672	
2659	0	32760	32746	
2660	0	32816	32688	
2661	0	32830	32744	
2662	0	32796	32604	
2663	0	32790	32700	
2664	0	32818	32806	
2665	0	32820	32696	
2666	0	32832	32750	
2667	0	32820	32674	
2668	0	32850	32732	
2669	0	32836	32713	
2670	0	32820	32727	
2671	0	32790	32730	
2672	0	32770	32810	
2673	0	32792	32775	
2674	0	32894	32760	
2675	0	32828	32816	
2676	0	32876	32772	
2677	0	32764	32736	
2678	0	32828	32708	
2679	0	32804	32678	
2680	0	32870	32750	
2681	0	32780	32736	
2682	0	32752	32844	
2683	0	32762	32790	
2684	0	32808	32728	
2685	0	32790	32756	
2686	0	32896	32786	
2687	0	32820	32804	
2688	0	32816	32838	
2689	0	32788	32748	
2690	0	32772	32856	
2691	0	32804	32788	
2692	0	32848	32751	
2693	0	32816	32796	
2694	0	32728	32686	
2695	0	32762	32764	
2696	0	32792	32689	
2697	0	32746	32768	
2698	0	32708	32654	
2699	0	32714	32730	
2700	0	32832	32736	
2701	0	32770	32760	
2702	0	32749	32600	
2703	0	32704	32724	
2704	0	32732	32759	
2705	0	32800	32769	
2706	0	32788	32652	
2707	0	32732	32584	
2708	0	32644	32674	
2709	0	32620	32747	
2710	0	32748	32764	
2711	0	32712	32780	
2712	0	32697	32644	
2713	0	32748	32676	
2714	0	32736	32644	
2715	0	32732	32678	
2716	0	32702	32622	
2717	0	32730	32670	
2718	0	32800	32740	
2719	0	32824	32822	
2720	0	32739	32794	
2721	0	32836	32770	
2722	0	32848	32822	
2723	0	32944	32958	
2724	0	33056	33060	
2725	0	33204	33102	
2726	0	33154	33127	
2727	0	33150	33031	
2728	0	33169	32976	
2729	0	33137	32926	
2730	0	33022	32900	
2731	0	33128	32865	
2732	0	33038	32903	
2733	0	33018	32811	
2734	0	32980	32870	
2735	0	32992	32807	
2736	0	32888	32772	
2737	0	32916	32727	
2738	0	32768	32762	
2739	0	32738	32596	
2740	0	32720	32672	
2741	0	32704	32568	
2742	0	32676	32618	
2743	0	32662	32572	
2744	0	32644	32584	
2745	0	32680	32684	
2746	0	32728	32728	
2747	0	32737	32679	
2748	0	32700	32678	
2749	0	32700	32706	
2750	0	32698	32654	
2751	0	32780	32621	
2752	0	32708	32633	
2753	0	32738	32674	
2754	0	32762	32564	
2755	0	32816	32678	
2756	0	32778	32748	
2757	0	32840	32712	
2758	0	32852	32714	
2759	0	32800	32759	
2760	0	32846	32720	
2761	0	32832	32699	
2762	0	32760	32708	
2763	0	32854	32668	
2764	0	32757	32720	
2765	0	32774	32770	
2766	0	32748	32692	
2767	0	32760	32703	
2768	0	32796	32684	
2769	0	32888	32677	
2770	0	32802	32694	
2771	0	32748	32680	
2772	0	32840	32834	
2773	0	32788	32808	
2774	0	32792	32832	
2775	0	32822	32846	
2776	0	32780	32838	
2777	0	32746	32759	
2778	0	32816	32848	
2779	0	32840	32772	
2780	0	32920	32766	
2781	0	32872	32770	
2782	0	32812	32714	
2783	0	32846	32768	
2784	0	32868	32664	
2785	0	32854	32694	
2786	0	32738	32652	
2787	0	32828	32731	
2788	0	32792	32876	
2789	0	32810	32786	
2790	0	32824	32820	
2791	0	32856	32802	
2792	0	32822	32874	
2793	0	32832	32775	
2794	0	32844	32870	
2795	0	32836	32770	
2796	0	32804	32917	
2797	0	32802	32768	
2798	0	32808	32775	
2799	0	32792	32812	
2800	0	32792	32743	
2801	0	32846	32772	
2802	0	32836	32724	
2803	0	32814	32836	
2804	0	32836	32767	
2805	0	32744	32796	
2806	0	32836	32800	
2807	0	32792	32788	
2808	0	32772	32871	
2809	0	32768	32764	
2810	0	32814	32692	
2811	0	32766	32748	
2812	0	32856	32775	
2813	0	32796	32784	
2814	0	32790	32801	
2815	0	32834	32846	
2816	0	32820	32791	
2817	0	32832	32775	
2818	0	32820	32654	
2819	0	32810	32650	
2820	0	32860	32796	
2821	0	32868	32860	
2822	0	32800	32852	
2823	0	32864	32807	
2824	0	32794	32758	
2825	0	32752	32716	
2826	0	32804	32823	
2827	0	32804	32836	
2828	0	32752	32832	
2829	0	32826	32772	
2830	0	32760	32771	
2831	0	32820	32744	
2832	0	32788	32775	
2833	0	32836	32788	
2834	0	32836	32799	
2835	0	32816	32800	
2836	0	32852	32822	
2837	0	32856	32775	
2838	0	32772	32718	
2839	0	32808	32702	
2840	0	32876	32730	
2841	0	32824	32664	
2842	0	32764	32727	
2843	0	32834	32692	
2844	0	32834	32679	
2845	0	32804	32676	
2846	0	32824	32668	
2847	0	32800	32757	
2848	0	32836	32697	
2849	0	32800	32794	
2850	0	32868	32740	
2851	0	32766	32736	
2852	0	32720	32668	
2853	0	32772	32814	
2854	0	32764	32816	
2855	0	32760	32768	
2856	0	32764	32772	
2857	0	32844	32764	
2858	0	32808	32766	
2859	0	32840	32688	
2860	0	32864	32688	
2861	0	32740	32711	
2862	0	32808	32719	
2863	0	32746	32708	
2864	0	32804	32736	
2865	0	32810	32876	
2866	0	32836	32823	
2867	0	32832	32786	
2868	0	32794	32813	
2869	0	32896	32743	
2870	0	32864	32766	
2871	0	32834	32710	
2872	0	32740	32842	
2873	0	32818	32884	
2874	0	32780	32798	
2875	0	32796	32775	
2876	0	32820	32775	
2877	0	32796	32774	
2878	0	32860	32760	
2879	0	32788	32800	
2880	0	32846	32876	
2881	0	32811	32783	
2882	0	32808	32794	
2883	0	32844	32770	
2884	0	32824	32796	
2885	0	32814	32742	
2886	0	32828	32748	
2887	0	32794	32791	
2888	0	32836	32740	
2889	0	32844	32716	
2890	0	32742	32700	
2891	0	32792	32766	
2892	0	32812	32746	
2893	0	32832	32736	
2894	0	32792	32690	
2895	0	32788	32830	
2896	0	32825	32839	
2897	0	32842	32766	
2898	0	32892	32727	
2899	0	32820	32706	
2900	0	32800	32745	
2901	0	32804	32740	
2902	0	32856	32788	
2903	0	32808	32742	
2904	0	32804	32746	
2905	0	32812	32788	
2906	0	32804	32772	
2907	0	32820	32806	
2908	0	32888	32908	
2909	0	32832	32888	
2910	0	32832	32772	
2911	0	32844	32785	
2912	0	32764	32736	
2913	0	32785	32804	
2914	0	32778	32842	
2915	0	32800	32804	
2916	0	32760	32842	
2917	0	32825	32744	
2918	0	32812	32742	
2919	0	32814	32764	
2920	0	32820	32766	
2921	0	32814	32622	
2922	0	32828	32759	
2923	0	32832	32775	
2924	0	32856	32788	
2925	0	32824	32860	
2926	0	32842	32796	
2927	0	32820	32799	
2928	0	32812	32796	
2929	0	32828	32734	
2930	0	32884	32730	
2931	0	32792	32698	
2932	0	32804	32690	
2933	0	32834	32724	
2934	0	32824	32706	
2935	0	32800	32708	
2936	0	32812	32686	
2937	0	32832	32844	
2938	0	32836	32756	
2939	0	32834	32775	
2940	0	32760	32772	
2941	0	32800	32820	
2942	0	32810	32774	
2943	0	32866	32792	
2944	0	32808	32710	
2945	0	32766	32678	
2946	0	32792	32670	
2947	0	32804	32702	
2948	0	32840	32678	
2949	0	32908	32752	
2950	0	32814	32849	
2951	0	32860	32892	
2952	0	32812	32878	
2953	0	32784	32862	
2954	0	32816	32790	
2955	0	32788	32750	
2956	0	32804	32760	
2957	0	32818	32840	
2958	0	32770	32664	
2959	0	32712	32724	
2960	0	32822	32775	
2961	0	32860	32706	
2962	0	32808	32678	
2963	0	32788	32734	
2964	0	32824	32804	
2965	0	32810	32774	
2966	0	32844	32746	
2967	0	32772	32676	
2968	0	32878	32764	
2969	0	32872	32740	
2970	0	32800	32834	
2971	0	32872	32839	
2972	0	32820	32762	
2973	0	32788	32890	
2974	0	32792	32727	
2975	0	32820	32732	
2976	0	32836	32700	
2977	0	32840	32664	
2978	0	32856	32747	
2979	0	32752	32782	
2980	0	32784	32760	
2981	0	32762	32806	
2982	0	32816	32775	
2983	0	32812	32740	
2984	0	32800	32696	
2985	0	32800	32775	
2986	0	32820	32774	
2987	0	32854	32807	
2988	0	32824	32758	
2989	0	32786	32775	
2990	0	32792	32822	
2991	0	32782	32766	
2992	0	32788	32762	
2993	0	32774	32720	
2994	0	32784	32774	
2995	0	32768	32706	
2996	0	32800	32770	
2997	0	32824	32834	
2998	0	32836	32815	
2999	0	32804	32758	
3000	0	32816	32786	
3001	0	32824	32844	
3002	0	32804	32812	
3003	0	32760	32832	
3004	0	32800	32806	
3005	0	32724	32812	
3006	0	32796	32775	
3007	0	32776	32775	
3008	0	32821	32842	
3009	0	32856	32774	
3010	0	32810	32872	
3011	0	32812	32824	
3012	0	32778	32838	
3013	0	32840	32746	
3014	0	32834	32792	
3015	0	32824	32746	
3016	0	32774	32748	
3017	0	32772	32720	
3018	0	32790	32793	
3019	0	32790	32808	
3020	0	32812	32716	
3021	0	32816	32850	
3022	0	32816	32834	
3023	0	32792	32756	
3024	0	32740	32754	
3025	0	32848	32756	
3026	0	32812	32770	
3027	0	32800	32704	
3028	0	32848	32652	
3029	0	32800	32726	
3030	0	32804	32724	
3031	0	32792	32735	
3032	0	32864	32810	
3033	0	32817	32884	
3034	0	32824	32814	
3035	0	32840	32886	
3036	0	32812	32786	
3037	0	32824	32693	
3038	0	32832	32740	
3039	0	32820	32714	
3040	0	32846	32796	
3041	0	32836	32812	
3042	0	32802	32854	
3043	0	32774	32842	
3044	0	32858	32792	
3045	0	32828	32834	
3046	0	32768	32865	
3047	0	32876	32796	
3048	0	32782	32788	
3049	0	32780	32831	
3050	0	32874	32758	
3051	0	32782	32734	
3052	0	32852	32742	
3053	0	32836	32752	
3054	0	32888	32740	
3055	0	32778	32710	
3056	0	32784	32790	
3057	0	32800	32746	
3058	0	32808	32878	
3059	0	32774	32838	
3060	0	32772	32700	
3061	0	32790	32695	
3062	0	32796	32775	
3063	0	32742	32775	
3064	0	32804	32824	
3065	0	32804	32888	
3066	0	32820	32858	
3067	0	32770	32871	
3068	0	32810	32826	
3069	0	32816	32874	
3070	0	32826	32858	
3071	0	32832	32742	
3072	0	32879	32764	
3073	0	32864	32770	
3074	0	32820	32846	
3075	0	32834	32774	
3076	0	32796	32757	
3077	0	32798	32862	
3078	0	32844	32834	
3079	0	32792	32899	
3080	0	32816	32884	
3081	0	32880	32832	
3082	0	32800	32868	
3083	0	32780	32742	
3084	0	32792	32841	
3085	0	32770	32775	
3086	0	32694	32786	
3087	0	32740	32832	
3088	0	32760	32864	
3089	0	32794	32847	
3090	0	32864	32767	
3091	0	32862	32764	
3092	0	32822	32832	
3093	0	32784	32758	
3094	0	32812	32806	
3095	0	32756	32760	
3096	0	32768	32694	
3097	0	32804	32756	
3098	0	32834	32738	
3099	0	32836	32852	
3100	0	32816	32706	
3101	0	32792	32860	
3102	0	32853	32848	
3103	0	32774	32702	
3104	0	32884	32794	
3105	0	32856	32896	
3106	0	32784	32815	
3107	0	32760	32772	
3108	0	32839	32842	
3109	0	32840	32838	
3110	0	32862	32808	
3111	0	32848	32756	
3112	0	32824	32772	
3113	0	32794	32786	
3114	0	32820	32772	
3115	0	32796	32671	
3116	0	32834	32727	
3117	0	32776	32758	
3118	0	32820	32788	
3119	0	32804	32642	
3120	0	32808	32654	
3121	0	32848	32736	
3122	0	32846	32868	
3123	0	32842	32838	
3124	0	32756	32854	
3125	0	32792	32793	
3126	0	32850	32806	
3127	0	32698	32784	
3128	0	32834	32868	
3129	0	32834	32775	
3130	0	32822	32748	
3131	0	32776	32756	
3132	0	32776	32732	
3133	0	32724	32798	
3134	0	32748	32702	
3135	0	32780	32775	
3136	0	32788	32794	
3137	0	32776	32775	
3138	0	32840	32716	
3139	0	32834	32823	
3140	0	32808	32768	
3141	0	32798	32758	
3142	0	32816	32794	
3143	0	32844	32670	
3144	0	32864	32738	
3145	0	32816	32794	
3146	0	32820	32732	
3147	0	32868	32759	
3148	0	32784	32807	
3149	0	32800	32716	
3150	0	32784	32810	
3151	0	32866	32876	
3152	0	32810	32863	
3153	0	32832	32820	
3154	0	32852	32726	
3155	0	32824	32596	
3156	0	32760	32710	
3157	0	32846	32836	
3158	0	32824	32870	
3159	0	32760	32764	
3160	0	32784	32830	
3161	0	32824	32786	
3162	0	32816	32718	
3163	0	32840	32692	
3164	0	32812	32732	
3165	0	32854	32800	
3166	0	32824	32806	
3167	0	32784	32775	
3168	0	32780	32840	
3169	0	32860	32764	
3170	0	32860	32668	
3171	0	32776	32746	
3172	0	32766	32715	
3173	0	32804	32700	
3174	0	32740	32831	
3175	0	32812	32748	
3176	0	32764	32764	
3177	0	32776	32750	
3178	0	32774	32754	
3179	0	32798	32812	
3180	0	32760	32792	
3181	0	32748	32712	
3182	0	32870	32727	
3183	0	32756	32720	
3184	0	32796	32718	
3185	0	32800	32816	
3186	0	32828	32775	
3187	0	32806	32844	
3188	0	32836	32830	
3189	0	32820	32769	
3190	0	32810	32775	
3191	0	32828	32759	
3192	0	32844	32744	
3193	0	32864	32862	
3194	0	32840	32718	
3195	0	32834	32719	
3196	0	32790	32810	
3197	0	32780	32792	
3198	0	32776	32740	
3199	0	32804	32810	
3200	0	32782	32766	
3201	0	32816	32742	
3202	0	32772	32841	
3203	0	32780	32750	
3204	0	32810	32688	
3205	0	32810	32638	
3206	0	32816	32775	
3207	0	32802	32807	
3208	0	32824	32784	
3209	0	32832	32775	
3210	0	32896	32700	
3211	0	32844	32740	
3212	0	32832	32618	
3213	0	32790	32712	
3214	0	32880	32740	
3215	0	32796	32700	
3216	0	32710	32716	
3217	0	32766	32622	
3218	0	32808	32892	
3219	0	32798	32842	
3220	0	32900	32748	
3221	0	32824	32864	
3222	0	32844	32760	
3223	0	32804	32676	
3224	0	32864	32694	
3225	0	32821	32723	
3226	0	32832	32815	
3227	0	32812	32764	
3228	0	32788	32830	
3229	0	32828	32724	
3230	0	32828	32796	
3231	0	32826	32836	
3232	0	32836	32810	
3233	0	32872	32820	
3234	0	32872	32803	
3235	0	32812	32790	
3236	0	32804	32807	
3237	0	32840	32850	
3238	0	32772	32748	
3239	0	32816	32644	
3240	0	32807	32596	
3241	0	32756	32636	
3242	0	32768	32692	
3243	0	32856	32724	
3244	0	32820	32714	
3245	0	32824	32678	
3246	0	32714	32775	
3247	0	32832	32719	
3248	0	32843	32812	
3249	0	32800	32834	
3250	0	32818	32838	
3251	0	32816	32728	
3252	0	32812	32852	
3253	0	32792	32828	
3254	0	32844	32871	
3255	0	32820	32748	
3256	0	32824	32775	
3257	0	32772	32684	
3258	0	32900	32684	
3259	0	32913	32692	
3260	0	32806	32726	
3261	0	32758	32640	
3262	0	32880	32704	
3263	0	32788	32746	
3264	0	32826	32830	
3265	0	32774	32822	
3266	0	32740	32807	
3267	0	32804	32744	
3268	0	32758	32836	
3269	0	32778	32838	
3270	0	32852	32828	
3271	0	32790	32711	
3272	0	32848	32774	
3273	0	32866	32761	
3274	0	32820	32792	
3275	0	32804	32802	
3276	0	32792	32684	
3277	0	32785	32775	
3278	0	32812	32820	
3279	0	32820	32679	
3280	0	32834	32687	
3281	0	32778	32706	
3282	0	32802	32679	
3283	0	32788	32678	
3284	0	32784	32796	
3285	0	32860	32804	
3286	0	32834	32846	
3287	0	32828	32831	
3288	0	32860	32748	
3289	0	32844	32812	
3290	0	32842	32791	
3291	0	32816	32770	
3292	0	32792	32760	
3293	0	32834	32804	
3294	0	32784	32774	
3295	0	32798	32756	
3296	0	32848	32852	
3297	0	32852	32750	
3298	0	32796	32753	
3299	0	32828	32674	
3300	0	32768	32775	
3301	0	32796	32858	
3302	0	32838	32804	
3303	0	32816	32865	
3304	0	32828	32824	
3305	0	32744	32892	
3306	0	32774	32756	
3307	0	32802	32775	
3308	0	32904	32758	
3309	0	32810	32727	
3310	0	32784	32688	
3311	0	32820	32694	
3312	0	32816	32700	
3313	0	32792	32784	
3314	0	32836	32868	
3315	0	32800	32775	
3316	0	32812	32872	
3317	0	32786	32755	
3318	0	32804	32784	
3319	0	32808	32774	
3320	0	32886	32772	
3321	0	32826	32818	
3322	0	32772	32756	
3323	0	32740	32791	
3324	0	32808	32792	
3325	0	32830	32807	
3326	0	32772	32766	
3327	0	32782	32706	
3328	0	32744	32759	
3329	0	32746	32738	
3330	0	32812	32852	
3331	0	32764	32855	
3332	0	32820	32820	
3333	0	32840	32775	
3334	0	32814	32849	
3335	0	32864	32828	
3336	0	32832	32775	
3337	0	32812	32700	
3338	0	32744	32718	
3339	0	32838	32736	
3340	0	32806	32711	
3341	0	32752	32736	
3342	0	32836	32728	
3343	0	32848	32670	
3344	0	32852	32692	
3345	0	32816	32752	
3346	0	32840	32716	
3347	0	32778	32692	
3348	0	32788	32775	
3349	0	32788	32711	
3350	0	32792	32814	
3351	0	32714	32596	
3352	0	32808	32704	
3353	0	32814	32748	
3354	0	32874	32720	
3355	0	32792	32700	
3356	0	32844	32698	
3357	0	32842	32678	
3358	0	32822	32800	
3359	0	32768	32760	
3360	0	32832	32682	
3361	0	32852	32775	
3362	0	32838	32729	
3363	0	32842	32651	
3364	0	32774	32689	
3365	0	32800	32720	
3366	0	32766	32818	
3367	0	32794	32775	
3368	0	32802	32708	
3369	0	32796	32820	
3370	0	32804	32862	
3371	0	32794	32871	
3372	0	32806	32816	
3373	0	32852	32803	
3374	0	32768	32802	
3375	0	32864	32791	
3376	0	32760	32764	
3377	0	32837	32784	
3378	0	32822	32770	
3379	0	32800	32802	
3380	0	32828	32806	
3381	0	32768	32735	
3382	0	32836	32772	
3383	0	32826	32838	
3384	0	32802	32775	
3385	0	32784	32820	
3386	0	32800	32808	
3387	0	32852	32796	
3388	0	32784	32820	
3389	0	32824	32788	
3390	0	32788	32816	
3391	0	32788	32878	
3392	0	32796	32848	
3393	0	32842	32772	
3394	0	32754	32745	
3395	0	32906	32662	
3396	0	32812	32736	
3397	0	32768	32830	
3398	0	32786	32775	
3399	0	32840	32868	
3400	0	32800	32737	
3401	0	32840	32726	
3402	0	32798	32631	
3403	0	32820	32751	
3404	0	32838	32884	
3405	0	32776	32868	
3406	0	32788	32764	
3407	0	32808	32760	
3408	0	32849	32775	
3409	0	32833	32729	
3410	0	32800	32732	
3411	0	32798	32798	
3412	0	32849	32858	
3413	0	32772	32712	
3414	0	32836	32716	
3415	0	32828	32822	
3416	0	32856	32710	
3417	0	32804	32700	
3418	0	32856	32742	
3419	0	32832	32706	
3420	0	32844	32824	
3421	0	32822	32764	
3422	0	32852	32836	
3423	0	32804	32756	
3424	0	32760	32839	
3425	0	32780	32775	
3426	0	32824	32748	
3427	0	32775	32772	
3428	0	32800	32744	
3429	0	32838	32758	
3430	0	32884	32743	
3431	0	32896	32782	
3432	0	32764	32774	
3433	0	32762	32798	
3434	0	32844	32734	
3435	0	32800	32742	
3436	0	32832	32849	
3437	0	32817	32800	
3438	0	32800	32796	
3439	0	32818	32743	
3440	0	32852	32660	
3441	0	32820	32668	
3442	0	32776	32647	
3443	0	32824	32668	
3444	0	32860	32675	
3445	0	32790	32800	
3446	0	32830	32828	
3447	0	32736	32768	
3448	0	32844	32804	
3449	0	32868	32762	
3450	0	32840	32862	
3451	0	32864	32839	
3452	0	32808	32789	
3453	0	32780	32838	
3454	0	32766	32796	
3455	0	32840	32828	
3456	0	32830	32784	
3457	0	32788	32869	
3458	0	32788	32806	
3459	0	32784	32796	
3460	0	32840	32814	
3461	0	32828	32775	
3462	0	32832	32864	
3463	0	32840	32783	
3464	0	32812	32816	
3465	0	32864	32755	
3466	0	32772	32804	
3467	0	32884	32766	
3468	0	32888	32722	
3469	0	32868	32716	
3470	0	32788	32725	
3471	0	32784	32806	
3472	0	32756	32826	
3473	0	32816	32742	
3474	0	32780	32743	
3475	0	32864	32775	
3476	0	32814	32764	
3477	0	32788	32775	
3478	0	32784	32775	
3479	0	32790	32756	
3480	0	32796	32800	
3481	0	32844	32826	
3482	0	32856	32810	
3483	0	32796	32828	
3484	0	32782	32815	
3485	0	32848	32706	
3486	0	32810	32668	
3487	0	32768	32800	
3488	0	32784	32775	
3489	0	32730	32814	
3490	0	32812	32692	
3491	0	32836	32692	
3492	0	32807	32662	
3493	0	32712	32708	
3494	0	32828	32658	
3495	0	32764	32630	
3496	0	32828	32678	
3497	0	32696	32727	
3498	0	32724	32684	
3499	0	32724	32663	
3500	0	32686	32641	
3501	0	32706	32580	
3502	0	32774	32675	
3503	0	32840	32838	
3504	0	32664	32760	
3505	0	32742	32828	
3506	0	32738	32768	
3507	0	32700	32770	
3508	0	32720	32756	
3509	0	32746	32764	
3510	0	32756	32696	
3511	0	32752	32693	
3512	0	32816	32736	
3513	0	32692	32819	
3514	0	32670	32775	
3515	0	32680	32784	
3516	0	32752	32831	
3517	0	32888	32758	
3518	0	32928	32838	
3519	0	33050	32943	
3520	0	33110	33116	
3521	0	33104	33138	
3522	0	33204	33072	
3523	0	33196	33124	
3524	0	33130	33086	
3525	0	33086	32894	
3526	0	33146	32850	
3527	0	33092	32792	
3528	0	33116	32839	
3529	0	33048	32862	
3530	0	32936	32762	
3531	0	32928	32810	
3532	0	32884	32844	
3533	0	32860	32774	
3534	0	32728	32714	
3535	0	32686	32775	
3536	0	32680	32688	
3537	0	32708	32608	
3538	0	32708	32584	
3539	0	32712	32647	
3540	0	32700	32614	
3541	0	32652	32670	
3542	0	32672	32726	
3543	0	32640	32774	
3544	0	32724	32742	
3545	0	32696	32724	
3546	0	32684	32748	
3547	0	32716	32775	
3548	0	32680	32644	
3549	0	32860	32794	
3550	0	32778	32760	
3551	0	32822	32732	
3552	0	32796	32832	
3553	0	32796	32744	
3554	0	32824	32858	
3555	0	32780	32722	
3556	0	32824	32807	
3557	0	32816	32852	
3558	0	32784	32836	
3559	0	32756	32855	
3560	0	32756	32775	
3561	0	32822	32775	
3562	0	32792	32838	
3563	0	32818	32744	
3564	0	32818	32818	
3565	0	32764	32863	
3566	0	32804	32832	
3567	0	32804	32663	
3568	0	32904	32693	
3569	0	32854	32674	
3570	0	32782	32660	
3571	0	32792	32692	
3572	0	32776	32718	
3573	0	32844	32744	
3574	0	32776	32676	
3575	0	32780	32676	
3576	0	32794	32688	
3577	0	32828	32750	
3578	0	32890	32862	
3579	0	32812	32742	
3580	0	32780	32804	
3581	0	32740	32788	
3582	0	32820	32728	
3583	0	32764	32755	
3584	0	32828	32860	
3585	0	32864	32816	
3586	0	32810	32730	
3587	0	32762	32686	
3588	0	32742	32660	
3589	0	32744	32876	
3590	0	32748	32842	
3591	0	32816	32798	
3592	0	32801	32796	
3593	0	32756	32814	
3594	0	32812	32764	
3595	0	32810	32728	
3596	0	32816	32711	
3597	0	32792	32771	
3598	0	32820	32792	
3599	0	32858	32810	
3600	0	32856	32844	
3601	0	32856	32868	
3602	0	32800	32820	
3603	0	32788	32775	
3604	0	32808	32838	
3605	0	32748	32788	
3606	0	32798	32814	
3607	0	32818	32742	
3608	0	32804	32836	
3609	0	32798	32858	
3610	0	32776	32756	
3611	0	32804	32678	
3612	0	32816	32632	
3613	0	32796	32700	
3614	0	32868	32762	
3615	0	32788	32646	
3616	0	32872	32748	
3617	0	32841	32734	
3618	0	32832	32742	
3619	0	32828	32744	
3620	0	32788	32654	
3621	0	32784	32692	
3622	0	32822	32656	
3623	0	32878	32702	
3624	0	32798	32672	
3625	0	32760	32807	
3626	0	32822	32898	
3627	0	32816	32764	
3628	0	32814	32775	
3629	0	32762	32775	
3630	0	32788	32855	
3631	0	32860	32855	
3632	0	32784	32775	
3633	0	32808	32812	
3634	0	32748	32824	
3635	0	32848	32748	
3636	0	32810	32712	
3637	0	32792	32730	
3638	0	32728	32804	
3639	0	32824	32712	
3640	0	32780	32742	
3641	0	32824	32727	
3642	0	32836	32738	
3643	0	32776	32820	
3644	0	32760	32818	
3645	0	32756	32758	
3646	0	32748	32803	
3647	0	32788	32766	
3648	0	32840	32740	
3649	0	32888	32775	
3650	0	32812	32775	
3651	0	32837	32764	
3652	0	32796	32834	
3653	0	32776	32775	
3654	0	32828	32888	
3655	0	32826	32840	
3656	0	32808	32823	
3657	0	32820	32658	
3658	0	32800	32654	
3659	0	32838	32744	
3660	0	32764	32670	
3661	0	32816	32695	
3662	0	32863	32844	
3663	0	32884	32836	
3664	0	32753	32806	
3665	0	32820	32760	
3666	0	32848	32770	
3667	0	32880	32858	
3668	0	32876	32775	
3669	0	32804	32788	
3670	0	32802	32792	
3671	0	32840	32792	
3672	0	32836	32764	
3673	0	32804	32846	
3674	0	32852	32762	
3675	0	32816	32670	
3676	0	32868	32740	
3677	0	32832	32676	
3678	0	32812	32688	
3679	0	32790	32870	
3680	0	32764	32815	
3681	0	32740	32768	
3682	0	32796	32724	
3683	0	32794	32788	
3684	0	32746	32903	
3685	0	32804	32734	
3686	0	32806	32764	
3687	0	32708	32836	
3688	0	32756	32712	
3689	0	32772	32676	
3690	0	32804	32775	
3691	0	32744	32713	
3692	0	32868	32611	
3693	0	32812	32746	
3694	0	32832	32663	
3695	0	32838	32724	
3696	0	32772	32790	
3697	0	32804	32807	
3698	0	32830	32770	
3699	0	32894	32736	
3700	0	32816	32855	
3701	0	32756	32599	
3702	0	32804	32700	
3703	0	32788	32823	
3704	0	32812	32774	
3705	0	32804	32692	
3706	0	32816	32775	
3707	0	32812	32708	
3708	0	32864	32774	
3709	0	32788	32863	
3710	0	32844	32808	
3711	0	32828	32754	
3712	0	32824	32836	
3713	0	32756	32822	
3714	0	32784	32770	
3715	0	32872	32863	
3716	0	32844	32804	
3717	0	32860	32824	
3718	0	32784	32679	
3719	0	32820	32678	
3720	0	32808	32732	
3721	0	32884	32768	
3722	0	32804	32742	
3723	0	32852	32750	
3724	0	32884	32734	
3725	0	32796	32822	
3726	0	32832	32888	
3727	0	32810	32752	
3728	0	32810	32676	
3729	0	32804	32664	
3730	0	32920	32700	
3731	0	32848	32756	
3732	0	32764	32884	
3733	0	32832	32858	
3734	0	32816	32744	
3735	0	32848	32752	
3736	0	32780	32786	
3737	0	32728	32856	
3738	0	32796	32763	
3739	0	32740	32736	
3740	0	32812	32724	
3741	0	32807	32687	
3742	0	32849	32740	
3743	0	32852	32814	
3744	0	32884	32740	
3745	0	32828	32746	
3746	0	32804	32810	
3747	0	32820	32766	
3748	0	32796	32743	
3749	0	32836	32788	
3750	0	32788	32752	
3751	0	32896	32816	
3752	0	32796	32836	
3753	0	32832	32727	
3754	0	32772	32738	
3755	0	32858	32767	
3756	0	32896	32775	
3757	0	32840	32791	
3758	0	32744	32746	
3759	0	32798	32788	
3760	0	32784	32718	
3761	0	32760	32747	
3762	0	32728	32766	
3763	0	32848	32922	
3764	0	32712	32775	
3765	0	32828	32892	
3766	0	32818	32870	
3767	0	32760	32868	
3768	0	32820	32800	
3769	0	32816	32736	
3770	0	32764	32752	
3771	0	32876	32774	
3772	0	32798	32748	
3773	0	32778	32791	
3774	0	32808	32750	
3775	0	32854	32775	
3776	0	32812	32728	
3777	0	32848	32756	
3778	0	32798	32841	
3779	0	32844	32766	
3780	0	32849	32725	
3781	0	32764	32702	
3782	0	32802	32734	
3783	0	32780	32691	
3784	0	32764	32770	
3785	0	32832	32652	
3786	0	32888	32604	
3787	0	32788	32638	
3788	0	32708	32856	
3789	0	32724	32826	
3790	0	32800	32870	
3791	0	32737	32852	
3792	0	32849	32766	
3793	0	32776	32818	
3794	0	32748	32740	
3795	0	32832	32816	
3796	0	32798	32775	
3797	0	32892	32800	
3798	0	32844	32812	
3799	0	32786	32820	
3800	0	32848	32897	
3801	0	32734	32804	
3802	0	32836	32803	
3803	0	32780	32708	
3804	0	32852	32650	
3805	0	32804	32750	
3806	0	32788	32800	
3807	0	32802	32804	
3808	0	32772	32792	
3809	0	32808	32694	
3810	0	32760	32830	
3811	0	32786	32828	
3812	0	32844	32756	
3813	0	32868	32634	
3814	0	32776	32818	
3815	0	32840	32775	
3816	0	32828	32812	
3817	0	32926	32806	
3818	0	32848	32724	
3819	0	32872	32752	
3820	0	32808	32788	
3821	0	32844	32838	
3822	0	32846	32768	
3823	0	32872	32746	
3824	0	32856	32698	
3825	0	32816	32864	
3826	0	32746	32734	
3827	0	32762	32730	
3828	0	32732	32676	
3829	0	32856	32855	
3830	0	32840	32794	
3831	0	32772	32728	
3832	0	32848	32666	
3833	0	32884	32698	
3834	0	32828	32775	
3835	0	32779	32732	
3836	0	32732	32775	
3837	0	32872	32775	
3838	0	32752	32727	
3839	0	32726	32814	
3840	0	32820	32752	
3841	0	32806	32768	
3842	0	32832	32785	
3843	0	32744	32742	
3844	0	32830	32735	
3845	0	32808	32748	
3846	0	32816	32756	
3847	0	32804	32806	
3848	0	32784	32814	
3849	0	32724	32752	
3850	0	32756	32807	
3851	0	32796	32700	
3852	0	32808	32706	
3853	0	32840	32710	
3854	0	32760	32798	
3855	0	32800	32810	
3856	0	32768	32690	
3857	0	32784	32794	
3858	0	32768	32718	
3859	0	32826	32743	
3860	0	32808	32711	
3861	0	32808	32802	
3862	0	32816	32807	
3863	0	32848	32892	
3864	0	32872	32846	
3865	0	32849	32692	
3866	0	32884	32636	
3867	0	32856	32724	
3868	0	32772	32729	
3869	0	32816	32736	
3870	0	32816	32822	
3871	0	32774	32854	
3872	0	32868	32720	
3873	0	32864	32775	
3874	0	32806	32720	
3875	0	32848	32670	
3876	0	32858	32647	
3877	0	32838	32690	
3878	0	32816	32839	
3879	0	32844	32772	
3880	0	32812	32849	
3881	0	32780	32734	
3882	0	32725	32716	
3883	0	32804	32826	
3884	0	32764	32942	
3885	0	32806	32790	
3886	0	32768	32696	
3887	0	32786	32647	
3888	0	32760	32640	
3889	0	32804	32670	
3890	0	32774	32696	
3891	0	32848	32704	
3892	0	32816	32758	
3893	0	32888	32726	
3894	0	32832	32680	
3895	0	32856	32666	
3896	0	32814	32644	
3897	0	32772	32824	
3898	0	32796	32744	
3899	0	32808	32748	
3900	0	32716	32801	
3901	0	32742	32750	
3902	0	32858	32814	
3903	0	32772	32775	
3904	0	32820	32740	
3905	0	32804	32762	
3906	0	32796	32772	
3907	0	32848	32784	
3908	0	32780	32774	
3909	0	32789	32732	
3910	0	32848	32676	
3911	0	32854	32702	
3912	0	32884	32720	
3913	0	32766	32750	
3914	0	32820	32774	
3915	0	32772	32774	
3916	0	32864	32718	
3917	0	32900	32756	
3918	0	32818	32786	
3919	0	32852	32774	
3920	0	32804	32768	
3921	0	32810	32820	
3922	0	32784	32754	
3923	0	32776	32816	
3924	0	32802	32792	
3925	0	32852	32758	
3926	0	32800	32660	
3927	0	32748	32580	
3928	0	32816	32636	
3929	0	32788	32774	
3930	0	32740	32855	
3931	0	32800	32790	
3932	0	32800	32849	
3933	0	32768	32804	
3934	0	32776	32862	
3935	0	32770	32800	
3936	0	32868	32671	
3937	0	32812	32694	
3938	0	32836	32658	
3939	0	32772	32692	
3940	0	32808	32832	
3941	0	32810	32737	
3942	0	32800	32830	
3943	0	32792	32812	
3944	0	32817	32862	
3945	0	32900	32871	
3946	0	32774	32874	
3947	0	32788	32818	
3948	0	32840	32764	
3949	0	32794	32756	
3950	0	32790	32838	
3951	0	32828	32746	
3952	0	32858	32794	
3953	0	32863	32912	
3954	0	32796	32816	
3955	0	32862	32775	
3956	0	32806	32796	
3957	0	32799	32782	
3958	0	32834	32828	
3959	0	32796	32818	
3960	0	32800	32822	
3961	0	32826	32878	
3962	0	32798	32807	
3963	0	32836	32838	
3964	0	32708	32720	
3965	0	32758	32672	
3966	0	32810	32712	
3967	0	32849	32743	
3968	0	32770	32756	
3969	0	32828	32738	
3970	0	32736	32742	
3971	0	32784	32775	
3972	0	32752	32892	
3973	0	32876	32870	
3974	0	32808	32811	
3975	0	32832	32696	
3976	0	32824	32751	
3977	0	32884	32775	
3978	0	32760	32864	
3979	0	32756	32647	
3980	0	32784	32775	
3981	0	32806	32712	
3982	0	32812	32828	
3983	0	32880	32762	
3984	0	32828	32774	
3985	0	32854	32744	
3986	0	32844	32807	
3987	0	32788	32769	
3988	0	32832	32753	
3989	0	32782	32700	
3990	0	32784	32769	
3991	0	32812	32647	
3992	0	32788	32818	
3993	0	32832	32772	
3994	0	32746	32728	
3995	0	32788	32698	
3996	0	32828	32722	
3997	0	32860	32772	
3998	0	32772	32860	
3999	0	32868	32828	
4000	0	32800	32750	
4001	0	32870	32736	
4002	0	32836	32722	
4003	0	32868	32734	
4004	0	32812	32818	
4005	0	32836	32694	
4006	0	32856	32894	
4007	0	32820	32820	
4008	0	32796	32935	
4009	0	32708	32810	
4010	0	32752	32820	
4011	0	32794	32774	
4012	0	32742	32754	
4013	0	32718	32759	
4014	0	32844	32720	
4015	0	32852	32682	
4016	0	32780	32686	
4017	0	32704	32736	
4018	0	32838	32740	
4019	0	32844	32856	
4020	0	32848	32862	
4021	0	32866	32769	
4022	0	32796	32751	
4023	0	32762	32688	
4024	0	32768	32672	
4025	0	32740	32750	
4026	0	32836	32895	
4027	0	32868	32762	
4028	0	32798	32789	
4029	0	32876	32902	
4030	0	32848	32802	
4031	0	32820	32802	
4032	0	32752	32688	
4033	0	32764	32800	
4034	0	32778	32764	
4035	0	32834	32772	
4036	0	32816	32774	
4037	0	32828	32748	
4038	0	32906	32711	
4039	0	32770	32742	
4040	0	32780	32712	
4041	0	32852	32616	
4042	0	32784	32775	
4043	0	32844	32680	
4044	0	32820	32834	
4045	0	32766	32748	
4046	0	32812	32755	
4047	0	32836	32712	
4048	0	32841	32806	
4049	0	32850	32922	
4050	0	32796	32854	
4051	0	32840	32821	
4052	0	32780	32761	
4053	0	32732	32852	
4054	0	32818	32727	
4055	0	32812	32740	
4056	0	32780	32785	
4057	0	32844	32804	
4058	0	32760	32860	
4059	0	32814	32836	
4060	0	32792	32788	
4061	0	32816	32775	
4062	0	32904	32796	
4063	0	32840	32850	
4064	0	32836	32814	
4065	0	32849	32850	
4066	0	32782	32804	
4067	0	32788	32756	
4068	0	32854	32656	
4069	0	32752	32706	
4070	0	32725	32636	
4071	0	32814	32660	
4072	0	32768	32684	
4073	0	32782	32646	
4074	0	32856	32672	
4075	0	32796	32684	
4076	0	32756	32674	
4077	0	32836	32743	
4078	0	32768	32750	
4079	0	32744	32734	
4080	0	32768	32726	
4081	0	32808	32808	
4082	0	32854	32718	
4083	0	32868	32688	
4084	0	32796	32764	
4085	0	32816	32804	
4086	0	32804	32736	
4087	0	32826	32680	
4088	0	32880	32792	
4089	0	32772	32839	
4090	0	32720	32832	
4091	0	32780	32807	
4092	0	32824	32734	
4093	0	32900	32766	
4094	0	32876	32736	
4095	0	32770	32796	
4096	0	32804	32772	
4097	0	32820	32742	
4098	0	32796	32709	
4099	0	32826	32842	
4100	0	32872	32846	
4101	0	32842	32842	
4102	0	32870	32764	
4103	0	32772	32746	
4104	0	32816	32735	
4105	0	32856	32784	
4106	0	32869	32712	
4107	0	32748	32720	
4108	0	32788	32711	
4109	0	32768	32802	
4110	0	32724	32768	
4111	0	32768	32738	
4112	0	32798	32814	
4113	0	32784	32796	
4114	0	32804	32730	
4115	0	32800	32756	
4116	0	32876	32742	
4117	0	32824	32834	
4118	0	32794	32824	
4119	0	32853	32812	
4120	0	32826	32734	
4121	0	32852	32738	
4122	0	32818	32816	
4123	0	32792	32734	
4124	0	32783	32708	
4125	0	32848	32711	
4126	0	32718	32647	
4127	0	32826	32753	
4128	0	32800	32792	
4129	0	32848	32750	
4130	0	32738	32820	
4131	0	32876	32846	
4132	0	32804	32896	
4133	0	32800	32856	
4134	0	32828	32775	
4135	0	32800	32852	
4136	0	32860	32790	
4137	0	32768	32818	
4138	0	32800	32960	
4139	0	32740	32742	
4140	0	32772	32741	
4141	0	32864	32726	
4142	0	32812	32846	
4143	0	32801	32678	
4144	0	32816	32640	
4145	0	32800	32700	
4146	0	32800	32666	
4147	0	32828	32736	
4148	0	32760	32632	
4149	0	32880	32614	
4150	0	32794	32678	
4151	0	32844	32652	
4152	0	32820	32658	
4153	0	32804	32804	
4154	0	32816	32767	
4155	0	32800	32703	
4156	0	32780	32844	
4157	0	32804	32675	
4158	0	32836	32736	
4159	0	32880	32840	
4160	0	32814	32894	
4161	0	32836	32830	
4162	0	32744	32800	
4163	0	32820	32824	
4164	0	32852	32796	
4165	0	32802	32775	
4166	0	32884	32740	
4167	0	32836	32864	
4168	0	32906	32654	
4169	0	32888	32586	
4170	0	32856	32910	
4171	0	32800	32810	
4172	0	32742	32658	
4173	0	32752	32764	
4174	0	32816	32762	
4175	0	32824	32727	
4176	0	32837	32664	
4177	0	32776	32702	
4178	0	32770	32774	
4179	0	32868	32768	
4180	0	32808	32694	
4181	0	32762	32714	
4182	0	32828	32679	
4183	0	32816	32686	
4184	0	32816	32766	
4185	0	32756	32817	
4186	0	32784	32868	
4187	0	32848	32787	
4188	0	32832	32792	
4189	0	32856	32752	
4190	0	32868	32766	
4191	0	32794	32850	
4192	0	32814	32786	
4193	0	32884	32786	
4194	0	32808	32844	
4195	0	32796	32746	
4196	0	32788	32704	
4197	0	32836	32720	
4198	0	32848	32788	
4199	0	32788	32844	
4200	0	32776	32839	
4201	0	32826	32860	
4202	0	32892	32764	
4203	0	32882	32692	
4204	0	32804	32794	
4205	0	32884	32858	
4206	0	32847	32814	
4207	0	32832	32812	
4208	0	32777	32850	
4209	0	32824	32775	
4210	0	32764	32688	
4211	0	32748	32684	
4212	0	32808	32672	
4213	0	32864	32760	
4214	0	32770	32775	
4215	0	32736	32746	
4216	0	32800	32912	
4217	0	32764	32882	
4218	0	32772	32790	
4219	0	32856	32808	
4220	0	32762	32847	
4221	0	32796	32769	
4222	0	32764	32710	
4223	0	32828	32702	
4224	0	32768	32769	
4225	0	32788	32865	
4226	0	32780	32810	
4227	0	32782	32734	
4228	0	32824	32692	
4229	0	32772	32724	
4230	0	32786	32762	
4231	0	32778	32775	
4232	0	32788	32823	
4233	0	32748	32740	
4234	0	32762	32836	
4235	0	32876	32726	
4236	0	32866	32714	
4237	0	32862	32698	
4238	0	32756	32726	
4239	0	32836	32772	
4240	0	32896	32710	
4241	0	32856	32652	
4242	0	32846	32834	
4243	0	32872	32828	
4244	0	32901	32782	
4245	0	32976	32775	
4246	0	32840	32670	
4247	0	32860	32916	
4248	0	32842	32892	
4249	0	32876	32916	
4250	0	32774	32890	
4251	0	32764	32636	
4252	0	32750	32742	
4253	0	32684	32903	
4254	0	32718	32743	
4255	0	32792	32719	
4256	0	32808	32775	
4257	0	32752	32805	
4258	0	32768	32772	
4259	0	32760	32732	
4260	0	32760	32796	
4261	0	32836	32808	
4262	0	32832	32775	
4263	0	32804	32794	
4264	0	32864	32718	
4265	0	32892	32742	
4266	0	32952	32679	
4267	0	32852	32821	
4268	0	32812	32748	
4269	0	32728	32724	
4270	0	32696	32700	
4271	0	32682	32740	
4272	0	32780	32892	
4273	0	32700	32726	
4274	0	32772	32609	
4275	0	32724	32636	
4276	0	32660	32588	
4277	0	32672	32614	
4278	0	32654	32655	
4279	0	32732	32721	
4280	0	32734	32736	
4281	0	32756	32698	
4282	0	32748	32804	
4283	0	32734	32847	
4284	0	32786	32775	
4285	0	32798	32730	
4286	0	32784	32641	
4287	0	32752	32716	
4288	0	32689	32790	
4289	0	32774	32935	
4290	0	32808	32856	
4291	0	32862	32788	
4292	0	32852	32806	
4293	0	32940	32775	
4294	0	32932	32802	
4295	0	33004	32940	
4296	0	33082	33060	
4297	0	33146	33104	
4298	0	33178	33134	
4299	0	33200	33194	
4300	0	33152	33122	
4301	0	33096	32958	
4302	0	33012	32960	
4303	0	32948	32980	
4304	0	32976	32922	
4305	0	32960	32844	
4306	0	32898	32732	
4307	0	32840	32788	
4308	0	32928	32758	
4309	0	32804	32728	
4310	0	32670	32772	
4311	0	32748	32636	
4312	0	32824	32592	
4313	0	32774	32583	
4314	0	32810	32550	
4315	0	32608	32526	
4316	0	32592	32573	
4317	0	32600	32738	
4318	0	32708	32560	
4319	0	33050	32700	
4320	0	32988	32654	
4321	0	32948	32772	
4322	0	32480	32688	
4323	0	32220	32814	
4324	0	32448	32806	
4325	0	32512	32742	
4326	0	32689	32846	
4327	0	32804	32750	
4328	0	33000	32754	
4329	0	32912	32852	
4330	0	33018	32770	
4331	0	33088	32736	
4332	0	33668	32744	
4333	0	33012	32688	
4334	0	32796	32688	
4335	0	32252	32692	
4336	0	31948	32704	
4337	0	32132	32726	
4338	0	32532	32740	
4339	0	32704	32822	
4340	0	32932	32812	
4341	0	32870	32836	
4342	0	32936	32760	
4343	0	32880	32770	
4344	0	32880	32772	
4345	0	32884	32775	
4346	0	32936	32775	
4347	0	32866	32843	
4348	0	32848	32764	
4349	0	32814	32788	
4350	0	32778	32794	
4351	0	32808	32678	
4352	0	32760	32775	
4353	0	32822	32624	
4354	0	32846	32774	
4355	0	32892	32810	
4356	0	32898	32766	
4357	0	32928	32847	
4358	0	32908	32762	
4359	0	32952	32839	
4360	0	32836	32832	
4361	0	32836	32854	
4362	0	32814	32824	
4363	0	32812	32930	
4364	0	32700	32775	
4365	0	32784	32732	
4366	0	32752	32742	
4367	0	32780	32757	
4368	0	32804	32770	
4369	0	32780	32858	
4370	0	32730	32702	
4371	0	32714	32490	
4372	0	32764	32686	
4373	0	32772	32743	
4374	0	32788	32726	
4375	0	32784	32564	
4376	0	32810	32586	
4377	0	32757	32658	
4378	0	32756	32856	
4379	0	32780	32900	
4380	0	32868	32760	
4381	0	32956	32694	
4382	0	32968	32688	
4383	0	33008	32744	
4384	0	32968	32704	
4385	0	32932	32724	
4386	0	32840	32990	
4387	0	32812	32951	
4388	0	32684	32820	
4389	0	32696	32722	
4390	0	32706	32844	
4391	0	32684	32708	
4392	0	32672	32711	
4393	0	32782	32911	
4394	0	32760	33018	
4395	0	32686	32551	
4396	0	32752	32492	
4397	0	32736	32636	
4398	0	32844	32764	
4399	0	32838	32906	
4400	0	32864	32956	
4401	0	32884	32978	
4402	0	32816	32888	
4403	0	32823	32903	
4404	0	32808	32846	
4405	0	32860	32610	
4406	0	32864	32644	
4407	0	32836	32743	
4408	0	32852	32842	
4409	0	32778	32815	
4410	0	32816	32754	
4411	0	32904	32798	
4412	0	32836	32690	
4413	0	32846	32654	
4414	0	32856	32687	
4415	0	32826	32741	
4416	0	32826	32668	
4417	0	32778	32652	
4418	0	32758	32670	
4419	0	32688	32688	
4420	0	32802	32686	
4421	0	32764	32618	
4422	0	32764	32684	
4423	0	32824	32772	
4424	0	32764	32758	
4425	0	32820	32903	
4426	0	32852	32878	
4427	0	32826	32742	
4428	0	32856	32914	
4429	0	32904	32866	
4430	0	32904	32810	
4431	0	32834	32828	
4432	0	32864	32844	
4433	0	32900	32816	
4434	0	32900	32708	
4435	0	32944	32622	
4436	0	32872	32666	
4437	0	32840	32726	
4438	0	32826	32836	
4439	0	32852	32814	
4440	0	32854	32789	
4441	0	32680	32854	
4442	0	32774	32780	
4443	0	32750	32810	
4444	0	32760	32816	
4445	0	32880	32766	
4446	0	32900	32709	
4447	0	32770	32743	
4448	0	32686	32852	
4449	0	32816	32841	
4450	0	32800	32730	
4451	0	32758	32790	
4452	0	32864	32758	
4453	0	32742	32768	
4454	0	32708	32806	
4455	0	32866	32894	
4456	0	32890	32775	
4457	0	32830	32711	
4458	0	32976	32748	
4459	0	32976	32606	
4460	0	32878	32662	
4461	0	32640	32572	
4462	0	32536	32647	
4463	0	32658	32650	
4464	0	32804	32840	
4465	0	32784	32943	
4466	0	32818	32800	
4467	0	32900	32874	
4468	0	32804	32596	
4469	0	32884	32564	
4470	0	32858	32668	
4471	0	32868	32657	
4472	0	32938	32679	
4473	0	32868	32730	
4474	0	32848	32810	
4475	0	32900	32848	
4476	0	32848	32814	
4477	0	32904	32887	
4478	0	32720	32728	
4479	0	32708	32642	
4480	0	32812	32562	
4481	0	32812	32569	
4482	0	32764	32804	
4483	0	32856	32908	
4484	0	32772	32860	
4485	0	32848	32760	
4486	0	32772	32758	
4487	0	32724	32852	
4488	0	32728	32770	
4489	0	32848	32742	
4490	0	32820	32702	
4491	0	32884	32647	
4492	0	32860	32625	
4493	0	32768	32614	
4494	0	32796	32809	
4495	0	32710	32856	
4496	0	32992	32775	
4497	0	32784	32748	
4498	0	32834	32714	
4499	0	32814	32826	
4500	0	32856	32664	
4501	0	32730	32638	
4502	0	32788	32775	
4503	0	32868	32838	
4504	0	32804	32844	
4505	0	32744	32876	
4506	0	32788	32852	
4507	0	32908	32762	
4508	0	32940	32870	
4509	0	32860	32856	
4510	0	32820	32853	
4511	0	32804	32744	
4512	0	32868	32766	
4513	0	32642	32738	
4514	0	32778	32756	
4515	0	32760	32762	
4516	0	32704	32698	
4517	0	32820	32758	
4518	0	32852	32786	
4519	0	32772	32742	
4520	0	32756	32745	
4521	0	32790	32758	
4522	0	32874	32752	
4523	0	32904	32807	
4524	0	32956	32916	
4525	0	32974	32814	
4526	0	32908	32727	
4527	0	32741	32764	
4528	0	32844	32751	
4529	0	32720	32748	
4530	0	32740	32722	
4531	0	32784	32726	
4532	0	32829	32774	
4533	0	32774	32754	
4534	0	32856	32764	
4535	0	32878	32788	
4536	0	32884	32736	
4537	0	32922	32860	
4538	0	32864	32789	
4539	0	32880	32746	
4540	0	32912	32701	
4541	0	32820	32732	
4542	0	32878	32740	
4543	0	32704	32694	
4544	0	32748	32662	
4545	0	32985	32652	
4546	0	33052	32864	
4547	0	32940	32816	
4548	0	32564	32668	
4549	0	32330	32815	
4550	0	32498	32773	
4551	0	32656	32774	
4552	0	32670	32744	
4553	0	32832	32845	
4554	0	32688	32804	
4555	0	32836	32812	
4556	0	32840	32836	
4557	0	32846	32826	
4558	0	32808	32802	
4559	0	32870	32807	
4560	0	32916	32924	
4561	0	32816	32775	
4562	0	32930	32743	
4563	0	32932	32837	
4564	0	32920	32688	
4565	0	32832	32839	
4566	0	32846	32902	
4567	0	32760	32828	
4568	0	32828	32768	
4569	0	32792	32775	
4570	0	32834	32748	
4571	0	32816	32748	
4572	0	32764	32726	
4573	0	32864	32734	
4574	0	32864	32820	
4575	0	32802	32740	
4576	0	32768	32812	
4577	0	32792	32696	
4578	0	32789	32836	
4579	0	32748	32810	
4580	0	32762	32786	
4581	0	32806	32775	
4582	0	32834	32728	
4583	0	32780	32758	
4584	0	32952	32822	
4585	0	32776	32838	
4586	0	32740	32738	
4587	0	32802	32660	
4588	0	32864	32759	
4589	0	32856	32822	
4590	0	32800	32842	
4591	0	32760	32740	
4592	0	32792	32698	
4593	0	32832	32622	
4594	0	32844	32704	
4595	0	32816	32622	
4596	0	32830	32676	
4597	0	32890	32674	
4598	0	32800	32740	
4599	0	32852	32764	
4600	0	32800	32884	
4601	0	32848	32903	
4602	0	32860	32843	
4603	0	32842	32846	
4604	0	32784	32773	
4605	0	32688	32874	
4606	0	32756	32702	
4607	0	32756	32703	
4608	0	32808	32613	
4609	0	32780	32484	
4610	0	32800	32510	
4611	0	32850	32762	
4612	0	32860	32903	
4613	0	32872	32740	
4614	0	32896	32684	
4615	0	32796	32750	
4616	0	32848	32890	
4617	0	32768	32792	
4618	0	32760	32840	
4619	0	32848	32919	
4620	0	32864	32784	
4621	0	32874	32692	
4622	0	32890	32832	
4623	0	32927	32852	
4624	0	32888	32810	
4625	0	32904	32724	
4626	0	32744	32679	
4627	0	32752	32754	
4628	0	32786	32738	
4629	0	32668	32656	
4630	0	32724	32622	
4631	0	32768	32678	
4632	0	32836	32730	
4633	0	32856	32698	
4634	0	32828	32666	
4635	0	32680	32668	
4636	0	32678	32708	
4637	0	32744	32692	
4638	0	32716	32644	
4639	0	32812	32734	
4640	0	32844	32775	
4641	0	32780	32638	
4642	0	32792	32660	
4643	0	32840	32791	
4644	0	32784	32852	
4645	0	32816	32864	
4646	0	32822	32828	
4647	0	32852	32737	
4648	0	32884	32775	
4649	0	32880	32839	
4650	0	32900	32916	
4651	0	32880	32936	
4652	0	32866	32784	
4653	0	32772	32750	
4654	0	32832	32800	
4655	0	32840	32872	
4656	0	32784	32828	
4657	0	32728	32703	
4658	0	32832	32822	
4659	0	32836	32772	
4660	0	32818	32775	
4661	0	32764	32804	
4662	0	32738	32832	
4663	0	32794	32774	
4664	0	32896	32786	
4665	0	32800	32808	
4666	0	32744	32796	
4667	0	32784	32824	
4668	0	32736	32754	
4669	0	32748	32628	
4670	0	32744	32599	
4671	0	32800	32630	
4672	0	32746	32726	
4673	0	32810	32802	
4674	0	32812	32724	
4675	0	32766	32840	
4676	0	32888	32903	
4677	0	32924	32756	
4678	0	32902	32820	
4679	0	32912	32796	
4680	0	32808	32770	
4681	0	32844	32688	
4682	0	32839	32807	
4683	0	32732	32791	
4684	0	32824	32849	
4685	0	32768	32736	
4686	0	32812	32736	
4687	0	32836	32802	
4688	0	32768	32730	
4689	0	32790	32695	
4690	0	32862	32820	
4691	0	32816	32903	
4692	0	32804	32846	
4693	0	32872	32702	
4694	0	32760	32740	
4695	0	32836	32704	
4696	0	32840	32774	
4697	0	32924	32863	
4698	0	32844	32751	
4699	0	32844	32810	
4700	0	32856	32744	
4701	0	32824	32697	
4702	0	32828	32596	
4703	0	32768	32720	
4704	0	32772	32696	
4705	0	32730	32644	
4706	0	32760	32748	
4707	0	32800	32788	
4708	0	32744	32676	
4709	0	32808	32670	
4710	0	32816	32612	
4711	0	32804	32700	
4712	0	32812	32796	
4713	0	32784	32876	
4714	0	32782	32744	
4715	0	32784	32848	
4716	0	32760	32836	
4717	0	32752	32664	
4718	0	32756	32532	
4719	0	32768	32775	
4720	0	32800	32868	
4721	0	32824	32836	
4722	0	32846	32678	
4723	0	32856	32788	
4724	0	32892	32760	
4725	0	32858	32622	
4726	0	32860	32815	
4727	0	32830	32878	
4728	0	32904	32798	
4729	0	32824	32815	
4730	0	32784	32868	
4731	0	32872	32805	
4732	0	32874	32756	
4733	0	32764	32780	
4734	0	32780	32819	
4735	0	32796	32847	
4736	0	32808	32860	
4737	0	32748	32838	
4738	0	32648	32830	
4739	0	32732	32842	
4740	0	32724	32730	
4741	0	32770	32647	
4742	0	32768	32668	
4743	0	32786	32632	
4744	0	32816	32828	
4745	0	32772	32720	
4746	0	32844	32596	
4747	0	32720	32386	
4748	0	32806	32934	
4749	0	32888	32828	
4750	0	32828	32768	
4751	0	32856	32751	
4752	0	32788	32710	
4753	0	32884	32917	
4754	0	32848	32851	
4755	0	32848	32792	
4756	0	32801	32668	
4757	0	32868	32760	
4758	0	32780	32820	
4759	0	32756	32903	
4760	0	32836	32834	
4761	0	32820	32738	
4762	0	32822	32743	
4763	0	32730	32730	
4764	0	32740	32702	
4765	0	32822	32791	
4766	0	32790	32730	
4767	0	32842	32792	
4768	0	32900	32647	
4769	0	32820	32774	
4770	0	32832	32708	
4771	0	32724	32721	
4772	0	32756	32698	
4773	0	32810	32722	
4774	0	32772	32771	
4775	0	32768	32740	
4776	0	32792	32775	
4777	0	32828	32814	
4778	0	32958	32818	
4779	0	32936	32860	
4780	0	32848	32804	
4781	0	32896	32760	
4782	0	32900	32769	
4783	0	32820	32772	
4784	0	32772	32768	
4785	0	32900	32751	
4786	0	32740	32816	
4787	0	32724	32820	
4788	0	32740	32850	
4789	0	32821	32810	
4790	0	32795	32836	
4791	0	32824	32791	
4792	0	32788	32711	
4793	0	32820	32740	
4794	0	32780	32638	
4795	0	32832	32612	
4796	0	32820	32808	
4797	0	32730	32786	
4798	0	32836	32767	
4799	0	32790	32705	
4800	0	32872	32802	
4801	0	32865	32756	
4802	0	32788	32742	
4803	0	32812	32830	
4804	0	32840	32850	
4805	0	32930	32866	
4806	0	32878	32838	
4807	0	32900	32767	
4808	0	32804	32806	
4809	0	32670	32820	
4810	0	32676	32846	
4811	0	32772	32820	
4812	0	32680	32742	
4813	0	32808	32683	
4814	0	32732	32664	
4815	0	32784	32740	
4816	0	32814	32706	
4817	0	32782	32679	
4818	0	32788	32684	
4819	0	32752	32601	
4820	0	32836	32706	
4821	0	32888	32826	
4822	0	32872	32788	
4823	0	32942	32838	
4824	0	32913	32866	
4825	0	32788	32756	
4826	0	32844	32756	
4827	0	32860	32751	
4828	0	32740	32806	
4829	0	32756	32725	
4830	0	32732	32830	
4831	0	32804	32814	
4832	0	32816	32706	
4833	0	32868	32772	
4834	0	32860	32856	
4835	0	32782	32670	
4836	0	32740	32716	
4837	0	32784	32871	
4838	0	32796	32740	
4839	0	32764	32775	
4840	0	32756	32674	
4841	0	32760	32631	
4842	0	32798	32775	
4843	0	32812	32698	
4844	0	32808	32752	
4845	0	32769	32754	
4846	0	32836	32836	
4847	0	32788	32666	
4848	0	32836	32668	
4849	0	32836	32887	
4850	0	32888	32847	
4851	0	32928	32698	
4852	0	32874	32775	
4853	0	32822	32918	
4854	0	32760	32647	
4855	0	32796	32580	
4856	0	32796	32625	
4857	0	32828	32689	
4858	0	32872	32680	
4859	0	32888	32712	
4860	0	32816	32738	
4861	0	32810	32818	
4862	0	32772	32775	
4863	0	32734	32724	
4864	0	32804	32774	
4865	0	32752	32775	
4866	0	32712	32748	
4867	0	32736	32858	
4868	0	32826	32860	
4869	0	32828	32842	
4870	0	32842	32716	
4871	0	32896	32718	
4872	0	32834	32686	
4873	0	32856	32644	
4874	0	32826	32716	
4875	0	32860	32714	
4876	0	32778	32844	
4877	0	32840	32846	
4878	0	32856	32744	
4879	0	32804	32775	
4880	0	32848	32746	
4881	0	32760	32775	
4882	0	32864	32752	
4883	0	32820	32750	
4884	0	32856	32775	
4885	0	32720	32668	
4886	0	32764	32730	
4887	0	32794	32888	
4888	0	32808	32828	
4889	0	32856	32823	
4890	0	32768	32775	
4891	0	32804	32794	
4892	0	32860	32646	
4893	0	32796	32633	
4894	0	32816	32720	
4895	0	32818	32775	
4896	0	32852	32714	
4897	0	32824	32700	
4898	0	32794	32730	
4899	0	32848	32784	
4900	0	32772	32814	
4901	0	32788	32772	
4902	0	32778	32806	
4903	0	32720	32855	
4904	0	32840	32880	
4905	0	32852	32866	
4906	0	32788	32784	
4907	0	32804	32822	
4908	0	32784	32756	
4909	0	32750	32844	
4910	0	32872	32768	
4911	0	32820	32682	
4912	0	32796	32756	
4913	0	32864	32685	
4914	0	32848	32750	
4915	0	32820	32712	
4916	0	32780	32666	
4917	0	32808	32775	
4918	0	32816	32837	
4919	0	32860	32720	
4920	0	32808	32806	
4921	0	32748	32720	
4922	0	32836	32774	
4923	0	32820	32766	
4924	0	32840	32788	
4925	0	32836	32852	
4926	0	32938	32896	
4927	0	32812	32816	
4928	0	32804	32847	
4929	0	32852	32740	
4930	0	32784	32564	
4931	0	32868	32698	
4932	0	32832	32662	
4933	0	32844	32709	
4934	0	32790	32702	
4935	0	32888	32714	
4936	0	32868	32722	
4937	0	32824	32750	
4938	0	32732	32764	
4939	0	32650	32820	
4940	0	32768	32808	
4941	0	32708	32862	
4942	0	32775	32684	
4943	0	32828	32652	
4944	0	32774	32680	
4945	0	32716	32693	
4946	0	32792	32835	
4947	0	32750	32872	
4948	0	32772	32768	
4949	0	32834	32734	
4950	0	32854	32638	
4951	0	32996	32756	
4952	0	32780	32764	
4953	0	32770	32852	
4954	0	32788	32647	
4955	0	32870	32526	
4956	0	32816	32708	
4957	0	32772	32798	
4958	0	32706	32804	
4959	0	32816	32772	
4960	0	32826	32822	
4961	0	32838	32922	
4962	0	32844	32864	
4963	0	32784	32948	
4964	0	32818	32869	
4965	0	32816	32824	
4966	0	32786	32808	
4967	0	32768	32930	
4968	0	32766	32774	
4969	0	32858	32734	
4970	0	32864	32766	
4971	0	32832	32854	
4972	0	32913	32846	
4973	0	32852	32890	
4974	0	32769	32820	
4975	0	32870	32674	
4976	0	32788	32724	
4977	0	32794	32839	
4978	0	33016	32849	
4979	0	32897	32848	
4980	0	32896	32740	
4981	0	32768	32839	
4982	0	32856	32654	
4983	0	32768	32674	
4984	0	32824	32711	
4985	0	32762	32688	
4986	0	32772	32716	
4987	0	32726	32748	
4988	0	32714	32775	
4989	0	32738	32734	
4990	0	32750	32727	
4991	0	32740	32714	
4992	0	32856	32736	
4993	0	32768	32806	
4994	0	32746	32724	
4995	0	32714	32734	
4996	0	32752	32750	
4997	0	32752	32668	
4998	0	32728	32640	
4999	0	32720	32735	
5000	0	32761	32767	
5001	0	32740	32792	
5002	0	32796	32919	
5003	0	32720	32792	
5004	0	32688	32602	
5005	0	32724	32662	
5006	0	32716	32722	
5007	0	32636	32742	
5008	0	32728	32720	
5009	0	32734	32696	
5010	0	32716	32652	
5011	0	32759	32740	
5012	0	32798	32810	
5013	0	32768	32846	
5014	0	32832	32752	
5015	0	32900	32740	
5016	0	32976	32944	
5017	0	33114	33026	
5018	0	33151	33050	
5019	0	33220	33031	
5020	0	33180	33036	
5021	0	33258	33084	
5022	0	33172	33105	
5023	0	33130	32942	
5024	0	33026	32879	
5025	0	33156	32935	
5026	0	32986	32889	
5027	0	32968	32746	
5028	0	32948	32604	
5029	0	32864	32671	
5030	0	32868	32760	
5031	0	32796	32646	
5032	0	32774	32760	
5033	0	32692	32774	
5034	0	32754	32676	
5035	0	32756	32815	
5036	0	32760	32762	
5037	0	32708	32775	
5038	0	32660	32699	
5039	0	32612	32602	
5040	0	32639	32738	
5041	0	32700	32767	
5042	0	32704	32796	
5043	0	32724	32718	
5044	0	32710	32746	
5045	0	32664	32786	
5046	0	32648	32742	
5047	0	32718	32720	
5048	0	32732	32718	
5049	0	32775	32722	
5050	0	32716	32742	
5051	0	32784	32591	
5052	0	32805	32798	
5053	0	32764	32698	
5054	0	32740	32732	
5055	0	32794	32660	
5056	0	32756	32796	
5057	0	32812	32723	
5058	0	32812	32868	
5059	0	32780	32700	
5060	0	32802	32711	
5061	0	32724	32820	
5062	0	32720	32876	
5063	0	32856	32790	
5064	0	32740	32758	
5065	0	32932	32769	
5066	0	32824	32846	
5067	0	32864	32831	
5068	0	32828	32764	
5069	0	32858	32782	
5070	0	32786	32775	
5071	0	32796	32796	
5072	0	32789	32732	
5073	0	32878	32791	
5074	0	32856	32800	
5075	0	32820	32800	
5076	0	32852	32847	
5077	0	32872	32754	
5078	0	32908	32807	
5079	0	32872	32766	
5080	0	32854	32732	
5081	0	32788	32736	
5082	0	32824	32662	
5083	0	32804	32786	
5084	0	32758	32639	
5085	0	32790	32788	
5086	0	32740	32886	
5087	0	32756	32830	
5088	0	32748	32759	
5089	0	32778	32775	
5090	0	32868	32856	
5091	0	32808	32775	
5092	0	32872	32726	
5093	0	32816	32890	
5094	0	32868	32760	
5095	0	32920	32806	
5096	0	32844	32726	
5097	0	32812	32892	
5098	0	32770	32814	
5099	0	32716	32756	
5100	0	32746	32750	
5101	0	32792	32746	
5102	0	32804	32716	
5103	0	32838	32712	
5104	0	32830	32754	
5105	0	32756	32688	
5106	0	32775	32658	
5107	0	32820	32748	
5108	0	32784	32726	
5109	0	32846	32711	
5110	0	32746	32722	
5111	0	32808	32784	
5112	0	32812	32742	
5113	0	32816	32716	
5114	0	32842	32868	
5115	0	32764	32748	
5116	0	32812	32726	
5117	0	32792	32735	
5118	0	32792	32756	
5119	0	32840	32732	
5120	0	32826	32748	
5121	0	32868	32654	
5122	0	32900	32752	
5123	0	32808	32704	
5124	0	32704	32748	
5125	0	32764	32748	
5126	0	32790	32807	
5127	0	32727	32888	
5128	0	32728	32836	
5129	0	32804	32854	
5130	0	32798	32858	
5131	0	32766	32766	
5132	0	32798	32688	
5133	0	32788	32654	
5134	0	32804	32668	
5135	0	32796	32708	
5136	0	32778	32714	
5137	0	32804	32713	
5138	0	32828	32775	
5139	0	32820	32788	
5140	0	32794	32782	
5141	0	32880	32772	
5142	0	32932	32895	
5143	0	32892	32871	
5144	0	32828	32852	
5145	0	32850	32886	
5146	0	32808	32884	
5147	0	32748	32834	
5148	0	32740	32850	
5149	0	32786	32862	
5150	0	32805	32806	
5151	0	32836	32855	
5152	0	32764	32908	
5153	0	32792	32790	
5154	0	32780	32694	
5155	0	32812	32663	
5156	0	32734	32769	
5157	0	32808	32828	
5158	0	32832	32796	
5159	0	32708	32731	
5160	0	32738	32800	
5161	0	32792	32694	
5162	0	32792	32772	
5163	0	32728	32672	
5164	0	32785	32626	
5165	0	32762	32750	
5166	0	32824	32670	
5167	0	32738	32832	
5168	0	32752	32742	
5169	0	32824	32700	
5170	0	32834	32747	
5171	0	32902	32700	
5172	0	32804	32692	
5173	0	32852	32724	
5174	0	32776	32775	
5175	0	32880	32817	
5176	0	32884	32946	
5177	0	32956	32878	
5178	0	32936	32642	
5179	0	32782	32784	
5180	0	32832	32862	
5181	0	32872	32784	
5182	0	32820	32831	
5183	0	32868	32758	
5184	0	32648	32798	
5185	0	32750	32796	
5186	0	32802	32780	
5187	0	32808	32740	
5188	0	32830	32756	
5189	0	32852	32698	
5190	0	32752	32800	
5191	0	32784	32774	
5192	0	32860	32764	
5193	0	32892	32818	
5194	0	32864	32832	
5195	0	32874	32812	
5196	0	32772	32820	
5197	0	32748	32878	
5198	0	32790	32769	
5199	0	32772	32775	
5200	0	32744	32711	
5201	0	32724	32804	
5202	0	32697	32740	
5203	0	32780	32734	
5204	0	32824	32812	
5205	0	32756	32868	
5206	0	32856	32854	
5207	0	32836	32716	
5208	0	32848	32812	
5209	0	32812	32788	
5210	0	32834	32802	
5211	0	32768	32684	
5212	0	32834	32680	
5213	0	32864	32680	
5214	0	32868	32764	
5215	0	32854	32740	
5216	0	32904	32694	
5217	0	32871	32732	
5218	0	32904	32724	
5219	0	32848	32722	
5220	0	32860	32710	
5221	0	32800	32700	
5222	0	32790	32688	
5223	0	32772	32628	
5224	0	32848	32633	
5225	0	32782	32756	
5226	0	32780	32790	
5227	0	32760	32878	
5228	0	32806	32860	
5229	0	32844	32903	
5230	0	32792	32775	
5231	0	32796	32868	
5232	0	32788	32820	
5233	0	32848	32839	
5234	0	32760	32846	
5235	0	32798	32720	
5236	0	32778	32786	
5237	0	32796	32726	
5238	0	32854	32751	
5239	0	32908	32734	
5240	0	32858	32775	
5241	0	32848	32770	
5242	0	32868	32762	
5243	0	32824	32846	
5244	0	32828	32878	
5245	0	32860	32930	
5246	0	32775	32772	
5247	0	32772	32864	
5248	0	32816	32818	
5249	0	32802	32824	
5250	0	32834	32812	
5251	0	32804	32880	
5252	0	32804	32743	
5253	0	32940	32810	
5254	0	32934	32775	
5255	0	32854	32775	
5256	0	32900	32862	
5257	0	32788	32742	
5258	0	32710	32697	
5259	0	32768	32732	
5260	0	32780	32711	
5261	0	32860	32647	
5262	0	32854	32826	
5263	0	32840	32800	
5264	0	32744	32807	
5265	0	32744	32828	
5266	0	32740	32836	
5267	0	32846	32868	
5268	0	32858	32775	
5269	0	32832	32897	
5270	0	32828	32712	
5271	0	32821	32775	
5272	0	32868	32839	
5273	0	32876	32748	
5274	0	32894	32686	
5275	0	32864	32654	
5276	0	32820	32647	
5277	0	32830	32686	
5278	0	32740	32743	
5279	0	32816	32756	
5280	0	32704	32655	
5281	0	32778	32692	
5282	0	32740	32666	
5283	0	32712	32732	
5284	0	32765	32788	
5285	0	32832	32895	
5286	0	32778	32966	
5287	0	32832	32839	
5288	0	32824	32862	
5289	0	32734	32823	
5290	0	32792	32718	
5291	0	32880	32706	
5292	0	32800	32713	
5293	0	32788	32674	
5294	0	32824	32728	
5295	0	32834	32692	
5296	0	32832	32871	
5297	0	32822	32742	
5298	0	32760	32735	
5299	0	32800	32710	
5300	0	32808	32761	
5301	0	32750	32814	
5302	0	32846	32756	
5303	0	32800	32775	
5304	0	32776	32698	
5305	0	32836	32700	
5306	0	32760	32692	
5307	0	32780	32730	
5308	0	32852	32712	
5309	0	32774	32944	
5310	0	32864	32956	
5311	0	32886	32796	
5312	0	32856	32721	
5313	0	32752	32751	
5314	0	32806	32710	
5315	0	32904	32754	
5316	0	32816	32753	
5317	0	32744	32715	
5318	0	32810	32703	
5319	0	32828	32724	
5320	0	32820	32720	
5321	0	32820	32884	
5322	0	32760	32788	
5323	0	32727	32854	
5324	0	32844	32830	
5325	0	32732	32775	
5326	0	32736	32892	
5327	0	32843	32775	
5328	0	32834	32736	
5329	0	32804	32606	
5330	0	32828	32640	
5331	0	32824	32648	
5332	0	32828	32742	
5333	0	32844	32689	
5334	0	32982	32839	
5335	0	32880	32836	
5336	0	32728	32863	
5337	0	32832	32920	
5338	0	32964	32814	
5339	0	32910	32834	
5340	0	32884	32839	
5341	0	32812	32716	
5342	0	32716	32804	
5343	0	32794	32714	
5344	0	32712	32704	
5345	0	32716	32737	
5346	0	32800	32719	
5347	0	32782	32668	
5348	0	32844	32759	
5349	0	32894	32748	
5350	0	32804	32743	
5351	0	32800	32756	
5352	0	32816	32700	
5353	0	32824	32647	
5354	0	32852	32692	
5355	0	32788	32769	
5356	0	32816	32850	
5357	0	32752	32911	
5358	0	32846	32836	
5359	0	32920	32774	
5360	0	32782	32700	
5361	0	32798	32690	
5362	0	32732	32820	
5363	0	32742	32783	
5364	0	32798	32796	
5365	0	32758	32768	
5366	0	32800	32794	
5367	0	32878	32702	
5368	0	32789	32772	
5369	0	32790	32812	
5370	0	32852	32756	
5371	0	32788	32775	
5372	0	32824	32742	
5373	0	32860	32623	
5374	0	32775	32740	
5375	0	32808	32738	
5376	0	32816	32751	
5377	0	32780	32754	
5378	0	32752	32692	
5379	0	32766	32732	
5380	0	32828	32775	
5381	0	32772	32840	
5382	0	32860	32775	
5383	0	32776	32826	
5384	0	32864	32732	
5385	0	32782	32760	
5386	0	32888	32642	
5387	0	32760	32672	
5388	0	32732	32694	
5389	0	32800	32708	
5390	0	32762	32699	
5391	0	32828	32774	
5392	0	32800	32762	
5393	0	32800	32695	
5394	0	32884	32648	
5395	0	32936	32638	
5396	0	32892	32800	
5397	0	32804	32710	
5398	0	32764	32726	
5399	0	32748	32683	
5400	0	32837	32722	
5401	0	32702	32718	
5402	0	32792	32724	
5403	0	32778	32705	
5404	0	32780	32730	
5405	0	32744	32708	
5406	0	32888	32772	
5407	0	32826	32796	
5408	0	32860	32688	
5409	0	32926	32748	
5410	0	32884	32714	
5411	0	32858	32786	
5412	0	32934	32822	
5413	0	32860	32772	
5414	0	32816	32894	
5415	0	32784	32850	
5416	0	32690	32888	
5417	0	32660	32722	
5418	0	32764	32636	
5419	0	32832	32674	
5420	0	32872	32618	
5421	0	32814	32708	
5422	0	32766	32820	
5423	0	32814	32759	
5424	0	32798	32756	
5425	0	32778	32726	
5426	0	32872	32726	
5427	0	32852	32848	
5428	0	32840	32822	
5429	0	32888	32804	
5430	0	32888	32871	
5431	0	32808	32817	
5432	0	32838	32824	
5433	0	32832	32734	
5434	0	32846	32670	
5435	0	32780	32798	
5436	0	32776	32768	
5437	0	32780	32686	
5438	0	32704	32880	
5439	0	32700	32852	
5440	0	32784	32740	
5441	0	32804	32727	
5442	0	32884	32727	
5443	0	32802	32712	
5444	0	32764	32679	
5445	0	32808	32732	
5446	0	32772	32870	
5447	0	32806	32858	
5448	0	32796	32770	
5449	0	32740	32906	
5450	0	32810	32911	
5451	0	32808	32819	
5452	0	32826	32647	
5453	0	32860	32680	
5454	0	32804	32800	
5455	0	32852	32796	
5456	0	32828	32826	
5457	0	32802	32807	
5458	0	32828	32743	
5459	0	32840	32676	
5460	0	32856	32775	
5461	0	32796	32716	
5462	0	32852	32792	
5463	0	32736	32712	
5464	0	32858	32810	
5465	0	32864	32686	
5466	0	32777	32708	
5467	0	32792	32647	
5468	0	32708	32734	
5469	0	32718	32660	
5470	0	32760	32647	
5471	0	32828	32822	
5472	0	32908	32862	
5473	0	32964	32806	
5474	0	32984	32812	
5475	0	32944	32835	
5476	0	32682	32863	
5477	0	32862	32864	
5478	0	32806	32740	
5479	0	32800	32758	
5480	0	32762	32712	
5481	0	32800	32724	
5482	0	32744	32742	
5483	0	32768	32822	
5484	0	32796	32842	
5485	0	32762	32800	
5486	0	32748	32748	
5487	0	32752	32596	
5488	0	32746	32579	
5489	0	32824	32664	
5490	0	32764	32768	
5491	0	32794	32804	
5492	0	32762	32788	
5493	0	32796	32796	
5494	0	32860	32724	
5495	0	32922	32744	
5496	0	32858	32825	
5497	0	32760	32964	
5498	0	32780	32774	
5499	0	32788	32764	
5500	0	32842	32784	
5501	0	32856	32706	
5502	0	32816	32844	
5503	0	32908	32820	
5504	0	32838	32826	
5505	0	32880	32754	
5506	0	32886	32864	
5507	0	32906	32786	
5508	0	32852	32724	
5509	0	32610	32844	
5510	0	32684	32826	
5511	0	32804	32744	
5512	0	32746	32784	
5513	0	32720	32788	
5514	0	32744	32732	
5515	0	32796	32828	
5516	0	32784	32814	
5517	0	32784	32775	
5518	0	32776	32638	
5519	0	32724	32750	
5520	0	32888	32619	
5521	0	32858	32775	
5522	0	32908	32706	
5523	0	32840	32730	
5524	0	32888	32770	
5525	0	33056	32702	
5526	0	32756	32870	
5527	0	32692	32838	
5528	0	32808	32860	
5529	0	32968	32932	
5530	0	33068	32768	
5531	0	32916	32763	
5532	0	32700	32798	
5533	0	32566	32640	
5534	0	32516	32622	
5535	0	32724	32650	
5536	0	32796	32752	
5537	0	32858	32814	
5538	0	32868	32772	
5539	0	32862	32760	
5540	0	32864	32708	
5541	0	32856	32692	
5542	0	32782	32844	
5543	0	32866	32888	
5544	0	32780	32775	
5545	0	32788	32799	
5546	0	32738	32838	
5547	0	32802	32720	
5548	0	32728	32624	
5549	0	32792	32636	
5550	0	32844	32602	
5551	0	32868	32704	
5552	0	32772	32784	
5553	0	32800	32764	
5554	0	32872	32742	
5555	0	32820	32668	
5556	0	32808	32768	
5557	0	32900	32814	
5558	0	32932	32796	
5559	0	32878	32812	
5560	0	32892	32798	
5561	0	32928	32720	
5562	0	32820	32775	
5563	0	32828	32830	
5564	0	32760	32807	
5565	0	32740	32732	
5566	0	32784	32838	
5567	0	32782	32786	
5568	0	32742	32668	
5569	0	32794	32647	
5570	0	32812	32648	
5571	0	32812	32690	
5572	0	32806	32568	
5573	0	32820	32600	
5574	0	32808	32706	
5575	0	32756	32784	
5576	0	32784	32718	
5577	0	32822	32775	
5578	0	32832	32806	
5579	0	32768	32796	
5580	0	32780	32837	
5581	0	32796	32801	
5582	0	32775	32800	
5583	0	32844	32774	
5584	0	32844	32758	
5585	0	32790	32757	
5586	0	32764	32798	
5587	0	32748	32735	
5588	0	32764	32794	
5589	0	32736	32686	
5590	0	32848	32872	
5591	0	32758	32903	
5592	0	32814	32844	
5593	0	32860	32838	
5594	0	32796	32804	
5595	0	32884	32820	
5596	0	32892	32812	
5597	0	32924	32775	
5598	0	32826	32762	
5599	0	32902	32660	
5600	0	32866	32596	
5601	0	32864	32676	
5602	0	32808	32786	
5603	0	32798	32792	
5604	0	32744	32682	
5605	0	32756	32612	
5606	0	32738	32539	
5607	0	32738	32682	
5608	0	32798	32726	
5609	0	32704	32566	
5610	0	32724	32660	
5611	0	32756	32930	
5612	0	32882	32748	
5613	0	32908	32820	
5614	0	32922	32748	
5615	0	32824	32772	
5616	0	32774	32764	
5617	0	32748	32745	
5618	0	32784	32628	
5619	0	32748	32774	
5620	0	32824	32740	
5621	0	32880	32774	
5622	0	32852	32832	
5623	0	32852	32804	
5624	0	32828	32724	
5625	0	32860	32642	
5626	0	32864	32720	
5627	0	32832	32839	
5628	0	32778	32822	
5629	0	32760	32743	
5630	0	32796	32720	
5631	0	32816	32768	
5632	0	32744	32756	
5633	0	32780	32822	
5634	0	32806	32761	
5635	0	32806	32724	
5636	0	32784	32874	
5637	0	32856	32852	
5638	0	32756	32818	
5639	0	32774	32743	
5640	0	32768	32772	
5641	0	32784	32705	
5642	0	32792	32770	
5643	0	32842	32628	
5644	0	32860	32820	
5645	0	32876	32730	
5646	0	32848	32940	
5647	0	32792	32751	
5648	0	32832	32775	
5649	0	32916	32834	
5650	0	32870	32732	
5651	0	32820	32852	
5652	0	32812	32932	
5653	0	32825	32744	
5654	0	32796	32775	
5655	0	32732	32916	
5656	0	32840	32808	
5657	0	32740	32728	
5658	0	32752	32764	
5659	0	32744	32724	
5660	0	32736	32714	
5661	0	32736	32702	
5662	0	32798	32804	
5663	0	32800	32738	
5664	0	32760	32804	
5665	0	32800	32711	
5666	0	32865	32722	
5667	0	32836	32668	
5668	0	32836	32610	
5669	0	32854	32697	
5670	0	32780	32884	
5671	0	32844	32870	
5672	0	32820	32775	
5673	0	32924	32727	
5674	0	32826	32678	
5675	0	32860	32620	
5676	0	32854	32704	
5677	0	32890	32710	
5678	0	32871	32711	
5679	0	32856	32694	
5680	0	32920	32743	
5681	0	32814	32820	
5682	0	32856	32716	
5683	0	32860	32566	
5684	0	32728	32747	
5685	0	32736	32764	
5686	0	32706	32882	
5687	0	32732	32965	
5688	0	32704	32840	
5689	0	32742	32831	
5690	0	32724	32892	
5691	0	32820	32962	
5692	0	32802	32966	
5693	0	32796	32916	
5694	0	32760	32877	
5695	0	32860	32756	
5696	0	32844	32850	
5697	0	32792	32742	
5698	0	32848	32766	
5699	0	32816	32679	
5700	0	32832	32686	
5701	0	32748	32686	
5702	0	32824	32682	
5703	0	32780	32615	
5704	0	32764	32721	
5705	0	32728	32718	
5706	0	32684	32686	
5707	0	32700	32598	
5708	0	32602	32574	
5709	0	32604	32536	
5710	0	32732	32608	
5711	0	32772	32644	
5712	0	32756	32588	
5713	0	32692	32616	
5714	0	32668	32672	
5715	0	32740	32666	
5716	0	32766	32690	
5717	0	32666	32694	
5718	0	32772	32725	
5719	0	32834	32700	
5720	0	32844	32836	
5721	0	32794	32862	
5722	0	32796	32706	
5723	0	32812	32671	
5724	0	32772	32630	
5725	0	32714	32682	
5726	0	32758	32794	
5727	0	32944	32918	
5728	0	32938	32942	
5729	0	33018	33000	
5730	0	33140	33110	
5731	0	33102	33080	
5732	0	33076	33010	
5733	0	33162	32903	
5734	0	33096	32928	
5735	0	33124	32744	
5736	0	33008	32690	
5737	0	33156	32732	
5738	0	33082	32690	
5739	0	33028	32906	
5740	0	32974	32938	
5741	0	32882	32926	
5742	0	32848	32826	
5743	0	32744	32734	
5744	0	32738	32702	
5745	0	32736	32721	
5746	0	32676	32636	
5747	0	32668	32631	
5748	0	32700	32591	
5749	0	32724	32628	
5750	0	32666	32540	
5751	0	32604	32657	
5752	0	32704	32711	
5753	0	32720	32794	
5754	0	32704	32756	
5755	0	32692	32764	
5756	0	32792	32767	
5757	0	32664	32679	
5758	0	32700	32696	
5759	0	32714	32675	
5760	0	32692	32806	
5761	0	32752	32684	
5762	0	32762	32614	
5763	0	32842	32712	
5764	0	32832	32758	
5765	0	32865	32930	
5766	0	32872	32869	
5767	0	32868	32768	
5768	0	32880	32748	
5769	0	32804	32688	
5770	0	32750	32828	
5771	0	32750	32775	
5772	0	32772	32816	
5773	0	32804	32738	
5774	0	32792	32744	
5775	0	32886	32676	
5776	0	32884	32672	
5777	0	32816	32703	
5778	0	32858	32852	
5779	0	32846	32794	
5780	0	32760	32655	
5781	0	32766	32843	
5782	0	32846	32882	
5783	0	32852	32788	
5784	0	32904	32772	
5785	0	32908	32775	
5786	0	32832	32850	
5787	0	32634	32788	
5788	0	32682	32746	
5789	0	32656	32748	
5790	0	32684	32716	
5791	0	32792	32740	
5792	0	32884	32758	
5793	0	32752	32740	
5794	0	32800	32742	
5795	0	32926	32806	
5796	0	32960	32820	
5797	0	32782	32820	
5798	0	32656	32838	
5799	0	32685	32848	
5800	0	32788	32774	
5801	0	32868	32832	
5802	0	32832	32726	
5803	0	32818	32694	
5804	0	32838	32748	
5805	0	32852	32742	
5806	0	32920	32714	
5807	0	32912	32702	
5808	0	32924	32699	
5809	0	32900	32622	
5810	0	32808	32654	
5811	0	32832	32690	
5812	0	32754	32754	
5813	0	32764	32888	
5814	0	32858	32884	
5815	0	32884	32871	
5816	0	32800	32940	
5817	0	32674	32977	
5818	0	32700	32892	
5819	0	32748	32852	
5820	0	32816	32800	
5821	0	32776	32790	
5822	0	32642	32668	
5823	0	32700	32712	
5824	0	32912	32692	
5825	0	32888	32767	
5826	0	32930	32796	
5827	0	32964	32876	
5828	0	32884	32878	
5829	0	32878	32875	
5830	0	32948	32839	
5831	0	32600	32808	
5832	0	32772	32704	
5833	0	32850	32694	
5834	0	32900	32680	
5835	0	32766	32710	
5836	0	32756	32726	
5837	0	32756	32884	
5838	0	32694	32726	
5839	0	32812	32734	
5840	0	32760	32775	
5841	0	32830	32775	
5842	0	32820	32874	
5843	0	32929	32840	
5844	0	32988	32682	
5845	0	32916	32677	
5846	0	32684	32788	
5847	0	32622	32832	
5848	0	32730	32839	
5849	0	32789	32771	
5850	0	32876	32688	
5851	0	32916	32824	
5852	0	32986	32804	
5853	0	32904	32858	
5854	0	32880	32766	
5855	0	32890	32948	
5856	0	32886	32737	
5857	0	32824	32647	
5858	0	32824	32660	
5859	0	32726	32755	
5860	0	32780	32772	
5861	0	32697	32504	
5862	0	32713	32612	
5863	0	32840	32708	
5864	0	32786	32724	
5865	0	32868	32903	
5866	0	32758	32789	
5867	0	32720	32775	
5868	0	32824	32816	
5869	0	32822	32841	
5870	0	32884	32810	
5871	0	32836	32846	
5872	0	32668	32861	
5873	0	32824	32870	
5874	0	32820	32826	
5875	0	33004	32895	
5876	0	33118	32911	
5877	0	32996	32886	
5878	0	32804	32888	
5879	0	32680	32740	
5880	0	32772	32702	
5881	0	32568	32774	
5882	0	32560	32750	
5883	0	32508	32748	
5884	0	32625	32708	
5885	0	32794	32673	
5886	0	32824	32642	
5887	0	32860	32593	
5888	0	32956	32572	
5889	0	33028	32634	
5890	0	33036	32676	
5891	0	32608	32806	
5892	0	32604	32890	
5893	0	32760	32804	
5894	0	32846	32884	
5895	0	32826	32821	
5896	0	32816	32878	
5897	0	32868	32870	
5898	0	32848	32930	
5899	0	32804	32916	
5900	0	32832	32826	
5901	0	32860	32863	
5902	0	32830	32775	
5903	0	32810	32766	
5904	0	32760	32668	
5905	0	32794	32654	
5906	0	32808	32646	
5907	0	32872	32668	
5908	0	32858	32774	
5909	0	32860	32708	
5910	0	32764	32735	
5911	0	32816	32811	
5912	0	32788	32808	
5913	0	32816	32791	
5914	0	32804	32775	
5915	0	32820	32854	
5916	0	32758	32818	
5917	0	32812	32796	
5918	0	32756	32705	
5919	0	32896	32688	
5920	0	32870	32682	
5921	0	32832	32697	
5922	0	33104	32876	
5923	0	32924	32804	
5924	0	32944	32869	
5925	0	32704	32832	
5926	0	32780	32834	
5927	0	32608	32817	
5928	0	32796	32856	
5929	0	32812	32737	
5930	0	32812	32750	
5931	0	32808	32692	
5932	0	32830	32700	
5933	0	32756	32756	
5934	0	32806	32794	
5935	0	32834	32736	
5936	0	32680	32708	
5937	0	32788	32831	
5938	0	32784	32894	
5939	0	32772	32857	
5940	0	32852	32822	
5941	0	32964	32880	
5942	0	33058	32892	
5943	0	32840	32842	
5944	0	32646	32775	
5945	0	32624	32817	
5946	0	32776	32754	
5947	0	32784	32718	
5948	0	32892	32688	
5949	0	32832	32708	
5950	0	32826	32716	
5951	0	33000	32850	
5952	0	33090	32872	
5953	0	33057	32888	
5954	0	32884	32918	
5955	0	32852	32990	
5956	0	32876	32946	
5957	0	32796	32796	
5958	0	32492	32804	
5959	0	32704	32888	
5960	0	32810	32712	
5961	0	32816	32707	
5962	0	32670	32644	
5963	0	32632	32604	
5964	0	32796	32644	
5965	0	32800	32804	
5966	0	32838	32792	
5967	0	32668	32839	
5968	0	32728	32848	
5969	0	32860	32914	
5970	0	32816	32826	
5971	0	32844	32788	
5972	0	32804	32919	
5973	0	32748	32854	
5974	0	32728	32788	
5975	0	32798	32642	
5976	0	32806	32738	
5977	0	32840	32764	
5978	0	32820	32756	
5979	0	32892	32712	
5980	0	32780	32679	
5981	0	32820	32774	
5982	0	32830	32702	
5983	0	32872	32802	
5984	0	32848	32860	
5985	0	32832	32820	
5986	0	32808	32760	
5987	0	32896	32746	
5988	0	32880	32820	
5989	0	32945	32756	
5990	0	33060	32746	
5991	0	33124	32884	
5992	0	32840	32807	
5993	0	32670	32767	
5994	0	32624	32850	
5995	0	32740	32770	
5996	0	32738	32729	
5997	0	32820	32788	
5998	0	32676	32736	
5999	0	32810	32736	
6000	0	32820	32754	
6001	0	32830	32760	
6002	0	32732	32764	
6003	0	32706	32748	
6004	0	32816	32772	
6005	0	32848	32626	
6006	0	32776	32724	
6007	0	32792	32838	
6008	0	32820	32742	
6009	0	32892	32706	
6010	0	32680	32681	
6011	0	32724	32770	
6012	0	32806	32820	
