# OpenSignals Text File Format. Version 1
# {"00:07:80:8C:0A:39": {"position": 0, "device": "biosignalsplux", "device name": "00:07:80:8C:0A:39", "device connection": "BTH00:07:80:8C:0A:39", "sampling rate": 1000, "resolution": [16, 16], "firmware version": 776, "comments": "", "keywords": "", "mode": 0, "sync interval": 2, "date": "2023-3-17", "time": "14:59:14.191", "channels": [1, 2], "sensor": ["EMG", "EMG"], "label": ["CH1", "CH2"], "column": ["nSeq", "DI", "CH1", "CH2"], "special": [{"SpO2": [80, 40, 5, 4, 3, 3]}, {"SpO2": [80, 40, 5, 4, 3, 3]}, {"SpO2": [80, 40, 5, 4, 3, 3]}, {"SpO2": [80, 40, 5, 4, 3, 3]}, {"SpO2": [80, 40, 5, 4, 3, 3]}, {"SpO2": [80, 40, 5, 4, 3, 3]}, {"SpO2": [80, 40, 5, 4, 3, 3]}, {"SpO2": [80, 40, 5, 4, 3, 3]}], "digital IO": [0, 1], "sleeve color": ["gray", "yellow"], "convertedValues": 0}}
# EndOfHeader
0	0	32920	32862	
1	0	32900	32839	
2	0	32884	32934	
3	0	32897	32842	
4	0	32884	32924	
5	0	32892	32910	
6	0	32922	32820	
7	0	32900	32956	
8	0	32838	32792	
9	0	32840	32870	
10	0	32862	32808	
11	0	32864	32816	
12	0	32828	32862	
13	0	32878	32863	
14	0	32834	32838	
15	0	32890	32816	
16	0	32856	32792	
17	0	32832	32756	
18	0	32804	32803	
19	0	32814	32802	
20	0	32868	32652	
21	0	32798	32766	
22	0	32830	32710	
23	0	32840	32775	
24	0	32792	32680	
25	0	32780	32702	
26	0	32750	32775	
27	0	32784	32834	
28	0	32752	32814	
29	0	32834	32724	
30	0	32784	32708	
31	0	32860	32646	
32	0	32816	32712	
33	0	32816	32738	
34	0	32708	32888	
35	0	32852	32856	
36	0	32748	32807	
37	0	32810	32678	
38	0	32820	32792	
39	0	32788	32856	
40	0	32818	32775	
41	0	32778	32806	
42	0	32812	32826	
43	0	32900	32820	
44	0	32852	32830	
45	0	32800	32762	
46	0	32916	32639	
47	0	32832	32760	
48	0	32824	32756	
49	0	32820	32750	
50	0	32815	32626	
51	0	32808	32800	
52	0	32756	32737	
53	0	32762	32775	
54	0	32792	32754	
55	0	32768	32774	
56	0	32800	32722	
57	0	32825	32774	
58	0	32784	32768	
59	0	32798	32756	
60	0	32832	32775	
61	0	32788	32832	
62	0	32830	32744	
63	0	32788	32722	
64	0	32808	32742	
65	0	32794	32800	
66	0	32828	32748	
67	0	32760	32792	
68	0	32798	32754	
69	0	32836	32871	
70	0	32840	32790	
71	0	32784	32736	
72	0	32842	32798	
73	0	32834	32716	
74	0	32784	32784	
75	0	32850	32730	
76	0	32784	32775	
77	0	32792	32740	
78	0	32852	32736	
79	0	32856	32810	
80	0	32772	32695	
81	0	32828	32796	
82	0	32740	32774	
83	0	32816	32768	
84	0	32836	32806	
85	0	32776	32750	
86	0	32800	32742	
87	0	32810	32694	
88	0	32820	32720	
89	0	32864	32748	
90	0	32802	32842	
91	0	32796	32836	
92	0	32832	32871	
93	0	32836	32828	
94	0	32792	32852	
95	0	32880	32792	
96	0	32804	32828	
97	0	32820	32846	
98	0	32832	32846	
99	0	32804	32800	
100	0	32836	32702	
101	0	32786	32712	
102	0	32872	32845	
103	0	32792	32871	
104	0	32816	32808	
105	0	32864	32851	
106	0	32784	32775	
107	0	32828	32806	
108	0	32796	32686	
109	0	32824	32839	
110	0	32810	32728	
111	0	32780	32711	
112	0	32764	32720	
113	0	32792	32828	
114	0	32760	32800	
115	0	32738	32775	
116	0	32876	32758	
117	0	32820	32775	
118	0	32812	32814	
119	0	32822	32846	
120	0	32820	32850	
121	0	32780	32746	
122	0	32876	32794	
123	0	32700	32852	
124	0	32780	32650	
125	0	32804	32754	
126	0	32812	32678	
127	0	32842	32774	
128	0	32776	32676	
129	0	32846	32743	
130	0	32802	32688	
131	0	32818	32775	
132	0	32764	32687	
133	0	32832	32679	
134	0	32784	32750	
135	0	32772	32768	
136	0	32788	32695	
137	0	32798	32746	
138	0	32772	32652	
139	0	32818	32884	
140	0	32822	32640	
141	0	32862	32688	
142	0	32848	32718	
143	0	32830	32768	
144	0	32872	32775	
145	0	32848	32798	
146	0	32808	32807	
147	0	32768	32856	
148	0	32792	32770	
149	0	32858	32700	
150	0	32888	32758	
151	0	32812	32770	
152	0	32832	32846	
153	0	32824	32768	
154	0	32860	32775	
155	0	32804	32743	
156	0	32820	32816	
157	0	32816	32702	
158	0	32796	32796	
159	0	32800	32775	
160	0	32820	32746	
161	0	32830	32732	
162	0	32798	32772	
163	0	32822	32736	
164	0	32804	32800	
165	0	32769	32684	
166	0	32830	32859	
167	0	32802	32729	
168	0	32808	32775	
169	0	32816	32688	
170	0	32836	32774	
171	0	32796	32728	
172	0	32804	32822	
173	0	32772	32686	
174	0	32844	32825	
175	0	32804	32798	
176	0	32856	32727	
177	0	32832	32762	
178	0	32828	32698	
179	0	32800	32686	
180	0	32784	32672	
181	0	32788	32764	
182	0	32876	32868	
183	0	32916	32824	
184	0	32794	32679	
185	0	32822	32810	
186	0	32814	32690	
187	0	32792	32773	
188	0	32846	32672	
189	0	32782	32714	
190	0	32846	32744	
191	0	32782	32788	
192	0	32830	32670	
193	0	32832	32756	
194	0	32830	32788	
195	0	32770	32806	
196	0	32778	32738	
197	0	32712	32747	
198	0	32776	32720	
199	0	32832	32828	
200	0	32800	32740	
201	0	32758	32832	
202	0	32800	32644	
203	0	32878	32764	
204	0	32848	32783	
205	0	32807	32748	
206	0	32868	32748	
207	0	32828	32828	
208	0	32846	32726	
209	0	32762	32721	
210	0	32852	32718	
211	0	32808	32760	
212	0	32780	32684	
213	0	32808	32742	
214	0	32724	32724	
215	0	32806	32766	
216	0	32760	32722	
217	0	32778	32746	
218	0	32844	32678	
219	0	32821	32768	
220	0	32784	32710	
221	0	32792	32764	
222	0	32810	32752	
223	0	32816	32798	
224	0	32860	32679	
225	0	32832	32758	
226	0	32796	32666	
227	0	32792	32855	
228	0	32836	32860	
229	0	32806	32752	
230	0	32792	32732	
231	0	32850	32698	
232	0	32788	32775	
233	0	32746	32674	
234	0	32802	32748	
235	0	32832	32742	
236	0	32826	32784	
237	0	32856	32748	
238	0	32760	32846	
239	0	32740	32740	
240	0	32834	32712	
241	0	32788	32742	
242	0	32784	32708	
243	0	32832	32838	
244	0	32790	32740	
245	0	32852	32920	
246	0	32768	32862	
247	0	32760	32822	
248	0	32834	32774	
249	0	32740	32752	
250	0	32828	32791	
251	0	32832	32830	
252	0	32780	32831	
253	0	32770	32764	
254	0	32832	32822	
255	0	32766	32708	
256	0	32816	32766	
257	0	32804	32640	
258	0	32920	32760	
259	0	32770	32742	
260	0	32810	32815	
261	0	32804	32751	
262	0	32818	32834	
263	0	32794	32734	
264	0	32824	32756	
265	0	32828	32736	
266	0	32860	32718	
267	0	32796	32754	
268	0	32812	32788	
269	0	32804	32775	
270	0	32814	32823	
271	0	32828	32796	
272	0	32792	32775	
273	0	32884	32804	
274	0	32816	32852	
275	0	32770	32804	
276	0	32888	32811	
277	0	32760	32824	
278	0	32752	32966	
279	0	32826	32772	
280	0	32870	32696	
281	0	32816	32799	
282	0	32860	32716	
283	0	32812	32785	
284	0	32836	32742	
285	0	32812	32756	
286	0	32870	32750	
287	0	32774	32775	
288	0	32836	32705	
289	0	32756	32757	
290	0	32804	32664	
291	0	32872	32744	
292	0	32850	32718	
293	0	32824	32827	
294	0	32860	32846	
295	0	32852	32860	
296	0	32800	32768	
297	0	32768	32735	
298	0	32828	32762	
299	0	32816	32784	
300	0	32810	32694	
301	0	32776	32760	
302	0	32772	32720	
303	0	32792	32775	
304	0	32876	32728	
305	0	32832	32775	
306	0	32780	32647	
307	0	32888	32794	
308	0	32844	32818	
309	0	32852	32754	
310	0	32820	32847	
311	0	32846	32630	
312	0	32792	32828	
313	0	32784	32816	
314	0	32779	32796	
315	0	32800	32706	
316	0	32816	32768	
317	0	32828	32848	
318	0	32832	32862	
319	0	32820	32760	
320	0	32828	32764	
321	0	32804	32812	
322	0	32908	32804	
323	0	32804	32775	
324	0	32868	32726	
325	0	32848	32772	
326	0	32800	32823	
327	0	32866	32810	
328	0	32778	32750	
329	0	32814	32790	
330	0	32816	32775	
331	0	32806	32775	
332	0	32800	32696	
333	0	32772	32786	
334	0	32832	32676	
335	0	32840	32798	
336	0	32836	32668	
337	0	32836	32792	
338	0	32861	32754	
339	0	32782	32758	
340	0	32834	32688	
341	0	32858	32663	
342	0	32832	32694	
343	0	32816	32804	
344	0	32852	32702	
345	0	32804	32864	
346	0	32832	32678	
347	0	32884	32830	
348	0	32776	32832	
349	0	32774	32800	
350	0	32824	32807	
351	0	32856	32743	
352	0	32780	32790	
353	0	32884	32726	
354	0	32772	32763	
355	0	32860	32774	
356	0	32804	32828	
357	0	32780	32830	
358	0	32828	32720	
359	0	32820	32764	
360	0	32830	32702	
361	0	32876	32794	
362	0	32796	32732	
363	0	32816	32822	
364	0	32836	32860	
365	0	32804	32758	
366	0	32756	32764	
367	0	32856	32804	
368	0	32804	32828	
369	0	32764	32746	
370	0	32836	32679	
371	0	32760	32768	
372	0	32786	32738	
373	0	32754	32844	
374	0	32764	32774	
375	0	32786	32838	
376	0	32884	32812	
377	0	32824	32849	
378	0	32814	32807	
379	0	32780	32711	
380	0	32788	32815	
381	0	32856	32788	
382	0	32836	32812	
383	0	32864	32750	
384	0	32760	32730	
385	0	32806	32660	
386	0	32822	32736	
387	0	32840	32814	
388	0	32914	32775	
389	0	32798	32775	
390	0	32808	32822	
391	0	32804	32764	
392	0	32812	32695	
393	0	32852	32839	
394	0	32848	32820	
395	0	32818	32644	
396	0	32800	32775	
397	0	32774	32670	
398	0	32796	32862	
399	0	32800	32812	
400	0	32798	32692	
401	0	32812	32775	
402	0	32800	32738	
403	0	32840	32816	
404	0	32800	32775	
405	0	32836	32812	
406	0	32776	32817	
407	0	32850	32775	
408	0	32740	32684	
409	0	32844	32724	
410	0	32772	32775	
411	0	32790	32694	
412	0	32808	32698	
413	0	32852	32746	
414	0	32840	32860	
415	0	32772	32796	
416	0	32804	32730	
417	0	32816	32710	
418	0	32808	32878	
419	0	32816	32830	
420	0	32788	32756	
421	0	32768	32674	
422	0	32886	32775	
423	0	32794	32708	
424	0	32820	32822	
425	0	32912	32858	
426	0	32752	32732	
427	0	32868	32775	
428	0	32832	32583	
429	0	32788	32804	
430	0	32808	32784	
431	0	32798	32740	
432	0	32764	32726	
433	0	32768	32832	
434	0	32818	32775	
435	0	32828	32693	
436	0	32849	32768	
437	0	32810	32774	
438	0	32852	32804	
439	0	32784	32742	
440	0	32842	32758	
441	0	32774	32802	
442	0	32928	32692	
443	0	32816	32764	
444	0	32812	32756	
445	0	32846	32820	
446	0	32828	32836	
447	0	32792	32646	
448	0	32820	32758	
449	0	32852	32714	
450	0	32818	32814	
451	0	32716	32775	
452	0	32816	32682	
453	0	32768	32760	
454	0	32810	32798	
455	0	32800	32835	
456	0	32832	32768	
457	0	32844	32684	
458	0	32816	32862	
459	0	32806	32680	
460	0	32806	32798	
461	0	32816	32760	
462	0	32820	32728	
463	0	32834	32799	
464	0	32832	32830	
465	0	32840	32740	
466	0	32824	32788	
467	0	32780	32743	
468	0	32826	32760	
469	0	32854	32744	
470	0	32836	32770	
471	0	32768	32798	
472	0	32796	32694	
473	0	32770	32744	
474	0	32864	32826	
475	0	32824	32684	
476	0	32776	32804	
477	0	32812	32692	
478	0	32844	32747	
479	0	32808	32742	
480	0	32798	32826	
481	0	32856	32866	
482	0	32842	32815	
483	0	32780	32768	
484	0	32784	32706	
485	0	32804	32839	
486	0	32824	32828	
487	0	32788	32600	
488	0	32828	32740	
489	0	32721	32666	
490	0	32824	32856	
491	0	32752	32698	
492	0	32792	32807	
493	0	32730	32855	
494	0	32786	32861	
495	0	32816	32784	
496	0	32788	32710	
497	0	32792	32754	
498	0	32801	32764	
499	0	32860	32826	
500	0	32760	32756	
501	0	32856	32686	
502	0	32818	32812	
503	0	32808	32840	
504	0	32868	32762	
505	0	32860	32742	
506	0	32872	32694	
507	0	32820	32830	
508	0	32808	32802	
509	0	32780	32674	
510	0	32773	32664	
511	0	32820	32687	
512	0	32736	32751	
513	0	32799	32746	
514	0	32856	32772	
515	0	32788	32680	
516	0	32808	32807	
517	0	32806	32718	
518	0	32824	32818	
519	0	32812	32898	
520	0	32808	32676	
521	0	32860	32794	
522	0	32832	32668	
523	0	32852	32750	
524	0	32816	32762	
525	0	32792	32816	
526	0	32840	32716	
527	0	32775	32832	
528	0	32760	32728	
529	0	32832	32751	
530	0	32818	32686	
531	0	32897	32762	
532	0	32818	32716	
533	0	32852	32814	
534	0	32752	32676	
535	0	32824	32884	
536	0	32796	32814	
537	0	32816	32759	
538	0	32874	32798	
539	0	32844	32724	
540	0	32764	32768	
541	0	32814	32700	
542	0	32768	32684	
543	0	32808	32702	
544	0	32853	32790	
545	0	32808	32710	
546	0	32830	32817	
547	0	32792	32736	
548	0	32816	32727	
549	0	32788	32753	
550	0	32792	32740	
551	0	32768	32734	
552	0	32804	32794	
553	0	32814	32726	
554	0	32772	32748	
555	0	32856	32742	
556	0	32798	32816	
557	0	32788	32806	
558	0	32738	32807	
559	0	32876	32816	
560	0	32798	32742	
561	0	32770	32678	
562	0	32746	32740	
563	0	32844	32726	
564	0	32820	32751	
565	0	32776	32678	
566	0	32828	32828	
567	0	32800	32743	
568	0	32844	32782	
569	0	32818	32706	
570	0	32802	32807	
571	0	32804	32713	
572	0	32756	32734	
573	0	32838	32710	
574	0	32804	32831	
575	0	32744	32730	
576	0	32832	32808	
577	0	32828	32856	
578	0	32790	32712	
579	0	32810	32878	
580	0	32872	32724	
581	0	32808	32775	
582	0	32864	32752	
583	0	32852	32756	
584	0	32808	32719	
585	0	32757	32658	
586	0	32864	32743	
587	0	32776	32748	
588	0	32839	32634	
589	0	32794	32768	
590	0	32780	32718	
591	0	32828	32844	
592	0	32826	32726	
593	0	32806	32816	
594	0	32790	32774	
595	0	32788	32764	
596	0	32812	32846	
597	0	32836	32754	
598	0	32808	32852	
599	0	32830	32743	
600	0	32772	32823	
601	0	32820	32750	
602	0	32814	32764	
603	0	32852	32715	
604	0	32796	32828	
605	0	32822	32782	
606	0	32760	32850	
607	0	32824	32756	
608	0	32864	32790	
609	0	32820	32753	
610	0	32792	32860	
611	0	32828	32767	
612	0	32878	32716	
613	0	32792	32774	
614	0	32740	32700	
615	0	32804	32792	
616	0	32768	32684	
617	0	32780	32794	
618	0	32764	32670	
619	0	32848	32852	
620	0	32834	32830	
621	0	32769	32804	
622	0	32820	32801	
623	0	32820	32798	
624	0	32800	32826	
625	0	32860	32704	
626	0	32836	32836	
627	0	32800	32775	
628	0	32800	32792	
629	0	32768	32852	
630	0	32870	32870	
631	0	32840	32774	
632	0	32828	32808	
633	0	32836	32794	
634	0	32776	32706	
635	0	32788	32770	
636	0	32852	32786	
637	0	32856	32774	
638	0	32846	32662	
639	0	32796	32834	
640	0	32780	32735	
641	0	32768	32852	
642	0	32832	32882	
643	0	32836	32775	
644	0	32848	32775	
645	0	32812	32750	
646	0	32816	32716	
647	0	32810	32764	
648	0	32810	32770	
649	0	32810	32696	
650	0	32816	32746	
651	0	32798	32764	
652	0	32892	32786	
653	0	32802	32700	
654	0	32800	32841	
655	0	32836	32832	
656	0	32850	32852	
657	0	32812	32822	
658	0	32810	32724	
659	0	32852	32725	
660	0	32816	32678	
661	0	32828	32722	
662	0	32806	32748	
663	0	32784	32770	
664	0	32840	32759	
665	0	32820	32880	
666	0	32834	32806	
667	0	32836	32818	
668	0	32860	32838	
669	0	32780	32754	
670	0	32804	32775	
671	0	32744	32696	
672	0	32828	32714	
673	0	32824	32792	
674	0	32806	32738	
675	0	32832	32915	
676	0	32808	32884	
677	0	32896	32810	
678	0	32858	32866	
679	0	32864	32775	
680	0	32882	32874	
681	0	32912	32852	
682	0	32866	32880	
683	0	32874	32906	
684	0	32814	32759	
685	0	32838	32759	
686	0	32700	32626	
687	0	32678	32657	
688	0	32664	32530	
689	0	32700	32516	
690	0	32720	32543	
691	0	32664	32519	
692	0	32620	32368	
693	0	32592	32444	
694	0	32708	32484	
695	0	32698	32570	
696	0	32752	32616	
697	0	32776	32826	
698	0	32836	32916	
699	0	32826	32842	
700	0	32820	32871	
701	0	32852	32775	
702	0	32836	32946	
703	0	32908	32826	
704	0	32904	32898	
705	0	32890	32832	
706	0	32912	32866	
707	0	32824	33014	
708	0	32884	32956	
709	0	32924	32852	
710	0	32880	32775	
711	0	32860	32798	
712	0	32908	32754	
713	0	32900	32826	
714	0	32818	32903	
715	0	32904	32810	
716	0	32890	32848	
717	0	32820	32834	
718	0	32790	32874	
719	0	32748	32730	
720	0	32812	32754	
721	0	32841	32692	
722	0	32834	32758	
723	0	32820	32674	
724	0	32820	32687	
725	0	32814	32580	
726	0	32812	32836	
727	0	32860	32687	
728	0	32820	32769	
729	0	32784	32700	
730	0	32736	32711	
731	0	32820	32694	
732	0	32778	32742	
733	0	32782	32711	
734	0	32804	32799	
735	0	32804	32742	
736	0	32852	32770	
737	0	32840	32719	
738	0	32876	32799	
739	0	32792	32640	
740	0	32788	32802	
741	0	32768	32748	
742	0	32788	32848	
743	0	32804	32682	
744	0	32860	32775	
745	0	32856	32728	
746	0	32818	32818	
747	0	32734	32798	
748	0	32820	32828	
749	0	32826	32698	
750	0	32892	32840	
751	0	32776	32846	
752	0	32770	32775	
753	0	32794	32806	
754	0	32796	32720	
755	0	32780	32852	
756	0	32796	32674	
757	0	32802	32788	
758	0	32824	32714	
759	0	32772	32728	
760	0	32852	32742	
761	0	32816	32852	
762	0	32764	32696	
763	0	32888	32727	
764	0	32856	32682	
765	0	32856	32798	
766	0	32828	32647	
767	0	32774	32775	
768	0	32840	32716	
769	0	32826	32724	
770	0	32824	32634	
771	0	32830	32720	
772	0	32810	32754	
773	0	32796	32728	
774	0	32720	32698	
775	0	32804	32702	
776	0	32756	32752	
777	0	32852	32806	
778	0	32846	32754	
779	0	32784	32808	
780	0	32734	32864	
781	0	32780	32732	
782	0	32754	32775	
783	0	32788	32872	
784	0	32804	32813	
785	0	32817	32862	
786	0	32824	32859	
787	0	32828	32736	
788	0	32846	32775	
789	0	32812	32676	
790	0	32828	32740	
791	0	32778	32790	
792	0	32752	32804	
793	0	32808	32871	
794	0	32816	32886	
795	0	32816	32871	
796	0	32820	32718	
797	0	32788	32830	
798	0	32860	32654	
799	0	32844	32816	
800	0	32804	32799	
801	0	32820	32852	
802	0	32792	32678	
803	0	32748	32792	
804	0	32872	32734	
805	0	32784	32836	
806	0	32848	32826	
807	0	32796	32666	
808	0	32736	32804	
809	0	32752	32674	
810	0	32856	32852	
811	0	32792	32808	
812	0	32792	32790	
813	0	32840	32672	
814	0	32812	32807	
815	0	32878	32825	
816	0	32792	32775	
817	0	32864	32802	
818	0	32780	32690	
819	0	32740	32746	
820	0	32756	32838	
821	0	32788	32806	
822	0	32824	32816	
823	0	32816	32768	
824	0	32830	32721	
825	0	32786	32756	
826	0	32788	32711	
827	0	32848	32695	
828	0	32832	32726	
829	0	32842	32824	
830	0	32808	32834	
831	0	32820	32809	
832	0	32844	32754	
833	0	32784	32838	
834	0	32812	32754	
835	0	32868	32788	
836	0	32824	32694	
837	0	32822	32802	
838	0	32774	32836	
839	0	32816	32792	
840	0	32816	32746	
841	0	32808	32772	
842	0	32860	32730	
843	0	32832	32798	
844	0	32798	32757	
845	0	32784	32830	
846	0	32842	32775	
847	0	32804	32704	
848	0	32792	32750	
849	0	32836	32838	
850	0	32756	32788	
851	0	32876	32820	
852	0	32856	32670	
853	0	32828	32806	
854	0	32775	32726	
855	0	32828	32825	
856	0	32872	32720	
857	0	32834	32804	
858	0	32838	32632	
859	0	32772	32842	
860	0	32806	32855	
861	0	32724	32762	
862	0	32844	32702	
863	0	32868	32687	
864	0	32910	32806	
865	0	32800	32744	
866	0	32788	32866	
867	0	32744	32839	
868	0	32828	32844	
869	0	32762	32752	
870	0	32808	32775	
871	0	32818	32832	
872	0	32772	32816	
873	0	32884	32775	
874	0	32836	32701	
875	0	32824	32804	
876	0	32780	32730	
877	0	32780	32808	
878	0	32780	32775	
879	0	32778	32786	
880	0	32796	32668	
881	0	32846	32740	
882	0	32820	32746	
883	0	32856	32812	
884	0	32824	32743	
885	0	32820	32810	
886	0	32834	32730	
887	0	32764	32775	
888	0	32736	32699	
889	0	32748	32798	
890	0	32822	32614	
891	0	32860	32720	
892	0	32772	32694	
893	0	32832	32812	
894	0	32792	32750	
895	0	32720	32886	
896	0	32770	32839	
897	0	32828	32732	
898	0	32828	32756	
899	0	32774	32678	
900	0	32784	32826	
901	0	32900	32750	
902	0	32858	32806	
903	0	32832	32868	
904	0	32852	32738	
905	0	32812	32798	
906	0	32790	32788	
907	0	32806	32775	
908	0	32840	32676	
909	0	32814	32826	
910	0	32852	32820	
911	0	32849	32748	
912	0	32776	32814	
913	0	32784	32806	
914	0	32838	32775	
915	0	32788	32876	
916	0	32848	32780	
917	0	32848	32775	
918	0	32764	32775	
919	0	32808	32852	
920	0	32820	32788	
921	0	32740	32855	
922	0	32822	32775	
923	0	32834	32800	
924	0	32852	32846	
925	0	32828	32724	
926	0	32782	32774	
927	0	32848	32826	
928	0	32820	32724	
929	0	32828	32791	
930	0	32740	32724	
931	0	32824	32706	
932	0	32869	32746	
933	0	32768	32796	
934	0	32780	32744	
935	0	32836	32796	
936	0	32798	32668	
937	0	32786	32722	
938	0	32822	32694	
939	0	32874	32742	
940	0	32784	32722	
941	0	32800	32730	
942	0	32846	32678	
943	0	32824	32818	
944	0	32830	32759	
945	0	32818	32714	
946	0	32778	32854	
947	0	32792	32724	
948	0	32828	32775	
949	0	32848	32742	
950	0	32832	32750	
951	0	32804	32878	
952	0	32798	32846	
953	0	32760	32754	
954	0	32784	32808	
955	0	32760	32736	
956	0	32814	32750	
957	0	32760	32686	
958	0	32852	32756	
959	0	32806	32638	
960	0	32756	32750	
961	0	32756	32716	
962	0	32776	32810	
963	0	32814	32736	
964	0	32874	32814	
965	0	32798	32775	
966	0	32800	32834	
967	0	32801	32700	
968	0	32810	32752	
969	0	32788	32802	
970	0	32866	32764	
971	0	32840	32844	
972	0	32772	32798	
973	0	32808	32821	
974	0	32846	32708	
975	0	32824	32702	
976	0	32880	32676	
977	0	32882	32756	
978	0	32868	32660	
979	0	32760	32727	
980	0	32834	32660	
981	0	32852	32712	
982	0	32824	32823	
983	0	32844	32775	
984	0	32810	32768	
985	0	32808	32788	
986	0	32796	32718	
987	0	32800	32839	
988	0	32728	32888	
989	0	32800	32794	
990	0	32868	32702	
991	0	32882	32762	
992	0	32802	32702	
993	0	32808	32918	
994	0	32760	32775	
995	0	32822	32758	
996	0	32816	32761	
997	0	32816	32748	
998	0	32830	32788	
999	0	32734	32732	
1000	0	32816	32760	
1001	0	32776	32810	
1002	0	32860	32810	
1003	0	32910	32742	
1004	0	32836	32868	
1005	0	32852	32772	
1006	0	32830	32798	
1007	0	32792	32740	
1008	0	32788	32744	
1009	0	32842	32802	
1010	0	32854	32762	
1011	0	32808	32790	
1012	0	32798	32792	
1013	0	32814	32748	
1014	0	32776	32788	
1015	0	32882	32700	
1016	0	32792	32796	
1017	0	32864	32856	
1018	0	32788	32684	
1019	0	32836	32807	
1020	0	32766	32750	
1021	0	32816	32763	
1022	0	32854	32795	
1023	0	32792	32774	
1024	0	32892	32892	
1025	0	32834	32874	
1026	0	32744	32702	
1027	0	32840	32642	
1028	0	32780	32796	
1029	0	32804	32676	
1030	0	32772	32876	
1031	0	32900	32658	
1032	0	32794	32822	
1033	0	32816	32758	
1034	0	32810	32692	
1035	0	32824	32772	
1036	0	32792	32624	
1037	0	32778	32788	
1038	0	32764	32692	
1039	0	32858	32736	
1040	0	32792	32868	
1041	0	32800	32823	
1042	0	32792	32806	
1043	0	32876	32688	
1044	0	32824	32788	
1045	0	32748	32678	
1046	0	32788	32768	
1047	0	32796	32868	
1048	0	32814	32743	
1049	0	32808	32768	
1050	0	32812	32682	
1051	0	32820	32790	
1052	0	32792	32881	
1053	0	32800	32732	
1054	0	32820	32812	
1055	0	32768	32665	
1056	0	32800	32698	
1057	0	32808	32848	
1058	0	32860	32870	
1059	0	32756	32708	
1060	0	32772	32682	
1061	0	32852	32794	
1062	0	32768	32770	
1063	0	32760	32879	
1064	0	32812	32798	
1065	0	32810	32784	
1066	0	32874	32711	
1067	0	32818	32703	
1068	0	32810	32713	
1069	0	32788	32632	
1070	0	32906	32850	
1071	0	32752	32775	
1072	0	32776	32862	
1073	0	32780	32816	
1074	0	32780	32868	
1075	0	32776	32804	
1076	0	32834	32775	
1077	0	32824	32784	
1078	0	32832	32642	
1079	0	32810	32706	
1080	0	32842	32714	
1081	0	32792	32772	
1082	0	32832	32810	
1083	0	32836	32812	
1084	0	32852	32920	
1085	0	32810	32743	
1086	0	32880	32862	
1087	0	32837	32750	
1088	0	32848	32746	
1089	0	32816	32698	
1090	0	32812	32884	
1091	0	32822	32678	
1092	0	32821	32812	
1093	0	32892	32854	
1094	0	32852	32792	
1095	0	32802	32788	
1096	0	32824	32860	
1097	0	32780	32766	
1098	0	32786	32742	
1099	0	32824	32734	
1100	0	32802	32687	
1101	0	32804	32832	
1102	0	32844	32762	
1103	0	32780	32807	
1104	0	32804	32752	
1105	0	32804	32822	
1106	0	32752	32726	
1107	0	32820	32839	
1108	0	32790	32775	
1109	0	32784	32775	
1110	0	32862	32676	
1111	0	32800	32775	
1112	0	32882	32711	
1113	0	32780	32736	
1114	0	32908	32614	
1115	0	32752	32772	
1116	0	32804	32752	
1117	0	32784	32722	
1118	0	32804	32718	
1119	0	32780	32756	
1120	0	32788	32752	
1121	0	32784	32820	
1122	0	32784	32770	
1123	0	32836	32848	
1124	0	32804	32710	
1125	0	32788	32720	
1126	0	32752	32828	
1127	0	32782	32676	
1128	0	32792	32666	
1129	0	32800	32678	
1130	0	32834	32838	
1131	0	32852	32775	
1132	0	32892	32790	
1133	0	32796	32886	
1134	0	32814	32662	
1135	0	32828	32871	
1136	0	32844	32716	
1137	0	32837	32680	
1138	0	32856	32641	
1139	0	32856	32836	
1140	0	32828	32786	
1141	0	32798	32726	
1142	0	32808	32775	
1143	0	32828	32668	
1144	0	32776	32804	
1145	0	32768	32768	
1146	0	32832	32850	
1147	0	32810	32790	
1148	0	32782	32774	
1149	0	32728	32775	
1150	0	32770	32766	
1151	0	32848	32772	
1152	0	32808	32838	
1153	0	32752	32836	
1154	0	32780	32866	
1155	0	32834	32818	
1156	0	32824	32756	
1157	0	32812	32759	
1158	0	32786	32652	
1159	0	32840	32724	
1160	0	32798	32712	
1161	0	32896	32766	
1162	0	32785	32708	
1163	0	32812	32790	
1164	0	32864	32704	
1165	0	32828	32844	
1166	0	32812	32666	
1167	0	32828	32844	
1168	0	32816	32743	
1169	0	32804	32806	
1170	0	32808	32640	
1171	0	32824	32750	
1172	0	32804	32702	
1173	0	32812	32762	
1174	0	32780	32634	
1175	0	32760	32708	
1176	0	32768	32706	
1177	0	32856	32850	
1178	0	32774	32788	
1179	0	32816	32716	
1180	0	32758	32790	
1181	0	32840	32626	
1182	0	32820	32760	
1183	0	32792	32738	
1184	0	32828	32812	
1185	0	32782	32762	
1186	0	32840	32820	
1187	0	32816	32734	
1188	0	32814	32811	
1189	0	32800	32708	
1190	0	32838	32724	
1191	0	32754	32711	
1192	0	32796	32750	
1193	0	32762	32678	
1194	0	32846	32806	
1195	0	32800	32738	
1196	0	32836	32775	
1197	0	32824	32753	
1198	0	32887	32847	
1199	0	32872	32694	
1200	0	32836	32758	
1201	0	32828	32750	
1202	0	32772	32770	
1203	0	32760	32700	
1204	0	32840	32764	
1205	0	32816	32802	
1206	0	32800	32772	
1207	0	32820	32698	
1208	0	32848	32782	
1209	0	32816	32702	
1210	0	32810	32775	
1211	0	32836	32704	
1212	0	32808	32775	
1213	0	32828	32694	
1214	0	32888	32758	
1215	0	32844	32687	
1216	0	32796	32838	
1217	0	32816	32708	
1218	0	32836	32807	
1219	0	32786	32676	
1220	0	32854	32774	
1221	0	32828	32720	
1222	0	32814	32790	
1223	0	32804	32700	
1224	0	32820	32820	
1225	0	32780	32754	
1226	0	32820	32812	
1227	0	32810	32754	
1228	0	32740	32756	
1229	0	32782	32784	
1230	0	32872	32767	
1231	0	32824	32814	
1232	0	32872	32678	
1233	0	32856	32844	
1234	0	32784	32839	
1235	0	32752	32822	
1236	0	32792	32763	
1237	0	32862	32724	
1238	0	32808	32796	
1239	0	32844	32808	
1240	0	32756	32718	
1241	0	32748	32843	
1242	0	32834	32762	
1243	0	32804	32743	
1244	0	32828	32798	
1245	0	32796	32711	
1246	0	32792	32760	
1247	0	32764	32660	
1248	0	32812	32743	
1249	0	32792	32682	
1250	0	32768	32762	
1251	0	32732	32792	
1252	0	32828	32775	
1253	0	32876	32876	
1254	0	32784	32764	
1255	0	32858	32844	
1256	0	32794	32826	
1257	0	32834	32748	
1258	0	32822	32736	
1259	0	32846	32818	
1260	0	32788	32662	
1261	0	32832	32836	
1262	0	32778	32847	
1263	0	32756	32716	
1264	0	32892	32732	
1265	0	32824	32594	
1266	0	32822	32750	
1267	0	32866	32670	
1268	0	32816	32728	
1269	0	32816	32817	
1270	0	32802	32839	
1271	0	32808	32793	
1272	0	32826	32710	
1273	0	32820	32817	
1274	0	32816	32796	
1275	0	32814	32696	
1276	0	32804	32818	
1277	0	32756	32820	
1278	0	32818	32775	
1279	0	32800	32782	
1280	0	32818	32680	
1281	0	32860	32802	
1282	0	32792	32720	
1283	0	32820	32848	
1284	0	32744	32810	
1285	0	32824	32697	
1286	0	32872	32750	
1287	0	32836	32750	
1288	0	32812	32801	
1289	0	32826	32770	
1290	0	32840	32772	
1291	0	32782	32806	
1292	0	32768	32698	
1293	0	32780	32712	
1294	0	32822	32692	
1295	0	32804	32838	
1296	0	32812	32878	
1297	0	32764	32725	
1298	0	32740	32860	
1299	0	32824	32676	
1300	0	32838	32903	
1301	0	32748	32775	
1302	0	32808	32742	
1303	0	32824	32775	
1304	0	32824	32806	
1305	0	32816	32775	
1306	0	32816	32743	
1307	0	32846	32727	
1308	0	32848	32775	
1309	0	32848	32748	
1310	0	32826	32848	
1311	0	32830	32806	
1312	0	32858	32728	
1313	0	32806	32770	
1314	0	32804	32840	
1315	0	32820	32720	
1316	0	32744	32814	
1317	0	32752	32704	
1318	0	32812	32775	
1319	0	32760	32647	
1320	0	32832	32792	
1321	0	32812	32844	
1322	0	32872	32757	
1323	0	32808	32790	
1324	0	32832	32660	
1325	0	32780	32810	
1326	0	32764	32722	
1327	0	32832	32726	
1328	0	32820	32858	
1329	0	32780	32745	
1330	0	32860	32728	
1331	0	32840	32702	
1332	0	32816	32754	
1333	0	32817	32812	
1334	0	32784	32728	
1335	0	32792	32716	
1336	0	32832	32817	
1337	0	32772	32758	
1338	0	32824	32753	
1339	0	32872	32854	
1340	0	32834	32885	
1341	0	32820	32722	
1342	0	32856	32750	
1343	0	32810	32839	
1344	0	32784	32720	
1345	0	32846	32756	
1346	0	32852	32628	
1347	0	32816	32720	
1348	0	32844	32736	
1349	0	32806	32852	
1350	0	32840	32775	
1351	0	32781	32743	
1352	0	32790	32823	
1353	0	32896	32719	
1354	0	32862	32798	
1355	0	32790	32758	
1356	0	32836	32804	
1357	0	32770	32788	
1358	0	32866	32839	
1359	0	32800	32798	
1360	0	32788	32686	
1361	0	32768	32800	
1362	0	32828	32848	
1363	0	32864	32814	
1364	0	32844	32890	
1365	0	32842	32804	
1366	0	32804	32724	
1367	0	32868	32804	
1368	0	32856	32717	
1369	0	32828	32768	
1370	0	32798	32832	
1371	0	32912	32884	
1372	0	32893	32868	
1373	0	32942	32852	
1374	0	32866	32789	
1375	0	32916	32924	
1376	0	32880	32858	
1377	0	32822	32684	
1378	0	32760	32658	
1379	0	32670	32671	
1380	0	32664	32486	
1381	0	32724	32455	
1382	0	32638	32455	
1383	0	32680	32440	
1384	0	32620	32343	
1385	0	32632	32340	
1386	0	32664	32594	
1387	0	32844	32679	
1388	0	32782	32734	
1389	0	32832	32839	
1390	0	32858	32740	
1391	0	32824	32844	
1392	0	32832	32760	
1393	0	32852	32866	
1394	0	32828	32880	
1395	0	32896	32828	
1396	0	32900	32910	
1397	0	32936	32965	
1398	0	32894	32816	
1399	0	32888	32892	
1400	0	32880	32904	
1401	0	32832	32790	
1402	0	32824	32894	
1403	0	32894	32812	
1404	0	32838	32796	
1405	0	32864	32832	
1406	0	32860	32730	
1407	0	32892	32852	
1408	0	32860	32824	
1409	0	32848	32720	
1410	0	32782	32834	
1411	0	32862	32866	
1412	0	32832	32718	
1413	0	32778	32754	
1414	0	32824	32655	
1415	0	32764	32775	
1416	0	32730	32756	
1417	0	32776	32679	
1418	0	32832	32660	
1419	0	32832	32682	
1420	0	32792	32839	
1421	0	32800	32686	
1422	0	32810	32775	
1423	0	32828	32758	
1424	0	32812	32646	
1425	0	32828	32760	
1426	0	32860	32874	
1427	0	32836	32764	
1428	0	32768	32775	
1429	0	32776	32700	
1430	0	32772	32696	
1431	0	32834	32646	
1432	0	32820	32816	
1433	0	32794	32692	
1434	0	32842	32794	
1435	0	32812	32854	
1436	0	32820	32714	
1437	0	32780	32772	
1438	0	32794	32746	
1439	0	32812	32840	
1440	0	32785	32807	
1441	0	32858	32711	
1442	0	32852	32774	
1443	0	32814	32724	
1444	0	32900	32806	
1445	0	32858	32676	
1446	0	32796	32834	
1447	0	32760	32774	
1448	0	32796	32682	
1449	0	32876	32775	
1450	0	32846	32708	
1451	0	32784	32844	
1452	0	32852	32892	
1453	0	32746	32712	
1454	0	32832	32772	
1455	0	32758	32752	
1456	0	32806	32800	
1457	0	32804	32852	
1458	0	32820	32862	
1459	0	32860	32714	
1460	0	32804	32812	
1461	0	32776	32805	
1462	0	32836	32743	
1463	0	32842	32788	
1464	0	32800	32858	
1465	0	32800	32720	
1466	0	32836	32736	
1467	0	32784	32756	
1468	0	32756	32730	
1469	0	32776	32836	
1470	0	32756	32793	
1471	0	32782	32728	
1472	0	32820	32868	
1473	0	32830	32786	
1474	0	32832	32834	
1475	0	32832	32634	
1476	0	32816	32828	
1477	0	32820	32662	
1478	0	32804	32798	
1479	0	32766	32855	
1480	0	32780	32708	
1481	0	32756	32796	
1482	0	32744	32714	
1483	0	32820	32750	
1484	0	32876	32707	
1485	0	32824	32808	
1486	0	32824	32871	
1487	0	32796	32820	
1488	0	32774	32775	
1489	0	32820	32765	
1490	0	32848	32742	
1491	0	32820	32820	
1492	0	32828	32775	
1493	0	32804	32746	
1494	0	32816	32728	
1495	0	32802	32736	
1496	0	32782	32846	
1497	0	32846	32710	
1498	0	32796	32675	
1499	0	32762	32766	
1500	0	32784	32764	
1501	0	32876	32775	
1502	0	32806	32803	
1503	0	32837	32746	
1504	0	32746	32775	
1505	0	32868	32762	
1506	0	32772	32718	
1507	0	32766	32794	
1508	0	32816	32644	
1509	0	32796	32838	
1510	0	32828	32902	
1511	0	32768	32814	
1512	0	32793	32772	
1513	0	32810	32666	
1514	0	32820	32775	
1515	0	32800	32762	
1516	0	32802	32807	
1517	0	32820	32800	
1518	0	32826	32784	
1519	0	32782	32862	
1520	0	32862	32860	
1521	0	32824	32796	
1522	0	32826	32746	
1523	0	32836	32750	
1524	0	32824	32732	
1525	0	32828	32775	
1526	0	32806	32800	
1527	0	32906	32775	
1528	0	32840	32807	
1529	0	32892	32820	
1530	0	32788	32800	
1531	0	32832	32726	
1532	0	32792	32740	
1533	0	32792	32695	
1534	0	32728	32710	
1535	0	32800	32759	
1536	0	32852	32828	
1537	0	32800	32714	
1538	0	32832	32828	
1539	0	32816	32647	
1540	0	32838	32775	
1541	0	32808	32870	
1542	0	32804	32830	
1543	0	32788	32775	
1544	0	32820	32828	
1545	0	32800	32831	
1546	0	32769	32814	
1547	0	32806	32870	
1548	0	32892	32702	
1549	0	32832	32694	
1550	0	32832	32720	
1551	0	32880	32868	
1552	0	32840	32836	
1553	0	32874	32769	
1554	0	32788	32750	
1555	0	32756	32682	
1556	0	32840	32823	
1557	0	32824	32750	
1558	0	32772	32801	
1559	0	32816	32772	
1560	0	32820	32734	
1561	0	32800	32724	
1562	0	32752	32743	
1563	0	32794	32832	
1564	0	32860	32632	
1565	0	32796	32766	
1566	0	32822	32784	
1567	0	32796	32711	
1568	0	32860	32830	
1569	0	32772	32737	
1570	0	32788	32753	
1571	0	32826	32686	
1572	0	32804	32774	
1573	0	32728	32644	
1574	0	32804	32818	
1575	0	32880	32666	
1576	0	32804	32756	
1577	0	32808	32688	
1578	0	32784	32806	
1579	0	32726	32838	
1580	0	32870	32734	
1581	0	32822	32696	
1582	0	32824	32734	
1583	0	32862	32799	
1584	0	32824	32708	
1585	0	32842	32766	
1586	0	32818	32816	
1587	0	32770	32732	
1588	0	32736	32843	
1589	0	32846	32768	
1590	0	32794	32775	
1591	0	32748	32752	
1592	0	32884	32775	
1593	0	32780	32744	
1594	0	32846	32818	
1595	0	32864	32818	
1596	0	32856	32794	
1597	0	32800	32775	
1598	0	32746	32847	
1599	0	32832	32750	
1600	0	32770	32788	
1601	0	32840	32844	
1602	0	32844	32775	
1603	0	32812	32814	
1604	0	32864	32844	
1605	0	32854	32790	
1606	0	32792	32720	
1607	0	32786	32791	
1608	0	32820	32638	
1609	0	32804	32775	
1610	0	32804	32640	
1611	0	32796	32703	
1612	0	32808	32647	
1613	0	32842	32764	
1614	0	32800	32692	
1615	0	32768	32768	
1616	0	32776	32734	
1617	0	32822	32824	
1618	0	32792	32676	
1619	0	32744	32758	
1620	0	32808	32684	
1621	0	32792	32786	
1622	0	32858	32676	
1623	0	32822	32756	
1624	0	32788	32718	
1625	0	32836	32743	
1626	0	32784	32812	
1627	0	32788	32846	
1628	0	32812	32884	
1629	0	32898	32764	
1630	0	32812	32724	
1631	0	32840	32630	
1632	0	32754	32747	
1633	0	32788	32794	
1634	0	32800	32766	
1635	0	32776	32736	
1636	0	32836	32703	
1637	0	32814	32740	
1638	0	32812	32754	
1639	0	32750	32854	
1640	0	32808	32852	
1641	0	32794	32773	
1642	0	32793	32744	
1643	0	32832	32679	
1644	0	32740	32786	
1645	0	32868	32754	
1646	0	32832	32711	
1647	0	32812	32830	
1648	0	32824	32764	
1649	0	32744	32822	
1650	0	32832	32852	
1651	0	32776	32748	
1652	0	32760	32785	
1653	0	32860	32775	
1654	0	32836	32820	
1655	0	32864	32852	
1656	0	32820	32724	
1657	0	32804	32816	
1658	0	32782	32726	
1659	0	32792	32808	
1660	0	32836	32818	
1661	0	32776	32740	
1662	0	32820	32842	
1663	0	32804	32654	
1664	0	32832	32775	
1665	0	32824	32812	
1666	0	32816	32682	
1667	0	32816	32704	
1668	0	32796	32760	
1669	0	32790	32775	
1670	0	32780	32728	
1671	0	32800	32716	
1672	0	32930	32745	
1673	0	32856	32748	
1674	0	32884	32723	
1675	0	32840	32866	
1676	0	32784	32806	
1677	0	32782	32690	
1678	0	32784	32767	
1679	0	32820	32704	
1680	0	32834	32790	
1681	0	32788	32775	
1682	0	32868	32794	
1683	0	32848	32660	
1684	0	32822	32808	
1685	0	32796	32770	
1686	0	32832	32822	
1687	0	32852	32724	
1688	0	32852	32716	
1689	0	32780	32752	
1690	0	32882	32700	
1691	0	32868	32774	
1692	0	32840	32674	
1693	0	32856	32775	
1694	0	32824	32674	
1695	0	32796	32794	
1696	0	32822	32746	
1697	0	32800	32935	
1698	0	32794	32844	
1699	0	32824	32719	
1700	0	32800	32774	
1701	0	32820	32764	
1702	0	32828	32774	
1703	0	32838	32762	
1704	0	32818	32788	
1705	0	32836	32774	
1706	0	32834	32796	
1707	0	32860	32824	
1708	0	32764	32824	
1709	0	32764	32830	
1710	0	32916	32660	
1711	0	32840	32736	
1712	0	32732	32703	
1713	0	32818	32718	
1714	0	32828	32638	
1715	0	32808	32775	
1716	0	32786	32743	
1717	0	32836	32832	
1718	0	32800	32710	
1719	0	32866	32754	
1720	0	32852	32712	
1721	0	32836	32790	
1722	0	32784	32632	
1723	0	32804	32794	
1724	0	32788	32676	
1725	0	32764	32766	
1726	0	32832	32749	
1727	0	32816	32807	
1728	0	32824	32710	
1729	0	32752	32752	
1730	0	32828	32664	
1731	0	32856	32791	
1732	0	32840	32738	
1733	0	32820	32774	
1734	0	32852	32710	
1735	0	32793	32752	
1736	0	32800	32676	
1737	0	32802	32783	
1738	0	32858	32700	
1739	0	32792	32811	
1740	0	32820	32700	
1741	0	32780	32794	
1742	0	32772	32848	
1743	0	32810	32812	
1744	0	32826	32802	
1745	0	32824	32700	
1746	0	32854	32768	
1747	0	32780	32716	
1748	0	32788	32772	
1749	0	32784	32674	
1750	0	32826	32744	
1751	0	32840	32718	
1752	0	32824	32775	
1753	0	32816	32716	
1754	0	32840	32770	
1755	0	32852	32890	
1756	0	32744	32859	
1757	0	32804	32743	
1758	0	32858	32775	
1759	0	32784	32710	
1760	0	32820	32735	
1761	0	32820	32726	
1762	0	32868	32844	
1763	0	32840	32796	
1764	0	32864	32759	
1765	0	32794	32720	
1766	0	32756	32694	
1767	0	32876	32750	
1768	0	32792	32662	
1769	0	32802	32774	
1770	0	32862	32702	
1771	0	32748	32714	
1772	0	32796	32738	
1773	0	32850	32798	
1774	0	32874	32828	
1775	0	32812	32738	
1776	0	32782	32820	
1777	0	32756	32726	
1778	0	32828	32816	
1779	0	32798	32775	
1780	0	32802	32804	
1781	0	32854	32775	
1782	0	32788	32798	
1783	0	32804	32784	
1784	0	32832	32830	
1785	0	32848	32812	
1786	0	32742	32796	
1787	0	32848	32775	
1788	0	32776	32830	
1789	0	32786	32792	
1790	0	32804	32743	
1791	0	32824	32775	
1792	0	32864	32764	
1793	0	32884	32838	
1794	0	32776	32715	
1795	0	32874	32754	
1796	0	32772	32728	
1797	0	32718	32744	
1798	0	32770	32684	
1799	0	32810	32864	
1800	0	32796	32744	
1801	0	32812	32748	
1802	0	32840	32800	
1803	0	32878	32666	
1804	0	32860	32804	
1805	0	32808	32718	
1806	0	32852	32732	
1807	0	32788	32772	
1808	0	32782	32658	
1809	0	32792	32790	
1810	0	32856	32802	
1811	0	32852	32800	
1812	0	32784	32792	
1813	0	32784	32775	
1814	0	32816	32759	
1815	0	32824	32822	
1816	0	32824	32718	
1817	0	32880	32720	
1818	0	32764	32910	
1819	0	32778	32756	
1820	0	32760	32678	
1821	0	32828	32718	
1822	0	32828	32707	
1823	0	32840	32796	
1824	0	32788	32698	
1825	0	32836	32768	
1826	0	32744	32714	
1827	0	32828	32804	
1828	0	32760	32770	
1829	0	32778	32832	
1830	0	32712	32834	
1831	0	32804	32676	
1832	0	32780	32791	
1833	0	32792	32700	
1834	0	32798	32822	
1835	0	32834	32708	
1836	0	32820	32740	
1837	0	32892	32692	
1838	0	32832	32774	
1839	0	32770	32694	
1840	0	32790	32858	
1841	0	32824	32722	
1842	0	32814	32838	
1843	0	32816	32846	
1844	0	32866	32730	
1845	0	32816	32820	
1846	0	32724	32768	
1847	0	32848	32852	
1848	0	32874	32792	
1849	0	32804	32764	
1850	0	32772	32706	
1851	0	32836	32826	
1852	0	32932	32802	
1853	0	32864	32719	
1854	0	32768	32800	
1855	0	32792	32707	
1856	0	32836	32748	
1857	0	32836	32846	
1858	0	32852	32676	
1859	0	32772	32728	
1860	0	32852	32737	
1861	0	32781	32862	
1862	0	32804	32836	
1863	0	32766	32711	
1864	0	32836	32807	
1865	0	32876	32847	
1866	0	32907	32716	
1867	0	32804	32766	
1868	0	32760	32740	
1869	0	32784	32752	
1870	0	32824	32730	
1871	0	32760	32864	
1872	0	32840	32790	
1873	0	32832	32636	
1874	0	32788	32706	
1875	0	32788	32670	
1876	0	32828	32775	
1877	0	32788	32699	
1878	0	32846	32764	
1879	0	32866	32876	
1880	0	32798	32735	
1881	0	32804	32764	
1882	0	32844	32860	
1883	0	32924	32746	
1884	0	32796	32804	
1885	0	32812	32748	
1886	0	32748	32700	
1887	0	32810	32719	
1888	0	32810	32716	
1889	0	32840	32708	
1890	0	32840	32784	
1891	0	32848	32768	
1892	0	32864	32838	
1893	0	32740	32806	
1894	0	32772	32800	
1895	0	32820	32820	
1896	0	32848	32808	
1897	0	32758	32838	
1898	0	32852	32857	
1899	0	32828	32674	
1900	0	32778	32780	
1901	0	32828	32836	
1902	0	32828	32818	
1903	0	32844	32846	
1904	0	32848	32772	
1905	0	32904	32783	
1906	0	32790	32774	
1907	0	32810	32652	
1908	0	32824	32788	
1909	0	32824	32742	
1910	0	32828	32871	
1911	0	32812	32775	
1912	0	32812	32831	
1913	0	32790	32839	
1914	0	32786	32682	
1915	0	32846	32816	
1916	0	32820	32694	
1917	0	32768	32855	
1918	0	32832	32726	
1919	0	32796	32792	
1920	0	32836	32704	
1921	0	32798	32774	
1922	0	32792	32862	
1923	0	32804	32730	
1924	0	32744	32758	
1925	0	32832	32734	
1926	0	32820	32744	
1927	0	32864	32664	
1928	0	32838	32775	
1929	0	32814	32772	
1930	0	32792	32852	
1931	0	32784	32728	
1932	0	32780	32816	
1933	0	32784	32810	
1934	0	32838	32748	
1935	0	32908	32684	
1936	0	32792	32712	
1937	0	32824	32839	
1938	0	32800	32788	
1939	0	32772	32796	
1940	0	32758	32822	
1941	0	32804	32650	
1942	0	32816	32848	
1943	0	32828	32822	
1944	0	32840	32775	
1945	0	32808	32814	
1946	0	32784	32634	
1947	0	32760	32759	
1948	0	32834	32686	
1949	0	32800	32834	
1950	0	32756	32814	
1951	0	32836	32756	
1952	0	32810	32736	
1953	0	32832	32686	
1954	0	32823	32788	
1955	0	32828	32680	
1956	0	32790	32712	
1957	0	32846	32814	
1958	0	32824	32800	
1959	0	32774	32792	
1960	0	32808	32770	
1961	0	32830	32764	
1962	0	32858	32750	
1963	0	32841	32810	
1964	0	32804	32676	
1965	0	32864	32794	
1966	0	32764	32728	
1967	0	32816	32846	
1968	0	32776	32854	
1969	0	32844	32722	
1970	0	32892	32814	
1971	0	32796	32774	
1972	0	32832	32768	
1973	0	32842	32704	
1974	0	32836	32793	
1975	0	32800	32822	
1976	0	32776	32718	
1977	0	32804	32854	
1978	0	32852	32820	
1979	0	32802	32736	
1980	0	32832	32706	
1981	0	32778	32665	
1982	0	32772	32775	
1983	0	32788	32700	
1984	0	32768	32876	
1985	0	32872	32828	
1986	0	32848	32775	
1987	0	32844	32798	
1988	0	32814	32742	
1989	0	32806	32812	
1990	0	32832	32724	
1991	0	32769	32796	
1992	0	32762	32718	
1993	0	32852	32756	
1994	0	32808	32798	
1995	0	32794	32798	
1996	0	32846	32752	
1997	0	32816	32667	
1998	0	32780	32768	
1999	0	32776	32775	
2000	0	32776	32792	
2001	0	32848	32860	
2002	0	32828	32816	
2003	0	32764	32892	
2004	0	32880	32820	
2005	0	32804	32806	
2006	0	32808	32814	
2007	0	32832	32820	
2008	0	32788	32794	
2009	0	32810	32828	
2010	0	32852	32800	
2011	0	32820	32750	
2012	0	32808	32741	
2013	0	32836	32618	
2014	0	32804	32754	
2015	0	32758	32774	
2016	0	32860	32767	
2017	0	32868	32682	
2018	0	32832	32830	
2019	0	32764	32706	
2020	0	32833	32830	
2021	0	32828	32775	
2022	0	32804	32894	
2023	0	32828	32790	
2024	0	32832	32810	
2025	0	32740	32784	
2026	0	32868	32647	
2027	0	32794	32712	
2028	0	32794	32690	
2029	0	32824	32846	
2030	0	32796	32847	
2031	0	32792	32716	
2032	0	32834	32768	
2033	0	32814	32732	
2034	0	32856	32790	
2035	0	32824	32866	
2036	0	32796	32770	
2037	0	32876	32804	
2038	0	32784	32695	
2039	0	32804	32824	
2040	0	32800	32839	
2041	0	32748	32794	
2042	0	32808	32811	
2043	0	32776	32734	
2044	0	32820	32808	
2045	0	32876	32710	
2046	0	32804	32840	
2047	0	32850	32850	
2048	0	32794	32732	
2049	0	32840	32824	
2050	0	32816	32852	
2051	0	32840	32740	
2052	0	32848	32862	
2053	0	32882	32809	
2054	0	32836	32948	
2055	0	32928	32896	
2056	0	32898	32804	
2057	0	32900	32884	
2058	0	32824	32756	
2059	0	32843	32838	
2060	0	32866	32682	
2061	0	32770	32716	
2062	0	32772	32535	
2063	0	32720	32562	
2064	0	32616	32556	
2065	0	32618	32380	
2066	0	32636	32430	
2067	0	32632	32286	
2068	0	32656	32347	
2069	0	32672	32402	
2070	0	32758	32622	
2071	0	32736	32642	
2072	0	32818	32808	
2073	0	32876	32888	
2074	0	32786	32865	
2075	0	32844	32874	
2076	0	32840	32830	
2077	0	32838	32871	
2078	0	32884	32873	
2079	0	32930	32837	
2080	0	32852	32806	
2081	0	32936	32952	
2082	0	32888	32927	
2083	0	32884	32903	
2084	0	32916	32912	
2085	0	32884	32903	
2086	0	32876	32892	
2087	0	32842	32711	
2088	0	32824	32826	
2089	0	32880	32775	
2090	0	32876	32818	
2091	0	32932	32775	
2092	0	32888	32874	
2093	0	32804	32808	
2094	0	32800	32692	
2095	0	32746	32800	
2096	0	32804	32628	
2097	0	32814	32688	
2098	0	32750	32604	
2099	0	32770	32740	
2100	0	32806	32700	
2101	0	32812	32808	
2102	0	32716	32775	
2103	0	32788	32764	
2104	0	32848	32758	
2105	0	32752	32647	
2106	0	32810	32820	
2107	0	32808	32729	
2108	0	32844	32720	
2109	0	32888	32754	
2110	0	32820	32736	
2111	0	32784	32775	
2112	0	32872	32752	
2113	0	32832	32716	
2114	0	32784	32818	
2115	0	32772	32740	
2116	0	32830	32775	
2117	0	32858	32759	
2118	0	32852	32810	
2119	0	32820	32832	
2120	0	32792	32766	
2121	0	32790	32768	
2122	0	32750	32682	
2123	0	32740	32775	
2124	0	32792	32772	
2125	0	32760	32732	
2126	0	32724	32682	
2127	0	32846	32712	
2128	0	32852	32774	
2129	0	32810	32692	
2130	0	32886	32766	
2131	0	32774	32940	
2132	0	32832	32796	
2133	0	32784	32740	
2134	0	32816	32692	
2135	0	32816	32788	
2136	0	32852	32754	
2137	0	32740	32689	
2138	0	32806	32830	
2139	0	32792	32866	
2140	0	32828	32730	
2141	0	32796	32732	
2142	0	32790	32736	
2143	0	32856	32848	
2144	0	32876	32864	
2145	0	32802	32806	
2146	0	32842	32775	
2147	0	32760	32704	
2148	0	32774	32664	
2149	0	32788	32742	
2150	0	32836	32879	
2151	0	32908	32820	
2152	0	32836	32792	
2153	0	32820	32790	
2154	0	32808	32695	
2155	0	32832	32812	
2156	0	32820	32654	
2157	0	32816	32774	
2158	0	32846	32658	
2159	0	32855	32842	
2160	0	32772	32822	
2161	0	32832	32884	
2162	0	32852	32784	
2163	0	32762	32733	
2164	0	32776	32800	
2165	0	32800	32720	
2166	0	32820	32775	
2167	0	32804	32684	
2168	0	32764	32830	
2169	0	32796	32839	
2170	0	32800	32775	
2171	0	32856	32807	
2172	0	32836	32702	
2173	0	32796	32700	
2174	0	32828	32696	
2175	0	32828	32844	
2176	0	32912	32794	
2177	0	32808	32793	
2178	0	32836	32743	
2179	0	32846	32750	
2180	0	32864	32724	
2181	0	32800	32839	
2182	0	32804	32728	
2183	0	32744	32751	
2184	0	32796	32704	
2185	0	32848	32773	
2186	0	32804	32685	
2187	0	32852	32766	
2188	0	32836	32678	
2189	0	32828	32772	
2190	0	32813	32764	
2191	0	32790	32775	
2192	0	32818	32768	
2193	0	32836	32800	
2194	0	32860	32740	
2195	0	32784	32766	
2196	0	32822	32714	
2197	0	32816	32822	
2198	0	32794	32626	
2199	0	32782	32826	
2200	0	32838	32839	
2201	0	32760	32788	
2202	0	32772	32842	
2203	0	32768	32729	
2204	0	32844	32818	
2205	0	32834	32790	
2206	0	32772	32708	
2207	0	32778	32746	
2208	0	32836	32743	
2209	0	32884	32804	
2210	0	32812	32884	
2211	0	32824	32688	
2212	0	32820	32740	
2213	0	32824	32676	
2214	0	32838	32818	
2215	0	32860	32805	
2216	0	32792	32770	
2217	0	32865	32860	
2218	0	32832	32792	
2219	0	32812	32744	
2220	0	32776	32726	
2221	0	32742	32818	
2222	0	32816	32696	
2223	0	32798	32775	
2224	0	32798	32654	
2225	0	32788	32844	
2226	0	32748	32687	
2227	0	32826	32756	
2228	0	32812	32689	
2229	0	32810	32770	
2230	0	32712	32634	
2231	0	32820	32775	
2232	0	32852	32732	
2233	0	32826	32823	
2234	0	32828	32694	
2235	0	32884	32762	
2236	0	32802	32738	
2237	0	32828	32740	
2238	0	32856	32664	
2239	0	32800	32762	
2240	0	32872	32672	
2241	0	32744	32809	
2242	0	32824	32790	
2243	0	32784	32774	
2244	0	32740	32724	
2245	0	32792	32775	
2246	0	32780	32722	
2247	0	32820	32792	
2248	0	32814	32700	
2249	0	32798	32774	
2250	0	32824	32742	
2251	0	32814	32854	
2252	0	32784	32844	
2253	0	32750	32832	
2254	0	32828	32806	
2255	0	32796	32830	
2256	0	32836	32792	
2257	0	32808	32767	
2258	0	32816	32820	
2259	0	32836	32766	
2260	0	32804	32796	
2261	0	32848	32691	
2262	0	32848	32762	
2263	0	32760	32786	
2264	0	32774	32788	
2265	0	32840	32848	
2266	0	32764	32822	
2267	0	32784	32775	
2268	0	32800	32826	
2269	0	32796	32806	
2270	0	32788	32798	
2271	0	32848	32759	
2272	0	32836	32839	
2273	0	32776	32841	
2274	0	32832	32810	
2275	0	32824	32796	
2276	0	32866	32794	
2277	0	32780	32788	
2278	0	32792	32820	
2279	0	32756	32774	
2280	0	32830	32798	
2281	0	32828	32768	
2282	0	32798	32628	
2283	0	32788	32785	
2284	0	32878	32760	
2285	0	32746	32748	
2286	0	32772	32736	
2287	0	32770	32804	
2288	0	32764	32791	
2289	0	32864	32734	
2290	0	32813	32858	
2291	0	32796	32761	
2292	0	32790	32775	
2293	0	32778	32698	
2294	0	32832	32774	
2295	0	32800	32788	
2296	0	32768	32764	
2297	0	32844	32768	
2298	0	32712	32734	
2299	0	32752	32858	
2300	0	32840	32756	
2301	0	32808	32807	
2302	0	32892	32770	
2303	0	32848	32830	
2304	0	32846	32612	
2305	0	32840	32775	
2306	0	32902	32734	
2307	0	32792	32754	
2308	0	32838	32698	
2309	0	32800	32786	
2310	0	32842	32712	
2311	0	32784	32807	
2312	0	32808	32760	
2313	0	32860	32775	
2314	0	32786	32702	
2315	0	32808	32750	
2316	0	32768	32688	
2317	0	32844	32832	
2318	0	32823	32686	
2319	0	32830	32682	
2320	0	32792	32708	
2321	0	32828	32854	
2322	0	32840	32682	
2323	0	32822	32770	
2324	0	32764	32704	
2325	0	32808	32770	
2326	0	32742	32724	
2327	0	32832	32698	
2328	0	32792	32790	
2329	0	32836	32724	
2330	0	32774	32788	
2331	0	32820	32820	
2332	0	32788	32812	
2333	0	32764	32788	
2334	0	32788	32732	
2335	0	32864	32768	
2336	0	32784	32753	
2337	0	32756	32732	
2338	0	32806	32692	
2339	0	32816	32800	
2340	0	32796	32746	
2341	0	32836	32804	
2342	0	32836	32748	
2343	0	32846	32890	
2344	0	32840	32902	
2345	0	32826	32772	
2346	0	32816	32769	
2347	0	32799	32821	
2348	0	32748	32804	
2349	0	32744	32710	
2350	0	32878	32816	
2351	0	32804	32696	
2352	0	32860	32738	
2353	0	32892	32861	
2354	0	32816	32840	
2355	0	32874	32844	
2356	0	32804	32762	
2357	0	32800	32820	
2358	0	32784	32688	
2359	0	32724	32790	
2360	0	32760	32700	
2361	0	32780	32756	
2362	0	32830	32714	
2363	0	32820	32840	
2364	0	32808	32773	
2365	0	32828	32647	
2366	0	32812	32792	
2367	0	32858	32743	
2368	0	32804	32760	
2369	0	32760	32756	
2370	0	32806	32750	
2371	0	32808	32770	
2372	0	32778	32632	
2373	0	32844	32743	
2374	0	32834	32728	
2375	0	32764	32822	
2376	0	32740	32727	
2377	0	32820	32870	
2378	0	32822	32852	
2379	0	32788	32775	
2380	0	32828	32924	
2381	0	32764	32806	
2382	0	32784	32812	
2383	0	32932	32701	
2384	0	32868	32732	
2385	0	32816	32688	
2386	0	32808	32724	
2387	0	32804	32664	
2388	0	32810	32718	
2389	0	32788	32735	
2390	0	32776	32864	
2391	0	32829	32818	
2392	0	32876	32822	
2393	0	32740	32758	
2394	0	32810	32878	
2395	0	32816	32902	
2396	0	32756	32856	
2397	0	32808	32796	
2398	0	32836	32726	
2399	0	32766	32775	
2400	0	32800	32751	
2401	0	32792	32782	
2402	0	32748	32772	
2403	0	32860	32784	
2404	0	32826	32720	
2405	0	32784	32798	
2406	0	32812	32724	
2407	0	32952	32746	
2408	0	32928	32775	
2409	0	32834	32788	
2410	0	32828	32855	
2411	0	32760	32832	
2412	0	32816	32814	
2413	0	32818	32802	
2414	0	32752	32830	
2415	0	32792	32775	
2416	0	32872	32830	
2417	0	32872	32728	
2418	0	32804	32807	
2419	0	32804	32836	
2420	0	32784	32771	
2421	0	32834	32728	
2422	0	32780	32804	
2423	0	32736	32674	
2424	0	32742	32756	
2425	0	32748	32646	
2426	0	32831	32774	
2427	0	32812	32722	
2428	0	32876	32746	
2429	0	32852	32660	
2430	0	32960	32847	
2431	0	32992	32766	
2432	0	32832	32775	
2433	0	32784	32743	
2434	0	32782	32692	
2435	0	32800	32790	
2436	0	32796	32768	
2437	0	32784	32736	
2438	0	32822	32668	
2439	0	32748	32750	
2440	0	32692	32710	
2441	0	32854	32817	
2442	0	32968	32894	
2443	0	32880	32720	
2444	0	32784	32726	
2445	0	32812	32815	
2446	0	32720	32814	
2447	0	32740	32791	
2448	0	32820	32652	
2449	0	32744	32768	
2450	0	32816	32682	
2451	0	32792	32764	
2452	0	32712	32706	
2453	0	32664	32836	
2454	0	32648	32808	
2455	0	32724	32775	
2456	0	32756	32844	
2457	0	32860	32838	
2458	0	32780	32750	
2459	0	32824	32788	
2460	0	32850	32704	
2461	0	32842	32822	
2462	0	32824	32734	
2463	0	32832	32752	
2464	0	32852	32863	
2465	0	32884	32847	
2466	0	32832	32772	
2467	0	32830	32716	
2468	0	32804	32807	
2469	0	32902	32759	
2470	0	32908	32804	
2471	0	32966	32823	
2472	0	32954	32768	
2473	0	32852	32808	
2474	0	32700	32647	
2475	0	32698	32759	
2476	0	32776	32742	
2477	0	32796	32794	
2478	0	32752	32699	
2479	0	32780	32652	
2480	0	32846	32738	
2481	0	32836	32714	
2482	0	32866	32774	
2483	0	32760	32772	
2484	0	32864	32696	
2485	0	32836	32764	
2486	0	32822	32730	
2487	0	32802	32740	
2488	0	32705	32839	
2489	0	32774	32814	
2490	0	32768	32764	
2491	0	32768	32750	
2492	0	32798	32708	
2493	0	32744	32775	
2494	0	32748	32832	
2495	0	32778	32864	
2496	0	32794	32828	
2497	0	32828	32818	
2498	0	32804	32762	
2499	0	32776	32726	
2500	0	32772	32775	
2501	0	32894	32684	
2502	0	32836	32795	
2503	0	32868	32688	
2504	0	32798	32740	
2505	0	32848	32668	
2506	0	32904	32786	
2507	0	32838	32725	
2508	0	32842	32646	
2509	0	32800	32800	
2510	0	32812	32716	
2511	0	32920	32763	
2512	0	32734	32702	
2513	0	32848	32818	
2514	0	32802	32704	
2515	0	32834	32756	
2516	0	32938	32718	
2517	0	33096	32814	
2518	0	32876	32735	
2519	0	32696	32848	
2520	0	32692	32900	
2521	0	32692	32870	
2522	0	32724	32982	
2523	0	32804	32920	
2524	0	32770	32852	
2525	0	32820	32802	
2526	0	32663	32774	
2527	0	32664	32784	
2528	0	32712	32633	
2529	0	32652	32634	
2530	0	32706	32694	
2531	0	32784	32647	
2532	0	32744	32752	
2533	0	32868	32764	
2534	0	32844	32806	
2535	0	32806	32688	
2536	0	32816	32821	
2537	0	32852	32804	
2538	0	32932	32792	
2539	0	32908	32775	
2540	0	32936	32798	
2541	0	32754	32839	
2542	0	32906	32866	
2543	0	32840	32871	
2544	0	32852	32794	
2545	0	32828	32858	
2546	0	32862	32672	
2547	0	32810	32702	
2548	0	32800	32647	
2549	0	32768	32728	
2550	0	32754	32692	
2551	0	32828	32694	
2552	0	32836	32708	
2553	0	32900	32740	
2554	0	32784	32692	
2555	0	32696	32774	
2556	0	32746	32708	
2557	0	32664	32758	
2558	0	32676	32796	
2559	0	32676	32754	
2560	0	32783	32756	
2561	0	32820	32707	
2562	0	32864	32690	
2563	0	33036	32704	
2564	0	33126	32798	
2565	0	32960	32888	
2566	0	32970	32903	
2567	0	32926	32848	
2568	0	32858	32772	
2569	0	32860	32748	
2570	0	32776	32775	
2571	0	32736	32816	
2572	0	32718	32810	
2573	0	32684	32692	
2574	0	32592	32740	
2575	0	32742	32796	
2576	0	32826	32736	
2577	0	32786	32746	
2578	0	32752	32645	
2579	0	32752	32646	
2580	0	32822	32665	
2581	0	32904	32716	
2582	0	32900	32858	
2583	0	32928	32900	
2584	0	32964	32706	
2585	0	32966	32858	
2586	0	32968	32732	
2587	0	32884	32863	
2588	0	32796	32866	
2589	0	32768	32758	
2590	0	32764	32878	
2591	0	32772	32735	
2592	0	32824	32732	
2593	0	32892	32678	
2594	0	32808	32806	
2595	0	32660	32746	
2596	0	32580	32679	
2597	0	32676	32775	
2598	0	32652	32660	
2599	0	32724	32743	
2600	0	32802	32743	
2601	0	32888	32759	
2602	0	32808	32838	
2603	0	32904	32700	
2604	0	32948	32710	
2605	0	32844	32752	
2606	0	32838	32719	
2607	0	32832	32548	
2608	0	32874	32676	
2609	0	32844	32704	
2610	0	32896	32828	
2611	0	32832	32804	
2612	0	32820	32804	
2613	0	32842	32938	
2614	0	32788	32940	
2615	0	32652	33078	
2616	0	32706	32962	
2617	0	32752	32839	
2618	0	32794	32758	
2619	0	32810	32630	
2620	0	32714	32658	
2621	0	32730	32615	
2622	0	32840	32689	
2623	0	32780	32615	
2624	0	32824	32642	
2625	0	32782	32838	
2626	0	32826	32676	
2627	0	33018	32832	
2628	0	33016	32775	
2629	0	32944	32814	
2630	0	32928	32886	
2631	0	32748	32734	
2632	0	32648	32750	
2633	0	32558	32828	
2634	0	32680	32868	
2635	0	32696	32760	
2636	0	32584	32816	
2637	0	32728	32686	
2638	0	32804	32738	
2639	0	32774	32634	
2640	0	32850	32692	
2641	0	32900	32742	
2642	0	32888	32774	
2643	0	32902	32743	
2644	0	32896	32706	
2645	0	32872	32775	
2646	0	32964	32726	
2647	0	32952	32852	
2648	0	32958	33027	
2649	0	32836	32928	
2650	0	32922	32958	
2651	0	32920	32810	
2652	0	32880	32762	
2653	0	32780	32688	
2654	0	32716	32772	
2655	0	32628	32814	
2656	0	32612	32696	
2657	0	32638	32688	
2658	0	32780	32505	
2659	0	32834	32596	
2660	0	32756	32647	
2661	0	32712	32874	
2662	0	32750	32836	
2663	0	32820	32932	
2664	0	32928	32893	
2665	0	32866	32906	
2666	0	32858	32805	
2667	0	32812	32852	
2668	0	32840	32699	
2669	0	32840	32686	
2670	0	32934	32652	
2671	0	32960	32710	
2672	0	32924	32764	
2673	0	32836	32775	
2674	0	32772	32838	
2675	0	32792	32775	
2676	0	32792	32870	
2677	0	32652	32828	
2678	0	32838	32730	
2679	0	32961	32862	
2680	0	32972	32730	
2681	0	32842	32679	
2682	0	32752	32630	
2683	0	32644	32504	
2684	0	32762	32474	
2685	0	32724	32658	
2686	0	32706	32618	
2687	0	32808	32708	
2688	0	32860	32834	
2689	0	32978	32774	
2690	0	32916	32871	
2691	0	32844	32871	
2692	0	32704	32931	
2693	0	32812	32978	
2694	0	32574	32936	
2695	0	32552	33202	
2696	0	32578	33184	
2697	0	32822	33068	
2698	0	32742	32903	
2699	0	32780	32708	
2700	0	33168	32775	
2701	0	33096	32524	
2702	0	32928	32558	
2703	0	32917	32622	
2704	0	32928	32658	
2705	0	33040	32772	
2706	0	32958	32687	
2707	0	32880	32790	
2708	0	32954	32668	
2709	0	32840	32775	
2710	0	32752	32732	
2711	0	32804	32731	
2712	0	32728	32679	
2713	0	32705	32416	
2714	0	32700	32564	
2715	0	32722	32519	
2716	0	32628	32622	
2717	0	32576	32684	
2718	0	32528	32970	
2719	0	32508	33095	
2720	0	32576	33156	
2721	0	32754	33212	
2722	0	32790	33059	
2723	0	33008	33046	
2724	0	33042	32990	
2725	0	32932	32896	
2726	0	32892	32810	
2727	0	32924	32687	
2728	0	32984	32630	
2729	0	32834	32541	
2730	0	32644	32686	
2731	0	32800	32618	
2732	0	32836	32502	
2733	0	32800	32672	
2734	0	33004	32672	
2735	0	32920	32903	
2736	0	32704	32716	
2737	0	32828	32775	
2738	0	32846	32770	
2739	0	32816	32903	
2740	0	32720	32818	
2741	0	32684	32828	
2742	0	32720	32766	
2743	0	32984	32775	
2744	0	32992	32806	
2745	0	32940	32618	
2746	0	32784	32648	
2747	0	32808	32547	
2748	0	32676	32703	
2749	0	32700	32676	
2750	0	32850	32664	
2751	0	32972	32586	
2752	0	32978	32622	
2753	0	32868	32840	
2754	0	32720	32752	
2755	0	32636	32554	
2756	0	32688	32480	
2757	0	32530	32484	
2758	0	32564	32430	
2759	0	32548	32300	
2760	0	32532	32608	
2761	0	32632	32912	
2762	0	32622	32912	
2763	0	32872	32956	
2764	0	32816	33095	
2765	0	33078	33196	
2766	0	33012	33192	
2767	0	33144	33078	
2768	0	33184	32764	
2769	0	33124	32914	
2770	0	32968	32818	
2771	0	32792	33014	
2772	0	32700	32908	
2773	0	32890	33081	
2774	0	32862	32888	
2775	0	32676	32852	
2776	0	32596	32743	
2777	0	32748	32540	
2778	0	32594	32470	
2779	0	32832	32327	
2780	0	32980	32360	
2781	0	32944	32316	
2782	0	33068	32582	
2783	0	33048	32690	
2784	0	32820	32791	
2785	0	32729	33050	
2786	0	32752	33164	
2787	0	32580	33069	
2788	0	32718	33108	
2789	0	32852	33068	
2790	0	32932	32927	
2791	0	32884	32790	
2792	0	32832	32599	
2793	0	32722	32764	
2794	0	32671	32384	
2795	0	32526	32398	
2796	0	32316	32502	
2797	0	32436	32534	
2798	0	32470	32534	
2799	0	32720	32748	
2800	0	32918	32832	
2801	0	33036	32846	
2802	0	32928	32671	
2803	0	32940	32756	
2804	0	32964	32750	
2805	0	32916	32822	
2806	0	32800	32860	
2807	0	32784	32964	
2808	0	32980	33008	
2809	0	33092	32844	
2810	0	32962	32844	
2811	0	33092	32772	
2812	0	32962	32795	
2813	0	32794	32708	
2814	0	32852	32791	
2815	0	32796	32823	
2816	0	32952	32988	
2817	0	32889	32926	
2818	0	32896	33031	
2819	0	32944	33052	
2820	0	32564	33006	
2821	0	32372	32860	
2822	0	32088	32756	
2823	0	32224	32612	
2824	0	32577	32462	
2825	0	32501	32372	
2826	0	32506	32302	
2827	0	32838	32463	
2828	0	33112	32494	
2829	0	33000	32616	
2830	0	33208	32480	
2831	0	33152	32752	
2832	0	32980	32662	
2833	0	32852	32868	
2834	0	32740	32992	
2835	0	32824	32934	
2836	0	32892	32942	
2837	0	32920	32955	
2838	0	32810	33154	
2839	0	32792	32964	
2840	0	32748	33036	
2841	0	32722	32844	
2842	0	32804	32744	
2843	0	32904	32676	
2844	0	32858	32696	
2845	0	32916	32450	
2846	0	33052	32480	
2847	0	33008	32391	
2848	0	32864	32344	
2849	0	32838	32255	
2850	0	32832	32374	
2851	0	32816	32680	
2852	0	32784	33152	
2853	0	32596	33182	
2854	0	32660	33218	
2855	0	32590	33252	
2856	0	32526	33158	
2857	0	32680	32895	
2858	0	32712	32642	
2859	0	32720	32632	
2860	0	32736	32606	
2861	0	32684	32647	
2862	0	32824	32623	
2863	0	32896	32690	
2864	0	32760	32634	
2865	0	32740	32735	
2866	0	32840	32886	
2867	0	32992	32676	
2868	0	33058	32748	
2869	0	32972	32772	
2870	0	32992	32804	
2871	0	33026	32882	
2872	0	32956	32708	
2873	0	32820	32926	
2874	0	32754	32942	
2875	0	32566	32944	
2876	0	32654	32940	
2877	0	32676	32759	
2878	0	32740	32834	
2879	0	32644	32884	
2880	0	32556	32798	
2881	0	32571	32886	
2882	0	32748	32788	
2883	0	32902	32936	
2884	0	32884	32903	
2885	0	32908	32862	
2886	0	32784	32903	
2887	0	32938	32863	
2888	0	32816	32636	
2889	0	32884	32583	
2890	0	32964	32555	
2891	0	32920	32542	
2892	0	32840	32479	
2893	0	32900	32494	
2894	0	32976	32519	
2895	0	32928	32598	
2896	0	32960	32460	
2897	0	32594	32418	
2898	0	32744	32484	
2899	0	32594	32708	
2900	0	32576	32767	
2901	0	32728	32784	
2902	0	32664	32868	
2903	0	32558	33042	
2904	0	32684	33100	
2905	0	32672	32974	
2906	0	32760	32706	
2907	0	32826	32766	
2908	0	32960	32560	
2909	0	32972	32615	
2910	0	32976	32564	
2911	0	32974	32519	
2912	0	32744	32736	
2913	0	32696	32820	
2914	0	32888	32816	
2915	0	32748	32721	
2916	0	32816	32830	
2917	0	32724	33134	
2918	0	32596	33004	
2919	0	32792	32911	
2920	0	33024	33020	
2921	0	32860	32922	
2922	0	32944	33086	
2923	0	32700	32932	
2924	0	32804	32734	
2925	0	32788	32814	
2926	0	32652	32928	
2927	0	32790	32750	
2928	0	32900	32816	
2929	0	32748	32597	
2930	0	32580	32518	
2931	0	32900	32468	
2932	0	33012	32381	
2933	0	32980	32263	
2934	0	32992	32518	
2935	0	32840	32660	
2936	0	32800	32570	
2937	0	32612	32568	
2938	0	32496	32528	
2939	0	32544	32806	
2940	0	32748	32948	
2941	0	32822	33078	
2942	0	32916	32998	
2943	0	32852	33072	
2944	0	33038	32902	
2945	0	33170	33136	
2946	0	32986	32998	
2947	0	32992	33086	
2948	0	32910	32954	
2949	0	32856	32860	
2950	0	32700	32886	
2951	0	32644	32741	
2952	0	32524	32750	
2953	0	32400	32532	
2954	0	32580	32630	
2955	0	32734	32658	
2956	0	32780	32382	
2957	0	32734	32295	
2958	0	32980	32328	
2959	0	32816	32472	
2960	0	32948	32546	
2961	0	32936	32820	
2962	0	32732	33016	
2963	0	32934	32908	
2964	0	33010	32994	
2965	0	32896	32806	
2966	0	32860	32534	
2967	0	32956	32416	
2968	0	32916	32519	
2969	0	32776	32775	
2970	0	32616	32708	
2971	0	32716	33012	
2972	0	32766	33156	
2973	0	32660	33026	
2974	0	32340	33124	
2975	0	32380	32964	
2976	0	32564	32862	
2977	0	32776	32642	
2978	0	32704	32586	
2979	0	32914	32582	
2980	0	32952	32608	
2981	0	33086	32718	
2982	0	33044	33030	
2983	0	32908	32754	
2984	0	33194	32774	
2985	0	32916	32768	
2986	0	32746	32748	
2987	0	32868	32480	
2988	0	32880	32512	
2989	0	32608	32472	
2990	0	32660	32488	
2991	0	32802	32838	
2992	0	32864	32818	
2993	0	32940	32774	
2994	0	32840	32768	
2995	0	32812	33036	
2996	0	32832	33120	
2997	0	32978	33130	
2998	0	32840	32998	
2999	0	32900	33044	
3000	0	32664	33066	
3001	0	32672	33031	
3002	0	32472	32854	
3003	0	32760	32516	
3004	0	32570	32423	
3005	0	32624	32302	
3006	0	32964	32382	
3007	0	33316	32550	
3008	0	32940	32506	
3009	0	32992	32498	
3010	0	32716	32526	
3011	0	32476	32775	
3012	0	32434	32871	
3013	0	32518	32918	
3014	0	32482	32716	
3015	0	32644	32790	
3016	0	32972	32796	
3017	0	32886	32624	
3018	0	32784	32820	
3019	0	32756	32820	
3020	0	32914	32762	
3021	0	33000	32694	
3022	0	33066	32954	
3023	0	32810	32966	
3024	0	32970	32768	
3025	0	33186	32648	
3026	0	33154	32478	
3027	0	33008	32424	
3028	0	32936	32510	
3029	0	32980	32710	
3030	0	32640	32806	
3031	0	32636	33076	
3032	0	32552	33300	
3033	0	32456	33358	
3034	0	32484	33176	
3035	0	32756	33084	
3036	0	32768	32848	
3037	0	32536	32775	
3038	0	32796	32762	
3039	0	32776	32702	
3040	0	32866	32574	
3041	0	32686	32446	
3042	0	32996	32344	
3043	0	33004	32164	
3044	0	32736	32292	
3045	0	32938	32444	
3046	0	32840	32666	
3047	0	33086	32710	
3048	0	33192	32775	
3049	0	33070	32722	
3050	0	33014	32948	
3051	0	32446	32964	
3052	0	32544	33084	
3053	0	32538	33342	
3054	0	32560	33236	
3055	0	32600	33150	
3056	0	33084	32847	
3057	0	33308	32835	
3058	0	32874	32752	
3059	0	32852	32830	
3060	0	32824	32840	
3061	0	32792	32880	
3062	0	32612	32638	
3063	0	32572	32548	
3064	0	32673	32740	
3065	0	32928	32724	
3066	0	32650	32583	
3067	0	32612	32596	
3068	0	32890	32676	
3069	0	33068	32830	
3070	0	33056	32660	
3071	0	32798	32668	
3072	0	32720	32560	
3073	0	33098	32647	
3074	0	33238	32487	
3075	0	33346	32604	
3076	0	32964	32642	
3077	0	32545	32775	
3078	0	32504	32711	
3079	0	32180	32644	
3080	0	32288	32650	
3081	0	32736	32644	
3082	0	32782	32694	
3083	0	33010	32494	
3084	0	32858	32768	
3085	0	32704	32734	
3086	0	32666	32724	
3087	0	32580	32762	
3088	0	32718	32962	
3089	0	32600	32738	
3090	0	32682	32844	
3091	0	32824	32775	
3092	0	32976	32838	
3093	0	32682	32736	
3094	0	32736	32918	
3095	0	32844	32836	
3096	0	32988	33031	
3097	0	32958	32750	
3098	0	32888	32679	
3099	0	32932	32424	
3100	0	33066	32536	
3101	0	32992	32605	
3102	0	32936	32794	
3103	0	32696	32706	
3104	0	32904	33016	
3105	0	32928	32919	
3106	0	32904	32912	
3107	0	32704	32958	
3108	0	33038	32888	
3109	0	32944	32900	
3110	0	32916	33086	
3111	0	32912	33000	
3112	0	33180	32852	
3113	0	32972	32698	
3114	0	32746	32696	
3115	0	32600	32216	
3116	0	32600	32148	
3117	0	32324	32150	
3118	0	32312	32468	
3119	0	32700	32724	
3120	0	32882	32814	
3121	0	32808	32866	
3122	0	32996	33194	
3123	0	33050	33255	
3124	0	32960	33166	
3125	0	33040	33223	
3126	0	32908	33164	
3127	0	32956	32612	
3128	0	32968	32398	
3129	0	32832	32484	
3130	0	32964	32519	
3131	0	32764	32450	
3132	0	32674	32622	
3133	0	32042	32707	
3134	0	32392	32756	
3135	0	32270	32680	
3136	0	32298	32903	
3137	0	32636	32858	
3138	0	33112	32868	
3139	0	33180	32615	
3140	0	33196	32572	
3141	0	33348	32655	
3142	0	33248	32740	
3143	0	32834	32775	
3144	0	32480	32887	
3145	0	32524	32702	
3146	0	32650	32828	
3147	0	32640	32968	
3148	0	32890	33247	
3149	0	32872	33104	
3150	0	32852	33118	
3151	0	32972	32775	
3152	0	32852	32530	
3153	0	32954	32430	
3154	0	32680	32365	
3155	0	32776	32230	
3156	0	33104	32135	
3157	0	32832	32162	
3158	0	33000	32326	
3159	0	33060	32376	
3160	0	32898	32628	
3161	0	32836	32986	
3162	0	32962	33268	
3163	0	32892	33336	
3164	0	32804	33233	
3165	0	32706	33287	
3166	0	32524	33138	
3167	0	32312	33142	
3168	0	32376	33020	
3169	0	32452	32908	
3170	0	32044	32906	
3171	0	32488	32740	
3172	0	32832	32668	
3173	0	33208	32467	
3174	0	33196	32482	
3175	0	33452	32647	
3176	0	33496	32726	
3177	0	33260	32986	
3178	0	32936	33050	
3179	0	32620	32876	
3180	0	32662	32732	
3181	0	32970	32532	
3182	0	32746	32440	
3183	0	32748	32575	
3184	0	33010	32612	
3185	0	32934	32772	
3186	0	32928	32692	
3187	0	32782	32710	
3188	0	32276	32436	
3189	0	32364	32551	
3190	0	32580	32716	
3191	0	32716	33002	
3192	0	33012	33098	
3193	0	32918	32938	
3194	0	32978	33058	
3195	0	32940	32992	
3196	0	32803	32700	
3197	0	32876	32748	
3198	0	32660	32678	
3199	0	32624	32622	
3200	0	32748	32662	
3201	0	33428	32518	
3202	0	33204	32606	
3203	0	33104	32375	
3204	0	33020	32786	
3205	0	32618	33031	
3206	0	32172	32994	
3207	0	32072	32874	
3208	0	32018	32736	
3209	0	32418	32676	
3210	0	32520	32684	
3211	0	33136	32666	
3212	0	33448	32646	
3213	0	33032	32646	
3214	0	32888	32628	
3215	0	32944	32772	
3216	0	32972	32688	
3217	0	32832	32850	
3218	0	33004	32938	
3219	0	32986	32896	
3220	0	33034	32874	
3221	0	32900	32980	
3222	0	32672	32842	
3223	0	32460	32812	
3224	0	32686	32715	
3225	0	32872	32960	
3226	0	32800	33018	
3227	0	32706	32804	
3228	0	32448	32766	
3229	0	32136	32826	
3230	0	32604	32630	
3231	0	32996	32687	
3232	0	33110	32576	
3233	0	33324	32788	
3234	0	33656	32756	
3235	0	33248	32840	
3236	0	33192	32903	
3237	0	32856	32718	
3238	0	32644	32514	
3239	0	32492	32446	
3240	0	32420	32590	
3241	0	32392	32868	
3242	0	32276	32770	
3243	0	32192	32982	
3244	0	32504	32582	
3245	0	32912	32500	
3246	0	33188	32494	
3247	0	33394	32614	
3248	0	33172	32711	
3249	0	32918	32822	
3250	0	32896	33070	
3251	0	33010	32882	
3252	0	32890	33004	
3253	0	32750	32986	
3254	0	32772	33012	
3255	0	32584	33047	
3256	0	32804	33004	
3257	0	32864	33144	
3258	0	32838	33216	
3259	0	33084	32943	
3260	0	33096	32914	
3261	0	32934	32774	
3262	0	32684	32278	
3263	0	32630	32252	
3264	0	32604	32230	
3265	0	32534	32454	
3266	0	32466	32422	
3267	0	32750	32260	
3268	0	32750	32561	
3269	0	32920	32791	
3270	0	32884	32808	
3271	0	32768	32895	
3272	0	33022	32790	
3273	0	33152	32827	
3274	0	33128	32722	
3275	0	33240	32798	
3276	0	33002	32668	
3277	0	32544	32330	
3278	0	32498	32468	
3279	0	32516	32872	
3280	0	32544	33108	
3281	0	32840	33159	
3282	0	33004	32987	
3283	0	32804	33186	
3284	0	32802	33260	
3285	0	33220	33082	
3286	0	33066	32934	
3287	0	32774	32922	
3288	0	32780	32852	
3289	0	32494	32854	
3290	0	32232	32727	
3291	0	32374	32688	
3292	0	32552	32660	
3293	0	33014	32843	
3294	0	33264	32684	
3295	0	33552	32711	
3296	0	33344	32634	
3297	0	32802	32279	
3298	0	32424	32342	
3299	0	32138	32286	
3300	0	32276	31814	
3301	0	32608	31932	
3302	0	32876	32242	
3303	0	32988	32378	
3304	0	32838	32670	
3305	0	32848	33001	
3306	0	32998	33442	
3307	0	33056	33358	
3308	0	33124	33232	
3309	0	33122	33371	
3310	0	33172	33300	
3311	0	33176	33148	
3312	0	32828	32892	
3313	0	32600	32954	
3314	0	32680	32932	
3315	0	32778	32956	
3316	0	32708	32886	
3317	0	32752	32604	
3318	0	32444	32566	
3319	0	32656	32647	
3320	0	32802	32938	
3321	0	32744	32940	
3322	0	32708	32846	
3323	0	33120	32950	
3324	0	32918	32972	
3325	0	32518	32535	
3326	0	32616	32518	
3327	0	32596	32349	
3328	0	32760	32351	
3329	0	32932	32378	
3330	0	32836	32590	
3331	0	32860	32896	
3332	0	32784	32666	
3333	0	32816	32958	
3334	0	32712	32868	
3335	0	32712	32856	
3336	0	32840	32678	
3337	0	32864	32628	
3338	0	33058	32512	
3339	0	33082	32719	
3340	0	32936	32548	
3341	0	33132	32678	
3342	0	32884	32692	
3343	0	32724	32801	
3344	0	32652	32800	
3345	0	32536	32788	
3346	0	32452	32952	
3347	0	32698	32824	
3348	0	32662	32742	
3349	0	32624	32766	
3350	0	33108	32724	
3351	0	32940	32714	
3352	0	32752	32530	
3353	0	32868	32612	
3354	0	32911	32756	
3355	0	32768	33024	
3356	0	32904	32976	
3357	0	32980	33073	
3358	0	32932	32890	
3359	0	32852	32888	
3360	0	32820	32700	
3361	0	32970	32711	
3362	0	33016	32796	
3363	0	33172	32655	
3364	0	32956	32679	
3365	0	32760	32675	
3366	0	32572	32855	
3367	0	32360	33019	
3368	0	32312	32774	
3369	0	32548	32775	
3370	0	33084	32544	
3371	0	33164	32529	
3372	0	32974	32391	
3373	0	32984	32354	
3374	0	32764	32518	
3375	0	32716	32574	
3376	0	32648	32516	
3377	0	32874	33068	
3378	0	32928	33220	
3379	0	33182	33169	
3380	0	33292	33014	
3381	0	32836	32850	
3382	0	32241	32866	
3383	0	31812	32556	
3384	0	32100	32534	
3385	0	32664	32470	
3386	0	32506	32774	
3387	0	32836	32692	
3388	0	33220	32692	
3389	0	33242	32884	
3390	0	33012	33044	
3391	0	33122	33255	
3392	0	33198	33016	
3393	0	33062	32956	
3394	0	32796	32918	
3395	0	32752	33025	
3396	0	32658	32756	
3397	0	33216	32732	
3398	0	33168	32636	
3399	0	32792	32374	
3400	0	32428	32280	
3401	0	32352	32432	
3402	0	32668	32714	
3403	0	32784	32654	
3404	0	32855	32768	
3405	0	33012	32999	
3406	0	32872	33024	
3407	0	32748	33062	
3408	0	32800	32948	
3409	0	32840	32786	
3410	0	32876	32736	
3411	0	33116	32664	
3412	0	33022	32802	
3413	0	32836	32916	
3414	0	32544	32735	
3415	0	32528	32725	
3416	0	32500	32722	
3417	0	32584	32583	
3418	0	32812	32578	
3419	0	32880	32548	
3420	0	32804	32577	
3421	0	32906	32862	
3422	0	32900	32880	
3423	0	33004	32974	
3424	0	32996	32992	
3425	0	33008	32935	
3426	0	33036	32750	
3427	0	33106	32654	
3428	0	32796	32650	
3429	0	32444	32472	
3430	0	32468	32662	
3431	0	32618	32586	
3432	0	32388	32572	
3433	0	32624	32656	
3434	0	33040	32488	
3435	0	32936	32619	
3436	0	32724	32652	
3437	0	32756	32772	
3438	0	32796	32828	
3439	0	32856	32920	
3440	0	32924	33278	
3441	0	33036	33380	
3442	0	32900	33308	
3443	0	33048	33168	
3444	0	32970	33190	
3445	0	32940	32886	
3446	0	32782	32847	
3447	0	32848	32775	
3448	0	32728	32464	
3449	0	32644	32446	
3450	0	32842	32490	
3451	0	32888	32532	
3452	0	32694	32374	
3453	0	32914	32372	
3454	0	32548	32603	
3455	0	32644	32680	
3456	0	32820	32591	
3457	0	32418	32546	
3458	0	32280	32647	
3459	0	32446	32575	
3460	0	32588	32566	
3461	0	33080	32710	
3462	0	33288	32668	
3463	0	33028	32892	
3464	0	32856	32879	
3465	0	32942	32962	
3466	0	32836	32812	
3467	0	32928	33170	
3468	0	32914	33008	
3469	0	32980	32871	
3470	0	32926	32870	
3471	0	33084	32762	
3472	0	33136	32828	
3473	0	32894	32890	
3474	0	32748	32870	
3475	0	32725	32807	
3476	0	32688	32892	
3477	0	32828	32788	
3478	0	32884	32820	
3479	0	32730	32968	
3480	0	32614	32892	
3481	0	32784	32868	
3482	0	32756	32647	
3483	0	32952	32602	
3484	0	32894	32612	
3485	0	32808	32646	
3486	0	32780	32450	
3487	0	32709	32566	
3488	0	32712	32672	
3489	0	32632	32800	
3490	0	32600	32775	
3491	0	32698	32774	
3492	0	32758	32908	
3493	0	32768	32911	
3494	0	32804	32942	
3495	0	32837	32878	
3496	0	32880	32804	
3497	0	32784	32958	
3498	0	32736	32913	
3499	0	32996	32767	
3500	0	33084	32760	
3501	0	32936	32632	
3502	0	32836	32862	
3503	0	32784	32817	
3504	0	32702	32536	
3505	0	32662	32574	
3506	0	32760	32662	
3507	0	32800	32775	
3508	0	32718	32720	
3509	0	32760	32647	
3510	0	32728	32670	
3511	0	32760	32670	
3512	0	32936	32620	
3513	0	32954	32708	
3514	0	32816	32768	
3515	0	32760	32960	
3516	0	32782	32798	
3517	0	32932	32764	
3518	0	32854	32674	
3519	0	32880	32756	
3520	0	32848	32764	
3521	0	32792	32596	
3522	0	32824	32720	
3523	0	32918	32684	
3524	0	32962	32661	
3525	0	32844	32756	
3526	0	32740	32801	
3527	0	32756	32888	
3528	0	32756	32872	
3529	0	32746	32700	
3530	0	32768	32770	
3531	0	32872	32784	
3532	0	32810	32868	
3533	0	32792	32798	
3534	0	32860	32794	
3535	0	32844	32665	
3536	0	32832	32692	
3537	0	32748	32705	
3538	0	32764	32748	
3539	0	32772	32880	
3540	0	32842	32724	
3541	0	32908	32919	
3542	0	32898	32706	
3543	0	32884	32655	
3544	0	32896	32836	
3545	0	32840	32736	
3546	0	32768	32792	
3547	0	32804	32671	
3548	0	32644	32608	
3549	0	32378	32806	
3550	0	32276	32699	
3551	0	32544	32759	
3552	0	32766	32764	
3553	0	32884	32699	
3554	0	32716	32768	
3555	0	32856	32935	
3556	0	32924	32660	
3557	0	33038	32812	
3558	0	32913	32904	
3559	0	33032	32668	
3560	0	33188	32742	
3561	0	33104	32610	
3562	0	32864	32750	
3563	0	32670	32889	
3564	0	32632	32772	
3565	0	32598	32764	
3566	0	32708	32743	
3567	0	32628	32935	
3568	0	32728	32809	
3569	0	32892	32806	
3570	0	32836	32706	
3571	0	32888	32807	
3572	0	32914	32600	
3573	0	32916	32670	
3574	0	32816	32727	
3575	0	32802	32838	
3576	0	32912	32768	
3577	0	32764	32762	
3578	0	32780	32876	
3579	0	32838	32898	
3580	0	32872	32928	
3581	0	32974	32792	
3582	0	32940	32842	
3583	0	33002	32442	
3584	0	32840	32465	
3585	0	32764	32632	
3586	0	32707	32812	
3587	0	32572	33130	
3588	0	32572	33044	
3589	0	32460	33244	
3590	0	32442	33088	
3591	0	32608	32998	
3592	0	32736	32840	
3593	0	32822	32638	
3594	0	33060	32518	
3595	0	33124	32558	
3596	0	33120	32628	
3597	0	33180	32694	
3598	0	33092	32712	
3599	0	32960	32900	
3600	0	32544	32860	
3601	0	32664	32946	
3602	0	32716	32746	
3603	0	32501	32960	
3604	0	32794	32839	
3605	0	33004	32772	
3606	0	32738	32822	
3607	0	33120	32738	
3608	0	32864	32748	
3609	0	32840	32832	
3610	0	32740	32826	
3611	0	32706	32712	
3612	0	32572	32542	
3613	0	32458	32768	
3614	0	32454	32770	
3615	0	32514	32590	
3616	0	32604	32622	
3617	0	32716	32596	
3618	0	32790	32662	
3619	0	32890	32839	
3620	0	32954	32876	
3621	0	33060	32902	
3622	0	32976	32794	
3623	0	32853	32786	
3624	0	32906	32724	
3625	0	32880	32590	
3626	0	32816	32746	
3627	0	32864	32694	
3628	0	32762	32684	
3629	0	32748	32771	
3630	0	32770	32656	
3631	0	32820	32730	
3632	0	32762	32824	
3633	0	32828	32850	
3634	0	32852	32742	
3635	0	32804	32700	
3636	0	32768	32798	
3637	0	32760	32839	
3638	0	32832	32758	
3639	0	32808	32798	
3640	0	32856	32775	
3641	0	32732	32854	
3642	0	32752	32768	
3643	0	32772	32812	
3644	0	32752	32712	
3645	0	32804	32916	
3646	0	32856	32836	
3647	0	32882	32834	
3648	0	32828	32878	
3649	0	32878	32656	
3650	0	32868	32791	
3651	0	32916	32716	
3652	0	32800	32764	
3653	0	32808	32740	
3654	0	32836	32684	
3655	0	32820	32720	
3656	0	32764	32642	
3657	0	32752	32676	
3658	0	32804	32724	
3659	0	32820	32892	
3660	0	32810	32703	
3661	0	32968	32764	
3662	0	33016	32960	
3663	0	32970	32834	
3664	0	32960	32774	
3665	0	32884	32660	
3666	0	32804	32775	
3667	0	32828	32615	
3668	0	32740	32638	
3669	0	32796	32768	
3670	0	32836	32754	
3671	0	32852	32702	
3672	0	32816	32758	
3673	0	32812	32871	
3674	0	32808	32836	
3675	0	32726	32834	
3676	0	32790	32659	
3677	0	32756	32794	
3678	0	32856	32824	
3679	0	32928	32666	
3680	0	32810	32850	
3681	0	32810	32800	
3682	0	32812	32668	
3683	0	32792	32736	
3684	0	32746	32718	
3685	0	32724	32712	
3686	0	32844	32774	
3687	0	32932	32740	
3688	0	32911	32722	
3689	0	32810	32906	
3690	0	32776	32840	
3691	0	32848	32772	
3692	0	32825	32775	
3693	0	32826	32834	
3694	0	32706	32719	
3695	0	32928	32756	
3696	0	32904	32775	
3697	0	32830	32612	
3698	0	32708	32834	
3699	0	32734	32828	
3700	0	32696	32704	
3701	0	32706	32642	
3702	0	32718	32706	
3703	0	32844	32720	
3704	0	32826	32760	
3705	0	32846	32743	
3706	0	32856	32856	
3707	0	32876	32700	
3708	0	32884	32764	
3709	0	32924	32832	
3710	0	32916	32702	
3711	0	33028	32790	
3712	0	32920	32876	
3713	0	32872	32804	
3714	0	32776	32775	
3715	0	32786	32688	
3716	0	32792	32775	
3717	0	32820	32748	
3718	0	32864	32668	
3719	0	32810	32768	
3720	0	32780	32898	
3721	0	32790	32814	
3722	0	32888	32770	
3723	0	32864	32679	
3724	0	32872	32722	
3725	0	32836	32856	
3726	0	32828	32844	
3727	0	32852	32870	
3728	0	32930	32692	
3729	0	32852	32888	
3730	0	32752	32988	
3731	0	32872	32775	
3732	0	32660	32817	
3733	0	32716	32772	
3734	0	32640	32757	
3735	0	32724	32742	
3736	0	32722	32646	
3737	0	32806	32687	
3738	0	32938	32690	
3739	0	33076	32654	
3740	0	33056	32654	
3741	0	32944	32854	
3742	0	32718	32878	
3743	0	32832	32982	
3744	0	32728	33047	
3745	0	32774	33012	
3746	0	32700	33054	
3747	0	32732	32978	
3748	0	32858	32798	
3749	0	32830	32748	
3750	0	32776	32702	
3751	0	32800	32742	
3752	0	32876	32494	
3753	0	32864	32647	
3754	0	32764	32708	
3755	0	32746	32631	
3756	0	32768	32596	
3757	0	32840	32704	
3758	0	32742	32872	
3759	0	32758	32688	
3760	0	32862	32742	
3761	0	32772	32816	
3762	0	32760	32716	
3763	0	32772	32708	
3764	0	32884	32755	
3765	0	32820	32772	
3766	0	32792	32860	
3767	0	32796	32704	
3768	0	32784	32807	
3769	0	32670	32871	
3770	0	32638	32829	
3771	0	32648	32744	
3772	0	32754	32672	
3773	0	32764	32820	
3774	0	32784	32896	
3775	0	32868	32736	
3776	0	32948	32711	
3777	0	33031	32680	
3778	0	32862	32612	
3779	0	32902	32618	
3780	0	32876	32693	
3781	0	32768	32790	
3782	0	32792	32816	
3783	0	32674	32766	
3784	0	32632	32800	
3785	0	32732	32768	
3786	0	32754	32826	
3787	0	32888	32756	
3788	0	32860	32668	
3789	0	32816	32772	
3790	0	32684	32868	
3791	0	32620	32712	
3792	0	32682	32798	
3793	0	32756	32866	
3794	0	32860	32644	
3795	0	32920	32663	
3796	0	32860	32501	
3797	0	32868	32696	
3798	0	33014	32820	
3799	0	32932	32772	
3800	0	32712	32725	
3801	0	32644	32666	
3802	0	32532	32890	
3803	0	32744	32878	
3804	0	32828	32999	
3805	0	32846	33046	
3806	0	33008	32963	
3807	0	33044	32903	
3808	0	32948	32852	
3809	0	33022	32764	
3810	0	32916	32902	
3811	0	32942	33025	
3812	0	32860	33022	
3813	0	32804	32924	
3814	0	32932	32852	
3815	0	32934	32798	
3816	0	32852	32775	
3817	0	32820	32614	
3818	0	32902	32544	
3819	0	32872	32536	
3820	0	32886	32528	
3821	0	32872	32590	
3822	0	32826	32560	
3823	0	32876	32494	
3824	0	32936	32692	
3825	0	32924	32760	
3826	0	32856	32678	
3827	0	32880	32656	
3828	0	32864	32590	
3829	0	32816	32722	
3830	0	32826	32666	
3831	0	32830	32628	
3832	0	32760	32798	
3833	0	32860	32666	
3834	0	32894	32844	
3835	0	32828	32812	
3836	0	32806	32742	
3837	0	32722	32774	
3838	0	32632	32666	
3839	0	32704	32487	
3840	0	32808	32412	
3841	0	32864	32536	
3842	0	32736	32583	
3843	0	32606	32856	
3844	0	32552	33044	
3845	0	32670	33223	
3846	0	32678	33242	
3847	0	32736	32940	
3848	0	32892	33014	
3849	0	32886	33066	
3850	0	32996	32916	
3851	0	32884	32859	
3852	0	32856	32694	
3853	0	32760	32724	
3854	0	32836	32638	
3855	0	32856	32673	
3856	0	32926	32712	
3857	0	32924	32743	
3858	0	32804	32680	
3859	0	32768	32766	
3860	0	32721	32660	
3861	0	32660	32840	
3862	0	32660	32754	
3863	0	32668	32820	
3864	0	32716	32919	
3865	0	32772	32836	
3866	0	32820	32856	
3867	0	32824	32912	
3868	0	32812	32700	
3869	0	32756	32868	
3870	0	32712	32822	
3871	0	32806	32744	
3872	0	32904	32788	
3873	0	32816	32682	
3874	0	32940	32730	
3875	0	32904	32817	
3876	0	33012	32719	
3877	0	32928	32710	
3878	0	32798	32856	
3879	0	32686	32800	
3880	0	32596	32812	
3881	0	32732	32852	
3882	0	32720	32836	
3883	0	32732	32615	
3884	0	32808	32807	
3885	0	32792	32820	
3886	0	32772	32790	
3887	0	32776	32728	
3888	0	32678	32594	
3889	0	32744	32726	
3890	0	32788	32800	
3891	0	32796	32684	
3892	0	32808	32940	
3893	0	32818	32834	
3894	0	32808	32740	
3895	0	32852	32752	
3896	0	32872	32711	
3897	0	32748	32772	
3898	0	32794	32846	
3899	0	32920	32708	
3900	0	32828	32647	
3901	0	32876	32711	
3902	0	32924	32824	
3903	0	32822	32684	
3904	0	32848	32728	
3905	0	32780	32806	
3906	0	32836	32762	
3907	0	32806	32775	
3908	0	32761	32863	
3909	0	32856	32870	
3910	0	32868	32580	
3911	0	32812	32668	
3912	0	32800	32721	
3913	0	32872	32568	
3914	0	32922	32688	
3915	0	32892	32775	
3916	0	32814	32736	
3917	0	32878	32838	
3918	0	32912	32775	
3919	0	32754	32903	
3920	0	32804	32806	
3921	0	32868	32722	
3922	0	32798	32814	
3923	0	32764	32798	
3924	0	32780	32808	
3925	0	32896	32744	
3926	0	32800	32732	
3927	0	32864	32743	
3928	0	32806	32711	
3929	0	32788	32684	
3930	0	32820	32679	
3931	0	32868	32807	
3932	0	32904	32838	
3933	0	32830	32886	
3934	0	32832	32822	
3935	0	32788	32960	
3936	0	32800	32900	
3937	0	32740	32730	
3938	0	32774	32712	
3939	0	32888	32732	
3940	0	32852	32684	
3941	0	32858	32802	
3942	0	32828	32691	
3943	0	32700	32812	
3944	0	32700	32871	
3945	0	32736	32772	
3946	0	32750	32775	
3947	0	32798	32762	
3948	0	32732	32775	
3949	0	32818	32775	
3950	0	32868	32796	
3951	0	32868	32922	
3952	0	32900	32822	
3953	0	32840	32712	
3954	0	32824	32860	
3955	0	32780	32839	
3956	0	32816	32771	
3957	0	32928	32760	
3958	0	32932	32722	
3959	0	32920	32718	
3960	0	32858	32752	
3961	0	32880	32799	
3962	0	32892	32762	
3963	0	32776	32732	
3964	0	32694	32732	
3965	0	32680	32594	
3966	0	32644	32562	
3967	0	32722	32634	
3968	0	32844	32632	
3969	0	32916	32686	
3970	0	32924	32636	
3971	0	33012	32846	
3972	0	32856	32807	
3973	0	32808	32663	
3974	0	32732	32884	
3975	0	32720	32754	
3976	0	32834	32687	
3977	0	32788	32743	
3978	0	32776	32774	
3979	0	32624	32884	
3980	0	32768	32746	
3981	0	32864	32719	
3982	0	32776	32738	
3983	0	32752	32759	
3984	0	32788	32702	
3985	0	32798	32782	
3986	0	32736	32838	
3987	0	32812	32676	
3988	0	32786	32616	
3989	0	32836	32707	
3990	0	32802	32810	
3991	0	32830	32696	
3992	0	32800	32574	
3993	0	32784	32838	
3994	0	32894	32844	
3995	0	32922	32812	
3996	0	33048	32718	
3997	0	32928	32744	
3998	0	32800	32916	
3999	0	32826	32872	
4000	0	32792	32828	
4001	0	32840	32718	
4002	0	32736	32734	
4003	0	32634	32807	
4004	0	32638	32718	
4005	0	32740	32618	
4006	0	32728	32730	
4007	0	32792	32863	
4008	0	32774	32839	
4009	0	32868	32804	
4010	0	32816	32775	
4011	0	32708	32830	
4012	0	32746	32807	
4013	0	32744	32652	
4014	0	32868	32814	
4015	0	32844	32775	
4016	0	32822	32640	
4017	0	32676	32551	
4018	0	32748	32632	
4019	0	32774	32668	
4020	0	32880	32744	
4021	0	32816	32732	
4022	0	32844	32864	
4023	0	32824	32906	
4024	0	32868	32871	
4025	0	32868	32664	
4026	0	32746	32742	
4027	0	32796	32794	
4028	0	32810	32858	
4029	0	32700	32752	
4030	0	32868	32666	
4031	0	32908	32855	
4032	0	32884	32910	
4033	0	32828	32708	
4034	0	32884	32807	
4035	0	32736	32792	
4036	0	32780	32748	
4037	0	32854	32798	
4038	0	32816	32756	
4039	0	32822	32608	
4040	0	32808	32708	
4041	0	32704	32655	
4042	0	32664	32775	
4043	0	32848	32756	
4044	0	33008	32878	
4045	0	32924	32854	
4046	0	32752	32768	
4047	0	32784	32724	
4048	0	32742	32796	
4049	0	32908	32939	
4050	0	32832	32884	
4051	0	32876	32766	
4052	0	32825	32896	
4053	0	32756	32924	
4054	0	32826	32812	
4055	0	32778	32807	
4056	0	32716	32863	
4057	0	32732	32774	
4058	0	32884	32839	
4059	0	32792	32748	
4060	0	32732	32791	
4061	0	32790	32722	
4062	0	32804	32729	
4063	0	32804	32768	
4064	0	32888	32805	
4065	0	32810	32669	
4066	0	32836	32768	
4067	0	32856	32903	
4068	0	32872	32828	
4069	0	32912	32868	
4070	0	32862	32775	
4071	0	32856	32775	
4072	0	32798	32774	
4073	0	32732	32708	
4074	0	32888	32718	
4075	0	32879	32792	
4076	0	32888	32732	
4077	0	32780	32756	
4078	0	32696	32870	
4079	0	32800	32738	
4080	0	32888	32784	
4081	0	32789	32796	
4082	0	32928	32800	
4083	0	32912	32847	
4084	0	32854	32700	
4085	0	32794	32686	
4086	0	32676	32830	
4087	0	32577	32816	
4088	0	32556	32807	
4089	0	32566	32788	
4090	0	32668	32903	
4091	0	32696	32792	
4092	0	32804	32832	
4093	0	32892	32766	
4094	0	32922	32823	
4095	0	32912	32894	
4096	0	32848	32766	
4097	0	32802	32868	
4098	0	32856	32807	
4099	0	33010	32700	
4100	0	32800	32818	
4101	0	32784	32808	
4102	0	32810	32736	
4103	0	32852	32738	
4104	0	32788	32662	
4105	0	32792	32647	
4106	0	32704	32736	
4107	0	32684	32812	
4108	0	32660	32710	
4109	0	32708	32622	
4110	0	32868	32554	
4111	0	32856	32641	
4112	0	32844	32625	
4113	0	32840	32698	
4114	0	32782	32644	
4115	0	32854	32823	
4116	0	32932	32856	
4117	0	32916	32732	
4118	0	32812	32674	
4119	0	32810	32740	
4120	0	32800	32828	
4121	0	32744	32810	
4122	0	32776	32762	
4123	0	32764	32788	
4124	0	32840	32736	
4125	0	33062	32836	
4126	0	32988	32814	
4127	0	33010	32720	
4128	0	32946	32863	
4129	0	32860	32862	
4130	0	32800	32790	
4131	0	32886	32848	
4132	0	32810	32673	
4133	0	32788	32806	
4134	0	32868	32636	
4135	0	32824	32766	
4136	0	32868	32830	
4137	0	32824	32839	
4138	0	32828	32742	
4139	0	32872	32784	
4140	0	32872	32822	
4141	0	32880	32732	
4142	0	32824	32758	
4143	0	32730	32714	
4144	0	32814	32698	
4145	0	32832	32752	
4146	0	32744	32796	
4147	0	32848	32736	
4148	0	32876	32792	
4149	0	32856	32775	
4150	0	32884	32748	
4151	0	33052	32910	
4152	0	32902	32764	
4153	0	32828	32810	
4154	0	32836	32988	
4155	0	32898	32932	
4156	0	32848	32892	
4157	0	32856	32962	
4158	0	32778	32830	
4159	0	32710	32702	
4160	0	32782	32583	
4161	0	32724	32540	
4162	0	32616	32568	
4163	0	32694	32604	
4164	0	32720	32542	
4165	0	32784	32542	
4166	0	32638	32558	
4167	0	32664	32555	
4168	0	32612	32647	
4169	0	32734	32630	
4170	0	32734	32662	
4171	0	32688	32746	
4172	0	32838	32830	
4173	0	32868	32762	
4174	0	32928	32775	
4175	0	32888	32858	
4176	0	32832	32612	
4177	0	32840	32848	
4178	0	32916	32879	
4179	0	33008	32804	
4180	0	32960	32844	
4181	0	32960	32856	
4182	0	32934	32979	
4183	0	32944	32870	
4184	0	32938	32926	
4185	0	32904	32775	
4186	0	32690	32820	
4187	0	32656	32818	
4188	0	32676	32638	
4189	0	32686	32794	
4190	0	32782	32814	
4191	0	32864	32748	
4192	0	32824	32754	
4193	0	32942	32732	
4194	0	32848	32920	
4195	0	32792	32931	
4196	0	32720	32826	
4197	0	32880	32824	
4198	0	32868	32831	
4199	0	32808	32738	
4200	0	32792	32772	
4201	0	32772	32638	
4202	0	32808	32850	
4203	0	32844	32791	
4204	0	32842	32748	
4205	0	32784	32832	
4206	0	32818	32708	
4207	0	32784	32775	
4208	0	32776	32762	
4209	0	32812	32614	
4210	0	32804	32774	
4211	0	32908	32746	
4212	0	32808	32775	
4213	0	32814	32808	
4214	0	32812	32694	
4215	0	32911	32672	
4216	0	32900	32592	
4217	0	32832	32917	
4218	0	32703	32828	
4219	0	32816	32734	
4220	0	32836	32752	
4221	0	32820	32657	
4222	0	32748	32843	
4223	0	32768	32844	
4224	0	32784	32775	
4225	0	32782	32841	
4226	0	32714	32814	
4227	0	32768	32698	
4228	0	32752	32800	
4229	0	32744	32766	
4230	0	32724	32724	
4231	0	32760	32734	
4232	0	32736	32654	
4233	0	32744	32711	
4234	0	32808	32734	
4235	0	32868	32834	
4236	0	32882	32826	
4237	0	32788	32788	
4238	0	32916	32794	
4239	0	32998	32742	
4240	0	32976	32820	
4241	0	32900	32716	
4242	0	32870	32854	
4243	0	32788	32742	
4244	0	32782	32720	
4245	0	32744	32775	
4246	0	32716	32662	
4247	0	32719	32839	
4248	0	32772	32727	
4249	0	32706	32647	
4250	0	32736	32772	
4251	0	32884	32743	
4252	0	32896	32775	
4253	0	32852	32840	
4254	0	32828	32728	
4255	0	32834	32750	
4256	0	32844	32668	
4257	0	32790	32775	
4258	0	32784	32690	
4259	0	32800	32834	
4260	0	32730	32742	
4261	0	32742	32738	
4262	0	32774	32758	
4263	0	32820	32714	
4264	0	32820	32894	
4265	0	32836	32866	
4266	0	32844	32775	
4267	0	32808	32880	
4268	0	32772	32880	
4269	0	32842	32750	
4270	0	32858	32812	
4271	0	32836	32746	
4272	0	32840	32775	
4273	0	32924	32718	
4274	0	32848	32886	
4275	0	32890	32924	
4276	0	32826	32952	
4277	0	32701	32810	
4278	0	32608	32786	
4279	0	32620	32838	
4280	0	32650	32896	
4281	0	32632	32694	
4282	0	32664	32728	
4283	0	32846	32612	
4284	0	32892	32708	
4285	0	33080	32594	
4286	0	33050	32753	
4287	0	32992	32692	
4288	0	32996	32896	
4289	0	32976	32830	
4290	0	32740	32826	
4291	0	32604	32916	
4292	0	32566	32816	
4293	0	32532	32854	
4294	0	32578	32894	
4295	0	32662	32918	
4296	0	32666	32878	
4297	0	32768	32892	
4298	0	32876	32836	
4299	0	33028	32814	
4300	0	32948	32754	
4301	0	32990	32660	
4302	0	33000	32758	
4303	0	33002	32764	
4304	0	32938	32856	
4305	0	32888	32990	
4306	0	32884	32775	
4307	0	32860	32784	
4308	0	32822	32751	
4309	0	32820	32826	
4310	0	32876	32750	
4311	0	32808	32830	
4312	0	32810	32767	
4313	0	32822	32789	
4314	0	32820	32732	
4315	0	32880	32718	
4316	0	32788	32788	
4317	0	32804	32742	
4318	0	32772	32692	
4319	0	32748	32700	
4320	0	32760	32640	
4321	0	32842	32680	
4322	0	32762	32668	
4323	0	32844	32574	
4324	0	32840	32756	
4325	0	32840	32764	
4326	0	32788	32928	
4327	0	32810	33012	
4328	0	32850	33184	
4329	0	32792	33050	
4330	0	32836	33118	
4331	0	32794	32824	
4332	0	32806	32810	
4333	0	32908	32852	
4334	0	32868	32834	
4335	0	32884	32839	
4336	0	32784	32662	
4337	0	32726	32661	
4338	0	32664	32692	
4339	0	32732	32720	
4340	0	32720	32775	
4341	0	32706	32729	
4342	0	32756	32674	
4343	0	32808	32576	
4344	0	32880	32754	
4345	0	32976	32758	
4346	0	32944	32710	
4347	0	33084	32743	
4348	0	32992	32579	
4349	0	32762	32684	
4350	0	32712	32766	
4351	0	32698	32668	
4352	0	32758	32742	
4353	0	32736	32714	
4354	0	32684	32800	
4355	0	32692	32698	
4356	0	32744	32670	
4357	0	32746	32831	
4358	0	32796	32774	
4359	0	32876	32742	
4360	0	32908	32750	
4361	0	32996	32732	
4362	0	33096	32872	
4363	0	32920	32839	
4364	0	32900	32765	
4365	0	32756	32760	
4366	0	32682	32734	
4367	0	32650	32792	
4368	0	32704	32908	
4369	0	32752	32768	
4370	0	32754	32772	
4371	0	32832	32758	
4372	0	32804	32720	
4373	0	32812	32710	
4374	0	32840	32849	
4375	0	32830	32796	
4376	0	32858	32720	
4377	0	32822	32734	
4378	0	32900	32614	
4379	0	32808	32736	
4380	0	32822	32764	
4381	0	32900	32791	
4382	0	32944	32834	
4383	0	32868	32855	
4384	0	32776	32920	
4385	0	32846	32792	
4386	0	32840	32943	
4387	0	32766	32870	
4388	0	32724	32892	
4389	0	32624	32847	
4390	0	32754	32812	
4391	0	32736	32655	
4392	0	32768	32679	
4393	0	32768	32711	
4394	0	32844	32711	
4395	0	32846	32802	
4396	0	32836	32772	
4397	0	32884	32754	
4398	0	32868	32740	
4399	0	32858	32736	
4400	0	32800	32854	
4401	0	32812	32706	
4402	0	32816	32822	
4403	0	32744	32878	
4404	0	32736	32760	
4405	0	32742	32678	
4406	0	32786	32618	
4407	0	32792	32804	
4408	0	32860	32828	
4409	0	32900	33002	
4410	0	32878	32924	
4411	0	32684	32995	
4412	0	32684	32913	
4413	0	32740	32850	
4414	0	32838	32832	
4415	0	32818	32838	
4416	0	32962	32758	
4417	0	32870	32708	
4418	0	32848	32608	
4419	0	32840	32609	
4420	0	32796	32512	
4421	0	32884	32690	
4422	0	32798	32612	
4423	0	32712	32542	
4424	0	32688	32612	
4425	0	32794	32692	
4426	0	32884	32615	
4427	0	32884	32698	
4428	0	32898	32775	
4429	0	32840	32864	
4430	0	32896	32934	
4431	0	32886	32742	
4432	0	32776	32740	
4433	0	32716	32726	
4434	0	32720	32820	
4435	0	32666	32761	
4436	0	32748	32606	
4437	0	32828	32674	
4438	0	32814	32687	
4439	0	32720	32732	
4440	0	32766	32772	
4441	0	32760	32704	
4442	0	32712	32587	
4443	0	32752	32487	
4444	0	32912	32662	
4445	0	32774	32752	
4446	0	32837	32758	
4447	0	32842	32846	
4448	0	32816	32724	
4449	0	32800	32850	
4450	0	32886	32732	
4451	0	32960	32756	
4452	0	32940	32770	
4453	0	32932	32599	
4454	0	32868	32652	
4455	0	32688	32798	
4456	0	32732	32752	
4457	0	32716	32838	
4458	0	32700	32772	
4459	0	32728	32826	
4460	0	32820	32854	
4461	0	32928	32860	
4462	0	32928	32742	
4463	0	32868	32798	
4464	0	32960	32733	
4465	0	32884	32686	
4466	0	32746	32762	
4467	0	32844	32750	
4468	0	32846	32847	
4469	0	32784	32746	
4470	0	32748	32822	
4471	0	32744	32826	
4472	0	32628	32836	
4473	0	32800	32848	
4474	0	32838	32797	
4475	0	32754	32916	
4476	0	32754	32798	
4477	0	32910	32932	
4478	0	32872	32944	
4479	0	32904	32903	
4480	0	32812	32827	
4481	0	32746	32716	
4482	0	32784	32704	
4483	0	32834	32602	
4484	0	32974	32662	
4485	0	32836	32606	
4486	0	32852	32759	
4487	0	32716	32655	
4488	0	32668	32742	
4489	0	32584	32592	
4490	0	32660	32644	
4491	0	32694	32736	
4492	0	32688	32608	
4493	0	32768	32826	
4494	0	32736	32804	
4495	0	32768	32698	
4496	0	32920	32738	
4497	0	32858	32756	
4498	0	32788	32766	
4499	0	32824	32715	
4500	0	32820	32774	
4501	0	32836	32762	
4502	0	32868	32582	
4503	0	32896	32662	
4504	0	32964	32638	
4505	0	32885	32710	
4506	0	32922	32700	
4507	0	33024	32640	
4508	0	32862	32742	
4509	0	32708	32775	
4510	0	32716	32802	
4511	0	32728	32878	
4512	0	32666	32775	
4513	0	32686	32926	
4514	0	32756	32738	
4515	0	32810	32788	
4516	0	32814	32828	
4517	0	32832	32849	
4518	0	32924	32968	
4519	0	32820	32727	
4520	0	32748	32702	
4521	0	32840	32646	
4522	0	32932	32839	
4523	0	32804	32806	
4524	0	32700	32794	
4525	0	32732	32756	
4526	0	32730	32872	
4527	0	32788	32708	
4528	0	32804	32730	
4529	0	32752	32682	
4530	0	32724	32802	
4531	0	32836	32775	
4532	0	32810	32646	
4533	0	32760	32666	
4534	0	32760	32704	
4535	0	32822	32858	
4536	0	32688	32727	
4537	0	32728	32994	
4538	0	32932	32972	
4539	0	32876	32903	
4540	0	32876	33020	
4541	0	32862	32806	
4542	0	32836	32615	
4543	0	32874	32766	
4544	0	32697	32822	
4545	0	32686	32822	
4546	0	32740	32742	
4547	0	32712	32596	
4548	0	32830	32740	
4549	0	32850	32680	
4550	0	32972	32735	
4551	0	32927	32798	
4552	0	32890	32820	
4553	0	32816	32775	
4554	0	32872	32839	
4555	0	32854	32874	
4556	0	32848	32692	
4557	0	32764	32752	
4558	0	32780	32654	
4559	0	32804	32722	
4560	0	32808	32810	
4561	0	32748	32810	
4562	0	32892	32711	
4563	0	32786	32711	
4564	0	32840	32775	
4565	0	32846	32672	
4566	0	32800	32726	
4567	0	32788	32682	
4568	0	32786	32822	
4569	0	32728	32756	
4570	0	32664	32734	
4571	0	32664	32772	
4572	0	32710	32858	
4573	0	32764	32978	
4574	0	32856	32798	
4575	0	32850	32751	
4576	0	32880	32738	
4577	0	32890	32693	
4578	0	32880	32650	
4579	0	32884	32771	
4580	0	32838	32790	
4581	0	32896	32752	
4582	0	32853	32788	
4583	0	32844	32750	
4584	0	32804	32720	
4585	0	32732	32802	
4586	0	32853	32716	
4587	0	32812	32775	
4588	0	32836	32784	
4589	0	32836	32844	
4590	0	32810	32680	
4591	0	32908	32814	
4592	0	32895	32884	
4593	0	32800	32572	
4594	0	32780	32830	
4595	0	32748	32764	
4596	0	32748	32634	
4597	0	32760	32742	
4598	0	32820	32876	
4599	0	32856	32810	
4600	0	32840	32786	
4601	0	32874	32712	
4602	0	32840	32814	
4603	0	32888	32698	
4604	0	32912	32708	
4605	0	32878	32772	
4606	0	32876	32693	
4607	0	32864	32736	
4608	0	32848	32903	
4609	0	32912	32788	
4610	0	32842	32692	
4611	0	32784	32775	
4612	0	32812	32802	
4613	0	32788	32707	
4614	0	32732	32839	
4615	0	32720	32870	
4616	0	32804	32770	
4617	0	32848	32726	
4618	0	32796	32711	
4619	0	32708	32719	
4620	0	32700	32820	
4621	0	32694	32662	
4622	0	32730	32846	
4623	0	32676	32775	
4624	0	32740	32754	
4625	0	32732	32810	
4626	0	32734	32704	
4627	0	32828	32884	
4628	0	32852	32919	
4629	0	32868	32687	
4630	0	32920	32770	
4631	0	32996	32724	
4632	0	33026	32812	
4633	0	32948	32823	
4634	0	32906	32696	
4635	0	32828	32798	
4636	0	32812	32774	
4637	0	32640	32700	
4638	0	32600	32670	
4639	0	32716	32661	
4640	0	32684	32790	
4641	0	32648	32807	
4642	0	32728	32830	
4643	0	32608	32692	
4644	0	32720	32708	
4645	0	32792	32762	
4646	0	32876	32908	
4647	0	32924	32678	
4648	0	32976	32852	
4649	0	32912	32822	
4650	0	32942	32712	
4651	0	32849	32684	
4652	0	32858	32760	
4653	0	32874	32732	
4654	0	32932	32790	
4655	0	32836	32734	
4656	0	32848	32824	
4657	0	32912	32810	
4658	0	32768	32775	
4659	0	32764	32810	
4660	0	32776	32700	
4661	0	32802	32775	
4662	0	32852	32774	
4663	0	32820	32694	
4664	0	32836	32694	
4665	0	32796	32743	
4666	0	32766	32702	
4667	0	32774	32768	
4668	0	32852	32704	
4669	0	32778	32762	
4670	0	32832	32732	
4671	0	32842	32688	
4672	0	32868	32770	
4673	0	32908	32756	
4674	0	32908	32670	
4675	0	32846	32771	
4676	0	32844	32806	
4677	0	32762	32903	
4678	0	32776	33008	
4679	0	32790	32938	
4680	0	32732	32848	
4681	0	32764	32648	
4682	0	32784	32687	
4683	0	32764	32820	
4684	0	32808	32791	
4685	0	32720	32728	
4686	0	32656	32668	
4687	0	32796	32694	
4688	0	32746	32702	
4689	0	32852	32846	
4690	0	32836	32748	
4691	0	32819	32572	
4692	0	32768	32796	
4693	0	32880	32856	
4694	0	32828	32684	
4695	0	32884	32762	
4696	0	32862	32840	
4697	0	32828	32682	
4698	0	32864	32812	
4699	0	32904	32719	
4700	0	32816	32812	
4701	0	32828	32796	
4702	0	32730	32718	
4703	0	32740	32818	
4704	0	32824	32750	
4705	0	32796	32848	
4706	0	32856	32796	
4707	0	32748	32770	
4708	0	32812	32758	
4709	0	32856	32720	
4710	0	32868	32807	
4711	0	32784	32876	
4712	0	32788	32678	
4713	0	32806	32732	
4714	0	32864	32687	
4715	0	32800	32768	
4716	0	32780	32804	
4717	0	32842	32654	
4718	0	32784	32854	
4719	0	32824	32746	
4720	0	32804	32849	
4721	0	32724	32775	
4722	0	32864	32807	
4723	0	32804	32796	
4724	0	32828	32746	
4725	0	32820	32774	
4726	0	32844	32742	
4727	0	32816	32868	
4728	0	32892	32816	
4729	0	32796	32734	
4730	0	32816	32762	
4731	0	32824	32682	
4732	0	32760	32686	
4733	0	32844	32819	
4734	0	32798	32775	
4735	0	32786	32856	
4736	0	32876	32676	
4737	0	32912	32674	
4738	0	32818	32791	
4739	0	32832	32839	
4740	0	32704	32788	
4741	0	32592	32646	
4742	0	32696	32775	
4743	0	32736	32706	
4744	0	32820	32775	
4745	0	32858	32770	
4746	0	32798	32732	
4747	0	32933	32826	
4748	0	32876	32832	
4749	0	32900	32792	
4750	0	32870	32746	
4751	0	32848	32682	
4752	0	32800	32775	
4753	0	32810	32655	
4754	0	32816	32724	
4755	0	32840	32796	
4756	0	32860	32670	
4757	0	32892	32758	
4758	0	32816	32842	
4759	0	32820	32718	
4760	0	32840	32788	
4761	0	32840	32714	
4762	0	32846	32850	
4763	0	32900	32852	
4764	0	32845	32694	
4765	0	32792	32839	
4766	0	32872	32766	
4767	0	32834	32741	
4768	0	32886	32794	
4769	0	32876	32802	
4770	0	32880	32774	
4771	0	32712	32696	
4772	0	32676	32764	
4773	0	32676	32692	
4774	0	32564	32836	
4775	0	32632	32767	
4776	0	32660	32762	
4777	0	32672	32770	
4778	0	32772	32824	
4779	0	32868	32799	
4780	0	32880	32792	
4781	0	32904	32815	
4782	0	32856	32834	
4783	0	32836	32804	
4784	0	32908	32766	
4785	0	32830	32678	
4786	0	32836	32884	
4787	0	32847	32814	
4788	0	32816	32672	
4789	0	32776	32775	
4790	0	32812	32710	
4791	0	32828	32788	
4792	0	32786	32816	
4793	0	32912	32660	
4794	0	32880	32767	
4795	0	32836	32754	
4796	0	32896	32743	
4797	0	32940	32708	
4798	0	32834	32826	
4799	0	32820	32775	
4800	0	32860	32870	
4801	0	32692	32826	
4802	0	32810	32838	
4803	0	32716	32758	
4804	0	32768	32718	
4805	0	32808	32788	
4806	0	32852	32836	
4807	0	32836	32743	
4808	0	32756	32768	
4809	0	32792	32796	
4810	0	32798	32864	
4811	0	32836	32775	
4812	0	32854	32847	
4813	0	32864	32870	
4814	0	32832	32766	
4815	0	32860	32768	
4816	0	32808	32718	
4817	0	32834	32764	
4818	0	32916	32712	
4819	0	32798	32756	
4820	0	32806	32670	
4821	0	32868	32756	
4822	0	32916	32726	
4823	0	32796	32828	
4824	0	32716	32714	
4825	0	32816	32899	
4826	0	32895	32898	
4827	0	32826	32980	
4828	0	32908	32916	
4829	0	32812	32748	
4830	0	32968	32880	
4831	0	32992	32822	
4832	0	32878	32794	
4833	0	32792	32738	
4834	0	32808	32698	
4835	0	32772	32672	
4836	0	32660	32679	
4837	0	32560	32500	
4838	0	32488	32568	
4839	0	32572	32496	
4840	0	32580	32614	
4841	0	32612	32500	
4842	0	32692	32628	
4843	0	32774	32593	
4844	0	32768	32639	
4845	0	32852	32678	
4846	0	32864	32676	
4847	0	32888	32796	
4848	0	32912	32916	
4849	0	32869	32846	
4850	0	32924	32670	
4851	0	32838	32774	
4852	0	32804	32716	
4853	0	32808	32879	
4854	0	32774	32862	
4855	0	32788	32956	
4856	0	32856	32874	
4857	0	32888	32992	
4858	0	32964	32976	
4859	0	32902	32822	
4860	0	32872	32912	
4861	0	32887	32884	
4862	0	32884	32948	
4863	0	32890	32824	
4864	0	32936	32904	
4865	0	32900	32963	
4866	0	32922	33006	
4867	0	32952	32934	
4868	0	32840	32902	
4869	0	32812	32951	
4870	0	32912	32732	
4871	0	32762	32726	
4872	0	32832	32679	
4873	0	32780	32846	
4874	0	32828	32693	
4875	0	32780	32727	
4876	0	32896	32647	
4877	0	32900	32686	
4878	0	32802	32634	
4879	0	32724	32710	
4880	0	32864	32674	
4881	0	32728	32818	
4882	0	32736	32646	
4883	0	32788	32686	
4884	0	32824	32662	
4885	0	32828	32748	
4886	0	32756	32679	
4887	0	32816	32772	
4888	0	32772	32644	
4889	0	32780	32700	
4890	0	32828	32740	
4891	0	32732	32774	
4892	0	32778	32720	
4893	0	32812	32818	
4894	0	32728	32615	
4895	0	32816	32727	
4896	0	32854	32658	
4897	0	32862	32704	
4898	0	32896	32756	
4899	0	32844	32752	
4900	0	32789	32668	
4901	0	32834	32820	
4902	0	32842	32832	
4903	0	32864	32846	
4904	0	32794	32743	
4905	0	32784	32796	
4906	0	32826	32712	
4907	0	32902	32753	
4908	0	32860	32666	
4909	0	32828	32788	
4910	0	32860	32743	
4911	0	32782	32820	
4912	0	32770	32676	
4913	0	32704	32848	
4914	0	32816	32811	
4915	0	32720	32832	
4916	0	32730	32769	
4917	0	32796	32704	
4918	0	32844	32812	
4919	0	32842	32678	
4920	0	32784	32724	
4921	0	32808	32742	
4922	0	32860	32881	
4923	0	32852	32823	
4924	0	32832	32732	
4925	0	32832	32775	
4926	0	32842	32775	
4927	0	32808	32759	
4928	0	32774	32688	
4929	0	32790	32762	
4930	0	32784	32740	
4931	0	32792	32750	
4932	0	32792	32770	
4933	0	32798	32761	
4934	0	32744	32791	
4935	0	32824	32700	
4936	0	32817	32827	
4937	0	32821	32714	
4938	0	32908	32775	
4939	0	32846	32698	
4940	0	32808	32814	
4941	0	32834	32732	
4942	0	32876	32839	
4943	0	32808	32818	
4944	0	32704	32624	
4945	0	32740	32801	
4946	0	32700	32718	
4947	0	32752	32748	
4948	0	32720	32711	
4949	0	32796	32759	
4950	0	32760	32675	
4951	0	32800	32724	
4952	0	32792	32794	
4953	0	32788	32826	
4954	0	32760	32712	
4955	0	32776	32807	
4956	0	32848	32807	
4957	0	32770	32752	
4958	0	32826	32854	
4959	0	32778	32808	
4960	0	32800	32838	
4961	0	32902	32770	
4962	0	32884	32756	
4963	0	32945	32719	
4964	0	32858	32737	
4965	0	32800	32712	
4966	0	32816	32775	
4967	0	32778	32726	
4968	0	32792	32870	
4969	0	32792	32758	
4970	0	32792	32628	
4971	0	32816	32792	
4972	0	32852	32688	
4973	0	32780	32810	
4974	0	32872	32736	
4975	0	32822	32732	
4976	0	32852	32744	
4977	0	32812	32678	
4978	0	32782	32724	
4979	0	32754	32797	
4980	0	32824	32834	
4981	0	32764	32828	
4982	0	32761	32684	
4983	0	32784	32764	
4984	0	32798	32744	
4985	0	32878	32722	
4986	0	32868	32754	
4987	0	32848	32704	
4988	0	32840	32775	
4989	0	32808	32804	
4990	0	32834	32775	
4991	0	32832	32774	
4992	0	32780	32718	
4993	0	32844	32760	
4994	0	32840	32704	
4995	0	32800	32814	
4996	0	32798	32647	
4997	0	32778	32834	
4998	0	32782	32775	
4999	0	32768	32682	
5000	0	32788	32802	
5001	0	32804	32706	
5002	0	32808	32868	
5003	0	32756	32852	
5004	0	32808	32806	
5005	0	32760	32856	
5006	0	32840	32728	
5007	0	32836	32815	
5008	0	32880	32656	
5009	0	32916	32818	
5010	0	32804	32730	
5011	0	32789	32710	
5012	0	32768	32748	
5013	0	32800	32766	
5014	0	32740	32808	
5015	0	32800	32748	
5016	0	32864	32690	
5017	0	32872	32794	
5018	0	32840	32826	
5019	0	32804	32775	
5020	0	32750	32732	
5021	0	32724	32752	
5022	0	32796	32794	
5023	0	32808	32696	
5024	0	32838	32839	
5025	0	32778	32796	
5026	0	32876	32804	
5027	0	32864	32730	
5028	0	32868	32775	
5029	0	33000	32743	
5030	0	32898	32674	
5031	0	32812	32746	
5032	0	32780	32792	
5033	0	32700	32762	
5034	0	32628	32888	
5035	0	32700	32606	
5036	0	32736	32839	
5037	0	32792	32750	
5038	0	32756	32670	
5039	0	32768	32838	
5040	0	32764	32863	
5041	0	32772	32672	
5042	0	32870	32865	
5043	0	32842	32871	
5044	0	32874	32680	
5045	0	32832	32790	
5046	0	32876	32820	
5047	0	32864	32724	
5048	0	32856	32734	
5049	0	32836	32834	
5050	0	32838	32694	
5051	0	32804	32772	
5052	0	32814	32676	
5053	0	32782	32834	
5054	0	32796	32709	
5055	0	32806	32844	
5056	0	32848	32742	
5057	0	32788	32734	
5058	0	32804	32662	
5059	0	32872	32735	
5060	0	32884	32806	
5061	0	32846	32712	
5062	0	32816	32862	
5063	0	32756	32772	
5064	0	32808	32794	
5065	0	32760	32786	
5066	0	32766	32698	
5067	0	32796	32840	
5068	0	32728	32772	
5069	0	32750	32738	
5070	0	32768	32790	
5071	0	32780	32806	
5072	0	32788	32818	
5073	0	32748	32774	
5074	0	32840	32734	
5075	0	32764	32786	
5076	0	32808	32832	
5077	0	32806	32708	
5078	0	32886	32852	
5079	0	32914	32828	
5080	0	32924	32639	
5081	0	32808	32786	
5082	0	32886	32802	
5083	0	32794	32718	
5084	0	32774	32769	
5085	0	32820	32772	
5086	0	32800	32679	
5087	0	32776	32775	
5088	0	32840	32864	
5089	0	32812	32716	
5090	0	32768	32818	
5091	0	32792	32664	
5092	0	32834	32880	
5093	0	32862	32820	
5094	0	32834	32748	
5095	0	32828	32790	
5096	0	32822	32742	
5097	0	32802	32684	
5098	0	32708	32756	
5099	0	32680	32767	
5100	0	32828	32743	
5101	0	32764	32718	
5102	0	32782	32734	
5103	0	32828	32860	
5104	0	32772	32884	
5105	0	32736	32768	
5106	0	32758	32772	
5107	0	32778	32890	
5108	0	32840	32768	
5109	0	32884	32758	
5110	0	32826	32718	
5111	0	32854	32743	
5112	0	32866	32854	
5113	0	32872	32688	
5114	0	32798	32708	
5115	0	32877	32744	
5116	0	32858	32860	
5117	0	32764	32864	
5118	0	32832	32678	
5119	0	32872	32828	
5120	0	32772	32724	
5121	0	32778	32702	
5122	0	32884	32634	
5123	0	32832	32800	
5124	0	32832	32690	
5125	0	32792	32864	
5126	0	32750	32858	
5127	0	32824	32788	
5128	0	32864	32792	
5129	0	32764	32692	
5130	0	32764	32805	
5131	0	32858	32743	
5132	0	32752	32802	
5133	0	32794	32838	
5134	0	32864	32820	
5135	0	32824	32808	
5136	0	32792	32799	
5137	0	32834	32807	
5138	0	32792	32700	
5139	0	32836	32804	
5140	0	32784	32730	
5141	0	32792	32773	
5142	0	32824	32732	
5143	0	32744	32816	
5144	0	32864	32859	
5145	0	32768	32756	
5146	0	32820	32775	
5147	0	32736	32740	
5148	0	32810	32770	
5149	0	32764	32688	
5150	0	32804	32798	
5151	0	32770	32736	
5152	0	32856	32732	
5153	0	32840	32738	
5154	0	32836	32799	
5155	0	32812	32732	
5156	0	32816	32672	
5157	0	32784	32774	
5158	0	32860	32742	
5159	0	32852	32810	
5160	0	32936	32846	
5161	0	32904	32754	
5162	0	32896	32772	
5163	0	32864	32743	
5164	0	32810	32774	
5165	0	32776	32696	
5166	0	32840	32870	
5167	0	32840	32853	
5168	0	32740	32722	
5169	0	32768	32775	
5170	0	32736	32666	
5171	0	32800	32820	
5172	0	32796	32882	
5173	0	32756	32772	
5174	0	32784	32868	
5175	0	32816	32628	
5176	0	32788	32730	
5177	0	32888	32724	
5178	0	32806	32815	
5179	0	32820	32736	
5180	0	32768	32728	
5181	0	32806	32736	
5182	0	32844	32738	
5183	0	32824	32838	
5184	0	32866	32812	
5185	0	32880	32732	
5186	0	32860	32806	
5187	0	32812	32715	
5188	0	32824	32650	
5189	0	32812	32816	
5190	0	32764	32680	
5191	0	32828	32855	
5192	0	32854	32770	
5193	0	32832	32734	
5194	0	32804	32755	
5195	0	32772	32798	
5196	0	32820	32722	
5197	0	32816	32727	
5198	0	32846	32679	
5199	0	32776	32770	
5200	0	32812	32852	
5201	0	32802	32800	
5202	0	32866	32804	
5203	0	32808	32700	
5204	0	32764	32790	
5205	0	32802	32764	
5206	0	32816	32754	
5207	0	32790	32688	
5208	0	32880	32913	
5209	0	32788	32870	
5210	0	32841	32796	
5211	0	32768	32764	
5212	0	32817	32680	
5213	0	32772	32816	
5214	0	32760	32848	
5215	0	32760	32746	
5216	0	32868	32722	
5217	0	32782	32726	
5218	0	32744	32794	
5219	0	32798	32714	
5220	0	32810	32792	
5221	0	32760	32788	
5222	0	32742	32720	
5223	0	32862	32812	
5224	0	32808	32840	
5225	0	32862	32743	
5226	0	32884	32800	
5227	0	32842	32774	
5228	0	32782	32767	
5229	0	32740	32766	
5230	0	32820	32654	
5231	0	32800	32860	
5232	0	32774	32762	
5233	0	32796	32824	
5234	0	32762	32866	
5235	0	32840	32646	
5236	0	32870	32820	
5237	0	32798	32760	
5238	0	32764	32756	
5239	0	32832	32674	
5240	0	32752	32724	
5241	0	32704	32718	
5242	0	32800	32812	
5243	0	32816	32838	
5244	0	32828	32706	
5245	0	32856	32697	
5246	0	32808	32822	
5247	0	32814	32806	
5248	0	32796	32726	
5249	0	32812	32647	
5250	0	32840	32820	
5251	0	32842	32804	
5252	0	32812	32750	
5253	0	32836	32824	
5254	0	32754	32822	
5255	0	32800	32684	
5256	0	32804	32812	
5257	0	32814	32699	
5258	0	32812	32718	
5259	0	32792	32770	
5260	0	32790	32720	
5261	0	32794	32775	
5262	0	32824	32830	
5263	0	32896	32679	
5264	0	32836	32692	
5265	0	32872	32690	
5266	0	32836	32800	
5267	0	32816	32775	
5268	0	32846	32682	
5269	0	32808	32814	
5270	0	32768	32754	
5271	0	32862	32788	
5272	0	32876	32760	
5273	0	32826	32625	
5274	0	32816	32760	
5275	0	32828	32788	
5276	0	32788	32812	
5277	0	32820	32714	
5278	0	32804	32692	
5279	0	32806	32852	
5280	0	32786	32882	
5281	0	32740	32694	
5282	0	32756	32744	
5283	0	32746	32775	
5284	0	32752	32832	
5285	0	32736	32796	
5286	0	32876	32746	
5287	0	32808	32711	
5288	0	32872	32888	
5289	0	32880	32766	
5290	0	32886	32702	
5291	0	32834	32734	
5292	0	32832	32838	
5293	0	32792	32807	
5294	0	32824	32686	
5295	0	32764	32723	
5296	0	32828	32828	
5297	0	32744	32722	
5298	0	32816	32764	
5299	0	32800	32724	
5300	0	32814	32828	
5301	0	32752	32846	
5302	0	32894	32714	
5303	0	32806	32754	
5304	0	32876	32816	
5305	0	32862	32766	
5306	0	32836	32758	
5307	0	32814	32734	
5308	0	32784	32708	
5309	0	32813	32826	
5310	0	32832	32668	
5311	0	32860	32775	
5312	0	32820	32840	
5313	0	32780	32768	
5314	0	32784	32900	
5315	0	32720	32844	
5316	0	32840	32654	
5317	0	32812	32757	
5318	0	32772	32754	
5319	0	32776	32738	
5320	0	32858	32790	
5321	0	32800	32820	
5322	0	32896	32772	
5323	0	32836	32868	
5324	0	32872	32764	
5325	0	32804	32738	
5326	0	32808	32748	
5327	0	32788	32808	
5328	0	32830	32718	
5329	0	32780	32734	
5330	0	32880	32753	
5331	0	32824	32743	
5332	0	32816	32748	
5333	0	32772	32713	
5334	0	32784	32810	
5335	0	32810	32712	
5336	0	32804	32808	
5337	0	32808	32775	
5338	0	32808	32710	
5339	0	32800	32775	
5340	0	32826	32844	
5341	0	32744	32720	
5342	0	32752	32812	
5343	0	32816	32774	
5344	0	32900	32718	
5345	0	32856	32775	
5346	0	32844	32771	
5347	0	32840	32612	
5348	0	32832	32774	
5349	0	32848	32806	
5350	0	32804	32775	
5351	0	32800	32791	
5352	0	32770	32750	
5353	0	32776	32817	
5354	0	32752	32852	
5355	0	32868	32732	
5356	0	32852	32756	
5357	0	32804	32885	
5358	0	32864	32688	
5359	0	32834	32868	
5360	0	32872	32775	
5361	0	32806	32679	
5362	0	32802	32807	
5363	0	32832	32871	
5364	0	32756	32743	
5365	0	32772	32830	
5366	0	32828	32706	
5367	0	32816	32807	
5368	0	32884	32802	
5369	0	32888	32752	
5370	0	32874	32801	
5371	0	32826	32746	
5372	0	32876	32838	
5373	0	32788	32697	
5374	0	32816	32684	
5375	0	32860	32775	
5376	0	32820	32855	
5377	0	32880	32772	
5378	0	32812	32788	
5379	0	32860	32694	
5380	0	32804	32796	
5381	0	32730	32775	
5382	0	32788	32784	
5383	0	32738	32754	
5384	0	32800	32679	
5385	0	32840	32788	
5386	0	32834	32748	
5387	0	32752	32828	
5388	0	32866	32910	
5389	0	32820	32710	
5390	0	32828	32792	
5391	0	32778	32704	
5392	0	32814	32764	
5393	0	32748	32775	
5394	0	32706	32647	
5395	0	32832	32775	
5396	0	32764	32648	
5397	0	32768	32775	
5398	0	32824	32794	
5399	0	32754	32744	
5400	0	32792	32747	
5401	0	32802	32748	
5402	0	32814	32802	
5403	0	32852	32647	
5404	0	32852	32730	
5405	0	32872	32756	
5406	0	32800	32832	
5407	0	32846	32732	
5408	0	32874	32846	
5409	0	32834	32682	
5410	0	32834	32768	
5411	0	32782	32655	
5412	0	32814	32762	
5413	0	32838	32732	
5414	0	32816	32830	
5415	0	32858	32728	
5416	0	32902	32788	
5417	0	32900	32774	
5418	0	32828	32804	
5419	0	32808	32732	
5420	0	32812	32808	
5421	0	32754	32766	
5422	0	32840	32735	
5423	0	32796	32728	
5424	0	32788	32774	
5425	0	32744	32886	
5426	0	32848	32775	
5427	0	32832	32656	
5428	0	32784	32870	
5429	0	32800	32808	
5430	0	32825	32756	
5431	0	32812	32798	
5432	0	32786	32775	
5433	0	32834	32702	
5434	0	32842	32784	
5435	0	32796	32664	
5436	0	32784	32772	
5437	0	32804	32748	
5438	0	32792	32807	
5439	0	32798	32820	
5440	0	32802	32628	
5441	0	32808	32775	
5442	0	32884	32820	
5443	0	32880	32748	
5444	0	32836	32775	
5445	0	32732	32807	
5446	0	32800	32722	
5447	0	32774	32748	
5448	0	32772	32688	
5449	0	32850	32775	
5450	0	32746	32775	
5451	0	32792	32808	
5452	0	32850	32806	
5453	0	32834	32756	
5454	0	32788	32736	
5455	0	32798	32650	
5456	0	32794	32729	
5457	0	32814	32666	
5458	0	32826	32724	
5459	0	32866	32839	
5460	0	32854	32742	
5461	0	32792	32788	
5462	0	32778	32738	
5463	0	32816	32826	
5464	0	32744	32839	
5465	0	32820	32674	
5466	0	32806	32754	
5467	0	32768	32868	
5468	0	32722	32708	
5469	0	32852	32830	
5470	0	32816	32660	
5471	0	32762	32834	
5472	0	32872	32752	
5473	0	32804	32732	
5474	0	32836	32772	
5475	0	32808	32754	
5476	0	32844	32788	
5477	0	32804	32706	
5478	0	32862	32758	
5479	0	32836	32871	
5480	0	32796	32790	
5481	0	32794	32775	
5482	0	32832	32768	
5483	0	32880	32711	
5484	0	32864	32890	
5485	0	32834	32823	
5486	0	32854	32750	
5487	0	32880	32775	
5488	0	32864	32740	
5489	0	32770	32800	
5490	0	32828	32762	
5491	0	32806	32700	
5492	0	32766	32850	
5493	0	32800	32775	
5494	0	32720	32700	
5495	0	32740	32744	
5496	0	32812	32724	
5497	0	32752	32768	
5498	0	32800	32764	
5499	0	32820	32662	
5500	0	32888	32866	
5501	0	32818	32918	
5502	0	32868	32764	
5503	0	32852	32884	
5504	0	32912	32926	
5505	0	32868	32886	
5506	0	32884	32908	
5507	0	32844	32766	
5508	0	32866	32920	
5509	0	32892	32774	
5510	0	32884	32788	
5511	0	32788	32721	
5512	0	32792	32506	
5513	0	32692	32508	
5514	0	32718	32574	
5515	0	32718	32472	
5516	0	32728	32548	
5517	0	32660	32468	
5518	0	32672	32484	
5519	0	32684	32480	
5520	0	32716	32696	
5521	0	32780	32684	
5522	0	32766	32748	
5523	0	32842	32775	
5524	0	32834	32890	
5525	0	32762	32834	
5526	0	32740	32810	
5527	0	32756	32855	
5528	0	32726	32752	
5529	0	32840	32816	
5530	0	32812	32844	
5531	0	32820	32954	
5532	0	32888	32823	
5533	0	32968	32924	
5534	0	32828	32898	
5535	0	32912	32884	
5536	0	32808	32774	
5537	0	32820	32980	
5538	0	32848	32764	
5539	0	32884	32844	
5540	0	32938	32852	
5541	0	32886	32890	
5542	0	32928	32912	
5543	0	32832	32903	
5544	0	32830	32682	
5545	0	32884	32846	
5546	0	32894	32712	
5547	0	32818	32914	
5548	0	32812	32812	
5549	0	32734	32674	
5550	0	32784	32752	
5551	0	32868	32660	
5552	0	32788	32775	
5553	0	32884	32766	
5554	0	32741	32679	
5555	0	32796	32730	
5556	0	32790	32610	
5557	0	32798	32692	
5558	0	32728	32679	
5559	0	32800	32740	
5560	0	32824	32679	
5561	0	32796	32731	
5562	0	32860	32639	
5563	0	32792	32818	
5564	0	32782	32724	
5565	0	32808	32796	
5566	0	32768	32711	
5567	0	32792	32888	
5568	0	32818	32879	
5569	0	32834	32748	
5570	0	32822	32802	
5571	0	32836	32732	
5572	0	32752	32822	
5573	0	32886	32662	
5574	0	32848	32766	
5575	0	32928	32710	
5576	0	32860	32798	
5577	0	32828	32775	
5578	0	32744	32666	
5579	0	32766	32764	
5580	0	32794	32750	
5581	0	32800	32802	
5582	0	32784	32678	
5583	0	32724	32810	
5584	0	32744	32710	
5585	0	32764	32820	
5586	0	32836	32728	
5587	0	32842	32762	
5588	0	32784	32742	
5589	0	32836	32820	
5590	0	32842	32804	
5591	0	32740	32810	
5592	0	32870	32800	
5593	0	32884	32807	
5594	0	32810	32835	
5595	0	32820	32842	
5596	0	32828	32774	
5597	0	32808	32858	
5598	0	32790	32800	
5599	0	32828	32810	
5600	0	32764	32786	
5601	0	32834	32830	
5602	0	32874	32784	
5603	0	32832	32814	
5604	0	32868	32772	
5605	0	32864	32836	
5606	0	32784	32744	
5607	0	32866	32783	
5608	0	32864	32862	
5609	0	32836	32704	
5610	0	32776	32812	
5611	0	32800	32708	
5612	0	32760	32844	
5613	0	32798	32874	
5614	0	32732	32670	
5615	0	32768	32760	
5616	0	32782	32742	
5617	0	32704	32790	
5618	0	32810	32766	
5619	0	32810	32810	
5620	0	32804	32750	
5621	0	32816	32786	
5622	0	32880	32772	
5623	0	32794	32850	
5624	0	32816	32898	
5625	0	32840	32794	
5626	0	32832	32752	
5627	0	32804	32804	
5628	0	32820	32775	
5629	0	32794	32700	
5630	0	32804	32775	
5631	0	32760	32805	
5632	0	32768	32804	
5633	0	32804	32656	
5634	0	32828	32785	
5635	0	32780	32752	
5636	0	32862	32806	
5637	0	32830	32827	
5638	0	32852	32775	
5639	0	32724	32806	
5640	0	32751	32764	
5641	0	32744	32822	
5642	0	32720	32700	
5643	0	32782	32838	
5644	0	32912	32860	
5645	0	32884	32788	
5646	0	32852	32726	
5647	0	32792	32596	
5648	0	32832	32734	
5649	0	32888	32712	
5650	0	32774	32804	
5651	0	32800	32768	
5652	0	32852	32734	
5653	0	32850	32677	
5654	0	32746	32740	
5655	0	32756	32840	
5656	0	32804	32790	
5657	0	32752	32798	
5658	0	32788	32842	
5659	0	32804	32721	
5660	0	32704	32766	
5661	0	32816	32794	
5662	0	32842	32736	
5663	0	32742	32818	
5664	0	32864	32811	
5665	0	32846	32726	
5666	0	32812	32850	
5667	0	32884	32790	
5668	0	32882	32798	
5669	0	32820	32807	
5670	0	32840	32670	
5671	0	32796	32788	
5672	0	32820	32750	
5673	0	32800	32775	
5674	0	32740	32654	
5675	0	32816	32756	
5676	0	32884	32804	
5677	0	32846	32820	
5678	0	32820	32758	
5679	0	32804	32828	
5680	0	32794	32690	
5681	0	32826	32774	
5682	0	32830	32945	
5683	0	32796	32790	
5684	0	32870	32756	
5685	0	32864	32732	
5686	0	32852	32775	
5687	0	32776	32900	
5688	0	32856	32772	
5689	0	32768	32775	
5690	0	32810	32698	
5691	0	32892	32814	
5692	0	32804	32860	
5693	0	32792	32716	
5694	0	32800	32687	
5695	0	32746	32696	
5696	0	32744	32772	
5697	0	32776	32808	
5698	0	32746	32647	
5699	0	32774	32864	
5700	0	32796	32842	
5701	0	32764	32680	
5702	0	32844	32716	
5703	0	32856	32766	
5704	0	32796	32798	
5705	0	32836	32746	
5706	0	32820	32739	
5707	0	32778	32830	
5708	0	32812	32849	
5709	0	32826	32744	
5710	0	32850	32767	
5711	0	32852	32678	
5712	0	32776	32714	
5713	0	32804	32679	
5714	0	32880	32846	
5715	0	32828	32704	
5716	0	32792	32846	
5717	0	32868	32852	
5718	0	32766	32748	
5719	0	32850	32675	
5720	0	32876	32744	
5721	0	32858	32838	
5722	0	32824	32708	
5723	0	32796	32822	
5724	0	32828	32770	
5725	0	32788	32810	
5726	0	32848	32775	
5727	0	32790	32712	
5728	0	32740	32826	
5729	0	32776	32820	
5730	0	32729	32680	
5731	0	32776	32750	
5732	0	32876	32724	
5733	0	32802	32815	
5734	0	32804	32772	
5735	0	32796	32740	
5736	0	32816	32775	
5737	0	32756	32708	
5738	0	32798	32854	
5739	0	32870	32714	
5740	0	32824	32788	
5741	0	32764	32748	
5742	0	32844	32679	
5743	0	32834	32818	
5744	0	32814	32808	
5745	0	32844	32758	
5746	0	32794	32810	
5747	0	32784	32704	
5748	0	32802	32738	
5749	0	32784	32903	
5750	0	32812	32875	
5751	0	32830	32766	
5752	0	32836	32644	
5753	0	32782	32742	
5754	0	32788	32728	
5755	0	32830	32836	
5756	0	32844	32795	
5757	0	32880	32729	
5758	0	32816	32775	
5759	0	32836	32810	
5760	0	32824	32804	
5761	0	32784	32726	
5762	0	32766	32710	
5763	0	32794	32750	
5764	0	32830	32710	
5765	0	32852	32796	
5766	0	32860	32716	
5767	0	32832	32800	
5768	0	32868	32775	
5769	0	32846	32653	
5770	0	32847	32817	
5771	0	32812	32740	
5772	0	32844	32708	
5773	0	32780	32807	
5774	0	32812	32812	
5775	0	32846	32744	
5776	0	32848	32637	
5777	0	32778	32703	
5778	0	32812	32740	
5779	0	32828	32696	
5780	0	32808	32836	
5781	0	32824	32836	
5782	0	32788	32842	
5783	0	32824	32807	
5784	0	32766	32816	
5785	0	32862	32791	
5786	0	32822	32721	
5787	0	32800	32742	
5788	0	32736	32700	
5789	0	32812	32736	
5790	0	32792	32700	
5791	0	32788	32798	
5792	0	32854	32918	
5793	0	32812	32839	
5794	0	32772	32838	
5795	0	32816	32692	
5796	0	32788	32786	
5797	0	32800	32690	
5798	0	32820	32846	
5799	0	32817	32727	
5800	0	32826	32728	
5801	0	32822	32862	
5802	0	32752	32780	
5803	0	32852	32863	
5804	0	32804	32708	
5805	0	32820	32810	
5806	0	32804	32775	
5807	0	32824	32801	
5808	0	32858	32704	
5809	0	32824	32750	
5810	0	32800	32734	
5811	0	32824	32908	
5812	0	32840	32802	
5813	0	32908	32817	
5814	0	32812	32794	
5815	0	32840	32724	
5816	0	32768	32743	
5817	0	32816	32678	
5818	0	32844	32724	
5819	0	32826	32858	
5820	0	32820	32735	
5821	0	32836	32736	
5822	0	32840	32676	
5823	0	32828	32746	
5824	0	32810	32766	
5825	0	32778	32768	
5826	0	32860	32896	
5827	0	32808	32800	
5828	0	32750	32736	
5829	0	32769	32726	
5830	0	32752	32742	
5831	0	32784	32706	
5832	0	32820	32775	
5833	0	32832	32852	
5834	0	32776	32647	
5835	0	32782	32722	
5836	0	32774	32711	
5837	0	32846	32876	
5838	0	32852	32766	
5839	0	32872	32692	
5840	0	32782	32764	
5841	0	32800	32756	
5842	0	32780	32748	
5843	0	32804	32791	
5844	0	32804	32736	
5845	0	32796	32771	
5846	0	32822	32830	
5847	0	32800	32726	
5848	0	32856	32816	
5849	0	32798	32700	
5850	0	32824	32768	
5851	0	32768	32775	
5852	0	32824	32728	
5853	0	32832	32842	
5854	0	32820	32815	
5855	0	32810	32682	
5856	0	32856	32808	
5857	0	32812	32710	
5858	0	32808	32670	
5859	0	32824	32798	
5860	0	32834	32750	
5861	0	32740	32839	
5862	0	32802	32732	
5863	0	32825	32870	
5864	0	32810	32847	
5865	0	32796	32700	
5866	0	32804	32726	
5867	0	32846	32817	
5868	0	32800	32736	
5869	0	32854	32796	
5870	0	32780	32802	
5871	0	32788	32732	
5872	0	32848	32934	
5873	0	32832	32792	
5874	0	32774	32682	
5875	0	32836	32788	
5876	0	32804	32868	
5877	0	32786	32678	
5878	0	32790	32828	
5879	0	32788	32822	
5880	0	32736	32706	
5881	0	32792	32810	
5882	0	32832	32657	
5883	0	32836	32775	
5884	0	32856	32788	
5885	0	32842	32724	
5886	0	32836	32734	
5887	0	32828	32818	
5888	0	32812	32687	
5889	0	32758	32824	
5890	0	32818	32826	
5891	0	32804	32676	
5892	0	32832	32775	
5893	0	32788	32704	
5894	0	32836	32720	
5895	0	32778	32840	
5896	0	32838	32830	
5897	0	32772	32712	
5898	0	32840	32822	
5899	0	32836	32680	
5900	0	32770	32740	
5901	0	32880	32756	
5902	0	32850	32718	
5903	0	32780	32848	
5904	0	32792	32856	
5905	0	32778	32772	
5906	0	32792	32839	
5907	0	32872	32672	
5908	0	32846	32916	
5909	0	32872	32822	
5910	0	32730	32810	
5911	0	32796	32728	
5912	0	32768	32682	
5913	0	32864	32727	
5914	0	32832	32767	
5915	0	32836	32846	
5916	0	32764	32733	
5917	0	32848	32744	
5918	0	32798	32734	
5919	0	32820	32849	
5920	0	32852	32768	
5921	0	32780	32750	
5922	0	32794	32754	
5923	0	32816	32704	
5924	0	32768	32818	
5925	0	32752	32700	
5926	0	32760	32743	
5927	0	32780	32708	
5928	0	32810	32780	
5929	0	32850	32792	
5930	0	32750	32674	
5931	0	32820	32824	
5932	0	32750	32850	
5933	0	32800	32727	
5934	0	32860	32754	
5935	0	32802	32775	
5936	0	32876	32756	
5937	0	32856	32732	
5938	0	32844	32900	
5939	0	32852	32660	
5940	0	32792	32814	
5941	0	32832	32836	
5942	0	32804	32671	
5943	0	32848	32802	
5944	0	32846	32914	
5945	0	32864	32753	
5946	0	32814	32772	
5947	0	32868	32686	
5948	0	32784	32816	
5949	0	32752	32810	
5950	0	32820	32655	
5951	0	32806	32759	
5952	0	32796	32608	
5953	0	32828	32786	
5954	0	32808	32839	
5955	0	32830	32684	
5956	0	32834	32751	
5957	0	32806	32714	
5958	0	32780	32860	
5959	0	32820	32775	
5960	0	32816	32862	
5961	0	32786	32760	
5962	0	32788	32662	
5963	0	32768	32770	
5964	0	32800	32658	
5965	0	32824	32720	
5966	0	32808	32767	
5967	0	32824	32818	
5968	0	32764	32848	
5969	0	32780	32867	
5970	0	32840	32839	
5971	0	32796	32756	
5972	0	32708	32774	
5973	0	32816	32676	
5974	0	32834	32775	
5975	0	32832	32775	
5976	0	32852	32820	
5977	0	32832	32862	
5978	0	32772	32704	
5979	0	32800	32766	
5980	0	32860	32775	
5981	0	32782	32775	
5982	0	32798	32614	
5983	0	32824	32719	
5984	0	32826	32706	
5985	0	32864	32772	
5986	0	32792	32775	
5987	0	32820	32728	
5988	0	32836	32832	
5989	0	32876	32826	
5990	0	32824	32742	
5991	0	32844	32740	
5992	0	32800	32672	
5993	0	32752	32820	
5994	0	32832	32772	
5995	0	32832	32720	
5996	0	32832	32758	
5997	0	32804	32716	
5998	0	32806	32868	
5999	0	32832	32794	
6000	0	32808	32788	
6001	0	32848	32810	
6002	0	32860	32732	
6003	0	32800	32774	
6004	0	32892	32696	
6005	0	32836	32750	
6006	0	32824	32886	
6007	0	32772	32775	
6008	0	32730	32775	
6009	0	32772	32775	
6010	0	32828	32840	
6011	0	32748	32630	
6012	0	32864	32656	
