# OpenSignals Text File Format. Version 1
# {"00:07:80:8C:0A:39": {"position": 0, "device": "biosignalsplux", "device name": "00:07:80:8C:0A:39", "device connection": "BTH00:07:80:8C:0A:39", "sampling rate": 1000, "resolution": [16, 16], "firmware version": 776, "comments": "", "keywords": "", "mode": 0, "sync interval": 2, "date": "2023-3-10", "time": "15:51:6.595", "channels": [1, 2], "sensor": ["EMG", "EMG"], "label": ["CH1", "CH2"], "column": ["nSeq", "DI", "CH1", "CH2"], "special": [{"SpO2": [80, 40, 5, 4, 3, 3]}, {"SpO2": [80, 40, 5, 4, 3, 3]}, {"SpO2": [80, 40, 5, 4, 3, 3]}, {"SpO2": [80, 40, 5, 4, 3, 3]}, {"SpO2": [80, 40, 5, 4, 3, 3]}, {"SpO2": [80, 40, 5, 4, 3, 3]}, {"SpO2": [80, 40, 5, 4, 3, 3]}, {"SpO2": [80, 40, 5, 4, 3, 3]}], "digital IO": [0, 1], "sleeve color": ["gray", "yellow"], "convertedValues": 0}}
# EndOfHeader
0	0	32792	32768	
1	0	32824	32712	
2	0	32840	32680	
3	0	32756	32754	
4	0	32824	32892	
5	0	32804	32692	
6	0	32816	32704	
7	0	32892	32842	
8	0	32778	32722	
9	0	32844	32786	
10	0	32824	32734	
11	0	32774	32800	
12	0	32824	32818	
13	0	32836	32711	
14	0	32878	32656	
15	0	32808	32790	
16	0	32792	32802	
17	0	32836	32802	
18	0	32792	32804	
19	0	32788	32788	
20	0	32734	32756	
21	0	32824	32692	
22	0	32776	32864	
23	0	32862	32788	
24	0	32782	32694	
25	0	32812	32770	
26	0	32824	32775	
27	0	32814	32840	
28	0	32822	32852	
29	0	32788	32842	
30	0	32872	32775	
31	0	32816	32698	
32	0	32814	32794	
33	0	32828	32788	
34	0	32764	32694	
35	0	32844	32775	
36	0	32798	32756	
37	0	32864	32736	
38	0	32784	32740	
39	0	32800	32742	
40	0	32764	32743	
41	0	32846	32764	
42	0	32822	32820	
43	0	32808	32676	
44	0	32812	32748	
45	0	32820	32806	
46	0	32802	32752	
47	0	32812	32850	
48	0	32802	32790	
49	0	32816	32862	
50	0	32764	32784	
51	0	32828	32678	
52	0	32820	32742	
53	0	32788	32632	
54	0	32836	32743	
55	0	32768	32820	
56	0	32936	32854	
57	0	32788	32839	
58	0	32804	32702	
59	0	32856	32900	
60	0	32856	32856	
61	0	32796	32746	
62	0	32832	32814	
63	0	32792	32730	
64	0	32796	32754	
65	0	32840	32774	
66	0	32838	32704	
67	0	32812	32696	
68	0	32840	32820	
69	0	32848	32772	
70	0	32812	32838	
71	0	32812	32804	
72	0	32778	32711	
73	0	32768	32764	
74	0	32796	32716	
75	0	32784	32768	
76	0	32804	32775	
77	0	32846	32794	
78	0	32780	32718	
79	0	32796	32762	
80	0	32792	32748	
81	0	32824	32718	
82	0	32810	32684	
83	0	32824	32836	
84	0	32860	32656	
85	0	32810	32774	
86	0	32828	32848	
87	0	32784	32668	
88	0	32778	32802	
89	0	32832	32848	
90	0	32860	32680	
91	0	32832	32823	
92	0	32852	32846	
93	0	32834	32682	
94	0	32792	32890	
95	0	32801	32788	
96	0	32848	32602	
97	0	32816	32812	
98	0	32800	32860	
99	0	32796	32748	
100	0	32812	32820	
101	0	32860	32860	
102	0	32728	32618	
103	0	32820	32756	
104	0	32804	32670	
105	0	32884	32775	
106	0	32800	32782	
107	0	32760	32748	
108	0	32816	32844	
109	0	32876	32724	
110	0	32772	32772	
111	0	32768	32700	
112	0	32772	32732	
113	0	32834	32784	
114	0	32804	32632	
115	0	32752	32758	
116	0	32800	32838	
117	0	32842	32692	
118	0	32796	32798	
119	0	32804	32740	
120	0	32784	32735	
121	0	32804	32748	
122	0	32868	32824	
123	0	32768	32756	
124	0	32846	32775	
125	0	32808	32832	
126	0	32816	32804	
127	0	32768	32774	
128	0	32832	32710	
129	0	32852	32696	
130	0	32760	32756	
131	0	32844	32802	
132	0	32832	32716	
133	0	32864	32774	
134	0	32844	32752	
135	0	32836	32844	
136	0	32828	32846	
137	0	32806	32664	
138	0	32816	32775	
139	0	32776	32900	
140	0	32864	32752	
141	0	32772	32720	
142	0	32776	32814	
143	0	32804	32714	
144	0	32808	32768	
145	0	32744	32894	
146	0	32812	32767	
147	0	32832	32706	
148	0	32840	32800	
149	0	32792	32692	
150	0	32766	32831	
151	0	32834	32774	
152	0	32748	32690	
153	0	32780	32830	
154	0	32784	32740	
155	0	32836	32750	
156	0	32780	32814	
157	0	32840	32816	
158	0	32840	32703	
159	0	32814	32780	
160	0	32790	32762	
161	0	32856	32842	
162	0	32826	32844	
163	0	32822	32703	
164	0	32886	32764	
165	0	32826	32794	
166	0	32752	32700	
167	0	32828	32748	
168	0	32810	32848	
169	0	32792	32752	
170	0	32804	32814	
171	0	32838	32760	
172	0	32756	32740	
173	0	32778	32806	
174	0	32768	32628	
175	0	32810	32860	
176	0	32888	32806	
177	0	32808	32692	
178	0	32868	32744	
179	0	32810	32834	
180	0	32848	32732	
181	0	32792	32744	
182	0	32784	32817	
183	0	32776	32768	
184	0	32796	32722	
185	0	32888	32700	
186	0	32808	32736	
187	0	32804	32812	
188	0	32848	32743	
189	0	32836	32854	
190	0	32810	32722	
191	0	32854	32812	
192	0	32766	32736	
193	0	32730	32828	
194	0	32764	32736	
195	0	32786	32666	
196	0	32908	32894	
197	0	32774	32773	
198	0	32808	32682	
199	0	32752	32804	
200	0	32810	32718	
201	0	32896	32820	
202	0	32796	32702	
203	0	32808	32732	
204	0	32860	32791	
205	0	32874	32820	
206	0	32814	32638	
207	0	32808	32730	
208	0	32776	32816	
209	0	32784	32775	
210	0	32748	32646	
211	0	32752	32838	
212	0	32790	32786	
213	0	32846	32710	
214	0	32760	32854	
215	0	32806	32774	
216	0	32824	32840	
217	0	32864	32743	
218	0	32860	32790	
219	0	32880	32796	
220	0	32796	32692	
221	0	32792	32784	
222	0	32848	32868	
223	0	32720	32708	
224	0	32832	32692	
225	0	32724	32790	
226	0	32768	32748	
227	0	32784	32812	
228	0	32806	32678	
229	0	32824	32807	
230	0	32776	32754	
231	0	32796	32837	
232	0	32808	32696	
233	0	32856	32846	
234	0	32788	32754	
235	0	32788	32743	
236	0	32800	32718	
237	0	32808	32748	
238	0	32832	32798	
239	0	32896	32767	
240	0	32772	32756	
241	0	32772	32820	
242	0	32790	32755	
243	0	32822	32775	
244	0	32782	32668	
245	0	32794	32802	
246	0	32880	32792	
247	0	32834	32704	
248	0	32872	32880	
249	0	32834	32736	
250	0	32788	32796	
251	0	32788	32676	
252	0	32816	32824	
253	0	32836	32768	
254	0	32836	32848	
255	0	32784	32654	
256	0	32788	32704	
257	0	32776	32863	
258	0	32784	32790	
259	0	32822	32660	
260	0	32810	32775	
261	0	32812	32832	
262	0	32808	32760	
263	0	32804	32706	
264	0	32884	32804	
265	0	32840	32764	
266	0	32776	32804	
267	0	32808	32656	
268	0	32860	32742	
269	0	32780	32724	
270	0	32824	32812	
271	0	32756	32678	
272	0	32776	32756	
273	0	32746	32804	
274	0	32810	32694	
275	0	32844	32886	
276	0	32840	32810	
277	0	32788	32706	
278	0	32800	32690	
279	0	32784	32800	
280	0	32808	32762	
281	0	32710	32775	
282	0	32864	32710	
283	0	32812	32690	
284	0	32784	32704	
285	0	32812	32824	
286	0	32788	32740	
287	0	32820	32880	
288	0	32846	32730	
289	0	32840	32796	
290	0	32816	32775	
291	0	32789	32894	
292	0	32824	32736	
293	0	32852	32810	
294	0	32746	32662	
295	0	32840	32864	
296	0	32772	32838	
297	0	32852	32770	
298	0	32794	32704	
299	0	32848	32775	
300	0	32816	32780	
301	0	32846	32716	
302	0	32848	32878	
303	0	32820	32806	
304	0	32840	32808	
305	0	32802	32647	
306	0	32830	32752	
307	0	32772	32783	
308	0	32790	32812	
309	0	32852	32718	
310	0	32760	32808	
311	0	32768	32760	
312	0	32796	32684	
313	0	32804	32808	
314	0	32778	32764	
315	0	32804	32807	
316	0	32828	32711	
317	0	32776	32728	
318	0	32886	32808	
319	0	32812	32820	
320	0	32840	32775	
321	0	32812	32818	
322	0	32840	32775	
323	0	32834	32762	
324	0	32804	32812	
325	0	32774	32775	
326	0	32840	32788	
327	0	32780	32680	
328	0	32816	32810	
329	0	32810	32732	
330	0	32788	32722	
331	0	32868	32748	
332	0	32808	32740	
333	0	32856	32720	
334	0	32820	32708	
335	0	32872	32640	
336	0	32808	32860	
337	0	32704	32824	
338	0	32754	32698	
339	0	32796	32696	
340	0	32788	32764	
341	0	32826	32798	
342	0	32846	32768	
343	0	32842	32700	
344	0	32864	32836	
345	0	32760	32782	
346	0	32776	32679	
347	0	32748	32734	
348	0	32888	32775	
349	0	32832	32784	
350	0	32804	32799	
351	0	32794	32748	
352	0	32782	32711	
353	0	32828	32700	
354	0	32840	32828	
355	0	32844	32802	
356	0	32820	32699	
357	0	32820	32772	
358	0	32808	32730	
359	0	32776	32798	
360	0	32828	32736	
361	0	32786	32852	
362	0	32838	32774	
363	0	32816	32808	
364	0	32816	32753	
365	0	32844	32692	
366	0	32874	32784	
367	0	32832	32674	
368	0	32836	32788	
369	0	32780	32874	
370	0	32776	32726	
371	0	32748	32768	
372	0	32780	32808	
373	0	32812	32750	
374	0	32828	32752	
375	0	32788	32676	
376	0	32808	32782	
377	0	32792	32878	
378	0	32794	32620	
379	0	32794	32775	
380	0	32804	32840	
381	0	32846	32774	
382	0	32832	32846	
383	0	32770	32775	
384	0	32848	32700	
385	0	32832	32828	
386	0	32828	32638	
387	0	32828	32800	
388	0	32852	32762	
389	0	32836	32746	
390	0	32748	32726	
391	0	32818	32734	
392	0	32828	32806	
393	0	32856	32732	
394	0	32828	32810	
395	0	32888	32808	
396	0	32770	32688	
397	0	32864	32764	
398	0	32738	32764	
399	0	32836	32760	
400	0	32860	32775	
401	0	32832	32684	
402	0	32852	32839	
403	0	32784	32862	
404	0	32812	32704	
405	0	32748	32752	
406	0	32786	32804	
407	0	32776	32775	
408	0	32786	32736	
409	0	32836	32728	
410	0	32792	32775	
411	0	32776	32794	
412	0	32824	32720	
413	0	32826	32760	
414	0	32812	32775	
415	0	32832	32775	
416	0	32832	32796	
417	0	32892	32810	
418	0	32876	32766	
419	0	32800	32736	
420	0	32898	32802	
421	0	32804	32646	
422	0	32770	32808	
423	0	32902	32782	
424	0	32828	32756	
425	0	32812	32818	
426	0	32816	32770	
427	0	32756	32704	
428	0	32828	32775	
429	0	32792	32791	
430	0	32784	32830	
431	0	32840	32758	
432	0	32824	32679	
433	0	32796	32798	
434	0	32772	32843	
435	0	32780	32740	
436	0	32860	32744	
437	0	32788	32764	
438	0	32764	32842	
439	0	32792	32768	
440	0	32812	32716	
441	0	32834	32903	
442	0	32798	32740	
443	0	32770	32807	
444	0	32792	32706	
445	0	32780	32772	
446	0	32816	32748	
447	0	32864	32768	
448	0	32816	32788	
449	0	32792	32744	
450	0	32812	32808	
451	0	32768	32846	
452	0	32764	32774	
453	0	32832	32775	
454	0	32780	32796	
455	0	32832	32788	
456	0	32784	32868	
457	0	32810	32772	
458	0	32820	32775	
459	0	32870	32756	
460	0	32842	32812	
461	0	32888	32748	
462	0	32784	32683	
463	0	32804	32884	
464	0	32808	32806	
465	0	32792	32694	
466	0	32776	32796	
467	0	32738	32796	
468	0	32820	32628	
469	0	32764	32823	
470	0	32836	32775	
471	0	32788	32708	
472	0	32848	32742	
473	0	32788	32746	
474	0	32778	32806	
475	0	32782	32760	
476	0	32812	32744	
477	0	32828	32704	
478	0	32820	32864	
479	0	32848	32810	
480	0	32824	32720	
481	0	32864	32839	
482	0	32784	32734	
483	0	32852	32722	
484	0	32776	32840	
485	0	32756	32792	
486	0	32768	32700	
487	0	32817	32792	
488	0	32828	32788	
489	0	32776	32720	
490	0	32828	32736	
491	0	32860	32734	
492	0	32824	32660	
493	0	32756	32820	
494	0	32810	32904	
495	0	32852	32775	
496	0	32832	32820	
497	0	32832	32782	
498	0	32884	32768	
499	0	32794	32828	
500	0	32818	32782	
501	0	32796	32708	
502	0	32780	32748	
503	0	32860	32800	
504	0	32784	32756	
505	0	32800	32756	
506	0	32806	32558	
507	0	32808	32772	
508	0	32792	32742	
509	0	32804	32764	
510	0	32736	32760	
511	0	32806	32698	
512	0	32840	32804	
513	0	32806	32800	
514	0	32752	32864	
515	0	32776	32818	
516	0	32774	32784	
517	0	32730	32844	
518	0	32754	32815	
519	0	32726	32854	
520	0	32676	32840	
521	0	32698	32775	
522	0	32748	32890	
523	0	32752	32822	
524	0	32740	32716	
525	0	32764	32832	
526	0	32720	32871	
527	0	32698	32762	
528	0	32686	32848	
529	0	32768	32868	
530	0	32722	32721	
531	0	32644	32840	
532	0	32708	32728	
533	0	32704	32810	
534	0	32768	32760	
535	0	32784	32796	
536	0	32864	32684	
537	0	32858	32751	
538	0	32854	32682	
539	0	32916	32752	
540	0	32936	32768	
541	0	32994	32644	
542	0	33084	32590	
543	0	33024	32660	
544	0	33128	32518	
545	0	33268	32628	
546	0	33250	32538	
547	0	33260	32598	
548	0	33180	32404	
549	0	33312	32542	
550	0	33312	32599	
551	0	33256	32704	
552	0	33138	32746	
553	0	33038	32772	
554	0	32940	32814	
555	0	32736	32894	
556	0	32676	32846	
557	0	32560	32908	
558	0	32452	32934	
559	0	32454	32871	
560	0	32488	32848	
561	0	32456	32868	
562	0	32478	32839	
563	0	32492	32831	
564	0	32588	32892	
565	0	32592	32794	
566	0	32688	32775	
567	0	32700	32838	
568	0	32708	32806	
569	0	32752	32716	
570	0	32762	32704	
571	0	32804	32757	
572	0	32748	32690	
573	0	32738	32724	
574	0	32800	32952	
575	0	32804	32775	
576	0	32760	32807	
577	0	32788	32838	
578	0	32768	32710	
579	0	32788	32766	
580	0	32780	32804	
581	0	32816	32760	
582	0	32748	32878	
583	0	32840	32718	
584	0	32880	32806	
585	0	32840	32742	
586	0	32860	32863	
587	0	32756	32768	
588	0	32764	32864	
589	0	32806	32695	
590	0	32808	32838	
591	0	32868	32790	
592	0	32838	32682	
593	0	32774	32874	
594	0	32836	32750	
595	0	32808	32734	
596	0	32844	32772	
597	0	32884	32756	
598	0	32828	32872	
599	0	32818	32719	
600	0	32872	32744	
601	0	32848	32744	
602	0	32768	32662	
603	0	32868	32680	
604	0	32824	32684	
605	0	32746	32791	
606	0	32846	32852	
607	0	32730	32766	
608	0	32820	32748	
609	0	32798	32806	
610	0	32882	32775	
611	0	32776	32788	
612	0	32812	32725	
613	0	32812	32700	
614	0	32865	32818	
615	0	32796	32812	
616	0	32816	32692	
617	0	32848	32775	
618	0	32800	32774	
619	0	32838	32775	
620	0	32844	32706	
621	0	32768	32806	
622	0	32812	32788	
623	0	32792	32856	
624	0	32792	32754	
625	0	32824	32806	
626	0	32756	32774	
627	0	32858	32647	
628	0	32796	32744	
629	0	32810	32670	
630	0	32768	32798	
631	0	32846	32784	
632	0	32782	32720	
633	0	32850	32808	
634	0	32780	32720	
635	0	32818	32830	
636	0	32832	32784	
637	0	32864	32720	
638	0	32836	32758	
639	0	32775	32766	
640	0	32834	32700	
641	0	32804	32852	
642	0	32848	32810	
643	0	32830	32668	
644	0	32822	32774	
645	0	32825	32826	
646	0	32836	32593	
647	0	32836	32900	
648	0	32828	32721	
649	0	32796	32775	
650	0	32828	32766	
651	0	32836	32775	
652	0	32780	32740	
653	0	32804	32700	
654	0	32804	32828	
655	0	32824	32798	
656	0	32788	32714	
657	0	32770	32766	
658	0	32820	32738	
659	0	32874	32814	
660	0	32828	32830	
661	0	32864	32720	
662	0	32814	32798	
663	0	32776	32792	
664	0	32712	32656	
665	0	32720	32708	
666	0	32804	32866	
667	0	32816	32698	
668	0	32804	32822	
669	0	32808	32762	
670	0	32764	32862	
671	0	32800	32806	
672	0	32790	32644	
673	0	32824	32750	
674	0	32856	32838	
675	0	32860	32700	
676	0	32772	32842	
677	0	32802	32818	
678	0	32856	32738	
679	0	32740	32876	
680	0	32832	32792	
681	0	32780	32692	
682	0	32774	32803	
683	0	32828	32748	
684	0	32820	32720	
685	0	32842	32806	
686	0	32786	32772	
687	0	32820	32750	
688	0	32780	32664	
689	0	32830	32774	
690	0	32814	32830	
691	0	32844	32602	
692	0	32824	32838	
693	0	32810	32775	
694	0	32824	32824	
695	0	32772	32828	
696	0	32802	32810	
697	0	32808	32812	
698	0	32820	32738	
699	0	32756	32772	
700	0	32760	32772	
701	0	32824	32678	
702	0	32810	32842	
703	0	32730	32774	
704	0	32754	32764	
705	0	32760	32768	
706	0	32796	32672	
707	0	32826	32782	
708	0	32802	32748	
709	0	32812	32708	
710	0	32752	32848	
711	0	32785	32796	
712	0	32826	32704	
713	0	32874	32710	
714	0	32858	32796	
715	0	32808	32774	
716	0	32796	32719	
717	0	32780	32828	
718	0	32792	32718	
719	0	32842	32818	
720	0	32804	32734	
721	0	32868	32775	
722	0	32772	32834	
723	0	32792	32766	
724	0	32852	32732	
725	0	32844	32844	
726	0	32860	32808	
727	0	32814	32692	
728	0	32810	32770	
729	0	32794	32800	
730	0	32780	32770	
731	0	32816	32740	
732	0	32862	32712	
733	0	32824	32844	
734	0	32776	32834	
735	0	32878	32780	
736	0	32832	32839	
737	0	32788	32744	
738	0	32804	32668	
739	0	32832	32794	
740	0	32796	32754	
741	0	32820	32848	
742	0	32804	32744	
743	0	32786	32670	
744	0	32836	32798	
745	0	32840	32764	
746	0	32802	32807	
747	0	32856	32716	
748	0	32796	32682	
749	0	32814	32762	
750	0	32836	32824	
751	0	32804	32740	
752	0	32826	32742	
753	0	32872	32810	
754	0	32892	32744	
755	0	32760	32766	
756	0	32856	32834	
757	0	32802	32708	
758	0	32814	32742	
759	0	32780	32832	
760	0	32820	32832	
761	0	32770	32800	
762	0	32820	32706	
763	0	32788	32688	
764	0	32828	32760	
765	0	32756	32722	
766	0	32860	32774	
767	0	32766	32752	
768	0	32752	32662	
769	0	32812	32740	
770	0	32758	32738	
771	0	32864	32856	
772	0	32856	32748	
773	0	32844	32754	
774	0	32804	32728	
775	0	32848	32822	
776	0	32860	32708	
777	0	32844	32754	
778	0	32846	32808	
779	0	32808	32656	
780	0	32832	32775	
781	0	32840	32766	
782	0	32856	32716	
783	0	32868	32806	
784	0	32812	32784	
785	0	32784	32756	
786	0	32824	32762	
787	0	32838	32772	
788	0	32816	32824	
789	0	32832	32710	
790	0	32836	32782	
791	0	32816	32824	
792	0	32792	32720	
793	0	32812	32718	
794	0	32832	32774	
795	0	32854	32742	
796	0	32830	32900	
797	0	32852	32804	
798	0	32832	32618	
799	0	32880	32848	
800	0	32798	32784	
801	0	32840	32784	
802	0	32804	32678	
803	0	32780	32830	
804	0	32804	32788	
805	0	32852	32702	
806	0	32792	32864	
807	0	32752	32748	
808	0	32776	32710	
809	0	32856	32814	
810	0	32728	32856	
811	0	32824	32682	
812	0	32772	32716	
813	0	32818	32838	
814	0	32776	32788	
815	0	32792	32696	
816	0	32772	32830	
817	0	32824	32842	
818	0	32870	32694	
819	0	32854	32798	
820	0	32768	32816	
821	0	32820	32694	
822	0	32796	32816	
823	0	32834	32766	
824	0	32780	32700	
825	0	32822	32884	
826	0	32844	32812	
827	0	32812	32764	
828	0	32756	32830	
829	0	32856	32858	
830	0	32752	32686	
831	0	32788	32792	
832	0	32826	32844	
833	0	32790	32704	
834	0	32852	32774	
835	0	32824	32769	
836	0	32784	32736	
837	0	32836	32722	
838	0	32792	32742	
839	0	32814	32775	
840	0	32860	32796	
841	0	32832	32744	
842	0	32872	32697	
843	0	32804	32710	
844	0	32746	32718	
845	0	32788	32714	
846	0	32730	32762	
847	0	32802	32804	
848	0	32772	32694	
849	0	32812	32810	
850	0	32740	32806	
851	0	32802	32712	
852	0	32796	32826	
853	0	32792	32774	
854	0	32804	32836	
855	0	32752	32686	
856	0	32868	32708	
857	0	32804	32792	
858	0	32856	32832	
859	0	32804	32722	
860	0	32848	32848	
861	0	32796	32796	
862	0	32792	32692	
863	0	32794	32858	
864	0	32836	32764	
865	0	32826	32708	
866	0	32808	32720	
867	0	32816	32750	
868	0	32808	32744	
869	0	32812	32742	
870	0	32808	32896	
871	0	32820	32682	
872	0	32778	32810	
873	0	32810	32846	
874	0	32820	32684	
875	0	32818	32775	
876	0	32838	32766	
877	0	32866	32676	
878	0	32792	32762	
879	0	32868	32792	
880	0	32784	32686	
881	0	32824	32890	
882	0	32828	32672	
883	0	32848	32806	
884	0	32778	32710	
885	0	32708	32775	
886	0	32848	32775	
887	0	32810	32644	
888	0	32740	32784	
889	0	32768	32738	
890	0	32880	32800	
891	0	32858	32788	
892	0	32816	32688	
893	0	32820	32838	
894	0	32744	32772	
895	0	32832	32748	
896	0	32768	32718	
897	0	32844	32812	
898	0	32788	32708	
899	0	32810	32839	
900	0	32844	32775	
901	0	32810	32636	
902	0	32768	32822	
903	0	32828	32838	
904	0	32872	32804	
905	0	32772	32760	
906	0	32824	32774	
907	0	32774	32775	
908	0	32766	32812	
909	0	32776	32736	
910	0	32752	32768	
911	0	32794	32804	
912	0	32756	32696	
913	0	32812	32740	
914	0	32768	32732	
915	0	32780	32796	
916	0	32864	32810	
917	0	32768	32796	
918	0	32856	32704	
919	0	32818	32730	
920	0	32818	32744	
921	0	32816	32800	
922	0	32808	32774	
923	0	32804	32727	
924	0	32844	32820	
925	0	32868	32834	
926	0	32780	32760	
927	0	32828	32758	
928	0	32796	32840	
929	0	32849	32775	
930	0	32752	32664	
931	0	32832	32884	
932	0	32796	32732	
933	0	32800	32752	
934	0	32868	32692	
935	0	32768	32810	
936	0	32876	32820	
937	0	32798	32718	
938	0	32830	32720	
939	0	32776	32834	
940	0	32832	32694	
941	0	32772	32832	
942	0	32812	32848	
943	0	32864	32665	
944	0	32778	32896	
945	0	32844	32775	
946	0	32834	32710	
947	0	32778	32775	
948	0	32794	32800	
949	0	32778	32724	
950	0	32824	32852	
951	0	32836	32752	
952	0	32802	32752	
953	0	32844	32758	
954	0	32814	32806	
955	0	32850	32740	
956	0	32784	32772	
957	0	32792	32832	
958	0	32788	32670	
959	0	32809	32810	
960	0	32786	32862	
961	0	32816	32660	
962	0	32800	32820	
963	0	32800	32756	
964	0	32792	32736	
965	0	32860	32738	
966	0	32808	32768	
967	0	32780	32802	
968	0	32816	32712	
969	0	32814	32769	
970	0	32854	32784	
971	0	32848	32696	
972	0	32802	32756	
973	0	32794	32732	
974	0	32792	32700	
975	0	32832	32815	
976	0	32834	32806	
977	0	32824	32696	
978	0	32784	32798	
979	0	32802	32702	
980	0	32810	32732	
981	0	32818	32686	
982	0	32772	32828	
983	0	32836	32774	
984	0	32792	32648	
985	0	32796	32848	
986	0	32812	32892	
987	0	32736	32678	
988	0	32760	32816	
989	0	32786	32852	
990	0	32858	32746	
991	0	32820	32756	
992	0	32804	32771	
993	0	32800	32704	
994	0	32836	32724	
995	0	32828	32772	
996	0	32862	32770	
997	0	32828	32884	
998	0	32856	32792	
999	0	32824	32724	
1000	0	32756	32848	
1001	0	32864	32818	
1002	0	32784	32702	
1003	0	32780	32874	
1004	0	32800	32742	
1005	0	32820	32642	
1006	0	32822	32794	
1007	0	32782	32846	
1008	0	32846	32708	
1009	0	32788	32922	
1010	0	32840	32774	
1011	0	32818	32714	
1012	0	32778	32734	
1013	0	32804	32744	
1014	0	32840	32848	
1015	0	32816	32788	
1016	0	32776	32810	
1017	0	32820	32836	
1018	0	32790	32704	
1019	0	32762	32732	
1020	0	32836	32802	
1021	0	32748	32744	
1022	0	32808	32704	
1023	0	32820	32764	
1024	0	32836	32788	
1025	0	32800	32684	
1026	0	32794	32710	
1027	0	32760	32800	
1028	0	32756	32644	
1029	0	32860	32789	
1030	0	32784	32802	
1031	0	32864	32670	
1032	0	32798	32760	
1033	0	32849	32750	
1034	0	32868	32792	
1035	0	32908	32786	
1036	0	32822	32818	
1037	0	32796	32700	
1038	0	32760	32815	
1039	0	32784	32788	
1040	0	32834	32764	
1041	0	32852	32824	
1042	0	32818	32712	
1043	0	32830	32816	
1044	0	32830	32896	
1045	0	32820	32704	
1046	0	32816	32774	
1047	0	32804	32792	
1048	0	32810	32670	
1049	0	32828	32796	
1050	0	32832	32775	
1051	0	32820	32754	
1052	0	32762	32828	
1053	0	32768	32748	
1054	0	32848	32818	
1055	0	32768	32784	
1056	0	32836	32686	
1057	0	32780	32826	
1058	0	32880	32818	
1059	0	32856	32772	
1060	0	32750	32760	
1061	0	32816	32782	
1062	0	32866	32734	
1063	0	32828	32732	
1064	0	32816	32822	
1065	0	32844	32740	
1066	0	32704	32792	
1067	0	32804	32756	
1068	0	32812	32742	
1069	0	32850	32742	
1070	0	32828	32742	
1071	0	32840	32762	
1072	0	32808	32738	
1073	0	32766	32802	
1074	0	32828	32775	
1075	0	32840	32774	
1076	0	32788	32736	
1077	0	32768	32820	
1078	0	32820	32903	
1079	0	32824	32720	
1080	0	32834	32802	
1081	0	32818	32760	
1082	0	32804	32734	
1083	0	32786	32775	
1084	0	32768	32694	
1085	0	32772	32718	
1086	0	32828	32762	
1087	0	32806	32792	
1088	0	32804	32751	
1089	0	32714	32814	
1090	0	32812	32710	
1091	0	32780	32848	
1092	0	32800	32824	
1093	0	32774	32792	
1094	0	32804	32646	
1095	0	32816	32692	
1096	0	32792	32758	
1097	0	32848	32823	
1098	0	32808	32736	
1099	0	32834	32748	
1100	0	32804	32760	
1101	0	32844	32696	
1102	0	32798	32832	
1103	0	32812	32772	
1104	0	32800	32692	
1105	0	32900	32800	
1106	0	32828	32775	
1107	0	32828	32710	
1108	0	32864	32676	
1109	0	32816	32772	
1110	0	32756	32748	
1111	0	32788	32841	
1112	0	32780	32830	
1113	0	32800	32662	
1114	0	32824	32792	
1115	0	32828	32785	
1116	0	32812	32758	
1117	0	32792	32756	
1118	0	32778	32812	
1119	0	32858	32678	
1120	0	32780	32838	
1121	0	32832	32814	
1122	0	32788	32800	
1123	0	32812	32784	
1124	0	32772	32738	
1125	0	32872	32760	
1126	0	32772	32726	
1127	0	32810	32718	
1128	0	32818	32814	
1129	0	32864	32768	
1130	0	32754	32690	
1131	0	32806	32772	
1132	0	32796	32846	
1133	0	32792	32692	
1134	0	32804	32800	
1135	0	32852	32842	
1136	0	32812	32804	
1137	0	32836	32834	
1138	0	32848	32740	
1139	0	32766	32828	
1140	0	32788	32740	
1141	0	32834	32775	
1142	0	32828	32807	
1143	0	32864	32695	
1144	0	32840	32756	
1145	0	32800	32877	
1146	0	32712	32748	
1147	0	32808	32808	
1148	0	32802	32839	
1149	0	32788	32768	
1150	0	32804	32734	
1151	0	32872	32750	
1152	0	32792	32764	
1153	0	32852	32740	
1154	0	32832	32784	
1155	0	32808	32710	
1156	0	32842	32756	
1157	0	32834	32736	
1158	0	32868	32804	
1159	0	32744	32810	
1160	0	32756	32660	
1161	0	32800	32802	
1162	0	32780	32734	
1163	0	32816	32702	
1164	0	32838	32895	
1165	0	32760	32772	
1166	0	32812	32711	
1167	0	32788	32766	
1168	0	32814	32840	
1169	0	32744	32710	
1170	0	32802	32764	
1171	0	32776	32896	
1172	0	32792	32812	
1173	0	32796	32785	
1174	0	32760	32786	
1175	0	32792	32704	
1176	0	32820	32882	
1177	0	32828	32692	
1178	0	32804	32818	
1179	0	32788	32734	
1180	0	32820	32862	
1181	0	32880	32774	
1182	0	32824	32732	
1183	0	32812	32774	
1184	0	32800	32748	
1185	0	32834	32824	
1186	0	32872	32724	
1187	0	32808	32710	
1188	0	32856	32842	
1189	0	32744	32806	
1190	0	32764	32700	
1191	0	32848	32745	
1192	0	32824	32756	
1193	0	32772	32798	
1194	0	32816	32878	
1195	0	32816	32726	
1196	0	32864	32775	
1197	0	32872	32852	
1198	0	32768	32748	
1199	0	32838	32706	
1200	0	32794	32736	
1201	0	32844	32774	
1202	0	32816	32800	
1203	0	32840	32756	
1204	0	32832	32756	
1205	0	32760	32668	
1206	0	32810	32842	
1207	0	32802	32740	
1208	0	32752	32822	
1209	0	32852	32800	
1210	0	32778	32676	
1211	0	32892	32738	
1212	0	32812	32728	
1213	0	32824	32700	
1214	0	32788	32710	
1215	0	32810	32828	
1216	0	32840	32716	
1217	0	32814	32834	
1218	0	32778	32862	
1219	0	32752	32706	
1220	0	32788	32796	
1221	0	32846	32888	
1222	0	32840	32740	
1223	0	32724	32744	
1224	0	32820	32700	
1225	0	32772	32828	
1226	0	32812	32868	
1227	0	32844	32672	
1228	0	32796	32744	
1229	0	32858	32655	
1230	0	32794	32734	
1231	0	32776	32714	
1232	0	32804	32810	
1233	0	32838	32810	
1234	0	32816	32708	
1235	0	32864	32832	
1236	0	32816	32794	
1237	0	32884	32708	
1238	0	32784	32832	
1239	0	32780	32752	
1240	0	32856	32716	
1241	0	32784	32718	
1242	0	32844	32660	
1243	0	32868	32764	
1244	0	32824	32839	
1245	0	32738	32716	
1246	0	32826	32740	
1247	0	32856	32666	
1248	0	32778	32726	
1249	0	32736	32684	
1250	0	32794	32808	
1251	0	32804	32826	
1252	0	32840	32724	
1253	0	32776	32820	
1254	0	32760	32836	
1255	0	32808	32638	
1256	0	32836	32828	
1257	0	32864	32802	
1258	0	32892	32680	
1259	0	32804	32750	
1260	0	32892	32746	
1261	0	32816	32820	
1262	0	32740	32768	
1263	0	32792	32692	
1264	0	32828	32791	
1265	0	32808	32810	
1266	0	32788	32662	
1267	0	32828	32828	
1268	0	32816	32690	
1269	0	32768	32822	
1270	0	32836	32716	
1271	0	32772	32666	
1272	0	32832	32740	
1273	0	32724	32800	
1274	0	32732	32810	
1275	0	32836	32750	
1276	0	32796	32682	
1277	0	32812	32756	
1278	0	32852	32792	
1279	0	32816	32710	
1280	0	32784	32808	
1281	0	32804	32738	
1282	0	32820	32838	
1283	0	32784	32676	
1284	0	32824	32786	
1285	0	32794	32824	
1286	0	32824	32764	
1287	0	32766	32814	
1288	0	32790	32794	
1289	0	32796	32708	
1290	0	32838	32812	
1291	0	32852	32756	
1292	0	32800	32864	
1293	0	32848	32655	
1294	0	32868	32810	
1295	0	32792	32775	
1296	0	32856	32752	
1297	0	32784	32806	
1298	0	32800	32796	
1299	0	32848	32700	
1300	0	32760	32744	
1301	0	32828	32912	
1302	0	32822	32680	
1303	0	32836	32786	
1304	0	32780	32775	
1305	0	32804	32775	
1306	0	32828	32804	
1307	0	32816	32724	
1308	0	32836	32710	
1309	0	32860	32775	
1310	0	32780	32814	
1311	0	32764	32852	
1312	0	32792	32625	
1313	0	32824	32814	
1314	0	32856	32814	
1315	0	32836	32694	
1316	0	32844	32878	
1317	0	32826	32807	
1318	0	32790	32632	
1319	0	32796	32868	
1320	0	32840	32760	
1321	0	32820	32744	
1322	0	32778	32886	
1323	0	32852	32846	
1324	0	32836	32654	
1325	0	32808	32820	
1326	0	32860	32742	
1327	0	32778	32686	
1328	0	32798	32774	
1329	0	32775	32796	
1330	0	32790	32716	
1331	0	32796	32775	
1332	0	32810	32676	
1333	0	32824	32708	
1334	0	32834	32824	
1335	0	32814	32822	
1336	0	32828	32814	
1337	0	32808	32708	
1338	0	32840	32796	
1339	0	32772	32688	
1340	0	32800	32742	
1341	0	32784	32806	
1342	0	32780	32842	
1343	0	32832	32704	
1344	0	32750	32767	
1345	0	32836	32732	
1346	0	32828	32718	
1347	0	32844	32792	
1348	0	32794	32758	
1349	0	32798	32898	
1350	0	32836	32842	
1351	0	32820	32696	
1352	0	32858	32762	
1353	0	32820	32742	
1354	0	32846	32818	
1355	0	32784	32792	
1356	0	32836	32710	
1357	0	32836	32856	
1358	0	32816	32794	
1359	0	32804	32744	
1360	0	32804	32775	
1361	0	32834	32772	
1362	0	32780	32636	
1363	0	32776	32816	
1364	0	32896	32866	
1365	0	32816	32743	
1366	0	32818	32756	
1367	0	32866	32724	
1368	0	32832	32832	
1369	0	32836	32750	
1370	0	32780	32700	
1371	0	32724	32836	
1372	0	32778	32859	
1373	0	32842	32720	
1374	0	32830	32774	
1375	0	32836	32775	
1376	0	32856	32806	
1377	0	32860	32856	
1378	0	32800	32743	
1379	0	32832	32694	
1380	0	32800	32807	
1381	0	32814	32775	
1382	0	32832	32751	
1383	0	32832	32682	
1384	0	32832	32854	
1385	0	32834	32770	
1386	0	32802	32682	
1387	0	32832	32708	
1388	0	32808	32758	
1389	0	32748	32868	
1390	0	32794	32750	
1391	0	32784	32738	
1392	0	32800	32744	
1393	0	32876	32686	
1394	0	32816	32756	
1395	0	32790	32696	
1396	0	32812	32796	
1397	0	32812	32774	
1398	0	32800	32807	
1399	0	32904	32844	
1400	0	32812	32775	
1401	0	32780	32684	
1402	0	32826	32802	
1403	0	32840	32849	
1404	0	32816	32697	
1405	0	32802	32798	
1406	0	32760	32815	
1407	0	32800	32844	
1408	0	32808	32728	
1409	0	32828	32844	
1410	0	32804	32844	
1411	0	32756	32748	
1412	0	32776	32768	
1413	0	32760	32775	
1414	0	32700	32820	
1415	0	32752	32788	
1416	0	32738	32772	
1417	0	32720	32804	
1418	0	32704	32888	
1419	0	32764	32748	
1420	0	32740	32866	
1421	0	32728	32670	
1422	0	32720	32791	
1423	0	32760	32802	
1424	0	32706	32728	
1425	0	32684	32878	
1426	0	32682	32822	
1427	0	32648	32700	
1428	0	32698	32859	
1429	0	32714	32886	
1430	0	32736	32826	
1431	0	32720	32860	
1432	0	32776	32862	
1433	0	32788	32775	
1434	0	32836	32775	
1435	0	32784	32800	
1436	0	32874	32654	
1437	0	32860	32712	
1438	0	32968	32690	
1439	0	32944	32688	
1440	0	33064	32572	
1441	0	33110	32652	
1442	0	33196	32514	
1443	0	33192	32536	
1444	0	33352	32592	
1445	0	33328	32472	
1446	0	33272	32548	
1447	0	33246	32604	
1448	0	33260	32562	
1449	0	33146	32732	
1450	0	33028	32790	
1451	0	32952	32903	
1452	0	32900	32775	
1453	0	32768	32866	
1454	0	32658	32804	
1455	0	32630	32892	
1456	0	32490	32826	
1457	0	32520	32872	
1458	0	32436	32974	
1459	0	32540	32775	
1460	0	32510	32782	
1461	0	32570	32958	
1462	0	32614	32872	
1463	0	32620	32775	
1464	0	32642	32840	
1465	0	32680	32816	
1466	0	32688	32694	
1467	0	32746	32764	
1468	0	32693	32808	
1469	0	32724	32663	
1470	0	32792	32772	
1471	0	32778	32782	
1472	0	32760	32788	
1473	0	32830	32774	
1474	0	32804	32806	
1475	0	32780	32928	
1476	0	32790	32708	
1477	0	32788	32676	
1478	0	32776	32798	
1479	0	32764	32768	
1480	0	32842	32724	
1481	0	32820	32874	
1482	0	32804	32840	
1483	0	32836	32738	
1484	0	32844	32748	
1485	0	32724	32815	
1486	0	32788	32764	
1487	0	32808	32708	
1488	0	32844	32772	
1489	0	32832	32718	
1490	0	32844	32692	
1491	0	32832	32700	
1492	0	32848	32826	
1493	0	32844	32838	
1494	0	32830	32740	
1495	0	32886	32764	
1496	0	32872	32700	
1497	0	32816	32758	
1498	0	32842	32724	
1499	0	32812	32800	
1500	0	32844	32830	
1501	0	32808	32684	
1502	0	32833	32790	
1503	0	32808	32712	
1504	0	32874	32772	
1505	0	32848	32690	
1506	0	32806	32775	
1507	0	32864	32824	
1508	0	32779	32775	
1509	0	32828	32748	
1510	0	32808	32758	
1511	0	32804	32716	
1512	0	32798	32828	
1513	0	32836	32828	
1514	0	32768	32798	
1515	0	32796	32748	
1516	0	32772	32726	
1517	0	32704	32886	
1518	0	32832	32740	
1519	0	32792	32692	
1520	0	32834	32750	
1521	0	32840	32822	
1522	0	32802	32714	
1523	0	32810	32711	
1524	0	32846	32871	
1525	0	32760	32790	
1526	0	32816	32768	
1527	0	32808	32656	
1528	0	32872	32878	
1529	0	32832	32743	
1530	0	32768	32706	
1531	0	32852	32692	
1532	0	32818	32788	
1533	0	32816	32806	
1534	0	32848	32679	
1535	0	32828	32728	
1536	0	32848	32802	
1537	0	32842	32775	
1538	0	32830	32682	
1539	0	32872	32864	
1540	0	32816	32807	
1541	0	32828	32775	
1542	0	32852	32692	
1543	0	32852	32852	
1544	0	32826	32846	
1545	0	32816	32708	
1546	0	32752	32792	
1547	0	32800	32775	
1548	0	32818	32710	
1549	0	32848	32836	
1550	0	32832	32756	
1551	0	32824	32834	
1552	0	32820	32734	
1553	0	32776	32762	
1554	0	32824	32872	
1555	0	32776	32696	
1556	0	32786	32840	
1557	0	32834	32768	
1558	0	32844	32718	
1559	0	32792	32688	
1560	0	32800	32746	
1561	0	32846	32766	
1562	0	32800	32796	
1563	0	32748	32802	
1564	0	32764	32816	
1565	0	32752	32670	
1566	0	32840	32796	
1567	0	32780	32728	
1568	0	32820	32786	
1569	0	32832	32808	
1570	0	32752	32788	
1571	0	32840	32816	
1572	0	32787	32718	
1573	0	32788	32814	
1574	0	32834	32846	
1575	0	32804	32742	
1576	0	32800	32796	
1577	0	32836	32849	
1578	0	32832	32710	
1579	0	32822	32804	
1580	0	32812	32774	
1581	0	32792	32820	
1582	0	32786	32742	
1583	0	32820	32734	
1584	0	32804	32800	
1585	0	32810	32684	
1586	0	32778	32854	
1587	0	32792	32792	
1588	0	32786	32798	
1589	0	32796	32662	
1590	0	32806	32768	
1591	0	32776	32818	
1592	0	32788	32697	
1593	0	32850	32744	
1594	0	32758	32788	
1595	0	32820	32746	
1596	0	32886	32786	
1597	0	32784	32880	
1598	0	32840	32724	
1599	0	32782	32772	
1600	0	32810	32802	
1601	0	32820	32638	
1602	0	32824	32870	
1603	0	32828	32756	
1604	0	32796	32790	
1605	0	32834	32678	
1606	0	32760	32806	
1607	0	32880	32770	
1608	0	32788	32828	
1609	0	32808	32644	
1610	0	32832	32822	
1611	0	32790	32820	
1612	0	32814	32702	
1613	0	32808	32802	
1614	0	32776	32663	
1615	0	32808	32884	
1616	0	32832	32812	
1617	0	32810	32760	
1618	0	32828	32748	
1619	0	32842	32791	
1620	0	32770	32808	
1621	0	32810	32674	
1622	0	32836	32816	
1623	0	32720	32764	
1624	0	32856	32762	
1625	0	32830	32696	
1626	0	32792	32726	
1627	0	32840	32744	
1628	0	32820	32772	
1629	0	32788	32679	
1630	0	32708	32775	
1631	0	32824	32760	
1632	0	32808	32678	
1633	0	32818	32846	
1634	0	32818	32844	
1635	0	32814	32926	
1636	0	32868	32746	
1637	0	32808	32826	
1638	0	32888	32808	
1639	0	32788	32714	
1640	0	32787	32814	
1641	0	32812	32766	
1642	0	32828	32775	
1643	0	32808	32772	
1644	0	32738	32720	
1645	0	32774	32690	
1646	0	32820	32868	
1647	0	32821	32792	
1648	0	32850	32702	
1649	0	32812	32727	
1650	0	32788	32804	
1651	0	32840	32748	
1652	0	32816	32702	
1653	0	32820	32828	
1654	0	32864	32804	
1655	0	32864	32742	
1656	0	32784	32694	
1657	0	32814	32748	
1658	0	32792	32796	
1659	0	32848	32716	
1660	0	32868	32832	
1661	0	32768	32756	
1662	0	32758	32895	
1663	0	32796	32668	
1664	0	32860	32700	
1665	0	32768	32748	
1666	0	32828	32808	
1667	0	32800	32700	
1668	0	32844	32686	
1669	0	32828	32774	
1670	0	32832	32792	
1671	0	32848	32783	
1672	0	32808	32646	
1673	0	32880	32774	
1674	0	32832	32794	
1675	0	32890	32744	
1676	0	32836	32775	
1677	0	32796	32714	
1678	0	32882	32752	
1679	0	32864	32647	
1680	0	32848	32838	
1681	0	32920	32774	
1682	0	32804	32738	
1683	0	32828	32718	
1684	0	32832	32794	
1685	0	32852	32738	
1686	0	32778	32770	
1687	0	32804	32750	
1688	0	32824	32692	
1689	0	32866	32764	
1690	0	32826	32775	
1691	0	32872	32662	
1692	0	32804	32774	
1693	0	32824	32694	
1694	0	32776	32838	
1695	0	32768	32842	
1696	0	32820	32722	
1697	0	32884	32775	
1698	0	32808	32782	
1699	0	32792	32816	
1700	0	32774	32746	
1701	0	32864	32806	
1702	0	32780	32807	
1703	0	32800	32728	
1704	0	32804	32792	
1705	0	32880	32762	
1706	0	32832	32702	
1707	0	32780	32726	
1708	0	32756	32732	
1709	0	32794	32760	
1710	0	32800	32839	
1711	0	32826	32769	
1712	0	32772	32844	
1713	0	32812	32742	
1714	0	32800	32766	
1715	0	32800	32744	
1716	0	32820	32736	
1717	0	32794	32842	
1718	0	32808	32716	
1719	0	32740	32824	
1720	0	32780	32722	
1721	0	32752	32704	
1722	0	32822	32752	
1723	0	32788	32784	
1724	0	32808	32752	
1725	0	32768	32728	
1726	0	32830	32728	
1727	0	32846	32814	
1728	0	32816	32766	
1729	0	32840	32718	
1730	0	32832	32794	
1731	0	32796	32865	
1732	0	32736	32866	
1733	0	32804	32700	
1734	0	32800	32700	
1735	0	32804	32827	
1736	0	32840	32816	
1737	0	32760	32662	
1738	0	32832	32814	
1739	0	32904	32752	
1740	0	32832	32880	
1741	0	32830	32858	
1742	0	32772	32714	
1743	0	32788	32844	
1744	0	32816	32746	
1745	0	32788	32800	
1746	0	32782	32748	
1747	0	32802	32784	
1748	0	32844	32728	
1749	0	32808	32638	
1750	0	32812	32774	
1751	0	32840	32832	
1752	0	32736	32712	
1753	0	32816	32774	
1754	0	32820	32794	
1755	0	32736	32752	
1756	0	32820	32798	
1757	0	32842	32818	
1758	0	32804	32744	
1759	0	32828	32796	
1760	0	32772	32850	
1761	0	32816	32696	
1762	0	32904	32866	
1763	0	32804	32838	
1764	0	32828	32684	
1765	0	32776	32914	
1766	0	32816	32804	
1767	0	32776	32766	
1768	0	32746	32742	
1769	0	32772	32816	
1770	0	32760	32784	
1771	0	32760	32662	
1772	0	32836	32775	
1773	0	32792	32738	
1774	0	32812	32732	
1775	0	32802	32748	
1776	0	32794	32822	
1777	0	32808	32775	
1778	0	32840	32676	
1779	0	32852	32775	
1780	0	32872	32780	
1781	0	32808	32768	
1782	0	32828	32660	
1783	0	32760	32730	
1784	0	32774	32766	
1785	0	32804	32739	
1786	0	32832	32664	
1787	0	32810	32766	
1788	0	32778	32774	
1789	0	32750	32730	
1790	0	32824	32812	
1791	0	32796	32764	
1792	0	32794	32670	
1793	0	32804	32748	
1794	0	32852	32695	
1795	0	32860	32740	
1796	0	32854	32775	
1797	0	32816	32726	
1798	0	32776	32660	
1799	0	32856	32800	
1800	0	32772	32714	
1801	0	32736	32840	
1802	0	32856	32806	
1803	0	32804	32678	
1804	0	32826	32946	
1805	0	32880	32838	
1806	0	32844	32768	
1807	0	32800	32888	
1808	0	32794	32800	
1809	0	32912	32682	
1810	0	32806	32775	
1811	0	32804	32774	
1812	0	32766	32660	
1813	0	32760	32767	
1814	0	32774	32720	
1815	0	32800	32789	
1816	0	32752	32744	
1817	0	32786	32786	
1818	0	32818	32832	
1819	0	32844	32800	
1820	0	32776	32852	
1821	0	32784	32830	
1822	0	32828	32769	
1823	0	32800	32842	
1824	0	32800	32814	
1825	0	32784	32752	
1826	0	32824	32758	
1827	0	32788	32828	
1828	0	32742	32724	
1829	0	32746	32828	
1830	0	32798	32732	
1831	0	32836	32724	
1832	0	32820	32788	
1833	0	32788	32794	
1834	0	32804	32726	
1835	0	32804	32796	
1836	0	32832	32641	
1837	0	32802	32796	
1838	0	32852	32756	
1839	0	32802	32650	
1840	0	32868	32782	
1841	0	32820	32798	
1842	0	32848	32743	
1843	0	32796	32788	
1844	0	32800	32760	
1845	0	32792	32698	
1846	0	32810	32784	
1847	0	32824	32798	
1848	0	32880	32692	
1849	0	32892	32769	
1850	0	32800	32772	
1851	0	32730	32868	
1852	0	32792	32742	
1853	0	32846	32766	
1854	0	32862	32828	
1855	0	32852	32824	
1856	0	32834	32816	
1857	0	32864	32774	
1858	0	32848	32790	
1859	0	32792	32720	
1860	0	32800	32756	
1861	0	32680	32815	
1862	0	32728	32696	
1863	0	32796	32750	
1864	0	32776	32816	
1865	0	32866	32682	
1866	0	32772	32756	
1867	0	32812	32688	
1868	0	32832	32839	
1869	0	32884	32756	
1870	0	32778	32812	
1871	0	32868	32824	
1872	0	32808	32744	
1873	0	32804	32868	
1874	0	32828	32838	
1875	0	32820	32844	
1876	0	32750	32812	
1877	0	32768	32774	
1878	0	32828	32700	
1879	0	32748	32852	
1880	0	32772	32754	
1881	0	32730	32740	
1882	0	32876	32751	
1883	0	32768	32662	
1884	0	32890	32766	
1885	0	32860	32730	
1886	0	32816	32796	
1887	0	32824	32802	
1888	0	32816	32822	
1889	0	32838	32858	
1890	0	32868	32768	
1891	0	32792	32708	
1892	0	32796	32808	
1893	0	32896	32724	
1894	0	32852	32664	
1895	0	32900	32788	
1896	0	32808	32774	
1897	0	32768	32744	
1898	0	32852	32806	
1899	0	32838	32808	
1900	0	32812	32708	
1901	0	32758	32752	
1902	0	32824	32802	
1903	0	32760	32728	
1904	0	32836	32832	
1905	0	32788	32822	
1906	0	32775	32704	
1907	0	32832	32711	
1908	0	32848	32750	
1909	0	32836	32775	
1910	0	32824	32746	
1911	0	32828	32756	
1912	0	32816	32678	
1913	0	32840	32704	
1914	0	32816	32768	
1915	0	32788	32696	
1916	0	32782	32820	
1917	0	32780	32784	
1918	0	32866	32618	
1919	0	32808	32844	
1920	0	32808	32832	
1921	0	32738	32718	
1922	0	32820	32742	
1923	0	32756	32734	
1924	0	32842	32743	
1925	0	32804	32656	
1926	0	32838	32794	
1927	0	32816	32704	
1928	0	32738	32891	
1929	0	32812	32846	
1930	0	32754	32670	
1931	0	32748	32784	
1932	0	32860	32880	
1933	0	32820	32775	
1934	0	32778	32746	
1935	0	32846	32788	
1936	0	32868	32810	
1937	0	32836	32748	
1938	0	32812	32772	
1939	0	32760	32750	
1940	0	32764	32764	
1941	0	32836	32700	
1942	0	32836	32812	
1943	0	32792	32796	
1944	0	32804	32711	
1945	0	32792	32826	
1946	0	32780	32769	
1947	0	32808	32676	
1948	0	32822	32736	
1949	0	32804	32816	
1950	0	32872	32754	
1951	0	32810	32768	
1952	0	32852	32742	
1953	0	32784	32870	
1954	0	32820	32708	
1955	0	32788	32824	
1956	0	32828	32926	
1957	0	32740	32719	
1958	0	32852	32820	
1959	0	32832	32903	
1960	0	32794	32808	
1961	0	32834	32728	
1962	0	32798	32724	
1963	0	32872	32762	
1964	0	32752	32686	
1965	0	32768	32734	
1966	0	32830	32796	
1967	0	32780	32734	
1968	0	32820	32754	
1969	0	32746	32750	
1970	0	32848	32708	
1971	0	32826	32772	
1972	0	32844	32764	
1973	0	32792	32724	
1974	0	32774	32816	
1975	0	32796	32864	
1976	0	32780	32750	
1977	0	32808	32768	
1978	0	32752	32830	
1979	0	32794	32852	
1980	0	32872	32672	
1981	0	32798	32740	
1982	0	32816	32652	
1983	0	32812	32772	
1984	0	32800	32743	
1985	0	32914	32832	
1986	0	32906	32884	
1987	0	32852	32694	
1988	0	32816	32806	
1989	0	32824	32770	
1990	0	32846	32810	
1991	0	32832	32696	
1992	0	32858	32816	
1993	0	32800	32768	
1994	0	32756	32784	
1995	0	32772	32844	
1996	0	32886	32790	
1997	0	32770	32758	
1998	0	32772	32698	
1999	0	32816	32775	
2000	0	32804	32740	
2001	0	32768	32856	
2002	0	32784	32748	
2003	0	32800	32798	
2004	0	32848	32679	
2005	0	32734	32694	
2006	0	32816	32704	
2007	0	32836	32804	
2008	0	32864	32842	
2009	0	32792	32732	
2010	0	32824	32784	
2011	0	32808	32775	
2012	0	32752	32728	
2013	0	32776	32806	
2014	0	32828	32834	
2015	0	32828	32730	
2016	0	32848	32756	
2017	0	32876	32856	
2018	0	32820	32660	
2019	0	32834	32775	
2020	0	32760	32708	
2021	0	32760	32814	
2022	0	32778	32810	
2023	0	32772	32808	
2024	0	32772	32820	
2025	0	32836	32775	
2026	0	32806	32684	
2027	0	32792	32775	
2028	0	32812	32724	
2029	0	32785	32844	
2030	0	32896	32836	
2031	0	32874	32686	
2032	0	32794	32754	
2033	0	32752	32762	
2034	0	32842	32750	
2035	0	32796	32680	
2036	0	32808	32794	
2037	0	32760	32740	
2038	0	32814	32700	
2039	0	32840	32772	
2040	0	32754	32671	
2041	0	32806	32775	
2042	0	32860	32678	
2043	0	32832	32760	
2044	0	32740	32684	
2045	0	32836	32751	
2046	0	32816	32844	
2047	0	32752	32742	
2048	0	32800	32794	
2049	0	32857	32830	
2050	0	32802	32742	
2051	0	32834	32738	
2052	0	32832	32799	
2053	0	32836	32906	
2054	0	32860	32774	
2055	0	32860	32690	
2056	0	32734	32775	
2057	0	32812	32832	
2058	0	32864	32748	
2059	0	32862	32732	
2060	0	32792	32806	
2061	0	32840	32744	
2062	0	32800	32772	
2063	0	32780	32722	
2064	0	32796	32654	
2065	0	32804	32744	
2066	0	32816	32798	
2067	0	32800	32834	
2068	0	32814	32802	
2069	0	32856	32666	
2070	0	32840	32784	
2071	0	32800	32768	
2072	0	32736	32656	
2073	0	32820	32918	
2074	0	32822	32806	
2075	0	32816	32712	
2076	0	32864	32880	
2077	0	32868	32764	
2078	0	32856	32716	
2079	0	32740	32760	
2080	0	32788	32772	
2081	0	32824	32708	
2082	0	32832	32794	
2083	0	32748	32708	
2084	0	32840	32766	
2085	0	32840	32896	
2086	0	32694	32808	
2087	0	32856	32742	
2088	0	32816	32724	
2089	0	32772	32798	
2090	0	32820	32816	
2091	0	32888	32702	
2092	0	32736	32663	
2093	0	32828	32788	
2094	0	32860	32746	
2095	0	32840	32772	
2096	0	32900	32702	
2097	0	32752	32812	
2098	0	32810	32712	
2099	0	32846	32828	
2100	0	32832	32750	
2101	0	32794	32812	
2102	0	32816	32788	
2103	0	32814	32750	
2104	0	32760	32808	
2105	0	32796	32722	
2106	0	32778	32786	
2107	0	32796	32734	
2108	0	32816	32809	
2109	0	32832	32722	
2110	0	32844	32728	
2111	0	32774	32896	
2112	0	32780	32871	
2113	0	32768	32698	
2114	0	32824	32789	
2115	0	32886	32808	
2116	0	32864	32808	
2117	0	32852	32870	
2118	0	32828	32840	
2119	0	32906	32740	
2120	0	32812	32884	
2121	0	32818	32772	
2122	0	32924	32690	
2123	0	32820	32774	
2124	0	32712	32792	
2125	0	32736	32742	
2126	0	32800	32754	
2127	0	32820	32648	
2128	0	32896	32842	
2129	0	32806	32872	
2130	0	32856	32732	
2131	0	32804	32764	
2132	0	32772	32800	
2133	0	32769	32766	
2134	0	32796	32748	
2135	0	32760	32788	
2136	0	32784	32800	
2137	0	32808	32806	
2138	0	32816	32780	
2139	0	32798	32775	
2140	0	32808	32820	
2141	0	32756	32752	
2142	0	32766	32726	
2143	0	32860	32764	
2144	0	32800	32660	
2145	0	32816	32770	
2146	0	32828	32800	
2147	0	32832	32678	
2148	0	32880	32766	
2149	0	32820	32834	
2150	0	32756	32740	
2151	0	32796	32810	
2152	0	32812	32745	
2153	0	32762	32758	
2154	0	32744	32698	
2155	0	32856	32832	
2156	0	32804	32820	
2157	0	32816	32818	
2158	0	32836	32728	
2159	0	32878	32804	
2160	0	32796	32774	
2161	0	32812	32682	
2162	0	32832	32756	
2163	0	32810	32804	
2164	0	32872	32680	
2165	0	32828	32775	
2166	0	32760	32807	
2167	0	32716	32712	
2168	0	32788	32712	
2169	0	32792	32818	
2170	0	32852	32688	
2171	0	32844	32688	
2172	0	32704	32800	
2173	0	32752	32896	
2174	0	32864	32744	
2175	0	32916	32732	
2176	0	32848	32802	
2177	0	32818	32840	
2178	0	32828	32736	
2179	0	32812	32806	
2180	0	32812	32788	
2181	0	32812	32780	
2182	0	32804	32802	
2183	0	32792	32844	
2184	0	32800	32684	
2185	0	32748	32820	
2186	0	32842	32784	
2187	0	32754	32756	
2188	0	32778	32828	
2189	0	32708	32826	
2190	0	32804	32692	
2191	0	32760	32796	
2192	0	32850	32818	
2193	0	32972	32756	
2194	0	32786	32824	
2195	0	32816	32700	
2196	0	32756	32860	
2197	0	32790	32775	
2198	0	32768	32698	
2199	0	32814	32834	
2200	0	32868	32766	
2201	0	32832	32730	
2202	0	32862	32846	
2203	0	32772	32818	
2204	0	32768	32714	
2205	0	32840	32792	
2206	0	32804	32798	
2207	0	32808	32658	
2208	0	32788	32775	
2209	0	32792	32775	
2210	0	32804	32628	
2211	0	32868	32760	
2212	0	32856	32743	
2213	0	32796	32712	
2214	0	32780	32804	
2215	0	32744	32810	
2216	0	32820	32760	
2217	0	32800	32757	
2218	0	32772	32707	
2219	0	32816	32720	
2220	0	32844	32800	
2221	0	32768	32708	
2222	0	32832	32816	
2223	0	32782	32820	
2224	0	32900	32692	
2225	0	32860	32860	
2226	0	32836	32762	
2227	0	32780	32858	
2228	0	32788	32838	
2229	0	32840	32708	
2230	0	32788	32800	
2231	0	32796	32802	
2232	0	32812	32743	
2233	0	32824	32736	
2234	0	32842	32647	
2235	0	32816	32700	
2236	0	32776	32732	
2237	0	32774	32816	
2238	0	32800	32756	
2239	0	32792	32808	
2240	0	32808	32752	
2241	0	32820	32886	
2242	0	32800	32772	
2243	0	32868	32728	
2244	0	32804	32822	
2245	0	32698	32820	
2246	0	32670	32744	
2247	0	32874	32764	
2248	0	32876	32832	
2249	0	32834	32684	
2250	0	32780	32784	
2251	0	32820	32736	
2252	0	32808	32706	
2253	0	32928	32810	
2254	0	32904	32800	
2255	0	32816	32714	
2256	0	32852	32824	
2257	0	32908	32804	
2258	0	32848	32672	
2259	0	32756	32806	
2260	0	32864	32775	
2261	0	32772	32750	
2262	0	32756	32736	
2263	0	32756	32740	
2264	0	32764	32742	
2265	0	32804	32684	
2266	0	32778	32744	
2267	0	32760	32830	
2268	0	32776	32774	
2269	0	32830	32700	
2270	0	32868	32754	
2271	0	32820	32816	
2272	0	32866	32688	
2273	0	32836	32768	
2274	0	32804	32862	
2275	0	32888	32702	
2276	0	32842	32794	
2277	0	32808	32791	
2278	0	32770	32632	
2279	0	32828	32750	
2280	0	32760	32638	
2281	0	32788	32752	
2282	0	32756	32788	
2283	0	32828	32814	
2284	0	32816	32846	
2285	0	32836	32732	
2286	0	32820	32762	
2287	0	32810	32734	
2288	0	32868	32788	
2289	0	32824	32774	
2290	0	32816	32852	
2291	0	32752	32916	
2292	0	32786	32756	
2293	0	32806	32800	
2294	0	32802	32808	
2295	0	32640	32732	
2296	0	32708	32746	
2297	0	32732	32732	
2298	0	33024	32691	
2299	0	33038	32775	
2300	0	32812	32864	
2301	0	32858	32775	
2302	0	32872	32746	
2303	0	32908	32774	
2304	0	32828	32762	
2305	0	32948	32742	
2306	0	32808	32836	
2307	0	32788	32714	
2308	0	32848	32812	
2309	0	32716	32775	
2310	0	32760	32720	
2311	0	32852	32744	
2312	0	32792	32768	
2313	0	32696	32758	
2314	0	32664	32716	
2315	0	32668	32658	
2316	0	32740	32732	
2317	0	32744	32656	
2318	0	32784	32848	
2319	0	32852	32724	
2320	0	32826	32854	
2321	0	32834	32858	
2322	0	32784	32708	
2323	0	32826	32847	
2324	0	32624	32886	
2325	0	32688	32775	
2326	0	32752	32892	
2327	0	32868	32766	
2328	0	32752	32840	
2329	0	32624	32918	
2330	0	32704	32864	
2331	0	32652	32854	
2332	0	32692	32758	
2333	0	32652	32782	
2334	0	32634	32716	
2335	0	32680	32868	
2336	0	32682	32900	
2337	0	32874	32775	
2338	0	32856	32764	
2339	0	32824	32874	
2340	0	32888	32656	
2341	0	32856	32730	
2342	0	32992	32628	
2343	0	33022	32628	
2344	0	33002	32646	
2345	0	32908	32714	
2346	0	33009	32816	
2347	0	33092	32582	
2348	0	33172	32568	
2349	0	33226	32492	
2350	0	33280	32592	
2351	0	33288	32440	
2352	0	33304	32532	
2353	0	33104	32706	
2354	0	33026	32775	
2355	0	32978	32836	
2356	0	32940	32708	
2357	0	32872	32756	
2358	0	32838	32840	
2359	0	32784	32930	
2360	0	32650	32967	
2361	0	32524	32742	
2362	0	32628	32826	
2363	0	32608	32794	
2364	0	32596	32775	
2365	0	32484	32822	
2366	0	32432	32836	
2367	0	32612	32846	
2368	0	32734	32775	
2369	0	32814	32798	
2370	0	32788	32856	
2371	0	32600	32812	
2372	0	32652	32690	
2373	0	32704	32804	
2374	0	32684	32746	
2375	0	32656	32860	
2376	0	32740	32774	
2377	0	32752	32646	
2378	0	32708	32854	
2379	0	32796	32758	
2380	0	32968	32748	
2381	0	32914	32794	
2382	0	32934	32750	
2383	0	32740	32858	
2384	0	32824	32843	
2385	0	32876	32744	
2386	0	32736	32874	
2387	0	32796	32842	
2388	0	32816	32804	
2389	0	32792	32819	
2390	0	32750	32750	
2391	0	32760	32822	
2392	0	32880	32744	
2393	0	32806	32788	
2394	0	32794	32702	
2395	0	32758	32724	
2396	0	32816	32820	
2397	0	32708	32718	
2398	0	32826	32870	
2399	0	32832	32732	
2400	0	32776	32688	
2401	0	32816	32732	
2402	0	32892	32748	
2403	0	32884	32678	
2404	0	32896	32676	
2405	0	32908	32736	
2406	0	32892	32676	
2407	0	32904	32716	
2408	0	32894	32684	
2409	0	32834	32647	
2410	0	32832	32760	
2411	0	32804	32790	
2412	0	32774	32878	
2413	0	32800	32798	
2414	0	32764	32738	
2415	0	32756	32762	
2416	0	32776	32748	
2417	0	32824	32630	
2418	0	32832	32718	
2419	0	32824	32778	
2420	0	32784	32670	
2421	0	32732	32884	
2422	0	32816	32806	
2423	0	32784	32775	
2424	0	32808	32758	
2425	0	32836	32798	
2426	0	32780	32924	
2427	0	32792	32710	
2428	0	32778	32775	
2429	0	32824	32816	
2430	0	32730	32856	
2431	0	32776	32828	
2432	0	32832	32892	
2433	0	32810	32910	
2434	0	32832	32743	
2435	0	32808	32804	
2436	0	32802	32767	
2437	0	32766	32622	
2438	0	32812	32720	
2439	0	32784	32775	
2440	0	32840	32620	
2441	0	32732	32792	
2442	0	32788	32828	
2443	0	32860	32712	
2444	0	32788	32732	
2445	0	32880	32752	
2446	0	32808	32920	
2447	0	32838	32816	
2448	0	32800	32814	
2449	0	32852	32746	
2450	0	32868	32788	
2451	0	32904	32876	
2452	0	32984	32764	
2453	0	32984	32734	
2454	0	32916	32767	
2455	0	32976	32743	
2456	0	33024	32642	
2457	0	32960	32742	
2458	0	33010	32836	
2459	0	32958	32713	
2460	0	32926	32736	
2461	0	32884	32670	
2462	0	32678	32692	
2463	0	32648	32716	
2464	0	32666	32718	
2465	0	32784	32700	
2466	0	32768	32698	
2467	0	32740	32686	
2468	0	32748	32836	
2469	0	32836	32775	
2470	0	32744	32860	
2471	0	32744	32692	
2472	0	32796	32746	
2473	0	32760	32728	
2474	0	32732	32870	
2475	0	32708	32762	
2476	0	32616	32678	
2477	0	32496	32766	
2478	0	32528	32814	
2479	0	32460	32764	
2480	0	32488	32854	
2481	0	32508	32800	
2482	0	32564	32772	
2483	0	32736	32790	
2484	0	32756	32740	
2485	0	32696	32772	
2486	0	32764	32676	
2487	0	32776	32672	
2488	0	32872	32824	
2489	0	32828	32775	
2490	0	32918	32694	
2491	0	32916	32818	
2492	0	32940	32775	
2493	0	32896	32727	
2494	0	32898	32852	
2495	0	32936	32801	
2496	0	32872	32678	
2497	0	32888	32786	
2498	0	32958	32767	
2499	0	32984	32742	
2500	0	33000	32736	
2501	0	32874	32750	
2502	0	32874	32866	
2503	0	32880	32774	
2504	0	32896	32806	
2505	0	32806	32807	
2506	0	32836	32860	
2507	0	32820	32812	
2508	0	32856	32732	
2509	0	32862	32756	
2510	0	32880	32732	
2511	0	32844	32744	
2512	0	32880	32818	
2513	0	32892	32704	
2514	0	32872	32798	
2515	0	32892	32698	
2516	0	32904	32752	
2517	0	32938	32852	
2518	0	32860	32896	
2519	0	32824	32824	
2520	0	32780	32922	
2521	0	32848	32738	
2522	0	32846	32732	
2523	0	32764	32810	
2524	0	32772	32648	
2525	0	32826	32729	
2526	0	32808	32864	
2527	0	32812	32742	
2528	0	32808	32748	
2529	0	32830	32764	
2530	0	32840	32660	
2531	0	32836	32772	
2532	0	32860	32798	
2533	0	32804	32684	
2534	0	32836	32754	
2535	0	32852	32830	
2536	0	32876	32676	
2537	0	32800	32844	
2538	0	32770	32856	
2539	0	32798	32614	
2540	0	32796	32796	
2541	0	32800	32856	
2542	0	32776	32698	
2543	0	32812	32836	
2544	0	32752	32944	
2545	0	32684	32742	
2546	0	32688	32868	
2547	0	32618	32892	
2548	0	32652	32716	
2549	0	33024	32846	
2550	0	32876	32876	
2551	0	33036	32736	
2552	0	33024	32798	
2553	0	33032	32754	
2554	0	32852	32654	
2555	0	32824	32714	
2556	0	32682	32684	
2557	0	32704	32647	
2558	0	32612	32722	
2559	0	32668	32792	
2560	0	32810	32940	
2561	0	32600	32942	
2562	0	32600	32758	
2563	0	32724	32790	
2564	0	32848	32810	
2565	0	32920	32820	
2566	0	32896	32934	
2567	0	32852	32790	
2568	0	32908	32848	
2569	0	32788	32800	
2570	0	32808	32650	
2571	0	32764	32622	
2572	0	32738	32732	
2573	0	32666	32568	
2574	0	32692	32684	
2575	0	32846	32672	
2576	0	32848	32790	
2577	0	32820	32775	
2578	0	32736	32614	
2579	0	32696	32650	
2580	0	32768	32772	
2581	0	32824	32679	
2582	0	32756	32864	
2583	0	32700	32868	
2584	0	32684	32757	
2585	0	32804	32792	
2586	0	32744	32724	
2587	0	32748	32820	
2588	0	32672	32750	
2589	0	32800	32586	
2590	0	32860	32679	
2591	0	32876	32704	
2592	0	32936	32636	
2593	0	32976	32804	
2594	0	33008	32820	
2595	0	33012	32647	
2596	0	32996	32770	
2597	0	32908	32690	
2598	0	32894	32648	
2599	0	33024	32718	
2600	0	32992	32714	
2601	0	32882	32775	
2602	0	32832	32656	
2603	0	32852	32775	
2604	0	32916	32775	
2605	0	32784	32692	
2606	0	32816	32775	
2607	0	32828	32992	
2608	0	32762	32820	
2609	0	32804	32988	
2610	0	32828	32879	
2611	0	32804	32804	
2612	0	32870	32756	
2613	0	32757	32775	
2614	0	32748	32770	
2615	0	32752	32904	
2616	0	32876	32976	
2617	0	32840	32734	
2618	0	32810	32824	
2619	0	32828	32754	
2620	0	32780	32760	
2621	0	32804	32814	
2622	0	32720	32794	
2623	0	32596	32624	
2624	0	32516	32820	
2625	0	32608	32784	
2626	0	32654	32752	
2627	0	32842	32708	
2628	0	32746	32760	
2629	0	32638	32724	
2630	0	32732	32660	
2631	0	32736	32724	
2632	0	32716	32724	
2633	0	32672	32668	
2634	0	32756	32796	
2635	0	32842	32796	
2636	0	32896	32824	
2637	0	32976	32816	
2638	0	32892	32810	
2639	0	33076	32828	
2640	0	32976	32774	
2641	0	32894	32700	
2642	0	32836	32796	
2643	0	32752	32696	
2644	0	32858	32714	
2645	0	32782	32696	
2646	0	32892	32742	
2647	0	33112	32838	
2648	0	33112	32802	
2649	0	33064	32870	
2650	0	32928	32830	
2651	0	32852	32653	
2652	0	32752	32732	
2653	0	32744	32692	
2654	0	32688	32640	
2655	0	32674	32763	
2656	0	32740	32772	
2657	0	32832	32616	
2658	0	32606	32694	
2659	0	32724	32772	
2660	0	32826	32840	
2661	0	32878	32844	
2662	0	32868	32807	
2663	0	33016	32718	
2664	0	32846	32822	
2665	0	32926	32862	
2666	0	32612	32822	
2667	0	32504	32638	
2668	0	32786	32854	
2669	0	32836	32944	
2670	0	32784	32854	
2671	0	32762	33031	
2672	0	32776	32902	
2673	0	32776	32964	
2674	0	32722	32938	
2675	0	32612	33010	
2676	0	32448	32670	
2677	0	32370	32754	
2678	0	32572	32742	
2679	0	32692	32602	
2680	0	32708	32538	
2681	0	32976	32472	
2682	0	32970	32306	
2683	0	33068	32476	
2684	0	33000	32622	
2685	0	32986	32444	
2686	0	32888	32538	
2687	0	32988	32590	
2688	0	32994	32672	
2689	0	32930	32884	
2690	0	32900	32812	
2691	0	32834	32640	
2692	0	32760	32810	
2693	0	32916	32788	
2694	0	32882	32772	
2695	0	32900	32794	
2696	0	32876	32862	
2697	0	32832	32938	
2698	0	32834	33020	
2699	0	32812	32988	
2700	0	32894	32944	
2701	0	32848	32966	
2702	0	32872	32948	
2703	0	32828	32700	
2704	0	32652	32666	
2705	0	32738	32647	
2706	0	32896	32720	
2707	0	32912	32766	
2708	0	32764	32756	
2709	0	32714	32820	
2710	0	32696	32762	
2711	0	32646	32816	
2712	0	32504	32828	
2713	0	32436	32808	
2714	0	32400	32792	
2715	0	32396	32536	
2716	0	32588	32554	
2717	0	32760	32570	
2718	0	32976	32644	
2719	0	32796	32700	
2720	0	32850	32712	
2721	0	32864	32986	
2722	0	32872	32956	
2723	0	32932	33159	
2724	0	32864	33132	
2725	0	33004	33112	
2726	0	32928	33100	
2727	0	33072	33108	
2728	0	32972	33084	
2729	0	32946	32806	
2730	0	32948	32598	
2731	0	32900	32580	
2732	0	32888	32514	
2733	0	32956	32226	
2734	0	32936	32354	
2735	0	32952	32213	
2736	0	32906	32574	
2737	0	32894	32660	
2738	0	32844	32727	
2739	0	32856	32716	
2740	0	32890	32860	
2741	0	32980	32812	
2742	0	32904	32844	
2743	0	32772	32994	
2744	0	32610	32836	
2745	0	32632	32860	
2746	0	32664	32628	
2747	0	32533	32684	
2748	0	32604	32900	
2749	0	32728	32748	
2750	0	32572	32834	
2751	0	32676	33030	
2752	0	32888	32984	
2753	0	32872	32794	
2754	0	32944	32872	
2755	0	32856	32804	
2756	0	33182	32632	
2757	0	33118	32520	
2758	0	32440	32414	
2759	0	32256	32532	
2760	0	32504	32478	
2761	0	32874	32624	
2762	0	32968	32766	
2763	0	32732	32732	
2764	0	32756	32879	
2765	0	32976	33284	
2766	0	32854	33232	
2767	0	32910	33088	
2768	0	33090	32872	
2769	0	33260	32967	
2770	0	33192	32834	
2771	0	32472	32612	
2772	0	32626	32726	
2773	0	32552	32716	
2774	0	32656	32540	
2775	0	32648	32550	
2776	0	32512	32522	
2777	0	32660	32616	
2778	0	32700	32816	
2779	0	32650	32892	
2780	0	32824	32694	
2781	0	32644	32774	
2782	0	32536	32836	
2783	0	32752	32916	
2784	0	32834	32782	
2785	0	33012	32572	
2786	0	32874	32636	
2787	0	33064	32636	
2788	0	33200	32926	
2789	0	33316	33174	
2790	0	32996	32992	
2791	0	32876	32944	
2792	0	32796	32650	
2793	0	32732	32758	
2794	0	32640	32708	
2795	0	32572	32540	
2796	0	32732	32746	
2797	0	32836	32628	
2798	0	32776	32548	
2799	0	32596	32600	
2800	0	32672	32480	
2801	0	32540	32692	
2802	0	32762	32856	
2803	0	32872	32744	
2804	0	32728	32663	
2805	0	32782	32708	
2806	0	32802	32938	
2807	0	32896	32922	
2808	0	32792	32950	
2809	0	32760	32928	
2810	0	32720	32820	
2811	0	32884	32718	
2812	0	32968	32774	
2813	0	32852	32932	
2814	0	32748	32624	
2815	0	32896	32492	
2816	0	32934	32532	
2817	0	33170	32644	
2818	0	33108	32654	
2819	0	32952	32804	
2820	0	32892	32694	
2821	0	32976	32767	
2822	0	32994	32806	
2823	0	32960	32836	
2824	0	32716	33152	
2825	0	32800	32992	
2826	0	32942	32920	
2827	0	32888	32966	
2828	0	32820	33012	
2829	0	32804	32818	
2830	0	32860	32748	
2831	0	32916	32654	
2832	0	32764	32460	
2833	0	32788	32594	
2834	0	32612	32567	
2835	0	32810	32478	
2836	0	32680	32486	
2837	0	32756	32616	
2838	0	32780	32718	
2839	0	32960	32852	
2840	0	32796	32928	
2841	0	32180	33002	
2842	0	32346	33048	
2843	0	32462	32968	
2844	0	32652	32876	
2845	0	32528	32822	
2846	0	32636	32936	
2847	0	32828	32956	
2848	0	32798	33023	
2849	0	33020	33000	
2850	0	33044	32752	
2851	0	33020	32842	
2852	0	33012	32948	
2853	0	33098	32740	
2854	0	33124	32878	
2855	0	33048	32844	
2856	0	33082	32484	
2857	0	32824	32580	
2858	0	32738	32734	
2859	0	32742	32558	
2860	0	32726	32446	
2861	0	32684	32530	
2862	0	32906	32282	
2863	0	33192	32231	
2864	0	33116	32390	
2865	0	32842	32586	
2866	0	32952	32775	
2867	0	33156	32626	
2868	0	33042	32700	
2869	0	33036	32618	
2870	0	32902	32470	
2871	0	32764	32678	
2872	0	32338	32678	
2873	0	32366	32753	
2874	0	32492	32676	
2875	0	32312	32856	
2876	0	32346	32767	
2877	0	32564	32896	
2878	0	32640	33089	
2879	0	32398	33220	
2880	0	32500	33136	
2881	0	32412	33114	
2882	0	32660	33308	
2883	0	32816	33420	
2884	0	32932	33318	
2885	0	32940	33148	
2886	0	32978	32922	
2887	0	33036	32584	
2888	0	33120	32592	
2889	0	33200	32426	
2890	0	33152	32362	
2891	0	32888	32532	
2892	0	32796	32380	
2893	0	32786	32312	
2894	0	32850	32464	
2895	0	32784	32572	
2896	0	32924	32775	
2897	0	32864	32808	
2898	0	32766	32794	
2899	0	32620	32854	
2900	0	33072	32838	
2901	0	32964	33012	
2902	0	32536	33142	
2903	0	32716	32790	
2904	0	32696	32848	
2905	0	32652	33194	
2906	0	32532	33076	
2907	0	32648	32944	
2908	0	32704	33104	
2909	0	32856	33088	
2910	0	33024	33204	
2911	0	32972	33420	
2912	0	32776	33372	
2913	0	32660	33148	
2914	0	32874	32814	
2915	0	32836	32519	
2916	0	32986	32100	
2917	0	33188	32294	
2918	0	33030	32540	
2919	0	32936	32408	
2920	0	32836	32504	
2921	0	32766	32578	
2922	0	32986	32510	
2923	0	32992	32423	
2924	0	33080	32344	
2925	0	32962	32432	
2926	0	32858	32494	
2927	0	32788	32546	
2928	0	33144	32336	
2929	0	32958	32492	
2930	0	32238	32416	
2931	0	32588	32656	
2932	0	32556	33086	
2933	0	32488	33040	
2934	0	32560	33031	
2935	0	32682	32954	
2936	0	32814	32810	
2937	0	33040	32492	
2938	0	32998	32510	
2939	0	32856	32662	
2940	0	32844	32726	
2941	0	32888	33078	
2942	0	32764	33070	
2943	0	32796	32996	
2944	0	32876	32758	
2945	0	32986	32402	
2946	0	33028	32752	
2947	0	33178	32974	
2948	0	33278	32945	
2949	0	33260	33238	
2950	0	32924	33222	
2951	0	32910	32988	
2952	0	32460	32668	
2953	0	32512	32458	
2954	0	32424	32452	
2955	0	32456	32208	
2956	0	32358	32148	
2957	0	32350	32225	
2958	0	32548	32284	
2959	0	32808	32596	
2960	0	32876	32370	
2961	0	32652	32774	
2962	0	32668	33000	
2963	0	32642	32962	
2964	0	32716	33020	
2965	0	32596	33174	
2966	0	32664	32960	
2967	0	32940	32900	
2968	0	32644	32750	
2969	0	32748	32850	
2970	0	33024	33092	
2971	0	32916	33106	
2972	0	32760	33364	
2973	0	32744	33454	
2974	0	32508	33410	
2975	0	32992	33156	
2976	0	32952	33104	
2977	0	33010	33120	
2978	0	33536	32872	
2979	0	33180	32706	
2980	0	32852	32486	
2981	0	32672	32622	
2982	0	33068	33287	
2983	0	33324	33020	
2984	0	33032	32572	
2985	0	32858	32088	
2986	0	33060	31840	
2987	0	33002	32062	
2988	0	33068	31872	
2989	0	32892	31804	
2990	0	32808	32038	
2991	0	32664	32016	
2992	0	32928	32196	
2993	0	32804	32348	
2994	0	32506	32502	
2995	0	32496	32544	
2996	0	32492	32670	
2997	0	32350	32968	
2998	0	32308	33118	
2999	0	32452	33447	
3000	0	32574	33528	
3001	0	32576	33524	
3002	0	32628	33866	
3003	0	32688	33888	
3004	0	32804	33863	
3005	0	32820	33446	
3006	0	32844	33020	
3007	0	32864	32452	
3008	0	32910	31874	
3009	0	33056	31750	
3010	0	33152	31560	
3011	0	33336	32024	
3012	0	33440	32582	
3013	0	33320	32708	
3014	0	32880	33031	
3015	0	32768	32912	
3016	0	32852	32788	
3017	0	32704	33318	
3018	0	32686	33196	
3019	0	32778	32946	
3020	0	32696	32756	
3021	0	32756	32670	
3022	0	32898	32902	
3023	0	32786	32842	
3024	0	32560	32770	
3025	0	32450	32662	
3026	0	32332	32352	
3027	0	32400	32232	
3028	0	32658	32372	
3029	0	32648	32296	
3030	0	32760	32798	
3031	0	32752	32980	
3032	0	32676	33130	
3033	0	32660	33116	
3034	0	32740	32942	
3035	0	32696	32903	
3036	0	32822	32788	
3037	0	32984	32784	
3038	0	33034	32712	
3039	0	32884	32712	
3040	0	32948	32810	
3041	0	32906	32960	
3042	0	33036	32750	
3043	0	33232	32860	
3044	0	33344	32748	
3045	0	33560	32532	
3046	0	33426	32694	
3047	0	33296	32792	
3048	0	33036	32538	
3049	0	32775	32660	
3050	0	32672	32604	
3051	0	32640	32882	
3052	0	32670	32736	
3053	0	32612	32916	
3054	0	32542	32956	
3055	0	32612	33066	
3056	0	32576	32775	
3057	0	32628	32506	
3058	0	32722	32296	
3059	0	32616	32522	
3060	0	32548	32708	
3061	0	32596	32682	
3062	0	32462	33418	
3063	0	32528	34136	
3064	0	32436	33948	
3065	0	32528	33570	
3066	0	32564	33142	
3067	0	32714	32433	
3068	0	32832	32176	
3069	0	33248	31874	
3070	0	33424	31702	
3071	0	33384	31748	
3072	0	33396	31850	
3073	0	33226	32374	
3074	0	32944	32672	
3075	0	32784	32878	
3076	0	32820	33091	
3077	0	32756	33436	
3078	0	32644	33462	
3079	0	32744	33314	
3080	0	32880	33188	
3081	0	32668	32974	
3082	0	32574	32828	
3083	0	32424	32584	
3084	0	32286	32834	
3085	0	32208	33094	
3086	0	32308	33198	
3087	0	32400	33319	
3088	0	32212	33460	
3089	0	32476	33702	
3090	0	32590	33132	
3091	0	32716	32351	
3092	0	32932	31932	
3093	0	33036	31984	
3094	0	33088	32450	
3095	0	33128	32238	
3096	0	33238	31894	
3097	0	33356	31458	
3098	0	33504	31606	
3099	0	33380	31606	
3100	0	33292	31936	
3101	0	33242	32436	
3102	0	33104	32874	
3103	0	33040	32876	
3104	0	32884	32972	
3105	0	32714	32940	
3106	0	32708	33052	
3107	0	32504	33108	
3108	0	32404	33424	
3109	0	32308	33360	
3110	0	32292	32894	
3111	0	32580	32820	
3112	0	32784	32614	
3113	0	32772	32746	
3114	0	32640	32966	
3115	0	32692	33174	
3116	0	32728	32935	
3117	0	32610	33370	
3118	0	32596	33614	
3119	0	32756	33600	
3120	0	32900	33974	
3121	0	32860	33480	
3122	0	32890	32848	
3123	0	32908	32492	
3124	0	32996	32622	
3125	0	32904	32500	
3126	0	32936	32248	
3127	0	32908	32064	
3128	0	32928	32006	
3129	0	32924	32168	
3130	0	32844	32256	
3131	0	33132	32676	
3132	0	33260	32388	
3133	0	33160	32294	
3134	0	33132	32492	
3135	0	33092	32410	
3136	0	32902	32586	
3137	0	32648	32398	
3138	0	32500	32536	
3139	0	32432	32750	
3140	0	32600	32860	
3141	0	32688	33172	
3142	0	32656	33600	
3143	0	32840	34095	
3144	0	32780	34246	
3145	0	32848	34004	
3146	0	32838	33604	
3147	0	32760	32975	
3148	0	32564	32692	
3149	0	32616	32062	
3150	0	32752	31634	
3151	0	32806	32572	
3152	0	32798	32858	
3153	0	32800	32988	
3154	0	32612	33126	
3155	0	32676	32996	
3156	0	32936	32856	
3157	0	33096	31934	
3158	0	33188	31156	
3159	0	33290	31406	
3160	0	33352	31452	
3161	0	33188	31514	
3162	0	33064	32036	
3163	0	32806	32220	
3164	0	32674	32538	
3165	0	32500	32576	
3166	0	32470	33028	
3167	0	32616	33588	
3168	0	32474	33592	
3169	0	32440	33700	
3170	0	32612	33408	
3171	0	32552	33354	
3172	0	32410	33364	
3173	0	32362	33830	
3174	0	32874	34046	
3175	0	32992	34142	
3176	0	32742	33892	
3177	0	32856	33306	
3178	0	32866	32696	
3179	0	32952	32196	
3180	0	32968	31646	
3181	0	32880	30860	
3182	0	33022	30972	
3183	0	33012	31582	
3184	0	33006	32156	
3185	0	33016	32348	
3186	0	33098	32287	
3187	0	33188	32544	
3188	0	33048	33090	
3189	0	33224	33090	
3190	0	33004	33320	
3191	0	32696	33638	
3192	0	32704	33346	
3193	0	32728	33254	
3194	0	32734	33474	
3195	0	32596	34033	
3196	0	32384	33994	
3197	0	32294	33942	
3198	0	32380	34140	
3199	0	32248	33864	
3200	0	32156	32992	
3201	0	32300	32244	
3202	0	32512	31744	
3203	0	32752	31856	
3204	0	32968	31864	
3205	0	33002	31687	
3206	0	32962	31568	
3207	0	33072	31536	
3208	0	33200	31878	
3209	0	33092	32252	
3210	0	32996	31888	
3211	0	32908	31816	
3212	0	32896	31662	
3213	0	32828	32014	
3214	0	32666	32154	
3215	0	32756	32376	
3216	0	32672	32586	
3217	0	32708	32846	
3218	0	32888	32890	
3219	0	32880	33244	
3220	0	32930	33348	
3221	0	32996	33622	
3222	0	33072	33566	
3223	0	33296	33422	
3224	0	33408	33836	
3225	0	33428	34390	
3226	0	33368	34554	
3227	0	33184	34718	
3228	0	33120	34888	
3229	0	33120	34500	
3230	0	32950	33462	
3231	0	32802	32070	
3232	0	32804	31064	
3233	0	32788	30887	
3234	0	32772	30792	
3235	0	32720	30802	
3236	0	32628	30868	
3237	0	32308	31239	
3238	0	32128	31898	
3239	0	32116	32502	
3240	0	32368	32540	
3241	0	32448	32512	
3242	0	32596	32424	
3243	0	32576	32450	
3244	0	32808	33188	
3245	0	32816	33538	
3246	0	32968	33578	
3247	0	32962	33540	
3248	0	32928	33396	
3249	0	32757	33260	
3250	0	32644	33644	
3251	0	32814	33636	
3252	0	32976	33444	
3253	0	33050	33336	
3254	0	33100	33052	
3255	0	33124	33276	
3256	0	32992	33584	
3257	0	32778	33732	
3258	0	32678	34080	
3259	0	32604	34076	
3260	0	32744	33318	
3261	0	32732	32320	
3262	0	32460	31588	
3263	0	32444	31304	
3264	0	32828	30864	
3265	0	32982	30746	
3266	0	32824	30868	
3267	0	32832	31308	
3268	0	32924	31910	
3269	0	32890	32032	
3270	0	32876	32310	
3271	0	32836	32904	
3272	0	32746	32970	
3273	0	32628	33228	
3274	0	32616	33134	
3275	0	32544	33086	
3276	0	32578	33304	
3277	0	32660	33374	
3278	0	32744	33377	
3279	0	32830	33378	
3280	0	32892	33880	
3281	0	32860	34180	
3282	0	32880	34342	
3283	0	32984	34433	
3284	0	33092	34298	
3285	0	33154	33524	
3286	0	33128	32634	
3287	0	33184	31690	
3288	0	32934	31399	
3289	0	32650	31222	
3290	0	32538	31076	
3291	0	32548	31386	
3292	0	32676	32038	
3293	0	32784	32344	
3294	0	32692	32928	
3295	0	32608	33030	
3296	0	32644	32940	
3297	0	32724	32704	
3298	0	32684	33154	
3299	0	32648	33036	
3300	0	32708	32786	
3301	0	32766	32586	
3302	0	32864	32519	
3303	0	32894	32176	
3304	0	33000	32512	
3305	0	33112	32884	
3306	0	33048	32358	
3307	0	33092	32359	
3308	0	33128	32218	
3309	0	33076	32326	
3310	0	33004	32458	
3311	0	32898	32836	
3312	0	32808	33482	
3313	0	32796	33966	
3314	0	32736	34088	
3315	0	32644	33799	
3316	0	32632	33454	
3317	0	32744	33287	
3318	0	32716	32844	
3319	0	32768	32404	
3320	0	32852	32294	
3321	0	32926	32280	
3322	0	32934	32420	
3323	0	32900	32852	
3324	0	32988	32879	
3325	0	32832	33086	
3326	0	32396	33214	
3327	0	32012	32948	
3328	0	32264	32470	
3329	0	32912	32460	
3330	0	33338	32462	
3331	0	33396	32252	
3332	0	33282	32276	
3333	0	33016	32128	
3334	0	32860	32660	
3335	0	32629	32970	
3336	0	32640	33258	
3337	0	32544	33614	
3338	0	32500	33636	
3339	0	32516	33458	
3340	0	32448	33102	
3341	0	32672	33102	
3342	0	32708	32998	
3343	0	32752	33332	
3344	0	32712	33200	
3345	0	32582	33012	
3346	0	32696	33020	
3347	0	32888	32610	
3348	0	32932	32263	
3349	0	32948	31942	
3350	0	32978	31618	
3351	0	33080	31248	
3352	0	32980	31622	
3353	0	32806	31524	
3354	0	32844	32068	
3355	0	32792	32144	
3356	0	32648	32194	
3357	0	32644	32408	
3358	0	32932	32412	
3359	0	32932	32775	
3360	0	33052	32772	
3361	0	33156	33232	
3362	0	33178	33409	
3363	0	33094	33382	
3364	0	32960	33278	
3365	0	32902	33287	
3366	0	32872	33224	
3367	0	32936	32812	
3368	0	32716	32775	
3369	0	32532	32593	
3370	0	32536	32830	
3371	0	32660	33056	
3372	0	32652	33108	
3373	0	32650	33148	
3374	0	32800	33543	
3375	0	32916	33704	
3376	0	32900	33746	
3377	0	32850	33564	
3378	0	32854	33494	
3379	0	32836	33302	
3380	0	32868	33316	
3381	0	32938	33354	
3382	0	32812	32666	
3383	0	32724	32060	
3384	0	32770	31908	
3385	0	32856	31684	
3386	0	32992	31516	
3387	0	33100	31374	
3388	0	32992	31322	
3389	0	32856	31654	
3390	0	32860	31956	
3391	0	32870	32398	
3392	0	32796	33304	
3393	0	32616	33728	
3394	0	32612	33796	
3395	0	32568	33574	
3396	0	32516	33716	
3397	0	32564	33050	
3398	0	32624	32814	
3399	0	32568	32814	
3400	0	32560	32950	
3401	0	32584	33038	
3402	0	32794	33046	
3403	0	32928	33156	
3404	0	33016	32596	
3405	0	32946	31612	
3406	0	32736	31308	
3407	0	32824	31726	
3408	0	32856	31967	
3409	0	32872	32852	
3410	0	32930	33766	
3411	0	33064	33964	
3412	0	33064	33666	
3413	0	32920	33240	
3414	0	32868	32956	
3415	0	32812	32720	
3416	0	32810	32534	
3417	0	32696	32748	
3418	0	32788	32830	
3419	0	32757	32384	
3420	0	32628	31784	
3421	0	32816	31724	
3422	0	32837	31994	
3423	0	32906	32202	
3424	0	33024	32398	
3425	0	32904	32492	
3426	0	32864	32342	
3427	0	32772	32334	
3428	0	32828	32406	
3429	0	32952	32816	
3430	0	32840	32950	
3431	0	32864	33172	
3432	0	33008	33478	
3433	0	32940	33992	
3434	0	32750	33671	
3435	0	32784	33518	
3436	0	32657	33297	
3437	0	32516	32960	
3438	0	32534	32732	
3439	0	32540	32470	
3440	0	32618	32463	
3441	0	32586	32502	
3442	0	32732	32700	
3443	0	32772	33796	
3444	0	32664	34332	
3445	0	32676	34068	
3446	0	32724	33386	
3447	0	32800	33252	
3448	0	32890	32810	
3449	0	32724	32044	
3450	0	32724	31464	
3451	0	32714	31088	
3452	0	32736	30940	
3453	0	32808	31280	
3454	0	32894	31796	
3455	0	33158	32286	
3456	0	33210	32828	
3457	0	33106	33008	
3458	0	33228	33338	
3459	0	33280	33988	
3460	0	33198	34260	
3461	0	33024	34070	
3462	0	32896	33446	
3463	0	32808	32836	
3464	0	32588	33105	
3465	0	32570	33566	
3466	0	32484	33210	
3467	0	32568	32360	
3468	0	32616	32208	
3469	0	32644	32166	
3470	0	32712	31828	
3471	0	32816	31648	
3472	0	32952	31740	
3473	0	32954	32476	
3474	0	32910	32784	
3475	0	32840	32480	
3476	0	32788	32198	
3477	0	32800	32080	
3478	0	32924	32372	
3479	0	32974	32476	
3480	0	32816	32576	
3481	0	32704	32452	
3482	0	32666	32492	
3483	0	32800	32852	
3484	0	33036	33352	
3485	0	32996	33645	
3486	0	32984	33844	
3487	0	32900	33904	
3488	0	32906	34042	
3489	0	32632	34006	
3490	0	32532	34372	
3491	0	32588	34228	
3492	0	32672	34272	
3493	0	32700	33628	
3494	0	32898	32872	
3495	0	32896	31823	
3496	0	32850	31016	
3497	0	32984	31036	
3498	0	33062	31034	
3499	0	32984	30876	
3500	0	32908	30960	
3501	0	32940	31248	
3502	0	32900	31713	
3503	0	32936	32204	
3504	0	32978	32456	
3505	0	32958	33332	
3506	0	32736	34114	
3507	0	32496	34180	
3508	0	32432	34174	
3509	0	32440	33886	
3510	0	32600	33580	
3511	0	32512	33268	
3512	0	32704	33236	
3513	0	32816	33704	
3514	0	32844	34278	
3515	0	32796	34468	
3516	0	32808	34500	
3517	0	32772	33726	
3518	0	32836	32560	
3519	0	32776	31506	
3520	0	32692	31082	
3521	0	32768	30340	
3522	0	32740	30320	
3523	0	32792	30170	
3524	0	32896	30828	
3525	0	32904	31304	
3526	0	33080	31274	
3527	0	33124	31996	
3528	0	33076	32582	
3529	0	33016	32916	
3530	0	32960	33324	
3531	0	32946	33890	
3532	0	32800	33916	
3533	0	32718	33584	
3534	0	32844	33790	
3535	0	32706	34056	
3536	0	32782	33918	
3537	0	32612	33860	
3538	0	32452	34031	
3539	0	32436	34442	
3540	0	32502	33956	
3541	0	32724	33188	
3542	0	32798	33116	
3543	0	32790	32662	
3544	0	32816	32218	
3545	0	32756	31852	
3546	0	32744	31822	
3547	0	32792	31742	
3548	0	32774	31526	
3549	0	32768	31888	
3550	0	32898	32308	
3551	0	32782	32400	
3552	0	32820	32678	
3553	0	32772	32720	
3554	0	32782	32986	
3555	0	32768	33066	
3556	0	32804	33140	
3557	0	32698	32990	
3558	0	32772	32767	
3559	0	32664	32788	
3560	0	32778	33080	
3561	0	32746	33184	
3562	0	32952	33350	
3563	0	33036	33292	
3564	0	33048	33630	
3565	0	32876	33736	
3566	0	32788	32878	
3567	0	32768	32512	
3568	0	32808	32632	
3569	0	32754	32658	
3570	0	32852	32456	
3571	0	32844	32448	
3572	0	32862	32460	
3573	0	32788	32438	
3574	0	32808	32028	
3575	0	32856	31528	
3576	0	32864	31462	
3577	0	32814	31486	
3578	0	32736	31911	
3579	0	32708	32332	
3580	0	32836	32510	
3581	0	32958	32964	
3582	0	33056	34012	
3583	0	33178	34868	
3584	0	32985	34472	
3585	0	32828	33522	
3586	0	32884	33063	
3587	0	32812	32564	
3588	0	32936	32140	
3589	0	33016	31800	
3590	0	32860	31612	
3591	0	32850	31676	
3592	0	32788	32244	
3593	0	32832	32257	
3594	0	33006	32576	
3595	0	33012	32936	
3596	0	32804	33192	
3597	0	32880	33444	
3598	0	33024	33996	
3599	0	32994	34142	
3600	0	32732	34462	
3601	0	32464	34372	
3602	0	32444	33724	
3603	0	32444	32916	
3604	0	32450	32246	
3605	0	32320	31910	
3606	0	32412	31930	
3607	0	32432	31684	
3608	0	32484	31722	
3609	0	32578	31776	
3610	0	32680	32270	
3611	0	32832	33012	
3612	0	32960	33244	
3613	0	32864	33268	
3614	0	32869	33144	
3615	0	32842	32932	
3616	0	32892	32660	
3617	0	32878	32592	
3618	0	32880	32528	
3619	0	32792	32410	
3620	0	32792	32558	
3621	0	32768	32702	
3622	0	32888	32912	
3623	0	32892	32944	
3624	0	32872	32888	
3625	0	32840	33218	
3626	0	32826	33400	
3627	0	32826	33072	
3628	0	32710	33190	
3629	0	32668	33063	
3630	0	32902	32914	
3631	0	32900	32312	
3632	0	32790	31602	
3633	0	32814	31472	
3634	0	32744	31262	
3635	0	32778	31100	
3636	0	33088	31938	
3637	0	33226	32599	
3638	0	33216	32855	
3639	0	33222	33108	
3640	0	33108	33287	
3641	0	33040	33222	
3642	0	32904	33402	
3643	0	32708	33576	
3644	0	32744	33476	
3645	0	32592	33768	
3646	0	32656	34290	
3647	0	32612	34100	
3648	0	32666	33644	
3649	0	32660	33072	
3650	0	32632	32668	
3651	0	32570	32504	
3652	0	32472	31780	
3653	0	32410	31860	
3654	0	32628	32560	
3655	0	32648	33254	
3656	0	32716	33080	
3657	0	32892	32774	
3658	0	32964	32524	
3659	0	33038	31924	
3660	0	32832	31728	
3661	0	32928	31744	
3662	0	32874	32018	
3663	0	32968	32107	
3664	0	33088	32496	
3665	0	33000	32372	
3666	0	32900	32416	
3667	0	32976	32898	
3668	0	33064	33012	
3669	0	33016	32812	
3670	0	32848	32807	
3671	0	32704	33224	
3672	0	32688	33672	
3673	0	32668	33810	
3674	0	32756	33516	
3675	0	32618	33070	
3676	0	32640	33096	
3677	0	32734	33016	
3678	0	32798	32984	
3679	0	32832	32932	
3680	0	32952	33102	
3681	0	32828	33281	
3682	0	32784	32775	
3683	0	32812	32440	
3684	0	32897	32538	
3685	0	32832	32580	
3686	0	32674	32292	
3687	0	32540	31592	
3688	0	32564	31540	
3689	0	32713	32268	
3690	0	32644	32554	
3691	0	32892	32566	
3692	0	33156	32676	
3693	0	33260	33062	
3694	0	33268	33542	
3695	0	33052	32998	
3696	0	32920	32922	
3697	0	32904	32664	
3698	0	32760	32583	
3699	0	32700	32863	
3700	0	32808	33244	
3701	0	32904	33212	
3702	0	32864	33279	
3703	0	32848	33208	
3704	0	32928	32704	
3705	0	32852	32826	
3706	0	32741	32775	
3707	0	32680	32908	
3708	0	32680	32668	
3709	0	32656	33094	
3710	0	32776	32942	
3711	0	32724	32615	
3712	0	32900	33024	
3713	0	32960	33256	
3714	0	33056	32836	
3715	0	32800	32452	
3716	0	32832	32340	
3717	0	32760	32072	
3718	0	32720	32162	
3719	0	32654	32124	
3720	0	32680	32092	
3721	0	32860	32230	
3722	0	32816	31992	
3723	0	32804	32344	
3724	0	32760	33048	
3725	0	32732	33368	
3726	0	32576	33418	
3727	0	32704	33268	
3728	0	32828	33188	
3729	0	33056	33816	
3730	0	32976	33799	
3731	0	32968	33592	
3732	0	32884	33486	
3733	0	32740	32864	
3734	0	32872	32386	
3735	0	32876	32164	
3736	0	32938	31830	
3737	0	32752	32070	
3738	0	32802	32064	
3739	0	32772	32664	
3740	0	32804	32992	
3741	0	32864	32858	
3742	0	32902	32746	
3743	0	32868	32704	
3744	0	32888	32825	
3745	0	32736	32984	
3746	0	32698	33002	
3747	0	32900	33704	
3748	0	33216	33710	
3749	0	33428	33156	
3750	0	33268	32710	
3751	0	33100	32436	
3752	0	32764	31660	
3753	0	32472	31559	
3754	0	32424	31600	
3755	0	32452	31428	
3756	0	32656	31528	
3757	0	32774	31682	
3758	0	32804	31664	
3759	0	32816	32082	
3760	0	32828	32748	
3761	0	32686	33566	
3762	0	32760	33522	
3763	0	32906	33744	
3764	0	32936	33936	
3765	0	32884	34126	
3766	0	32748	33714	
3767	0	32688	33566	
3768	0	32668	33386	
3769	0	32704	32878	
3770	0	32712	32936	
3771	0	32676	32768	
3772	0	32628	32314	
3773	0	32760	32216	
3774	0	32728	32196	
3775	0	32880	32610	
3776	0	32880	32788	
3777	0	32978	32952	
3778	0	33016	33422	
3779	0	33004	33614	
3780	0	32952	33350	
3781	0	32896	33132	
3782	0	32840	32820	
3783	0	32780	32312	
3784	0	32692	32344	
3785	0	32672	32388	
3786	0	32772	32372	
3787	0	32848	32564	
3788	0	32816	32662	
3789	0	32852	32670	
3790	0	32876	32423	
3791	0	32804	32574	
3792	0	32742	32376	
3793	0	32744	32680	
3794	0	32770	32742	
3795	0	32640	32974	
3796	0	32872	33169	
3797	0	32798	33126	
3798	0	32592	32624	
3799	0	32496	32128	
3800	0	32560	31904	
3801	0	32780	32062	
3802	0	32772	32236	
3803	0	32764	32446	
3804	0	32821	32511	
3805	0	32706	32604	
3806	0	32736	32572	
3807	0	32836	32759	
3808	0	32836	32686	
3809	0	32792	32958	
3810	0	32824	33222	
3811	0	32770	33473	
3812	0	32736	33760	
3813	0	32688	33650	
3814	0	32766	33762	
3815	0	32796	33602	
3816	0	32718	33356	
3817	0	32746	33340	
3818	0	32878	32822	
3819	0	32824	32263	
3820	0	32752	31888	
3821	0	32772	31896	
3822	0	32736	32284	
3823	0	32864	32878	
3824	0	32828	33248	
3825	0	32872	33350	
3826	0	32760	33034	
3827	0	33024	32876	
3828	0	33248	32340	
3829	0	33220	31922	
3830	0	33136	32046	
3831	0	33136	32380	
3832	0	32972	32647	
3833	0	32834	32476	
3834	0	32810	32828	
3835	0	32798	33564	
3836	0	32730	33905	
3837	0	32656	33900	
3838	0	32454	33302	
3839	0	32376	33084	
3840	0	32504	33122	
3841	0	32464	32957	
3842	0	32520	32216	
3843	0	32674	31874	
3844	0	32732	31772	
3845	0	32908	31830	
3846	0	33000	32036	
3847	0	32968	31886	
3848	0	32964	32096	
3849	0	32840	33044	
3850	0	32512	33356	
3851	0	32482	32874	
3852	0	32540	32799	
3853	0	32640	32588	
3854	0	32624	32612	
3855	0	32808	32602	
3856	0	32938	32808	
3857	0	32940	33148	
3858	0	32948	33122	
3859	0	32948	33207	
3860	0	32772	32724	
3861	0	32884	32928	
3862	0	32984	33310	
3863	0	32932	33004	
3864	0	32722	33048	
3865	0	32756	33060	
3866	0	32776	33538	
3867	0	32712	33988	
3868	0	32854	33774	
3869	0	32752	33394	
3870	0	32784	32586	
3871	0	32776	32231	
3872	0	32724	32074	
3873	0	32820	31984	
3874	0	32742	31838	
3875	0	32724	32044	
3876	0	32854	32180	
3877	0	32778	32652	
3878	0	32852	32879	
3879	0	32862	32934	
3880	0	32756	32540	
3881	0	32802	32250	
3882	0	32776	32410	
3883	0	32736	32662	
3884	0	32920	32644	
3885	0	33032	33186	
3886	0	33106	33484	
3887	0	33152	33696	
3888	0	33104	33832	
3889	0	32992	33225	
3890	0	32852	32660	
3891	0	32886	32440	
3892	0	32736	31750	
3893	0	32744	31590	
3894	0	32832	31552	
3895	0	32698	31620	
3896	0	32774	32516	
3897	0	32762	33342	
3898	0	32900	33868	
3899	0	32844	34048	
3900	0	32876	34236	
3901	0	32872	33950	
3902	0	32972	33520	
3903	0	32796	32852	
3904	0	32784	32135	
3905	0	32812	31822	
3906	0	32718	32094	
3907	0	32724	32572	
3908	0	32786	32932	
3909	0	32764	32710	
3910	0	32716	32483	
3911	0	32624	31974	
3912	0	32674	32080	
3913	0	32648	32202	
3914	0	32730	32236	
3915	0	32756	32732	
3916	0	32866	33092	
3917	0	32982	33004	
3918	0	33328	33168	
3919	0	33578	33766	
3920	0	33508	34136	
3921	0	33228	34328	
3922	0	32888	34054	
3923	0	32572	32921	
3924	0	32768	32151	
3925	0	32696	31452	
3926	0	32746	31254	
3927	0	32670	31304	
3928	0	32368	31334	
3929	0	32292	31892	
3930	0	32248	32644	
3931	0	32312	33276	
3932	0	32472	33520	
3933	0	32568	33134	
3934	0	32616	33442	
3935	0	32696	33524	
3936	0	32904	33304	
3937	0	32888	33816	
3938	0	32800	34052	
3939	0	32828	33248	
3940	0	32774	33012	
3941	0	32860	32764	
3942	0	32960	32018	
3943	0	32920	31496	
3944	0	32938	31280	
3945	0	32977	30920	
3946	0	32954	30702	
3947	0	32964	30724	
3948	0	32916	31520	
3949	0	33012	32592	
3950	0	32832	33114	
3951	0	32724	33450	
3952	0	32685	33678	
3953	0	32590	33978	
3954	0	32664	34153	
3955	0	32818	34070	
3956	0	32772	34174	
3957	0	32932	34162	
3958	0	32920	34160	
3959	0	32944	33880	
3960	0	33008	33612	
3961	0	32970	33162	
3962	0	32932	32808	
3963	0	32984	32988	
3964	0	32980	32850	
3965	0	32756	32074	
3966	0	32664	31606	
3967	0	32680	31466	
3968	0	32742	31398	
3969	0	32728	31386	
3970	0	32784	31310	
3971	0	32880	31596	
3972	0	32820	31751	
3973	0	32826	32276	
3974	0	32888	32602	
3975	0	33028	32872	
3976	0	32924	33058	
3977	0	32800	32852	
3978	0	32826	32890	
3979	0	32796	33116	
3980	0	32840	32994	
3981	0	32724	33452	
3982	0	32732	34628	
3983	0	32704	35470	
3984	0	32724	35174	
3985	0	32776	34734	
3986	0	32672	34375	
3987	0	32652	33567	
3988	0	32528	32494	
3989	0	32704	31476	
3990	0	32704	30832	
3991	0	32776	30756	
3992	0	32820	31334	
3993	0	32812	32101	
3994	0	32848	32371	
3995	0	32754	32322	
3996	0	32850	32416	
3997	0	32780	31834	
3998	0	32688	31046	
3999	0	32806	30900	
4000	0	33082	31724	
4001	0	33220	32572	
4002	0	33340	33016	
4003	0	32972	33278	
4004	0	32668	33280	
4005	0	32608	33410	
4006	0	32620	33472	
4007	0	32396	33494	
4008	0	32504	33506	
4009	0	32510	33530	
4010	0	32540	33414	
4011	0	32484	33600	
4012	0	32424	33280	
4013	0	32412	32952	
4014	0	32408	33698	
4015	0	32524	34246	
4016	0	32804	34372	
4017	0	32752	33894	
4018	0	32612	33222	
4019	0	32540	32980	
4020	0	32716	32360	
4021	0	32802	31548	
4022	0	33022	30536	
4023	0	33278	30012	
4024	0	33294	30020	
4025	0	33304	30436	
4026	0	33328	31516	
4027	0	33376	32136	
4028	0	33536	32636	
4029	0	33664	33223	
4030	0	33720	33820	
4031	0	33696	33634	
4032	0	33588	33446	
4033	0	33420	33130	
4034	0	33320	32920	
4035	0	33016	32892	
4036	0	32750	32790	
4037	0	32544	32336	
4038	0	32510	32818	
4039	0	32484	32848	
4040	0	32408	33056	
4041	0	32392	33126	
4042	0	32448	33494	
4043	0	32436	33822	
4044	0	32484	33911	
4045	0	32544	33574	
4046	0	32372	33264	
4047	0	32376	32954	
4048	0	32478	32680	
4049	0	32554	32430	
4050	0	32672	32582	
4051	0	32728	32470	
4052	0	32820	32438	
4053	0	32826	32868	
4054	0	32724	32788	
4055	0	32868	33130	
4056	0	32845	33958	
4057	0	32794	34538	
4058	0	32876	34116	
4059	0	32836	33612	
4060	0	32932	33144	
4061	0	32880	32588	
4062	0	32732	31260	
4063	0	32632	30280	
4064	0	32724	30332	
4065	0	32636	30880	
4066	0	32686	31616	
4067	0	32612	32312	
4068	0	32932	33220	
4069	0	33016	34472	
4070	0	33150	35064	
4071	0	33184	34818	
4072	0	33056	34088	
4073	0	32708	33278	
4074	0	32556	31868	
4075	0	32684	30992	
4076	0	32848	30616	
4077	0	33076	30464	
4078	0	33122	30772	
4079	0	33079	31302	
4080	0	32906	31946	
4081	0	32804	32480	
4082	0	32712	33064	
4083	0	32644	33752	
4084	0	32616	34136	
4085	0	32612	34008	
4086	0	32684	34088	
4087	0	32644	34750	
4088	0	32688	34902	
4089	0	32672	34518	
4090	0	32636	34232	
4091	0	32628	34290	
4092	0	32600	33304	
4093	0	32644	32650	
4094	0	32817	31786	
4095	0	32900	30592	
4096	0	32792	29892	
4097	0	32656	29926	
4098	0	32916	30576	
4099	0	32870	31072	
4100	0	32790	32070	
4101	0	32846	32742	
4102	0	32868	33012	
4103	0	32876	32934	
4104	0	32912	33360	
4105	0	32768	33352	
4106	0	32596	33170	
4107	0	32544	33108	
4108	0	32606	33584	
4109	0	32753	34055	
4110	0	32852	34154	
4111	0	32860	34016	
4112	0	32816	33856	
4113	0	32796	34120	
4114	0	32696	33914	
4115	0	32716	33222	
4116	0	32692	32998	
4117	0	32700	32270	
4118	0	32812	31764	
4119	0	32922	31424	
4120	0	32868	31016	
4121	0	32830	31082	
4122	0	32918	31616	
4123	0	32946	32248	
4124	0	32952	33174	
4125	0	32904	33576	
4126	0	32984	33716	
4127	0	32996	34008	
4128	0	32928	33734	
4129	0	32792	32990	
4130	0	32708	32468	
4131	0	32680	32508	
4132	0	32864	32222	
4133	0	32904	32352	
4134	0	32896	32644	
4135	0	32914	32720	
4136	0	32808	32516	
4137	0	32872	32156	
4138	0	32900	32410	
4139	0	32896	32682	
4140	0	32940	32618	
4141	0	33014	32464	
4142	0	33046	32580	
4143	0	33140	32599	
4144	0	33040	32602	
4145	0	32896	32576	
4146	0	32788	32736	
4147	0	32884	33180	
4148	0	32864	33524	
4149	0	32744	33308	
4150	0	32652	33220	
4151	0	32752	33128	
4152	0	32920	32750	
4153	0	32856	32710	
4154	0	32890	32647	
4155	0	32724	32656	
4156	0	32708	33116	
4157	0	32914	33638	
4158	0	32856	33600	
4159	0	32852	33415	
4160	0	32796	33372	
4161	0	32842	33388	
4162	0	32778	33164	
4163	0	32905	32818	
4164	0	32986	32879	
4165	0	32940	32935	
4166	0	32868	32620	
4167	0	32784	32166	
4168	0	32680	31796	
4169	0	32642	31924	
4170	0	32668	32212	
4171	0	32600	32540	
4172	0	32508	32556	
4173	0	32524	32598	
4174	0	32720	32558	
4175	0	32668	32546	
4176	0	32504	32860	
4177	0	32720	33054	
4178	0	32808	33062	
4179	0	32764	33208	
4180	0	32874	33362	
4181	0	33016	32408	
4182	0	32840	31412	
4183	0	32760	30983	
4184	0	32792	30512	
4185	0	32656	30775	
4186	0	32688	31160	
4187	0	32712	32120	
4188	0	32970	33404	
4189	0	32936	33950	
4190	0	32832	34372	
4191	0	32768	34311	
4192	0	32740	34188	
4193	0	32656	33472	
4194	0	32644	33210	
4195	0	32596	32818	
4196	0	32664	33002	
4197	0	32722	33184	
4198	0	32732	33466	
4199	0	32888	33388	
4200	0	32846	33338	
4201	0	32704	32896	
4202	0	32720	32816	
4203	0	32816	32824	
4204	0	32804	32720	
4205	0	32804	32738	
4206	0	32750	32534	
4207	0	32796	31954	
4208	0	32764	31729	
4209	0	32788	32022	
4210	0	32784	32652	
4211	0	32852	33416	
4212	0	32924	33312	
4213	0	32952	32862	
4214	0	32870	32700	
4215	0	32816	32488	
4216	0	32936	32108	
4217	0	32884	31941	
4218	0	32894	31848	
4219	0	32828	32358	
4220	0	32904	33127	
4221	0	32964	33596	
4222	0	33032	33316	
4223	0	32932	32944	
4224	0	32810	32458	
4225	0	32756	32436	
4226	0	32684	32346	
4227	0	32712	32332	
4228	0	32836	32330	
4229	0	32828	32740	
4230	0	32860	33450	
4231	0	32932	33594	
4232	0	32836	33566	
4233	0	32852	33578	
4234	0	32868	33720	
4235	0	32910	33018	
4236	0	33028	32406	
4237	0	33016	32132	
4238	0	33048	31900	
4239	0	33004	31648	
4240	0	32980	32206	
4241	0	32964	32591	
4242	0	32852	33362	
4243	0	32806	33976	
4244	0	32780	34128	
4245	0	32788	34216	
4246	0	32772	33782	
4247	0	32796	33066	
4248	0	32712	32588	
4249	0	32624	32204	
4250	0	32582	31680	
4251	0	32644	32134	
4252	0	32664	32708	
4253	0	32674	32748	
4254	0	32612	32508	
4255	0	32852	32436	
4256	0	32828	32332	
4257	0	32924	31948	
4258	0	33180	31956	
4259	0	33276	32326	
4260	0	33368	32836	
4261	0	33352	33542	
4262	0	33230	34436	
4263	0	32952	34272	
4264	0	32644	33718	
4265	0	32476	33208	
4266	0	32378	32796	
4267	0	32246	31646	
4268	0	32356	31236	
4269	0	32340	31036	
4270	0	32664	30764	
4271	0	32684	31032	
4272	0	32536	31654	
4273	0	32532	32672	
4274	0	32600	33604	
4275	0	32838	34144	
4276	0	32920	33732	
4277	0	33004	33460	
4278	0	32848	33086	
4279	0	32970	32904	
4280	0	32938	32418	
4281	0	32948	31984	
4282	0	32820	31804	
4283	0	32682	31537	
4284	0	32656	31856	
4285	0	32724	32519	
4286	0	32780	33068	
4287	0	32752	33358	
4288	0	32908	33686	
4289	0	32916	33596	
4290	0	32854	33748	
4291	0	32936	34224	
4292	0	32778	33960	
4293	0	32670	33432	
4294	0	32648	33320	
4295	0	32658	33254	
4296	0	32664	32796	
4297	0	32640	32624	
4298	0	32752	32376	
4299	0	32864	32428	
4300	0	32916	32278	
4301	0	32844	32166	
4302	0	32884	32302	
4303	0	32824	32350	
4304	0	32782	32660	
4305	0	32836	32580	
4306	0	32812	32304	
4307	0	32870	32398	
4308	0	32828	32385	
4309	0	32808	32600	
4310	0	32790	32518	
4311	0	32806	32700	
4312	0	32900	33142	
4313	0	32966	33208	
4314	0	33016	33334	
4315	0	33010	33452	
4316	0	33034	33038	
4317	0	32936	32822	
4318	0	32860	32966	
4319	0	32880	33054	
4320	0	32964	33234	
4321	0	32994	33510	
4322	0	32940	33370	
4323	0	32888	32934	
4324	0	32812	32656	
4325	0	32754	32382	
4326	0	32800	32074	
4327	0	32889	32282	
4328	0	32868	32942	
4329	0	32906	33112	
4330	0	32828	33254	
4331	0	32820	32710	
4332	0	32750	32272	
4333	0	32856	32212	
4334	0	32758	32724	
4335	0	32988	33086	
4336	0	32976	32870	
4337	0	32992	33270	
4338	0	33000	33700	
4339	0	33000	33098	
4340	0	32942	32230	
4341	0	32800	31783	
4342	0	32860	31276	
4343	0	32828	31110	
4344	0	32756	31102	
4345	0	32606	31552	
4346	0	32578	31748	
4347	0	32646	31960	
4348	0	32664	32343	
4349	0	32740	32552	
4350	0	32680	32823	
4351	0	32686	33196	
4352	0	32716	33260	
4353	0	32592	33252	
4354	0	32568	33412	
4355	0	32650	33412	
4356	0	32760	33478	
4357	0	32804	33926	
4358	0	32816	34054	
4359	0	32846	33914	
4360	0	32914	33460	
4361	0	32968	33204	
4362	0	32830	33006	
4363	0	32728	32724	
4364	0	32764	32646	
4365	0	32752	32711	
4366	0	32850	32935	
4367	0	32800	33236	
4368	0	32804	33248	
4369	0	32792	32994	
4370	0	32800	32846	
4371	0	32764	32764	
4372	0	32652	32584	
4373	0	32612	32246	
4374	0	32740	32282	
4375	0	32696	32468	
4376	0	32716	32716	
4377	0	32752	32812	
4378	0	32888	32916	
4379	0	32824	32610	
4380	0	32762	32098	
4381	0	32824	32042	
4382	0	32904	32056	
4383	0	32990	31934	
4384	0	33120	32206	
4385	0	33120	32084	
4386	0	33018	32007	
4387	0	32904	32218	
4388	0	32896	32519	
4389	0	32784	32836	
4390	0	32648	33026	
4391	0	32632	33226	
4392	0	32700	33382	
4393	0	32772	33184	
4394	0	32884	33112	
4395	0	32962	33340	
4396	0	32960	33682	
4397	0	32876	33864	
4398	0	32816	34162	
4399	0	32826	34268	
4400	0	32776	33906	
4401	0	32660	33128	
4402	0	32668	32326	
4403	0	32696	31656	
4404	0	32736	30896	
4405	0	32728	31592	
4406	0	32816	32210	
4407	0	32788	32920	
4408	0	32920	33460	
4409	0	32856	33320	
4410	0	32902	33328	
4411	0	32922	32882	
4412	0	32770	32644	
4413	0	32720	32376	
4414	0	32576	32042	
4415	0	32590	31594	
4416	0	32660	31606	
4417	0	32644	31564	
4418	0	32804	31608	
4419	0	33072	31994	
4420	0	33048	32620	
4421	0	32988	33620	
4422	0	32912	34268	
4423	0	32864	34704	
4424	0	32852	34406	
4425	0	32746	33658	
4426	0	32674	33388	
4427	0	32572	32800	
4428	0	32566	32422	
4429	0	32762	32330	
4430	0	32692	32700	
4431	0	32568	32458	
4432	0	32690	32208	
4433	0	32836	32370	
4434	0	32834	32454	
4435	0	32804	32728	
4436	0	32792	32470	
4437	0	32906	32244	
4438	0	33008	32601	
4439	0	33026	32512	
4440	0	33096	32744	
4441	0	33132	32556	
4442	0	33008	32821	
4443	0	32788	33248	
4444	0	32708	33336	
4445	0	32704	33330	
4446	0	32672	33168	
4447	0	32564	33238	
4448	0	32544	32980	
4449	0	32548	32588	
4450	0	32554	32448	
4451	0	32564	32052	
4452	0	32684	31694	
4453	0	32724	31724	
4454	0	32884	32016	
4455	0	32904	32196	
4456	0	32864	32567	
4457	0	32888	32998	
4458	0	33000	33844	
4459	0	32980	34100	
4460	0	32896	33712	
4461	0	32874	33236	
4462	0	32778	32894	
4463	0	32604	32728	
4464	0	32616	32452	
4465	0	32620	32300	
4466	0	32804	32294	
4467	0	32916	32908	
4468	0	32974	33180	
4469	0	33200	33081	
4470	0	33084	32840	
4471	0	32924	32647	
4472	0	32950	32900	
4473	0	32984	33046	
4474	0	32976	32678	
4475	0	32796	32254	
4476	0	32806	32046	
4477	0	32694	32205	
4478	0	32656	32200	
4479	0	32824	32330	
4480	0	32888	32446	
4481	0	32804	32282	
4482	0	32824	32726	
4483	0	32746	33048	
4484	0	32672	33100	
4485	0	32772	33206	
4486	0	32844	33274	
4487	0	32834	33255	
4488	0	32840	33351	
4489	0	32878	33098	
4490	0	32820	33178	
4491	0	32736	33218	
4492	0	32664	33370	
4493	0	32712	33258	
4494	0	32880	33534	
4495	0	32756	33346	
4496	0	32748	33004	
4497	0	32858	32792	
4498	0	32936	32546	
4499	0	33022	32422	
4500	0	32940	32346	
4501	0	32814	32448	
4502	0	32722	32532	
4503	0	32760	32334	
4504	0	32756	32278	
4505	0	32800	32164	
4506	0	32824	32600	
4507	0	32892	32784	
4508	0	33072	32908	
4509	0	33056	33078	
4510	0	32772	33202	
4511	0	32674	32870	
4512	0	32516	32616	
4513	0	32372	31856	
4514	0	32394	31488	
4515	0	32660	31566	
4516	0	32760	31846	
4517	0	32772	31680	
4518	0	32932	32388	
4519	0	32934	32896	
4520	0	32940	33140	
4521	0	32854	33166	
4522	0	32884	32860	
4523	0	32784	33080	
4524	0	32772	32916	
4525	0	32826	32932	
4526	0	32836	32968	
4527	0	32872	33010	
4528	0	32802	33004	
4529	0	32824	33172	
4530	0	32824	33454	
4531	0	32836	33580	
4532	0	32782	33580	
4533	0	32761	33724	
4534	0	32880	33620	
4535	0	32896	33442	
4536	0	32844	33078	
4537	0	32744	32759	
4538	0	32728	32690	
4539	0	32688	32564	
4540	0	32750	32263	
4541	0	32768	32180	
4542	0	32892	32408	
4543	0	32966	32494	
4544	0	32992	32454	
4545	0	33012	32398	
4546	0	33058	32368	
4547	0	32952	32208	
4548	0	32898	31908	
4549	0	32728	31916	
4550	0	32658	32160	
4551	0	32660	32410	
4552	0	32820	33000	
4553	0	32900	33306	
4554	0	32908	33566	
4555	0	32952	33204	
4556	0	32896	33248	
4557	0	32848	33150	
4558	0	32752	32852	
4559	0	32732	32340	
4560	0	32832	32368	
4561	0	32760	32550	
4562	0	32758	32956	
4563	0	32808	33024	
4564	0	32814	33016	
4565	0	32812	33112	
4566	0	32720	33095	
4567	0	32784	33048	
4568	0	32814	33114	
4569	0	32854	32966	
4570	0	32760	32916	
4571	0	32796	32708	
4572	0	32810	32444	
4573	0	32828	32368	
4574	0	32892	32280	
4575	0	32942	31972	
4576	0	32916	31838	
4577	0	32884	31956	
4578	0	32872	32340	
4579	0	32888	32644	
4580	0	32836	33158	
4581	0	32832	33692	
4582	0	33004	34198	
4583	0	32832	33738	
4584	0	32870	33240	
4585	0	32832	32662	
4586	0	32792	32508	
4587	0	32696	32334	
4588	0	32662	31820	
4589	0	32764	32086	
4590	0	32732	32679	
4591	0	32744	32744	
4592	0	32906	32592	
4593	0	32992	32442	
4594	0	32956	32584	
4595	0	32888	32972	
4596	0	32836	33106	
4597	0	32756	32958	
4598	0	32748	33068	
4599	0	32652	32890	
4600	0	32648	32694	
4601	0	32636	32286	
4602	0	32688	32104	
4603	0	32772	32556	
4604	0	32750	32868	
4605	0	32774	32868	
4606	0	32828	32888	
4607	0	32800	33068	
4608	0	32780	32984	
4609	0	32876	32918	
4610	0	32838	32928	
4611	0	32938	32912	
4612	0	32824	33084	
4613	0	32742	32871	
4614	0	32712	33262	
4615	0	32788	33356	
4616	0	32700	33166	
4617	0	32620	33351	
4618	0	32670	33134	
4619	0	32756	32954	
4620	0	32834	32716	
4621	0	32728	32391	
4622	0	32844	32416	
4623	0	32884	32628	
4624	0	32912	32664	
4625	0	32980	32636	
4626	0	32912	32578	
4627	0	32848	32358	
4628	0	32824	32647	
4629	0	32768	32614	
4630	0	32710	32072	
4631	0	32830	31978	
4632	0	32752	32074	
4633	0	32898	32104	
4634	0	32872	32382	
4635	0	32854	32866	
4636	0	32860	32852	
4637	0	32796	32616	
4638	0	32774	32742	
4639	0	32784	33015	
4640	0	32888	33152	
4641	0	32704	32988	
4642	0	32740	33054	
4643	0	32612	32980	
4644	0	32766	32816	
4645	0	32772	33008	
4646	0	32836	33176	
4647	0	32840	33127	
4648	0	32764	33140	
4649	0	32732	33368	
4650	0	32748	33383	
4651	0	32696	33454	
4652	0	32730	33002	
4653	0	32728	32862	
4654	0	32764	32680	
4655	0	32828	32284	
4656	0	32824	32358	
4657	0	32772	32647	
4658	0	32840	32668	
4659	0	32748	33024	
4660	0	32756	32844	
4661	0	32852	32564	
4662	0	32776	32135	
4663	0	32760	32274	
4664	0	32836	32551	
4665	0	32812	32804	
4666	0	32756	33064	
4667	0	32724	33135	
4668	0	32856	33356	
4669	0	32862	33012	
4670	0	32932	32518	
4671	0	32894	32050	
4672	0	32852	31560	
4673	0	32832	31770	
4674	0	32788	32122	
4675	0	32812	32048	
4676	0	32838	32322	
4677	0	32826	32472	
4678	0	32832	32452	
4679	0	32740	32796	
4680	0	32728	33552	
4681	0	32692	33742	
4682	0	32824	33734	
4683	0	32944	33516	
4684	0	33024	33492	
4685	0	32850	33210	
4686	0	32912	32708	
4687	0	32868	32492	
4688	0	32928	32263	
4689	0	32860	31976	
4690	0	32800	31840	
4691	0	32796	32052	
4692	0	32742	32376	
4693	0	32796	32992	
4694	0	32796	33136	
4695	0	32908	33108	
4696	0	32930	33356	
4697	0	32856	33270	
4698	0	32906	33412	
4699	0	32808	33444	
4700	0	32804	33458	
4701	0	32808	33448	
4702	0	32804	33296	
4703	0	32772	33086	
4704	0	32712	33076	
4705	0	32744	32938	
4706	0	32600	32974	
4707	0	32588	32940	
4708	0	32596	32720	
4709	0	32718	32284	
4710	0	32848	31652	
4711	0	32764	31196	
4712	0	32820	31172	
4713	0	32848	31420	
4714	0	33056	31700	
4715	0	33200	32048	
4716	0	33172	32647	
4717	0	33118	33068	
4718	0	32892	32876	
4719	0	32792	32670	
4720	0	32708	32670	
4721	0	32772	32802	
4722	0	32736	33216	
4723	0	32704	33008	
4724	0	32746	33448	
4725	0	32746	33383	
4726	0	32684	33248	
4727	0	32708	33170	
4728	0	32740	33282	
4729	0	32768	33220	
4730	0	32780	33254	
4731	0	32788	33543	
4732	0	32853	33488	
4733	0	32852	33204	
4734	0	32916	32790	
4735	0	32742	32588	
4736	0	32740	32660	
4737	0	32680	32580	
4738	0	32768	32910	
4739	0	32830	32956	
4740	0	32822	33064	
4741	0	32730	33092	
4742	0	32868	33054	
4743	0	32808	32886	
4744	0	32844	32812	
4745	0	32836	32372	
4746	0	32816	32210	
4747	0	32880	32231	
4748	0	32830	32132	
4749	0	32684	32000	
4750	0	32768	31730	
4751	0	32864	31888	
4752	0	32776	32076	
4753	0	32772	32276	
4754	0	32724	32668	
4755	0	32706	32732	
4756	0	32676	32944	
4757	0	32712	32716	
4758	0	32690	32808	
4759	0	32718	33170	
4760	0	32672	32807	
4761	0	32712	32484	
4762	0	32830	32452	
4763	0	32746	32684	
4764	0	32830	33150	
4765	0	32800	33116	
4766	0	32804	33246	
4767	0	32912	33388	
4768	0	32924	33028	
4769	0	33000	33020	
4770	0	32888	32902	
4771	0	32908	32896	
4772	0	32904	32790	
4773	0	33012	33320	
4774	0	33012	33374	
4775	0	32960	33238	
4776	0	32820	32972	
4777	0	32804	32842	
4778	0	32774	32900	
4779	0	32750	32960	
4780	0	32714	33104	
4781	0	32686	33062	
4782	0	32768	33340	
4783	0	32816	33662	
4784	0	32796	33342	
4785	0	32836	32892	
4786	0	32720	32198	
4787	0	32772	31956	
4788	0	32712	31432	
4789	0	32708	30994	
4790	0	32762	31212	
4791	0	32772	31572	
4792	0	32864	31796	
4793	0	32726	32202	
4794	0	32722	32566	
4795	0	32648	32790	
4796	0	32676	32992	
4797	0	32734	33202	
4798	0	32728	33031	
4799	0	32836	33134	
4800	0	32776	32960	
4801	0	32700	33054	
4802	0	32792	33330	
4803	0	32788	33108	
4804	0	32760	33140	
4805	0	32728	33103	
4806	0	32832	33026	
4807	0	32656	33216	
4808	0	32662	33164	
4809	0	32702	33014	
4810	0	32654	32988	
4811	0	32580	33114	
4812	0	32642	32904	
4813	0	32754	33152	
4814	0	32652	33102	
4815	0	32756	32900	
4816	0	32672	33090	
4817	0	32808	33214	
4818	0	32758	33044	
4819	0	32870	32852	
4820	0	32904	32742	
4821	0	33044	32560	
4822	0	33104	32372	
4823	0	33260	32158	
4824	0	33324	31766	
4825	0	33436	31792	
4826	0	33552	32052	
4827	0	33600	32199	
4828	0	33528	32207	
4829	0	33588	32484	
4830	0	33592	32726	
4831	0	33492	33148	
4832	0	33168	33440	
4833	0	32992	32900	
4834	0	32792	32484	
4835	0	32616	32286	
4836	0	32522	32186	
4837	0	32345	32156	
4838	0	32296	31976	
4839	0	32372	32488	
4840	0	32324	32896	
4841	0	32408	33130	
4842	0	32528	33236	
4843	0	32644	33172	
4844	0	32640	33263	
4845	0	32726	33216	
4846	0	32724	33046	
4847	0	32700	33188	
4848	0	32636	33020	
4849	0	32644	32960	
4850	0	32702	32868	
4851	0	32682	33140	
4852	0	32672	33208	
4853	0	32652	33116	
4854	0	32622	33072	
4855	0	32728	32856	
4856	0	32754	32724	
4857	0	32880	32624	
4858	0	32880	32542	
4859	0	32780	32736	
4860	0	32840	32422	
4861	0	32960	32602	
4862	0	32836	32622	
4863	0	32820	32580	
4864	0	32780	32746	
4865	0	32812	32662	
4866	0	32764	32870	
4867	0	32832	33036	
4868	0	32880	33078	
4869	0	32736	33064	
4870	0	32725	32910	
4871	0	32792	32660	
4872	0	32766	32804	
4873	0	32780	32832	
4874	0	32828	32750	
4875	0	32860	32791	
4876	0	32876	32766	
4877	0	32856	32814	
4878	0	32792	32806	
4879	0	32720	32848	
4880	0	32774	32792	
4881	0	32732	32508	
4882	0	32740	32448	
4883	0	32860	32572	
4884	0	32938	32519	
4885	0	32894	32600	
4886	0	32744	32568	
4887	0	32844	32628	
4888	0	32806	32750	
4889	0	32876	33128	
4890	0	32872	33210	
4891	0	32844	32838	
4892	0	32808	32616	
4893	0	32816	32548	
4894	0	32822	32436	
4895	0	32750	32454	
4896	0	32874	32775	
4897	0	32924	32810	
4898	0	32860	32665	
4899	0	32900	32532	
4900	0	32826	32536	
4901	0	32904	32424	
4902	0	32918	32368	
4903	0	32906	32593	
4904	0	32908	32860	
4905	0	32816	33000	
4906	0	32836	32806	
4907	0	32884	32950	
4908	0	32888	32970	
4909	0	32828	32992	
4910	0	32904	33068	
4911	0	32874	33156	
4912	0	32858	33324	
4913	0	32868	33360	
4914	0	32800	33374	
4915	0	32846	33127	
4916	0	32832	32766	
4917	0	32828	32482	
4918	0	32775	32254	
4919	0	32812	32454	
4920	0	32674	32556	
4921	0	32772	32856	
4922	0	32808	33012	
4923	0	32798	32986	
4924	0	32860	32704	
4925	0	32972	32788	
4926	0	32928	32810	
4927	0	32952	32876	
4928	0	32912	32702	
4929	0	32812	32892	
4930	0	32742	32964	
4931	0	32684	32658	
4932	0	32606	32428	
4933	0	32642	32488	
4934	0	32676	32428	
4935	0	32684	32218	
4936	0	32720	32324	
4937	0	32728	32529	
4938	0	32718	32772	
4939	0	32728	32980	
4940	0	32796	33210	
4941	0	32716	33078	
4942	0	32748	32836	
4943	0	32842	32751	
4944	0	32760	32700	
4945	0	32744	32744	
4946	0	32894	32632	
4947	0	32774	32748	
4948	0	32792	32903	
4949	0	32796	32972	
4950	0	32928	32916	
4951	0	32992	32502	
4952	0	32864	32314	
4953	0	32828	32294	
4954	0	32824	32336	
4955	0	32756	32596	
4956	0	32848	32714	
4957	0	32968	32932	
4958	0	32916	32962	
4959	0	32816	33044	
4960	0	32792	33084	
4961	0	32780	33190	
4962	0	32836	33158	
4963	0	32762	33176	
4964	0	32784	33128	
4965	0	32660	33258	
4966	0	32734	33126	
4967	0	32756	32998	
4968	0	32738	32640	
4969	0	32828	32416	
4970	0	32836	32390	
4971	0	32872	32448	
4972	0	32900	32430	
4973	0	32964	32596	
4974	0	32808	32610	
4975	0	32818	32844	
4976	0	32784	32944	
4977	0	32804	32918	
4978	0	32808	32936	
4979	0	32894	32772	
4980	0	32816	32860	
4981	0	32750	32716	
4982	0	32600	32484	
4983	0	32740	32556	
4984	0	32744	32680	
4985	0	32752	32619	
4986	0	32782	32588	
4987	0	32740	32472	
4988	0	32832	32816	
4989	0	32888	32986	
4990	0	32794	32716	
4991	0	32864	32822	
4992	0	32774	32900	
4993	0	32864	32934	
4994	0	32868	32998	
4995	0	32924	32806	
4996	0	32928	32893	
4997	0	32828	33045	
4998	0	32812	33016	
4999	0	32852	32764	
5000	0	32772	32575	
5001	0	32756	32208	
5002	0	32716	32274	
5003	0	32748	32310	
5004	0	32704	32670	
5005	0	32736	32928	
5006	0	32776	33130	
5007	0	32768	33046	
5008	0	32768	32964	
5009	0	32788	32968	
5010	0	32824	32720	
5011	0	32814	32636	
5012	0	32832	32570	
5013	0	32820	32506	
5014	0	32764	32514	
5015	0	32828	32486	
5016	0	32876	32408	
5017	0	32808	32608	
5018	0	32712	32846	
5019	0	32772	33204	
5020	0	32808	33264	
5021	0	32844	33447	
5022	0	32852	33228	
5023	0	32816	32848	
5024	0	32838	32844	
5025	0	32830	32636	
5026	0	32770	32570	
5027	0	32848	32428	
5028	0	32780	32676	
5029	0	32768	32740	
5030	0	32860	32460	
5031	0	32888	32380	
5032	0	32844	32448	
5033	0	32880	32742	
5034	0	32972	32756	
5035	0	32928	32968	
5036	0	32972	33120	
5037	0	32998	32988	
5038	0	32864	33054	
5039	0	32804	32795	
5040	0	32788	32902	
5041	0	32812	33054	
5042	0	32884	32956	
5043	0	32872	32586	
5044	0	32872	32612	
5045	0	32812	32640	
5046	0	32726	32366	
5047	0	32640	32558	
5048	0	32596	32820	
5049	0	32736	32862	
5050	0	32858	32972	
5051	0	32900	32852	
5052	0	32852	32866	
5053	0	32868	32832	
5054	0	32820	32653	
5055	0	32844	32706	
5056	0	32856	32794	
5057	0	32898	32704	
5058	0	32880	32834	
5059	0	32844	32806	
5060	0	32856	32980	
5061	0	32914	33063	
5062	0	32840	32916	
5063	0	32834	32878	
5064	0	32836	32740	
5065	0	32856	32574	
5066	0	32834	32634	
5067	0	32728	32727	
5068	0	32752	32474	
5069	0	32796	32450	
5070	0	32836	32558	
5071	0	32820	32644	
5072	0	32752	32500	
5073	0	32832	32376	
5074	0	32750	32519	
5075	0	32772	32548	
5076	0	32798	32519	
5077	0	32836	32646	
5078	0	32832	32888	
5079	0	32792	32746	
5080	0	32800	32954	
5081	0	32768	32946	
5082	0	32772	32742	
5083	0	32876	32960	
5084	0	32928	33062	
5085	0	32860	32966	
5086	0	32852	33086	
5087	0	32804	33030	
5088	0	32828	32984	
5089	0	32764	32920	
5090	0	32866	32894	
5091	0	32906	32934	
5092	0	32878	32858	
5093	0	32838	32678	
5094	0	32808	32532	
5095	0	32706	32496	
5096	0	32788	32631	
5097	0	32764	32632	
5098	0	32776	32730	
5099	0	32848	32912	
5100	0	32928	32978	
5101	0	32820	32954	
5102	0	32792	33026	
5103	0	32810	32960	
5104	0	32752	32932	
5105	0	32765	32720	
5106	0	32708	32608	
5107	0	32766	32660	
5108	0	32728	32668	
5109	0	32800	32886	
5110	0	32792	33055	
5111	0	32772	33124	
5112	0	32728	32888	
5113	0	32778	32820	
5114	0	32890	32650	
5115	0	32736	32606	
5116	0	32790	32375	
5117	0	32800	32292	
5118	0	32732	32374	
5119	0	32724	32360	
5120	0	32772	32708	
5121	0	32800	32798	
5122	0	32852	32806	
5123	0	32776	32900	
5124	0	32740	32820	
5125	0	32810	32660	
5126	0	32728	32884	
5127	0	32796	33014	
5128	0	32777	33096	
5129	0	32804	33188	
5130	0	32756	32952	
5131	0	32832	32628	
5132	0	32820	32647	
5133	0	32884	32534	
5134	0	32732	32628	
5135	0	32720	32752	
5136	0	32724	32892	
5137	0	32738	33020	
5138	0	32780	33176	
5139	0	32832	32906	
5140	0	32736	32800	
5141	0	32732	32616	
5142	0	32864	32750	
5143	0	32756	32775	
5144	0	32964	32404	
5145	0	32864	32472	
5146	0	32810	32352	
5147	0	32792	32374	
5148	0	32864	32578	
5149	0	32752	32616	
5150	0	32832	32886	
5151	0	32788	32970	
5152	0	32784	33052	
5153	0	32796	32994	
5154	0	32772	32856	
5155	0	32672	32676	
5156	0	32764	32860	
5157	0	32794	32842	
5158	0	32860	32660	
5159	0	32844	32614	
5160	0	32911	32600	
5161	0	32872	32519	
5162	0	32802	32764	
5163	0	32800	32772	
5164	0	32824	32772	
5165	0	32816	33090	
5166	0	32806	33158	
5167	0	32780	33119	
5168	0	32744	33124	
5169	0	32766	33184	
5170	0	32806	32988	
5171	0	32756	32930	
5172	0	32840	32832	
5173	0	32788	32663	
5174	0	32808	32705	
5175	0	32800	32556	
5176	0	32846	32596	
5177	0	32888	32391	
5178	0	32980	32384	
5179	0	32952	32516	
5180	0	32820	32340	
5181	0	32816	32528	
5182	0	32864	32644	
5183	0	32750	32728	
5184	0	32792	32944	
5185	0	32724	32948	
5186	0	32820	33044	
5187	0	32800	32966	
5188	0	32792	32962	
5189	0	32796	33006	
5190	0	32736	32792	
5191	0	32804	32704	
5192	0	32778	32828	
5193	0	32776	32848	
5194	0	32752	32876	
5195	0	32682	32728	
5196	0	32772	32500	
5197	0	32852	32550	
5198	0	32796	32624	
5199	0	32844	32756	
5200	0	32828	32702	
5201	0	32878	32926	
5202	0	32908	33096	
5203	0	32936	32960	
5204	0	32784	32726	
5205	0	32692	32696	
5206	0	32852	32692	
5207	0	32778	32556	
5208	0	32840	32508	
5209	0	32750	32439	
5210	0	32920	32578	
5211	0	32932	32836	
5212	0	32856	33036	
5213	0	32684	32798	
5214	0	32640	32560	
5215	0	32766	32582	
5216	0	32828	32634	
5217	0	32776	32564	
5218	0	32848	32524	
5219	0	32876	32826	
5220	0	32954	32868	
5221	0	32904	32820	
5222	0	32864	32910	
5223	0	32745	33056	
5224	0	32712	32990	
5225	0	32776	32996	
5226	0	32684	32792	
5227	0	32768	32782	
5228	0	32828	32803	
5229	0	32804	32775	
5230	0	32832	32720	
5231	0	32896	32931	
5232	0	32896	32826	
5233	0	32812	32788	
5234	0	32760	32806	
5235	0	32804	32828	
5236	0	32828	32828	
5237	0	32800	32792	
5238	0	32852	32866	
5239	0	32820	32812	
5240	0	32868	32602	
5241	0	32800	32527	
5242	0	32836	32454	
5243	0	32816	32644	
5244	0	32838	32738	
5245	0	32768	32748	
5246	0	32728	32680	
5247	0	32800	32886	
5248	0	32828	32770	
5249	0	32840	32748	
5250	0	32812	32898	
5251	0	32766	32800	
5252	0	32812	32752	
5253	0	32844	32890	
5254	0	32874	33036	
5255	0	32880	33030	
5256	0	32916	32902	
5257	0	32836	32743	
5258	0	32782	32718	
5259	0	32800	32806	
5260	0	32758	32844	
5261	0	32780	32743	
5262	0	32828	32752	
5263	0	32800	32718	
5264	0	32788	32820	
5265	0	32784	32734	
5266	0	32706	32471	
5267	0	32852	32684	
5268	0	32804	32618	
5269	0	32860	32682	
5270	0	32836	32646	
5271	0	32850	32680	
5272	0	32854	32960	
5273	0	32832	32958	
5274	0	32832	32760	
5275	0	32920	32822	
5276	0	32748	32742	
5277	0	32802	32348	
5278	0	32836	32444	
5279	0	32772	32528	
5280	0	32756	32696	
5281	0	32714	32900	
5282	0	32816	32702	
5283	0	32832	32468	
5284	0	32856	32323	
5285	0	32868	32798	
5286	0	32824	33159	
5287	0	32804	33146	
5288	0	32708	33191	
5289	0	32676	33156	
5290	0	32712	33076	
5291	0	32776	33089	
5292	0	32796	33047	
5293	0	32764	33026	
5294	0	32660	32672	
5295	0	32700	32274	
5296	0	32718	32444	
5297	0	32704	32472	
5298	0	32700	32346	
5299	0	32846	32598	
5300	0	32784	32980	
5301	0	32864	33156	
5302	0	32800	33008	
5303	0	32820	33000	
5304	0	32864	32580	
5305	0	32736	32450	
5306	0	32860	32318	
5307	0	32852	32494	
5308	0	32892	32766	
5309	0	32762	32726	
5310	0	32794	32762	
5311	0	32836	32712	
5312	0	32778	32582	
5313	0	32796	32440	
5314	0	32752	32730	
5315	0	32808	33006	
5316	0	32762	32862	
5317	0	32776	32742	
5318	0	32878	32602	
5319	0	32830	32400	
5320	0	32716	32666	
5321	0	32806	32792	
5322	0	32704	33108	
5323	0	32744	33030	
5324	0	32682	32948	
5325	0	32788	32898	
5326	0	32902	32894	
5327	0	32912	33306	
5328	0	32842	33322	
5329	0	32664	33224	
5330	0	32712	33352	
5331	0	32744	33024	
5332	0	32736	32748	
5333	0	32752	32520	
5334	0	32804	32368	
5335	0	32852	32260	
5336	0	32868	32270	
5337	0	32828	32196	
5338	0	32736	32512	
5339	0	32772	32634	
5340	0	32782	32622	
5341	0	32792	32490	
5342	0	32920	32636	
5343	0	33046	32856	
5344	0	33048	32748	
5345	0	33036	32725	
5346	0	32892	32588	
5347	0	32866	32670	
5348	0	32800	32942	
5349	0	32684	33586	
5350	0	32732	33670	
5351	0	32782	33462	
5352	0	32793	33140	
5353	0	32752	33116	
5354	0	32759	32692	
5355	0	32770	32354	
5356	0	32718	32230	
5357	0	32840	32170	
5358	0	32736	32312	
5359	0	32836	32648	
5360	0	32880	32740	
5361	0	32778	32612	
5362	0	32740	32832	
5363	0	32728	32806	
5364	0	32682	32572	
5365	0	32666	32544	
5366	0	32724	32360	
5367	0	32708	32142	
5368	0	32824	32558	
5369	0	32740	32684	
5370	0	32820	32864	
5371	0	32922	33036	
5372	0	32966	32902	
5373	0	32900	32806	
5374	0	32812	32882	
5375	0	32820	32798	
5376	0	32792	32716	
5377	0	32796	32659	
5378	0	32786	32616	
5379	0	32916	32830	
5380	0	32860	32896	
5381	0	32862	32998	
5382	0	32760	32871	
5383	0	32842	32876	
5384	0	32824	32954	
5385	0	32754	33012	
5386	0	32740	32991	
5387	0	32812	33031	
5388	0	32780	33031	
5389	0	32878	32914	
5390	0	32874	32942	
5391	0	32770	32820	
5392	0	32872	32804	
5393	0	32868	33217	
5394	0	32848	33320	
5395	0	32874	33124	
5396	0	32916	33106	
5397	0	32924	32860	
5398	0	32908	32392	
5399	0	32874	32116	
5400	0	32886	31834	
5401	0	32880	31616	
5402	0	32868	31580	
5403	0	32960	31872	
5404	0	32958	32278	
5405	0	32872	32536	
5406	0	32840	32724	
5407	0	32822	32976	
5408	0	32872	33054	
5409	0	32864	33310	
5410	0	32836	33386	
5411	0	32826	33216	
5412	0	32756	33298	
5413	0	32688	33226	
5414	0	32640	33031	
5415	0	32734	33186	
5416	0	32600	33192	
5417	0	32640	33054	
5418	0	32844	33092	
5419	0	32756	32830	
5420	0	32762	32660	
5421	0	32804	32644	
5422	0	32718	32532	
5423	0	32884	32478	
5424	0	32900	32615	
5425	0	32856	32432	
5426	0	32882	32270	
5427	0	32856	32252	
5428	0	32792	32324	
5429	0	32900	32788	
5430	0	32944	33318	
5431	0	32998	33284	
5432	0	32964	33172	
5433	0	32880	33204	
5434	0	32932	33040	
5435	0	32928	32730	
5436	0	32902	32442	
5437	0	32976	32052	
5438	0	32860	31878	
5439	0	32712	32134	
5440	0	32612	32208	
5441	0	32696	32196	
5442	0	32708	32358	
5443	0	32744	32588	
5444	0	32760	32916	
5445	0	32780	33280	
5446	0	32740	33160	
5447	0	32724	33438	
5448	0	32768	33322	
5449	0	32820	33188	
5450	0	32748	33060	
5451	0	32792	32924	
5452	0	32836	32948	
5453	0	32768	32988	
5454	0	32708	33316	
5455	0	32692	33022	
5456	0	32712	32482	
5457	0	32766	32116	
5458	0	32946	32142	
5459	0	32940	32454	
5460	0	32864	32400	
5461	0	32846	32578	
5462	0	32874	32676	
5463	0	32962	32826	
5464	0	32942	32970	
5465	0	32926	33044	
5466	0	32828	32828	
5467	0	32864	32886	
5468	0	32802	32968	
5469	0	32672	32992	
5470	0	32776	32952	
5471	0	32720	33124	
5472	0	32736	33198	
5473	0	32900	33088	
5474	0	32868	33056	
5475	0	32840	32794	
5476	0	32756	32806	
5477	0	32784	32756	
5478	0	32934	32596	
5479	0	32812	32358	
5480	0	32710	32263	
5481	0	32708	32007	
5482	0	32756	32302	
5483	0	32808	32590	
5484	0	32796	32428	
5485	0	32780	32488	
5486	0	32752	32638	
5487	0	32852	32954	
5488	0	32872	33340	
5489	0	32860	33150	
5490	0	32868	33216	
5491	0	32698	32884	
5492	0	32720	32722	
5493	0	32712	32526	
5494	0	32760	32332	
5495	0	32864	32354	
5496	0	32822	32548	
5497	0	32920	32806	
5498	0	32860	32768	
5499	0	32828	32852	
5500	0	32884	32992	
5501	0	32818	33126	
5502	0	32862	33102	
5503	0	32796	33056	
5504	0	32836	33088	
5505	0	32800	32992	
5506	0	32762	32804	
5507	0	32706	32676	
5508	0	32720	32600	
5509	0	32670	32716	
5510	0	32712	32652	
5511	0	32748	32596	
5512	0	32724	32832	
5513	0	32748	32897	
5514	0	32752	32894	
5515	0	32792	33016	
5516	0	32882	32830	
5517	0	32832	32932	
5518	0	32740	32624	
5519	0	32760	32652	
5520	0	32674	32756	
5521	0	32744	32950	
5522	0	32704	33102	
5523	0	32725	32766	
5524	0	32740	32600	
5525	0	32884	32568	
5526	0	32792	32504	
5527	0	32876	32519	
5528	0	32912	32502	
5529	0	32938	32494	
5530	0	33008	32359	
5531	0	33000	32263	
5532	0	32852	32590	
5533	0	32725	32840	
5534	0	32812	32871	
5535	0	32856	32700	
5536	0	32784	32638	
5537	0	32732	32740	
5538	0	32836	32750	
5539	0	32812	32774	
5540	0	32748	32903	
5541	0	32756	32852	
5542	0	32800	32838	
5543	0	32840	33002	
5544	0	32928	33228	
5545	0	32818	33218	
5546	0	32852	33402	
5547	0	32856	33663	
5548	0	32828	33456	
5549	0	32862	33136	
5550	0	32878	32842	
5551	0	32860	32487	
5552	0	32804	32256	
5553	0	32790	31884	
5554	0	32888	31888	
5555	0	32800	32316	
5556	0	32856	32484	
5557	0	32924	32510	
5558	0	32834	32551	
5559	0	32920	32678	
5560	0	32920	32962	
5561	0	33002	33208	
5562	0	32916	33156	
5563	0	32804	33198	
5564	0	32816	33052	
5565	0	32852	32961	
5566	0	32848	32874	
5567	0	32824	32698	
5568	0	32716	32760	
5569	0	32712	32932	
5570	0	32780	32884	
5571	0	32808	32652	
5572	0	32796	32456	
5573	0	32844	32454	
5574	0	32762	32624	
5575	0	32798	32412	
5576	0	32872	32734	
5577	0	32894	32912	
5578	0	32898	32604	
5579	0	32902	32492	
5580	0	32870	32642	
5581	0	32836	32646	
5582	0	32848	32846	
5583	0	32762	32748	
5584	0	32764	32750	
5585	0	32812	32998	
5586	0	32788	33094	
5587	0	32780	32952	
5588	0	32728	32920	
5589	0	32754	32866	
5590	0	32768	33026	
5591	0	32752	33046	
5592	0	32788	33098	
5593	0	32856	32972	
5594	0	32884	32930	
5595	0	32828	32967	
5596	0	32694	32638	
5597	0	32668	32672	
5598	0	32712	32750	
5599	0	32660	32804	
5600	0	32650	32768	
5601	0	32620	32694	
5602	0	32644	32548	
5603	0	32706	32462	
5604	0	32798	32506	
5605	0	32830	32626	
5606	0	32838	32332	
5607	0	32798	32550	
5608	0	32740	32494	
5609	0	32710	32716	
5610	0	32788	33076	
5611	0	32792	33044	
5612	0	32840	32906	
5613	0	32738	32744	
5614	0	32660	33078	
5615	0	32624	33300	
5616	0	32720	33492	
5617	0	32768	33516	
5618	0	32696	33566	
5619	0	32730	33132	
5620	0	32784	32540	
5621	0	32848	32280	
5622	0	32868	31904	
5623	0	32904	31640	
5624	0	33066	31764	
5625	0	33056	31956	
5626	0	33202	32135	
5627	0	33242	32174	
5628	0	33328	32401	
5629	0	33360	32484	
5630	0	33528	32618	
5631	0	33404	32732	
5632	0	33476	32828	
5633	0	33388	33166	
5634	0	33172	33188	
5635	0	33036	33200	
5636	0	32932	33300	
5637	0	32782	33240	
5638	0	32576	33070	
5639	0	32440	33203	
5640	0	32452	32744	
5641	0	32436	32726	
5642	0	32404	32692	
5643	0	32508	32272	
5644	0	32576	32342	
5645	0	32628	32492	
5646	0	32692	32724	
5647	0	32720	32934	
5648	0	32708	32948	
5649	0	32632	32918	
5650	0	32592	32852	
5651	0	32688	32784	
5652	0	32604	32818	
5653	0	32616	32914	
5654	0	32650	32966	
5655	0	32780	32964	
5656	0	32756	33070	
5657	0	32770	32932	
5658	0	32692	32744	
5659	0	32750	32810	
5660	0	32758	32720	
5661	0	32700	32924	
5662	0	32816	33100	
5663	0	32874	32950	
5664	0	32816	33004	
5665	0	32824	32740	
5666	0	32792	32624	
5667	0	32748	32710	
5668	0	32740	32616	
5669	0	32710	32647	
5670	0	32756	32878	
5671	0	32804	32736	
5672	0	32804	32770	
5673	0	32848	32864	
5674	0	32816	33016	
5675	0	32834	32839	
5676	0	32816	32540	
5677	0	32888	32664	
5678	0	32862	32548	
5679	0	32810	32614	
5680	0	32850	32600	
5681	0	32828	32788	
5682	0	32820	32742	
5683	0	32808	32954	
5684	0	32924	32992	
5685	0	32848	32855	
5686	0	32834	32966	
5687	0	32978	32810	
5688	0	32868	32456	
5689	0	32781	32564	
5690	0	32868	32986	
5691	0	32866	33348	
5692	0	32828	33287	
5693	0	32840	33142	
5694	0	32792	32988	
5695	0	32816	32584	
5696	0	32816	32024	
5697	0	32814	31740	
5698	0	32804	31732	
5699	0	32856	32100	
5700	0	32844	32398	
5701	0	32914	32400	
5702	0	32828	32632	
5703	0	32824	32824	
5704	0	32860	32929	
5705	0	32884	33162	
5706	0	32800	32934	
5707	0	32878	32838	
5708	0	32808	32836	
5709	0	32750	32972	
5710	0	32760	33026	
5711	0	32734	33236	
5712	0	32742	33198	
5713	0	32812	33122	
5714	0	32874	33496	
5715	0	32836	33340	
5716	0	32804	33068	
5717	0	32824	33174	
5718	0	32842	33135	
5719	0	32828	32775	
5720	0	32752	32544	
5721	0	32800	32388	
5722	0	32812	32338	
5723	0	32756	31932	
5724	0	32844	31886	
5725	0	32868	32298	
5726	0	32880	32326	
5727	0	32770	32382	
5728	0	32828	32568	
5729	0	32900	32612	
5730	0	32882	32786	
5731	0	32836	32990	
5732	0	32836	32908	
5733	0	32788	33240	
5734	0	32756	33311	
5735	0	32848	33312	
5736	0	32760	33210	
5737	0	32697	33130	
5738	0	32834	33162	
5739	0	32958	33028	
5740	0	32824	32828	
5741	0	32798	32586	
5742	0	32816	32391	
5743	0	32828	32276	
5744	0	32896	32358	
5745	0	32896	32345	
5746	0	32936	32382	
5747	0	32962	32504	
5748	0	32930	33040	
5749	0	32852	33012	
5750	0	32814	32838	
5751	0	32824	32916	
5752	0	32674	32935	
5753	0	32676	32744	
5754	0	32609	32582	
5755	0	32616	32534	
5756	0	32640	32886	
5757	0	32702	32792	
5758	0	32676	32775	
5759	0	32784	33030	
5760	0	32800	33018	
5761	0	32868	33088	
5762	0	32860	33082	
5763	0	32840	32852	
5764	0	32832	32759	
5765	0	32736	32818	
5766	0	32778	32754	
5767	0	32698	32582	
5768	0	32820	32720	
5769	0	32844	32948	
5770	0	32856	32999	
5771	0	32856	33036	
5772	0	32880	32770	
5773	0	32818	32741	
5774	0	32922	33031	
5775	0	32840	33121	
5776	0	32912	33044	
5777	0	32858	32798	
5778	0	32832	32252	
5779	0	32812	32074	
5780	0	32848	32062	
5781	0	32804	32034	
5782	0	32858	32196	
5783	0	32906	32360	
5784	0	32778	32382	
5785	0	32802	32614	
5786	0	32856	32772	
5787	0	32860	32762	
5788	0	32900	32967	
5789	0	32932	32718	
5790	0	32888	32678	
5791	0	32788	32702	
5792	0	32718	33022	
5793	0	32762	33220	
5794	0	32862	33184	
5795	0	32746	32998	
5796	0	32724	32900	
5797	0	32788	32966	
5798	0	32714	33060	
5799	0	32764	32966	
5800	0	32788	32890	
5801	0	32864	33007	
5802	0	32794	32916	
5803	0	32796	32970	
5804	0	32832	33072	
5805	0	32782	32994	
5806	0	32798	33108	
5807	0	32792	33184	
5808	0	32740	33054	
5809	0	32698	32688	
5810	0	32768	32236	
5811	0	32740	32084	
5812	0	32816	32126	
5813	0	32844	32214	
5814	0	32817	32372	
5815	0	32830	32560	
5816	0	32832	32714	
5817	0	32876	32788	
5818	0	32824	32704	
5819	0	32816	32678	
5820	0	32784	32511	
5821	0	32856	32682	
5822	0	32908	32679	
5823	0	32816	32756	
5824	0	32848	32834	
5825	0	32868	32814	
5826	0	32808	33057	
5827	0	32816	33104	
5828	0	32872	33072	
5829	0	32878	33028	
5830	0	32844	32902	
5831	0	32854	32868	
5832	0	32866	32910	
5833	0	32832	32800	
5834	0	32849	32804	
5835	0	32878	32688	
5836	0	32832	32586	
5837	0	32824	32848	
5838	0	32780	33080	
5839	0	32830	32838	
5840	0	32764	32892	
5841	0	32752	32610	
5842	0	32744	32616	
5843	0	32742	32704	
5844	0	32850	32710	
5845	0	32832	32700	
5846	0	32876	32772	
5847	0	32868	32692	
5848	0	32868	32674	
5849	0	32840	32670	
5850	0	32816	32586	
5851	0	32930	32647	
5852	0	32884	32770	
5853	0	32908	32804	
5854	0	32796	32680	
5855	0	32744	32704	
5856	0	32740	32760	
5857	0	32784	33004	
5858	0	32816	32949	
5859	0	32808	33094	
5860	0	32814	32838	
5861	0	32896	32672	
5862	0	32880	32814	
5863	0	32792	32839	
5864	0	32804	32474	
5865	0	32840	32396	
5866	0	32772	32314	
5867	0	32820	32580	
5868	0	32832	32604	
5869	0	32848	32415	
5870	0	32792	32660	
5871	0	32810	32864	
5872	0	32834	32772	
5873	0	32776	32836	
5874	0	32788	33098	
5875	0	32750	32932	
5876	0	32776	32968	
5877	0	32760	32934	
5878	0	32796	33166	
5879	0	32804	32970	
5880	0	32816	32680	
5881	0	32824	32614	
5882	0	32904	32662	
5883	0	32858	32647	
5884	0	32856	32496	
5885	0	32820	32482	
5886	0	32710	32668	
5887	0	32784	32551	
5888	0	32754	32640	
5889	0	32794	32788	
5890	0	32842	32954	
5891	0	32734	32948	
5892	0	32694	32810	
5893	0	32810	32814	
5894	0	32842	32820	
5895	0	32774	32968	
5896	0	32775	32988	
5897	0	32800	33044	
5898	0	32780	33010	
5899	0	32844	32775	
5900	0	32848	32714	
5901	0	32846	32788	
5902	0	32790	32748	
5903	0	32836	32538	
5904	0	32724	32220	
5905	0	32804	32352	
5906	0	32764	32319	
5907	0	32844	32500	
5908	0	32894	32746	
5909	0	32828	32580	
5910	0	32794	32832	
5911	0	32784	32858	
5912	0	32842	33094	
5913	0	32808	33108	
5914	0	32860	32922	
5915	0	32800	32750	
5916	0	32754	32892	
5917	0	32748	33186	
5918	0	32832	33348	
5919	0	32776	33174	
5920	0	32716	33287	
5921	0	32692	33174	
5922	0	32700	32998	
5923	0	32754	32984	
5924	0	32724	32790	
5925	0	32820	32474	
5926	0	32808	32208	
5927	0	32836	32056	
5928	0	32896	32193	
5929	0	32866	32096	
5930	0	32852	32286	
5931	0	32872	32422	
5932	0	32852	32540	
5933	0	32856	32886	
5934	0	32886	32986	
5935	0	32824	33186	
5936	0	32752	32999	
5937	0	32852	32942	
5938	0	32840	32878	
5939	0	32800	32632	
5940	0	32768	32751	
5941	0	32812	32872	
5942	0	32798	32680	
5943	0	32832	32886	
5944	0	32794	33150	
5945	0	32790	32858	
5946	0	32754	32906	
5947	0	32762	32710	
5948	0	32704	32752	
5949	0	32792	32732	
5950	0	32724	32668	
5951	0	32768	33006	
5952	0	32808	33100	
5953	0	32798	33048	
5954	0	32824	32806	
5955	0	32802	32602	
5956	0	32788	32764	
5957	0	32826	32626	
5958	0	32804	32646	
5959	0	32764	32482	
5960	0	32760	32296	
5961	0	32820	32308	
5962	0	32930	32430	
5963	0	32952	32868	
5964	0	33000	32992	
5965	0	33060	32920	
5966	0	32964	32720	
5967	0	32866	32436	
5968	0	32800	32470	
5969	0	32726	32516	
5970	0	32792	32838	
5971	0	32832	32866	
5972	0	32840	32808	
5973	0	32814	32906	
5974	0	32712	32902	
5975	0	32792	32912	
5976	0	32788	32878	
5977	0	32796	32976	
5978	0	32846	33024	
5979	0	32788	33034	
5980	0	32754	33014	
5981	0	32870	32884	
5982	0	32808	32926	
5983	0	32852	32868	
5984	0	32764	32714	
5985	0	32706	32716	
5986	0	32682	32775	
5987	0	32752	32834	
5988	0	32672	32896	
5989	0	32778	32999	
5990	0	32736	32986	
5991	0	32760	32852	
5992	0	32824	32674	
5993	0	32848	32628	
5994	0	32878	32498	
5995	0	32880	32368	
5996	0	32828	32231	
5997	0	32746	32362	
5998	0	32800	32516	
5999	0	32832	32614	
6000	0	32804	32794	
6001	0	32862	32636	
6002	0	32872	32839	
6003	0	32858	32911	
6004	0	32868	33112	
6005	0	32872	32922	
6006	0	32762	32840	
6007	0	32776	32874	
6008	0	32780	32918	
6009	0	32864	32932	
6010	0	32810	32880	
6011	0	32876	32746	
6012	0	32744	32834	
