# OpenSignals Text File Format. Version 1
# {"00:07:80:8C:0A:39": {"position": 0, "device": "biosignalsplux", "device name": "00:07:80:8C:0A:39", "device connection": "BTH00:07:80:8C:0A:39", "sampling rate": 1000, "resolution": [16, 16], "firmware version": 776, "comments": "", "keywords": "", "mode": 0, "sync interval": 2, "date": "2023-3-20", "time": "20:11:12.963", "channels": [1, 2], "sensor": ["EMG", "EMG"], "label": ["CH1", "CH2"], "column": ["nSeq", "DI", "CH1", "CH2"], "special": [{"SpO2": [80, 40, 5, 4, 3, 3]}, {"SpO2": [80, 40, 5, 4, 3, 3]}, {"SpO2": [80, 40, 5, 4, 3, 3]}, {"SpO2": [80, 40, 5, 4, 3, 3]}, {"SpO2": [80, 40, 5, 4, 3, 3]}, {"SpO2": [80, 40, 5, 4, 3, 3]}, {"SpO2": [80, 40, 5, 4, 3, 3]}, {"SpO2": [80, 40, 5, 4, 3, 3]}], "digital IO": [0, 1], "sleeve color": ["gray", "yellow"], "convertedValues": 0}}
# EndOfHeader
0	0	32876	32751	
1	0	32816	32732	
2	0	32788	32758	
3	0	32824	32668	
4	0	32876	32908	
5	0	32820	32784	
6	0	32838	32790	
7	0	32836	32742	
8	0	32864	32738	
9	0	32880	32790	
10	0	32868	32830	
11	0	32736	32726	
12	0	32812	32682	
13	0	32808	32792	
14	0	32816	32742	
15	0	32784	32800	
16	0	32820	32775	
17	0	32800	32686	
18	0	32772	32728	
19	0	32804	32718	
20	0	32824	32775	
21	0	32884	32775	
22	0	32836	32722	
23	0	32852	32718	
24	0	32752	32834	
25	0	32848	32762	
26	0	32812	32831	
27	0	32808	32726	
28	0	32820	32783	
29	0	32914	32756	
30	0	32824	32804	
31	0	32748	32786	
32	0	32798	32740	
33	0	32844	32792	
34	0	32810	32675	
35	0	32812	32900	
36	0	32792	32796	
37	0	32832	32711	
38	0	32808	32775	
39	0	32816	32814	
40	0	32816	32794	
41	0	32796	32854	
42	0	32892	32647	
43	0	32900	32720	
44	0	32782	32797	
45	0	32794	32842	
46	0	32830	32740	
47	0	32858	32684	
48	0	32836	32802	
49	0	32804	32814	
50	0	32800	32775	
51	0	32788	32698	
52	0	32874	32760	
53	0	32836	32804	
54	0	32826	32796	
55	0	32770	32628	
56	0	32812	32805	
57	0	32720	32799	
58	0	32788	32800	
59	0	32818	32775	
60	0	32894	32604	
61	0	32758	32772	
62	0	32848	32775	
63	0	32820	32775	
64	0	32836	32796	
65	0	32792	32748	
66	0	32822	32792	
67	0	32804	32812	
68	0	32792	32860	
69	0	32784	32820	
70	0	32860	32850	
71	0	32804	32672	
72	0	32788	32736	
73	0	32772	32766	
74	0	32818	32801	
75	0	32816	32766	
76	0	32794	32748	
77	0	32832	32754	
78	0	32800	32832	
79	0	32840	32824	
80	0	32848	32724	
81	0	32804	32750	
82	0	32860	32796	
83	0	32884	32724	
84	0	32804	32828	
85	0	32832	32812	
86	0	32788	32854	
87	0	32836	32694	
88	0	32810	32884	
89	0	32776	32742	
90	0	32752	32775	
91	0	32768	32728	
92	0	32792	32822	
93	0	32824	32811	
94	0	32852	32608	
95	0	32788	32754	
96	0	32740	32716	
97	0	32784	32775	
98	0	32806	32774	
99	0	32756	32756	
100	0	32860	32775	
101	0	32824	32740	
102	0	32796	32712	
103	0	32784	32804	
104	0	32778	32800	
105	0	32822	32796	
106	0	32784	32806	
107	0	32850	32799	
108	0	32844	32684	
109	0	32744	32858	
110	0	32800	32702	
111	0	32732	32868	
112	0	32840	32764	
113	0	32804	32700	
114	0	32772	32818	
115	0	32858	32844	
116	0	32808	32730	
117	0	32830	32764	
118	0	32844	32752	
119	0	32824	32807	
120	0	32864	32682	
121	0	32794	32766	
122	0	32838	32836	
123	0	32810	32740	
124	0	32848	32704	
125	0	32814	32839	
126	0	32784	32718	
127	0	32760	32799	
128	0	32852	32744	
129	0	32808	32712	
130	0	32808	32710	
131	0	32808	32862	
132	0	32832	32843	
133	0	32775	32703	
134	0	32832	32712	
135	0	32828	32807	
136	0	32732	32848	
137	0	32862	32686	
138	0	32822	32850	
139	0	32746	32775	
140	0	32804	32852	
141	0	32808	32728	
142	0	32780	32754	
143	0	32808	32806	
144	0	32772	32701	
145	0	32872	32760	
146	0	32760	32682	
147	0	32784	32727	
148	0	32814	32795	
149	0	32836	32764	
150	0	32824	32672	
151	0	32808	32712	
152	0	32790	32802	
153	0	32816	32710	
154	0	32770	32867	
155	0	32824	32705	
156	0	32828	32868	
157	0	32860	32732	
158	0	32844	32618	
159	0	32772	32902	
160	0	32844	32816	
161	0	32806	32682	
162	0	32824	32839	
163	0	32800	32824	
164	0	32816	32838	
165	0	32796	32838	
166	0	32772	32712	
167	0	32784	32838	
168	0	32744	32842	
169	0	32820	32846	
170	0	32824	32711	
171	0	32820	32800	
172	0	32792	32698	
173	0	32820	32806	
174	0	32782	32726	
175	0	32792	32732	
176	0	32872	32840	
177	0	32848	32796	
178	0	32848	32836	
179	0	32856	32660	
180	0	32820	32772	
181	0	32775	32836	
182	0	32760	32828	
183	0	32808	32801	
184	0	32778	32688	
185	0	32816	32790	
186	0	32830	32775	
187	0	32824	32802	
188	0	32804	32672	
189	0	32784	32775	
190	0	32828	32814	
191	0	32818	32732	
192	0	32836	32694	
193	0	32840	32795	
194	0	32852	32794	
195	0	32760	32742	
196	0	32852	32646	
197	0	32746	32852	
198	0	32828	32807	
199	0	32808	32774	
200	0	32810	32698	
201	0	32720	32654	
202	0	32804	32794	
203	0	32816	32775	
204	0	32830	32810	
205	0	32808	32695	
206	0	32780	32697	
207	0	32840	32810	
208	0	32744	32788	
209	0	32776	32831	
210	0	32804	32750	
211	0	32766	32760	
212	0	32892	32775	
213	0	32852	32736	
214	0	32780	32826	
215	0	32832	32740	
216	0	32828	32775	
217	0	32836	32832	
218	0	32820	32775	
219	0	32876	32838	
220	0	32832	32892	
221	0	32804	32758	
222	0	32796	32809	
223	0	32794	32790	
224	0	32786	32815	
225	0	32796	32703	
226	0	32858	32706	
227	0	32750	32732	
228	0	32768	32774	
229	0	32740	32670	
230	0	32716	32662	
231	0	32676	32591	
232	0	32684	32678	
233	0	32768	32673	
234	0	32742	32512	
235	0	32760	32628	
236	0	32764	32756	
237	0	32698	32760	
238	0	32732	32647	
239	0	32730	32620	
240	0	32778	32772	
241	0	32700	32680	
242	0	32814	32775	
243	0	32784	32814	
244	0	32834	32702	
245	0	32900	32774	
246	0	32824	32692	
247	0	32856	32696	
248	0	32918	32775	
249	0	32996	32760	
250	0	33100	32964	
251	0	33024	32996	
252	0	33002	33087	
253	0	33136	33116	
254	0	33152	33098	
255	0	33104	33246	
256	0	33068	33095	
257	0	32968	33156	
258	0	32896	32942	
259	0	32858	32978	
260	0	32758	32952	
261	0	32812	32850	
262	0	32760	32712	
263	0	32712	32688	
264	0	32786	32587	
265	0	32672	32598	
266	0	32708	32647	
267	0	32640	32630	
268	0	32652	32588	
269	0	32656	32660	
270	0	32728	32582	
271	0	32700	32716	
272	0	32628	32584	
273	0	32740	32614	
274	0	32760	32690	
275	0	32704	32784	
276	0	32844	32710	
277	0	32760	32668	
278	0	32836	32743	
279	0	32764	32738	
280	0	32784	32666	
281	0	32690	32730	
282	0	32828	32738	
283	0	32804	32794	
284	0	32812	32774	
285	0	32825	32750	
286	0	32796	32740	
287	0	32844	32784	
288	0	32840	32804	
289	0	32846	32824	
290	0	32776	32686	
291	0	32828	32803	
292	0	32798	32794	
293	0	32820	32724	
294	0	32906	32655	
295	0	32888	32826	
296	0	32820	32765	
297	0	32806	32844	
298	0	32830	32743	
299	0	32772	32798	
300	0	32846	32775	
301	0	32844	32771	
302	0	32788	32830	
303	0	32822	32764	
304	0	32754	32686	
305	0	32800	32804	
306	0	32840	32796	
307	0	32786	32750	
308	0	32824	32774	
309	0	32786	32705	
310	0	32784	32692	
311	0	32812	32860	
312	0	32866	32775	
313	0	32784	32784	
314	0	32852	32896	
315	0	32828	32742	
316	0	32748	32692	
317	0	32804	32772	
318	0	32837	32775	
319	0	32844	32791	
320	0	32836	32848	
321	0	32770	32718	
322	0	32764	32730	
323	0	32852	32806	
324	0	32816	32746	
325	0	32832	32796	
326	0	32788	32772	
327	0	32740	32662	
328	0	32768	32807	
329	0	32900	32711	
330	0	32756	32772	
331	0	32800	32791	
332	0	32822	32708	
333	0	32868	32737	
334	0	32808	32744	
335	0	32848	32764	
336	0	32725	32816	
337	0	32840	32711	
338	0	32766	32678	
339	0	32876	32710	
340	0	32832	32775	
341	0	32820	32860	
342	0	32736	32810	
343	0	32832	32746	
344	0	32800	32747	
345	0	32780	32828	
346	0	32808	32842	
347	0	32784	32870	
348	0	32772	32711	
349	0	32780	32793	
350	0	32854	32820	
351	0	32796	32820	
352	0	32858	32668	
353	0	32848	32775	
354	0	32836	32756	
355	0	32852	32910	
356	0	32852	32734	
357	0	32832	32824	
358	0	32792	32816	
359	0	32904	32846	
360	0	32852	32690	
361	0	32816	32796	
362	0	32840	32798	
363	0	32810	32823	
364	0	32816	32711	
365	0	32736	32668	
366	0	32804	32838	
367	0	32836	32720	
368	0	32816	32757	
369	0	32776	32772	
370	0	32800	32800	
371	0	32804	32800	
372	0	32848	32726	
373	0	32780	32652	
374	0	32814	32822	
375	0	32790	32790	
376	0	32796	32812	
377	0	32832	32692	
378	0	32774	32806	
379	0	32832	32796	
380	0	32836	32710	
381	0	32834	32795	
382	0	32768	32734	
383	0	32808	32751	
384	0	32834	32786	
385	0	32842	32794	
386	0	32858	32884	
387	0	32868	32688	
388	0	32852	32647	
389	0	32716	32774	
390	0	32804	32782	
391	0	32816	32839	
392	0	32816	32689	
393	0	32844	32804	
394	0	32848	32824	
395	0	32820	32786	
396	0	32800	32815	
397	0	32820	32846	
398	0	32806	32654	
399	0	32864	32830	
400	0	32840	32734	
401	0	32894	32808	
402	0	32760	32743	
403	0	32738	32690	
404	0	32826	32812	
405	0	32856	32743	
406	0	32812	32806	
407	0	32826	32662	
408	0	32788	32812	
409	0	32800	32770	
410	0	32742	32719	
411	0	32852	32708	
412	0	32880	32864	
413	0	32824	32750	
414	0	32870	32796	
415	0	32832	32788	
416	0	32798	32663	
417	0	32832	32712	
418	0	32808	32838	
419	0	32772	32711	
420	0	32840	32748	
421	0	32816	32708	
422	0	32816	32716	
423	0	32752	32734	
424	0	32816	32880	
425	0	32784	32704	
426	0	32854	32742	
427	0	32792	32772	
428	0	32808	32647	
429	0	32832	32792	
430	0	32844	32812	
431	0	32856	32728	
432	0	32778	32644	
433	0	32766	32804	
434	0	32816	32775	
435	0	32780	32822	
436	0	32856	32748	
437	0	32800	32638	
438	0	32864	32835	
439	0	32848	32736	
440	0	32840	32754	
441	0	32818	32774	
442	0	32798	32785	
443	0	32868	32750	
444	0	32816	32788	
445	0	32736	32847	
446	0	32788	32696	
447	0	32796	32744	
448	0	32789	32818	
449	0	32788	32792	
450	0	32800	32726	
451	0	32836	32692	
452	0	32806	32878	
453	0	32824	32820	
454	0	32840	32798	
455	0	32810	32655	
456	0	32886	32670	
457	0	32768	32798	
458	0	32794	32788	
459	0	32806	32790	
460	0	32860	32834	
461	0	32862	32820	
462	0	32786	32722	
463	0	32792	32775	
464	0	32768	32719	
465	0	32860	32774	
466	0	32768	32742	
467	0	32808	32743	
468	0	32848	32646	
469	0	32772	32868	
470	0	32820	32724	
471	0	32848	32760	
472	0	32864	32711	
473	0	32770	32836	
474	0	32788	32752	
475	0	32856	32814	
476	0	32782	32682	
477	0	32818	32758	
478	0	32840	32820	
479	0	32820	32646	
480	0	32832	32830	
481	0	32796	32838	
482	0	32844	32839	
483	0	32824	32671	
484	0	32848	32775	
485	0	32780	32792	
486	0	32870	32808	
487	0	32804	32665	
488	0	32774	32868	
489	0	32812	32796	
490	0	32848	32886	
491	0	32826	32722	
492	0	32780	32842	
493	0	32780	32756	
494	0	32869	32836	
495	0	32832	32704	
496	0	32772	32846	
497	0	32796	32856	
498	0	32832	32800	
499	0	32888	32736	
500	0	32828	32775	
501	0	32772	32738	
502	0	32808	32750	
503	0	32844	32846	
504	0	32772	32775	
505	0	32792	32775	
506	0	32804	32662	
507	0	32848	32762	
508	0	32834	32806	
509	0	32800	32794	
510	0	32832	32729	
511	0	32828	32774	
512	0	32840	32730	
513	0	32790	32796	
514	0	32752	32856	
515	0	32852	32754	
516	0	32808	32742	
517	0	32776	32767	
518	0	32808	32721	
519	0	32864	32692	
520	0	32828	32738	
521	0	32790	32744	
522	0	32786	32756	
523	0	32788	32770	
524	0	32808	32740	
525	0	32824	32754	
526	0	32824	32792	
527	0	32784	32758	
528	0	32808	32790	
529	0	32890	32678	
530	0	32748	32752	
531	0	32734	32812	
532	0	32760	32684	
533	0	32830	32862	
534	0	32818	32684	
535	0	32838	32808	
536	0	32780	32788	
537	0	32832	32774	
538	0	32816	32750	
539	0	32772	32758	
540	0	32784	32807	
541	0	32860	32831	
542	0	32724	32698	
543	0	32826	32774	
544	0	32818	32816	
545	0	32821	32800	
546	0	32772	32895	
547	0	32774	32711	
548	0	32776	32818	
549	0	32784	32728	
550	0	32768	32710	
551	0	32756	32670	
552	0	32820	32752	
553	0	32768	32762	
554	0	32748	32814	
555	0	32798	32678	
556	0	32782	32720	
557	0	32868	32848	
558	0	32802	32738	
559	0	32774	32834	
560	0	32906	32738	
561	0	32838	32726	
562	0	32812	32678	
563	0	32840	32818	
564	0	32808	32800	
565	0	32796	32847	
566	0	32820	32660	
567	0	32780	32707	
568	0	32788	32790	
569	0	32818	32788	
570	0	32820	32714	
571	0	32852	32740	
572	0	32792	32714	
573	0	32764	32810	
574	0	32788	32792	
575	0	32800	32788	
576	0	32810	32716	
577	0	32820	32746	
578	0	32804	32868	
579	0	32832	32718	
580	0	32776	32822	
581	0	32804	32818	
582	0	32834	32652	
583	0	32816	32710	
584	0	32808	32806	
585	0	32866	32756	
586	0	32838	32775	
587	0	32888	32700	
588	0	32828	32736	
589	0	32856	32860	
590	0	32744	32800	
591	0	32800	32858	
592	0	32834	32740	
593	0	32744	32724	
594	0	32810	32743	
595	0	32812	32751	
596	0	32868	32799	
597	0	32828	32868	
598	0	32800	32672	
599	0	32848	32886	
600	0	32816	32774	
601	0	32782	32828	
602	0	32868	32762	
603	0	32864	32722	
604	0	32804	32887	
605	0	32808	32812	
606	0	32750	32832	
607	0	32806	32708	
608	0	32804	32718	
609	0	32844	32788	
610	0	32814	32758	
611	0	32760	32706	
612	0	32726	32772	
613	0	32790	32842	
614	0	32824	32810	
615	0	32832	32926	
616	0	32760	32726	
617	0	32810	32804	
618	0	32890	32775	
619	0	32840	32764	
620	0	32880	32818	
621	0	32884	32832	
622	0	32872	32772	
623	0	32816	32846	
624	0	32816	32647	
625	0	32788	32660	
626	0	32804	32833	
627	0	32808	32730	
628	0	32824	32686	
629	0	32804	32688	
630	0	32796	32792	
631	0	32816	32732	
632	0	32818	32676	
633	0	32738	32878	
634	0	32796	32794	
635	0	32900	32822	
636	0	32772	32850	
637	0	32798	32775	
638	0	32838	32768	
639	0	32830	32765	
640	0	32816	32732	
641	0	32792	32676	
642	0	32844	32722	
643	0	32812	32712	
644	0	32808	32838	
645	0	32856	32752	
646	0	32768	32766	
647	0	32804	32888	
648	0	32788	32632	
649	0	32798	32812	
650	0	32836	32792	
651	0	32856	32809	
652	0	32820	32794	
653	0	32784	32824	
654	0	32836	32687	
655	0	32824	32662	
656	0	32796	32871	
657	0	32850	32719	
658	0	32828	32806	
659	0	32810	32775	
660	0	32788	32666	
661	0	32792	32788	
662	0	32820	32810	
663	0	32868	32789	
664	0	32868	32854	
665	0	32816	32807	
666	0	32884	32764	
667	0	32836	32704	
668	0	32816	32792	
669	0	32770	32731	
670	0	32744	32820	
671	0	32780	32706	
672	0	32836	32807	
673	0	32768	32734	
674	0	32828	32752	
675	0	32844	32638	
676	0	32756	32864	
677	0	32864	32796	
678	0	32816	32668	
679	0	32878	32716	
680	0	32766	32824	
681	0	32872	32799	
682	0	32816	32679	
683	0	32800	32753	
684	0	32800	32753	
685	0	32770	32676	
686	0	32848	32794	
687	0	32794	32726	
688	0	32834	32711	
689	0	32794	32740	
690	0	32812	32798	
691	0	32724	32852	
692	0	32826	32694	
693	0	32836	32744	
694	0	32842	32762	
695	0	32816	32816	
696	0	32876	32730	
697	0	32788	32800	
698	0	32828	32746	
699	0	32846	32801	
700	0	32856	32775	
701	0	32804	32692	
702	0	32832	32812	
703	0	32790	32775	
704	0	32778	32666	
705	0	32856	32822	
706	0	32816	32756	
707	0	32836	32758	
708	0	32884	32760	
709	0	32800	32868	
710	0	32772	32838	
711	0	32836	32756	
712	0	32840	32752	
713	0	32836	32768	
714	0	32840	32815	
715	0	32868	32736	
716	0	32742	32743	
717	0	32888	32814	
718	0	32832	32732	
719	0	32786	32800	
720	0	32862	32719	
721	0	32776	32790	
722	0	32824	32823	
723	0	32796	32775	
724	0	32816	32820	
725	0	32892	32714	
726	0	32836	32768	
727	0	32804	32754	
728	0	32844	32792	
729	0	32772	32747	
730	0	32796	32700	
731	0	32776	32798	
732	0	32816	32766	
733	0	32804	32709	
734	0	32800	32775	
735	0	32744	32842	
736	0	32884	32802	
737	0	32832	32714	
738	0	32816	32820	
739	0	32800	32826	
740	0	32834	32794	
741	0	32836	32726	
742	0	32801	32831	
743	0	32796	32710	
744	0	32836	32802	
745	0	32808	32700	
746	0	32809	32840	
747	0	32760	32800	
748	0	32832	32643	
749	0	32812	32775	
750	0	32728	32714	
751	0	32848	32863	
752	0	32892	32718	
753	0	32796	32855	
754	0	32896	32775	
755	0	32826	32791	
756	0	32820	32708	
757	0	32808	32803	
758	0	32804	32775	
759	0	32808	32708	
760	0	32832	32742	
761	0	32848	32740	
762	0	32824	32716	
763	0	32804	32772	
764	0	32832	32698	
765	0	32738	32700	
766	0	32792	32862	
767	0	32838	32812	
768	0	32832	32810	
769	0	32788	32706	
770	0	32856	32708	
771	0	32864	32812	
772	0	32828	32796	
773	0	32832	32798	
774	0	32810	32768	
775	0	32808	32774	
776	0	32800	32794	
777	0	32772	32746	
778	0	32748	32844	
779	0	32812	32718	
780	0	32792	32784	
781	0	32868	32784	
782	0	32794	32724	
783	0	32796	32768	
784	0	32808	32750	
785	0	32864	32847	
786	0	32818	32764	
787	0	32866	32740	
788	0	32810	32740	
789	0	32778	32634	
790	0	32820	32788	
791	0	32836	32846	
792	0	32776	32742	
793	0	32802	32775	
794	0	32810	32718	
795	0	32740	32852	
796	0	32760	32702	
797	0	32788	32836	
798	0	32824	32775	
799	0	32792	32720	
800	0	32853	32686	
801	0	32852	32788	
802	0	32852	32807	
803	0	32844	32838	
804	0	32896	32764	
805	0	32824	32818	
806	0	32860	32838	
807	0	32792	32739	
808	0	32816	32850	
809	0	32788	32798	
810	0	32788	32832	
811	0	32770	32760	
812	0	32784	32775	
813	0	32860	32740	
814	0	32872	32706	
815	0	32836	32806	
816	0	32804	32728	
817	0	32820	32742	
818	0	32788	32686	
819	0	32796	32760	
820	0	32808	32775	
821	0	32800	32646	
822	0	32842	32824	
823	0	32804	32838	
824	0	32852	32812	
825	0	32784	32626	
826	0	32832	32808	
827	0	32860	32774	
828	0	32816	32700	
829	0	32800	32862	
830	0	32880	32820	
831	0	32820	32742	
832	0	32792	32856	
833	0	32804	32814	
834	0	32800	32852	
835	0	32780	32696	
836	0	32764	32860	
837	0	32724	32801	
838	0	32816	32804	
839	0	32772	32730	
840	0	32832	32850	
841	0	32837	32716	
842	0	32852	32740	
843	0	32856	32749	
844	0	32820	32681	
845	0	32816	32788	
846	0	32832	32758	
847	0	32864	32790	
848	0	32826	32700	
849	0	32848	32746	
850	0	32796	32807	
851	0	32828	32820	
852	0	32796	32852	
853	0	32808	32814	
854	0	32784	32742	
855	0	32758	32775	
856	0	32772	32744	
857	0	32872	32666	
858	0	32760	32775	
859	0	32784	32768	
860	0	32732	32760	
861	0	32800	32686	
862	0	32864	32775	
863	0	32804	32828	
864	0	32828	32775	
865	0	32848	32668	
866	0	32828	32692	
867	0	32798	32810	
868	0	32784	32762	
869	0	32806	32764	
870	0	32732	32700	
871	0	32804	32722	
872	0	32840	32791	
873	0	32796	32772	
874	0	32856	32686	
875	0	32816	32775	
876	0	32816	32775	
877	0	32838	32828	
878	0	32836	32724	
879	0	32832	32810	
880	0	32828	32754	
881	0	32868	32720	
882	0	32828	32838	
883	0	32836	32754	
884	0	32844	32802	
885	0	32816	32684	
886	0	32788	32772	
887	0	32752	32724	
888	0	32836	32842	
889	0	32802	32711	
890	0	32796	32702	
891	0	32840	32855	
892	0	32796	32764	
893	0	32800	32849	
894	0	32824	32719	
895	0	32784	32844	
896	0	32836	32774	
897	0	32800	32772	
898	0	32768	32756	
899	0	32780	32695	
900	0	32856	32774	
901	0	32840	32826	
902	0	32764	32689	
903	0	32802	32700	
904	0	32830	32770	
905	0	32828	32707	
906	0	32808	32788	
907	0	32866	32714	
908	0	32792	32726	
909	0	32856	32734	
910	0	32828	32785	
911	0	32818	32842	
912	0	32852	32846	
913	0	32832	32775	
914	0	32778	32712	
915	0	32854	32694	
916	0	32796	32822	
917	0	32864	32862	
918	0	32816	32775	
919	0	32808	32666	
920	0	32840	32858	
921	0	32728	32735	
922	0	32792	32838	
923	0	32826	32680	
924	0	32846	32732	
925	0	32668	32832	
926	0	32836	32730	
927	0	32854	32768	
928	0	32772	32892	
929	0	32844	32686	
930	0	32798	32766	
931	0	32828	32790	
932	0	32752	32762	
933	0	32826	32834	
934	0	32852	32788	
935	0	32852	32832	
936	0	32800	32730	
937	0	32852	32682	
938	0	32824	32789	
939	0	32808	32810	
940	0	32812	32796	
941	0	32796	32888	
942	0	32828	32711	
943	0	32742	32822	
944	0	32816	32751	
945	0	32852	32832	
946	0	32860	32762	
947	0	32852	32726	
948	0	32814	32876	
949	0	32792	32840	
950	0	32836	32804	
951	0	32780	32650	
952	0	32680	32668	
953	0	32758	32744	
954	0	32752	32743	
955	0	32800	32743	
956	0	32796	32609	
957	0	32826	32636	
958	0	32778	32632	
959	0	32722	32552	
960	0	32740	32720	
961	0	32751	32687	
962	0	32768	32660	
963	0	32672	32740	
964	0	32740	32550	
965	0	32728	32647	
966	0	32712	32678	
967	0	32696	32706	
968	0	32768	32799	
969	0	32788	32734	
970	0	32840	32770	
971	0	32864	32754	
972	0	32812	32842	
973	0	32868	32772	
974	0	32806	32718	
975	0	32966	32654	
976	0	33048	32688	
977	0	32964	32935	
978	0	33024	32908	
979	0	33130	33127	
980	0	33140	33148	
981	0	33112	33118	
982	0	33092	33248	
983	0	33044	33186	
984	0	32986	33223	
985	0	32840	33044	
986	0	32862	32966	
987	0	32818	33022	
988	0	32856	32866	
989	0	32732	32791	
990	0	32646	32647	
991	0	32676	32556	
992	0	32712	32583	
993	0	32704	32554	
994	0	32676	32582	
995	0	32716	32566	
996	0	32668	32722	
997	0	32692	32574	
998	0	32758	32534	
999	0	32664	32743	
1000	0	32724	32614	
1001	0	32740	32732	
1002	0	32708	32674	
1003	0	32808	32668	
1004	0	32800	32763	
1005	0	32768	32796	
1006	0	32712	32801	
1007	0	32758	32852	
1008	0	32806	32714	
1009	0	32782	32750	
1010	0	32828	32802	
1011	0	32852	32750	
1012	0	32796	32748	
1013	0	32800	32686	
1014	0	32846	32700	
1015	0	32784	32662	
1016	0	32824	32841	
1017	0	32785	32847	
1018	0	32790	32702	
1019	0	32856	32820	
1020	0	32792	32890	
1021	0	32826	32806	
1022	0	32794	32704	
1023	0	32832	32719	
1024	0	32848	32828	
1025	0	32840	32850	
1026	0	32832	32754	
1027	0	32732	32646	
1028	0	32792	32814	
1029	0	32828	32824	
1030	0	32906	32720	
1031	0	32804	32775	
1032	0	32868	32804	
1033	0	32876	32758	
1034	0	32752	32775	
1035	0	32758	32844	
1036	0	32832	32774	
1037	0	32894	32724	
1038	0	32796	32686	
1039	0	32818	32810	
1040	0	32840	32740	
1041	0	32860	32705	
1042	0	32864	32800	
1043	0	32810	32728	
1044	0	32790	32733	
1045	0	32801	32740	
1046	0	32852	32844	
1047	0	32788	32746	
1048	0	32812	32788	
1049	0	32832	32736	
1050	0	32820	32732	
1051	0	32824	32838	
1052	0	32788	32842	
1053	0	32796	32734	
1054	0	32748	32796	
1055	0	32812	32638	
1056	0	32740	32738	
1057	0	32860	32770	
1058	0	32774	32730	
1059	0	32764	32870	
1060	0	32828	32734	
1061	0	32870	32752	
1062	0	32792	32788	
1063	0	32818	32798	
1064	0	32812	32710	
1065	0	32828	32775	
1066	0	32764	32796	
1067	0	32796	32766	
1068	0	32846	32726	
1069	0	32792	32718	
1070	0	32788	32834	
1071	0	32898	32814	
1072	0	32804	32786	
1073	0	32880	32742	
1074	0	32830	32710	
1075	0	32868	32802	
1076	0	32832	32775	
1077	0	32804	32740	
1078	0	32820	32816	
1079	0	32826	32811	
1080	0	32852	32698	
1081	0	32870	32814	
1082	0	32820	32742	
1083	0	32800	32736	
1084	0	32796	32782	
1085	0	32868	32814	
1086	0	32780	32854	
1087	0	32808	32574	
1088	0	32790	32742	
1089	0	32856	32808	
1090	0	32804	32824	
1091	0	32824	32766	
1092	0	32752	32750	
1093	0	32828	32824	
1094	0	32836	32706	
1095	0	32788	32748	
1096	0	32816	32746	
1097	0	32796	32788	
1098	0	32850	32759	
1099	0	32740	32711	
1100	0	32872	32743	
1101	0	32796	32884	
1102	0	32816	32795	
1103	0	32848	32711	
1104	0	32778	32758	
1105	0	32808	32775	
1106	0	32816	32792	
1107	0	32846	32724	
1108	0	32760	32822	
1109	0	32768	32850	
1110	0	32794	32738	
1111	0	32816	32758	
1112	0	32788	32679	
1113	0	32808	32770	
1114	0	32848	32828	
1115	0	32840	32766	
1116	0	32824	32832	
1117	0	32800	32756	
1118	0	32876	32692	
1119	0	32798	32876	
1120	0	32903	32826	
1121	0	32824	32808	
1122	0	32801	32734	
1123	0	32812	32652	
1124	0	32856	32808	
1125	0	32872	32744	
1126	0	32816	32770	
1127	0	32768	32679	
1128	0	32828	32756	
1129	0	32780	32788	
1130	0	32816	32788	
1131	0	32784	32722	
1132	0	32800	32756	
1133	0	32768	32836	
1134	0	32752	32716	
1135	0	32816	32718	
1136	0	32808	32834	
1137	0	32836	32775	
1138	0	32832	32768	
1139	0	32842	32798	
1140	0	32812	32712	
1141	0	32878	32702	
1142	0	32886	32679	
1143	0	32808	32744	
1144	0	32856	32736	
1145	0	32756	32788	
1146	0	32842	32816	
1147	0	32868	32738	
1148	0	32776	32818	
1149	0	32808	32702	
1150	0	32820	32814	
1151	0	32760	32690	
1152	0	32818	32756	
1153	0	32784	32888	
1154	0	32844	32682	
1155	0	32794	32689	
1156	0	32832	32870	
1157	0	32784	32696	
1158	0	32852	32754	
1159	0	32816	32856	
1160	0	32828	32687	
1161	0	32800	32822	
1162	0	32900	32744	
1163	0	32836	32742	
1164	0	32824	32812	
1165	0	32802	32668	
1166	0	32754	32738	
1167	0	32828	32775	
1168	0	32806	32802	
1169	0	32766	32764	
1170	0	32842	32775	
1171	0	32868	32790	
1172	0	32832	32740	
1173	0	32820	32746	
1174	0	32792	32744	
1175	0	32836	32824	
1176	0	32804	32719	
1177	0	32772	32740	
1178	0	32820	32842	
1179	0	32834	32751	
1180	0	32834	32834	
1181	0	32826	32906	
1182	0	32786	32668	
1183	0	32868	32756	
1184	0	32888	32770	
1185	0	32762	32838	
1186	0	32802	32792	
1187	0	32804	32832	
1188	0	32812	32710	
1189	0	32770	32775	
1190	0	32780	32764	
1191	0	32780	32807	
1192	0	32832	32724	
1193	0	32840	32679	
1194	0	32732	32820	
1195	0	32820	32788	
1196	0	32828	32852	
1197	0	32760	32736	
1198	0	32828	32700	
1199	0	32856	32770	
1200	0	32870	32808	
1201	0	32806	32796	
1202	0	32860	32732	
1203	0	32862	32836	
1204	0	32844	32762	
1205	0	32888	32690	
1206	0	32798	32644	
1207	0	32840	32870	
1208	0	32784	32775	
1209	0	32768	32775	
1210	0	32760	32680	
1211	0	32832	32760	
1212	0	32816	32855	
1213	0	32816	32756	
1214	0	32864	32734	
1215	0	32828	32852	
1216	0	32816	32700	
1217	0	32820	32732	
1218	0	32856	32807	
1219	0	32832	32810	
1220	0	32856	32938	
1221	0	32808	32730	
1222	0	32804	32713	
1223	0	32812	32775	
1224	0	32844	32860	
1225	0	32816	32874	
1226	0	32832	32678	
1227	0	32880	32808	
1228	0	32853	32815	
1229	0	32760	32832	
1230	0	32776	32775	
1231	0	32832	32759	
1232	0	32804	32704	
1233	0	32814	32704	
1234	0	32848	32853	
1235	0	32824	32800	
1236	0	32840	32744	
1237	0	32788	32792	
1238	0	32794	32716	
1239	0	32750	32712	
1240	0	32792	32790	
1241	0	32796	32791	
1242	0	32848	32830	
1243	0	32794	32692	
1244	0	32748	32862	
1245	0	32884	32822	
1246	0	32800	32720	
1247	0	32786	32775	
1248	0	32772	32815	
1249	0	32808	32738	
1250	0	32828	32630	
1251	0	32832	32716	
1252	0	32760	32754	
1253	0	32776	32764	
1254	0	32824	32848	
1255	0	32858	32788	
1256	0	32826	32704	
1257	0	32780	32708	
1258	0	32800	32742	
1259	0	32798	32799	
1260	0	32744	32758	
1261	0	32828	32726	
1262	0	32868	32836	
1263	0	32772	32696	
1264	0	32832	32704	
1265	0	32826	32752	
1266	0	32816	32764	
1267	0	32814	32786	
1268	0	32830	32714	
1269	0	32806	32808	
1270	0	32760	32848	
1271	0	32768	32775	
1272	0	32868	32712	
1273	0	32836	32772	
1274	0	32850	32800	
1275	0	32768	32788	
1276	0	32796	32750	
1277	0	32744	32698	
1278	0	32836	32746	
1279	0	32790	32872	
1280	0	32816	32788	
1281	0	32820	32702	
1282	0	32790	32790	
1283	0	32840	32738	
1284	0	32768	32730	
1285	0	32812	32708	
1286	0	32810	32848	
1287	0	32868	32810	
1288	0	32815	32764	
1289	0	32888	32810	
1290	0	32788	32638	
1291	0	32796	32682	
1292	0	32824	32732	
1293	0	32824	32806	
1294	0	32772	32743	
1295	0	32870	32836	
1296	0	32820	32728	
1297	0	32832	32754	
1298	0	32810	32844	
1299	0	32760	32742	
1300	0	32768	32852	
1301	0	32764	32687	
1302	0	32776	32675	
1303	0	32904	32814	
1304	0	32838	32836	
1305	0	32804	32760	
1306	0	32742	32696	
1307	0	32788	32647	
1308	0	32904	32798	
1309	0	32898	32737	
1310	0	32846	32868	
1311	0	32798	32634	
1312	0	32818	32775	
1313	0	32772	32806	
1314	0	32864	32870	
1315	0	32800	32698	
1316	0	32828	32840	
1317	0	32786	32716	
1318	0	32836	32824	
1319	0	32820	32647	
1320	0	32807	32803	
1321	0	32820	32794	
1322	0	32756	32820	
1323	0	32872	32870	
1324	0	32776	32644	
1325	0	32770	32760	
1326	0	32800	32775	
1327	0	32804	32768	
1328	0	32792	32714	
1329	0	32824	32754	
1330	0	32748	32775	
1331	0	32844	32806	
1332	0	32788	32871	
1333	0	32832	32660	
1334	0	32790	32800	
1335	0	32828	32826	
1336	0	32798	32748	
1337	0	32830	32808	
1338	0	32842	32711	
1339	0	32888	32694	
1340	0	32800	32812	
1341	0	32756	32806	
1342	0	32868	32806	
1343	0	32784	32668	
1344	0	32844	32775	
1345	0	32830	32855	
1346	0	32820	32758	
1347	0	32760	32844	
1348	0	32836	32684	
1349	0	32824	32684	
1350	0	32866	32828	
1351	0	32810	32760	
1352	0	32732	32679	
1353	0	32784	32694	
1354	0	32818	32772	
1355	0	32854	32708	
1356	0	32762	32742	
1357	0	32812	32804	
1358	0	32808	32820	
1359	0	32804	32775	
1360	0	32844	32604	
1361	0	32816	32768	
1362	0	32792	32755	
1363	0	32796	32804	
1364	0	32856	32748	
1365	0	32836	32626	
1366	0	32777	32775	
1367	0	32816	32838	
1368	0	32838	32788	
1369	0	32836	32796	
1370	0	32840	32764	
1371	0	32852	32632	
1372	0	32772	32964	
1373	0	32828	32812	
1374	0	32784	32839	
1375	0	32784	32732	
1376	0	32781	32716	
1377	0	32802	32695	
1378	0	32884	32724	
1379	0	32804	32814	
1380	0	32766	32762	
1381	0	32800	32708	
1382	0	32792	32756	
1383	0	32868	32812	
1384	0	32740	32802	
1385	0	32864	32716	
1386	0	32825	32728	
1387	0	32832	32766	
1388	0	32802	32728	
1389	0	32820	32732	
1390	0	32808	32816	
1391	0	32784	32768	
1392	0	32808	32775	
1393	0	32857	32734	
1394	0	32736	32680	
1395	0	32776	32678	
1396	0	32808	32684	
1397	0	32772	32832	
1398	0	32852	32814	
1399	0	32800	32719	
1400	0	32820	32822	
1401	0	32814	32770	
1402	0	32816	32821	
1403	0	32796	32826	
1404	0	32802	32662	
1405	0	32870	32618	
1406	0	32780	32764	
1407	0	32796	32816	
1408	0	32826	32796	
1409	0	32868	32796	
1410	0	32902	32863	
1411	0	32794	32614	
1412	0	32826	32744	
1413	0	32762	32820	
1414	0	32786	32855	
1415	0	32880	32768	
1416	0	32786	32775	
1417	0	32820	32856	
1418	0	32866	32719	
1419	0	32802	32668	
1420	0	32784	32832	
1421	0	32836	32774	
1422	0	32876	32847	
1423	0	32868	32828	
1424	0	32814	32646	
1425	0	32799	32748	
1426	0	32848	32775	
1427	0	32828	32756	
1428	0	32836	32738	
1429	0	32788	32775	
1430	0	32808	32668	
1431	0	32798	32736	
1432	0	32858	32727	
1433	0	32830	32802	
1434	0	32776	32746	
1435	0	32828	32814	
1436	0	32832	32702	
1437	0	32832	32693	
1438	0	32760	32798	
1439	0	32828	32836	
1440	0	32765	32774	
1441	0	32776	32767	
1442	0	32808	32686	
1443	0	32788	32775	
1444	0	32784	32790	
1445	0	32844	32788	
1446	0	32878	32850	
1447	0	32772	32715	
1448	0	32796	32812	
1449	0	32818	32840	
1450	0	32794	32838	
1451	0	32736	32807	
1452	0	32816	32922	
1453	0	32768	32760	
1454	0	32848	32636	
1455	0	32796	32756	
1456	0	32826	32752	
1457	0	32876	32834	
1458	0	32912	32750	
1459	0	32840	32796	
1460	0	32792	32788	
1461	0	32836	32656	
1462	0	32832	32796	
1463	0	32808	32824	
1464	0	32826	32772	
1465	0	32768	32698	
1466	0	32764	32714	
1467	0	32842	32642	
1468	0	32804	32736	
1469	0	32854	32770	
1470	0	32784	32856	
1471	0	32776	32754	
1472	0	32824	32816	
1473	0	32820	32830	
1474	0	32820	32694	
1475	0	32832	32628	
1476	0	32864	32748	
1477	0	32782	32822	
1478	0	32782	32788	
1479	0	32822	32807	
1480	0	32796	32794	
1481	0	32836	32807	
1482	0	32796	32686	
1483	0	32784	32692	
1484	0	32840	32840	
1485	0	32828	32823	
1486	0	32842	32737	
1487	0	32806	32725	
1488	0	32788	32848	
1489	0	32844	32880	
1490	0	32856	32668	
1491	0	32820	32806	
1492	0	32824	32820	
1493	0	32744	32746	
1494	0	32836	32834	
1495	0	32832	32690	
1496	0	32848	32744	
1497	0	32788	32796	
1498	0	32741	32844	
1499	0	32768	32740	
1500	0	32800	32684	
1501	0	32849	32871	
1502	0	32796	32820	
1503	0	32800	32806	
1504	0	32768	32750	
1505	0	32792	32671	
1506	0	32834	32820	
1507	0	32852	32756	
1508	0	32772	32796	
1509	0	32780	32710	
1510	0	32796	32663	
1511	0	32844	32804	
1512	0	32794	32775	
1513	0	32748	32719	
1514	0	32792	32660	
1515	0	32820	32748	
1516	0	32844	32742	
1517	0	32826	32866	
1518	0	32840	32856	
1519	0	32792	32810	
1520	0	32801	32732	
1521	0	32824	32652	
1522	0	32746	32834	
1523	0	32820	32806	
1524	0	32876	32762	
1525	0	32792	32678	
1526	0	32768	32750	
1527	0	32788	32818	
1528	0	32844	32768	
1529	0	32774	32666	
1530	0	32804	32719	
1531	0	32788	32846	
1532	0	32760	32724	
1533	0	32794	32708	
1534	0	32828	32710	
1535	0	32832	32794	
1536	0	32824	32816	
1537	0	32818	32684	
1538	0	32780	32767	
1539	0	32800	32839	
1540	0	32836	32748	
1541	0	32800	32882	
1542	0	32876	32647	
1543	0	32832	32874	
1544	0	32872	32786	
1545	0	32788	32734	
1546	0	32828	32722	
1547	0	32810	32672	
1548	0	32792	32758	
1549	0	32828	32822	
1550	0	32844	32775	
1551	0	32772	32736	
1552	0	32788	32652	
1553	0	32804	32838	
1554	0	32788	32790	
1555	0	32748	32806	
1556	0	32770	32820	
1557	0	32844	32654	
1558	0	32802	32825	
1559	0	32800	32750	
1560	0	32800	32864	
1561	0	32818	32678	
1562	0	32860	32816	
1563	0	32874	32798	
1564	0	32896	32840	
1565	0	32778	32687	
1566	0	32784	32762	
1567	0	32802	32728	
1568	0	32784	32768	
1569	0	32855	32723	
1570	0	32812	32680	
1571	0	32820	32876	
1572	0	32842	32750	
1573	0	32918	32775	
1574	0	32852	32696	
1575	0	32780	32670	
1576	0	32828	32830	
1577	0	32802	32772	
1578	0	32756	32836	
1579	0	32852	32652	
1580	0	32776	32688	
1581	0	32794	32840	
1582	0	32764	32802	
1583	0	32848	32775	
1584	0	32874	32832	
1585	0	32844	32670	
1586	0	32858	32738	
1587	0	32708	32802	
1588	0	32834	32808	
1589	0	32852	32766	
1590	0	32820	32802	
1591	0	32881	32838	
1592	0	32836	32695	
1593	0	32886	32634	
1594	0	32776	32804	
1595	0	32800	32744	
1596	0	32776	32750	
1597	0	32824	32756	
1598	0	32823	32710	
1599	0	32805	32812	
1600	0	32814	32775	
1601	0	32792	32758	
1602	0	32838	32884	
1603	0	32828	32744	
1604	0	32772	32775	
1605	0	32796	32807	
1606	0	32809	32820	
1607	0	32768	32736	
1608	0	32786	32762	
1609	0	32776	32888	
1610	0	32864	32806	
1611	0	32806	32708	
1612	0	32786	32758	
1613	0	32848	32823	
1614	0	32856	32788	
1615	0	32782	32826	
1616	0	32790	32714	
1617	0	32750	32630	
1618	0	32864	32668	
1619	0	32832	32775	
1620	0	32832	32884	
1621	0	32802	32798	
1622	0	32828	32775	
1623	0	32846	32736	
1624	0	32802	32698	
1625	0	32746	32757	
1626	0	32706	32796	
1627	0	32774	32800	
1628	0	32818	32693	
1629	0	32852	32671	
1630	0	32840	32820	
1631	0	32816	32807	
1632	0	32768	32743	
1633	0	32776	32834	
1634	0	32780	32766	
1635	0	32830	32636	
1636	0	32801	32870	
1637	0	32772	32743	
1638	0	32816	32775	
1639	0	32804	32706	
1640	0	32794	32772	
1641	0	32800	32834	
1642	0	32788	32724	
1643	0	32778	32768	
1644	0	32840	32826	
1645	0	32808	32773	
1646	0	32780	32726	
1647	0	32852	32800	
1648	0	32852	32798	
1649	0	32784	32794	
1650	0	32814	32791	
1651	0	32788	32710	
1652	0	32780	32690	
1653	0	32776	32768	
1654	0	32756	32788	
1655	0	32834	32767	
1656	0	32796	32702	
1657	0	32832	32625	
1658	0	32748	32743	
1659	0	32808	32770	
1660	0	32872	32756	
1661	0	32884	32839	
1662	0	32856	32706	
1663	0	32856	32742	
1664	0	32820	32892	
1665	0	32820	32732	
1666	0	32852	32828	
1667	0	32856	32740	
1668	0	32788	32807	
1669	0	32768	32903	
1670	0	32780	32803	
1671	0	32772	32860	
1672	0	32764	32772	
1673	0	32818	32666	
1674	0	32828	32674	
1675	0	32732	32736	
1676	0	32796	32764	
1677	0	32800	32775	
1678	0	32768	32604	
1679	0	32672	32607	
1680	0	32780	32592	
1681	0	32740	32684	
1682	0	32794	32702	
1683	0	32744	32664	
1684	0	32736	32654	
1685	0	32728	32612	
1686	0	32738	32743	
1687	0	32724	32694	
1688	0	32714	32692	
1689	0	32706	32580	
1690	0	32775	32692	
1691	0	32824	32865	
1692	0	32812	32775	
1693	0	32770	32775	
1694	0	32884	32756	
1695	0	32856	32615	
1696	0	32888	32793	
1697	0	32980	32775	
1698	0	32972	32820	
1699	0	33080	32868	
1700	0	33092	32900	
1701	0	33132	33040	
1702	0	33122	33196	
1703	0	33156	33180	
1704	0	33066	33306	
1705	0	32976	33152	
1706	0	32932	33058	
1707	0	32900	33114	
1708	0	32848	33071	
1709	0	32804	32980	
1710	0	32756	32956	
1711	0	32738	32622	
1712	0	32760	32756	
1713	0	32724	32608	
1714	0	32774	32615	
1715	0	32708	32560	
1716	0	32725	32548	
1717	0	32708	32622	
1718	0	32640	32564	
1719	0	32724	32583	
1720	0	32714	32634	
1721	0	32642	32742	
1722	0	32676	32597	
1723	0	32746	32728	
1724	0	32688	32771	
1725	0	32770	32706	
1726	0	32709	32800	
1727	0	32744	32788	
1728	0	32716	32658	
1729	0	32720	32728	
1730	0	32808	32832	
1731	0	32780	32754	
1732	0	32800	32774	
1733	0	32772	32790	
1734	0	32832	32703	
1735	0	32884	32848	
1736	0	32813	32775	
1737	0	32890	32732	
1738	0	32864	32838	
1739	0	32898	32718	
1740	0	32816	32728	
1741	0	32856	32708	
1742	0	32804	32858	
1743	0	32752	32799	
1744	0	32836	32784	
1745	0	32800	32720	
1746	0	32784	32679	
1747	0	32834	32774	
1748	0	32836	32750	
1749	0	32782	32855	
1750	0	32828	32692	
1751	0	32824	32692	
1752	0	32830	32847	
1753	0	32796	32822	
1754	0	32756	32774	
1755	0	32824	32740	
1756	0	32800	32668	
1757	0	32860	32730	
1758	0	32852	32654	
1759	0	32772	32843	
1760	0	32780	32888	
1761	0	32760	32766	
1762	0	32788	32812	
1763	0	32817	32798	
1764	0	32798	32708	
1765	0	32860	32704	
1766	0	32864	32836	
1767	0	32808	32871	
1768	0	32808	32718	
1769	0	32872	32761	
1770	0	32788	32692	
1771	0	32814	32731	
1772	0	32756	32775	
1773	0	32820	32834	
1774	0	32848	32775	
1775	0	32782	32796	
1776	0	32744	32638	
1777	0	32744	32774	
1778	0	32840	32775	
1779	0	32892	32792	
1780	0	32860	32810	
1781	0	32784	32719	
1782	0	32788	32775	
1783	0	32784	32864	
1784	0	32812	32743	
1785	0	32852	32775	
1786	0	32868	32710	
1787	0	32838	32752	
1788	0	32764	32856	
1789	0	32796	32758	
1790	0	32848	32647	
1791	0	32804	32744	
1792	0	32728	32816	
1793	0	32840	32816	
1794	0	32790	32854	
1795	0	32776	32664	
1796	0	32776	32697	
1797	0	32780	32801	
1798	0	32816	32839	
1799	0	32844	32839	
1800	0	32796	32728	
1801	0	32768	32692	
1802	0	32804	32791	
1803	0	32846	32694	
1804	0	32880	32830	
1805	0	32808	32714	
1806	0	32808	32678	
1807	0	32760	32706	
1808	0	32840	32748	
1809	0	32798	32764	
1810	0	32740	32710	
1811	0	32778	32672	
1812	0	32820	32784	
1813	0	32824	32902	
1814	0	32822	32802	
1815	0	32736	32758	
1816	0	32880	32696	
1817	0	32822	32916	
1818	0	32772	32828	
1819	0	32817	32836	
1820	0	32790	32714	
1821	0	32836	32729	
1822	0	32820	32687	
1823	0	32840	32775	
1824	0	32860	32720	
1825	0	32812	32752	
1826	0	32792	32652	
1827	0	32842	32775	
1828	0	32772	32800	
1829	0	32804	32810	
1830	0	32788	32766	
1831	0	32784	32790	
1832	0	32794	32856	
1833	0	32852	32696	
1834	0	32804	32804	
1835	0	32828	32675	
1836	0	32832	32807	
1837	0	32854	32804	
1838	0	32816	32810	
1839	0	32740	33082	
1840	0	32810	33070	
1841	0	32816	33159	
1842	0	32852	33216	
1843	0	32860	33180	
1844	0	32836	32980	
1845	0	32840	32924	
1846	0	32844	32704	
1847	0	32890	32628	
1848	0	32864	32519	
1849	0	32852	32380	
1850	0	32784	32432	
1851	0	32796	32471	
1852	0	32820	32586	
1853	0	32812	32772	
1854	0	32802	32670	
1855	0	32732	32548	
1856	0	32802	32615	
1857	0	32776	32501	
1858	0	32796	32636	
1859	0	32888	32352	
1860	0	32812	32135	
1861	0	32856	32292	
1862	0	32808	32378	
1863	0	32792	32490	
1864	0	32806	32620	
1865	0	32790	32683	
1866	0	32732	32870	
1867	0	32868	32994	
1868	0	32786	33040	
1869	0	32778	32902	
1870	0	32788	32860	
1871	0	32826	32888	
1872	0	32832	32690	
1873	0	32762	32679	
1874	0	32796	32860	
1875	0	32842	32820	
1876	0	32812	32864	
1877	0	32806	32953	
1878	0	32816	32876	
1879	0	32808	32934	
1880	0	32784	33004	
1881	0	32776	32980	
1882	0	32870	32980	
1883	0	32836	32859	
1884	0	32808	32864	
1885	0	32816	32953	
1886	0	32864	32880	
1887	0	32752	32935	
1888	0	32780	32800	
1889	0	32820	32898	
1890	0	32804	32874	
1891	0	32816	32820	
1892	0	32804	32754	
1893	0	32786	32647	
1894	0	32792	32768	
1895	0	32784	32812	
1896	0	32808	32758	
1897	0	32828	32796	
1898	0	32916	32660	
1899	0	32828	32624	
1900	0	32884	32788	
1901	0	32876	32762	
1902	0	32848	32726	
1903	0	32780	32759	
1904	0	32868	32774	
1905	0	32757	32754	
1906	0	32808	32654	
1907	0	32784	32706	
1908	0	32776	32775	
1909	0	32858	32738	
1910	0	32788	32775	
1911	0	32796	32670	
1912	0	32750	32847	
1913	0	32798	32712	
1914	0	32748	32810	
1915	0	32874	32668	
1916	0	32816	32775	
1917	0	32794	32761	
1918	0	32824	32672	
1919	0	32840	32694	
1920	0	32832	32711	
1921	0	32792	32796	
1922	0	32854	32810	
1923	0	32832	32746	
1924	0	32822	32815	
1925	0	32752	32752	
1926	0	32790	32772	
1927	0	32828	32695	
1928	0	32860	32786	
1929	0	32896	32696	
1930	0	32816	32803	
1931	0	32754	32790	
1932	0	32688	32823	
1933	0	32672	32782	
1934	0	32714	32816	
1935	0	32816	32705	
1936	0	32810	32751	
1937	0	32864	32832	
1938	0	32864	32758	
1939	0	32856	32696	
1940	0	32888	32734	
1941	0	32832	32718	
1942	0	32828	32766	
1943	0	32860	32838	
1944	0	32864	32804	
1945	0	32832	32856	
1946	0	32826	32739	
1947	0	32852	32688	
1948	0	32846	32751	
1949	0	32868	32862	
1950	0	32774	32746	
1951	0	32732	32750	
1952	0	32832	32790	
1953	0	32884	32666	
1954	0	32908	32606	
1955	0	32886	32750	
1956	0	32872	32810	
1957	0	32880	32792	
1958	0	32872	32775	
1959	0	32874	32662	
1960	0	32904	32758	
1961	0	32816	32846	
1962	0	32728	32775	
1963	0	32792	32815	
1964	0	32760	32882	
1965	0	32692	32746	
1966	0	32692	32884	
1967	0	32692	32886	
1968	0	32850	32834	
1969	0	32712	32743	
1970	0	32788	32680	
1971	0	32804	32798	
1972	0	32814	32690	
1973	0	32770	32666	
1974	0	32836	32542	
1975	0	32756	32652	
1976	0	32802	32700	
1977	0	32812	32714	
1978	0	32872	32660	
1979	0	32900	32790	
1980	0	32828	32852	
1981	0	32852	32770	
1982	0	32798	32838	
1983	0	32820	32714	
1984	0	32869	32740	
1985	0	32810	32774	
1986	0	32810	32816	
1987	0	32774	32703	
1988	0	32796	32856	
1989	0	32716	32743	
1990	0	32840	32686	
1991	0	32800	32798	
1992	0	32856	32846	
1993	0	32878	32806	
1994	0	32824	32842	
1995	0	32800	32686	
1996	0	32744	32724	
1997	0	32842	32708	
1998	0	32800	32702	
1999	0	32776	32641	
2000	0	32782	32710	
2001	0	32708	32826	
2002	0	32776	32724	
2003	0	32824	32655	
2004	0	32838	32720	
2005	0	32824	32839	
2006	0	32812	32721	
2007	0	32784	32796	
2008	0	32844	32834	
2009	0	32780	32718	
2010	0	32816	32764	
2011	0	32716	32877	
2012	0	32832	32911	
2013	0	32756	32938	
2014	0	32836	32767	
2015	0	32784	32818	
2016	0	32780	32892	
2017	0	32852	32832	
2018	0	32848	32729	
2019	0	32814	32682	
2020	0	32836	32838	
2021	0	32900	32748	
2022	0	32816	32766	
2023	0	32766	32755	
2024	0	32846	32716	
2025	0	32800	32736	
2026	0	32732	32711	
2027	0	32840	32739	
2028	0	32804	32770	
2029	0	32836	32692	
2030	0	32840	32702	
2031	0	32812	32620	
2032	0	32700	32663	
2033	0	32750	32792	
2034	0	32828	32912	
2035	0	32856	32775	
2036	0	32842	32760	
2037	0	32852	32656	
2038	0	32880	32719	
2039	0	32896	32810	
2040	0	32914	32802	
2041	0	32820	32746	
2042	0	32860	32668	
2043	0	32860	32800	
2044	0	32740	32732	
2045	0	32788	32800	
2046	0	32816	32804	
2047	0	32684	32678	
2048	0	32724	32922	
2049	0	32792	33014	
2050	0	32864	32894	
2051	0	32792	32887	
2052	0	32808	32816	
2053	0	32844	32692	
2054	0	32808	32775	
2055	0	32708	32774	
2056	0	32760	32775	
2057	0	32822	32666	
2058	0	32850	32750	
2059	0	32852	32570	
2060	0	32849	32686	
2061	0	32897	32762	
2062	0	32940	32652	
2063	0	32922	32686	
2064	0	32896	32624	
2065	0	32928	32697	
2066	0	32898	32814	
2067	0	32996	32775	
2068	0	32972	32736	
2069	0	32744	32696	
2070	0	32752	32742	
2071	0	32772	32630	
2072	0	32738	32718	
2073	0	32778	32836	
2074	0	32720	32740	
2075	0	32732	32822	
2076	0	32744	32964	
2077	0	32744	32954	
2078	0	32756	32876	
2079	0	32704	32746	
2080	0	32748	32858	
2081	0	32796	32818	
2082	0	32812	32800	
2083	0	32848	32725	
2084	0	32892	32659	
2085	0	32862	32868	
2086	0	32858	32742	
2087	0	32858	32826	
2088	0	32840	32686	
2089	0	32816	32772	
2090	0	32740	32807	
2091	0	32736	32683	
2092	0	32860	32846	
2093	0	32858	32711	
2094	0	32900	32702	
2095	0	32794	32888	
2096	0	32844	32727	
2097	0	32750	32751	
2098	0	32864	32864	
2099	0	32840	32714	
2100	0	32888	32884	
2101	0	32868	32849	
2102	0	32886	32720	
2103	0	32780	32828	
2104	0	32842	32666	
2105	0	32820	32730	
2106	0	32821	32832	
2107	0	32778	32802	
2108	0	32804	32744	
2109	0	32800	32700	
2110	0	32784	32802	
2111	0	32840	32866	
2112	0	32812	32738	
2113	0	32748	32828	
2114	0	32776	32732	
2115	0	32788	32794	
2116	0	32760	32868	
2117	0	32820	32804	
2118	0	32828	32750	
2119	0	32876	32775	
2120	0	32820	32748	
2121	0	32836	32775	
2122	0	32750	32806	
2123	0	32716	32716	
2124	0	32798	32756	
2125	0	32836	32664	
2126	0	32768	32731	
2127	0	32862	32967	
2128	0	32808	32970	
2129	0	32844	32894	
2130	0	32832	32826	
2131	0	32846	32752	
2132	0	32836	32804	
2133	0	32724	32769	
2134	0	32720	32700	
2135	0	32778	32736	
2136	0	32734	32716	
2137	0	32728	32744	
2138	0	32812	32585	
2139	0	32822	32666	
2140	0	32784	32832	
2141	0	32808	32722	
2142	0	32824	32688	
2143	0	32760	32883	
2144	0	32862	32700	
2145	0	32860	32712	
2146	0	32816	32766	
2147	0	32810	32842	
2148	0	32768	32856	
2149	0	32817	32634	
2150	0	32836	32615	
2151	0	32776	32716	
2152	0	32822	32708	
2153	0	32792	32672	
2154	0	32856	32796	
2155	0	32880	32751	
2156	0	32864	32784	
2157	0	32860	32708	
2158	0	32844	32818	
2159	0	32888	32800	
2160	0	32840	32844	
2161	0	32876	32740	
2162	0	32814	32866	
2163	0	32832	32814	
2164	0	32808	32751	
2165	0	32810	32742	
2166	0	32764	32850	
2167	0	32806	32854	
2168	0	32828	32708	
2169	0	32782	32704	
2170	0	32808	32754	
2171	0	32696	32814	
2172	0	32816	32720	
2173	0	32818	32744	
2174	0	32724	32856	
2175	0	32840	32756	
2176	0	32834	32748	
2177	0	32836	32678	
2178	0	32840	32800	
2179	0	32798	32772	
2180	0	32840	32744	
2181	0	32780	32844	
2182	0	32828	32794	
2183	0	32774	32768	
2184	0	32820	32916	
2185	0	32788	32759	
2186	0	32744	32788	
2187	0	32832	32712	
2188	0	32844	32674	
2189	0	32868	32834	
2190	0	32836	32798	
2191	0	32860	32869	
2192	0	32932	32647	
2193	0	32868	32788	
2194	0	32880	32790	
2195	0	32868	32756	
2196	0	32846	32775	
2197	0	32796	32682	
2198	0	32852	32606	
2199	0	32780	32742	
2200	0	32744	32734	
2201	0	32786	32788	
2202	0	32762	32772	
2203	0	32740	32766	
2204	0	32804	32812	
2205	0	32904	32823	
2206	0	32884	32775	
2207	0	32744	32884	
2208	0	32756	32775	
2209	0	32768	32710	
2210	0	32772	32852	
2211	0	32772	32668	
2212	0	32788	32756	
2213	0	32836	32770	
2214	0	32784	32718	
2215	0	32784	32730	
2216	0	32782	32902	
2217	0	32824	32698	
2218	0	32754	32775	
2219	0	32792	32888	
2220	0	32821	32671	
2221	0	32756	32720	
2222	0	32796	32772	
2223	0	32842	32762	
2224	0	32816	32746	
2225	0	32802	32816	
2226	0	32792	32822	
2227	0	32796	32694	
2228	0	32776	32822	
2229	0	32836	32748	
2230	0	32866	32762	
2231	0	32892	32702	
2232	0	32838	32600	
2233	0	32944	32826	
2234	0	32878	32740	
2235	0	32852	32866	
2236	0	32804	32676	
2237	0	32832	32724	
2238	0	32864	32892	
2239	0	32780	32830	
2240	0	32744	32820	
2241	0	32840	32676	
2242	0	32775	32838	
2243	0	32756	32828	
2244	0	32829	32818	
2245	0	32832	32820	
2246	0	32820	32708	
2247	0	32904	32618	
2248	0	32808	32807	
2249	0	32816	32804	
2250	0	32780	32774	
2251	0	32788	32724	
2252	0	32756	32711	
2253	0	32826	32721	
2254	0	32800	32816	
2255	0	32852	32704	
2256	0	32842	32842	
2257	0	32772	32826	
2258	0	32854	32708	
2259	0	32818	32796	
2260	0	32804	32798	
2261	0	32844	32798	
2262	0	32826	32721	
2263	0	32836	32812	
2264	0	32828	32839	
2265	0	32856	32668	
2266	0	32784	32802	
2267	0	32796	32732	
2268	0	32788	32588	
2269	0	32772	32836	
2270	0	32818	32821	
2271	0	32740	32766	
2272	0	32790	32775	
2273	0	32786	32790	
2274	0	32744	32775	
2275	0	32822	32702	
2276	0	32832	32680	
2277	0	32788	32722	
2278	0	32848	32860	
2279	0	32794	32752	
2280	0	32844	32815	
2281	0	32858	32692	
2282	0	32768	32768	
2283	0	32812	32775	
2284	0	32836	32804	
2285	0	32816	32758	
2286	0	32848	32775	
2287	0	32800	32788	
2288	0	32812	32708	
2289	0	32826	32721	
2290	0	32824	32788	
2291	0	32788	32804	
2292	0	32832	32708	
2293	0	32858	32792	
2294	0	32816	32842	
2295	0	32852	32756	
2296	0	32856	32788	
2297	0	32776	32767	
2298	0	32788	32774	
2299	0	32816	32775	
2300	0	32824	32740	
2301	0	32810	32775	
2302	0	32812	32788	
2303	0	32860	32852	
2304	0	32784	32746	
2305	0	32838	32766	
2306	0	32814	32775	
2307	0	32764	32714	
2308	0	32842	32788	
2309	0	32832	32892	
2310	0	32804	32775	
2311	0	32772	32688	
2312	0	32866	32748	
2313	0	32812	32774	
2314	0	32828	32678	
2315	0	32774	32844	
2316	0	32840	32844	
2317	0	32804	32816	
2318	0	32816	32647	
2319	0	32752	32759	
2320	0	32738	32775	
2321	0	32820	32862	
2322	0	32810	32812	
2323	0	32832	32756	
2324	0	32856	32830	
2325	0	32880	32832	
2326	0	32846	32714	
2327	0	32824	32769	
2328	0	32750	32890	
2329	0	32836	32887	
2330	0	32884	32758	
2331	0	32806	32668	
2332	0	32796	32700	
2333	0	32828	32836	
2334	0	32852	32814	
2335	0	32760	32678	
2336	0	32814	32751	
2337	0	32786	32724	
2338	0	32784	32732	
2339	0	32816	32820	
2340	0	32796	32686	
2341	0	32809	32636	
2342	0	32852	32759	
2343	0	32852	32728	
2344	0	32788	32808	
2345	0	32760	32834	
2346	0	32832	32678	
2347	0	32868	32764	
2348	0	32808	32879	
2349	0	32830	32756	
2350	0	32836	32839	
2351	0	32817	32748	
2352	0	32800	32818	
2353	0	32775	32828	
2354	0	32812	32770	
2355	0	32828	32858	
2356	0	32808	32708	
2357	0	32844	32748	
2358	0	32848	32802	
2359	0	32806	32772	
2360	0	32740	32792	
2361	0	32764	32788	
2362	0	32774	32724	
2363	0	32808	32592	
2364	0	32720	32775	
2365	0	32762	32824	
2366	0	32784	32760	
2367	0	32870	32758	
2368	0	32880	32720	
2369	0	32788	32699	
2370	0	32810	32775	
2371	0	32848	32788	
2372	0	32816	32774	
2373	0	32802	32734	
2374	0	32800	32894	
2375	0	32882	32724	
2376	0	32764	32752	
2377	0	32796	32810	
2378	0	32800	32798	
2379	0	32820	32814	
2380	0	32825	32738	
2381	0	32799	32730	
2382	0	32784	32822	
2383	0	32844	32738	
2384	0	32796	32720	
2385	0	32796	32724	
2386	0	32786	32806	
2387	0	32844	32698	
2388	0	32784	32808	
2389	0	32848	32775	
2390	0	32822	32774	
2391	0	32800	32708	
2392	0	32780	32892	
2393	0	32844	32795	
2394	0	32818	32775	
2395	0	32752	32903	
2396	0	32812	32726	
2397	0	32856	32708	
2398	0	32836	32756	
2399	0	32854	32710	
2400	0	32832	32640	
2401	0	32810	32519	
2402	0	32842	32650	
2403	0	32760	32647	
2404	0	32846	32622	
2405	0	32916	32664	
2406	0	32848	32772	
2407	0	32868	32736	
2408	0	32806	32822	
2409	0	32740	32962	
2410	0	32808	32800	
2411	0	32754	32722	
2412	0	32808	32838	
2413	0	32902	32934	
2414	0	32826	32798	
2415	0	32832	32807	
2416	0	32842	32796	
2417	0	32804	32804	
2418	0	32826	32903	
2419	0	32768	32807	
2420	0	32828	32752	
2421	0	32812	32812	
2422	0	32810	32895	
2423	0	32820	32775	
2424	0	32800	32574	
2425	0	32798	32490	
2426	0	32792	32551	
2427	0	32776	32660	
2428	0	32785	32732	
2429	0	32764	32724	
2430	0	32692	32682	
2431	0	32700	32673	
2432	0	32720	32828	
2433	0	32758	32632	
2434	0	32713	32564	
2435	0	32740	32636	
2436	0	32716	32758	
2437	0	32778	32764	
2438	0	32791	32770	
2439	0	32724	32690	
2440	0	32756	32578	
2441	0	32792	32576	
2442	0	32828	32734	
2443	0	32800	32704	
2444	0	32834	32806	
2445	0	32834	32682	
2446	0	32894	32560	
2447	0	32932	32668	
2448	0	32945	32623	
2449	0	32888	32790	
2450	0	33072	32956	
2451	0	33121	32932	
2452	0	33070	32832	
2453	0	33034	33092	
2454	0	33082	33256	
2455	0	33110	33134	
2456	0	33082	33232	
2457	0	33008	33216	
2458	0	32888	33120	
2459	0	32866	33156	
2460	0	32790	33010	
2461	0	32860	33088	
2462	0	32770	33120	
2463	0	32700	32788	
2464	0	32748	32928	
2465	0	32670	32718	
2466	0	32684	32436	
2467	0	32680	32438	
2468	0	32592	32192	
2469	0	32648	32372	
2470	0	32706	32748	
2471	0	32636	32766	
2472	0	32560	32526	
2473	0	32668	32964	
2474	0	32668	33222	
2475	0	32682	33320	
2476	0	32596	32686	
2477	0	32572	32376	
2478	0	32526	32236	
2479	0	32556	32418	
2480	0	32724	32732	
2481	0	32949	32370	
2482	0	33106	32028	
2483	0	33108	32282	
2484	0	33076	32296	
2485	0	33008	32580	
2486	0	32944	33084	
2487	0	32974	33434	
2488	0	32954	32988	
2489	0	32864	33102	
2490	0	32856	33130	
2491	0	32880	32770	
2492	0	32876	32772	
2493	0	32816	32580	
2494	0	32780	32584	
2495	0	32818	32580	
2496	0	32770	32455	
2497	0	32808	32460	
2498	0	32790	32532	
2499	0	32644	32662	
2500	0	32648	32676	
2501	0	32660	32758	
2502	0	32772	33031	
2503	0	32872	32934	
2504	0	32804	32929	
2505	0	32777	32922	
2506	0	32672	32948	
2507	0	32704	32974	
2508	0	32724	33022	
2509	0	32712	32964	
2510	0	32750	32862	
2511	0	32820	32790	
2512	0	32856	32852	
2513	0	32864	32962	
2514	0	32874	32808	
2515	0	32846	32922	
2516	0	32944	32775	
2517	0	32984	32934	
2518	0	32960	32714	
2519	0	32876	32772	
2520	0	32932	32602	
2521	0	32868	32754	
2522	0	32732	32814	
2523	0	32744	32774	
2524	0	32786	32710	
2525	0	32828	32826	
2526	0	32764	32596	
2527	0	32750	32800	
2528	0	32772	32758	
2529	0	32888	32736	
2530	0	32802	32708	
2531	0	32754	32602	
2532	0	32792	32586	
2533	0	32760	32679	
2534	0	32754	32800	
2535	0	32780	32714	
2536	0	32864	32788	
2537	0	32796	32680	
2538	0	32756	32580	
2539	0	32780	32672	
2540	0	32828	32748	
2541	0	32766	32796	
2542	0	32856	32692	
2543	0	32844	32750	
2544	0	32800	32718	
2545	0	32816	32974	
2546	0	32776	32948	
2547	0	32844	32756	
2548	0	32720	32766	
2549	0	32794	32804	
2550	0	32772	32670	
2551	0	32802	33024	
2552	0	32830	32775	
2553	0	32856	32746	
2554	0	32874	32748	
2555	0	32860	32716	
2556	0	32840	32743	
2557	0	32704	32655	
2558	0	32732	32820	
2559	0	32736	32836	
2560	0	32788	32836	
2561	0	32780	32556	
2562	0	32736	32656	
2563	0	32720	32708	
2564	0	32740	32868	
2565	0	32820	32712	
2566	0	32740	32728	
2567	0	32872	32810	
2568	0	32876	32804	
2569	0	32872	33046	
2570	0	32992	33076	
2571	0	33060	32892	
2572	0	32856	32696	
2573	0	32768	32519	
2574	0	32776	32558	
2575	0	32932	32736	
2576	0	32818	32534	
2577	0	32760	32560	
2578	0	32760	32383	
2579	0	32838	32762	
2580	0	32784	33132	
2581	0	32784	33358	
2582	0	32812	32826	
2583	0	32820	32940	
2584	0	32712	32996	
2585	0	32676	32606	
2586	0	32752	32724	
2587	0	32702	33006	
2588	0	32756	33044	
2589	0	32748	32879	
2590	0	32776	32738	
2591	0	32728	32840	
2592	0	32764	32556	
2593	0	32808	32572	
2594	0	32752	32452	
2595	0	32844	32428	
2596	0	32834	32286	
2597	0	32740	32416	
2598	0	32818	32535	
2599	0	32820	32724	
2600	0	32936	32862	
2601	0	32880	32832	
2602	0	32882	33042	
2603	0	32784	33008	
2604	0	32852	32964	
2605	0	32876	32814	
2606	0	32956	32721	
2607	0	32858	32844	
2608	0	32900	32934	
2609	0	32936	32790	
2610	0	32938	32964	
2611	0	32980	32702	
2612	0	32852	32900	
2613	0	32726	32998	
2614	0	32792	32858	
2615	0	32816	32854	
2616	0	32752	32794	
2617	0	32716	32710	
2618	0	32810	32866	
2619	0	32716	32608	
2620	0	32764	32744	
2621	0	32838	32967	
2622	0	32730	32615	
2623	0	32882	32587	
2624	0	32920	32684	
2625	0	32844	32642	
2626	0	32780	32774	
2627	0	32808	32774	
2628	0	32736	32903	
2629	0	32720	32956	
2630	0	32644	32743	
2631	0	32634	32592	
2632	0	32624	32982	
2633	0	32748	32948	
2634	0	32742	32436	
2635	0	32744	32628	
2636	0	32776	32724	
2637	0	32772	32804	
2638	0	32756	32703	
2639	0	32792	32694	
2640	0	32774	32914	
2641	0	32760	32764	
2642	0	32736	32903	
2643	0	32748	32752	
2644	0	32872	32748	
2645	0	32784	32856	
2646	0	32752	32710	
2647	0	32862	32844	
2648	0	32846	32678	
2649	0	32982	32676	
2650	0	33014	33034	
2651	0	33056	32788	
2652	0	33026	33164	
2653	0	32944	32838	
2654	0	33048	32370	
2655	0	32968	32678	
2656	0	32912	32852	
2657	0	32944	32848	
2658	0	32984	32455	
2659	0	32945	32612	
2660	0	32926	32590	
2661	0	32808	32810	
2662	0	32660	32938	
2663	0	32754	32744	
2664	0	32656	32750	
2665	0	32520	32652	
2666	0	32634	32646	
2667	0	32812	33004	
2668	0	32814	32938	
2669	0	32730	33104	
2670	0	32644	33132	
2671	0	32708	32998	
2672	0	32712	32584	
2673	0	32632	32775	
2674	0	32640	32841	
2675	0	32812	32538	
2676	0	32840	32764	
2677	0	32796	32647	
2678	0	32876	32391	
2679	0	32864	32440	
2680	0	32876	32599	
2681	0	32965	32581	
2682	0	32984	32850	
2683	0	32896	33052	
2684	0	32850	32960	
2685	0	32815	32796	
2686	0	32760	32822	
2687	0	32736	32868	
2688	0	32792	33014	
2689	0	32810	32766	
2690	0	32776	32693	
2691	0	32720	32660	
2692	0	32782	32684	
2693	0	32788	32934	
2694	0	32760	32784	
2695	0	32770	32560	
2696	0	32580	32694	
2697	0	32612	32462	
2698	0	32712	32864	
2699	0	32824	32935	
2700	0	32984	32894	
2701	0	32936	32840	
2702	0	33048	32699	
2703	0	33069	32555	
2704	0	33004	32612	
2705	0	32940	32860	
2706	0	33024	32926	
2707	0	32784	32263	
2708	0	32806	32326	
2709	0	32840	32917	
2710	0	32696	33086	
2711	0	32780	33026	
2712	0	32876	33070	
2713	0	32828	32984	
2714	0	32880	32654	
2715	0	32792	32577	
2716	0	32724	32951	
2717	0	32632	32887	
2718	0	32672	32472	
2719	0	32856	32788	
2720	0	32800	32548	
2721	0	32776	32694	
2722	0	32802	32676	
2723	0	32730	32766	
2724	0	32820	32574	
2725	0	32852	32560	
2726	0	32716	32726	
2727	0	32840	32672	
2728	0	32824	32532	
2729	0	32764	32615	
2730	0	32824	32926	
2731	0	32926	33038	
2732	0	32936	32998	
2733	0	32988	32998	
2734	0	32862	33038	
2735	0	32934	32918	
2736	0	32918	33248	
2737	0	32876	32856	
2738	0	32938	32458	
2739	0	32928	32874	
2740	0	32880	32828	
2741	0	32928	32848	
2742	0	32740	32862	
2743	0	32668	32822	
2744	0	32580	32628	
2745	0	32584	32404	
2746	0	32564	32404	
2747	0	32496	32468	
2748	0	32568	32500	
2749	0	32756	32702	
2750	0	32858	32742	
2751	0	32916	32984	
2752	0	32976	33016	
2753	0	32812	33031	
2754	0	32812	32532	
2755	0	32732	32750	
2756	0	32720	32975	
2757	0	32820	32924	
2758	0	32940	32625	
2759	0	32932	32664	
2760	0	32856	32548	
2761	0	32916	32596	
2762	0	32852	32490	
2763	0	32808	32678	
2764	0	32826	32801	
2765	0	32760	33123	
2766	0	32860	32934	
2767	0	32656	33220	
2768	0	32600	32896	
2769	0	32720	32848	
2770	0	32788	32692	
2771	0	32780	32751	
2772	0	32698	32775	
2773	0	32744	32702	
2774	0	32788	32616	
2775	0	32828	32712	
2776	0	32848	32676	
2777	0	32878	32704	
2778	0	32860	32896	
2779	0	33024	32852	
2780	0	32952	32796	
2781	0	32976	32938	
2782	0	32992	33076	
2783	0	33060	33056	
2784	0	33092	33143	
2785	0	32994	32646	
2786	0	32788	32608	
2787	0	32628	32288	
2788	0	32848	32128	
2789	0	32832	32104	
2790	0	32738	32362	
2791	0	32856	33052	
2792	0	32532	33118	
2793	0	32484	32994	
2794	0	32730	32954	
2795	0	32916	33209	
2796	0	32902	33002	
2797	0	32836	33016	
2798	0	32966	32654	
2799	0	32800	32126	
2800	0	32652	32279	
2801	0	32724	32728	
2802	0	32732	32212	
2803	0	32680	32426	
2804	0	32752	32940	
2805	0	32878	32984	
2806	0	32734	33120	
2807	0	32312	33367	
2808	0	32504	33112	
2809	0	32802	33070	
2810	0	32800	33102	
2811	0	32900	32910	
2812	0	33136	32566	
2813	0	33104	32092	
2814	0	32842	32482	
2815	0	33032	32775	
2816	0	33082	32794	
2817	0	33082	32726	
2818	0	33076	32886	
2819	0	32836	32775	
2820	0	32732	32566	
2821	0	32676	32582	
2822	0	32640	32472	
2823	0	32856	32720	
2824	0	32450	32924	
2825	0	32468	33070	
2826	0	32608	32951	
2827	0	32948	33050	
2828	0	33082	33104	
2829	0	32992	32775	
2830	0	32820	32740	
2831	0	32740	32996	
2832	0	32676	32513	
2833	0	32634	32418	
2834	0	32390	32390	
2835	0	32466	32739	
2836	0	32614	32967	
2837	0	32680	32762	
2838	0	32920	33024	
2839	0	32768	33000	
2840	0	32628	33088	
2841	0	32902	32186	
2842	0	33350	32220	
2843	0	33204	32586	
2844	0	33044	32470	
2845	0	33014	33146	
2846	0	32876	33190	
2847	0	33030	32988	
2848	0	32986	32945	
2849	0	32738	32700	
2850	0	32862	32742	
2851	0	32772	32662	
2852	0	32788	32519	
2853	0	33036	32538	
2854	0	32928	32910	
2855	0	32900	32967	
2856	0	32737	32840	
2857	0	32430	33137	
2858	0	32528	32887	
2859	0	32508	32396	
2860	0	32468	32824	
2861	0	32810	32676	
2862	0	33060	32705	
2863	0	32936	32853	
2864	0	32732	33173	
2865	0	32784	33098	
2866	0	32844	32766	
2867	0	32752	32384	
2868	0	32864	32444	
2869	0	33026	32540	
2870	0	33008	32479	
2871	0	32968	32610	
2872	0	32804	32658	
2873	0	32596	32746	
2874	0	32516	33044	
2875	0	32610	33112	
2876	0	32756	32935	
2877	0	32784	32896	
2878	0	32920	32660	
2879	0	32930	32455	
2880	0	32806	32210	
2881	0	32856	32550	
2882	0	33124	32975	
2883	0	33124	33444	
2884	0	33028	33182	
2885	0	32896	33226	
2886	0	33024	32898	
2887	0	33060	31946	
2888	0	32684	32332	
2889	0	32500	32423	
2890	0	32406	32416	
2891	0	32356	32074	
2892	0	32192	32428	
2893	0	32444	33018	
2894	0	32664	32966	
2895	0	32868	33624	
2896	0	32772	33348	
2897	0	33016	32984	
2898	0	33164	32808	
2899	0	32982	32513	
2900	0	33044	32679	
2901	0	33104	32705	
2902	0	32970	32674	
2903	0	32834	32922	
2904	0	32880	32815	
2905	0	32866	32742	
2906	0	32876	32585	
2907	0	32840	32822	
2908	0	32680	32876	
2909	0	32692	32752	
2910	0	32800	32350	
2911	0	32772	32527	
2912	0	32848	32628	
2913	0	32388	33036	
2914	0	32520	32590	
2915	0	32998	32920	
2916	0	32928	32938	
2917	0	32744	32998	
2918	0	32912	32846	
2919	0	33020	32926	
2920	0	33032	32851	
2921	0	32996	32716	
2922	0	32850	32568	
2923	0	32782	32839	
2924	0	32754	32722	
2925	0	32778	32934	
2926	0	32888	32692	
2927	0	32842	32234	
2928	0	32826	32362	
2929	0	32728	32940	
2930	0	32696	32464	
2931	0	32790	32790	
2932	0	32696	32912	
2933	0	32816	33064	
2934	0	32834	33180	
2935	0	32840	33026	
2936	0	32808	32807	
2937	0	32772	32734	
2938	0	32936	32862	
2939	0	32528	33159	
2940	0	32484	32902	
2941	0	32636	33013	
2942	0	32686	32536	
2943	0	32522	32524	
2944	0	32482	32666	
2945	0	32704	32807	
2946	0	32830	32882	
2947	0	32846	32423	
2948	0	32932	32628	
2949	0	33112	32295	
2950	0	32904	32465	
2951	0	32910	32647	
2952	0	32984	32641	
2953	0	32944	32708	
2954	0	32928	32775	
2955	0	32962	33287	
2956	0	33072	33415	
2957	0	33194	33320	
2958	0	32934	32875	
2959	0	32738	32760	
2960	0	32730	32878	
2961	0	32736	32602	
2962	0	32632	32164	
2963	0	32732	32540	
2964	0	32810	32506	
2965	0	32800	33287	
2966	0	32970	33204	
2967	0	32924	32650	
2968	0	32720	32284	
2969	0	32688	32132	
2970	0	32832	32224	
2971	0	32736	32448	
2972	0	32648	32540	
2973	0	32608	33254	
2974	0	32670	33432	
2975	0	32524	33188	
2976	0	32688	33056	
2977	0	33050	32676	
2978	0	32988	32880	
2979	0	32768	32663	
2980	0	32782	32435	
2981	0	32809	32400	
2982	0	32778	32814	
2983	0	32704	33196	
2984	0	32792	33306	
2985	0	32928	32764	
2986	0	33100	32964	
2987	0	33084	33121	
2988	0	32868	32838	
2989	0	32730	32912	
2990	0	32624	33171	
2991	0	32588	32632	
2992	0	32748	31736	
2993	0	32632	32180	
2994	0	32520	32807	
2995	0	32706	32972	
2996	0	32844	32583	
2997	0	33036	32722	
2998	0	33076	32366	
2999	0	33072	32752	
3000	0	33064	32775	
3001	0	33072	32852	
3002	0	33088	33018	
3003	0	33074	33080	
3004	0	32888	32710	
3005	0	32902	32948	
3006	0	32940	33074	
3007	0	32708	33121	
3008	0	32564	32647	
3009	0	32426	32423	
3010	0	32569	32423	
3011	0	32728	32826	
3012	0	32768	32910	
3013	0	32728	32850	
3014	0	32760	32762	
3015	0	32796	32668	
3016	0	32788	32946	
3017	0	32664	33370	
3018	0	32632	33284	
3019	0	32634	33543	
3020	0	32500	32372	
3021	0	32652	31502	
3022	0	32958	31284	
3023	0	33060	32043	
3024	0	33032	32724	
3025	0	33060	33482	
3026	0	33084	33246	
3027	0	32900	33192	
3028	0	32656	32983	
3029	0	32632	32542	
3030	0	33084	32924	
3031	0	33252	32599	
3032	0	32978	32774	
3033	0	32832	32876	
3034	0	32618	33052	
3035	0	32652	33358	
3036	0	32577	32922	
3037	0	32666	32108	
3038	0	32784	32458	
3039	0	32804	32628	
3040	0	32844	32420	
3041	0	32884	32769	
3042	0	32980	32956	
3043	0	33078	32732	
3044	0	33008	33160	
3045	0	32928	32822	
3046	0	32880	32922	
3047	0	32930	32946	
3048	0	32848	32855	
3049	0	32900	32838	
3050	0	32842	32569	
3051	0	32872	31870	
3052	0	32472	32488	
3053	0	32452	32620	
3054	0	32692	33063	
3055	0	32612	33179	
3056	0	32692	32695	
3057	0	32532	32913	
3058	0	32624	32868	
3059	0	32632	32858	
3060	0	32616	32822	
3061	0	32732	32710	
3062	0	32752	32812	
3063	0	32896	32900	
3064	0	32886	32770	
3065	0	33012	32402	
3066	0	33060	33308	
3067	0	32848	33287	
3068	0	33076	33498	
3069	0	32906	32526	
3070	0	32916	32212	
3071	0	32940	32438	
3072	0	32760	32708	
3073	0	32784	32770	
3074	0	32858	32870	
3075	0	33192	32231	
3076	0	33024	32174	
3077	0	32872	32194	
3078	0	32814	32458	
3079	0	32404	32916	
3080	0	32316	33236	
3081	0	32372	33233	
3082	0	32784	33159	
3083	0	32554	32952	
3084	0	32688	32732	
3085	0	32944	32578	
3086	0	33240	32984	
3087	0	33048	32788	
3088	0	32968	33584	
3089	0	32952	32610	
3090	0	32736	32852	
3091	0	32596	32722	
3092	0	32962	32535	
3093	0	32660	32676	
3094	0	32640	33088	
3095	0	32564	33126	
3096	0	32704	32188	
3097	0	32971	32734	
3098	0	33036	33020	
3099	0	33008	32583	
3100	0	33116	32076	
3101	0	33238	32128	
3102	0	33072	32960	
3103	0	33008	33044	
3104	0	33020	32672	
3105	0	33056	32324	
3106	0	32640	32970	
3107	0	32468	32790	
3108	0	32616	32618	
3109	0	32896	33130	
3110	0	32964	32852	
3111	0	32864	32412	
3112	0	32840	33244	
3113	0	32616	33380	
3114	0	32898	33156	
3115	0	32664	33172	
3116	0	32602	33415	
3117	0	32628	33367	
3118	0	32708	32756	
3119	0	32642	32486	
3120	0	32368	32720	
3121	0	32192	32060	
3122	0	32152	32334	
3123	0	32124	31644	
3124	0	32480	31345	
3125	0	32804	32168	
3126	0	32764	33591	
3127	0	32872	33512	
3128	0	33122	32548	
3129	0	32992	32857	
3130	0	33448	32448	
3131	0	33492	32106	
3132	0	33576	32692	
3133	0	33360	33184	
3134	0	33220	33380	
3135	0	33104	33418	
3136	0	33152	33168	
3137	0	33042	33390	
3138	0	32972	33356	
3139	0	32866	32372	
3140	0	32988	32572	
3141	0	32936	32249	
3142	0	32712	32230	
3143	0	32508	32462	
3144	0	32470	32913	
3145	0	32320	32772	
3146	0	32304	32932	
3147	0	32520	32968	
3148	0	32554	32732	
3149	0	32272	33230	
3150	0	32568	32988	
3151	0	32764	32622	
3152	0	32984	32128	
3153	0	32704	32420	
3154	0	32592	32692	
3155	0	32656	32648	
3156	0	32956	32744	
3157	0	32988	32718	
3158	0	33114	32818	
3159	0	33096	32144	
3160	0	32916	32647	
3161	0	32912	33072	
3162	0	32952	33178	
3163	0	32868	33528	
3164	0	32720	33308	
3165	0	32932	33562	
3166	0	33100	33232	
3167	0	33052	32751	
3168	0	32926	31924	
3169	0	32908	32184	
3170	0	32892	31871	
3171	0	32686	31778	
3172	0	32552	31956	
3173	0	32014	32286	
3174	0	32004	33031	
3175	0	32310	33012	
3176	0	32468	32775	
3177	0	32660	33080	
3178	0	32718	32815	
3179	0	32636	32858	
3180	0	32816	33300	
3181	0	32724	33287	
3182	0	32744	32852	
3183	0	32868	32868	
3184	0	33124	32510	
3185	0	33180	32308	
3186	0	33044	32292	
3187	0	32720	32135	
3188	0	32700	32586	
3189	0	32898	33242	
3190	0	32780	33270	
3191	0	32820	32878	
3192	0	32764	32558	
3193	0	32782	32486	
3194	0	32961	33058	
3195	0	33292	32744	
3196	0	33284	32911	
3197	0	33238	32448	
3198	0	33172	32156	
3199	0	32996	32910	
3200	0	33196	33319	
3201	0	32942	32894	
3202	0	33036	33031	
3203	0	33132	32496	
3204	0	33080	32500	
3205	0	32964	32979	
3206	0	32928	33312	
3207	0	32814	33926	
3208	0	32820	34072	
3209	0	32832	33890	
3210	0	32590	33287	
3211	0	32088	33624	
3212	0	32176	32192	
3213	0	32528	31678	
3214	0	32498	31765	
3215	0	32600	32492	
3216	0	32504	32628	
3217	0	32520	32454	
3218	0	32826	32354	
3219	0	32934	32202	
3220	0	32964	32154	
3221	0	32824	33236	
3222	0	32736	32636	
3223	0	32704	32638	
3224	0	32584	32736	
3225	0	32516	33175	
3226	0	32858	33104	
3227	0	32938	33012	
3228	0	32986	32633	
3229	0	33264	32632	
3230	0	33252	32828	
3231	0	32974	32752	
3232	0	32844	32032	
3233	0	32868	32384	
3234	0	32872	32834	
3235	0	32630	33000	
3236	0	32640	32932	
3237	0	32596	33034	
3238	0	32628	33242	
3239	0	32624	32846	
3240	0	32576	32757	
3241	0	32416	32704	
3242	0	32780	32283	
3243	0	32960	32892	
3244	0	32992	32519	
3245	0	33120	32827	
3246	0	33040	32498	
3247	0	33044	32090	
3248	0	32820	32724	
3249	0	32828	33062	
3250	0	32896	32951	
3251	0	33112	32702	
3252	0	32976	33058	
3253	0	32768	33337	
3254	0	32592	33222	
3255	0	32556	31786	
3256	0	32709	32750	
3257	0	32710	32842	
3258	0	32687	32316	
3259	0	32844	32478	
3260	0	32756	32792	
3261	0	32724	32692	
3262	0	32788	32802	
3263	0	32648	32775	
3264	0	32668	32354	
3265	0	32788	32647	
3266	0	32948	33142	
3267	0	32728	32876	
3268	0	32748	32628	
3269	0	32704	31664	
3270	0	32792	33130	
3271	0	32856	33860	
3272	0	32900	33312	
3273	0	32792	32578	
3274	0	32812	32498	
3275	0	33086	32740	
3276	0	32836	32294	
3277	0	32712	32664	
3278	0	32998	32632	
3279	0	33090	32411	
3280	0	32868	32706	
3281	0	32758	32804	
3282	0	32652	33057	
3283	0	32772	32950	
3284	0	32796	32728	
3285	0	32658	33156	
3286	0	32818	33133	
3287	0	32794	33268	
3288	0	32912	33164	
3289	0	32884	32670	
3290	0	32876	32852	
3291	0	32736	31768	
3292	0	32700	31700	
3293	0	32720	32428	
3294	0	32732	32367	
3295	0	32700	32496	
3296	0	32624	32938	
3297	0	32488	33079	
3298	0	32464	33016	
3299	0	32432	32994	
3300	0	32816	32526	
3301	0	32854	32591	
3302	0	32804	32988	
3303	0	32840	32908	
3304	0	33000	32802	
3305	0	33026	32104	
3306	0	33064	32760	
3307	0	32906	33007	
3308	0	33028	32739	
3309	0	32976	32199	
3310	0	32762	32775	
3311	0	32802	32944	
3312	0	32872	32840	
3313	0	32802	32508	
3314	0	32944	32684	
3315	0	32924	33182	
3316	0	32832	32707	
3317	0	32674	32564	
3318	0	32636	33142	
3319	0	32524	32466	
3320	0	32674	32124	
3321	0	32804	31572	
3322	0	33022	32100	
3323	0	32932	32048	
3324	0	32940	32554	
3325	0	32884	33172	
3326	0	32964	32622	
3327	0	33073	33230	
3328	0	32992	32692	
3329	0	32860	32879	
3330	0	32650	32807	
3331	0	32614	32684	
3332	0	32560	32770	
3333	0	32628	33128	
3334	0	32854	33064	
3335	0	32876	32994	
3336	0	32778	32631	
3337	0	32804	32624	
3338	0	32664	32984	
3339	0	32884	32983	
3340	0	32822	33350	
3341	0	32808	33063	
3342	0	32516	32796	
3343	0	32584	32938	
3344	0	32688	32740	
3345	0	32796	32967	
3346	0	33088	33062	
3347	0	33196	32702	
3348	0	32824	32726	
3349	0	33048	32540	
3350	0	32852	32250	
3351	0	32828	32679	
3352	0	32838	33218	
3353	0	32788	32668	
3354	0	32820	32722	
3355	0	32892	32968	
3356	0	32476	33264	
3357	0	32520	32608	
3358	0	32700	32759	
3359	0	32916	32817	
3360	0	32820	33176	
3361	0	32588	33182	
3362	0	32632	32754	
3363	0	32800	32568	
3364	0	32980	32704	
3365	0	32668	32708	
3366	0	32896	32858	
3367	0	33268	32824	
3368	0	33012	32680	
3369	0	32500	32808	
3370	0	32588	32590	
3371	0	32576	32835	
3372	0	32874	32550	
3373	0	33032	32442	
3374	0	32692	32903	
3375	0	32680	33136	
3376	0	32928	32230	
3377	0	32916	32562	
3378	0	33216	32830	
3379	0	33210	33444	
3380	0	33210	33414	
3381	0	32570	33268	
3382	0	32957	32708	
3383	0	32640	32807	
3384	0	32276	32376	
3385	0	32530	32327	
3386	0	32317	33031	
3387	0	32648	32970	
3388	0	33136	32442	
3389	0	33336	32688	
3390	0	33428	32812	
3391	0	33424	32724	
3392	0	33024	32896	
3393	0	32586	32854	
3394	0	32628	32679	
3395	0	32742	32970	
3396	0	32840	32758	
3397	0	32900	32791	
3398	0	32896	33310	
3399	0	32820	33202	
3400	0	32808	32844	
3401	0	32688	32282	
3402	0	32564	32696	
3403	0	32672	32802	
3404	0	32606	32750	
3405	0	32666	32666	
3406	0	32690	32366	
3407	0	32722	32572	
3408	0	32760	32863	
3409	0	32682	32988	
3410	0	32708	32668	
3411	0	32680	32890	
3412	0	32728	32676	
3413	0	32592	32744	
3414	0	32740	32887	
3415	0	32760	33042	
3416	0	32968	33184	
3417	0	33294	32960	
3418	0	33160	32518	
3419	0	32780	32568	
3420	0	32806	32752	
3421	0	32788	32720	
3422	0	32696	32228	
3423	0	32776	32444	
3424	0	33012	32404	
3425	0	32788	32624	
3426	0	32704	32881	
3427	0	32616	32788	
3428	0	32352	32834	
3429	0	32308	32830	
3430	0	32676	32606	
3431	0	32848	32860	
3432	0	32822	32750	
3433	0	32888	32764	
3434	0	33004	32756	
3435	0	32988	32583	
3436	0	33240	32852	
3437	0	32838	33286	
3438	0	32760	33050	
3439	0	32862	32852	
3440	0	32752	33006	
3441	0	32712	32892	
3442	0	32580	32832	
3443	0	32820	32932	
3444	0	33114	32900	
3445	0	33068	32404	
3446	0	33332	32151	
3447	0	33036	32422	
3448	0	32912	32584	
3449	0	32836	32700	
3450	0	32798	32608	
3451	0	32488	32775	
3452	0	32512	32736	
3453	0	32652	32420	
3454	0	32808	32688	
3455	0	33014	32774	
3456	0	33088	32474	
3457	0	32840	32748	
3458	0	32832	33250	
3459	0	32794	32788	
3460	0	32768	33048	
3461	0	32624	32822	
3462	0	32520	33070	
3463	0	32692	32320	
3464	0	32586	33000	
3465	0	32532	32894	
3466	0	32734	32686	
3467	0	33006	32580	
3468	0	32902	32996	
3469	0	32824	32750	
3470	0	32890	32796	
3471	0	33080	32716	
3472	0	33200	32775	
3473	0	32876	32750	
3474	0	32924	32640	
3475	0	32872	32561	
3476	0	33040	31980	
3477	0	33152	32248	
3478	0	33164	32620	
3479	0	32854	32614	
3480	0	32996	32759	
3481	0	32914	32832	
3482	0	32784	32676	
3483	0	32778	32743	
3484	0	32676	32732	
3485	0	32780	32886	
3486	0	32704	32775	
3487	0	32616	32759	
3488	0	32510	32898	
3489	0	32612	32623	
3490	0	32620	32678	
3491	0	32636	32834	
3492	0	32664	32798	
3493	0	32940	32668	
3494	0	32746	32806	
3495	0	32820	32715	
3496	0	33052	32920	
3497	0	32904	32610	
3498	0	32708	32387	
3499	0	32696	32388	
3500	0	32756	32488	
3501	0	32600	32518	
3502	0	32680	32460	
3503	0	32484	32666	
3504	0	32868	32198	
3505	0	33012	32519	
3506	0	33068	32936	
3507	0	33156	32548	
3508	0	33274	32620	
3509	0	32924	32328	
3510	0	32800	32642	
3511	0	32548	32775	
3512	0	32806	33278	
3513	0	32780	33156	
3514	0	32824	32688	
3515	0	33072	33378	
3516	0	32840	33084	
3517	0	32736	33286	
3518	0	32636	33319	
3519	0	32368	33415	
3520	0	32612	33628	
3521	0	32548	33652	
3522	0	32634	33866	
3523	0	32764	33656	
3524	0	33044	33521	
3525	0	32918	33536	
3526	0	33010	33347	
3527	0	33088	33182	
3528	0	32892	32934	
3529	0	32944	32800	
3530	0	32890	32934	
3531	0	32696	33002	
3532	0	32708	32696	
3533	0	32584	32800	
3534	0	32932	32692	
3535	0	33026	32724	
3536	0	33108	32501	
3537	0	33004	32519	
3538	0	32802	32526	
3539	0	33066	32746	
3540	0	32736	32741	
3541	0	32668	32848	
3542	0	32536	32722	
3543	0	32900	32422	
3544	0	33098	32372	
3545	0	32856	32160	
3546	0	32804	32718	
3547	0	32684	33076	
3548	0	32904	32726	
3549	0	32604	32642	
3550	0	32388	32564	
3551	0	32472	32835	
3552	0	32590	32720	
3553	0	32628	32556	
3554	0	32984	32512	
3555	0	32992	32286	
3556	0	33036	32300	
3557	0	32800	32288	
3558	0	32612	32586	
3559	0	32924	32830	
3560	0	32884	32756	
3561	0	32652	32958	
3562	0	32868	32954	
3563	0	33042	32760	
3564	0	32926	32852	
3565	0	33056	32744	
3566	0	32922	32750	
3567	0	32952	32959	
3568	0	32908	32506	
3569	0	32850	32498	
3570	0	32840	32726	
3571	0	32540	32631	
3572	0	32502	32534	
3573	0	32512	32609	
3574	0	32528	32943	
3575	0	32674	32810	
3576	0	32660	32812	
3577	0	32880	32514	
3578	0	32956	32748	
3579	0	32944	32911	
3580	0	32886	33040	
3581	0	33032	33036	
3582	0	32898	33132	
3583	0	33116	32847	
3584	0	32970	32414	
3585	0	32856	32754	
3586	0	32850	32800	
3587	0	32770	32641	
3588	0	32840	32704	
3589	0	32816	33118	
3590	0	32664	33158	
3591	0	32460	32926	
3592	0	32472	32678	
3593	0	32680	32703	
3594	0	32926	32644	
3595	0	32972	32508	
3596	0	32976	33044	
3597	0	32840	32770	
3598	0	32868	32664	
3599	0	33200	32980	
3600	0	32992	32692	
3601	0	32684	32495	
3602	0	32460	32812	
3603	0	32416	32494	
3604	0	32584	32582	
3605	0	32652	32300	
3606	0	32708	32576	
3607	0	32754	32624	
3608	0	32804	32530	
3609	0	33060	32910	
3610	0	32908	33124	
3611	0	32928	33124	
3612	0	32820	32784	
3613	0	32776	32759	
3614	0	32846	32645	
3615	0	32884	32574	
3616	0	32750	32772	
3617	0	32626	32680	
3618	0	32762	32910	
3619	0	33052	32700	
3620	0	33056	32639	
3621	0	32926	32874	
3622	0	32856	32696	
3623	0	32832	32420	
3624	0	32828	32324	
3625	0	32872	32566	
3626	0	32764	32646	
3627	0	32724	32874	
3628	0	32838	32694	
3629	0	32648	33002	
3630	0	32660	33126	
3631	0	33020	32962	
3632	0	32752	33095	
3633	0	32772	32988	
3634	0	32930	32751	
3635	0	33096	32704	
3636	0	33104	32602	
3637	0	33008	32574	
3638	0	32888	32847	
3639	0	32844	32854	
3640	0	32764	32660	
3641	0	32708	32775	
3642	0	32688	32642	
3643	0	32834	32884	
3644	0	32640	32951	
3645	0	32798	32841	
3646	0	32862	33198	
3647	0	32680	32880	
3648	0	32612	32793	
3649	0	32776	32898	
3650	0	32828	32488	
3651	0	32820	32574	
3652	0	33136	33004	
3653	0	32968	32856	
3654	0	32960	32714	
3655	0	33052	32642	
3656	0	32972	32655	
3657	0	32776	32788	
3658	0	32650	32911	
3659	0	32604	32586	
3660	0	32780	32696	
3661	0	32770	32711	
3662	0	32460	32740	
3663	0	32542	32624	
3664	0	32652	33108	
3665	0	32812	33124	
3666	0	32748	32866	
3667	0	32840	32689	
3668	0	32586	32796	
3669	0	32926	32732	
3670	0	32956	32974	
3671	0	32848	32854	
3672	0	32912	32766	
3673	0	32730	32652	
3674	0	32420	32582	
3675	0	32564	32496	
3676	0	32882	32398	
3677	0	33004	32478	
3678	0	33018	32888	
3679	0	32952	33010	
3680	0	33168	32770	
3681	0	32980	32900	
3682	0	32878	33070	
3683	0	32810	32832	
3684	0	32716	32958	
3685	0	32772	32775	
3686	0	32784	32796	
3687	0	32832	32947	
3688	0	32892	32903	
3689	0	32772	32860	
3690	0	32484	33070	
3691	0	32522	32468	
3692	0	32480	32512	
3693	0	32688	32678	
3694	0	32830	32519	
3695	0	32816	32890	
3696	0	32708	33022	
3697	0	32698	32732	
3698	0	32936	32666	
3699	0	33086	32805	
3700	0	33004	32565	
3701	0	32912	32692	
3702	0	32788	32774	
3703	0	32944	32863	
3704	0	33030	32832	
3705	0	33032	32678	
3706	0	33080	32678	
3707	0	32816	32814	
3708	0	32508	32743	
3709	0	32526	32936	
3710	0	32704	32948	
3711	0	32678	32984	
3712	0	32794	32702	
3713	0	32764	32930	
3714	0	32872	32988	
3715	0	32922	32846	
3716	0	32986	32999	
3717	0	32920	33136	
3718	0	32924	32588	
3719	0	32738	32667	
3720	0	32670	32674	
3721	0	32782	32160	
3722	0	32776	32193	
3723	0	32684	32654	
3724	0	32602	32820	
3725	0	32752	32856	
3726	0	32972	32846	
3727	0	33012	33022	
3728	0	32648	33090	
3729	0	32620	32668	
3730	0	33124	32578	
3731	0	32808	32846	
3732	0	32900	32767	
3733	0	32956	32821	
3734	0	32834	32752	
3735	0	32812	32512	
3736	0	32864	32663	
3737	0	32792	32938	
3738	0	32788	32928	
3739	0	32708	32871	
3740	0	32772	32676	
3741	0	32772	32454	
3742	0	32576	32864	
3743	0	32800	32726	
3744	0	32804	32615	
3745	0	32754	32910	
3746	0	32778	32832	
3747	0	32932	32530	
3748	0	33112	32556	
3749	0	32886	32724	
3750	0	32748	32896	
3751	0	32850	33158	
3752	0	32904	32876	
3753	0	32670	33250	
3754	0	32664	32900	
3755	0	33006	32892	
3756	0	32954	32524	
3757	0	32856	32204	
3758	0	32906	32372	
3759	0	32738	32642	
3760	0	32674	32340	
3761	0	32624	32583	
3762	0	32670	32532	
3763	0	32784	32814	
3764	0	32910	33112	
3765	0	32756	33024	
3766	0	32824	32682	
3767	0	32868	32632	
3768	0	32868	32583	
3769	0	32894	32882	
3770	0	32846	32500	
3771	0	32816	32704	
3772	0	32812	32732	
3773	0	32846	32945	
3774	0	32874	33278	
3775	0	32776	32934	
3776	0	32956	33170	
3777	0	32960	33250	
3778	0	32874	32868	
3779	0	32806	32671	
3780	0	32488	32694	
3781	0	32440	32926	
3782	0	32276	32764	
3783	0	32616	32718	
3784	0	32737	32675	
3785	0	32864	32677	
3786	0	33196	32600	
3787	0	33280	32394	
3788	0	33230	32342	
3789	0	33264	32560	
3790	0	33148	32830	
3791	0	32904	32884	
3792	0	32690	33030	
3793	0	32740	32915	
3794	0	32656	33014	
3795	0	32656	32911	
3796	0	32804	33004	
3797	0	32572	32748	
3798	0	32440	32654	
3799	0	32670	32418	
3800	0	32782	32458	
3801	0	32888	32808	
3802	0	32876	32678	
3803	0	32780	32700	
3804	0	32790	32588	
3805	0	32810	32912	
3806	0	32840	32759	
3807	0	32744	32845	
3808	0	32596	32826	
3809	0	32446	32652	
3810	0	32490	32712	
3811	0	33000	32775	
3812	0	33250	32674	
3813	0	33180	32472	
3814	0	33044	32830	
3815	0	32960	32730	
3816	0	32859	32812	
3817	0	32808	32852	
3818	0	32668	32826	
3819	0	32504	32943	
3820	0	32554	32894	
3821	0	32496	33142	
3822	0	32450	32620	
3823	0	32724	32913	
3824	0	32800	32834	
3825	0	32864	32720	
3826	0	32956	32775	
3827	0	32900	32910	
3828	0	32996	32474	
3829	0	33088	32054	
3830	0	33008	32194	
3831	0	32524	32742	
3832	0	32452	33220	
3833	0	32802	33214	
3834	0	32756	32980	
3835	0	33050	33022	
3836	0	33108	32647	
3837	0	33076	32846	
3838	0	33000	32798	
3839	0	32624	32975	
3840	0	32888	32506	
3841	0	33122	32710	
3842	0	32960	32526	
3843	0	32704	32766	
3844	0	32664	32932	
3845	0	32592	32812	
3846	0	32744	32676	
3847	0	32902	32588	
3848	0	32520	32958	
3849	0	32720	32764	
3850	0	32720	32826	
3851	0	32964	32662	
3852	0	32916	32844	
3853	0	32952	32732	
3854	0	32936	32680	
3855	0	33122	32934	
3856	0	33002	32970	
3857	0	32904	32775	
3858	0	32868	32704	
3859	0	32828	32664	
3860	0	32484	32938	
3861	0	32228	32600	
3862	0	32260	32356	
3863	0	32676	32444	
3864	0	32772	32792	
3865	0	32964	32810	
3866	0	32922	32970	
3867	0	32980	32938	
3868	0	32988	32788	
3869	0	32730	32958	
3870	0	32684	32764	
3871	0	32756	32775	
3872	0	33118	32646	
3873	0	33214	32519	
3874	0	32862	32718	
3875	0	32876	32774	
3876	0	32924	32906	
3877	0	32744	32862	
3878	0	32960	33038	
3879	0	32882	32934	
3880	0	32892	32756	
3881	0	32572	32732	
3882	0	32712	32582	
3883	0	32788	32972	
3884	0	32904	32752	
3885	0	32764	32775	
3886	0	32604	33130	
3887	0	32830	33214	
3888	0	32924	33068	
3889	0	32934	32564	
3890	0	32920	32241	
3891	0	32824	32420	
3892	0	32752	32698	
3893	0	32698	32576	
3894	0	32720	32628	
3895	0	32656	32775	
3896	0	32352	32903	
3897	0	32356	32834	
3898	0	32268	32982	
3899	0	32628	32791	
3900	0	32412	32775	
3901	0	32772	32638	
3902	0	32876	32806	
3903	0	33062	32673	
3904	0	33168	32752	
3905	0	33158	32942	
3906	0	32916	32836	
3907	0	33196	32732	
3908	0	33508	32628	
3909	0	33428	32756	
3910	0	33296	32660	
3911	0	33300	32774	
3912	0	32922	32609	
3913	0	32820	32618	
3914	0	32572	32538	
3915	0	32672	32810	
3916	0	32634	33020	
3917	0	32504	32822	
3918	0	32616	32722	
3919	0	32544	32871	
3920	0	32104	32638	
3921	0	32178	32775	
3922	0	32356	32620	
3923	0	32308	32742	
3924	0	32532	32775	
3925	0	32540	33140	
3926	0	32916	32942	
3927	0	33030	33022	
3928	0	33274	32951	
3929	0	33492	32856	
3930	0	33370	32775	
3931	0	33036	32764	
3932	0	32848	32604	
3933	0	33000	32726	
3934	0	33368	32874	
3935	0	33458	32770	
3936	0	33140	32606	
3937	0	33180	32724	
3938	0	33058	32720	
3939	0	32884	32655	
3940	0	32588	32454	
3941	0	32384	32942	
3942	0	32332	32968	
3943	0	32320	32806	
3944	0	32256	32687	
3945	0	32416	32518	
3946	0	32528	32550	
3947	0	32656	32252	
3948	0	32596	32386	
3949	0	32452	32686	
3950	0	32430	32666	
3951	0	31988	32714	
3952	0	32344	32796	
3953	0	32540	32941	
3954	0	32274	32903	
3955	0	32770	32774	
3956	0	32916	32926	
3957	0	33402	32996	
3958	0	33784	32964	
3959	0	33680	32828	
3960	0	33404	32495	
3961	0	33328	32194	
3962	0	33134	32359	
3963	0	33044	32548	
3964	0	32868	32856	
3965	0	32886	32768	
3966	0	33002	32980	
3967	0	33092	33382	
3968	0	32896	33374	
3969	0	32846	33632	
3970	0	32842	33458	
3971	0	32636	33279	
3972	0	32864	33040	
3973	0	32948	32826	
3974	0	32936	32832	
3975	0	33120	33046	
3976	0	33126	32940	
3977	0	33002	32948	
3978	0	32688	32714	
3979	0	32700	32502	
3980	0	32728	32288	
3981	0	32616	32408	
3982	0	32660	32842	
3983	0	32708	32732	
3984	0	32644	32713	
3985	0	32548	32750	
3986	0	32530	32758	
3987	0	32568	32486	
3988	0	32688	32518	
3989	0	32860	32384	
3990	0	32692	32655	
3991	0	32580	32828	
3992	0	32676	32660	
3993	0	32614	32986	
3994	0	32648	32952	
3995	0	32592	32828	
3996	0	32672	32594	
3997	0	32841	32460	
3998	0	33048	32583	
3999	0	32908	32542	
4000	0	32820	32634	
4001	0	32898	32542	
4002	0	32660	32414	
4003	0	32736	32558	
4004	0	32824	32894	
4005	0	32818	32642	
4006	0	32868	32660	
4007	0	32820	32519	
4008	0	32776	32810	
4009	0	32856	32967	
4010	0	33072	33017	
4011	0	33096	32968	
4012	0	33048	32775	
4013	0	32996	32942	
4014	0	32884	33024	
4015	0	32764	32566	
4016	0	32846	32684	
4017	0	32756	32596	
4018	0	32850	32814	
4019	0	32650	32878	
4020	0	32880	32935	
4021	0	32988	32828	
4022	0	32740	32820	
4023	0	32712	32805	
4024	0	32756	32958	
4025	0	32801	32935	
4026	0	32704	32999	
4027	0	32608	32978	
4028	0	32692	32924	
4029	0	32664	32694	
4030	0	32746	32836	
4031	0	32772	32600	
4032	0	32672	32679	
4033	0	32846	32839	
4034	0	32760	32788	
4035	0	32576	32804	
4036	0	32788	32577	
4037	0	32960	32519	
4038	0	32774	32692	
4039	0	33140	32725	
4040	0	33186	32764	
4041	0	33132	32687	
4042	0	33128	32822	
4043	0	32928	33054	
4044	0	32866	32950	
4045	0	32602	32894	
4046	0	32620	32766	
4047	0	32736	32746	
4048	0	32748	32852	
4049	0	32890	32548	
4050	0	33048	32502	
4051	0	32766	32462	
4052	0	33004	32354	
4053	0	32948	32391	
4054	0	32680	32572	
4055	0	32768	32666	
4056	0	32820	32368	
4057	0	32820	32318	
4058	0	33024	32646	
4059	0	32850	32775	
4060	0	32504	32944	
4061	0	32576	33201	
4062	0	32700	33031	
4063	0	32732	32808	
4064	0	32704	32942	
4065	0	32746	32889	
4066	0	32904	33060	
4067	0	32924	32738	
4068	0	32992	32688	
4069	0	32856	32704	
4070	0	32702	32538	
4071	0	32846	32748	
4072	0	32548	32592	
4073	0	32756	32775	
4074	0	32928	32876	
4075	0	32908	32738	
4076	0	32828	32935	
4077	0	32754	32748	
4078	0	32736	32577	
4079	0	32648	32741	
4080	0	32764	32686	
4081	0	32900	32988	
4082	0	32940	33076	
4083	0	32916	33046	
4084	0	32944	33144	
4085	0	32856	32732	
4086	0	32866	32734	
4087	0	32876	32508	
4088	0	32952	32658	
4089	0	32768	32662	
4090	0	32820	32519	
4091	0	32736	32534	
4092	0	32790	32384	
4093	0	32848	32435	
4094	0	32904	32668	
4095	0	32862	32916	
4096	0	32840	33060	
4097	0	32756	32900	
4098	0	32696	32902	
4099	0	32672	32839	
4100	0	32698	32871	
4101	0	32928	32903	
4102	0	32914	32612	
4103	0	32682	32888	
4104	0	32820	32854	
4105	0	32809	32806	
4106	0	32988	32692	
4107	0	32970	32647	
4108	0	33008	32614	
4109	0	32864	32450	
4110	0	32566	32510	
4111	0	32480	32270	
4112	0	32468	32604	
4113	0	32696	32590	
4114	0	32840	32772	
4115	0	32918	32967	
4116	0	32678	33118	
4117	0	32820	33086	
4118	0	32802	33041	
4119	0	32698	33255	
4120	0	32912	33220	
4121	0	32884	32871	
4122	0	32810	32742	
4123	0	33006	32647	
4124	0	33152	32670	
4125	0	32966	32948	
4126	0	32854	32768	
4127	0	32904	32888	
4128	0	32812	32974	
4129	0	32794	32850	
4130	0	32776	32858	
4131	0	32628	33070	
4132	0	32711	33012	
4133	0	32644	32986	
4134	0	32732	32678	
4135	0	32670	32839	
4136	0	32644	32748	
4137	0	32788	32630	
4138	0	32904	32481	
4139	0	32916	32752	
4140	0	33068	32560	
4141	0	32902	32684	
4142	0	32692	32574	
4143	0	32756	32480	
4144	0	32700	32586	
4145	0	32808	32886	
4146	0	32832	32932	
4147	0	32754	32880	
4148	0	32828	32846	
4149	0	32908	32733	
4150	0	32852	32700	
4151	0	32866	32752	
4152	0	33000	32647	
4153	0	32904	32772	
4154	0	32720	32886	
4155	0	32526	32847	
4156	0	32638	32638	
4157	0	32688	33012	
4158	0	32666	32956	
4159	0	32864	32628	
4160	0	33020	32576	
4161	0	33102	32654	
4162	0	32852	32790	
4163	0	32832	32718	
4164	0	32764	32744	
4165	0	32826	32752	
4166	0	32832	32728	
4167	0	32616	32862	
4168	0	32968	32762	
4169	0	32878	32644	
4170	0	32680	32944	
4171	0	32558	32824	
4172	0	32872	32678	
4173	0	32884	32836	
4174	0	32954	32862	
4175	0	32912	32876	
4176	0	32780	32926	
4177	0	32856	32951	
4178	0	32792	32884	
4179	0	32844	32724	
4180	0	32832	32647	
4181	0	32740	32470	
4182	0	32693	32494	
4183	0	32728	32686	
4184	0	32750	32671	
4185	0	32932	32710	
4186	0	32960	32730	
4187	0	32864	32874	
4188	0	32822	32608	
4189	0	32781	32628	
4190	0	32792	32711	
4191	0	32878	32682	
4192	0	32904	32828	
4193	0	32868	32854	
4194	0	32872	32775	
4195	0	32730	32742	
4196	0	32390	32743	
4197	0	32596	32647	
4198	0	32660	32724	
4199	0	32804	32853	
4200	0	32868	32874	
4201	0	32938	32914	
4202	0	32936	32671	
4203	0	32780	32951	
4204	0	32792	32718	
4205	0	32836	32710	
4206	0	32886	32768	
4207	0	32868	32672	
4208	0	32920	32592	
4209	0	32832	32738	
4210	0	32888	32823	
4211	0	32798	32708	
4212	0	32776	32644	
4213	0	32704	32870	
4214	0	32852	32791	
4215	0	32858	32830	
4216	0	32840	32734	
4217	0	32804	32631	
4218	0	32906	32708	
4219	0	32810	32762	
4220	0	32914	33084	
4221	0	32840	32858	
4222	0	32880	33066	
4223	0	32808	32798	
4224	0	32784	32788	
4225	0	32645	32962	
4226	0	32720	32900	
4227	0	32788	32954	
4228	0	32868	32796	
4229	0	32896	32798	
4230	0	33092	32816	
4231	0	32804	32822	
4232	0	32568	32951	
4233	0	32758	32695	
4234	0	32720	32672	
4235	0	32780	32856	
4236	0	32956	32826	
4237	0	32836	32706	
4238	0	32896	32758	
4239	0	32728	32666	
4240	0	32604	32734	
4241	0	32628	32946	
4242	0	32810	32902	
4243	0	32828	32904	
4244	0	32804	32756	
4245	0	32776	32839	
4246	0	32922	32688	
4247	0	32936	32754	
4248	0	32940	32856	
4249	0	32952	32788	
4250	0	32774	32792	
4251	0	32866	32865	
4252	0	32888	33058	
4253	0	32978	32852	
4254	0	32950	32808	
4255	0	32804	32773	
4256	0	32868	32592	
4257	0	32836	32622	
4258	0	32852	32440	
4259	0	32846	32634	
4260	0	32798	32687	
4261	0	32660	32590	
4262	0	32732	32678	
4263	0	32812	32812	
4264	0	32874	32647	
4265	0	32772	32742	
4266	0	32661	32784	
4267	0	32800	32847	
4268	0	32852	32816	
4269	0	32732	32744	
4270	0	32712	32826	
4271	0	32474	32688	
4272	0	32570	32700	
4273	0	32676	32822	
4274	0	32756	32928	
4275	0	32940	32775	
4276	0	33116	32632	
4277	0	32984	32714	
4278	0	32945	32775	
4279	0	32964	32698	
4280	0	32856	32736	
4281	0	32752	32798	
4282	0	32836	32664	
4283	0	32904	32775	
4284	0	32818	32974	
4285	0	32836	32962	
4286	0	32686	32960	
4287	0	32810	32700	
4288	0	32938	32740	
4289	0	32894	32788	
4290	0	32870	32794	
4291	0	32840	32696	
4292	0	32732	32705	
4293	0	32712	32662	
4294	0	32576	32880	
4295	0	32784	32670	
4296	0	32828	32935	
4297	0	32718	32788	
4298	0	32656	32888	
4299	0	32888	32844	
4300	0	32732	32784	
4301	0	32802	32720	
4302	0	32812	32711	
4303	0	32708	32657	
4304	0	32732	32666	
4305	0	32916	32628	
4306	0	32864	32775	
4307	0	32790	32790	
4308	0	32906	32790	
4309	0	32856	32757	
4310	0	32820	32758	
4311	0	32664	32796	
4312	0	32592	33016	
4313	0	32564	33068	
4314	0	32688	32972	
4315	0	32836	32884	
4316	0	32846	32740	
4317	0	33152	32536	
4318	0	33114	32430	
4319	0	32960	32593	
4320	0	32976	32752	
4321	0	32864	32756	
4322	0	32810	32888	
4323	0	32888	32836	
4324	0	32910	32735	
4325	0	32866	32616	
4326	0	32784	32644	
4327	0	32664	32839	
4328	0	32406	32886	
4329	0	32550	32804	
4330	0	32766	32708	
4331	0	32804	32768	
4332	0	32970	32735	
4333	0	33064	32736	
4334	0	33024	32888	
4335	0	33042	32908	
4336	0	32850	32934	
4337	0	32868	32984	
4338	0	32780	32646	
4339	0	32756	32756	
4340	0	32730	32988	
4341	0	32826	32796	
4342	0	33002	32942	
4343	0	32828	32815	
4344	0	32846	32544	
4345	0	32866	32519	
4346	0	32776	32558	
4347	0	32792	32630	
4348	0	32744	32584	
4349	0	32688	32679	
4350	0	32632	32646	
4351	0	32760	32718	
4352	0	32800	32616	
4353	0	32718	32775	
4354	0	32742	32897	
4355	0	32740	32826	
4356	0	32928	32835	
4357	0	33052	32903	
4358	0	33090	32832	
4359	0	33042	32608	
4360	0	32832	32622	
4361	0	32642	32824	
4362	0	32736	32902	
4363	0	32528	33092	
4364	0	32444	33159	
4365	0	32544	32976	
4366	0	32698	32727	
4367	0	32820	32716	
4368	0	32598	32694	
4369	0	32802	32496	
4370	0	33041	32384	
4371	0	33120	32426	
4372	0	32884	32654	
4373	0	32860	32678	
4374	0	32900	32508	
4375	0	33008	32774	
4376	0	33062	32748	
4377	0	32940	32836	
4378	0	32906	32862	
4379	0	32788	32828	
4380	0	32664	32716	
4381	0	32624	32634	
4382	0	32554	32730	
4383	0	32536	32686	
4384	0	32684	32698	
4385	0	32900	32919	
4386	0	32976	32956	
4387	0	33248	32902	
4388	0	33018	32814	
4389	0	32952	32756	
4390	0	32912	32880	
4391	0	32818	32948	
4392	0	32828	32984	
4393	0	32936	32702	
4394	0	32888	32666	
4395	0	32708	32830	
4396	0	32606	32618	
4397	0	32632	32592	
4398	0	32666	32712	
4399	0	32568	32578	
4400	0	32602	32628	
4401	0	32732	32494	
4402	0	32776	32690	
4403	0	32950	32642	
4404	0	32956	32506	
4405	0	32900	32580	
4406	0	32990	32674	
4407	0	32864	32750	
4408	0	32880	32847	
4409	0	32928	32862	
4410	0	32736	32684	
4411	0	32492	32871	
4412	0	32568	32876	
4413	0	32824	32942	
4414	0	32820	32890	
4415	0	32750	32838	
4416	0	32842	32802	
4417	0	32690	32938	
4418	0	32644	32988	
4419	0	32664	32958	
4420	0	32769	32960	
4421	0	32888	32902	
4422	0	33152	32726	
4423	0	33100	32686	
4424	0	32952	32576	
4425	0	32904	32652	
4426	0	33048	32950	
4427	0	32824	32964	
4428	0	32650	32743	
4429	0	32736	32774	
4430	0	32760	32852	
4431	0	32808	32745	
4432	0	32716	32870	
4433	0	32880	32775	
4434	0	32924	32823	
4435	0	32838	32609	
4436	0	32696	32678	
4437	0	32572	32788	
4438	0	32512	32752	
4439	0	32928	32608	
4440	0	32840	32640	
4441	0	32772	32743	
4442	0	32796	32638	
4443	0	32628	32716	
4444	0	32760	32574	
4445	0	32752	32794	
4446	0	32841	32668	
4447	0	32690	32796	
4448	0	32638	32759	
4449	0	32844	32658	
4450	0	32836	32886	
4451	0	32768	32918	
4452	0	32958	32766	
4453	0	32882	32738	
4454	0	32894	32628	
4455	0	32936	32684	
4456	0	32868	32799	
4457	0	32856	32852	
4458	0	32912	32864	
4459	0	32960	32863	
4460	0	32940	32996	
4461	0	32972	32902	
4462	0	32816	32935	
4463	0	32766	32670	
4464	0	32740	32684	
4465	0	33020	32791	
4466	0	33020	32647	
4467	0	32914	32774	
4468	0	32840	32800	
4469	0	32868	32812	
4470	0	32764	32820	
4471	0	32756	32652	
4472	0	32690	32934	
4473	0	32752	32840	
4474	0	32752	32775	
4475	0	32820	32728	
4476	0	32802	32750	
4477	0	32752	32818	
4478	0	32704	32816	
4479	0	32776	32804	
4480	0	32736	32824	
4481	0	32672	32679	
4482	0	32700	32775	
4483	0	32646	32804	
4484	0	32750	32876	
4485	0	32774	32771	
4486	0	32856	32866	
4487	0	32668	32775	
4488	0	32816	32874	
4489	0	32900	32660	
4490	0	32950	32597	
4491	0	32960	32906	
4492	0	32814	32770	
4493	0	32836	32774	
4494	0	32804	32646	
4495	0	32800	32584	
4496	0	32842	32452	
4497	0	32792	32484	
4498	0	32788	32572	
4499	0	32814	32730	
4500	0	32832	32728	
4501	0	32916	32820	
4502	0	32924	32940	
4503	0	33050	32890	
4504	0	33000	32686	
4505	0	32940	32670	
4506	0	32840	32858	
4507	0	32814	32746	
4508	0	32872	32910	
4509	0	32866	32729	
4510	0	32740	32772	
4511	0	32680	32870	
4512	0	32664	32871	
4513	0	32720	32812	
4514	0	32656	32894	
4515	0	32744	32690	
4516	0	32758	32624	
4517	0	32726	32753	
4518	0	32728	32742	
4519	0	32712	32800	
4520	0	33048	32772	
4521	0	32846	32731	
4522	0	32804	32814	
4523	0	32760	32852	
4524	0	32906	32746	
4525	0	32752	32821	
4526	0	32804	32632	
4527	0	32778	32692	
4528	0	32712	32854	
4529	0	32760	32846	
4530	0	32772	32892	
4531	0	32988	32889	
4532	0	32802	32832	
4533	0	32776	32921	
4534	0	32892	32902	
4535	0	32920	32775	
4536	0	32824	32658	
4537	0	32826	32610	
4538	0	32846	32752	
4539	0	32854	32820	
4540	0	32764	32810	
4541	0	32860	32632	
4542	0	32846	32730	
4543	0	32824	32716	
4544	0	32791	32913	
4545	0	32748	32775	
4546	0	32868	32832	
4547	0	32758	32962	
4548	0	32740	32836	
4549	0	32780	32862	
4550	0	32800	32774	
4551	0	32836	32852	
4552	0	32929	32802	
4553	0	32920	32734	
4554	0	32944	32552	
4555	0	32746	32567	
4556	0	32736	32612	
4557	0	32728	32670	
4558	0	32744	32705	
4559	0	32852	32799	
4560	0	32880	32750	
4561	0	33016	32750	
4562	0	33000	32748	
4563	0	32814	32643	
4564	0	32932	32768	
4565	0	32784	33008	
4566	0	32734	32954	
4567	0	32736	32770	
4568	0	32800	32775	
4569	0	32778	32732	
4570	0	32806	32662	
4571	0	32724	32962	
4572	0	32790	32656	
4573	0	32868	32686	
4574	0	32856	32764	
4575	0	32908	32700	
4576	0	32784	32766	
4577	0	32794	32948	
4578	0	32752	32828	
4579	0	32820	32878	
4580	0	32964	32738	
4581	0	32800	32775	
4582	0	32680	32764	
4583	0	32728	32798	
4584	0	32716	32775	
4585	0	32714	32744	
4586	0	32738	32662	
4587	0	32832	32682	
4588	0	32876	32815	
4589	0	32892	32720	
4590	0	32856	32818	
4591	0	32920	32821	
4592	0	32912	32752	
4593	0	32816	32824	
4594	0	32768	32706	
4595	0	32828	32774	
4596	0	32866	32727	
4597	0	32822	32790	
4598	0	32756	32678	
4599	0	32864	32711	
4600	0	32844	32736	
4601	0	32920	32988	
4602	0	32914	32958	
4603	0	32876	32878	
4604	0	32746	32686	
4605	0	32700	32708	
4606	0	32756	32754	
4607	0	32792	32830	
4608	0	32792	32824	
4609	0	32752	32830	
4610	0	32540	32744	
4611	0	32704	32706	
4612	0	32892	32815	
4613	0	33080	32732	
4614	0	32942	32764	
4615	0	32920	32712	
4616	0	32792	32810	
4617	0	32826	32644	
4618	0	32892	32806	
4619	0	32922	32818	
4620	0	32775	32772	
4621	0	32732	32792	
4622	0	32718	32775	
4623	0	32712	32728	
4624	0	32712	32692	
4625	0	32752	32646	
4626	0	32738	32678	
4627	0	32740	32918	
4628	0	32746	32992	
4629	0	32804	32884	
4630	0	32760	32807	
4631	0	32962	32790	
4632	0	32892	32942	
4633	0	32996	32866	
4634	0	33024	32734	
4635	0	32836	32716	
4636	0	32740	32622	
4637	0	32812	32592	
4638	0	32876	32798	
4639	0	32784	32926	
4640	0	32912	32756	
4641	0	32982	32670	
4642	0	32881	32582	
4643	0	32830	32790	
4644	0	32750	32886	
4645	0	32652	32772	
4646	0	32754	32846	
4647	0	32710	32588	
4648	0	32652	32606	
4649	0	32676	32864	
4650	0	32862	32828	
4651	0	32680	32886	
4652	0	32632	32815	
4653	0	32662	32676	
4654	0	32666	32519	
4655	0	32576	32768	
4656	0	32650	32854	
4657	0	32684	32890	
4658	0	32860	32834	
4659	0	32775	32478	
4660	0	32752	32514	
4661	0	32952	32684	
4662	0	32930	32598	
4663	0	32908	32586	
4664	0	32808	32406	
4665	0	32896	32276	
4666	0	32704	32190	
4667	0	32782	32332	
4668	0	33014	32639	
4669	0	32934	32702	
4670	0	32832	32814	
4671	0	32868	32932	
4672	0	32936	32966	
4673	0	33044	33280	
4674	0	32874	33532	
4675	0	32956	33342	
4676	0	33034	33270	
4677	0	32992	33255	
4678	0	32917	33162	
4679	0	32772	33026	
4680	0	32820	33088	
4681	0	32624	32967	
4682	0	32866	32740	
4683	0	32868	32654	
4684	0	33074	32804	
4685	0	33048	32832	
4686	0	33014	32832	
4687	0	32968	32774	
4688	0	32900	32820	
4689	0	32908	32756	
4690	0	32768	32687	
4691	0	32564	32528	
4692	0	32540	32382	
4693	0	32416	32478	
4694	0	32434	32513	
4695	0	32680	32352	
4696	0	32886	32391	
4697	0	32836	32584	
4698	0	32788	32606	
4699	0	32480	32556	
4700	0	32616	32604	
4701	0	32700	32795	
4702	0	32772	33008	
4703	0	32832	32838	
4704	0	32896	32646	
4705	0	32922	32814	
4706	0	32906	32892	
4707	0	32936	32874	
4708	0	32592	32917	
4709	0	32632	32836	
4710	0	32816	32864	
4711	0	33020	32930	
4712	0	33008	32847	
4713	0	33088	32632	
4714	0	32576	32679	
4715	0	32648	32644	
4716	0	32528	32718	
4717	0	32554	32688	
4718	0	32576	32684	
4719	0	32508	32896	
4720	0	32596	32792	
4721	0	32600	32748	
4722	0	32506	33052	
4723	0	32622	32916	
4724	0	32752	32842	
4725	0	32960	32830	
4726	0	33164	33084	
4727	0	33140	33318	
4728	0	33264	33201	
4729	0	33457	33046	
4730	0	33908	32726	
4731	0	34340	32881	
4732	0	34060	32623	
4733	0	33644	32464	
4734	0	33160	32176	
4735	0	32936	32193	
4736	0	32296	32478	
4737	0	32436	32559	
4738	0	32500	32200	
4739	0	32440	32410	
4740	0	32533	32486	
4741	0	32588	32616	
4742	0	32432	32906	
4743	0	32176	32832	
4744	0	32298	32897	
4745	0	32170	32951	
4746	0	32080	33074	
4747	0	32018	32800	
4748	0	32704	32870	
4749	0	32672	32807	
4750	0	32420	33040	
4751	0	32060	32775	
4752	0	32216	32656	
4753	0	32512	32622	
4754	0	32560	32422	
4755	0	32824	32500	
4756	0	33104	32350	
4757	0	33324	32581	
4758	0	33304	32966	
4759	0	33356	32918	
4760	0	33304	32913	
4761	0	33308	33095	
4762	0	33140	33031	
4763	0	33348	33414	
4764	0	33464	33358	
4765	0	33312	32890	
4766	0	32988	32796	
4767	0	32702	32684	
4768	0	32566	32775	
4769	0	32656	32532	
4770	0	32898	32708	
4771	0	32756	32396	
4772	0	32640	32532	
4773	0	32424	32836	
4774	0	32468	32748	
4775	0	32677	32823	
4776	0	32714	32674	
4777	0	33020	32924	
4778	0	32844	33024	
4779	0	32844	32706	
4780	0	32366	32832	
4781	0	32244	32474	
4782	0	32358	32615	
4783	0	32398	32832	
4784	0	32616	32663	
4785	0	32628	32934	
4786	0	32510	32448	
4787	0	32728	32580	
4788	0	32800	33110	
4789	0	33006	32693	
4790	0	33474	32566	
4791	0	33654	32960	
4792	0	32938	33180	
4793	0	32984	33543	
4794	0	33024	33476	
4795	0	33287	32638	
4796	0	33460	32007	
4797	0	33141	32343	
4798	0	32952	32072	
4799	0	32860	32164	
4800	0	32952	32116	
4801	0	33092	32490	
4802	0	32872	32636	
4803	0	32924	32672	
4804	0	32648	33436	
4805	0	32572	33415	
4806	0	32564	32622	
4807	0	32272	32696	
4808	0	32190	33095	
4809	0	32175	32936	
4810	0	32436	32978	
4811	0	32688	32825	
4812	0	32868	32672	
4813	0	32752	32824	
4814	0	32776	32743	
4815	0	32548	32426	
4816	0	32684	32816	
4817	0	32816	32551	
4818	0	32960	32629	
4819	0	32990	32554	
4820	0	33262	32446	
4821	0	33034	32775	
4822	0	33000	32828	
4823	0	32970	32647	
4824	0	32868	32916	
4825	0	32556	32911	
4826	0	32788	32935	
4827	0	32700	33016	
4828	0	32616	32874	
4829	0	32512	32806	
4830	0	32608	32855	
4831	0	32768	32588	
4832	0	32868	32640	
4833	0	32852	32588	
4834	0	32852	32640	
4835	0	33018	32670	
4836	0	32532	32930	
4837	0	32352	33046	
4838	0	32560	32804	
4839	0	32640	32612	
4840	0	32576	32580	
4841	0	32490	32894	
4842	0	32436	33174	
4843	0	32644	33146	
4844	0	32596	32816	
4845	0	32682	32958	
4846	0	32836	32775	
4847	0	32704	32464	
4848	0	32644	32512	
4849	0	32764	32478	
4850	0	32796	32380	
4851	0	32374	32664	
4852	0	32744	32464	
4853	0	32642	32839	
4854	0	32704	32862	
4855	0	32568	32954	
4856	0	32318	32774	
4857	0	32738	32999	
4858	0	32872	32857	
4859	0	32692	32551	
4860	0	32576	32867	
4861	0	32885	32976	
4862	0	32996	32768	
4863	0	32972	32696	
4864	0	33048	32762	
4865	0	32804	32644	
4866	0	32704	32646	
4867	0	33124	32608	
4868	0	33280	32569	
4869	0	33146	32700	
4870	0	33114	32618	
4871	0	33057	32814	
4872	0	33116	32940	
4873	0	33032	32766	
4874	0	32976	32858	
4875	0	33244	32752	
4876	0	33164	32876	
4877	0	33220	32874	
4878	0	33118	32854	
4879	0	33016	32890	
4880	0	32778	32833	
4881	0	32497	32970	
4882	0	32488	32886	
4883	0	32488	32764	
4884	0	32580	32881	
4885	0	32572	32799	
4886	0	32612	32722	
4887	0	32872	32668	
4888	0	32910	32718	
4889	0	32926	32830	
4890	0	32932	32748	
4891	0	32968	32700	
4892	0	32992	32759	
4893	0	32856	32822	
4894	0	32712	32808	
4895	0	32672	32702	
4896	0	32632	32775	
4897	0	32596	32823	
4898	0	32606	32676	
4899	0	32822	32690	
4900	0	33022	32880	
4901	0	33408	32770	
4902	0	33688	32718	
4903	0	33536	32775	
4904	0	33072	32647	
4905	0	32650	32766	
4906	0	32476	32702	
4907	0	32344	32618	
4908	0	32408	32647	
4909	0	32472	32604	
4910	0	32408	32583	
4911	0	32468	32764	
4912	0	32644	32791	
4913	0	32696	32680	
4914	0	32713	32908	
4915	0	32748	32933	
4916	0	32552	32662	
4917	0	32368	32694	
4918	0	32292	32794	
4919	0	32328	32930	
4920	0	32520	32894	
4921	0	32792	32890	
4922	0	32756	32775	
4923	0	33076	32770	
4924	0	33144	32862	
4925	0	33252	32842	
4926	0	33292	32826	
4927	0	33093	32748	
4928	0	32842	32679	
4929	0	32416	32663	
4930	0	32220	32664	
4931	0	32120	32560	
4932	0	32156	32415	
4933	0	32208	32564	
4934	0	32194	32672	
4935	0	32324	32695	
4936	0	32370	32808	
4937	0	32432	32723	
4938	0	32648	32700	
4939	0	32690	32970	
4940	0	32716	32792	
4941	0	33008	32840	
4942	0	32928	32732	
4943	0	32804	32870	
4944	0	32838	32775	
4945	0	32932	32770	
4946	0	32912	32794	
4947	0	32972	32656	
4948	0	32932	32626	
4949	0	32888	32812	
4950	0	32808	32810	
4951	0	32814	32930	
4952	0	32768	32768	
4953	0	32776	32862	
4954	0	32892	32892	
4955	0	32696	32750	
4956	0	32592	32774	
4957	0	32660	32791	
4958	0	32728	32590	
4959	0	32610	32548	
4960	0	32676	32844	
4961	0	32668	32708	
4962	0	32756	32676	
4963	0	32820	32711	
4964	0	32930	32688	
4965	0	32960	32775	
4966	0	32926	32860	
4967	0	32948	32854	
4968	0	33056	32863	
4969	0	32966	32720	
4970	0	32924	32878	
4971	0	32912	32880	
4972	0	32912	32782	
4973	0	32902	32920	
4974	0	32818	32920	
4975	0	32900	32722	
4976	0	32800	32822	
4977	0	32784	32981	
4978	0	32814	32756	
4979	0	32964	32792	
4980	0	32905	32606	
4981	0	32872	32568	
4982	0	32970	32680	
4983	0	32972	32680	
4984	0	32874	32614	
4985	0	32948	32748	
4986	0	32968	32802	
4987	0	32946	32730	
4988	0	32936	32836	
4989	0	32992	32811	
4990	0	33080	32724	
4991	0	33029	32738	
4992	0	33072	32676	
4993	0	33028	32698	
4994	0	32920	32708	
4995	0	32962	32566	
4996	0	32974	32632	
4997	0	32920	32750	
4998	0	32924	32868	
4999	0	32944	32960	
5000	0	32812	33066	
5001	0	32800	32808	
5002	0	32772	32764	
5003	0	32844	32894	
5004	0	32810	32890	
5005	0	32800	32814	
5006	0	32824	32830	
5007	0	32744	32712	
5008	0	32780	32768	
5009	0	32846	32754	
5010	0	32899	32887	
5011	0	32932	32734	
5012	0	32976	32838	
5013	0	32968	32680	
5014	0	32932	32726	
5015	0	32894	32713	
5016	0	32952	32736	
5017	0	32874	32618	
5018	0	32838	32704	
5019	0	32752	32730	
5020	0	32870	32932	
5021	0	32842	32772	
5022	0	32888	32852	
5023	0	32886	32658	
5024	0	32864	32742	
5025	0	32842	32738	
5026	0	32892	32807	
5027	0	32814	32764	
5028	0	32782	32758	
5029	0	32782	32799	
5030	0	32688	32798	
5031	0	32822	32878	
5032	0	32784	32884	
5033	0	32756	32822	
5034	0	32778	32836	
5035	0	32868	32740	
5036	0	32842	32806	
5037	0	32836	32775	
5038	0	32836	32772	
5039	0	32852	32900	
5040	0	32828	32938	
5041	0	32880	32950	
5042	0	32836	32706	
5043	0	32732	32647	
5044	0	32760	32492	
5045	0	32908	32254	
5046	0	32964	32364	
5047	0	32862	32534	
5048	0	33034	32674	
5049	0	33068	32764	
5050	0	32970	32772	
5051	0	32956	32860	
5052	0	32920	32944	
5053	0	32748	32998	
5054	0	32828	33000	
5055	0	32768	32898	
5056	0	32732	32854	
5057	0	32580	32794	
5058	0	32623	32710	
5059	0	32612	32588	
5060	0	32856	32692	
5061	0	32792	32975	
5062	0	32572	32956	
5063	0	32848	32860	
5064	0	32812	32804	
5065	0	32884	32732	
5066	0	33018	32810	
5067	0	33300	32682	
5068	0	33032	32724	
5069	0	32872	32876	
5070	0	33044	32682	
5071	0	32856	32876	
5072	0	32890	32794	
5073	0	32888	32916	
5074	0	32828	32736	
5075	0	32764	32644	
5076	0	32850	32782	
5077	0	32798	32655	
5078	0	32746	32742	
5079	0	32732	32770	
5080	0	32826	32918	
5081	0	32732	32871	
5082	0	32720	32822	
5083	0	32724	32690	
5084	0	32694	32868	
5085	0	32764	32760	
5086	0	32890	32724	
5087	0	32980	32638	
5088	0	33100	32924	
5089	0	32932	32744	
5090	0	32894	32764	
5091	0	32796	32822	
5092	0	32976	32700	
5093	0	32914	32820	
5094	0	32904	32775	
5095	0	32680	32734	
5096	0	32476	32668	
5097	0	32450	32580	
5098	0	32624	32652	
5099	0	32748	32534	
5100	0	32844	32704	
5101	0	33072	32642	
5102	0	33114	32702	
5103	0	33036	32842	
5104	0	33088	32639	
5105	0	32908	32808	
5106	0	32836	32626	
5107	0	32848	32848	
5108	0	32780	32903	
5109	0	32780	32972	
5110	0	32648	32980	
5111	0	32824	33012	
5112	0	32932	32901	
5113	0	32920	32668	
5114	0	32868	32746	
5115	0	32772	32612	
5116	0	32824	32718	
5117	0	32684	32732	
5118	0	32686	32708	
5119	0	32574	32662	
5120	0	32546	32904	
5121	0	32800	32758	
5122	0	32884	32732	
5123	0	32884	32748	
5124	0	32862	32785	
5125	0	32926	32836	
5126	0	32892	32752	
5127	0	32854	32696	
5128	0	32752	32767	
5129	0	32832	32720	
5130	0	32752	32812	
5131	0	32742	32564	
5132	0	32740	32658	
5133	0	32780	32710	
5134	0	32746	32652	
5135	0	32784	32758	
5136	0	32804	32730	
5137	0	32802	32800	
5138	0	32820	32796	
5139	0	32824	32864	
5140	0	32788	32858	
5141	0	32816	32764	
5142	0	32756	32768	
5143	0	32896	32704	
5144	0	32770	32678	
5145	0	32760	32712	
5146	0	32782	32686	
5147	0	32804	32839	
5148	0	32866	32716	
5149	0	32808	32836	
5150	0	32868	32832	
5151	0	32796	32872	
5152	0	32792	32758	
5153	0	32792	32892	
5154	0	32756	32932	
5155	0	32673	32920	
5156	0	32912	32747	
5157	0	32910	32797	
5158	0	32900	32720	
5159	0	32893	32710	
5160	0	32804	32806	
5161	0	32758	32584	
5162	0	32852	32804	
5163	0	32696	32748	
5164	0	32784	32812	
5165	0	32790	32668	
5166	0	32842	32784	
5167	0	32880	32790	
5168	0	32832	32768	
5169	0	32796	32960	
5170	0	32786	32728	
5171	0	32848	32864	
5172	0	32888	32839	
5173	0	32876	32913	
5174	0	32788	32804	
5175	0	32728	32753	
5176	0	32744	32662	
5177	0	32768	32472	
5178	0	32740	32647	
5179	0	32692	32775	
5180	0	32704	32755	
5181	0	32708	32622	
5182	0	32884	32588	
5183	0	32868	32800	
5184	0	32774	32710	
5185	0	32808	32912	
5186	0	32820	32769	
5187	0	32909	32888	
5188	0	32900	32856	
5189	0	32976	32896	
5190	0	32934	32738	
5191	0	32852	32710	
5192	0	32872	32786	
5193	0	32796	32768	
5194	0	32732	32990	
5195	0	32650	32744	
5196	0	32656	32630	
5197	0	32762	32662	
5198	0	32800	32711	
5199	0	32766	32602	
5200	0	32764	32638	
5201	0	32898	32890	
5202	0	32908	32844	
5203	0	32960	32758	
5204	0	32972	32800	
5205	0	32876	32786	
5206	0	32796	32674	
5207	0	32816	32756	
5208	0	32884	32628	
5209	0	32824	32624	
5210	0	32768	32640	
5211	0	32845	32668	
5212	0	32872	32775	
5213	0	32800	32720	
5214	0	32868	32807	
5215	0	32821	32792	
5216	0	32852	32820	
5217	0	32816	32752	
5218	0	32770	32752	
5219	0	32784	32756	
5220	0	32764	32766	
5221	0	32717	32625	
5222	0	32852	32632	
5223	0	32862	32564	
5224	0	32704	32734	
5225	0	32760	32746	
5226	0	32844	32867	
5227	0	32776	32716	
5228	0	32676	32808	
5229	0	32760	32775	
5230	0	32772	32802	
5231	0	32726	32800	
5232	0	32820	32756	
5233	0	32756	32742	
5234	0	32664	32716	
5235	0	32688	32814	
5236	0	32762	32862	
5237	0	32836	32920	
5238	0	32847	32872	
5239	0	32956	32898	
5240	0	32984	32946	
5241	0	33024	32818	
5242	0	32932	32839	
5243	0	32874	32999	
5244	0	32824	32850	
5245	0	32816	32844	
5246	0	32766	32968	
5247	0	32758	32854	
5248	0	32740	32928	
5249	0	32709	32788	
5250	0	32766	32802	
5251	0	32840	32890	
5252	0	32710	32750	
5253	0	32852	32854	
5254	0	32864	32814	
5255	0	32864	32744	
5256	0	32832	32742	
5257	0	32808	32826	
5258	0	32736	32746	
5259	0	32828	32824	
5260	0	32798	32768	
5261	0	32672	32688	
5262	0	32888	32632	
5263	0	32708	32682	
5264	0	32804	32724	
5265	0	32910	32642	
5266	0	32872	32750	
5267	0	32826	32808	
5268	0	32926	32766	
5269	0	32828	32807	
5270	0	32884	32796	
5271	0	32848	32618	
5272	0	32872	32706	
5273	0	32836	32662	
5274	0	32814	32615	
5275	0	32768	32750	
5276	0	32768	32830	
5277	0	32792	32965	
5278	0	32870	32844	
5279	0	32818	32967	
5280	0	32728	32982	
5281	0	32736	32970	
5282	0	32668	32864	
5283	0	32816	32732	
5284	0	32836	32775	
5285	0	32840	32689	
5286	0	32826	32641	
5287	0	32814	32752	
5288	0	32678	32823	
5289	0	32776	32800	
5290	0	32784	32775	
5291	0	32816	32712	
5292	0	32794	32831	
5293	0	32798	32806	
5294	0	32798	32746	
5295	0	32918	32668	
5296	0	32844	32671	
5297	0	32848	32606	
5298	0	32812	32604	
5299	0	32826	32672	
5300	0	32816	32552	
5301	0	32818	32647	
5302	0	32804	32734	
5303	0	32764	32616	
5304	0	32832	32580	
5305	0	32752	32735	
5306	0	32826	32604	
5307	0	32844	32572	
5308	0	32894	32686	
5309	0	32904	32670	
5310	0	32964	32668	
5311	0	32952	32644	
5312	0	32984	32700	
5313	0	32845	32730	
5314	0	32904	32852	
5315	0	32860	32790	
5316	0	32788	32839	
5317	0	32672	32775	
5318	0	32820	32876	
5319	0	32744	32833	
5320	0	32696	32855	
5321	0	32652	32812	
5322	0	32792	32972	
5323	0	32762	32794	
5324	0	32832	32748	
5325	0	32868	32866	
5326	0	32798	32936	
5327	0	32812	32866	
5328	0	32782	32726	
5329	0	32848	32750	
5330	0	32824	32838	
5331	0	32812	32672	
5332	0	32784	32596	
5333	0	32760	32604	
5334	0	32610	32528	
5335	0	32660	32532	
5336	0	32666	32562	
5337	0	32672	32562	
5338	0	32718	32628	
5339	0	32754	32678	
5340	0	32740	32695	
5341	0	32776	32558	
5342	0	32820	32544	
5343	0	32752	32597	
5344	0	32776	32713	
5345	0	32826	32620	
5346	0	32936	32694	
5347	0	32910	32746	
5348	0	32948	32823	
5349	0	32938	32647	
5350	0	32878	32616	
5351	0	32778	32764	
5352	0	32792	32706	
5353	0	32930	32720	
5354	0	32868	32690	
5355	0	32900	32588	
5356	0	33012	32862	
5357	0	32992	33048	
5358	0	33028	33302	
5359	0	33068	33374	
5360	0	33092	33389	
5361	0	33112	33478	
5362	0	33082	33506	
5363	0	32978	33396	
5364	0	32892	33286	
5365	0	32948	33130	
5366	0	32764	33244	
5367	0	32682	32988	
5368	0	32616	32876	
5369	0	32604	32455	
5370	0	32432	32501	
5371	0	32616	32494	
5372	0	32624	32370	
5373	0	32624	32476	
5374	0	32612	32436	
5375	0	32660	32548	
5376	0	32752	32632	
5377	0	32836	32533	
5378	0	32864	32638	
5379	0	32892	32754	
5380	0	32892	32584	
5381	0	32990	32565	
5382	0	32980	32644	
5383	0	32966	32750	
5384	0	32888	32807	
5385	0	32880	32808	
5386	0	32796	32722	
5387	0	32854	32728	
5388	0	32788	32900	
5389	0	32824	32710	
5390	0	32808	32716	
5391	0	32830	32814	
5392	0	32900	32718	
5393	0	32878	32768	
5394	0	32816	32711	
5395	0	32782	32775	
5396	0	32840	32672	
5397	0	32756	32679	
5398	0	32768	32814	
5399	0	32682	32775	
5400	0	32790	32712	
5401	0	32852	32602	
5402	0	32764	32724	
5403	0	32740	32678	
5404	0	32704	32716	
5405	0	32740	32796	
5406	0	32666	32828	
5407	0	32748	32892	
5408	0	32832	32878	
5409	0	32880	32682	
5410	0	32716	32786	
5411	0	32788	32775	
5412	0	32820	32834	
5413	0	32714	32762	
5414	0	32854	32810	
5415	0	32804	32908	
5416	0	32788	32717	
5417	0	32842	32642	
5418	0	32872	32774	
5419	0	32888	32708	
5420	0	32834	32795	
5421	0	32808	32756	
5422	0	32784	32820	
5423	0	32736	32743	
5424	0	32792	32720	
5425	0	32820	32753	
5426	0	32860	32814	
5427	0	32832	32774	
5428	0	32800	32866	
5429	0	32862	32814	
5430	0	32856	32828	
5431	0	32886	32708	
5432	0	32932	32724	
5433	0	32808	32784	
5434	0	32794	32834	
5435	0	32816	32828	
5436	0	32804	32694	
5437	0	32738	32682	
5438	0	32752	32810	
5439	0	32800	32740	
5440	0	32766	32846	
5441	0	32800	32794	
5442	0	32818	32692	
5443	0	32838	32846	
5444	0	32820	32828	
5445	0	32800	32839	
5446	0	32820	32664	
5447	0	32812	32616	
5448	0	32864	32752	
5449	0	32870	32734	
5450	0	32810	32750	
5451	0	32838	32700	
5452	0	32776	32775	
5453	0	32804	32736	
5454	0	32778	32724	
5455	0	32736	32666	
5456	0	32876	32706	
5457	0	32832	32824	
5458	0	32768	32916	
5459	0	32778	32900	
5460	0	32874	32704	
5461	0	32794	32687	
5462	0	32846	32786	
5463	0	32785	32852	
5464	0	32752	32788	
5465	0	32776	32720	
5466	0	32812	32644	
5467	0	32836	32740	
5468	0	32904	32790	
5469	0	32800	32766	
5470	0	32634	32858	
5471	0	32630	32639	
5472	0	32828	32698	
5473	0	32868	32775	
5474	0	32804	32784	
5475	0	32860	32796	
5476	0	32932	32775	
5477	0	32916	32742	
5478	0	32942	32790	
5479	0	32864	32724	
5480	0	32992	32718	
5481	0	32992	32760	
5482	0	32852	32634	
5483	0	32784	32710	
5484	0	32798	32863	
5485	0	32820	32772	
5486	0	32722	32810	
5487	0	32864	32806	
5488	0	32860	32726	
5489	0	32852	32714	
5490	0	32816	32764	
5491	0	32634	32811	
5492	0	32736	32890	
5493	0	32784	32766	
5494	0	32748	32834	
5495	0	32804	32800	
5496	0	32828	32756	
5497	0	32804	32686	
5498	0	32780	32719	
5499	0	32728	32767	
5500	0	32748	32856	
5501	0	32768	32676	
5502	0	32848	32770	
5503	0	32881	32694	
5504	0	32896	32598	
5505	0	32924	32738	
5506	0	32816	32828	
5507	0	32818	32798	
5508	0	32828	32775	
5509	0	32880	32794	
5510	0	32768	32686	
5511	0	32880	32708	
5512	0	32752	32734	
5513	0	32744	32770	
5514	0	32752	32871	
5515	0	32822	32847	
5516	0	32824	32886	
5517	0	32784	32728	
5518	0	32738	32760	
5519	0	32760	32695	
5520	0	32770	32618	
5521	0	32808	32656	
5522	0	32742	32740	
5523	0	32698	32734	
5524	0	32700	32688	
5525	0	32730	32798	
5526	0	32772	32872	
5527	0	32886	32658	
5528	0	32960	32670	
5529	0	32852	32700	
5530	0	32908	32720	
5531	0	32864	32689	
5532	0	32836	32724	
5533	0	32836	32830	
5534	0	32860	32884	
5535	0	32864	32947	
5536	0	32912	32838	
5537	0	32882	32890	
5538	0	32912	32732	
5539	0	32862	32722	
5540	0	32840	32870	
5541	0	32920	32756	
5542	0	32872	32758	
5543	0	32832	32724	
5544	0	32834	32666	
5545	0	32912	32671	
5546	0	32772	32692	
5547	0	32752	32764	
5548	0	32744	32668	
5549	0	32768	32772	
5550	0	32744	32805	
5551	0	32808	32746	
5552	0	32748	32684	
5553	0	32728	32876	
5554	0	32728	32854	
5555	0	32660	32850	
5556	0	32712	32764	
5557	0	32744	32756	
5558	0	32716	32775	
5559	0	32776	32738	
5560	0	32836	32775	
5561	0	32816	32820	
5562	0	32836	32724	
5563	0	32936	32718	
5564	0	32860	32806	
5565	0	32792	32775	
5566	0	32908	32836	
5567	0	32906	32804	
5568	0	32840	32839	
5569	0	32882	32788	
5570	0	32946	32620	
5571	0	32808	32722	
5572	0	32768	32673	
5573	0	32784	32766	
5574	0	32812	32870	
5575	0	32784	32756	
5576	0	32756	32792	
5577	0	32692	32878	
5578	0	32704	32839	
5579	0	32772	32738	
5580	0	32784	32828	
5581	0	32792	32831	
5582	0	32924	32754	
5583	0	32852	32742	
5584	0	32896	32752	
5585	0	32880	32711	
5586	0	32936	32767	
5587	0	32840	32831	
5588	0	32924	32788	
5589	0	32840	32833	
5590	0	32818	32750	
5591	0	32808	32814	
5592	0	32788	32775	
5593	0	32760	32686	
5594	0	32766	32658	
5595	0	32792	32756	
5596	0	32734	32814	
5597	0	32736	32838	
5598	0	32864	32750	
5599	0	32750	32672	
5600	0	32814	32748	
5601	0	32712	32708	
5602	0	32638	32738	
5603	0	32740	32716	
5604	0	32908	32792	
5605	0	32844	32705	
5606	0	32916	32832	
5607	0	32838	32858	
5608	0	32864	32770	
5609	0	32916	32790	
5610	0	32888	32775	
5611	0	32932	32838	
5612	0	32840	32775	
5613	0	32764	32862	
5614	0	32752	32763	
5615	0	32824	32762	
5616	0	32872	32792	
5617	0	32850	32744	
5618	0	32816	32710	
5619	0	32748	32770	
5620	0	32816	32860	
5621	0	32748	32700	
5622	0	32768	32616	
5623	0	32780	32880	
5624	0	32788	32848	
5625	0	32802	32871	
5626	0	32828	32684	
5627	0	32792	32644	
5628	0	32712	32729	
5629	0	32848	32820	
5630	0	32741	32697	
5631	0	32784	32758	
5632	0	32828	32634	
5633	0	32868	32670	
5634	0	32756	32796	
5635	0	32820	32910	
5636	0	32786	32756	
5637	0	32906	32879	
5638	0	32834	32720	
5639	0	32824	32692	
5640	0	32904	32736	
5641	0	32868	32788	
5642	0	32776	32738	
5643	0	32708	32812	
5644	0	32784	32751	
5645	0	32792	32628	
5646	0	32744	32806	
5647	0	32849	32796	
5648	0	32896	32838	
5649	0	32836	32871	
5650	0	32844	32684	
5651	0	32864	32732	
5652	0	32864	32896	
5653	0	32836	32830	
5654	0	32766	32847	
5655	0	32770	32712	
5656	0	32746	32660	
5657	0	32716	32775	
5658	0	32852	32656	
5659	0	32770	32729	
5660	0	32768	32728	
5661	0	32656	32726	
5662	0	32710	32658	
5663	0	32840	32639	
5664	0	32736	32742	
5665	0	32842	32775	
5666	0	32868	32876	
5667	0	32908	32721	
5668	0	32950	32838	
5669	0	33012	32830	
5670	0	32932	32820	
5671	0	32862	32805	
5672	0	32814	32704	
5673	0	32842	32760	
5674	0	32772	32670	
5675	0	32764	32754	
5676	0	32796	32854	
5677	0	32812	32855	
5678	0	32808	32888	
5679	0	32756	32676	
5680	0	32734	32742	
5681	0	32732	32696	
5682	0	32732	32866	
5683	0	32769	32814	
5684	0	32700	32852	
5685	0	32802	32638	
5686	0	32776	32766	
5687	0	32708	32858	
5688	0	32752	32820	
5689	0	32770	32804	
5690	0	32802	32826	
5691	0	32858	32810	
5692	0	32840	32676	
5693	0	32878	32830	
5694	0	32912	32792	
5695	0	32916	32742	
5696	0	32866	32775	
5697	0	32948	32836	
5698	0	32922	32692	
5699	0	32852	32716	
5700	0	32808	32760	
5701	0	32800	32766	
5702	0	32772	32692	
5703	0	32828	32700	
5704	0	32764	32564	
5705	0	32780	32632	
5706	0	32676	32752	
5707	0	32752	32804	
5708	0	32754	32823	
5709	0	32904	32802	
5710	0	32776	32854	
5711	0	32845	32821	
5712	0	32962	32827	
5713	0	32866	32774	
5714	0	32824	32802	
5715	0	32878	32806	
5716	0	32840	32719	
5717	0	32820	32688	
5718	0	32812	32774	
5719	0	32812	32694	
5720	0	32800	32696	
5721	0	32816	32832	
5722	0	32842	32775	
5723	0	32832	32823	
5724	0	32728	32728	
5725	0	32772	32692	
5726	0	32796	32775	
5727	0	32812	32682	
5728	0	32748	32826	
5729	0	32784	32852	
5730	0	32744	32696	
5731	0	32782	32775	
5732	0	32836	32814	
5733	0	32816	32628	
5734	0	32744	32678	
5735	0	32810	32775	
5736	0	32834	32775	
5737	0	32772	32744	
5738	0	32816	32678	
5739	0	32720	32752	
5740	0	32704	32807	
5741	0	32764	32796	
5742	0	32816	32730	
5743	0	32884	32764	
5744	0	32856	32752	
5745	0	32856	32750	
5746	0	32820	32746	
5747	0	32838	32792	
5748	0	32784	32724	
5749	0	32832	32706	
5750	0	32804	32850	
5751	0	32834	32775	
5752	0	32840	32811	
5753	0	32794	32754	
5754	0	32828	32763	
5755	0	32824	32900	
5756	0	32888	32751	
5757	0	32754	32818	
5758	0	32792	32774	
5759	0	32718	32764	
5760	0	32780	32752	
5761	0	32864	32774	
5762	0	32728	32858	
5763	0	32800	32706	
5764	0	32792	32768	
5765	0	32768	32775	
5766	0	32876	32807	
5767	0	32933	32752	
5768	0	32796	32710	
5769	0	32812	32812	
5770	0	32900	32690	
5771	0	32900	32791	
5772	0	32852	32702	
5773	0	32788	32688	
5774	0	32844	32775	
5775	0	32888	32828	
5776	0	32796	32784	
5777	0	32816	32730	
5778	0	32828	32796	
5779	0	32804	32798	
5780	0	32884	32828	
5781	0	32788	32758	
5782	0	32664	32732	
5783	0	32578	32628	
5784	0	32684	32753	
5785	0	32748	32775	
5786	0	32832	32766	
5787	0	32928	32758	
5788	0	32848	32774	
5789	0	32860	32688	
5790	0	32984	32652	
5791	0	32940	32822	
5792	0	32882	32847	
5793	0	32800	32879	
5794	0	32766	32775	
5795	0	32788	32810	
5796	0	32772	32826	
5797	0	32740	32664	
5798	0	32820	32718	
5799	0	32750	32816	
5800	0	32820	32796	
5801	0	32780	32826	
5802	0	32820	32668	
5803	0	32812	32742	
5804	0	32838	32738	
5805	0	32804	32814	
5806	0	32768	32647	
5807	0	32812	32663	
5808	0	32804	32812	
5809	0	32818	32752	
5810	0	32784	32826	
5811	0	32814	32730	
5812	0	32800	32705	
5813	0	32848	32796	
5814	0	32860	32856	
5815	0	32858	32720	
5816	0	32820	32743	
5817	0	32768	32736	
5818	0	32836	32862	
5819	0	32782	32888	
5820	0	32860	32766	
5821	0	32776	32817	
5822	0	32836	32751	
5823	0	32836	32679	
5824	0	32812	32788	
5825	0	32804	32775	
5826	0	32788	32766	
5827	0	32850	32674	
5828	0	32836	32791	
5829	0	32836	32796	
5830	0	32744	32812	
5831	0	32888	32794	
5832	0	32768	32772	
5833	0	32724	32766	
5834	0	32752	32863	
5835	0	32744	32772	
5836	0	32812	32788	
5837	0	32840	32751	
5838	0	32774	32694	
5839	0	32804	32866	
5840	0	32818	32826	
5841	0	32784	32810	
5842	0	32884	32695	
5843	0	32744	32584	
5844	0	32798	32763	
5845	0	32732	32758	
5846	0	32832	32766	
5847	0	32856	32746	
5848	0	32800	32766	
5849	0	32840	32852	
5850	0	32784	32794	
5851	0	32888	32846	
5852	0	32844	32711	
5853	0	32848	32772	
5854	0	32876	32756	
5855	0	32828	32802	
5856	0	32860	32710	
5857	0	32864	32695	
5858	0	32746	32891	
5859	0	32746	32772	
5860	0	32784	32774	
5861	0	32848	32868	
5862	0	32908	32720	
5863	0	32884	32750	
5864	0	32876	32792	
5865	0	32868	32747	
5866	0	32864	32746	
5867	0	32848	32742	
5868	0	32760	32766	
5869	0	32860	32786	
5870	0	32796	32876	
5871	0	32816	32738	
5872	0	32746	32764	
5873	0	32780	32760	
5874	0	32804	32814	
5875	0	32788	32718	
5876	0	32800	32774	
5877	0	32768	32854	
5878	0	32796	32756	
5879	0	32736	32814	
5880	0	32806	32714	
5881	0	32676	32718	
5882	0	32736	32758	
5883	0	32834	32790	
5884	0	32824	32738	
5885	0	32804	32692	
5886	0	32756	32722	
5887	0	32856	32836	
5888	0	32800	32874	
5889	0	32822	32734	
5890	0	32756	32784	
5891	0	32772	32802	
5892	0	32769	32604	
5893	0	32808	32706	
5894	0	32788	32724	
5895	0	32920	32884	
5896	0	32828	32718	
5897	0	32832	32798	
5898	0	32848	32746	
5899	0	32820	32800	
5900	0	32798	32854	
5901	0	32777	32716	
5902	0	32760	32799	
5903	0	32808	32846	
5904	0	32744	32775	
5905	0	32852	32866	
5906	0	32746	32732	
5907	0	32788	32820	
5908	0	32768	32880	
5909	0	32808	32876	
5910	0	32732	32808	
5911	0	32780	32672	
5912	0	32812	32772	
5913	0	32848	32716	
5914	0	32852	32730	
5915	0	32876	32679	
5916	0	32852	32672	
5917	0	32758	32728	
5918	0	32848	32740	
5919	0	32836	32728	
5920	0	32792	32720	
5921	0	32752	32671	
5922	0	32808	32718	
5923	0	32830	32854	
5924	0	32876	32796	
5925	0	32804	32828	
5926	0	32804	32789	
5927	0	32804	32708	
5928	0	32896	32710	
5929	0	32866	32750	
5930	0	32838	32775	
5931	0	32836	32810	
5932	0	32760	32751	
5933	0	32808	32775	
5934	0	32792	32904	
5935	0	32812	32742	
5936	0	32836	32810	
5937	0	32836	32638	
5938	0	32766	32794	
5939	0	32770	32692	
5940	0	32800	32743	
5941	0	32794	32768	
5942	0	32836	32720	
5943	0	32888	32796	
5944	0	32838	32671	
5945	0	32868	32864	
5946	0	32812	32714	
5947	0	32848	32716	
5948	0	32816	32743	
5949	0	32824	32807	
5950	0	32772	32718	
5951	0	32856	32702	
5952	0	32864	32767	
5953	0	32824	32770	
5954	0	32728	32904	
5955	0	32804	32892	
5956	0	32824	32788	
5957	0	32754	32798	
5958	0	32810	32852	
5959	0	32764	32812	
5960	0	32800	32903	
5961	0	32697	32652	
5962	0	32756	32590	
5963	0	32786	32714	
5964	0	32798	32852	
5965	0	32796	32766	
5966	0	32764	32775	
5967	0	32712	32736	
5968	0	32774	32774	
5969	0	32800	32666	
5970	0	32816	32647	
5971	0	32828	32758	
5972	0	32848	32774	
5973	0	32844	32714	
5974	0	32932	32798	
5975	0	32864	32670	
5976	0	32832	32836	
5977	0	32764	32726	
5978	0	32720	32828	
5979	0	32798	32708	
5980	0	32824	32732	
5981	0	32748	32804	
5982	0	32816	32838	
5983	0	32780	32820	
5984	0	32868	32762	
5985	0	32792	32687	
5986	0	32876	32871	
5987	0	32904	32784	
5988	0	32878	32854	
5989	0	32870	32698	
5990	0	32836	32708	
5991	0	32832	32788	
5992	0	32904	32726	
5993	0	32796	32768	
5994	0	32856	32616	
5995	0	32884	32775	
5996	0	32844	32775	
5997	0	32840	32771	
5998	0	32816	32688	
5999	0	32736	32724	
6000	0	32812	32826	
6001	0	32734	32710	
6002	0	32752	32795	
6003	0	32808	32634	
6004	0	32814	32794	
6005	0	32888	32882	
6006	0	32836	32880	
6007	0	32840	32846	
6008	0	32888	32839	
6009	0	32760	32799	
6010	0	32704	32871	
6011	0	32810	32831	
6012	0	32790	32734	
