# OpenSignals Text File Format. Version 1
# {"00:07:80:8C:0A:39": {"position": 0, "device": "biosignalsplux", "device name": "00:07:80:8C:0A:39", "device connection": "BTH00:07:80:8C:0A:39", "sampling rate": 1000, "resolution": [16, 16], "firmware version": 776, "comments": "", "keywords": "", "mode": 0, "sync interval": 2, "date": "2023-3-10", "time": "15:38:55.577", "channels": [1, 2], "sensor": ["EMG", "EMG"], "label": ["CH1", "CH2"], "column": ["nSeq", "DI", "CH1", "CH2"], "special": [{"SpO2": [80, 40, 5, 4, 3, 3]}, {"SpO2": [80, 40, 5, 4, 3, 3]}, {"SpO2": [80, 40, 5, 4, 3, 3]}, {"SpO2": [80, 40, 5, 4, 3, 3]}, {"SpO2": [80, 40, 5, 4, 3, 3]}, {"SpO2": [80, 40, 5, 4, 3, 3]}, {"SpO2": [80, 40, 5, 4, 3, 3]}, {"SpO2": [80, 40, 5, 4, 3, 3]}], "digital IO": [0, 1], "sleeve color": ["gray", "yellow"], "convertedValues": 0}}
# EndOfHeader
0	0	32780	32772	
1	0	32900	32820	
2	0	32764	32802	
3	0	32832	32788	
4	0	32774	32682	
5	0	32804	32708	
6	0	32808	32756	
7	0	32816	32704	
8	0	32768	32838	
9	0	32900	32668	
10	0	32804	32798	
11	0	32804	32824	
12	0	32836	32694	
13	0	32860	32792	
14	0	32820	32775	
15	0	32788	32826	
16	0	32872	32656	
17	0	32858	32784	
18	0	32844	32700	
19	0	32824	32760	
20	0	32810	32737	
21	0	32828	32775	
22	0	32852	32750	
23	0	32768	32698	
24	0	32830	32821	
25	0	32824	32656	
26	0	32804	32682	
27	0	32890	32684	
28	0	32852	32711	
29	0	32756	32714	
30	0	32720	32762	
31	0	32780	32707	
32	0	32748	32848	
33	0	32776	32756	
34	0	32808	32775	
35	0	32800	32708	
36	0	32848	32792	
37	0	32858	32786	
38	0	32800	32700	
39	0	32800	32839	
40	0	32828	32710	
41	0	32848	32816	
42	0	32840	32822	
43	0	32804	32728	
44	0	32769	32820	
45	0	32784	32720	
46	0	32816	32862	
47	0	32756	32856	
48	0	32852	32817	
49	0	32808	32822	
50	0	32812	32814	
51	0	32836	32812	
52	0	32842	32824	
53	0	32778	32794	
54	0	32838	32826	
55	0	32872	32806	
56	0	32780	32760	
57	0	32840	32796	
58	0	32812	32744	
59	0	32830	32790	
60	0	32788	32682	
61	0	32856	32716	
62	0	32796	32736	
63	0	32784	32768	
64	0	32792	32718	
65	0	32782	32862	
66	0	32752	32704	
67	0	32812	32784	
68	0	32808	32775	
69	0	32804	32794	
70	0	32778	32832	
71	0	32790	32808	
72	0	32772	32800	
73	0	32852	32804	
74	0	32852	32838	
75	0	32790	32716	
76	0	32780	32786	
77	0	32820	32660	
78	0	32836	32808	
79	0	32772	32740	
80	0	32882	32806	
81	0	32864	32678	
82	0	32812	32775	
83	0	32804	32732	
84	0	32760	32820	
85	0	32838	32766	
86	0	32764	32864	
87	0	32798	32806	
88	0	32808	32732	
89	0	32830	32814	
90	0	32804	32682	
91	0	32728	32702	
92	0	32804	32798	
93	0	32828	32711	
94	0	32752	32794	
95	0	32812	32700	
96	0	32800	32728	
97	0	32712	32718	
98	0	32756	32924	
99	0	32830	32794	
100	0	32832	32788	
101	0	32828	32844	
102	0	32836	32711	
103	0	32832	32671	
104	0	32784	32744	
105	0	32868	32654	
106	0	32760	32792	
107	0	32792	32810	
108	0	32820	32817	
109	0	32848	32743	
110	0	32752	32742	
111	0	32760	32764	
112	0	32840	32660	
113	0	32804	32814	
114	0	32868	32788	
115	0	32826	32772	
116	0	32842	32838	
117	0	32839	32942	
118	0	32788	32922	
119	0	32838	32834	
120	0	32832	32810	
121	0	32868	32718	
122	0	32788	32764	
123	0	32860	32790	
124	0	32864	32740	
125	0	32840	32694	
126	0	32776	32830	
127	0	32903	32768	
128	0	32808	32810	
129	0	32772	32712	
130	0	32804	32710	
131	0	32816	32792	
132	0	32852	32742	
133	0	32804	32691	
134	0	32858	32796	
135	0	32844	32705	
136	0	32824	32790	
137	0	32794	32668	
138	0	32804	32834	
139	0	32704	32756	
140	0	32868	32788	
141	0	32772	32710	
142	0	32808	32696	
143	0	32812	32654	
144	0	32868	32775	
145	0	32800	32646	
146	0	32864	32804	
147	0	32820	32688	
148	0	32756	32766	
149	0	32800	32746	
150	0	32820	32822	
151	0	32828	32830	
152	0	32824	32867	
153	0	32780	32854	
154	0	32820	32775	
155	0	32804	32818	
156	0	32788	32788	
157	0	32800	32770	
158	0	32788	32702	
159	0	32832	32830	
160	0	32808	32848	
161	0	32792	32746	
162	0	32840	32820	
163	0	32860	32710	
164	0	32788	32792	
165	0	32770	32792	
166	0	32874	32730	
167	0	32808	32628	
168	0	32780	32806	
169	0	32753	32828	
170	0	32796	32694	
171	0	32790	32688	
172	0	32820	32688	
173	0	32828	32816	
174	0	32844	32800	
175	0	32816	32794	
176	0	32844	32800	
177	0	32824	32684	
178	0	32784	32824	
179	0	32824	32656	
180	0	32796	32768	
181	0	32828	32680	
182	0	32906	32884	
183	0	32810	32762	
184	0	32766	32820	
185	0	32806	32748	
186	0	32840	32822	
187	0	32818	32816	
188	0	32800	32822	
189	0	32788	32775	
190	0	32796	32734	
191	0	32804	32807	
192	0	32884	32772	
193	0	32764	32832	
194	0	32884	32884	
195	0	32816	32700	
196	0	32844	32704	
197	0	32816	32628	
198	0	32820	32834	
199	0	32816	32804	
200	0	32932	32670	
201	0	32844	32783	
202	0	32810	32655	
203	0	32800	32724	
204	0	32814	32754	
205	0	32776	32744	
206	0	32852	32796	
207	0	32836	32668	
208	0	32830	32814	
209	0	32904	32726	
210	0	32832	32692	
211	0	32822	32710	
212	0	32754	32720	
213	0	32812	32784	
214	0	32768	32871	
215	0	32792	32780	
216	0	32868	32884	
217	0	32862	32808	
218	0	32848	32688	
219	0	32742	32858	
220	0	32772	32702	
221	0	32768	32775	
222	0	32790	32774	
223	0	32862	32852	
224	0	32820	32860	
225	0	32804	32742	
226	0	32814	32720	
227	0	32776	32726	
228	0	32770	32744	
229	0	32784	32775	
230	0	32834	32799	
231	0	32844	32714	
232	0	32886	32831	
233	0	32800	32844	
234	0	32812	32753	
235	0	32814	32808	
236	0	32864	32694	
237	0	32832	32880	
238	0	32746	32814	
239	0	32824	32738	
240	0	32724	32764	
241	0	32836	32732	
242	0	32864	32696	
243	0	32756	32746	
244	0	32748	32698	
245	0	32804	32772	
246	0	32804	32694	
247	0	32856	32758	
248	0	32820	32708	
249	0	32762	32812	
250	0	32788	32802	
251	0	32830	32734	
252	0	32882	32824	
253	0	32772	32708	
254	0	32796	32818	
255	0	32792	32679	
256	0	32728	32800	
257	0	32808	32740	
258	0	32846	32832	
259	0	32802	32834	
260	0	32780	32716	
261	0	32808	32871	
262	0	32798	32718	
263	0	32856	32704	
264	0	32864	32705	
265	0	32814	32774	
266	0	32824	32775	
267	0	32774	32844	
268	0	32790	32806	
269	0	32814	32705	
270	0	32774	32878	
271	0	32788	32796	
272	0	32764	32822	
273	0	32794	32736	
274	0	32824	32772	
275	0	32792	32839	
276	0	32796	32716	
277	0	32812	32844	
278	0	32828	32742	
279	0	32780	32804	
280	0	32904	32810	
281	0	32894	32762	
282	0	32848	32754	
283	0	32796	32670	
284	0	32744	32726	
285	0	32770	32760	
286	0	32828	32828	
287	0	32780	32682	
288	0	32860	32816	
289	0	32804	32790	
290	0	32792	32766	
291	0	32792	32784	
292	0	32844	32702	
293	0	32810	32774	
294	0	32836	32708	
295	0	32880	32854	
296	0	32830	32726	
297	0	32818	32918	
298	0	32828	32820	
299	0	32772	32808	
300	0	32852	32804	
301	0	32792	32718	
302	0	32796	32828	
303	0	32798	32748	
304	0	32760	32746	
305	0	32784	32652	
306	0	32804	32790	
307	0	32850	32714	
308	0	32820	32752	
309	0	32784	32724	
310	0	32720	32798	
311	0	32846	32712	
312	0	32840	32874	
313	0	32752	32647	
314	0	32788	32800	
315	0	32820	32831	
316	0	32796	32774	
317	0	32866	32696	
318	0	32808	32772	
319	0	32846	32756	
320	0	32808	32748	
321	0	32772	32696	
322	0	32732	32850	
323	0	32816	32724	
324	0	32836	32897	
325	0	32784	32774	
326	0	32860	32820	
327	0	32812	32824	
328	0	32786	32845	
329	0	32816	32696	
330	0	32812	32775	
331	0	32848	32882	
332	0	32816	32796	
333	0	32808	32790	
334	0	32836	32662	
335	0	32804	32792	
336	0	32782	32704	
337	0	32842	32802	
338	0	32844	32766	
339	0	32796	32742	
340	0	32800	32774	
341	0	32836	32784	
342	0	32804	32876	
343	0	32816	32786	
344	0	32808	32834	
345	0	32776	32826	
346	0	32812	32774	
347	0	32752	32791	
348	0	32840	32784	
349	0	32766	32730	
350	0	32840	32838	
351	0	32774	32762	
352	0	32800	32775	
353	0	32770	32682	
354	0	32810	32806	
355	0	32812	32760	
356	0	32836	32720	
357	0	32838	32756	
358	0	32820	32796	
359	0	32752	32762	
360	0	32800	32762	
361	0	32864	32842	
362	0	32812	32746	
363	0	32788	32750	
364	0	32768	32660	
365	0	32844	32808	
366	0	32798	32710	
367	0	32810	32836	
368	0	32832	32775	
369	0	32792	32775	
370	0	32792	32820	
371	0	32812	32727	
372	0	32786	32774	
373	0	32784	32828	
374	0	32872	32787	
375	0	32798	32884	
376	0	32780	32798	
377	0	32860	32780	
378	0	32784	32868	
379	0	32738	32788	
380	0	32872	32726	
381	0	32824	32768	
382	0	32820	32775	
383	0	32864	32732	
384	0	32842	32738	
385	0	32868	32802	
386	0	32850	32730	
387	0	32836	32760	
388	0	32784	32862	
389	0	32852	32793	
390	0	32824	32788	
391	0	32820	32684	
392	0	32798	32774	
393	0	32824	32678	
394	0	32778	32826	
395	0	32742	32758	
396	0	32774	32878	
397	0	32800	32876	
398	0	32820	32740	
399	0	32884	32800	
400	0	32840	32736	
401	0	32788	32830	
402	0	32792	32678	
403	0	32872	32788	
404	0	32780	32794	
405	0	32818	32743	
406	0	32760	32758	
407	0	32814	32742	
408	0	32806	32806	
409	0	32844	32730	
410	0	32824	32740	
411	0	32784	32693	
412	0	32816	32836	
413	0	32800	32706	
414	0	32752	32734	
415	0	32748	32696	
416	0	32764	32834	
417	0	32820	32804	
418	0	32840	32804	
419	0	32850	32708	
420	0	32824	32700	
421	0	32780	32822	
422	0	32844	32698	
423	0	32794	32758	
424	0	32784	32736	
425	0	32756	32876	
426	0	32852	32830	
427	0	32804	32788	
428	0	32896	32834	
429	0	32824	32846	
430	0	32834	32744	
431	0	32778	32775	
432	0	32844	32852	
433	0	32816	32670	
434	0	32808	32670	
435	0	32820	32678	
436	0	32796	32798	
437	0	32804	32900	
438	0	32828	32807	
439	0	32780	32798	
440	0	32832	32704	
441	0	32872	32775	
442	0	32900	32862	
443	0	32808	32798	
444	0	32808	32800	
445	0	32824	32706	
446	0	32838	32728	
447	0	32820	32726	
448	0	32828	32804	
449	0	32830	32878	
450	0	32840	32852	
451	0	32880	32814	
452	0	32764	32700	
453	0	32866	32752	
454	0	32826	32730	
455	0	32784	32847	
456	0	32808	32734	
457	0	32828	32834	
458	0	32836	32754	
459	0	32860	32758	
460	0	32784	32764	
461	0	32796	32756	
462	0	32864	32750	
463	0	32804	32724	
464	0	32788	32754	
465	0	32764	32647	
466	0	32856	32828	
467	0	32798	32772	
468	0	32756	32734	
469	0	32884	32734	
470	0	32828	32794	
471	0	32796	32636	
472	0	32818	32814	
473	0	32840	32744	
474	0	32798	32775	
475	0	32788	32844	
476	0	32816	32711	
477	0	32812	32770	
478	0	32864	32714	
479	0	32804	32832	
480	0	32820	32832	
481	0	32796	32848	
482	0	32794	32724	
483	0	32800	32775	
484	0	32840	32612	
485	0	32860	32762	
486	0	32756	32636	
487	0	32788	32824	
488	0	32842	32706	
489	0	32740	32862	
490	0	32848	32908	
491	0	32744	32744	
492	0	32778	32822	
493	0	32814	32804	
494	0	32788	32894	
495	0	32878	32760	
496	0	32866	32826	
497	0	32794	32801	
498	0	32772	32728	
499	0	32820	32718	
500	0	32856	32696	
501	0	32822	32664	
502	0	32816	32774	
503	0	32800	32674	
504	0	32776	32822	
505	0	32812	32712	
506	0	32786	32716	
507	0	32788	32792	
508	0	32800	32772	
509	0	32828	32760	
510	0	32802	32766	
511	0	32824	32772	
512	0	32824	32738	
513	0	32800	32775	
514	0	32812	32788	
515	0	32816	32846	
516	0	32848	32834	
517	0	32878	32860	
518	0	32756	32752	
519	0	32744	32775	
520	0	32868	32718	
521	0	32808	32750	
522	0	32860	32728	
523	0	32788	32764	
524	0	32778	32769	
525	0	32776	32727	
526	0	32760	32718	
527	0	32804	32742	
528	0	32782	32846	
529	0	32724	32748	
530	0	32852	32788	
531	0	32834	32734	
532	0	32788	32782	
533	0	32764	32662	
534	0	32832	32746	
535	0	32800	32720	
536	0	32810	32718	
537	0	32816	32754	
538	0	32832	32744	
539	0	32852	32690	
540	0	32844	32824	
541	0	32790	32684	
542	0	32782	32828	
543	0	32820	32746	
544	0	32844	32798	
545	0	32908	32660	
546	0	32816	32822	
547	0	32776	32671	
548	0	32820	32897	
549	0	32836	32766	
550	0	32794	32760	
551	0	32876	32812	
552	0	32816	32682	
553	0	32804	32752	
554	0	32820	32884	
555	0	32868	32712	
556	0	32792	32762	
557	0	32732	32720	
558	0	32772	32807	
559	0	32808	32790	
560	0	32850	32750	
561	0	32824	32720	
562	0	32808	32674	
563	0	32760	32775	
564	0	32756	32814	
565	0	32836	32816	
566	0	32810	32807	
567	0	32800	32768	
568	0	32768	32830	
569	0	32768	32851	
570	0	32800	32790	
571	0	32816	32754	
572	0	32848	32714	
573	0	32850	32790	
574	0	32772	32748	
575	0	32762	32790	
576	0	32820	32712	
577	0	32748	32850	
578	0	32828	32728	
579	0	32840	32836	
580	0	32796	32834	
581	0	32822	32835	
582	0	32852	32802	
583	0	32816	32698	
584	0	32820	32840	
585	0	32848	32692	
586	0	32812	32733	
587	0	32850	32656	
588	0	32810	32800	
589	0	32828	32768	
590	0	32804	32798	
591	0	32814	32766	
592	0	32798	32772	
593	0	32774	32868	
594	0	32796	32796	
595	0	32834	32789	
596	0	32828	32870	
597	0	32820	32862	
598	0	32792	32839	
599	0	32884	32882	
600	0	32802	32844	
601	0	32856	32807	
602	0	32860	32863	
603	0	32798	32820	
604	0	32840	32684	
605	0	32798	32734	
606	0	32780	32748	
607	0	32776	32790	
608	0	32828	32728	
609	0	32770	32796	
610	0	32792	32728	
611	0	32818	32798	
612	0	32840	32648	
613	0	32852	32791	
614	0	32824	32775	
615	0	32782	32844	
616	0	32784	32842	
617	0	32856	32724	
618	0	32848	32799	
619	0	32864	32752	
620	0	32808	32828	
621	0	32842	32630	
622	0	32840	32796	
623	0	32814	32770	
624	0	32858	32752	
625	0	32796	32696	
626	0	32812	32796	
627	0	32692	32676	
628	0	32790	32660	
629	0	32824	32668	
630	0	32848	32823	
631	0	32868	32668	
632	0	32820	32815	
633	0	32804	32700	
634	0	32828	32768	
635	0	32780	32772	
636	0	32846	32838	
637	0	32800	32770	
638	0	32908	32790	
639	0	32888	32736	
640	0	32836	32822	
641	0	32816	32664	
642	0	32850	32820	
643	0	32792	32744	
644	0	32808	32754	
645	0	32838	32740	
646	0	32794	32784	
647	0	32832	32682	
648	0	32784	32808	
649	0	32832	32718	
650	0	32748	32818	
651	0	32804	32686	
652	0	32792	32712	
653	0	32816	32716	
654	0	32816	32882	
655	0	32832	32806	
656	0	32756	32732	
657	0	32848	32726	
658	0	32758	32734	
659	0	32756	32682	
660	0	32820	32775	
661	0	32788	32796	
662	0	32828	32819	
663	0	32812	32710	
664	0	32818	32796	
665	0	32812	32834	
666	0	32776	32794	
667	0	32764	32814	
668	0	32832	32790	
669	0	32812	32744	
670	0	32898	32644	
671	0	32860	32775	
672	0	32786	32772	
673	0	32804	32775	
674	0	32860	32814	
675	0	32824	32793	
676	0	32840	32748	
677	0	32794	32758	
678	0	32764	32844	
679	0	32816	32631	
680	0	32856	32768	
681	0	32846	32703	
682	0	32784	32760	
683	0	32784	32758	
684	0	32826	32814	
685	0	32756	32766	
686	0	32804	32766	
687	0	32832	32828	
688	0	32832	32770	
689	0	32824	32806	
690	0	32792	32670	
691	0	32776	32764	
692	0	32798	32714	
693	0	32842	32769	
694	0	32792	32796	
695	0	32826	32824	
696	0	32775	32816	
697	0	32816	32775	
698	0	32830	32812	
699	0	32812	32802	
700	0	32792	32830	
701	0	32836	32786	
702	0	32884	32712	
703	0	32860	32726	
704	0	32856	32823	
705	0	32784	32686	
706	0	32834	32760	
707	0	32880	32720	
708	0	32804	32768	
709	0	32796	32743	
710	0	32837	32718	
711	0	32808	32724	
712	0	32776	32746	
713	0	32768	32804	
714	0	32864	32818	
715	0	32866	32774	
716	0	32858	32872	
717	0	32910	32808	
718	0	32884	32775	
719	0	32746	32728	
720	0	32820	32748	
721	0	32832	32704	
722	0	32862	32847	
723	0	32796	32662	
724	0	32836	32836	
725	0	32818	32724	
726	0	32756	32764	
727	0	32768	32678	
728	0	32800	32760	
729	0	32764	32728	
730	0	32812	32738	
731	0	32780	32884	
732	0	32852	32775	
733	0	32784	32759	
734	0	32860	32722	
735	0	32856	32684	
736	0	32788	32775	
737	0	32736	32762	
738	0	32852	32682	
739	0	32890	32832	
740	0	32800	32716	
741	0	32834	32828	
742	0	32816	32682	
743	0	32830	32786	
744	0	32748	32720	
745	0	32848	32762	
746	0	32772	32736	
747	0	32810	32775	
748	0	32776	32644	
749	0	32828	32796	
750	0	32776	32734	
751	0	32788	32804	
752	0	32808	32720	
753	0	32818	32750	
754	0	32872	32614	
755	0	32824	32766	
756	0	32774	32804	
757	0	32792	32754	
758	0	32808	32828	
759	0	32828	32647	
760	0	32762	32712	
761	0	32824	32764	
762	0	32788	32782	
763	0	32836	32802	
764	0	32814	32848	
765	0	32892	32676	
766	0	32832	32770	
767	0	32792	32600	
768	0	32860	32766	
769	0	32828	32696	
770	0	32858	32775	
771	0	32800	32758	
772	0	32860	32748	
773	0	32804	32742	
774	0	32868	32773	
775	0	32836	32786	
776	0	32824	32686	
777	0	32830	32862	
778	0	32834	32748	
779	0	32824	32874	
780	0	32824	32742	
781	0	32852	32726	
782	0	32788	32744	
783	0	32814	32698	
784	0	32816	32838	
785	0	32796	32772	
786	0	32842	32816	
787	0	32748	32796	
788	0	32864	32720	
789	0	32834	32804	
790	0	32816	32708	
791	0	32868	32782	
792	0	32808	32656	
793	0	32804	32808	
794	0	32816	32848	
795	0	32794	32640	
796	0	32804	32788	
797	0	32790	32726	
798	0	32790	32863	
799	0	32808	32775	
800	0	32770	32722	
801	0	32800	32682	
802	0	32760	32708	
803	0	32784	32808	
804	0	32800	32856	
805	0	32804	32743	
806	0	32812	32730	
807	0	32778	32720	
808	0	32776	32852	
809	0	32696	32690	
810	0	32702	32886	
811	0	32716	32863	
812	0	32646	32832	
813	0	32680	32892	
814	0	32712	32902	
815	0	32728	32804	
816	0	32722	32743	
817	0	32740	32786	
818	0	32732	32706	
819	0	32708	32892	
820	0	32676	32920	
821	0	32720	32824	
822	0	32716	32872	
823	0	32744	32762	
824	0	32684	32820	
825	0	32738	32804	
826	0	32788	32775	
827	0	32804	32682	
828	0	32844	32814	
829	0	32840	32740	
830	0	32928	32654	
831	0	32900	32775	
832	0	32976	32666	
833	0	33024	32648	
834	0	33088	32614	
835	0	33126	32656	
836	0	33152	32606	
837	0	33252	32516	
838	0	33296	32554	
839	0	33360	32680	
840	0	33296	32602	
841	0	33224	32678	
842	0	33304	32647	
843	0	33236	32724	
844	0	33036	32804	
845	0	32954	32820	
846	0	32860	32792	
847	0	32776	32924	
848	0	32652	32886	
849	0	32592	32775	
850	0	32529	32932	
851	0	32502	32775	
852	0	32528	32852	
853	0	32552	32758	
854	0	32556	32802	
855	0	32528	32820	
856	0	32558	32896	
857	0	32562	32828	
858	0	32670	32780	
859	0	32690	32804	
860	0	32684	32699	
861	0	32720	32788	
862	0	32756	32724	
863	0	32780	32855	
864	0	32740	32839	
865	0	32740	32844	
866	0	32732	32856	
867	0	32768	32734	
868	0	32840	32810	
869	0	32792	32775	
870	0	32856	32775	
871	0	32768	32820	
872	0	32832	32842	
873	0	32848	32820	
874	0	32748	32682	
875	0	32840	32750	
876	0	32832	32646	
877	0	32766	32791	
878	0	32780	32775	
879	0	32804	32852	
880	0	32788	32836	
881	0	32772	32697	
882	0	32790	32718	
883	0	32800	32732	
884	0	32848	32744	
885	0	32872	32712	
886	0	32764	32834	
887	0	32840	32772	
888	0	32820	32802	
889	0	32808	32646	
890	0	32860	32775	
891	0	32864	32766	
892	0	32760	32794	
893	0	32814	32836	
894	0	32836	32838	
895	0	32838	32802	
896	0	32884	32710	
897	0	32844	32852	
898	0	32848	32678	
899	0	32817	32802	
900	0	32798	32810	
901	0	32872	32842	
902	0	32868	32814	
903	0	32860	32884	
904	0	32780	32812	
905	0	32796	32794	
906	0	32800	32840	
907	0	32796	32836	
908	0	32800	32852	
909	0	32758	32679	
910	0	32706	32774	
911	0	32798	32668	
912	0	32790	32708	
913	0	32788	32798	
914	0	32756	32778	
915	0	32796	32771	
916	0	32822	32812	
917	0	32816	32788	
918	0	32788	32872	
919	0	32812	32796	
920	0	32796	32802	
921	0	32878	32775	
922	0	32832	32847	
923	0	32784	32782	
924	0	32810	32706	
925	0	32821	32772	
926	0	32820	32676	
927	0	32838	32818	
928	0	32822	32772	
929	0	32832	32752	
930	0	32828	32856	
931	0	32836	32672	
932	0	32818	32832	
933	0	32840	32628	
934	0	32748	32775	
935	0	32788	32660	
936	0	32848	32756	
937	0	32808	32800	
938	0	32756	32806	
939	0	32812	32700	
940	0	32772	32806	
941	0	32800	32752	
942	0	32832	32836	
943	0	32836	32752	
944	0	32776	32832	
945	0	32777	32762	
946	0	32822	32743	
947	0	32740	32834	
948	0	32828	32754	
949	0	32766	32688	
950	0	32848	32644	
951	0	32824	32788	
952	0	32821	32806	
953	0	32800	32728	
954	0	32798	32822	
955	0	32808	32702	
956	0	32817	32734	
957	0	32782	32762	
958	0	32804	32796	
959	0	32792	32715	
960	0	32844	32846	
961	0	32810	32760	
962	0	32800	32798	
963	0	32802	32660	
964	0	32798	32790	
965	0	32840	32664	
966	0	32800	32780	
967	0	32840	32660	
968	0	32752	32775	
969	0	32810	32714	
970	0	32816	32775	
971	0	32756	32770	
972	0	32784	32772	
973	0	32788	32750	
974	0	32800	32742	
975	0	32800	32732	
976	0	32852	32784	
977	0	32820	32676	
978	0	32784	32758	
979	0	32880	32684	
980	0	32864	32796	
981	0	32840	32700	
982	0	32812	32814	
983	0	32830	32730	
984	0	32816	32760	
985	0	32856	32694	
986	0	32834	32740	
987	0	32744	32802	
988	0	32836	32756	
989	0	32744	32856	
990	0	32840	32766	
991	0	32848	32802	
992	0	32876	32864	
993	0	32810	32794	
994	0	32802	32792	
995	0	32864	32821	
996	0	32792	32708	
997	0	32852	32870	
998	0	32820	32684	
999	0	32800	32782	
1000	0	32742	32742	
1001	0	32798	32815	
1002	0	32844	32708	
1003	0	32788	32836	
1004	0	32792	32794	
1005	0	32776	32856	
1006	0	32760	32772	
1007	0	32836	32814	
1008	0	32860	32766	
1009	0	32792	32862	
1010	0	32828	32812	
1011	0	32828	32798	
1012	0	32834	32692	
1013	0	32844	32810	
1014	0	32784	32742	
1015	0	32782	32788	
1016	0	32828	32810	
1017	0	32774	32692	
1018	0	32808	32768	
1019	0	32768	32784	
1020	0	32776	32780	
1021	0	32812	32720	
1022	0	32808	32775	
1023	0	32814	32698	
1024	0	32780	32822	
1025	0	32804	32788	
1026	0	32748	32788	
1027	0	32780	32832	
1028	0	32842	32758	
1029	0	32828	32822	
1030	0	32788	32730	
1031	0	32840	32820	
1032	0	32806	32706	
1033	0	32832	32806	
1034	0	32800	32690	
1035	0	32732	32774	
1036	0	32756	32714	
1037	0	32836	32756	
1038	0	32788	32692	
1039	0	32824	32764	
1040	0	32832	32704	
1041	0	32804	32788	
1042	0	32860	32705	
1043	0	32856	32744	
1044	0	32846	32696	
1045	0	32892	32744	
1046	0	32802	32656	
1047	0	32800	32784	
1048	0	32788	32674	
1049	0	32808	32750	
1050	0	32820	32729	
1051	0	32792	32775	
1052	0	32784	32742	
1053	0	32804	32740	
1054	0	32820	32658	
1055	0	32790	32728	
1056	0	32836	32697	
1057	0	32844	32766	
1058	0	32864	32660	
1059	0	32864	32820	
1060	0	32800	32672	
1061	0	32840	32775	
1062	0	32808	32752	
1063	0	32846	32768	
1064	0	32784	32774	
1065	0	32804	32799	
1066	0	32810	32708	
1067	0	32820	32844	
1068	0	32826	32775	
1069	0	32796	32824	
1070	0	32800	32812	
1071	0	32836	32775	
1072	0	32840	32736	
1073	0	32868	32674	
1074	0	32788	32768	
1075	0	32800	32698	
1076	0	32750	32814	
1077	0	32800	32710	
1078	0	32808	32647	
1079	0	32804	32740	
1080	0	32836	32832	
1081	0	32804	32764	
1082	0	32836	32822	
1083	0	32830	32857	
1084	0	32826	32772	
1085	0	32834	32708	
1086	0	32816	32864	
1087	0	32916	32700	
1088	0	32824	32814	
1089	0	32804	32687	
1090	0	32852	32783	
1091	0	32800	32714	
1092	0	32758	32732	
1093	0	32850	32696	
1094	0	32804	32770	
1095	0	32824	32732	
1096	0	32832	32711	
1097	0	32806	32775	
1098	0	32856	32718	
1099	0	32775	32798	
1100	0	32824	32712	
1101	0	32820	32828	
1102	0	32744	32722	
1103	0	32780	32790	
1104	0	32832	32860	
1105	0	32796	32726	
1106	0	32832	32718	
1107	0	32796	32646	
1108	0	32768	32812	
1109	0	32756	32702	
1110	0	32856	32788	
1111	0	32840	32768	
1112	0	32800	32762	
1113	0	32754	32634	
1114	0	32774	32788	
1115	0	32824	32744	
1116	0	32792	32903	
1117	0	32836	32706	
1118	0	32790	32778	
1119	0	32816	32768	
1120	0	32844	32744	
1121	0	32824	32732	
1122	0	32772	32796	
1123	0	32832	32804	
1124	0	32856	32820	
1125	0	32872	32796	
1126	0	32732	32716	
1127	0	32820	32775	
1128	0	32828	32692	
1129	0	32856	32682	
1130	0	32784	32700	
1131	0	32824	32817	
1132	0	32768	32762	
1133	0	32780	32692	
1134	0	32840	32760	
1135	0	32786	32732	
1136	0	32840	32763	
1137	0	32772	32810	
1138	0	32814	32832	
1139	0	32774	32840	
1140	0	32806	32732	
1141	0	32848	32736	
1142	0	32808	32708	
1143	0	32852	32750	
1144	0	32798	32714	
1145	0	32860	32862	
1146	0	32778	32814	
1147	0	32786	32700	
1148	0	32834	32800	
1149	0	32810	32718	
1150	0	32800	32824	
1151	0	32844	32840	
1152	0	32812	32680	
1153	0	32856	32810	
1154	0	32796	32820	
1155	0	32822	32692	
1156	0	32840	32804	
1157	0	32776	32764	
1158	0	32804	32816	
1159	0	32768	32812	
1160	0	32776	32664	
1161	0	32834	32798	
1162	0	32824	32686	
1163	0	32800	32798	
1164	0	32808	32748	
1165	0	32808	32844	
1166	0	32796	32816	
1167	0	32758	32756	
1168	0	32806	32790	
1169	0	32768	32678	
1170	0	32802	32844	
1171	0	32812	32714	
1172	0	32862	32748	
1173	0	32800	32872	
1174	0	32836	32694	
1175	0	32860	32846	
1176	0	32794	32711	
1177	0	32748	32798	
1178	0	32772	32716	
1179	0	32800	32816	
1180	0	32752	32654	
1181	0	32804	32756	
1182	0	32866	32772	
1183	0	32842	32738	
1184	0	32800	32754	
1185	0	32750	32748	
1186	0	32860	32664	
1187	0	32832	32834	
1188	0	32828	32756	
1189	0	32786	32912	
1190	0	32864	32728	
1191	0	32790	32764	
1192	0	32836	32730	
1193	0	32808	32774	
1194	0	32832	32858	
1195	0	32804	32790	
1196	0	32800	32788	
1197	0	32816	32718	
1198	0	32798	32788	
1199	0	32824	32704	
1200	0	32780	32807	
1201	0	32772	32764	
1202	0	32808	32774	
1203	0	32774	32754	
1204	0	32840	32760	
1205	0	32840	32652	
1206	0	32826	32744	
1207	0	32852	32668	
1208	0	32830	32814	
1209	0	32800	32726	
1210	0	32788	32775	
1211	0	32772	32666	
1212	0	32836	32726	
1213	0	32844	32724	
1214	0	32788	32732	
1215	0	32814	32626	
1216	0	32814	32830	
1217	0	32868	32850	
1218	0	32824	32858	
1219	0	32816	32774	
1220	0	32852	32808	
1221	0	32852	32816	
1222	0	32838	32706	
1223	0	32844	32834	
1224	0	32788	32703	
1225	0	32812	32823	
1226	0	32828	32680	
1227	0	32748	32762	
1228	0	32832	32680	
1229	0	32808	32822	
1230	0	32800	32766	
1231	0	32828	32868	
1232	0	32780	32828	
1233	0	32816	32776	
1234	0	32760	32814	
1235	0	32778	32772	
1236	0	32800	32796	
1237	0	32812	32676	
1238	0	32828	32804	
1239	0	32788	32770	
1240	0	32802	32800	
1241	0	32780	32743	
1242	0	32820	32775	
1243	0	32788	32702	
1244	0	32768	32775	
1245	0	32878	32704	
1246	0	32880	32744	
1247	0	32742	32678	
1248	0	32800	32764	
1249	0	32852	32854	
1250	0	32808	32756	
1251	0	32812	32790	
1252	0	32868	32828	
1253	0	32880	32796	
1254	0	32764	32838	
1255	0	32766	32816	
1256	0	32812	32770	
1257	0	32796	32744	
1258	0	32784	32775	
1259	0	32846	32754	
1260	0	32818	32846	
1261	0	32840	32689	
1262	0	32894	32740	
1263	0	32790	32790	
1264	0	32776	32823	
1265	0	32761	32710	
1266	0	32796	32828	
1267	0	32804	32718	
1268	0	32848	32775	
1269	0	32790	32702	
1270	0	32880	32721	
1271	0	32824	32674	
1272	0	32808	32736	
1273	0	32804	32714	
1274	0	32852	32743	
1275	0	32788	32748	
1276	0	32782	32796	
1277	0	32846	32712	
1278	0	32812	32744	
1279	0	32746	32700	
1280	0	32820	32838	
1281	0	32746	32760	
1282	0	32746	32772	
1283	0	32798	32752	
1284	0	32760	32792	
1285	0	32808	32804	
1286	0	32808	32694	
1287	0	32864	32775	
1288	0	32860	32680	
1289	0	32868	32824	
1290	0	32860	32764	
1291	0	32798	32814	
1292	0	32838	32742	
1293	0	32784	32664	
1294	0	32792	32812	
1295	0	32782	32670	
1296	0	32832	32756	
1297	0	32810	32732	
1298	0	32800	32774	
1299	0	32832	32724	
1300	0	32838	32807	
1301	0	32768	32734	
1302	0	32838	32761	
1303	0	32856	32744	
1304	0	32870	32816	
1305	0	32788	32748	
1306	0	32772	32792	
1307	0	32786	32839	
1308	0	32820	32790	
1309	0	32762	32710	
1310	0	32782	32812	
1311	0	32804	32810	
1312	0	32832	32748	
1313	0	32822	32708	
1314	0	32841	32775	
1315	0	32834	32844	
1316	0	32856	32756	
1317	0	32852	32810	
1318	0	32796	32775	
1319	0	32828	32740	
1320	0	32824	32766	
1321	0	32764	32678	
1322	0	32760	32772	
1323	0	32768	32870	
1324	0	32822	32739	
1325	0	32872	32800	
1326	0	32808	32692	
1327	0	32834	32830	
1328	0	32770	32810	
1329	0	32760	32732	
1330	0	32774	32656	
1331	0	32846	32752	
1332	0	32810	32842	
1333	0	32786	32800	
1334	0	32822	32708	
1335	0	32752	32860	
1336	0	32804	32900	
1337	0	32780	32775	
1338	0	32846	32730	
1339	0	32764	32679	
1340	0	32794	32814	
1341	0	32836	32804	
1342	0	32864	32720	
1343	0	32852	32748	
1344	0	32864	32716	
1345	0	32814	32775	
1346	0	32790	32682	
1347	0	32820	32752	
1348	0	32870	32724	
1349	0	32804	32806	
1350	0	32900	32808	
1351	0	32832	32700	
1352	0	32784	32800	
1353	0	32836	32708	
1354	0	32730	32772	
1355	0	32808	32775	
1356	0	32772	32798	
1357	0	32776	32838	
1358	0	32798	32682	
1359	0	32796	32802	
1360	0	32828	32728	
1361	0	32828	32806	
1362	0	32810	32668	
1363	0	32900	32744	
1364	0	32834	32796	
1365	0	32796	32800	
1366	0	32792	32834	
1367	0	32792	32804	
1368	0	32852	32820	
1369	0	32756	32790	
1370	0	32882	32850	
1371	0	32840	32682	
1372	0	32828	32730	
1373	0	32784	32750	
1374	0	32798	32750	
1375	0	32816	32630	
1376	0	32820	32812	
1377	0	32832	32775	
1378	0	32844	32832	
1379	0	32836	32806	
1380	0	32828	32724	
1381	0	32856	32758	
1382	0	32824	32762	
1383	0	32800	32828	
1384	0	32788	32712	
1385	0	32814	32798	
1386	0	32796	32820	
1387	0	32828	32810	
1388	0	32820	32838	
1389	0	32788	32738	
1390	0	32816	32762	
1391	0	32844	32838	
1392	0	32808	32758	
1393	0	32816	32708	
1394	0	32798	32710	
1395	0	32842	32698	
1396	0	32776	32834	
1397	0	32796	32844	
1398	0	32792	32804	
1399	0	32820	32828	
1400	0	32769	32844	
1401	0	32784	32806	
1402	0	32832	32708	
1403	0	32798	32810	
1404	0	32812	32820	
1405	0	32826	32796	
1406	0	32868	32774	
1407	0	32816	32720	
1408	0	32802	32707	
1409	0	32832	32650	
1410	0	32776	32786	
1411	0	32780	32684	
1412	0	32834	32742	
1413	0	32778	32746	
1414	0	32848	32788	
1415	0	32828	32668	
1416	0	32812	32810	
1417	0	32776	32832	
1418	0	32802	32830	
1419	0	32800	32740	
1420	0	32776	32774	
1421	0	32814	32726	
1422	0	32864	32828	
1423	0	32844	32680	
1424	0	32746	32714	
1425	0	32778	32734	
1426	0	32808	32732	
1427	0	32788	32750	
1428	0	32764	32775	
1429	0	32800	32762	
1430	0	32824	32834	
1431	0	32832	32748	
1432	0	32884	32674	
1433	0	32796	32710	
1434	0	32850	32702	
1435	0	32806	32832	
1436	0	32780	32694	
1437	0	32810	32734	
1438	0	32868	32660	
1439	0	32806	32766	
1440	0	32840	32764	
1441	0	32760	32798	
1442	0	32820	32700	
1443	0	32872	32788	
1444	0	32768	32828	
1445	0	32750	32696	
1446	0	32750	32822	
1447	0	32810	32702	
1448	0	32816	32836	
1449	0	32774	32720	
1450	0	32766	32782	
1451	0	32784	32710	
1452	0	32798	32775	
1453	0	32848	32656	
1454	0	32820	32842	
1455	0	32768	32775	
1456	0	32808	32722	
1457	0	32802	32732	
1458	0	32788	32720	
1459	0	32798	32832	
1460	0	32754	32784	
1461	0	32788	32754	
1462	0	32774	32849	
1463	0	32862	32735	
1464	0	32850	32704	
1465	0	32808	32742	
1466	0	32802	32774	
1467	0	32848	32679	
1468	0	32756	32671	
1469	0	32840	32680	
1470	0	32780	32772	
1471	0	32820	32704	
1472	0	32764	32792	
1473	0	32810	32724	
1474	0	32800	32734	
1475	0	32800	32798	
1476	0	32816	32796	
1477	0	32744	32686	
1478	0	32848	32764	
1479	0	32868	32682	
1480	0	32788	32804	
1481	0	32804	32710	
1482	0	32886	32844	
1483	0	32872	32700	
1484	0	32868	32775	
1485	0	32788	32724	
1486	0	32832	32760	
1487	0	32852	32684	
1488	0	32736	32822	
1489	0	32828	32732	
1490	0	32834	32758	
1491	0	32824	32700	
1492	0	32824	32786	
1493	0	32840	32725	
1494	0	32872	32712	
1495	0	32800	32647	
1496	0	32800	32784	
1497	0	32802	32759	
1498	0	32836	32772	
1499	0	32802	32866	
1500	0	32836	32736	
1501	0	32812	32759	
1502	0	32818	32684	
1503	0	32904	32822	
1504	0	32792	32734	
1505	0	32752	32940	
1506	0	32864	32784	
1507	0	32852	32752	
1508	0	32808	32788	
1509	0	32810	32682	
1510	0	32798	32680	
1511	0	32856	32708	
1512	0	32744	32716	
1513	0	32808	32744	
1514	0	32776	32836	
1515	0	32860	32780	
1516	0	32772	32884	
1517	0	32740	32831	
1518	0	32840	32758	
1519	0	32800	32834	
1520	0	32736	32698	
1521	0	32806	32712	
1522	0	32780	32706	
1523	0	32832	32846	
1524	0	32808	32784	
1525	0	32844	32756	
1526	0	32776	32894	
1527	0	32864	32791	
1528	0	32836	32814	
1529	0	32812	32840	
1530	0	32816	32814	
1531	0	32824	32738	
1532	0	32876	32726	
1533	0	32816	32674	
1534	0	32826	32708	
1535	0	32840	32698	
1536	0	32778	32764	
1537	0	32820	32733	
1538	0	32814	32756	
1539	0	32886	32881	
1540	0	32804	32792	
1541	0	32778	32775	
1542	0	32880	32832	
1543	0	32844	32831	
1544	0	32832	32646	
1545	0	32756	32734	
1546	0	32858	32712	
1547	0	32752	32830	
1548	0	32812	32817	
1549	0	32840	32774	
1550	0	32864	32769	
1551	0	32820	32748	
1552	0	32824	32866	
1553	0	32810	32804	
1554	0	32820	32772	
1555	0	32740	32678	
1556	0	32788	32812	
1557	0	32808	32790	
1558	0	32844	32844	
1559	0	32848	32816	
1560	0	32792	32720	
1561	0	32824	32836	
1562	0	32784	32744	
1563	0	32836	32818	
1564	0	32848	32740	
1565	0	32836	32858	
1566	0	32768	32687	
1567	0	32796	32748	
1568	0	32780	32719	
1569	0	32776	32792	
1570	0	32776	32732	
1571	0	32752	32740	
1572	0	32820	32736	
1573	0	32772	32908	
1574	0	32804	32812	
1575	0	32856	32714	
1576	0	32776	32821	
1577	0	32828	32775	
1578	0	32788	32804	
1579	0	32780	32838	
1580	0	32845	32814	
1581	0	32862	32840	
1582	0	32776	32775	
1583	0	32798	32736	
1584	0	32848	32774	
1585	0	32840	32796	
1586	0	32792	32786	
1587	0	32840	32766	
1588	0	32864	32744	
1589	0	32752	32705	
1590	0	32812	32798	
1591	0	32824	32756	
1592	0	32812	32656	
1593	0	32808	32774	
1594	0	32770	32854	
1595	0	32816	32708	
1596	0	32754	32800	
1597	0	32804	32660	
1598	0	32836	32827	
1599	0	32858	32772	
1600	0	32804	32864	
1601	0	32794	32748	
1602	0	32823	32710	
1603	0	32854	32764	
1604	0	32816	32740	
1605	0	32860	32806	
1606	0	32740	32710	
1607	0	32810	32764	
1608	0	32832	32788	
1609	0	32816	32687	
1610	0	32788	32764	
1611	0	32792	32628	
1612	0	32864	32794	
1613	0	32880	32684	
1614	0	32820	32814	
1615	0	32854	32796	
1616	0	32820	32752	
1617	0	32776	32804	
1618	0	32824	32774	
1619	0	32776	32838	
1620	0	32860	32760	
1621	0	32790	32836	
1622	0	32764	32750	
1623	0	32790	32868	
1624	0	32784	32708	
1625	0	32840	32796	
1626	0	32856	32864	
1627	0	32820	32756	
1628	0	32896	32695	
1629	0	32800	32838	
1630	0	32796	32678	
1631	0	32732	32738	
1632	0	32784	32680	
1633	0	32774	32748	
1634	0	32772	32802	
1635	0	32844	32654	
1636	0	32792	32832	
1637	0	32816	32734	
1638	0	32832	32768	
1639	0	32780	32798	
1640	0	32808	32801	
1641	0	32792	32748	
1642	0	32806	32802	
1643	0	32768	32775	
1644	0	32880	32846	
1645	0	32852	32752	
1646	0	32840	32760	
1647	0	32852	32746	
1648	0	32728	32858	
1649	0	32708	32818	
1650	0	32800	32718	
1651	0	32788	32880	
1652	0	32776	32807	
1653	0	32816	32796	
1654	0	32724	32790	
1655	0	32764	32746	
1656	0	32844	32802	
1657	0	32858	32792	
1658	0	32874	32812	
1659	0	32800	32810	
1660	0	32780	32820	
1661	0	32816	32756	
1662	0	32848	32798	
1663	0	32884	32828	
1664	0	32824	32760	
1665	0	32832	32812	
1666	0	32812	32764	
1667	0	32732	32822	
1668	0	32764	32743	
1669	0	32850	32742	
1670	0	32748	32806	
1671	0	32700	32775	
1672	0	32704	32842	
1673	0	32740	32818	
1674	0	32764	32766	
1675	0	32748	32784	
1676	0	32682	32686	
1677	0	32788	32826	
1678	0	32722	32787	
1679	0	32676	32842	
1680	0	32616	32834	
1681	0	32660	32812	
1682	0	32700	32854	
1683	0	32684	32868	
1684	0	32744	32792	
1685	0	32704	32856	
1686	0	32656	32820	
1687	0	32786	32734	
1688	0	32800	32775	
1689	0	32864	32697	
1690	0	32812	32663	
1691	0	32872	32680	
1692	0	32892	32714	
1693	0	32962	32743	
1694	0	33060	32608	
1695	0	33096	32546	
1696	0	33188	32511	
1697	0	33214	32644	
1698	0	33322	32628	
1699	0	33344	32528	
1700	0	33336	32514	
1701	0	33400	32572	
1702	0	33408	32660	
1703	0	33306	32614	
1704	0	33248	32626	
1705	0	33092	32800	
1706	0	32924	32868	
1707	0	32872	32744	
1708	0	32644	32916	
1709	0	32540	32919	
1710	0	32480	32928	
1711	0	32420	32998	
1712	0	32304	32844	
1713	0	32412	32946	
1714	0	32522	32897	
1715	0	32488	32824	
1716	0	32588	32968	
1717	0	32556	32816	
1718	0	32650	32798	
1719	0	32644	32682	
1720	0	32672	32772	
1721	0	32768	32772	
1722	0	32744	32742	
1723	0	32752	32740	
1724	0	32700	32670	
1725	0	32686	32756	
1726	0	32804	32822	
1727	0	32772	32724	
1728	0	32822	32744	
1729	0	32848	32748	
1730	0	32852	32788	
1731	0	32856	32746	
1732	0	32758	32711	
1733	0	32842	32824	
1734	0	32836	32748	
1735	0	32770	32756	
1736	0	32736	32812	
1737	0	32736	32775	
1738	0	32750	32872	
1739	0	32764	32775	
1740	0	32734	32860	
1741	0	32872	32762	
1742	0	32865	32712	
1743	0	32788	32824	
1744	0	32828	32672	
1745	0	32824	32720	
1746	0	32868	32662	
1747	0	32794	32808	
1748	0	32832	32759	
1749	0	32820	32716	
1750	0	32778	32816	
1751	0	32836	32692	
1752	0	32804	32750	
1753	0	32864	32646	
1754	0	32886	32768	
1755	0	32768	32804	
1756	0	32826	32820	
1757	0	32814	32775	
1758	0	32841	32792	
1759	0	32912	32786	
1760	0	32848	32692	
1761	0	32776	32746	
1762	0	32832	32699	
1763	0	32864	32798	
1764	0	32862	32775	
1765	0	32786	32742	
1766	0	32804	32774	
1767	0	32816	32774	
1768	0	32824	32804	
1769	0	32802	32734	
1770	0	32828	32814	
1771	0	32872	32743	
1772	0	32796	32702	
1773	0	32752	32752	
1774	0	32790	32751	
1775	0	32824	32826	
1776	0	32804	32766	
1777	0	32796	32804	
1778	0	32759	32816	
1779	0	32808	32743	
1780	0	32854	32730	
1781	0	32778	32706	
1782	0	32900	32740	
1783	0	32814	32678	
1784	0	32808	32804	
1785	0	32800	32852	
1786	0	32780	32834	
1787	0	32808	32774	
1788	0	32822	32756	
1789	0	32780	32827	
1790	0	32892	32728	
1791	0	32868	32742	
1792	0	32792	32710	
1793	0	32788	32838	
1794	0	32804	32794	
1795	0	32778	32882	
1796	0	32804	32774	
1797	0	32768	32850	
1798	0	32817	32828	
1799	0	32832	32688	
1800	0	32876	32804	
1801	0	32876	32822	
1802	0	32796	32764	
1803	0	32798	32648	
1804	0	32798	32818	
1805	0	32816	32673	
1806	0	32782	32742	
1807	0	32780	32759	
1808	0	32776	32775	
1809	0	32796	32716	
1810	0	32838	32724	
1811	0	32768	32702	
1812	0	32756	32768	
1813	0	32806	32692	
1814	0	32788	32746	
1815	0	32784	32690	
1816	0	32736	32798	
1817	0	32768	32722	
1818	0	32830	32752	
1819	0	32792	32716	
1820	0	32808	32772	
1821	0	32866	32874	
1822	0	32808	32692	
1823	0	32816	32840	
1824	0	32796	32736	
1825	0	32820	32808	
1826	0	32778	32690	
1827	0	32780	32792	
1828	0	32746	32772	
1829	0	32856	32798	
1830	0	32848	32732	
1831	0	32836	32743	
1832	0	32768	32700	
1833	0	32824	32766	
1834	0	32796	32692	
1835	0	32824	32760	
1836	0	32792	32686	
1837	0	32784	32814	
1838	0	32880	32712	
1839	0	32846	32760	
1840	0	32746	32710	
1841	0	32768	32818	
1842	0	32780	32838	
1843	0	32842	32716	
1844	0	32770	32834	
1845	0	32856	32808	
1846	0	32796	32785	
1847	0	32824	32792	
1848	0	32820	32880	
1849	0	32768	32876	
1850	0	32804	32760	
1851	0	32828	32764	
1852	0	32792	32790	
1853	0	32800	32706	
1854	0	32792	32828	
1855	0	32772	32724	
1856	0	32752	32807	
1857	0	32796	32700	
1858	0	32836	32828	
1859	0	32784	32764	
1860	0	32880	32800	
1861	0	32846	32775	
1862	0	32812	32775	
1863	0	32846	32808	
1864	0	32818	32826	
1865	0	32846	32834	
1866	0	32816	32860	
1867	0	32804	32806	
1868	0	32788	32744	
1869	0	32848	32708	
1870	0	32840	32728	
1871	0	32808	32786	
1872	0	32822	32676	
1873	0	32828	32756	
1874	0	32804	32654	
1875	0	32788	32775	
1876	0	32844	32676	
1877	0	32828	32760	
1878	0	32824	32750	
1879	0	32816	32881	
1880	0	32832	32743	
1881	0	32818	32761	
1882	0	32776	32750	
1883	0	32858	32822	
1884	0	32850	32800	
1885	0	32808	32800	
1886	0	32810	32824	
1887	0	32824	32744	
1888	0	32824	32736	
1889	0	32794	32629	
1890	0	32792	32775	
1891	0	32760	32668	
1892	0	32744	32712	
1893	0	32792	32712	
1894	0	32804	32782	
1895	0	32808	32704	
1896	0	32874	32752	
1897	0	32790	32718	
1898	0	32820	32784	
1899	0	32828	32696	
1900	0	32824	32804	
1901	0	32822	32692	
1902	0	32854	32741	
1903	0	32828	32824	
1904	0	32796	32766	
1905	0	32804	32744	
1906	0	32836	32738	
1907	0	32826	32760	
1908	0	32840	32700	
1909	0	32814	32750	
1910	0	32823	32716	
1911	0	32888	32818	
1912	0	32788	32672	
1913	0	32844	32775	
1914	0	32808	32698	
1915	0	32760	32764	
1916	0	32746	32762	
1917	0	32784	32775	
1918	0	32776	32708	
1919	0	32822	32774	
1920	0	32784	32869	
1921	0	32864	32846	
1922	0	32856	32746	
1923	0	32808	32806	
1924	0	32784	32784	
1925	0	32796	32664	
1926	0	32844	32852	
1927	0	32740	32792	
1928	0	32788	32794	
1929	0	32808	32748	
1930	0	32808	32734	
1931	0	32776	32836	
1932	0	32820	32714	
1933	0	32830	32816	
1934	0	32808	32678	
1935	0	32776	32804	
1936	0	32834	32682	
1937	0	32888	32775	
1938	0	32862	32895	
1939	0	32812	32790	
1940	0	32816	32772	
1941	0	32794	32822	
1942	0	32952	32792	
1943	0	32884	32836	
1944	0	32924	32818	
1945	0	32834	32734	
1946	0	32820	32801	
1947	0	32796	32750	
1948	0	32764	32726	
1949	0	32894	32644	
1950	0	32772	32766	
1951	0	32748	32714	
1952	0	32832	32832	
1953	0	32804	32772	
1954	0	32792	32718	
1955	0	32768	32858	
1956	0	32796	32656	
1957	0	32852	32816	
1958	0	32852	32772	
1959	0	32888	32732	
1960	0	32842	32728	
1961	0	32840	32775	
1962	0	32780	32664	
1963	0	32734	32728	
1964	0	32774	32726	
1965	0	32810	32838	
1966	0	32792	32788	
1967	0	32804	32838	
1968	0	32860	32812	
1969	0	32840	32796	
1970	0	32808	32816	
1971	0	32824	32772	
1972	0	32836	32680	
1973	0	32756	32743	
1974	0	32746	32662	
1975	0	32812	32775	
1976	0	32840	32828	
1977	0	32756	32762	
1978	0	32892	32754	
1979	0	32800	32686	
1980	0	32786	32844	
1981	0	32790	32868	
1982	0	32772	32798	
1983	0	32792	32806	
1984	0	32788	32768	
1985	0	32764	32692	
1986	0	32744	32660	
1987	0	32796	32760	
1988	0	32800	32746	
1989	0	32784	32790	
1990	0	32829	32775	
1991	0	32816	32682	
1992	0	32824	32823	
1993	0	32820	32744	
1994	0	32820	32852	
1995	0	32824	32804	
1996	0	32714	32744	
1997	0	32880	32792	
1998	0	32840	32764	
1999	0	32860	32820	
2000	0	32828	32748	
2001	0	32800	32748	
2002	0	32808	32742	
2003	0	32828	32704	
2004	0	32852	32768	
2005	0	32784	32798	
2006	0	32756	32696	
2007	0	32814	32775	
2008	0	32820	32850	
2009	0	32818	32775	
2010	0	32820	32840	
2011	0	32804	32752	
2012	0	32796	32806	
2013	0	32762	32692	
2014	0	32788	32762	
2015	0	32836	32767	
2016	0	32778	32806	
2017	0	32856	32810	
2018	0	32792	32740	
2019	0	32788	32896	
2020	0	32738	32644	
2021	0	32810	32780	
2022	0	32840	32720	
2023	0	32768	32850	
2024	0	32814	32764	
2025	0	32830	32882	
2026	0	32804	32768	
2027	0	32826	32730	
2028	0	32738	32828	
2029	0	32768	32700	
2030	0	32814	32788	
2031	0	32770	32658	
2032	0	32820	32740	
2033	0	32768	32712	
2034	0	32800	32823	
2035	0	32814	32782	
2036	0	32834	32764	
2037	0	32790	32794	
2038	0	32844	32732	
2039	0	32780	32791	
2040	0	32844	32756	
2041	0	32777	32868	
2042	0	32800	32734	
2043	0	32844	32726	
2044	0	32788	32814	
2045	0	32824	32840	
2046	0	32860	32788	
2047	0	32776	32753	
2048	0	32872	32812	
2049	0	32882	32700	
2050	0	32784	32790	
2051	0	32790	32844	
2052	0	32766	32720	
2053	0	32810	32766	
2054	0	32874	32646	
2055	0	32786	32870	
2056	0	32852	32692	
2057	0	32788	32798	
2058	0	32836	32816	
2059	0	32828	32786	
2060	0	32778	32775	
2061	0	32854	32711	
2062	0	32816	32828	
2063	0	32812	32862	
2064	0	32844	32726	
2065	0	32792	32868	
2066	0	32828	32694	
2067	0	32848	32775	
2068	0	32840	32774	
2069	0	32780	32812	
2070	0	32764	32870	
2071	0	32780	32806	
2072	0	32796	32740	
2073	0	32868	32858	
2074	0	32802	32756	
2075	0	32796	32798	
2076	0	32744	32775	
2077	0	32788	32748	
2078	0	32824	32772	
2079	0	32942	32726	
2080	0	32852	32750	
2081	0	32828	32660	
2082	0	32832	32836	
2083	0	32824	32704	
2084	0	32840	32775	
2085	0	32876	32668	
2086	0	32800	32816	
2087	0	32772	32738	
2088	0	32816	32770	
2089	0	32762	32762	
2090	0	32808	32814	
2091	0	32800	32766	
2092	0	32822	32730	
2093	0	32884	32854	
2094	0	32838	32682	
2095	0	32780	32858	
2096	0	32796	32708	
2097	0	32804	32804	
2098	0	32788	32876	
2099	0	32840	32896	
2100	0	32808	32736	
2101	0	32780	32868	
2102	0	32856	32820	
2103	0	32810	32676	
2104	0	32804	32754	
2105	0	32692	32680	
2106	0	32768	32808	
2107	0	32808	32850	
2108	0	32724	32772	
2109	0	32900	32728	
2110	0	32808	32720	
2111	0	32772	32759	
2112	0	32828	32820	
2113	0	32780	32823	
2114	0	32848	32864	
2115	0	32810	32798	
2116	0	32812	32816	
2117	0	32792	32724	
2118	0	32770	32750	
2119	0	32830	32668	
2120	0	32848	32748	
2121	0	32788	32710	
2122	0	32824	32840	
2123	0	32836	32864	
2124	0	32856	32720	
2125	0	32804	32816	
2126	0	32824	32640	
2127	0	32852	32848	
2128	0	32836	32903	
2129	0	32816	32764	
2130	0	32796	32746	
2131	0	32793	32758	
2132	0	32784	32810	
2133	0	32810	32696	
2134	0	32846	32822	
2135	0	32794	32702	
2136	0	32874	32838	
2137	0	32808	32720	
2138	0	32844	32742	
2139	0	32756	32838	
2140	0	32776	32756	
2141	0	32802	32786	
2142	0	32794	32802	
2143	0	32828	32818	
2144	0	32814	32774	
2145	0	32828	32822	
2146	0	32848	32794	
2147	0	32820	32892	
2148	0	32804	32753	
2149	0	32800	32832	
2150	0	32772	32786	
2151	0	32760	32842	
2152	0	32786	32758	
2153	0	32768	32796	
2154	0	32852	32702	
2155	0	32852	32752	
2156	0	32852	32702	
2157	0	32852	32748	
2158	0	32826	32722	
2159	0	32788	32892	
2160	0	32741	32775	
2161	0	32808	32708	
2162	0	32860	32790	
2163	0	32860	32768	
2164	0	32802	32724	
2165	0	32852	32664	
2166	0	32842	32798	
2167	0	32862	32728	
2168	0	32902	32794	
2169	0	32792	32740	
2170	0	32772	32772	
2171	0	32778	32782	
2172	0	32788	32750	
2173	0	32788	32836	
2174	0	32788	32724	
2175	0	32748	32798	
2176	0	32832	32802	
2177	0	32856	32775	
2178	0	32766	32684	
2179	0	32812	32786	
2180	0	32844	32756	
2181	0	32804	32768	
2182	0	32808	32714	
2183	0	32788	32796	
2184	0	32836	32654	
2185	0	32720	32808	
2186	0	32754	32712	
2187	0	32820	32760	
2188	0	32792	32668	
2189	0	32820	32774	
2190	0	32804	32698	
2191	0	32800	32766	
2192	0	32816	32814	
2193	0	32816	32782	
2194	0	32808	32643	
2195	0	32816	32792	
2196	0	32828	32748	
2197	0	32836	32844	
2198	0	32776	32748	
2199	0	32800	32676	
2200	0	32884	32832	
2201	0	32772	32684	
2202	0	32906	32842	
2203	0	32872	32766	
2204	0	32808	32775	
2205	0	32744	32656	
2206	0	32740	32774	
2207	0	32716	32798	
2208	0	32828	32854	
2209	0	32890	32818	
2210	0	32744	32772	
2211	0	32868	32766	
2212	0	32812	32673	
2213	0	32732	32826	
2214	0	32868	32766	
2215	0	32802	32806	
2216	0	32760	32764	
2217	0	32864	32842	
2218	0	32772	32760	
2219	0	32808	32746	
2220	0	32810	32756	
2221	0	32788	32775	
2222	0	32824	32748	
2223	0	32832	32840	
2224	0	32792	32810	
2225	0	32804	32738	
2226	0	32864	32708	
2227	0	32832	32794	
2228	0	32848	32820	
2229	0	32840	32775	
2230	0	32840	32802	
2231	0	32872	32775	
2232	0	32790	32796	
2233	0	32760	32810	
2234	0	32784	32796	
2235	0	32800	32712	
2236	0	32812	32741	
2237	0	32846	32770	
2238	0	32820	32648	
2239	0	32792	32730	
2240	0	32760	32721	
2241	0	32842	32738	
2242	0	32816	32732	
2243	0	32828	32830	
2244	0	32744	32870	
2245	0	32772	32802	
2246	0	32828	32798	
2247	0	32752	32704	
2248	0	32775	32734	
2249	0	32772	32654	
2250	0	32836	32844	
2251	0	32804	32820	
2252	0	32776	32862	
2253	0	32828	32730	
2254	0	32836	32892	
2255	0	32786	32804	
2256	0	32772	32758	
2257	0	32854	32772	
2258	0	32820	32680	
2259	0	32876	32772	
2260	0	32810	32647	
2261	0	32852	32840	
2262	0	32832	32810	
2263	0	32760	32838	
2264	0	32774	32846	
2265	0	32796	32768	
2266	0	32760	32846	
2267	0	32820	32724	
2268	0	32772	32730	
2269	0	32776	32766	
2270	0	32828	32696	
2271	0	32804	32772	
2272	0	32808	32647	
2273	0	32856	32774	
2274	0	32724	32758	
2275	0	32824	32676	
2276	0	32772	32824	
2277	0	32780	32788	
2278	0	32826	32716	
2279	0	32762	32810	
2280	0	32836	32666	
2281	0	32816	32772	
2282	0	32820	32720	
2283	0	32814	32831	
2284	0	32812	32822	
2285	0	32876	32668	
2286	0	32776	32775	
2287	0	32858	32775	
2288	0	32800	32772	
2289	0	32794	32830	
2290	0	32844	32775	
2291	0	32816	32694	
2292	0	32780	32732	
2293	0	32824	32822	
2294	0	32784	32674	
2295	0	32812	32798	
2296	0	32852	32708	
2297	0	32876	32768	
2298	0	32812	32740	
2299	0	32824	32832	
2300	0	32800	32852	
2301	0	32860	32708	
2302	0	32864	32768	
2303	0	32844	32668	
2304	0	32772	32735	
2305	0	32828	32772	
2306	0	32808	32762	
2307	0	32724	32704	
2308	0	32812	32708	
2309	0	32796	32774	
2310	0	32790	32746	
2311	0	32864	32704	
2312	0	32768	32826	
2313	0	32798	32814	
2314	0	32800	32831	
2315	0	32852	32826	
2316	0	32792	32732	
2317	0	32826	32808	
2318	0	32886	32684	
2319	0	32798	32796	
2320	0	32792	32712	
2321	0	32770	32764	
2322	0	32828	32774	
2323	0	32816	32820	
2324	0	32864	32798	
2325	0	32736	32784	
2326	0	32802	32696	
2327	0	32830	32736	
2328	0	32788	32700	
2329	0	32816	32860	
2330	0	32824	32752	
2331	0	32872	32772	
2332	0	32840	32756	
2333	0	32756	32772	
2334	0	32842	32732	
2335	0	32814	32820	
2336	0	32802	32794	
2337	0	32808	32871	
2338	0	32788	32702	
2339	0	32840	32804	
2340	0	32852	32704	
2341	0	32816	32788	
2342	0	32844	32775	
2343	0	32812	32810	
2344	0	32754	32720	
2345	0	32808	32664	
2346	0	32776	32718	
2347	0	32814	32646	
2348	0	32824	32775	
2349	0	32806	32706	
2350	0	32798	32775	
2351	0	32788	32798	
2352	0	32798	32826	
2353	0	32764	32752	
2354	0	32790	32702	
2355	0	32786	32816	
2356	0	32786	32736	
2357	0	32760	32838	
2358	0	32826	32694	
2359	0	32832	32788	
2360	0	32794	32772	
2361	0	32840	32884	
2362	0	32900	32828	
2363	0	32808	32734	
2364	0	32762	32684	
2365	0	32792	32714	
2366	0	32816	32662	
2367	0	32712	32834	
2368	0	32820	32684	
2369	0	32808	32798	
2370	0	32832	32640	
2371	0	32796	32756	
2372	0	32868	32652	
2373	0	32897	32790	
2374	0	32804	32743	
2375	0	32864	32830	
2376	0	32800	32752	
2377	0	32820	32852	
2378	0	32808	32788	
2379	0	32866	32808	
2380	0	32778	32672	
2381	0	32800	32775	
2382	0	32840	32664	
2383	0	32839	32744	
2384	0	32888	32740	
2385	0	32820	32770	
2386	0	32788	32736	
2387	0	32782	32782	
2388	0	32814	32658	
2389	0	32860	32784	
2390	0	32812	32696	
2391	0	32744	32743	
2392	0	32808	32752	
2393	0	32818	32908	
2394	0	32872	32820	
2395	0	32856	32820	
2396	0	32804	32876	
2397	0	32800	32750	
2398	0	32844	32826	
2399	0	32760	32752	
2400	0	32776	32760	
2401	0	32788	32722	
2402	0	32836	32824	
2403	0	32824	32774	
2404	0	32808	32788	
2405	0	32784	32810	
2406	0	32800	32793	
2407	0	32734	32710	
2408	0	32852	32796	
2409	0	32798	32686	
2410	0	32836	32824	
2411	0	32784	32754	
2412	0	32728	32758	
2413	0	32840	32650	
2414	0	32826	32761	
2415	0	32826	32860	
2416	0	32826	32842	
2417	0	32862	32792	
2418	0	32812	32801	
2419	0	32804	32761	
2420	0	32854	32775	
2421	0	32812	32812	
2422	0	32844	32796	
2423	0	32816	32708	
2424	0	32856	32842	
2425	0	32828	32826	
2426	0	32780	32832	
2427	0	32848	32812	
2428	0	32852	32684	
2429	0	32806	32871	
2430	0	32804	32828	
2431	0	32872	32838	
2432	0	32800	32864	
2433	0	32740	32790	
2434	0	32772	32736	
2435	0	32846	32726	
2436	0	32830	32786	
2437	0	32816	32838	
2438	0	32776	32788	
2439	0	32736	32700	
2440	0	32832	32820	
2441	0	32832	32754	
2442	0	32848	32860	
2443	0	32810	32775	
2444	0	32836	32790	
2445	0	32824	32836	
2446	0	32842	32748	
2447	0	32814	32756	
2448	0	32782	32750	
2449	0	32788	32808	
2450	0	32792	32692	
2451	0	32774	32824	
2452	0	32848	32775	
2453	0	32772	32720	
2454	0	32744	32766	
2455	0	32808	32732	
2456	0	32852	32775	
2457	0	32852	32692	
2458	0	32844	32808	
2459	0	32832	32792	
2460	0	32728	32790	
2461	0	32814	32680	
2462	0	32748	32724	
2463	0	32788	32672	
2464	0	32828	32768	
2465	0	32824	32714	
2466	0	32830	32804	
2467	0	32752	32798	
2468	0	32840	32764	
2469	0	32724	32822	
2470	0	32830	32775	
2471	0	32796	32810	
2472	0	32866	32832	
2473	0	32804	32772	
2474	0	32820	32676	
2475	0	32808	32770	
2476	0	32836	32678	
2477	0	32852	32782	
2478	0	32844	32775	
2479	0	32828	32832	
2480	0	32764	32804	
2481	0	32842	32836	
2482	0	32852	32768	
2483	0	32830	32772	
2484	0	32864	32814	
2485	0	32824	32866	
2486	0	32784	32856	
2487	0	32768	32846	
2488	0	32788	32826	
2489	0	32768	32808	
2490	0	32740	32766	
2491	0	32800	32798	
2492	0	32792	32775	
2493	0	32812	32839	
2494	0	32810	32812	
2495	0	32828	32764	
2496	0	32804	32808	
2497	0	32836	32775	
2498	0	32736	32796	
2499	0	32878	32724	
2500	0	32848	32756	
2501	0	32792	32744	
2502	0	32760	32802	
2503	0	32832	32728	
2504	0	32760	32826	
2505	0	32874	32814	
2506	0	32868	32846	
2507	0	32812	32812	
2508	0	32812	32764	
2509	0	32754	32687	
2510	0	32722	32746	
2511	0	32740	32756	
2512	0	32769	32848	
2513	0	32740	32708	
2514	0	32688	32860	
2515	0	32684	32690	
2516	0	32708	32815	
2517	0	32700	32752	
2518	0	32744	32836	
2519	0	32740	32770	
2520	0	32788	32839	
2521	0	32716	32882	
2522	0	32720	32836	
2523	0	32686	32818	
2524	0	32656	32844	
2525	0	32776	32904	
2526	0	32692	32756	
2527	0	32678	32854	
2528	0	32652	32775	
2529	0	32744	32866	
2530	0	32798	32700	
2531	0	32776	32753	
2532	0	32772	32678	
2533	0	32792	32758	
2534	0	32836	32743	
2535	0	32842	32726	
2536	0	32930	32682	
2537	0	33022	32775	
2538	0	33128	32680	
2539	0	33128	32615	
2540	0	33184	32612	
2541	0	33248	32478	
2542	0	33284	32582	
2543	0	33400	32470	
2544	0	33360	32514	
2545	0	33432	32484	
2546	0	33420	32652	
2547	0	33308	32600	
2548	0	33188	32775	
2549	0	33072	32740	
2550	0	32852	32886	
2551	0	32810	32788	
2552	0	32564	32956	
2553	0	32520	32874	
2554	0	32432	32996	
2555	0	32292	32826	
2556	0	32418	32950	
2557	0	32374	32834	
2558	0	32510	32868	
2559	0	32484	32814	
2560	0	32496	32906	
2561	0	32512	32782	
2562	0	32660	32891	
2563	0	32716	32832	
2564	0	32734	32740	
2565	0	32720	32854	
2566	0	32724	32728	
2567	0	32756	32775	
2568	0	32802	32796	
2569	0	32786	32790	
2570	0	32776	32678	
2571	0	32716	32856	
2572	0	32856	32792	
2573	0	32820	32744	
2574	0	32816	32826	
2575	0	32770	32679	
2576	0	32808	32712	
2577	0	32854	32720	
2578	0	32832	32775	
2579	0	32792	32724	
2580	0	32806	32775	
2581	0	32820	32759	
2582	0	32832	32828	
2583	0	32788	32764	
2584	0	32752	32792	
2585	0	32828	32864	
2586	0	32804	32830	
2587	0	32860	32725	
2588	0	32912	32696	
2589	0	32808	32732	
2590	0	32840	32716	
2591	0	32818	32808	
2592	0	32832	32775	
2593	0	32844	32758	
2594	0	32865	32732	
2595	0	32802	32700	
2596	0	32816	32816	
2597	0	32828	32710	
2598	0	32834	32769	
2599	0	32834	32704	
2600	0	32784	32802	
2601	0	32800	32764	
2602	0	32848	32756	
2603	0	32832	32808	
2604	0	32804	32766	
2605	0	32844	32804	
2606	0	32830	32736	
2607	0	32804	32682	
2608	0	32784	32710	
2609	0	32802	32800	
2610	0	32828	32716	
2611	0	32820	32760	
2612	0	32810	32724	
2613	0	32794	32788	
2614	0	32856	32689	
2615	0	32768	32810	
2616	0	32856	32724	
2617	0	32880	32846	
2618	0	32808	32844	
2619	0	32836	32892	
2620	0	32836	32736	
2621	0	32868	32807	
2622	0	32780	32918	
2623	0	32804	32818	
2624	0	32792	32720	
2625	0	32788	32769	
2626	0	32844	32764	
2627	0	32888	32839	
2628	0	32874	32832	
2629	0	32782	32814	
2630	0	32828	32775	
2631	0	32838	32884	
2632	0	32858	32870	
2633	0	32876	32714	
2634	0	32784	32740	
2635	0	32824	32647	
2636	0	32775	32826	
2637	0	32790	32716	
2638	0	32752	32730	
2639	0	32834	32704	
2640	0	32826	32816	
2641	0	32840	32836	
2642	0	32856	32788	
2643	0	32850	32775	
2644	0	32832	32582	
2645	0	32840	32834	
2646	0	32775	32674	
2647	0	32832	32750	
2648	0	32728	32762	
2649	0	32804	32830	
2650	0	32844	32754	
2651	0	32852	32812	
2652	0	32858	32831	
2653	0	32824	32764	
2654	0	32832	32786	
2655	0	32778	32772	
2656	0	32744	32828	
2657	0	32808	32772	
2658	0	32872	32775	
2659	0	32812	32699	
2660	0	32796	32706	
2661	0	32808	32658	
2662	0	32832	32792	
2663	0	32792	32775	
2664	0	32778	32784	
2665	0	32842	32726	
2666	0	32780	32796	
2667	0	32820	32874	
2668	0	32764	32710	
2669	0	32808	32756	
2670	0	32842	32694	
2671	0	32834	32752	
2672	0	32768	32754	
2673	0	32798	32900	
2674	0	32784	32718	
2675	0	32740	32752	
2676	0	32816	32846	
2677	0	32856	32734	
2678	0	32788	32716	
2679	0	32848	32688	
2680	0	32852	32784	
2681	0	32878	32738	
2682	0	32812	32756	
2683	0	32860	32704	
2684	0	32866	32816	
2685	0	32796	32754	
2686	0	32834	32784	
2687	0	32752	32680	
2688	0	32768	32748	
2689	0	32800	32684	
2690	0	32826	32804	
2691	0	32818	32806	
2692	0	32780	32666	
2693	0	32716	32830	
2694	0	32780	32674	
2695	0	32852	32754	
2696	0	32828	32736	
2697	0	32772	32772	
2698	0	32740	32742	
2699	0	32806	32728	
2700	0	32832	32740	
2701	0	32808	32852	
2702	0	32772	32836	
2703	0	32760	32768	
2704	0	32842	32836	
2705	0	32816	32740	
2706	0	32852	32802	
2707	0	32782	32702	
2708	0	32852	32732	
2709	0	32848	32730	
2710	0	32788	32828	
2711	0	32740	32750	
2712	0	32840	32736	
2713	0	32800	32784	
2714	0	32834	32836	
2715	0	32810	32770	
2716	0	32836	32752	
2717	0	32778	32743	
2718	0	32854	32764	
2719	0	32832	32700	
2720	0	32826	32838	
2721	0	32832	32794	
2722	0	32772	32750	
2723	0	32808	32802	
2724	0	32780	32654	
2725	0	32756	32766	
2726	0	32940	32758	
2727	0	32904	32825	
2728	0	32800	32744	
2729	0	32808	32792	
2730	0	32814	32687	
2731	0	32784	32820	
2732	0	32760	32660	
2733	0	32756	32788	
2734	0	32818	32676	
2735	0	32828	32816	
2736	0	32788	32640	
2737	0	32816	32814	
2738	0	32744	32704	
2739	0	32808	32792	
2740	0	32828	32708	
2741	0	32840	32854	
2742	0	32824	32742	
2743	0	32812	32786	
2744	0	32766	32718	
2745	0	32832	32800	
2746	0	32872	32734	
2747	0	32812	32828	
2748	0	32816	32775	
2749	0	32824	32734	
2750	0	32836	32768	
2751	0	32772	32708	
2752	0	32808	32812	
2753	0	32748	32702	
2754	0	32840	32663	
2755	0	32872	32664	
2756	0	32778	32752	
2757	0	32796	32721	
2758	0	32860	32728	
2759	0	32814	32685	
2760	0	32856	32760	
2761	0	32864	32644	
2762	0	32764	32764	
2763	0	32852	32772	
2764	0	32780	32792	
2765	0	32824	32676	
2766	0	32840	32752	
2767	0	32848	32712	
2768	0	32832	32828	
2769	0	32800	32728	
2770	0	32844	32850	
2771	0	32824	32775	
2772	0	32800	32743	
2773	0	32816	32760	
2774	0	32822	32673	
2775	0	32808	32736	
2776	0	32852	32696	
2777	0	32880	32718	
2778	0	32854	32696	
2779	0	32844	32775	
2780	0	32804	32670	
2781	0	32804	32788	
2782	0	32798	32688	
2783	0	32834	32754	
2784	0	32826	32680	
2785	0	32828	32860	
2786	0	32854	32756	
2787	0	32784	32775	
2788	0	32828	32718	
2789	0	32862	32736	
2790	0	32780	32671	
2791	0	32804	32852	
2792	0	32798	32688	
2793	0	32816	32810	
2794	0	32826	32704	
2795	0	32824	32756	
2796	0	32778	32626	
2797	0	32790	32804	
2798	0	32794	32678	
2799	0	32786	32820	
2800	0	32804	32784	
2801	0	32888	32826	
2802	0	32816	32772	
2803	0	32760	32708	
2804	0	32804	32742	
2805	0	32804	32654	
2806	0	32780	32796	
2807	0	32784	32868	
2808	0	32812	32710	
2809	0	32716	32782	
2810	0	32776	32772	
2811	0	32858	32792	
2812	0	32796	32700	
2813	0	32798	32846	
2814	0	32794	32858	
2815	0	32832	32840	
2816	0	32744	32800	
2817	0	32812	32682	
2818	0	32842	32794	
2819	0	32836	32743	
2820	0	32792	32818	
2821	0	32812	32688	
2822	0	32788	32750	
2823	0	32780	32704	
2824	0	32816	32838	
2825	0	32784	32838	
2826	0	32864	32662	
2827	0	32852	32726	
2828	0	32856	32680	
2829	0	32778	32808	
2830	0	32772	32692	
2831	0	32760	32764	
2832	0	32820	32810	
2833	0	32760	32764	
2834	0	32758	32786	
2835	0	32808	32764	
2836	0	32776	32858	
2837	0	32782	32692	
2838	0	32850	32834	
2839	0	32864	32698	
2840	0	32830	32864	
2841	0	32860	32684	
2842	0	32846	32828	
2843	0	32820	32664	
2844	0	32802	32780	
2845	0	32824	32696	
2846	0	32778	32728	
2847	0	32792	32775	
2848	0	32720	32790	
2849	0	32838	32832	
2850	0	32736	32802	
2851	0	32880	32840	
2852	0	32864	32820	
2853	0	32748	32816	
2854	0	32816	32735	
2855	0	32804	32860	
2856	0	32772	32704	
2857	0	32778	32740	
2858	0	32864	32756	
2859	0	32840	32836	
2860	0	32854	32727	
2861	0	32838	32824	
2862	0	32860	32836	
2863	0	32842	32826	
2864	0	32832	32784	
2865	0	32812	32618	
2866	0	32750	32682	
2867	0	32746	32704	
2868	0	32838	32728	
2869	0	32792	32816	
2870	0	32732	32652	
2871	0	32812	32708	
2872	0	32828	32748	
2873	0	32812	32729	
2874	0	32816	32684	
2875	0	32784	32756	
2876	0	32840	32736	
2877	0	32844	32774	
2878	0	32780	32758	
2879	0	32780	32806	
2880	0	32828	32822	
2881	0	32784	32834	
2882	0	32820	32818	
2883	0	32820	32800	
2884	0	32798	32834	
2885	0	32824	32764	
2886	0	32794	32784	
2887	0	32790	32654	
2888	0	32832	32768	
2889	0	32812	32680	
2890	0	32872	32897	
2891	0	32822	32728	
2892	0	32770	32704	
2893	0	32756	32724	
2894	0	32768	32702	
2895	0	32808	32818	
2896	0	32840	32738	
2897	0	32848	32836	
2898	0	32844	32860	
2899	0	32792	32800	
2900	0	32856	32724	
2901	0	32831	32806	
2902	0	32788	32656	
2903	0	32884	32791	
2904	0	32796	32775	
2905	0	32823	32768	
2906	0	32836	32658	
2907	0	32778	32732	
2908	0	32796	32746	
2909	0	32812	32775	
2910	0	32812	32896	
2911	0	32780	32816	
2912	0	32796	32863	
2913	0	32782	32836	
2914	0	32860	32839	
2915	0	32750	32736	
2916	0	32780	32868	
2917	0	32832	32792	
2918	0	32812	32895	
2919	0	32834	32807	
2920	0	32812	32898	
2921	0	32870	32794	
2922	0	32848	32800	
2923	0	32830	32815	
2924	0	32798	32801	
2925	0	32816	32676	
2926	0	32844	32788	
2927	0	32746	32660	
2928	0	32768	32802	
2929	0	32828	32698	
2930	0	32804	32810	
2931	0	32796	32694	
2932	0	32764	32758	
2933	0	32776	32708	
2934	0	32818	32834	
2935	0	32792	32740	
2936	0	32772	32764	
2937	0	32864	32711	
2938	0	32812	32828	
2939	0	32772	32816	
2940	0	32786	32800	
2941	0	32856	32660	
2942	0	32808	32774	
2943	0	32768	32730	
2944	0	32744	32866	
2945	0	32752	32726	
2946	0	32780	32828	
2947	0	32862	32768	
2948	0	32768	32810	
2949	0	32845	32700	
2950	0	32780	32800	
2951	0	32754	32768	
2952	0	32834	32836	
2953	0	32768	32716	
2954	0	32700	32830	
2955	0	32848	32892	
2956	0	32852	32786	
2957	0	32848	32821	
2958	0	32860	32734	
2959	0	32832	32846	
2960	0	32824	32676	
2961	0	32796	32796	
2962	0	32856	32666	
2963	0	32780	32836	
2964	0	32760	32724	
2965	0	32856	32772	
2966	0	32916	32764	
2967	0	32860	32775	
2968	0	32824	32764	
2969	0	32880	32720	
2970	0	32770	32762	
2971	0	32824	32660	
2972	0	32820	32736	
2973	0	32832	32760	
2974	0	32864	32790	
2975	0	32772	32750	
2976	0	32832	32916	
2977	0	32740	32775	
2978	0	32924	32828	
2979	0	32790	32794	
2980	0	32824	32775	
2981	0	32810	32752	
2982	0	32800	32813	
2983	0	32768	32774	
2984	0	32842	32700	
2985	0	32800	32784	
2986	0	32792	32692	
2987	0	32800	32770	
2988	0	32820	32676	
2989	0	32840	32836	
2990	0	32772	32640	
2991	0	32848	32758	
2992	0	32808	32702	
2993	0	32820	32718	
2994	0	32800	32670	
2995	0	32828	32672	
2996	0	32810	32670	
2997	0	32730	32788	
2998	0	32812	32802	
2999	0	32792	32676	
3000	0	32838	32764	
3001	0	32784	32716	
3002	0	32796	32724	
3003	0	32784	32710	
3004	0	32804	32788	
3005	0	32854	32694	
3006	0	32758	32724	
3007	0	32776	32798	
3008	0	32768	32766	
3009	0	32808	32768	
3010	0	32864	32798	
3011	0	32802	32728	
3012	0	32784	32748	
3013	0	32816	32756	
3014	0	32800	32762	
3015	0	32830	32799	
3016	0	32848	32828	
3017	0	32836	32846	
3018	0	32844	32838	
3019	0	32764	32768	
3020	0	32792	32890	
3021	0	32868	32756	
3022	0	32800	32784	
3023	0	32844	32711	
3024	0	32868	32812	
3025	0	32790	32736	
3026	0	32856	32836	
3027	0	32768	32860	
3028	0	32800	32922	
3029	0	32782	32772	
3030	0	32842	32786	
3031	0	32778	32678	
3032	0	32828	32698	
3033	0	32770	32764	
3034	0	32752	32808	
3035	0	32760	32740	
3036	0	32828	32752	
3037	0	32808	32775	
3038	0	32830	32856	
3039	0	32832	32784	
3040	0	32828	32800	
3041	0	32804	32788	
3042	0	32840	32852	
3043	0	32864	32696	
3044	0	32820	32824	
3045	0	32816	32674	
3046	0	32836	32820	
3047	0	32808	32816	
3048	0	32808	32720	
3049	0	32788	32801	
3050	0	32808	32748	
3051	0	32852	32796	
3052	0	32828	32638	
3053	0	32724	32774	
3054	0	32764	32690	
3055	0	32834	32888	
3056	0	32772	32852	
3057	0	32828	32788	
3058	0	32774	32788	
3059	0	32772	32692	
3060	0	32800	32734	
3061	0	32780	32692	
3062	0	32844	32720	
3063	0	32852	32702	
3064	0	32800	32775	
3065	0	32848	32788	
3066	0	32898	32784	
3067	0	32780	32832	
3068	0	32836	32676	
3069	0	32758	32712	
3070	0	32860	32740	
3071	0	32804	32764	
3072	0	32822	32708	
3073	0	32832	32870	
3074	0	32804	32786	
3075	0	32798	32727	
3076	0	32824	32792	
3077	0	32824	32775	
3078	0	32808	32860	
3079	0	32826	32640	
3080	0	32724	32759	
3081	0	32820	32662	
3082	0	32840	32732	
3083	0	32816	32718	
3084	0	32748	32788	
3085	0	32796	32736	
3086	0	32812	32804	
3087	0	32824	32782	
3088	0	32754	32752	
3089	0	32832	32756	
3090	0	32840	32740	
3091	0	32812	32678	
3092	0	32784	32842	
3093	0	32760	32647	
3094	0	32864	32800	
3095	0	32768	32692	
3096	0	32840	32830	
3097	0	32840	32718	
3098	0	32794	32770	
3099	0	32744	32774	
3100	0	32840	32756	
3101	0	32816	32820	
3102	0	32772	32756	
3103	0	32864	32828	
3104	0	32840	32690	
3105	0	32834	32832	
3106	0	32804	32672	
3107	0	32808	32732	
3108	0	32808	32742	
3109	0	32798	32772	
3110	0	32836	32716	
3111	0	32838	32748	
3112	0	32788	32742	
3113	0	32808	32706	
3114	0	32728	32636	
3115	0	32848	32754	
3116	0	32842	32648	
3117	0	32830	32792	
3118	0	32840	32756	
3119	0	32862	32768	
3120	0	32794	32824	
3121	0	32804	32794	
3122	0	32788	32790	
3123	0	32836	32758	
3124	0	32788	32762	
3125	0	32864	32758	
3126	0	32810	32756	
3127	0	32804	32666	
3128	0	32786	32864	
3129	0	32830	32732	
3130	0	32832	32812	
3131	0	32816	32684	
3132	0	32816	32775	
3133	0	32756	32722	
3134	0	32832	32796	
3135	0	32810	32849	
3136	0	32872	32798	
3137	0	32832	32740	
3138	0	32822	32849	
3139	0	32784	32711	
3140	0	32800	32852	
3141	0	32734	32712	
3142	0	32817	32854	
3143	0	32764	32864	
3144	0	32844	32816	
3145	0	32820	32772	
3146	0	32872	32738	
3147	0	32828	32764	
3148	0	32808	32768	
3149	0	32800	32812	
3150	0	32768	32800	
3151	0	32854	32784	
3152	0	32824	32774	
3153	0	32720	32838	
3154	0	32812	32774	
3155	0	32816	32788	
3156	0	32780	32824	
3157	0	32826	32734	
3158	0	32846	32764	
3159	0	32828	32732	
3160	0	32784	32768	
3161	0	32774	32748	
3162	0	32768	32834	
3163	0	32812	32848	
3164	0	32884	32903	
3165	0	32784	32804	
3166	0	32824	32768	
3167	0	32804	32764	
3168	0	32817	32792	
3169	0	32872	32820	
3170	0	32836	32871	
3171	0	32858	32742	
3172	0	32832	32838	
3173	0	32776	32720	
3174	0	32800	32800	
3175	0	32786	32718	
3176	0	32832	32804	
3177	0	32852	32762	
3178	0	32932	32806	
3179	0	32778	32742	
3180	0	32778	32772	
3181	0	32772	32732	
3182	0	32824	32800	
3183	0	32832	32768	
3184	0	32768	32836	
3185	0	32766	32804	
3186	0	32800	32708	
3187	0	32780	32775	
3188	0	32800	32710	
3189	0	32844	32756	
3190	0	32808	32680	
3191	0	32824	32774	
3192	0	32866	32737	
3193	0	32792	32807	
3194	0	32784	32686	
3195	0	32816	32772	
3196	0	32824	32737	
3197	0	32812	32788	
3198	0	32860	32696	
3199	0	32872	32746	
3200	0	32848	32674	
3201	0	32818	32839	
3202	0	32842	32748	
3203	0	32806	32832	
3204	0	32856	32788	
3205	0	32820	32796	
3206	0	32804	32640	
3207	0	32788	32716	
3208	0	32820	32728	
3209	0	32812	32840	
3210	0	32832	32820	
3211	0	32796	32770	
3212	0	32860	32806	
3213	0	32816	32678	
3214	0	32772	32792	
3215	0	32832	32734	
3216	0	32800	32832	
3217	0	32836	32742	
3218	0	32800	32775	
3219	0	32764	32750	
3220	0	32838	32838	
3221	0	32772	32732	
3222	0	32824	32764	
3223	0	32780	32775	
3224	0	32816	32838	
3225	0	32780	32772	
3226	0	32796	32812	
3227	0	32752	32863	
3228	0	32792	32743	
3229	0	32864	32856	
3230	0	32858	32775	
3231	0	32836	32775	
3232	0	32832	32748	
3233	0	32768	32758	
3234	0	32818	32839	
3235	0	32812	32840	
3236	0	32776	32684	
3237	0	32834	32790	
3238	0	32828	32728	
3239	0	32887	32840	
3240	0	32824	32742	
3241	0	32824	32824	
3242	0	32834	32688	
3243	0	32832	32839	
3244	0	32874	32822	
3245	0	32780	32836	
3246	0	32810	32744	
3247	0	32792	32828	
3248	0	32824	32838	
3249	0	32874	32806	
3250	0	32784	32846	
3251	0	32836	32722	
3252	0	32800	32792	
3253	0	32788	32704	
3254	0	32792	32743	
3255	0	32788	32734	
3256	0	32780	32824	
3257	0	32800	32692	
3258	0	32770	32852	
3259	0	32828	32807	
3260	0	32808	32810	
3261	0	32818	32660	
3262	0	32788	32828	
3263	0	32860	32752	
3264	0	32837	32808	
3265	0	32720	32868	
3266	0	32788	32825	
3267	0	32840	32775	
3268	0	32824	32740	
3269	0	32804	32796	
3270	0	32770	32754	
3271	0	32834	32775	
3272	0	32784	32760	
3273	0	32824	32866	
3274	0	32816	32775	
3275	0	32812	32786	
3276	0	32864	32736	
3277	0	32836	32743	
3278	0	32856	32636	
3279	0	32796	32888	
3280	0	32834	32708	
3281	0	32828	32732	
3282	0	32856	32704	
3283	0	32828	32756	
3284	0	32778	32676	
3285	0	32812	32802	
3286	0	32804	32734	
3287	0	32836	32748	
3288	0	32788	32692	
3289	0	32798	32754	
3290	0	32754	32764	
3291	0	32858	32830	
3292	0	32772	32768	
3293	0	32788	32888	
3294	0	32788	32788	
3295	0	32760	32742	
3296	0	32888	32868	
3297	0	32788	32795	
3298	0	32850	32812	
3299	0	32864	32730	
3300	0	32784	32762	
3301	0	32800	32722	
3302	0	32786	32670	
3303	0	32772	32672	
3304	0	32760	32746	
3305	0	32740	32722	
3306	0	32788	32792	
3307	0	32764	32736	
3308	0	32808	32838	
3309	0	32808	32708	
3310	0	32846	32757	
3311	0	32806	32737	
3312	0	32816	32790	
3313	0	32792	32828	
3314	0	32768	32807	
3315	0	32744	32828	
3316	0	32804	32704	
3317	0	32812	32812	
3318	0	32808	32702	
3319	0	32824	32794	
3320	0	32812	32716	
3321	0	32856	32842	
3322	0	32828	32828	
3323	0	32816	32700	
3324	0	32816	32698	
3325	0	32772	32732	
3326	0	32792	32728	
3327	0	32770	32678	
3328	0	32796	32734	
3329	0	32822	32714	
3330	0	32814	32799	
3331	0	32810	32810	
3332	0	32828	32682	
3333	0	32812	32767	
3334	0	32842	32788	
3335	0	32820	32814	
3336	0	32806	32791	
3337	0	32804	32708	
3338	0	32792	32840	
3339	0	32788	32732	
3340	0	32800	32772	
3341	0	32748	32742	
3342	0	32756	32726	
3343	0	32808	32736	
3344	0	32808	32704	
3345	0	32840	32764	
3346	0	32824	32788	
3347	0	32858	32796	
3348	0	32760	32816	
3349	0	32764	32784	
3350	0	32798	32642	
3351	0	32812	32849	
3352	0	32800	32760	
3353	0	32810	32680	
3354	0	32784	32838	
3355	0	32824	32768	
3356	0	32810	32730	
3357	0	32812	32852	
3358	0	32772	32804	
3359	0	32821	32812	
3360	0	32792	32872	
3361	0	32880	32730	
3362	0	32752	32775	
3363	0	32788	32684	
3364	0	32761	32748	
3365	0	32760	32862	
3366	0	32780	32664	
3367	0	32708	32790	
3368	0	32740	32825	
3369	0	32680	32706	
3370	0	32716	32842	
3371	0	32782	32852	
3372	0	32720	32762	
3373	0	32772	32788	
3374	0	32812	32754	
3375	0	32736	32862	
3376	0	32736	32870	
3377	0	32680	32758	
3378	0	32704	32864	
3379	0	32678	32742	
3380	0	32692	32832	
3381	0	32636	32775	
3382	0	32680	32734	
3383	0	32664	32786	
3384	0	32720	32880	
3385	0	32832	32818	
3386	0	32780	32774	
3387	0	32812	32796	
3388	0	32828	32783	
3389	0	32872	32696	
3390	0	32936	32722	
3391	0	32952	32736	
3392	0	33036	32696	
3393	0	33080	32624	
3394	0	33136	32620	
3395	0	33244	32492	
3396	0	33194	32516	
3397	0	33276	32504	
3398	0	33392	32562	
3399	0	33402	32519	
3400	0	33356	32562	
3401	0	33408	32594	
3402	0	33204	32652	
3403	0	33096	32724	
3404	0	33006	32816	
3405	0	32888	32798	
3406	0	32776	32810	
3407	0	32588	32942	
3408	0	32512	32856	
3409	0	32402	32890	
3410	0	32414	32846	
3411	0	32444	32874	
3412	0	32512	32791	
3413	0	32436	32844	
3414	0	32572	32810	
3415	0	32548	32850	
3416	0	32596	32840	
3417	0	32689	32710	
3418	0	32700	32866	
3419	0	32720	32728	
3420	0	32706	32830	
3421	0	32712	32750	
3422	0	32712	32855	
3423	0	32740	32775	
3424	0	32792	32834	
3425	0	32766	32804	
3426	0	32740	32772	
3427	0	32756	32832	
3428	0	32772	32868	
3429	0	32748	32802	
3430	0	32808	32862	
3431	0	32846	32828	
3432	0	32764	32767	
3433	0	32792	32698	
3434	0	32846	32762	
3435	0	32816	32736	
3436	0	32824	32772	
3437	0	32836	32704	
3438	0	32784	32830	
3439	0	32836	32724	
3440	0	32868	32775	
3441	0	32832	32750	
3442	0	32800	32796	
3443	0	32808	32660	
3444	0	32820	32808	
3445	0	32904	32838	
3446	0	32838	32812	
3447	0	32808	32812	
3448	0	32848	32638	
3449	0	32796	32768	
3450	0	32844	32676	
3451	0	32806	32775	
3452	0	32810	32744	
3453	0	32818	32812	
3454	0	32794	32775	
3455	0	32764	32660	
3456	0	32852	32726	
3457	0	32842	32679	
3458	0	32858	32775	
3459	0	32808	32664	
3460	0	32880	32842	
3461	0	32800	32681	
3462	0	32852	32838	
3463	0	32852	32812	
3464	0	32820	32714	
3465	0	32828	32740	
3466	0	32814	32792	
3467	0	32816	32752	
3468	0	32804	32758	
3469	0	32832	32774	
3470	0	32836	32662	
3471	0	32796	32733	
3472	0	32816	32834	
3473	0	32792	32746	
3474	0	32848	32764	
3475	0	32828	32710	
3476	0	32812	32868	
3477	0	32804	32820	
3478	0	32824	32798	
3479	0	32876	32814	
3480	0	32772	32652	
3481	0	32832	32711	
3482	0	32864	32716	
3483	0	32832	32846	
3484	0	32796	32775	
3485	0	32836	32840	
3486	0	32824	32700	
3487	0	32814	32852	
3488	0	32800	32800	
3489	0	32784	32680	
3490	0	32798	32812	
3491	0	32780	32724	
3492	0	32792	32748	
3493	0	32856	32811	
3494	0	32806	32786	
3495	0	32812	32812	
3496	0	32800	32868	
3497	0	32768	32850	
3498	0	32796	32898	
3499	0	32838	32718	
3500	0	32796	32814	
3501	0	32806	32766	
3502	0	32792	32910	
3503	0	32794	32730	
3504	0	32774	32752	
3505	0	32804	32759	
3506	0	32792	32720	
3507	0	32812	32784	
3508	0	32848	32688	
3509	0	32844	32794	
3510	0	32820	32720	
3511	0	32864	32866	
3512	0	32832	32804	
3513	0	32820	32839	
3514	0	32780	32812	
3515	0	32802	32683	
3516	0	32858	32844	
3517	0	32760	32754	
3518	0	32776	32834	
3519	0	32840	32724	
3520	0	32824	32804	
3521	0	32812	32614	
3522	0	32798	32784	
3523	0	32788	32728	
3524	0	32788	32746	
3525	0	32756	32775	
3526	0	32848	32808	
3527	0	32818	32782	
3528	0	32820	32886	
3529	0	32794	32816	
3530	0	32800	32752	
3531	0	32828	32786	
3532	0	32852	32684	
3533	0	32792	32790	
3534	0	32796	32806	
3535	0	32794	32800	
3536	0	32806	32848	
3537	0	32796	32738	
3538	0	32846	32734	
3539	0	32800	32672	
3540	0	32792	32698	
3541	0	32900	32618	
3542	0	32844	32846	
3543	0	32798	32732	
3544	0	32774	32761	
3545	0	32834	32788	
3546	0	32864	32712	
3547	0	32788	32794	
3548	0	32830	32775	
3549	0	32776	32794	
3550	0	32784	32834	
3551	0	32828	32828	
3552	0	32780	32720	
3553	0	32802	32746	
3554	0	32814	32679	
3555	0	32834	32756	
3556	0	32844	32774	
3557	0	32778	32856	
3558	0	32834	32804	
3559	0	32848	32766	
3560	0	32794	32728	
3561	0	32792	32654	
3562	0	32862	32798	
3563	0	32840	32822	
3564	0	32804	32850	
3565	0	32874	32816	
3566	0	32806	32722	
3567	0	32802	32794	
3568	0	32830	32678	
3569	0	32772	32672	
3570	0	32784	32708	
3571	0	32802	32846	
3572	0	32824	32732	
3573	0	32854	32784	
3574	0	32800	32726	
3575	0	32794	32784	
3576	0	32746	32684	
3577	0	32852	32804	
3578	0	32892	32696	
3579	0	32844	32814	
3580	0	32884	32871	
3581	0	32858	32761	
3582	0	32804	32775	
3583	0	32736	32775	
3584	0	32784	32856	
3585	0	32820	32826	
3586	0	32740	32880	
3587	0	32808	32775	
3588	0	32801	32742	
3589	0	32816	32742	
3590	0	32770	32746	
3591	0	32834	32734	
3592	0	32734	32796	
3593	0	32774	32832	
3594	0	32832	32726	
3595	0	32810	32738	
3596	0	32792	32730	
3597	0	32804	32782	
3598	0	32896	32794	
3599	0	32884	32784	
3600	0	32760	32760	
3601	0	32762	32782	
3602	0	32844	32774	
3603	0	32758	32775	
3604	0	32880	32724	
3605	0	32834	32670	
3606	0	32833	32729	
3607	0	32832	32804	
3608	0	32906	32775	
3609	0	32836	32806	
3610	0	32868	32784	
3611	0	32772	32742	
3612	0	32712	32764	
3613	0	32774	32722	
3614	0	32816	32716	
3615	0	32792	32638	
3616	0	32848	32804	
3617	0	32788	32743	
3618	0	32862	32810	
3619	0	32786	32744	
3620	0	32736	32812	
3621	0	32816	32778	
3622	0	32834	32798	
3623	0	32816	32738	
3624	0	32778	32690	
3625	0	32794	32800	
3626	0	32816	32736	
3627	0	32856	32774	
3628	0	32764	32736	
3629	0	32852	32866	
3630	0	32810	32806	
3631	0	32832	32724	
3632	0	32878	32774	
3633	0	32854	32622	
3634	0	32920	32775	
3635	0	32838	32786	
3636	0	32884	32748	
3637	0	32888	32678	
3638	0	32866	32694	
3639	0	32834	32738	
3640	0	32852	32868	
3641	0	32856	32831	
3642	0	32836	32798	
3643	0	32848	32788	
3644	0	32856	32774	
3645	0	32872	32740	
3646	0	32836	32900	
3647	0	32826	32758	
3648	0	32768	32684	
3649	0	32768	32744	
3650	0	32768	32694	
3651	0	32800	32764	
3652	0	32828	32768	
3653	0	32922	32734	
3654	0	32856	32730	
3655	0	32864	32711	
3656	0	32956	32758	
3657	0	32896	32775	
3658	0	32870	32794	
3659	0	32884	32736	
3660	0	32824	32848	
3661	0	32788	32732	
3662	0	32752	32834	
3663	0	32766	32888	
3664	0	32612	32820	
3665	0	32636	32788	
3666	0	32594	32710	
3667	0	32608	32674	
3668	0	32616	32680	
3669	0	32670	32796	
3670	0	32760	32874	
3671	0	32816	32752	
3672	0	32792	32780	
3673	0	32868	32794	
3674	0	32800	32906	
3675	0	32802	32674	
3676	0	32834	32738	
3677	0	32814	32743	
3678	0	32880	32886	
3679	0	32836	32742	
3680	0	32876	32792	
3681	0	32820	32786	
3682	0	32878	32764	
3683	0	32944	32775	
3684	0	32918	32802	
3685	0	32912	32684	
3686	0	32920	32688	
3687	0	32824	32732	
3688	0	32880	32644	
3689	0	32862	32807	
3690	0	32796	32738	
3691	0	32788	32870	
3692	0	32762	32750	
3693	0	32804	32882	
3694	0	32800	32860	
3695	0	32730	32796	
3696	0	32736	32814	
3697	0	32632	32758	
3698	0	32608	32775	
3699	0	32668	32756	
3700	0	32728	32794	
3701	0	32774	32728	
3702	0	32858	32810	
3703	0	32812	32834	
3704	0	32854	32775	
3705	0	32846	32724	
3706	0	32876	32775	
3707	0	32780	32750	
3708	0	32848	32748	
3709	0	32836	32626	
3710	0	32804	32884	
3711	0	32860	32903	
3712	0	32824	32838	
3713	0	32792	32812	
3714	0	32854	32712	
3715	0	32848	32788	
3716	0	32820	32762	
3717	0	32828	32854	
3718	0	32848	32790	
3719	0	32844	32902	
3720	0	32804	32844	
3721	0	32860	32830	
3722	0	32748	32770	
3723	0	32780	32820	
3724	0	32780	32672	
3725	0	32772	32810	
3726	0	32730	32732	
3727	0	32838	32768	
3728	0	32874	32704	
3729	0	32828	32800	
3730	0	32752	32698	
3731	0	32804	32826	
3732	0	32828	32720	
3733	0	32808	32712	
3734	0	32788	32788	
3735	0	32800	32812	
3736	0	32850	32732	
3737	0	32836	32660	
3738	0	32768	32724	
3739	0	32808	32678	
3740	0	32784	32775	
3741	0	32792	32679	
3742	0	32832	32740	
3743	0	32816	32631	
3744	0	32740	32743	
3745	0	32776	32790	
3746	0	32780	32775	
3747	0	32814	32839	
3748	0	32868	32711	
3749	0	32820	32808	
3750	0	32804	32782	
3751	0	32874	32832	
3752	0	32884	32772	
3753	0	32828	32768	
3754	0	32796	32870	
3755	0	32816	32746	
3756	0	32772	32832	
3757	0	32830	32724	
3758	0	32796	32814	
3759	0	32824	32768	
3760	0	32762	32788	
3761	0	32836	32814	
3762	0	32864	32820	
3763	0	32772	32807	
3764	0	32820	32734	
3765	0	32778	32796	
3766	0	32836	32788	
3767	0	32772	32752	
3768	0	32796	32816	
3769	0	32812	32766	
3770	0	32784	32804	
3771	0	32888	32774	
3772	0	32860	32804	
3773	0	32810	32788	
3774	0	32760	32708	
3775	0	32828	32756	
3776	0	32776	32640	
3777	0	32820	32808	
3778	0	32800	32764	
3779	0	32812	32810	
3780	0	32760	32842	
3781	0	32810	32596	
3782	0	32888	32818	
3783	0	32728	32746	
3784	0	32820	32716	
3785	0	32884	32704	
3786	0	32844	32800	
3787	0	32854	32828	
3788	0	32908	32774	
3789	0	32812	32786	
3790	0	32796	32740	
3791	0	32864	32768	
3792	0	32784	32650	
3793	0	32836	32720	
3794	0	32892	32775	
3795	0	32856	32788	
3796	0	32830	32806	
3797	0	32838	32872	
3798	0	32804	32732	
3799	0	32840	32764	
3800	0	32808	32828	
3801	0	32776	32696	
3802	0	32668	32756	
3803	0	32644	32710	
3804	0	32692	32720	
3805	0	32762	32686	
3806	0	32710	32792	
3807	0	32740	32834	
3808	0	32804	32848	
3809	0	32876	32876	
3810	0	32786	32738	
3811	0	32848	32903	
3812	0	32948	32752	
3813	0	32932	32872	
3814	0	32848	32732	
3815	0	32868	32822	
3816	0	32748	32862	
3817	0	32728	32852	
3818	0	32784	32850	
3819	0	32720	32676	
3820	0	32712	32802	
3821	0	32834	32768	
3822	0	32860	32736	
3823	0	32908	32726	
3824	0	32816	32706	
3825	0	32764	32690	
3826	0	32684	32588	
3827	0	32752	32794	
3828	0	32676	32724	
3829	0	32768	32890	
3830	0	32672	32842	
3831	0	32768	32743	
3832	0	32820	32775	
3833	0	32768	32700	
3834	0	32798	32724	
3835	0	32766	32775	
3836	0	32750	32832	
3837	0	32816	32748	
3838	0	32752	32812	
3839	0	32780	32884	
3840	0	32826	32812	
3841	0	32836	32815	
3842	0	32836	32800	
3843	0	32882	32740	
3844	0	32804	32680	
3845	0	32852	32774	
3846	0	32908	32836	
3847	0	32928	32728	
3848	0	32932	32791	
3849	0	32844	32713	
3850	0	32830	32767	
3851	0	32840	32712	
3852	0	32814	32736	
3853	0	32788	32698	
3854	0	32758	32760	
3855	0	32834	32828	
3856	0	32892	32766	
3857	0	32866	32784	
3858	0	32820	32678	
3859	0	32818	32654	
3860	0	32860	32690	
3861	0	32794	32830	
3862	0	32854	32774	
3863	0	32906	32678	
3864	0	32886	32730	
3865	0	32776	32600	
3866	0	32832	32768	
3867	0	32822	32671	
3868	0	32792	32732	
3869	0	32870	32672	
3870	0	32834	32724	
3871	0	32874	32696	
3872	0	32920	32838	
3873	0	32852	32834	
3874	0	32940	32826	
3875	0	32854	32756	
3876	0	32824	32844	
3877	0	32736	32814	
3878	0	32714	32886	
3879	0	32748	32824	
3880	0	32648	32934	
3881	0	32648	32862	
3882	0	32624	32792	
3883	0	32694	32826	
3884	0	32748	32700	
3885	0	32864	32810	
3886	0	32788	32660	
3887	0	32856	32849	
3888	0	32768	32858	
3889	0	32890	32754	
3890	0	32804	32758	
3891	0	32695	32726	
3892	0	32676	32834	
3893	0	32694	32730	
3894	0	32704	32774	
3895	0	32728	32708	
3896	0	32852	32815	
3897	0	32974	32742	
3898	0	33068	32775	
3899	0	33036	32748	
3900	0	33004	32826	
3901	0	32962	32693	
3902	0	32968	32714	
3903	0	32908	32736	
3904	0	32996	32820	
3905	0	32830	32758	
3906	0	32894	32676	
3907	0	32752	32754	
3908	0	32704	32686	
3909	0	32716	32766	
3910	0	32662	32756	
3911	0	32658	32760	
3912	0	32632	32714	
3913	0	32628	32784	
3914	0	32608	32740	
3915	0	32692	32790	
3916	0	32630	32754	
3917	0	32728	32806	
3918	0	32728	32788	
3919	0	32814	32732	
3920	0	32886	32810	
3921	0	32884	32796	
3922	0	32816	32724	
3923	0	32904	32758	
3924	0	32892	32822	
3925	0	32904	32760	
3926	0	32900	32816	
3927	0	32858	32864	
3928	0	32896	32744	
3929	0	32908	32876	
3930	0	32864	32692	
3931	0	32904	32756	
3932	0	32920	32728	
3933	0	32814	32688	
3934	0	32888	32618	
3935	0	32776	32614	
3936	0	32752	32608	
3937	0	32742	32799	
3938	0	32808	32760	
3939	0	32834	32800	
3940	0	32800	32770	
3941	0	32828	32880	
3942	0	32806	32712	
3943	0	32774	32768	
3944	0	32746	32764	
3945	0	32780	32846	
3946	0	32776	32680	
3947	0	32808	32678	
3948	0	32888	32647	
3949	0	32844	32774	
3950	0	32814	32684	
3951	0	32868	32834	
3952	0	32832	32660	
3953	0	32868	32772	
3954	0	32840	32720	
3955	0	32924	32782	
3956	0	32928	32816	
3957	0	32876	32768	
3958	0	32820	32775	
3959	0	32856	32786	
3960	0	32926	32783	
3961	0	32924	32704	
3962	0	32920	32740	
3963	0	32860	32732	
3964	0	32705	32700	
3965	0	32824	32768	
3966	0	32812	32704	
3967	0	32704	32732	
3968	0	32792	32736	
3969	0	32868	32775	
3970	0	32814	32688	
3971	0	32838	32750	
3972	0	32848	32678	
3973	0	32760	32720	
3974	0	32720	32646	
3975	0	32684	32820	
3976	0	32644	32786	
3977	0	32624	32916	
3978	0	32674	32760	
3979	0	32648	32761	
3980	0	32620	32761	
3981	0	32668	32887	
3982	0	32718	32808	
3983	0	32730	32870	
3984	0	32760	32720	
3985	0	32842	32812	
3986	0	32852	32720	
3987	0	32844	32730	
3988	0	32824	32740	
3989	0	32884	32804	
3990	0	32878	32614	
3991	0	32948	32746	
3992	0	32852	32640	
3993	0	32884	32742	
3994	0	32940	32668	
3995	0	32910	32766	
3996	0	32776	32744	
3997	0	32788	32810	
3998	0	32862	32820	
3999	0	32980	32858	
4000	0	32888	32882	
4001	0	32868	32704	
4002	0	32922	32753	
4003	0	32864	32700	
4004	0	32840	32711	
4005	0	32896	32678	
4006	0	33044	32724	
4007	0	33072	32730	
4008	0	33046	32800	
4009	0	32994	32716	
4010	0	32828	32622	
4011	0	32624	32724	
4012	0	32682	32706	
4013	0	32544	32746	
4014	0	32514	32710	
4015	0	32458	32710	
4016	0	32540	32848	
4017	0	32516	32926	
4018	0	32556	32694	
4019	0	32528	32839	
4020	0	32650	32702	
4021	0	32774	32774	
4022	0	32814	32676	
4023	0	32844	32804	
4024	0	32860	32846	
4025	0	32924	32900	
4026	0	32968	32792	
4027	0	33118	32806	
4028	0	33196	32918	
4029	0	33184	32882	
4030	0	33088	32852	
4031	0	33088	32740	
4032	0	33076	32775	
4033	0	32842	32700	
4034	0	32672	32689	
4035	0	32718	32828	
4036	0	32532	32711	
4037	0	32488	32710	
4038	0	32334	32762	
4039	0	32396	32775	
4040	0	32508	32770	
4041	0	32718	32738	
4042	0	32880	32937	
4043	0	32980	32728	
4044	0	32972	32852	
4045	0	32984	32798	
4046	0	33020	32900	
4047	0	33036	32888	
4048	0	33032	32688	
4049	0	32972	32764	
4050	0	32892	32596	
4051	0	32778	32743	
4052	0	32750	32678	
4053	0	32632	32687	
4054	0	32556	32616	
4055	0	32564	32726	
4056	0	32528	32792	
4057	0	32744	32862	
4058	0	32778	32736	
4059	0	32806	32817	
4060	0	32774	32720	
4061	0	32736	32820	
4062	0	32900	32648	
4063	0	32974	32726	
4064	0	32968	32775	
4065	0	32954	32894	
4066	0	32964	32744	
4067	0	33024	32686	
4068	0	32976	32744	
4069	0	32980	32742	
4070	0	32970	32656	
4071	0	32856	32828	
4072	0	32840	32950	
4073	0	32884	32750	
4074	0	32832	32810	
4075	0	32884	32674	
4076	0	32881	32814	
4077	0	33032	32620	
4078	0	32916	32902	
4079	0	32992	32888	
4080	0	32932	32808	
4081	0	32812	32704	
4082	0	32700	32744	
4083	0	32574	32662	
4084	0	32548	32582	
4085	0	32660	32609	
4086	0	32568	32766	
4087	0	32468	32652	
4088	0	32488	32743	
4089	0	32480	32818	
4090	0	32600	32906	
4091	0	32746	32726	
4092	0	32788	32818	
4093	0	32932	32748	
4094	0	32890	32646	
4095	0	32812	32656	
4096	0	32642	32602	
4097	0	32684	32628	
4098	0	32684	32826	
4099	0	32828	32806	
4100	0	32840	32872	
4101	0	32980	32775	
4102	0	33100	32768	
4103	0	33096	32750	
4104	0	33036	32838	
4105	0	32932	32708	
4106	0	32824	32842	
4107	0	32744	32752	
4108	0	32600	32734	
4109	0	32624	32724	
4110	0	32828	32700	
4111	0	32740	32572	
4112	0	32652	32720	
4113	0	32744	32903	
4114	0	33006	32775	
4115	0	33046	32796	
4116	0	33072	32746	
4117	0	33062	32980	
4118	0	33016	32849	
4119	0	33144	32816	
4120	0	33180	32704	
4121	0	33012	32654	
4122	0	32936	32744	
4123	0	32692	32750	
4124	0	32736	32686	
4125	0	32640	32516	
4126	0	32618	32678	
4127	0	32716	32738	
4128	0	32704	32892	
4129	0	32740	32775	
4130	0	32752	32998	
4131	0	32752	32992	
4132	0	32738	32884	
4133	0	32746	33010	
4134	0	32728	32832	
4135	0	32684	32703	
4136	0	32648	32748	
4137	0	32710	32727	
4138	0	32664	32678	
4139	0	32544	32610	
4140	0	32316	32688	
4141	0	32380	32694	
4142	0	32540	32832	
4143	0	32600	32668	
4144	0	32720	32714	
4145	0	32876	32806	
4146	0	32960	32842	
4147	0	33016	32770	
4148	0	32946	32638	
4149	0	32984	32725	
4150	0	32958	32726	
4151	0	32898	32748	
4152	0	32898	32686	
4153	0	32762	32616	
4154	0	32832	32704	
4155	0	32876	32775	
4156	0	32792	32801	
4157	0	32884	32740	
4158	0	32792	32732	
4159	0	32850	32772	
4160	0	32828	32636	
4161	0	32906	32764	
4162	0	32888	32746	
4163	0	32808	32654	
4164	0	32858	32646	
4165	0	32876	32621	
4166	0	32872	32720	
4167	0	32810	32764	
4168	0	32854	32822	
4169	0	32936	32814	
4170	0	32912	32888	
4171	0	32902	32810	
4172	0	32948	32860	
4173	0	32924	32804	
4174	0	32764	32976	
4175	0	32796	32886	
4176	0	32840	32662	
4177	0	32848	32814	
4178	0	32998	32647	
4179	0	33092	32760	
4180	0	33006	32750	
4181	0	33100	32743	
4182	0	33028	32688	
4183	0	32888	32852	
4184	0	32816	32810	
4185	0	32756	32938	
4186	0	32584	32856	
4187	0	32448	32718	
4188	0	32464	32838	
4189	0	32476	32724	
4190	0	32504	32951	
4191	0	32428	32832	
4192	0	32604	32886	
4193	0	33036	32830	
4194	0	33328	32730	
4195	0	33528	32886	
4196	0	33440	33020	
4197	0	33188	32986	
4198	0	32952	32920	
4199	0	32540	32888	
4200	0	32360	32808	
4201	0	32284	32738	
4202	0	32468	32760	
4203	0	32472	32807	
4204	0	32452	32720	
4205	0	32772	32678	
4206	0	32556	32676	
4207	0	32394	32729	
4208	0	32222	32664	
4209	0	32360	32692	
4210	0	32432	32711	
4211	0	32504	32758	
4212	0	32550	32608	
4213	0	32578	32686	
4214	0	32644	32704	
4215	0	32640	32782	
4216	0	32672	32732	
4217	0	32960	32690	
4218	0	33172	32764	
4219	0	33308	32924	
4220	0	33156	32842	
4221	0	33092	32918	
4222	0	33048	32964	
4223	0	33096	32752	
4224	0	33004	32576	
4225	0	32880	32702	
4226	0	32868	32732	
4227	0	32806	32634	
4228	0	32644	32710	
4229	0	32562	32754	
4230	0	32556	32652	
4231	0	32580	32775	
4232	0	32631	32844	
4233	0	32824	32984	
4234	0	32814	32843	
4235	0	32836	32836	
4236	0	32810	32714	
4237	0	32800	32650	
4238	0	32770	32780	
4239	0	32902	32844	
4240	0	33068	32759	
4241	0	33082	32774	
4242	0	33100	32916	
4243	0	33036	32808	
4244	0	32868	32838	
4245	0	32826	32835	
4246	0	32800	32900	
4247	0	32804	32898	
4248	0	32888	32976	
4249	0	32906	32900	
4250	0	32780	33030	
4251	0	32696	33062	
4252	0	32600	32824	
4253	0	32612	32762	
4254	0	32628	32540	
4255	0	32640	32638	
4256	0	32560	32516	
4257	0	32552	32694	
4258	0	32542	32582	
4259	0	32444	32548	
4260	0	32620	32608	
4261	0	32988	32687	
4262	0	32978	32568	
4263	0	33064	32616	
4264	0	33070	32634	
4265	0	33032	32768	
4266	0	33068	32798	
4267	0	33042	32766	
4268	0	33110	32846	
4269	0	33124	32744	
4270	0	33236	32752	
4271	0	33360	32574	
4272	0	33384	32679	
4273	0	33490	32574	
4274	0	33588	32548	
4275	0	33508	32676	
4276	0	33494	32730	
4277	0	33236	32767	
4278	0	32896	32916	
4279	0	32746	32871	
4280	0	32794	32852	
4281	0	32748	33010	
4282	0	32564	32810	
4283	0	32380	32748	
4284	0	32376	32684	
4285	0	32346	32806	
4286	0	32254	32848	
4287	0	32384	32902	
4288	0	32324	32934	
4289	0	32392	33012	
4290	0	32568	33050	
4291	0	32774	33060	
4292	0	33102	33140	
4293	0	33176	33031	
4294	0	33146	32940	
4295	0	33092	32952	
4296	0	33040	32804	
4297	0	32932	32676	
4298	0	33090	32614	
4299	0	33204	32646	
4300	0	33082	32522	
4301	0	33090	32632	
4302	0	32770	32466	
4303	0	32704	32518	
4304	0	32496	32466	
4305	0	32570	32679	
4306	0	32672	32632	
4307	0	32712	32775	
4308	0	32828	32640	
4309	0	32884	32572	
4310	0	32700	32574	
4311	0	32552	32712	
4312	0	32500	32673	
4313	0	32582	32678	
4314	0	32548	32671	
4315	0	32526	32860	
4316	0	32388	32583	
4317	0	32418	32638	
4318	0	32588	32672	
4319	0	32896	32662	
4320	0	32800	32852	
4321	0	32666	32894	
4322	0	32584	32847	
4323	0	32508	32774	
4324	0	32332	32712	
4325	0	32384	32752	
4326	0	32524	32610	
4327	0	32804	32836	
4328	0	32966	32834	
4329	0	32938	32992	
4330	0	32920	32796	
4331	0	32892	32820	
4332	0	33066	32840	
4333	0	33136	32956	
4334	0	33128	33007	
4335	0	33244	32952	
4336	0	33454	32974	
4337	0	33626	33090	
4338	0	33313	33036	
4339	0	32912	32894	
4340	0	32628	32816	
4341	0	32528	32884	
4342	0	32488	32794	
4343	0	32528	32590	
4344	0	32680	32636	
4345	0	32622	32487	
4346	0	32704	32518	
4347	0	32880	32580	
4348	0	32804	32646	
4349	0	32838	32654	
4350	0	32976	32688	
4351	0	32764	32590	
4352	0	32866	32404	
4353	0	32768	32558	
4354	0	32708	32556	
4355	0	32652	32692	
4356	0	32800	32630	
4357	0	32832	32775	
4358	0	32768	32722	
4359	0	32754	32666	
4360	0	32748	32716	
4361	0	32936	32668	
4362	0	33064	32752	
4363	0	33154	32798	
4364	0	33216	32822	
4365	0	33272	32800	
4366	0	32980	32704	
4367	0	32904	32766	
4368	0	32944	32976	
4369	0	32908	32972	
4370	0	32772	32982	
4371	0	32628	33151	
4372	0	32828	33016	
4373	0	33056	32908	
4374	0	33052	32864	
4375	0	32928	32588	
4376	0	32876	32740	
4377	0	32612	32647	
4378	0	32442	32716	
4379	0	32512	32736	
4380	0	32488	32740	
4381	0	32196	32742	
4382	0	32076	32676	
4383	0	32108	32866	
4384	0	32162	32704	
4385	0	32156	32844	
4386	0	32422	32740	
4387	0	32622	32798	
4388	0	32840	32660	
4389	0	33104	32698	
4390	0	33160	32775	
4391	0	33108	32948	
4392	0	33144	32894	
4393	0	32938	32898	
4394	0	32920	32938	
4395	0	32844	32908	
4396	0	32716	32804	
4397	0	32726	32822	
4398	0	32928	32784	
4399	0	32952	32836	
4400	0	32872	32876	
4401	0	33012	32942	
4402	0	33082	32886	
4403	0	32880	32904	
4404	0	33194	32948	
4405	0	33402	32855	
4406	0	33380	32830	
4407	0	33384	32852	
4408	0	33492	32756	
4409	0	33834	32624	
4410	0	33810	32700	
4411	0	33432	32716	
4412	0	32754	32702	
4413	0	32448	32679	
4414	0	32136	32696	
4415	0	31896	32716	
4416	0	32056	32657	
4417	0	31796	32692	
4418	0	31628	32746	
4419	0	31592	32666	
4420	0	31972	32588	
4421	0	32334	32814	
4422	0	32522	32732	
4423	0	32776	32700	
4424	0	32932	32818	
4425	0	32890	32730	
4426	0	32650	32736	
4427	0	32618	32724	
4428	0	32946	32708	
4429	0	32962	32808	
4430	0	32976	32734	
4431	0	32896	32716	
4432	0	32892	32872	
4433	0	33000	32856	
4434	0	33256	32791	
4435	0	33372	32623	
4436	0	33304	32774	
4437	0	33453	32932	
4438	0	33262	33020	
4439	0	33010	32808	
4440	0	32932	32736	
4441	0	33084	32852	
4442	0	32982	32814	
4443	0	32942	32865	
4444	0	32992	32903	
4445	0	32960	32878	
4446	0	32916	32814	
4447	0	32788	32830	
4448	0	32624	32747	
4449	0	32676	32708	
4450	0	32580	32704	
4451	0	32644	32874	
4452	0	32572	32810	
4453	0	32592	32936	
4454	0	32756	32908	
4455	0	32792	32980	
4456	0	32786	32863	
4457	0	32658	32934	
4458	0	32836	32810	
4459	0	32932	32820	
4460	0	32832	32756	
4461	0	32888	32764	
4462	0	32938	32718	
4463	0	33094	32714	
4464	0	33044	32804	
4465	0	32844	32734	
4466	0	32712	32750	
4467	0	32618	32690	
4468	0	32564	32722	
4469	0	32804	32656	
4470	0	32996	32688	
4471	0	32736	32732	
4472	0	32490	32620	
4473	0	32428	32716	
4474	0	32562	32748	
4475	0	32548	32674	
4476	0	32412	32704	
4477	0	32340	32670	
4478	0	32586	32584	
4479	0	32748	32647	
4480	0	32862	32600	
4481	0	33000	32750	
4482	0	33014	32788	
4483	0	32848	32798	
4484	0	32920	32796	
4485	0	32816	32856	
4486	0	32776	32676	
4487	0	32858	32612	
4488	0	32856	32647	
4489	0	32924	32768	
4490	0	32930	32690	
4491	0	33096	32757	
4492	0	33054	32647	
4493	0	33124	32732	
4494	0	33204	32658	
4495	0	33128	32916	
4496	0	33080	32838	
4497	0	33032	32820	
4498	0	33016	32790	
4499	0	33006	32880	
4500	0	32852	32946	
4501	0	32830	32764	
4502	0	32740	32658	
4503	0	32666	32702	
4504	0	32508	32600	
4505	0	32558	32855	
4506	0	32848	32908	
4507	0	32944	33024	
4508	0	33112	32862	
4509	0	32724	32934	
4510	0	32640	32938	
4511	0	32420	32834	
4512	0	32420	32914	
4513	0	32465	32903	
4514	0	32272	32714	
4515	0	32288	32840	
4516	0	32528	32752	
4517	0	32472	32746	
4518	0	32556	32622	
4519	0	32680	32725	
4520	0	32804	32616	
4521	0	32961	32692	
4522	0	33004	32614	
4523	0	33112	32670	
4524	0	33060	32544	
4525	0	33114	32774	
4526	0	33156	32670	
4527	0	33200	32812	
4528	0	33122	32806	
4529	0	33138	32814	
4530	0	33132	32639	
4531	0	33060	32804	
4532	0	32832	32839	
4533	0	32902	32740	
4534	0	32834	32682	
4535	0	32978	32572	
4536	0	32778	32695	
4537	0	32652	32748	
4538	0	32570	32604	
4539	0	32442	32538	
4540	0	32676	32686	
4541	0	32872	32580	
4542	0	32728	32682	
4543	0	32572	32720	
4544	0	32452	32820	
4545	0	32606	32820	
4546	0	32516	32903	
4547	0	32600	32798	
4548	0	32792	32726	
4549	0	33072	32726	
4550	0	33180	32860	
4551	0	33300	32848	
4552	0	33634	32998	
4553	0	33678	32854	
4554	0	33476	32796	
4555	0	33180	32775	
4556	0	32876	32840	
4557	0	32628	32850	
4558	0	32448	32853	
4559	0	32196	32820	
4560	0	32234	32964	
4561	0	32446	32796	
4562	0	32346	32898	
4563	0	32424	33004	
4564	0	32466	32774	
4565	0	32464	32734	
4566	0	32820	32738	
4567	0	33016	32820	
4568	0	33124	32660	
4569	0	33088	32602	
4570	0	32776	32594	
4571	0	32733	32694	
4572	0	32868	32759	
4573	0	32692	32774	
4574	0	32522	32718	
4575	0	32548	32462	
4576	0	32548	32567	
4577	0	32576	32614	
4578	0	32560	32796	
4579	0	32714	33010	
4580	0	32612	32800	
4581	0	32976	32780	
4582	0	33188	32768	
4583	0	33314	32894	
4584	0	33176	33016	
4585	0	33088	33127	
4586	0	33256	33054	
4587	0	33240	33148	
4588	0	33208	33178	
4589	0	32956	33138	
4590	0	32996	33228	
4591	0	33126	33150	
4592	0	32832	32934	
4593	0	32522	32762	
4594	0	32530	32775	
4595	0	32288	32584	
4596	0	32386	32583	
4597	0	32336	32620	
4598	0	32348	32636	
4599	0	32316	32692	
4600	0	32360	32636	
4601	0	32412	32712	
4602	0	32542	32699	
4603	0	32836	32823	
4604	0	32880	32804	
4605	0	33000	32916	
4606	0	33130	32834	
4607	0	33196	32828	
4608	0	33060	32849	
4609	0	33064	32724	
4610	0	32922	32732	
4611	0	32980	32783	
4612	0	32970	32672	
4613	0	33042	32700	
4614	0	33072	32698	
4615	0	33236	32956	
4616	0	33192	33096	
4617	0	32916	33068	
4618	0	32556	32935	
4619	0	32656	32922	
4620	0	32526	32865	
4621	0	32516	32775	
4622	0	32676	32638	
4623	0	32720	32660	
4624	0	32626	32688	
4625	0	32716	32422	
4626	0	32884	32508	
4627	0	32728	32424	
4628	0	32792	32438	
4629	0	32856	32388	
4630	0	33008	32488	
4631	0	33104	32478	
4632	0	32844	32592	
4633	0	32788	32556	
4634	0	32746	32476	
4635	0	32832	32647	
4636	0	32936	32599	
4637	0	32728	32560	
4638	0	32792	32527	
4639	0	32668	32655	
4640	0	32784	32744	
4641	0	32816	32758	
4642	0	33072	32896	
4643	0	32828	32784	
4644	0	32816	32680	
4645	0	32644	32678	
4646	0	32568	32756	
4647	0	32896	32704	
4648	0	32894	32680	
4649	0	32800	32748	
4650	0	32984	32690	
4651	0	32840	32842	
4652	0	32702	32636	
4653	0	32512	32502	
4654	0	32628	32564	
4655	0	32732	32676	
4656	0	33056	32716	
4657	0	33172	32679	
4658	0	33042	32954	
4659	0	33126	33110	
4660	0	32760	32900	
4661	0	32736	32892	
4662	0	32444	32946	
4663	0	32108	32831	
4664	0	32300	32804	
4665	0	32596	32790	
4666	0	32656	32914	
4667	0	32816	32916	
4668	0	32934	32988	
4669	0	32928	32948	
4670	0	33280	32826	
4671	0	33360	32966	
4672	0	33340	32880	
4673	0	32982	32812	
4674	0	32640	32688	
4675	0	32492	32422	
4676	0	32428	32540	
4677	0	32592	32516	
4678	0	32708	32490	
4679	0	32504	32620	
4680	0	32728	32908	
4681	0	32990	32976	
4682	0	32920	32956	
4683	0	32956	32816	
4684	0	32850	32680	
4685	0	32824	32660	
4686	0	32868	32708	
4687	0	32950	32852	
4688	0	32992	32894	
4689	0	33162	32895	
4690	0	32888	32760	
4691	0	32940	32556	
4692	0	32784	32546	
4693	0	32644	32622	
4694	0	32656	32624	
4695	0	32630	32512	
4696	0	32622	32612	
4697	0	32774	32624	
4698	0	32904	32690	
4699	0	32828	32646	
4700	0	32606	32678	
4701	0	32600	32588	
4702	0	32784	32700	
4703	0	32786	32528	
4704	0	32984	32578	
4705	0	33268	32670	
4706	0	33212	32591	
4707	0	33056	32555	
4708	0	32684	32564	
4709	0	32788	32615	
4710	0	32824	32542	
4711	0	32896	32666	
4712	0	33012	32650	
4713	0	32744	32996	
4714	0	32616	32852	
4715	0	32588	32860	
4716	0	32584	32836	
4717	0	32558	32728	
4718	0	32678	32896	
4719	0	32676	32750	
4720	0	32700	32810	
4721	0	32570	32720	
4722	0	32472	32988	
4723	0	32452	32852	
4724	0	32432	32876	
4725	0	32484	32750	
4726	0	32592	32928	
4727	0	32772	32828	
4728	0	32946	32866	
4729	0	32998	32968	
4730	0	33036	32916	
4731	0	33096	32938	
4732	0	33256	32838	
4733	0	33528	32692	
4734	0	33424	32692	
4735	0	33136	32756	
4736	0	33188	32558	
4737	0	33148	32663	
4738	0	33018	32652	
4739	0	32672	32726	
4740	0	32600	32690	
4741	0	32436	32748	
4742	0	32460	32814	
4743	0	32470	32664	
4744	0	32280	32648	
4745	0	32418	32620	
4746	0	32560	32760	
4747	0	32656	32743	
4748	0	32820	33070	
4749	0	33000	33044	
4750	0	33366	32984	
4751	0	33220	32878	
4752	0	32896	32700	
4753	0	32864	32660	
4754	0	32704	32602	
4755	0	32844	32712	
4756	0	32868	32668	
4757	0	32648	32654	
4758	0	32680	32714	
4759	0	32710	32874	
4760	0	32800	32874	
4761	0	32736	32834	
4762	0	32960	32968	
4763	0	33100	33013	
4764	0	32952	32854	
4765	0	32742	32964	
4766	0	32896	32952	
4767	0	32660	32892	
4768	0	32552	32838	
4769	0	32790	32958	
4770	0	32760	32880	
4771	0	33028	33094	
4772	0	32856	32934	
4773	0	32740	32874	
4774	0	32964	32792	
4775	0	33016	32897	
4776	0	33088	32740	
4777	0	32924	32616	
4778	0	32670	32610	
4779	0	32556	32426	
4780	0	32656	32646	
4781	0	32378	32822	
4782	0	32626	32944	
4783	0	32656	32876	
4784	0	32680	32814	
4785	0	32916	32716	
4786	0	33222	32879	
4787	0	33060	32786	
4788	0	33296	32804	
4789	0	33110	32690	
4790	0	32570	32643	
4791	0	32514	32764	
4792	0	32432	32766	
4793	0	32426	32708	
4794	0	32302	32826	
4795	0	32436	33016	
4796	0	32480	32834	
4797	0	32612	32810	
4798	0	32664	32804	
4799	0	32656	32846	
4800	0	32900	32832	
4801	0	33168	32716	
4802	0	33232	32836	
4803	0	33320	32823	
4804	0	33038	32775	
4805	0	33104	32728	
4806	0	33102	32648	
4807	0	33026	32734	
4808	0	32820	32642	
4809	0	32720	32716	
4810	0	32666	32756	
4811	0	32508	32774	
4812	0	32442	32676	
4813	0	32552	32684	
4814	0	32720	32802	
4815	0	32932	32594	
4816	0	33040	32728	
4817	0	32904	32744	
4818	0	32897	32740	
4819	0	32856	32756	
4820	0	32942	32647	
4821	0	32768	32652	
4822	0	32856	32608	
4823	0	32888	32760	
4824	0	32840	32656	
4825	0	32746	32670	
4826	0	32762	32710	
4827	0	32736	32946	
4828	0	32756	32816	
4829	0	32872	32836	
4830	0	33120	32820	
4831	0	33060	32672	
4832	0	33076	32756	
4833	0	32932	32775	
4834	0	32684	32724	
4835	0	32842	32703	
4836	0	32748	32606	
4837	0	32680	32647	
4838	0	32720	32838	
4839	0	32634	32806	
4840	0	32688	32718	
4841	0	32356	32647	
4842	0	32320	32807	
4843	0	32538	32628	
4844	0	32904	32632	
4845	0	32908	32798	
4846	0	32880	32830	
4847	0	32648	32638	
4848	0	32646	32636	
4849	0	32676	32662	
4850	0	32690	32668	
4851	0	32808	32596	
4852	0	32862	32522	
4853	0	32852	32454	
4854	0	32956	32452	
4855	0	32912	32544	
4856	0	32912	32612	
4857	0	32908	32666	
4858	0	32968	32662	
4859	0	32884	32616	
4860	0	33060	32759	
4861	0	33284	32998	
4862	0	33296	32995	
4863	0	33144	33244	
4864	0	33168	33126	
4865	0	33192	32960	
4866	0	32952	32958	
4867	0	32796	33080	
4868	0	32778	33052	
4869	0	32720	33068	
4870	0	32444	33020	
4871	0	32492	32854	
4872	0	32440	33175	
4873	0	32416	33415	
4874	0	32436	33258	
4875	0	32518	33138	
4876	0	32618	33088	
4877	0	32565	32884	
4878	0	32696	33038	
4879	0	32740	33024	
4880	0	32900	33048	
4881	0	32968	32852	
4882	0	33056	32764	
4883	0	33074	32590	
4884	0	32904	32581	
4885	0	32968	32554	
4886	0	33092	32618	
4887	0	33116	32450	
4888	0	33132	32460	
4889	0	33108	32418	
4890	0	33066	32472	
4891	0	32744	32580	
4892	0	32708	32586	
4893	0	32728	32660	
4894	0	32658	32558	
4895	0	32596	32628	
4896	0	32550	32572	
4897	0	32656	32772	
4898	0	32800	32708	
4899	0	32728	32710	
4900	0	32816	32872	
4901	0	32716	32660	
4902	0	32852	32572	
4903	0	33084	32596	
4904	0	32912	32782	
4905	0	32792	32644	
4906	0	32724	32711	
4907	0	32700	32688	
4908	0	32836	32712	
4909	0	33024	32804	
4910	0	32960	32716	
4911	0	32928	32790	
4912	0	32580	32864	
4913	0	32628	33076	
4914	0	32568	32938	
4915	0	32352	32618	
4916	0	32416	32660	
4917	0	32492	32710	
4918	0	32540	32766	
4919	0	32918	32628	
4920	0	33032	32706	
4921	0	33160	32784	
4922	0	33218	32743	
4923	0	33248	32736	
4924	0	33116	32748	
4925	0	33194	32968	
4926	0	33136	32854	
4927	0	32848	32958	
4928	0	32906	32820	
4929	0	32852	32884	
4930	0	32664	32684	
4931	0	32510	32848	
4932	0	32320	32878	
4933	0	32188	32976	
4934	0	32316	33004	
4935	0	32406	33112	
4936	0	32674	32924	
4937	0	33056	32824	
4938	0	32940	32826	
4939	0	33036	32710	
4940	0	32812	32816	
4941	0	32576	32672	
4942	0	32678	32720	
4943	0	32760	32647	
4944	0	32724	32740	
4945	0	32656	32804	
4946	0	32722	32820	
4947	0	32672	32934	
4948	0	32858	32882	
4949	0	32974	32844	
4950	0	33072	32775	
4951	0	33084	32872	
4952	0	33192	32696	
4953	0	33056	32790	
4954	0	33160	32756	
4955	0	33032	32852	
4956	0	32732	32884	
4957	0	32676	32654	
4958	0	33089	32792	
4959	0	33480	32682	
4960	0	33568	32948	
4961	0	33308	32930	
4962	0	32984	32896	
4963	0	33102	32903	
4964	0	32860	32726	
4965	0	32372	32764	
4966	0	32464	32816	
4967	0	32388	32886	
4968	0	32076	32840	
4969	0	32040	32828	
4970	0	32120	32942	
4971	0	31972	32775	
4972	0	31896	32812	
4973	0	32210	32880	
4974	0	32696	32960	
4975	0	33152	33012	
4976	0	33256	32856	
4977	0	33126	32922	
4978	0	33144	33062	
4979	0	32968	33095	
4980	0	33242	32930	
4981	0	33474	32935	
4982	0	33368	32876	
4983	0	33206	32804	
4984	0	32808	32814	
4985	0	32540	32868	
4986	0	32341	32832	
4987	0	32336	32814	
4988	0	32432	32946	
4989	0	32318	32903	
4990	0	32368	32788	
4991	0	32648	32834	
4992	0	32736	32750	
4993	0	32672	32838	
4994	0	32784	32944	
4995	0	32948	32964	
4996	0	32986	32630	
4997	0	33054	32798	
4998	0	33022	32692	
4999	0	32940	32806	
5000	0	33088	32682	
5001	0	33084	32632	
5002	0	33032	32614	
5003	0	33024	32612	
5004	0	33012	32556	
5005	0	33052	32496	
5006	0	33168	32542	
5007	0	33208	32546	
5008	0	33118	32738	
5009	0	32968	32808	
5010	0	32812	32696	
5011	0	32586	32662	
5012	0	32696	32654	
5013	0	32672	32686	
5014	0	32554	32620	
5015	0	32788	32716	
5016	0	33140	32716	
5017	0	33146	32874	
5018	0	32964	32802	
5019	0	32898	32844	
5020	0	32630	32738	
5021	0	32482	32768	
5022	0	32368	32854	
5023	0	32416	32784	
5024	0	32284	32744	
5025	0	32440	32558	
5026	0	32404	32564	
5027	0	32540	32582	
5028	0	32896	32738	
5029	0	32936	32734	
5030	0	32930	32838	
5031	0	33004	32792	
5032	0	33156	32820	
5033	0	33136	32824	
5034	0	32988	32740	
5035	0	32934	32774	
5036	0	33000	32604	
5037	0	33082	32636	
5038	0	33092	32642	
5039	0	32776	32630	
5040	0	32762	32628	
5041	0	32834	32612	
5042	0	32768	32704	
5043	0	32596	32802	
5044	0	32724	32838	
5045	0	32692	32810	
5046	0	32644	32730	
5047	0	32840	32800	
5048	0	32716	32798	
5049	0	32714	32714	
5050	0	32800	32720	
5051	0	33090	32716	
5052	0	33024	32604	
5053	0	33190	32652	
5054	0	33056	32562	
5055	0	32908	32670	
5056	0	33012	32775	
5057	0	33184	32672	
5058	0	33214	32632	
5059	0	32896	32586	
5060	0	32576	32540	
5061	0	32490	32564	
5062	0	32340	32678	
5063	0	32224	32647	
5064	0	32292	32710	
5065	0	32324	32620	
5066	0	32480	32782	
5067	0	32454	32634	
5068	0	32398	32842	
5069	0	32488	32710	
5070	0	32556	32852	
5071	0	32790	32686	
5072	0	32732	32752	
5073	0	32784	32775	
5074	0	32872	32840	
5075	0	32944	32834	
5076	0	32944	32816	
5077	0	32832	32775	
5078	0	33070	32876	
5079	0	33192	32964	
5080	0	33340	32988	
5081	0	33124	32924	
5082	0	32976	32902	
5083	0	32768	32856	
5084	0	32612	32980	
5085	0	32596	32968	
5086	0	32588	32862	
5087	0	32636	32903	
5088	0	32664	32942	
5089	0	32652	32698	
5090	0	32756	32647	
5091	0	32848	32714	
5092	0	32836	32584	
5093	0	32780	32602	
5094	0	32792	32640	
5095	0	32948	32702	
5096	0	33144	32680	
5097	0	33364	32641	
5098	0	33508	32550	
5099	0	33340	32519	
5100	0	33172	32576	
5101	0	33144	32724	
5102	0	33358	32594	
5103	0	33156	32567	
5104	0	32980	32602	
5105	0	32812	32596	
5106	0	32666	32646	
5107	0	32684	32775	
5108	0	32588	32976	
5109	0	32676	32874	
5110	0	32624	32984	
5111	0	32552	33159	
5112	0	32404	33036	
5113	0	32596	32937	
5114	0	32774	32944	
5115	0	32836	32854	
5116	0	32588	32874	
5117	0	32460	32822	
5118	0	32516	32759	
5119	0	32540	32748	
5120	0	32572	32704	
5121	0	32746	32704	
5122	0	32824	32602	
5123	0	32770	32732	
5124	0	32796	32640	
5125	0	32648	32692	
5126	0	32638	32626	
5127	0	32758	32684	
5128	0	32676	32720	
5129	0	32818	32700	
5130	0	32808	32926	
5131	0	32758	32887	
5132	0	32560	33006	
5133	0	32572	33046	
5134	0	32512	32834	
5135	0	32622	32864	
5136	0	32808	32966	
5137	0	32974	32990	
5138	0	32956	32840	
5139	0	32938	32862	
5140	0	32910	32840	
5141	0	33120	32736	
5142	0	33120	32708	
5143	0	33012	32606	
5144	0	32924	32692	
5145	0	32938	32734	
5146	0	32960	32562	
5147	0	32786	32620	
5148	0	32856	32554	
5149	0	32888	32752	
5150	0	32724	32696	
5151	0	32772	32780	
5152	0	32940	32692	
5153	0	33088	32824	
5154	0	33018	32868	
5155	0	33068	32808	
5156	0	32940	32762	
5157	0	32864	32826	
5158	0	32906	32750	
5159	0	32762	32967	
5160	0	32556	32808	
5161	0	32432	32634	
5162	0	32260	32784	
5163	0	32196	32775	
5164	0	32220	32878	
5165	0	32144	32814	
5166	0	32274	32718	
5167	0	32496	32790	
5168	0	32750	32773	
5169	0	32966	32932	
5170	0	33092	32924	
5171	0	33180	32844	
5172	0	32956	32785	
5173	0	32934	32734	
5174	0	32842	32797	
5175	0	32880	32796	
5176	0	32936	32900	
5177	0	33060	32840	
5178	0	33032	32796	
5179	0	33012	32844	
5180	0	33034	32775	
5181	0	33032	32856	
5182	0	33104	32950	
5183	0	33140	32868	
5184	0	33120	32844	
5185	0	32986	32784	
5186	0	32784	32775	
5187	0	32646	32764	
5188	0	32600	32858	
5189	0	32750	32720	
5190	0	32676	32792	
5191	0	32668	32756	
5192	0	32746	32794	
5193	0	32808	32757	
5194	0	32774	32775	
5195	0	32704	32742	
5196	0	32956	32840	
5197	0	32926	32764	
5198	0	32682	32842	
5199	0	32712	32894	
5200	0	32768	32862	
5201	0	32928	32792	
5202	0	32870	32788	
5203	0	32898	32828	
5204	0	32886	32720	
5205	0	32886	32692	
5206	0	33054	32728	
5207	0	32988	32754	
5208	0	32804	32592	
5209	0	32748	32606	
5210	0	32738	32654	
5211	0	32772	32690	
5212	0	32866	32672	
5213	0	32674	32665	
5214	0	32540	32582	
5215	0	32680	32678	
5216	0	32688	32674	
5217	0	32808	32676	
5218	0	32932	32614	
5219	0	32940	32664	
5220	0	32786	32548	
5221	0	32776	32688	
5222	0	32856	32718	
5223	0	32760	32874	
5224	0	32790	32860	
5225	0	32864	32940	
5226	0	32888	32944	
5227	0	32820	33038	
5228	0	32776	33024	
5229	0	32776	32922	
5230	0	32848	32956	
5231	0	32894	32916	
5232	0	32916	32951	
5233	0	32844	32886	
5234	0	32948	32920	
5235	0	32953	32882	
5236	0	32992	32788	
5237	0	32986	32670	
5238	0	32908	32519	
5239	0	32772	32410	
5240	0	32694	32458	
5241	0	32764	32476	
5242	0	32612	32452	
5243	0	32716	32494	
5244	0	32742	32478	
5245	0	32690	32518	
5246	0	32660	32420	
5247	0	32632	32452	
5248	0	32774	32239	
5249	0	32684	32210	
5250	0	32664	32160	
5251	0	32676	32278	
5252	0	32778	32295	
5253	0	32668	32276	
5254	0	32640	32304	
5255	0	32672	32170	
5256	0	32704	32256	
5257	0	32772	32263	
5258	0	32876	32408	
5259	0	32872	32454	
5260	0	32824	32399	
5261	0	32904	32556	
5262	0	33024	32508	
5263	0	32996	32586	
5264	0	32928	32698	
5265	0	32920	32654	
5266	0	32856	32892	
5267	0	32994	32784	
5268	0	32824	32832	
5269	0	32768	32914	
5270	0	32814	32920	
5271	0	32848	33002	
5272	0	32938	33028	
5273	0	32856	33114	
5274	0	32752	32958	
5275	0	32810	33148	
5276	0	32872	33118	
5277	0	32826	33064	
5278	0	32898	32998	
5279	0	32728	32858	
5280	0	32680	32966	
5281	0	32764	32908	
5282	0	32728	32962	
5283	0	32708	32914	
5284	0	32894	32966	
5285	0	32820	32944	
5286	0	32844	32852	
5287	0	32988	32960	
5288	0	33052	33000	
5289	0	33154	32976	
5290	0	32842	32956	
5291	0	32814	32902	
5292	0	32648	32903	
5293	0	32468	32784	
5294	0	32552	32928	
5295	0	32654	32922	
5296	0	32600	32932	
5297	0	32644	32884	
5298	0	32692	32818	
5299	0	32738	32828	
5300	0	32746	32812	
5301	0	32732	32910	
5302	0	32802	32902	
5303	0	32944	32866	
5304	0	32824	32836	
5305	0	32878	33002	
5306	0	32816	32890	
5307	0	32888	32806	
5308	0	32894	32906	
5309	0	32796	32936	
5310	0	32832	32940	
5311	0	32832	32876	
5312	0	32816	32748	
5313	0	32766	32716	
5314	0	32724	32624	
5315	0	32836	32732	
5316	0	32932	32708	
5317	0	32854	32775	
5318	0	32868	32810	
5319	0	32924	32695	
5320	0	33076	32788	
5321	0	33020	32740	
5322	0	32936	32794	
5323	0	33000	32884	
5324	0	32854	32880	
5325	0	32792	32758	
5326	0	32834	32870	
5327	0	32720	32678	
5328	0	32772	32812	
5329	0	32638	32614	
5330	0	32652	32710	
5331	0	32624	32625	
5332	0	32864	32694	
5333	0	32948	32612	
5334	0	33056	32807	
5335	0	32916	32766	
5336	0	32760	32800	
5337	0	32728	32775	
5338	0	32900	32770	
5339	0	32916	32892	
5340	0	32772	32708	
5341	0	32860	32820	
5342	0	32884	32766	
5343	0	32852	32724	
5344	0	32940	32762	
5345	0	32808	32684	
5346	0	32786	32644	
5347	0	32752	32540	
5348	0	32714	32602	
5349	0	32628	32390	
5350	0	32720	32572	
5351	0	32776	32508	
5352	0	32864	32697	
5353	0	32848	32686	
5354	0	32872	32742	
5355	0	32836	32720	
5356	0	32792	32688	
5357	0	32764	32848	
5358	0	32588	32678	
5359	0	32542	32802	
5360	0	32844	32764	
5361	0	32974	32674	
5362	0	33000	32775	
5363	0	32844	32674	
5364	0	32842	32804	
5365	0	32956	32696	
5366	0	32940	32880	
5367	0	32858	32808	
5368	0	33082	32740	
5369	0	32992	32784	
5370	0	32776	32786	
5371	0	32706	32732	
5372	0	32828	32736	
5373	0	32800	32775	
5374	0	32720	32816	
5375	0	32666	32846	
5376	0	32644	32878	
5377	0	32764	32952	
5378	0	32732	32903	
5379	0	32760	32888	
5380	0	32772	32948	
5381	0	32888	33062	
5382	0	32804	32968	
5383	0	32756	33060	
5384	0	32736	33074	
5385	0	32812	33060	
5386	0	32760	33134	
5387	0	32832	33072	
5388	0	32848	33092	
5389	0	32852	33058	
5390	0	32860	33100	
5391	0	32752	33118	
5392	0	32864	33098	
5393	0	32796	33064	
5394	0	32824	33102	
5395	0	32778	33148	
5396	0	32744	33102	
5397	0	32708	33095	
5398	0	32828	32990	
5399	0	32790	32930	
5400	0	32620	32898	
5401	0	32782	32766	
5402	0	32874	32768	
5403	0	32892	32664	
5404	0	32852	32814	
5405	0	32860	32775	
5406	0	32724	32676	
5407	0	32816	32538	
5408	0	32834	32647	
5409	0	32744	32436	
5410	0	32634	32252	
5411	0	32704	32282	
5412	0	32652	32222	
5413	0	32784	32453	
5414	0	32646	32376	
5415	0	32452	32326	
5416	0	32593	32446	
5417	0	32726	32512	
5418	0	32820	32394	
5419	0	32804	32398	
5420	0	32920	32330	
5421	0	32910	32296	
5422	0	32898	32380	
5423	0	32892	32460	
5424	0	32876	32480	
5425	0	32864	32640	
5426	0	32902	32706	
5427	0	32832	32744	
5428	0	32868	32884	
5429	0	32844	32902	
5430	0	32744	33086	
5431	0	32700	33060	
5432	0	32706	33164	
5433	0	32864	33266	
5434	0	32868	33244	
5435	0	32894	33260	
5436	0	32992	33380	
5437	0	33040	33262	
5438	0	32960	33228	
5439	0	32988	33088	
5440	0	32856	33054	
5441	0	32744	32854	
5442	0	32632	32807	
5443	0	32684	32674	
5444	0	32572	32564	
5445	0	32496	32254	
5446	0	32772	32452	
5447	0	32852	32378	
5448	0	32632	32192	
5449	0	32854	32230	
5450	0	32936	32185	
5451	0	32804	32196	
5452	0	32676	32212	
5453	0	32664	32263	
5454	0	32792	32254	
5455	0	32882	32294	
5456	0	32916	32308	
5457	0	32964	32464	
5458	0	32988	32356	
5459	0	32904	32564	
5460	0	32896	32556	
5461	0	32912	32772	
5462	0	32828	32647	
5463	0	32860	32744	
5464	0	32828	32538	
5465	0	32732	32292	
5466	0	32652	32263	
5467	0	32776	32132	
5468	0	32764	32244	
5469	0	32838	32166	
5470	0	32740	32294	
5471	0	32772	32464	
5472	0	32954	32652	
5473	0	32966	32870	
5474	0	33012	33144	
5475	0	32998	33218	
5476	0	32902	33233	
5477	0	32852	33372	
5478	0	32824	33360	
5479	0	32872	33450	
5480	0	32874	33364	
5481	0	32828	33542	
5482	0	32894	33400	
5483	0	32872	33444	
5484	0	32808	33212	
5485	0	32816	33112	
5486	0	32724	32900	
5487	0	32744	32908	
5488	0	32692	32864	
5489	0	32636	32880	
5490	0	32724	32935	
5491	0	32780	32716	
5492	0	32864	32612	
5493	0	32808	32332	
5494	0	32860	32468	
5495	0	32816	32468	
5496	0	32846	32647	
5497	0	32682	32688	
5498	0	32692	32708	
5499	0	32704	32682	
5500	0	32652	32752	
5501	0	32700	32820	
5502	0	32828	32876	
5503	0	32652	32792	
5504	0	32744	32904	
5505	0	32768	32984	
5506	0	32812	33026	
5507	0	32809	32965	
5508	0	32900	32983	
5509	0	32936	32924	
5510	0	33120	33052	
5511	0	33032	32724	
5512	0	32820	32638	
5513	0	32844	32720	
5514	0	32824	32737	
5515	0	32832	32831	
5516	0	32868	32848	
5517	0	32868	33000	
5518	0	32750	33044	
5519	0	32832	32998	
5520	0	32768	33118	
5521	0	32938	33018	
5522	0	32788	33168	
5523	0	32774	33072	
5524	0	32592	33086	
5525	0	32577	32948	
5526	0	32732	32940	
5527	0	32748	32870	
5528	0	32688	32686	
5529	0	32740	32576	
5530	0	32768	32362	
5531	0	32904	32359	
5532	0	32984	32262	
5533	0	32876	32252	
5534	0	32884	32236	
5535	0	32862	32328	
5536	0	32746	32304	
5537	0	32736	32424	
5538	0	32704	32540	
5539	0	32670	32736	
5540	0	32752	32926	
5541	0	32710	32896	
5542	0	32708	33144	
5543	0	32916	33058	
5544	0	32988	32996	
5545	0	32900	32828	
5546	0	33072	32836	
5547	0	32994	32679	
5548	0	32948	32680	
5549	0	32874	32484	
5550	0	32744	32448	
5551	0	32644	32502	
5552	0	32718	32482	
5553	0	32744	32610	
5554	0	32876	32568	
5555	0	32790	32679	
5556	0	32834	32802	
5557	0	32904	32732	
5558	0	32868	32846	
5559	0	32798	32830	
5560	0	32676	32842	
5561	0	32732	32740	
5562	0	32910	32751	
5563	0	32896	32754	
5564	0	32924	32896	
5565	0	32788	32706	
5566	0	32816	32826	
5567	0	32836	32732	
5568	0	32822	32916	
5569	0	32712	32774	
5570	0	32772	32866	
5571	0	32834	32740	
5572	0	32744	32774	
5573	0	32720	32647	
5574	0	32724	32732	
5575	0	32744	32716	
5576	0	32826	32750	
5577	0	32824	32836	
5578	0	32846	32992	
5579	0	32960	32992	
5580	0	32994	32972	
5581	0	32892	33044	
5582	0	32820	33059	
5583	0	32868	33058	
5584	0	32720	33024	
5585	0	32812	32958	
5586	0	32828	32884	
5587	0	32820	32930	
5588	0	32848	32944	
5589	0	32804	32934	
5590	0	32868	32902	
5591	0	32804	32874	
5592	0	32762	32866	
5593	0	32688	32774	
5594	0	32722	32699	
5595	0	32884	32746	
5596	0	32778	32662	
5597	0	32748	32728	
5598	0	32832	32666	
5599	0	32832	32602	
5600	0	32804	32518	
5601	0	32778	32638	
5602	0	32802	32598	
5603	0	32826	32645	
5604	0	32900	32642	
5605	0	32888	32700	
5606	0	32864	32615	
5607	0	32836	32678	
5608	0	32938	32774	
5609	0	33068	32836	
5610	0	32864	32796	
5611	0	32800	32678	
5612	0	32744	32688	
5613	0	32724	32564	
5614	0	32646	32600	
5615	0	32640	32660	
5616	0	32644	32724	
5617	0	32604	32652	
5618	0	32840	32666	
5619	0	32928	32646	
5620	0	32784	32786	
5621	0	32928	32672	
5622	0	32858	32772	
5623	0	32644	32774	
5624	0	32782	32854	
5625	0	32948	32746	
5626	0	32892	32654	
5627	0	32964	32476	
5628	0	32882	32246	
5629	0	32876	32196	
5630	0	32832	32042	
5631	0	32706	32183	
5632	0	32544	32290	
5633	0	32646	32378	
5634	0	32736	32394	
5635	0	32888	32647	
5636	0	32852	32640	
5637	0	32766	32602	
5638	0	32838	32682	
5639	0	32886	32842	
5640	0	32846	32940	
5641	0	32728	32612	
5642	0	32756	32788	
5643	0	32810	32784	
5644	0	32612	32912	
5645	0	32754	33088	
5646	0	32754	33222	
5647	0	32896	33150	
5648	0	33056	33128	
5649	0	32958	33046	
5650	0	32900	32972	
5651	0	32888	33038	
5652	0	32852	33062	
5653	0	32766	33096	
5654	0	32644	33030	
5655	0	32688	33143	
5656	0	32802	33054	
5657	0	32798	33088	
5658	0	32680	33058	
5659	0	32666	33254	
5660	0	32682	33242	
5661	0	32724	33332	
5662	0	32820	33330	
5663	0	32988	33344	
5664	0	32922	33326	
5665	0	32908	33250	
5666	0	32996	33095	
5667	0	32888	32900	
5668	0	32776	32934	
5669	0	32836	32849	
5670	0	32824	32900	
5671	0	32816	32914	
5672	0	32876	33020	
5673	0	32812	32956	
5674	0	32752	32760	
5675	0	32808	32828	
5676	0	32856	32928	
5677	0	32802	32860	
5678	0	32852	32710	
5679	0	32810	32808	
5680	0	32808	32714	
5681	0	32828	32642	
5682	0	32778	32618	
5683	0	32672	32448	
5684	0	32712	32318	
5685	0	32740	32444	
5686	0	32660	32316	
5687	0	32710	32316	
5688	0	32768	32240	
5689	0	32760	32406	
5690	0	32848	32449	
5691	0	32808	32404	
5692	0	32904	32558	
5693	0	32916	32368	
5694	0	32892	32600	
5695	0	32816	32725	
5696	0	32800	32790	
5697	0	32758	32734	
5698	0	32770	32836	
5699	0	32808	32798	
5700	0	32816	32942	
5701	0	32704	32830	
5702	0	32806	32970	
5703	0	32916	32775	
5704	0	32992	32866	
5705	0	32880	32714	
5706	0	32932	32822	
5707	0	32898	32680	
5708	0	32816	32836	
5709	0	32756	32902	
5710	0	32834	32807	
5711	0	32724	32934	
5712	0	32820	32772	
5713	0	32868	32760	
5714	0	32824	32736	
5715	0	32872	32702	
5716	0	32804	32626	
5717	0	32764	32660	
5718	0	32740	32679	
5719	0	32688	32704	
5720	0	32738	32660	
5721	0	32775	32718	
5722	0	32708	32802	
5723	0	32780	32888	
5724	0	32916	32794	
5725	0	32958	32972	
5726	0	32924	32871	
5727	0	32916	32892	
5728	0	32862	32660	
5729	0	32866	32644	
5730	0	32774	32504	
5731	0	32826	32560	
5732	0	32832	32566	
5733	0	32716	32640	
5734	0	32692	32642	
5735	0	32740	32724	
5736	0	32676	32689	
5737	0	32676	32786	
5738	0	32692	32728	
5739	0	32730	32788	
5740	0	32718	32752	
5741	0	32856	32874	
5742	0	33050	32892	
5743	0	32972	33064	
5744	0	33010	33014	
5745	0	32892	32884	
5746	0	32836	32860	
5747	0	32922	32728	
5748	0	32848	32558	
5749	0	32714	32622	
5750	0	32628	32653	
5751	0	32712	32668	
5752	0	32704	32596	
5753	0	32722	32654	
5754	0	32700	32580	
5755	0	32812	32772	
5756	0	32856	32652	
5757	0	32832	32708	
5758	0	32858	32880	
5759	0	32930	32966	
5760	0	32864	32970	
5761	0	32832	32984	
5762	0	32906	32798	
5763	0	32892	33008	
5764	0	32796	32890	
5765	0	32736	32880	
5766	0	32770	32806	
5767	0	32810	32902	
5768	0	32610	32774	
5769	0	32724	32836	
5770	0	32822	32844	
5771	0	32716	32948	
5772	0	32720	32876	
5773	0	32892	32706	
5774	0	32780	32878	
5775	0	32844	32770	
5776	0	32880	32812	
5777	0	32896	32762	
5778	0	32914	32816	
5779	0	32864	32852	
5780	0	32792	32676	
5781	0	32780	32932	
5782	0	32602	32832	
5783	0	32904	32758	
5784	0	32924	32607	
5785	0	32834	32631	
5786	0	32800	32542	
5787	0	32872	32592	
5788	0	32862	32642	
5789	0	32992	32656	
5790	0	32852	32704	
5791	0	32936	32710	
5792	0	32836	32714	
5793	0	32856	32790	
5794	0	32828	32666	
5795	0	32780	32580	
5796	0	32760	32676	
5797	0	32584	32644	
5798	0	32616	32682	
5799	0	32748	32642	
5800	0	32792	32734	
5801	0	32810	32766	
5802	0	32898	32922	
5803	0	32936	32928	
5804	0	32800	32952	
5805	0	32812	32934	
5806	0	32864	32824	
5807	0	32816	32790	
5808	0	32804	32724	
5809	0	32878	32792	
5810	0	32780	32730	
5811	0	32778	32693	
5812	0	32840	32716	
5813	0	32904	32716	
5814	0	32842	32670	
5815	0	32764	32644	
5816	0	32768	32658	
5817	0	32818	32548	
5818	0	32800	32626	
5819	0	32718	32673	
5820	0	32746	32628	
5821	0	32788	32618	
5822	0	32728	32692	
5823	0	32824	32674	
5824	0	32804	32762	
5825	0	32808	32708	
5826	0	32856	32806	
5827	0	32954	32916	
5828	0	32856	32911	
5829	0	32804	32903	
5830	0	32748	32868	
5831	0	32768	32830	
5832	0	32720	32832	
5833	0	32852	32688	
5834	0	32794	32838	
5835	0	32810	32775	
5836	0	32758	32798	
5837	0	32628	32748	
5838	0	32652	32894	
5839	0	32748	32824	
5840	0	32840	32976	
5841	0	32938	32858	
5842	0	32860	32903	
5843	0	32768	32844	
5844	0	32852	32864	
5845	0	32880	32838	
5846	0	32882	32796	
5847	0	32878	32682	
5848	0	32812	32764	
5849	0	32758	32775	
5850	0	32800	32674	
5851	0	32724	32668	
5852	0	32732	32617	
5853	0	32764	32719	
5854	0	32784	32748	
5855	0	32792	32720	
5856	0	32778	32768	
5857	0	32764	32718	
5858	0	32800	32792	
5859	0	32896	32708	
5860	0	32818	32832	
5861	0	32908	32916	
5862	0	32860	32734	
5863	0	32816	32772	
5864	0	32784	32838	
5865	0	32790	32838	
5866	0	32760	32868	
5867	0	32764	32836	
5868	0	32796	32986	
5869	0	32856	32908	
5870	0	32836	32988	
5871	0	32880	32862	
5872	0	32780	32766	
5873	0	32756	32736	
5874	0	32618	32759	
5875	0	32687	32562	
5876	0	32590	32828	
5877	0	32522	32834	
5878	0	32694	32992	
5879	0	32762	32775	
5880	0	32772	32996	
5881	0	32868	32928	
5882	0	32776	32836	
5883	0	32794	32775	
5884	0	32744	32604	
5885	0	32770	32756	
5886	0	32742	32620	
5887	0	32808	32644	
5888	0	32812	32622	
5889	0	32866	32688	
5890	0	32912	32634	
5891	0	33040	32718	
5892	0	33054	32620	
5893	0	33028	32692	
5894	0	33104	32704	
5895	0	33152	32628	
5896	0	33112	32584	
5897	0	33242	32618	
5898	0	33120	32592	
5899	0	33032	32678	
5900	0	32904	32592	
5901	0	33034	32772	
5902	0	32980	32688	
5903	0	32892	32772	
5904	0	32950	32720	
5905	0	32964	32993	
5906	0	32674	32964	
5907	0	32612	32976	
5908	0	32612	32870	
5909	0	32652	32992	
5910	0	32608	32884	
5911	0	32672	32950	
5912	0	32512	32788	
5913	0	32580	32832	
5914	0	32536	32632	
5915	0	32472	32682	
5916	0	32612	32784	
5917	0	32694	32788	
5918	0	32726	32712	
5919	0	32708	32808	
5920	0	32760	32682	
5921	0	32750	32852	
5922	0	32784	32848	
5923	0	32728	32788	
5924	0	32716	32672	
5925	0	32788	32820	
5926	0	32882	32834	
5927	0	32824	32888	
5928	0	32988	32832	
5929	0	32916	32770	
5930	0	32800	32686	
5931	0	32804	32842	
5932	0	32648	32660	
5933	0	32780	32814	
5934	0	32868	32692	
5935	0	32778	32926	
5936	0	32894	32968	
5937	0	32988	32972	
5938	0	32940	32918	
5939	0	32760	32734	
5940	0	32730	32533	
5941	0	32640	32624	
5942	0	32728	32482	
5943	0	32752	32672	
5944	0	32856	32676	
5945	0	32832	32692	
5946	0	32898	32664	
5947	0	32913	32672	
5948	0	32800	32727	
5949	0	32856	32642	
5950	0	32816	32710	
5951	0	32920	32596	
5952	0	32844	32743	
5953	0	32884	32744	
5954	0	32834	32868	
5955	0	32784	32799	
5956	0	32752	32896	
5957	0	32740	32906	
5958	0	32800	32788	
5959	0	32844	32758	
5960	0	32848	32852	
5961	0	32904	32824	
5962	0	32868	32800	
5963	0	32868	32850	
5964	0	32852	32902	
5965	0	32860	32756	
5966	0	32788	32824	
5967	0	32832	32736	
5968	0	32820	32670	
5969	0	32700	32716	
5970	0	32760	32775	
5971	0	32700	32868	
5972	0	32764	32831	
5973	0	32716	32830	
5974	0	32712	32832	
5975	0	32718	32720	
5976	0	32768	32678	
5977	0	32808	32632	
5978	0	32760	32774	
5979	0	32908	32720	
5980	0	32936	32852	
5981	0	32838	32700	
5982	0	32878	32824	
5983	0	32842	32828	
5984	0	32806	32821	
5985	0	32856	32842	
5986	0	32740	32844	
5987	0	32796	32832	
5988	0	32844	32736	
5989	0	32848	32798	
5990	0	32960	32716	
5991	0	32776	32775	
5992	0	32836	32736	
5993	0	32812	32828	
5994	0	32756	32774	
5995	0	32816	32754	
5996	0	32932	32706	
5997	0	32724	32640	
5998	0	32864	32724	
5999	0	32772	32860	
6000	0	32772	32612	
6001	0	32802	32676	
6002	0	32802	32704	
6003	0	32768	32775	
6004	0	32880	32716	
6005	0	32868	32740	
6006	0	32812	32840	
6007	0	32738	32804	
6008	0	32810	32770	
6009	0	32700	32807	
6010	0	32700	32828	
6011	0	32772	32686	
6012	0	32772	32807	
