# OpenSignals Text File Format. Version 1
# {"00:07:80:8C:0A:39": {"position": 0, "device": "biosignalsplux", "device name": "00:07:80:8C:0A:39", "device connection": "BTH00:07:80:8C:0A:39", "sampling rate": 1000, "resolution": [16, 16], "firmware version": 776, "comments": "", "keywords": "", "mode": 0, "sync interval": 2, "date": "2023-3-19", "time": "11:20:5.528", "channels": [1, 2], "sensor": ["EMG", "EMG"], "label": ["CH1", "CH2"], "column": ["nSeq", "DI", "CH1", "CH2"], "special": [{"SpO2": [80, 40, 5, 4, 3, 3]}, {"SpO2": [80, 40, 5, 4, 3, 3]}, {"SpO2": [80, 40, 5, 4, 3, 3]}, {"SpO2": [80, 40, 5, 4, 3, 3]}, {"SpO2": [80, 40, 5, 4, 3, 3]}, {"SpO2": [80, 40, 5, 4, 3, 3]}, {"SpO2": [80, 40, 5, 4, 3, 3]}, {"SpO2": [80, 40, 5, 4, 3, 3]}], "digital IO": [0, 1], "sleeve color": ["gray", "yellow"], "convertedValues": 0}}
# EndOfHeader
0	0	32776	32624	
1	0	32740	32791	
2	0	32738	32706	
3	0	32790	32758	
4	0	32824	32814	
5	0	32772	32775	
6	0	32792	32668	
7	0	32740	32740	
8	0	32844	32730	
9	0	32824	32744	
10	0	32808	32712	
11	0	32798	32704	
12	0	32880	32724	
13	0	32800	32852	
14	0	32792	32714	
15	0	32775	32800	
16	0	32812	32690	
17	0	32798	32871	
18	0	32856	32754	
19	0	32778	32668	
20	0	32826	32727	
21	0	32812	32790	
22	0	32800	32682	
23	0	32748	32876	
24	0	32800	32694	
25	0	32926	32788	
26	0	32862	32716	
27	0	32874	32820	
28	0	32836	32838	
29	0	32858	32718	
30	0	32760	32817	
31	0	32792	32770	
32	0	32824	32808	
33	0	32762	32668	
34	0	32808	32844	
35	0	32768	32796	
36	0	32724	32764	
37	0	32828	32678	
38	0	32788	32804	
39	0	32794	32838	
40	0	32784	32746	
41	0	32808	32835	
42	0	32880	32835	
43	0	32836	32735	
44	0	32792	32852	
45	0	32792	32800	
46	0	32836	32657	
47	0	32786	32830	
48	0	32798	32704	
49	0	32820	32644	
50	0	32848	32738	
51	0	32814	32816	
52	0	32834	32757	
53	0	32808	32820	
54	0	32821	32796	
55	0	32800	32782	
56	0	32924	32650	
57	0	32804	32812	
58	0	32810	32784	
59	0	32849	32682	
60	0	32834	32788	
61	0	32782	32830	
62	0	32832	32759	
63	0	32816	32820	
64	0	32872	32807	
65	0	32836	32732	
66	0	32740	32814	
67	0	32852	32822	
68	0	32814	32646	
69	0	32844	32838	
70	0	32852	32800	
71	0	32864	32743	
72	0	32876	32847	
73	0	32824	32740	
74	0	32796	32686	
75	0	32780	32679	
76	0	32796	32722	
77	0	32806	32753	
78	0	32764	32900	
79	0	32804	32794	
80	0	32790	32852	
81	0	32824	32623	
82	0	32814	32830	
83	0	32784	32760	
84	0	32824	32676	
85	0	32764	32798	
86	0	32812	32810	
87	0	32806	32759	
88	0	32832	32712	
89	0	32828	32746	
90	0	32788	32825	
91	0	32824	32686	
92	0	32862	32895	
93	0	32834	32826	
94	0	32864	32692	
95	0	32768	32650	
96	0	32916	32756	
97	0	32788	32839	
98	0	32848	32684	
99	0	32814	32810	
100	0	32774	32816	
101	0	32800	32638	
102	0	32824	32794	
103	0	32780	32716	
104	0	32792	32724	
105	0	32810	32760	
106	0	32800	32730	
107	0	32872	32785	
108	0	32858	32678	
109	0	32834	32784	
110	0	32800	32786	
111	0	32820	32799	
112	0	32772	32706	
113	0	32680	32832	
114	0	32752	32748	
115	0	32836	32804	
116	0	32848	32738	
117	0	32796	32830	
118	0	32884	32808	
119	0	32784	32800	
120	0	32816	32740	
121	0	32826	32678	
122	0	32736	32748	
123	0	32816	32754	
124	0	32808	32858	
125	0	32760	32740	
126	0	32794	32692	
127	0	32792	32755	
128	0	32838	32792	
129	0	32772	32644	
130	0	32820	32888	
131	0	32874	32792	
132	0	32796	32868	
133	0	32794	32802	
134	0	32860	32765	
135	0	32792	32848	
136	0	32864	32732	
137	0	32836	32804	
138	0	32753	32604	
139	0	32860	32666	
140	0	32816	32752	
141	0	32814	32738	
142	0	32800	32818	
143	0	32828	32686	
144	0	32832	32842	
145	0	32791	32756	
146	0	32840	32804	
147	0	32848	32674	
148	0	32780	32760	
149	0	32786	32792	
150	0	32886	32825	
151	0	32860	32846	
152	0	32788	32655	
153	0	32792	32804	
154	0	32764	32849	
155	0	32874	32816	
156	0	32776	32686	
157	0	32844	32728	
158	0	32804	32808	
159	0	32792	32742	
160	0	32868	32775	
161	0	32824	32650	
162	0	32772	32771	
163	0	32810	32784	
164	0	32806	32847	
165	0	32824	32736	
166	0	32816	32701	
167	0	32780	32744	
168	0	32802	32812	
169	0	32834	32831	
170	0	32852	32742	
171	0	32786	32734	
172	0	32828	32729	
173	0	32884	32783	
174	0	32846	32796	
175	0	32824	32760	
176	0	32724	32775	
177	0	32750	32903	
178	0	32800	32740	
179	0	32848	32844	
180	0	32810	32775	
181	0	32792	32670	
182	0	32848	32856	
183	0	32800	32762	
184	0	32842	32628	
185	0	32796	32864	
186	0	32814	32804	
187	0	32784	32756	
188	0	32808	32758	
189	0	32830	32807	
190	0	32844	32724	
191	0	32820	32862	
192	0	32848	32752	
193	0	32872	32818	
194	0	32854	32836	
195	0	32816	32647	
196	0	32842	32834	
197	0	32840	32812	
198	0	32776	32727	
199	0	32820	32759	
200	0	32784	32868	
201	0	32746	32618	
202	0	32798	32866	
203	0	32768	32800	
204	0	32775	32695	
205	0	32814	32854	
206	0	32796	32800	
207	0	32746	32652	
208	0	32770	32852	
209	0	32820	32792	
210	0	32844	32750	
211	0	32836	32756	
212	0	32836	32743	
213	0	32798	32839	
214	0	32756	32806	
215	0	32788	32814	
216	0	32816	32814	
217	0	32784	32743	
218	0	32732	32820	
219	0	32760	32767	
220	0	32886	32804	
221	0	32828	32799	
222	0	32844	32746	
223	0	32758	32735	
224	0	32696	32870	
225	0	32788	32744	
226	0	32764	32794	
227	0	32810	32740	
228	0	32780	32710	
229	0	32820	32807	
230	0	32876	32775	
231	0	32804	32716	
232	0	32746	32722	
233	0	32776	32860	
234	0	32764	32695	
235	0	32824	32808	
236	0	32844	32695	
237	0	32780	32799	
238	0	32826	32754	
239	0	32774	32756	
240	0	32784	32870	
241	0	32792	32730	
242	0	32760	32622	
243	0	32848	32814	
244	0	32816	32766	
245	0	32858	32676	
246	0	32796	32774	
247	0	32814	32751	
248	0	32860	32706	
249	0	32868	32788	
250	0	32852	32836	
251	0	32864	32704	
252	0	32798	32809	
253	0	32762	32807	
254	0	32792	32750	
255	0	32852	32708	
256	0	32812	32791	
257	0	32836	32847	
258	0	32848	32775	
259	0	32808	32748	
260	0	32754	32732	
261	0	32844	32793	
262	0	32816	32734	
263	0	32846	32766	
264	0	32806	32760	
265	0	32852	32708	
266	0	32820	32739	
267	0	32773	32860	
268	0	32780	32682	
269	0	32812	32768	
270	0	32804	32807	
271	0	32774	32663	
272	0	32860	32816	
273	0	32810	32843	
274	0	32802	32870	
275	0	32836	32736	
276	0	32804	32692	
277	0	32872	32878	
278	0	32802	32762	
279	0	32744	32718	
280	0	32768	32756	
281	0	32850	32832	
282	0	32776	32760	
283	0	32840	32775	
284	0	32764	32686	
285	0	32804	32836	
286	0	32816	32832	
287	0	32736	32706	
288	0	32848	32819	
289	0	32802	32722	
290	0	32824	32775	
291	0	32824	32775	
292	0	32878	32742	
293	0	32824	32711	
294	0	32824	32698	
295	0	32840	32775	
296	0	32796	32714	
297	0	32848	32862	
298	0	32788	32726	
299	0	32780	32792	
300	0	32776	32764	
301	0	32832	32738	
302	0	32784	32806	
303	0	32836	32680	
304	0	32780	32826	
305	0	32772	32796	
306	0	32808	32798	
307	0	32828	32820	
308	0	32848	32754	
309	0	32820	32715	
310	0	32836	32824	
311	0	32784	32742	
312	0	32810	32668	
313	0	32833	32799	
314	0	32838	32862	
315	0	32820	32726	
316	0	32834	32771	
317	0	32836	32816	
318	0	32796	32678	
319	0	32836	32726	
320	0	32825	32780	
321	0	32788	32814	
322	0	32788	32744	
323	0	32820	32823	
324	0	32828	32711	
325	0	32810	32738	
326	0	32826	32766	
327	0	32888	32730	
328	0	32842	32808	
329	0	32812	32812	
330	0	32780	32708	
331	0	32788	32816	
332	0	32782	32834	
333	0	32803	32756	
334	0	32810	32823	
335	0	32778	32842	
336	0	32828	32838	
337	0	32832	32888	
338	0	32860	32737	
339	0	32800	32855	
340	0	32796	32846	
341	0	32806	32656	
342	0	32810	32856	
343	0	32810	32774	
344	0	32812	32690	
345	0	32804	32868	
346	0	32866	32775	
347	0	32775	32676	
348	0	32844	32726	
349	0	32828	32709	
350	0	32816	32836	
351	0	32836	32814	
352	0	32754	32666	
353	0	32832	32728	
354	0	32850	32838	
355	0	32788	32788	
356	0	32808	32713	
357	0	32904	32831	
358	0	32796	32822	
359	0	32798	32754	
360	0	32748	32786	
361	0	32776	32860	
362	0	32804	32732	
363	0	32864	32839	
364	0	32815	32820	
365	0	32832	32636	
366	0	32788	32849	
367	0	32768	32784	
368	0	32812	32775	
369	0	32804	32672	
370	0	32872	32768	
371	0	32776	32764	
372	0	32796	32862	
373	0	32916	32693	
374	0	32822	32871	
375	0	32784	32792	
376	0	32764	32660	
377	0	32840	32810	
378	0	32804	32758	
379	0	32812	32775	
380	0	32816	32830	
381	0	32808	32750	
382	0	32796	32698	
383	0	32796	32846	
384	0	32830	32834	
385	0	32816	32690	
386	0	32728	32808	
387	0	32812	32728	
388	0	32812	32702	
389	0	32826	32801	
390	0	32832	32839	
391	0	32740	32742	
392	0	32768	32752	
393	0	32716	32754	
394	0	32806	32788	
395	0	32834	32663	
396	0	32850	32858	
397	0	32856	32752	
398	0	32850	32764	
399	0	32848	32654	
400	0	32832	32757	
401	0	32828	32838	
402	0	32800	32708	
403	0	32812	32774	
404	0	32841	32851	
405	0	32728	32710	
406	0	32808	32756	
407	0	32804	32812	
408	0	32802	32800	
409	0	32784	32668	
410	0	32848	32770	
411	0	32888	32748	
412	0	32848	32775	
413	0	32850	32908	
414	0	32814	32758	
415	0	32820	32792	
416	0	32848	32742	
417	0	32860	32834	
418	0	32868	32815	
419	0	32826	32808	
420	0	32816	32732	
421	0	32836	32808	
422	0	32834	32764	
423	0	32808	32775	
424	0	32844	32698	
425	0	32796	32732	
426	0	32840	32802	
427	0	32798	32766	
428	0	32810	32826	
429	0	32786	32814	
430	0	32804	32775	
431	0	32780	32692	
432	0	32798	32812	
433	0	32792	32700	
434	0	32820	32726	
435	0	32770	32814	
436	0	32744	32940	
437	0	32792	32735	
438	0	32838	32860	
439	0	32836	32794	
440	0	32840	32680	
441	0	32872	32828	
442	0	32832	32766	
443	0	32744	32738	
444	0	32824	32769	
445	0	32788	32788	
446	0	32780	32764	
447	0	32832	32806	
448	0	32792	32775	
449	0	32800	32798	
450	0	32832	32742	
451	0	32832	32676	
452	0	32804	32772	
453	0	32788	32772	
454	0	32902	32754	
455	0	32808	32752	
456	0	32800	32882	
457	0	32826	32830	
458	0	32792	32876	
459	0	32736	32720	
460	0	32820	32756	
461	0	32764	32738	
462	0	32780	32662	
463	0	32748	32805	
464	0	32776	32791	
465	0	32836	32775	
466	0	32782	32768	
467	0	32802	32808	
468	0	32836	32711	
469	0	32868	32770	
470	0	32842	32716	
471	0	32848	32852	
472	0	32796	32806	
473	0	32804	32704	
474	0	32832	32775	
475	0	32820	32796	
476	0	32802	32662	
477	0	32838	32796	
478	0	32792	32804	
479	0	32848	32794	
480	0	32764	32714	
481	0	32778	32774	
482	0	32798	32732	
483	0	32840	32741	
484	0	32854	32832	
485	0	32832	32710	
486	0	32844	32724	
487	0	32860	32764	
488	0	32812	32716	
489	0	32810	32798	
490	0	32872	32788	
491	0	32768	32818	
492	0	32784	32710	
493	0	32844	32816	
494	0	32864	32794	
495	0	32760	32790	
496	0	32832	32788	
497	0	32744	32814	
498	0	32838	32775	
499	0	32784	32718	
500	0	32766	32798	
501	0	32810	32720	
502	0	32790	32704	
503	0	32858	32754	
504	0	32812	32743	
505	0	32826	32746	
506	0	32782	32826	
507	0	32836	32814	
508	0	32816	32678	
509	0	32812	32775	
510	0	32796	32731	
511	0	32836	32639	
512	0	32784	32742	
513	0	32810	32724	
514	0	32836	32742	
515	0	32830	32882	
516	0	32880	32718	
517	0	32782	32692	
518	0	32792	32834	
519	0	32796	32775	
520	0	32820	32816	
521	0	32790	32698	
522	0	32816	32775	
523	0	32792	32774	
524	0	32820	32732	
525	0	32788	32696	
526	0	32836	32822	
527	0	32816	32798	
528	0	32860	32788	
529	0	32830	32794	
530	0	32768	32756	
531	0	32780	32743	
532	0	32814	32758	
533	0	32832	32743	
534	0	32822	32748	
535	0	32840	32796	
536	0	32816	32816	
537	0	32852	32714	
538	0	32780	32830	
539	0	32832	32692	
540	0	32844	32772	
541	0	32804	32660	
542	0	32810	32826	
543	0	32820	32764	
544	0	32788	32680	
545	0	32792	32766	
546	0	32868	32839	
547	0	32806	32694	
548	0	32830	32826	
549	0	32856	32712	
550	0	32828	32709	
551	0	32792	32862	
552	0	32836	32750	
553	0	32860	32750	
554	0	32806	32734	
555	0	32830	32756	
556	0	32840	32760	
557	0	32804	32764	
558	0	32775	32846	
559	0	32804	32788	
560	0	32808	32750	
561	0	32774	32686	
562	0	32808	32896	
563	0	32782	32775	
564	0	32788	32702	
565	0	32840	32718	
566	0	32856	32788	
567	0	32796	32751	
568	0	32820	32663	
569	0	32828	32718	
570	0	32756	32812	
571	0	32836	32854	
572	0	32790	32670	
573	0	32844	32775	
574	0	32828	32775	
575	0	32834	32814	
576	0	32764	32647	
577	0	32878	32760	
578	0	32808	32838	
579	0	32772	32710	
580	0	32784	32760	
581	0	32836	32670	
582	0	32808	32809	
583	0	32832	32794	
584	0	32778	32656	
585	0	32742	32756	
586	0	32856	32768	
587	0	32728	32806	
588	0	32824	32724	
589	0	32766	32750	
590	0	32832	32804	
591	0	32814	32844	
592	0	32834	32879	
593	0	32788	32763	
594	0	32772	32775	
595	0	32836	32775	
596	0	32810	32690	
597	0	32874	32792	
598	0	32788	32775	
599	0	32800	32665	
600	0	32832	32758	
601	0	32752	32798	
602	0	32768	32714	
603	0	32764	32750	
604	0	32794	32714	
605	0	32792	32830	
606	0	32780	32854	
607	0	32788	32618	
608	0	32832	32769	
609	0	32816	32775	
610	0	32864	32745	
611	0	32894	32738	
612	0	32786	32689	
613	0	32844	32878	
614	0	32828	32775	
615	0	32792	32724	
616	0	32904	32814	
617	0	32824	32772	
618	0	32788	32666	
619	0	32800	32770	
620	0	32844	32760	
621	0	32780	32700	
622	0	32848	32794	
623	0	32814	32678	
624	0	32876	32775	
625	0	32792	32676	
626	0	32772	32814	
627	0	32780	32836	
628	0	32804	32674	
629	0	32776	32819	
630	0	32818	32793	
631	0	32902	32732	
632	0	32756	32767	
633	0	32788	32887	
634	0	32776	32818	
635	0	32780	32775	
636	0	32782	32752	
637	0	32828	32766	
638	0	32764	32826	
639	0	32832	32718	
640	0	32782	32807	
641	0	32812	32698	
642	0	32800	32856	
643	0	32782	32813	
644	0	32782	32693	
645	0	32836	32800	
646	0	32844	32772	
647	0	32816	32827	
648	0	32756	32670	
649	0	32868	32756	
650	0	32832	32856	
651	0	32816	32870	
652	0	32852	32690	
653	0	32836	32871	
654	0	32812	32749	
655	0	32800	32703	
656	0	32792	32800	
657	0	32856	32808	
658	0	32776	32756	
659	0	32752	32775	
660	0	32844	32743	
661	0	32844	32752	
662	0	32832	32823	
663	0	32800	32903	
664	0	32788	32774	
665	0	32813	32836	
666	0	32868	32732	
667	0	32816	32750	
668	0	32768	32775	
669	0	32822	32756	
670	0	32842	32766	
671	0	32832	32760	
672	0	32788	32807	
673	0	32854	32832	
674	0	32800	32775	
675	0	32772	32734	
676	0	32836	32756	
677	0	32812	32867	
678	0	32870	32668	
679	0	32836	32764	
680	0	32802	32788	
681	0	32778	32710	
682	0	32786	32744	
683	0	32860	32764	
684	0	32820	32714	
685	0	32828	32786	
686	0	32834	32803	
687	0	32806	32692	
688	0	32753	32762	
689	0	32804	32734	
690	0	32788	32674	
691	0	32820	32800	
692	0	32848	32816	
693	0	32864	32726	
694	0	32804	32775	
695	0	32802	32863	
696	0	32849	32700	
697	0	32840	32828	
698	0	32828	32814	
699	0	32896	32764	
700	0	32774	32684	
701	0	32732	32784	
702	0	32762	32794	
703	0	32768	32654	
704	0	32764	32798	
705	0	32860	32742	
706	0	32805	32660	
707	0	32808	32694	
708	0	32826	32814	
709	0	32858	32801	
710	0	32808	32694	
711	0	32788	32772	
712	0	32892	32772	
713	0	32782	32812	
714	0	32784	32846	
715	0	32826	32824	
716	0	32838	32672	
717	0	32844	32792	
718	0	32768	32726	
719	0	32804	32830	
720	0	32844	32695	
721	0	32742	32808	
722	0	32798	32775	
723	0	32810	32760	
724	0	32774	32826	
725	0	32754	32713	
726	0	32792	32802	
727	0	32884	32668	
728	0	32832	32840	
729	0	32760	32684	
730	0	32818	32712	
731	0	32824	32852	
732	0	32846	32738	
733	0	32892	32684	
734	0	32800	32764	
735	0	32868	32724	
736	0	32772	32816	
737	0	32798	32704	
738	0	32788	32727	
739	0	32872	32700	
740	0	32836	32769	
741	0	32808	32736	
742	0	32804	32647	
743	0	32792	32816	
744	0	32768	32865	
745	0	32840	32679	
746	0	32784	32844	
747	0	32868	32788	
748	0	32832	32711	
749	0	32766	32774	
750	0	32808	32768	
751	0	32768	32688	
752	0	32811	32775	
753	0	32774	32808	
754	0	32756	32740	
755	0	32740	32740	
756	0	32826	32806	
757	0	32786	32702	
758	0	32840	32790	
759	0	32786	32775	
760	0	32828	32730	
761	0	32856	32716	
762	0	32794	32732	
763	0	32764	32750	
764	0	32828	32654	
765	0	32868	32808	
766	0	32836	32826	
767	0	32856	32678	
768	0	32836	32764	
769	0	32822	32659	
770	0	32878	32750	
771	0	32855	32792	
772	0	32804	32740	
773	0	32844	32828	
774	0	32804	32749	
775	0	32852	32758	
776	0	32792	32804	
777	0	32800	32798	
778	0	32729	32775	
779	0	32826	32818	
780	0	32808	32769	
781	0	32764	32818	
782	0	32774	32684	
783	0	32920	32828	
784	0	32858	32864	
785	0	32800	32711	
786	0	32820	32747	
787	0	32784	32740	
788	0	32802	32774	
789	0	32822	32686	
790	0	32780	32732	
791	0	32824	32775	
792	0	32856	32702	
793	0	32824	32838	
794	0	32820	32743	
795	0	32822	32774	
796	0	32824	32804	
797	0	32794	32808	
798	0	32824	32729	
799	0	32816	32844	
800	0	32794	32802	
801	0	32796	32798	
802	0	32794	32684	
803	0	32830	32792	
804	0	32860	32672	
805	0	32780	32826	
806	0	32858	32766	
807	0	32804	32748	
808	0	32832	32828	
809	0	32812	32816	
810	0	32788	32798	
811	0	32824	32808	
812	0	32778	32719	
813	0	32764	32652	
814	0	32818	32812	
815	0	32812	32800	
816	0	32860	32686	
817	0	32798	32828	
818	0	32860	32798	
819	0	32802	32734	
820	0	32762	32756	
821	0	32868	32754	
822	0	32782	32752	
823	0	32820	32751	
824	0	32840	32854	
825	0	32836	32678	
826	0	32740	32842	
827	0	32802	32806	
828	0	32792	32644	
829	0	32780	32796	
830	0	32786	32749	
831	0	32826	32744	
832	0	32820	32820	
833	0	32848	32800	
834	0	32812	32770	
835	0	32810	32786	
836	0	32832	32788	
837	0	32840	32792	
838	0	32830	32737	
839	0	32778	32822	
840	0	32852	32748	
841	0	32824	32738	
842	0	32736	32670	
843	0	32810	32774	
844	0	32836	32772	
845	0	32800	32748	
846	0	32814	32712	
847	0	32820	32750	
848	0	32788	32796	
849	0	32814	32734	
850	0	32852	32802	
851	0	32852	32880	
852	0	32796	32718	
853	0	32826	32820	
854	0	32766	32816	
855	0	32790	32722	
856	0	32852	32764	
857	0	32804	32775	
858	0	32818	32631	
859	0	32864	32794	
860	0	32862	32840	
861	0	32840	32670	
862	0	32820	32712	
863	0	32788	32746	
864	0	32864	32710	
865	0	32884	32679	
866	0	32916	32679	
867	0	32900	32623	
868	0	32836	32652	
869	0	32926	32593	
870	0	32912	32662	
871	0	32940	32694	
872	0	32912	32496	
873	0	32960	32673	
874	0	32968	32684	
875	0	32948	32586	
876	0	32952	32660	
877	0	32926	32711	
878	0	32938	32591	
879	0	32912	32738	
880	0	32912	32720	
881	0	32924	32686	
882	0	32862	32740	
883	0	32856	32828	
884	0	32820	32698	
885	0	32742	32862	
886	0	32676	32972	
887	0	32550	32942	
888	0	32538	33113	
889	0	32484	33220	
890	0	32416	33111	
891	0	32348	33436	
892	0	32212	33543	
893	0	32288	33280	
894	0	32508	33159	
895	0	32636	32960	
896	0	32692	32858	
897	0	32684	32900	
898	0	32778	32866	
899	0	32742	32836	
900	0	32768	32860	
901	0	32804	32848	
902	0	32840	32620	
903	0	32864	32694	
904	0	32892	32590	
905	0	32952	32556	
906	0	32948	32424	
907	0	32948	32508	
908	0	33034	32444	
909	0	32996	32424	
910	0	32960	32636	
911	0	32900	32578	
912	0	32984	32588	
913	0	33056	32593	
914	0	32928	32660	
915	0	32908	32696	
916	0	32944	32570	
917	0	32924	32640	
918	0	32852	32724	
919	0	32872	32838	
920	0	32878	32615	
921	0	32752	32743	
922	0	32762	32664	
923	0	32772	32716	
924	0	32840	32770	
925	0	32860	32670	
926	0	32878	32710	
927	0	32848	32714	
928	0	32816	32836	
929	0	32806	32792	
930	0	32812	32775	
931	0	32736	32756	
932	0	32812	32902	
933	0	32784	32738	
934	0	32864	32868	
935	0	32868	32808	
936	0	32832	32735	
937	0	32826	32828	
938	0	32840	32730	
939	0	32832	32792	
940	0	32778	32816	
941	0	32800	32840	
942	0	32808	32760	
943	0	32784	32751	
944	0	32772	32734	
945	0	32786	32838	
946	0	32800	32698	
947	0	32862	32823	
948	0	32838	32728	
949	0	32728	32743	
950	0	32840	32868	
951	0	32828	32775	
952	0	32832	32710	
953	0	32816	32806	
954	0	32790	32802	
955	0	32856	32716	
956	0	32796	32639	
957	0	32922	32798	
958	0	32871	32842	
959	0	32766	32627	
960	0	32792	32810	
961	0	32824	32748	
962	0	32730	32774	
963	0	32810	32652	
964	0	32746	32820	
965	0	32784	32752	
966	0	32836	32833	
967	0	32752	32734	
968	0	32808	32742	
969	0	32740	32760	
970	0	32828	32768	
971	0	32820	32748	
972	0	32844	32808	
973	0	32869	32802	
974	0	32784	32862	
975	0	32796	32646	
976	0	32774	32804	
977	0	32752	32808	
978	0	32784	32794	
979	0	32838	32732	
980	0	32824	32764	
981	0	32832	32802	
982	0	32798	32687	
983	0	32800	32798	
984	0	32798	32739	
985	0	32754	32876	
986	0	32760	32740	
987	0	32792	32812	
988	0	32764	32752	
989	0	32776	32840	
990	0	32856	32614	
991	0	32832	32810	
992	0	32828	32835	
993	0	32820	32726	
994	0	32808	32730	
995	0	32928	32768	
996	0	32784	32836	
997	0	32820	32676	
998	0	32800	32806	
999	0	32782	32764	
1000	0	32766	32738	
1001	0	32732	32732	
1002	0	32800	32814	
1003	0	32774	32758	
1004	0	32804	32742	
1005	0	32836	32678	
1006	0	32796	32782	
1007	0	32808	32820	
1008	0	32832	32636	
1009	0	32840	32716	
1010	0	32856	32762	
1011	0	32774	32868	
1012	0	32804	32728	
1013	0	32900	32846	
1014	0	32836	32822	
1015	0	32856	32817	
1016	0	32770	32708	
1017	0	32752	32900	
1018	0	32768	32758	
1019	0	32781	32673	
1020	0	32768	32788	
1021	0	32804	32848	
1022	0	32800	32663	
1023	0	32840	32720	
1024	0	32804	32766	
1025	0	32816	32816	
1026	0	32844	32754	
1027	0	32808	32768	
1028	0	32804	32762	
1029	0	32802	32686	
1030	0	32800	32817	
1031	0	32812	32764	
1032	0	32870	32752	
1033	0	32856	32774	
1034	0	32816	32736	
1035	0	32792	32736	
1036	0	32816	32704	
1037	0	32772	32808	
1038	0	32792	32842	
1039	0	32780	32702	
1040	0	32768	32754	
1041	0	32836	32814	
1042	0	32808	32881	
1043	0	32804	32732	
1044	0	32808	32694	
1045	0	32828	32834	
1046	0	32786	32728	
1047	0	32856	32788	
1048	0	32848	32647	
1049	0	32764	32840	
1050	0	32842	32734	
1051	0	32780	32807	
1052	0	32796	32732	
1053	0	32832	32798	
1054	0	32812	32846	
1055	0	32864	32666	
1056	0	32798	32760	
1057	0	32812	32710	
1058	0	32820	32710	
1059	0	32830	32746	
1060	0	32866	32775	
1061	0	32781	32728	
1062	0	32812	32712	
1063	0	32800	32788	
1064	0	32809	32790	
1065	0	32882	32743	
1066	0	32784	32840	
1067	0	32900	32774	
1068	0	32768	32791	
1069	0	32812	32683	
1070	0	32824	32764	
1071	0	32824	32796	
1072	0	32772	32654	
1073	0	32802	32816	
1074	0	32844	32775	
1075	0	32864	32694	
1076	0	32828	32692	
1077	0	32800	32726	
1078	0	32877	32804	
1079	0	32806	32772	
1080	0	32788	32816	
1081	0	32746	32772	
1082	0	32798	32722	
1083	0	32810	32828	
1084	0	32818	32756	
1085	0	32846	32736	
1086	0	32810	32804	
1087	0	32796	32854	
1088	0	32786	32724	
1089	0	32816	32754	
1090	0	32780	32775	
1091	0	32780	32764	
1092	0	32810	32753	
1093	0	32856	32852	
1094	0	32800	32748	
1095	0	32828	32896	
1096	0	32784	32806	
1097	0	32820	32758	
1098	0	32840	32756	
1099	0	32800	32807	
1100	0	32800	32711	
1101	0	32936	32794	
1102	0	32808	32817	
1103	0	32746	32751	
1104	0	32810	32775	
1105	0	32838	32748	
1106	0	32840	32720	
1107	0	32812	32620	
1108	0	32800	32756	
1109	0	32796	32752	
1110	0	32856	32647	
1111	0	32834	32868	
1112	0	32828	32775	
1113	0	32794	32718	
1114	0	32826	32755	
1115	0	32828	32816	
1116	0	32796	32792	
1117	0	32802	32772	
1118	0	32868	32842	
1119	0	32774	32658	
1120	0	32794	32857	
1121	0	32736	32732	
1122	0	32856	32700	
1123	0	32792	32878	
1124	0	32812	32761	
1125	0	32832	32658	
1126	0	32772	32798	
1127	0	32760	32842	
1128	0	32884	32726	
1129	0	32804	32806	
1130	0	32862	32831	
1131	0	32802	32775	
1132	0	32808	32814	
1133	0	32849	32702	
1134	0	32768	32682	
1135	0	32784	32802	
1136	0	32792	32724	
1137	0	32814	32839	
1138	0	32812	32716	
1139	0	32872	32775	
1140	0	32884	32796	
1141	0	32812	32724	
1142	0	32812	32772	
1143	0	32826	32775	
1144	0	32830	32696	
1145	0	32808	32854	
1146	0	32848	32738	
1147	0	32802	32748	
1148	0	32740	32726	
1149	0	32812	32898	
1150	0	32826	32750	
1151	0	32760	32788	
1152	0	32792	32730	
1153	0	32806	32775	
1154	0	32824	32807	
1155	0	32812	32740	
1156	0	32784	32742	
1157	0	32840	32799	
1158	0	32800	32800	
1159	0	32798	32729	
1160	0	32756	32730	
1161	0	32840	32746	
1162	0	32764	32798	
1163	0	32810	32660	
1164	0	32820	32884	
1165	0	32798	32756	
1166	0	32720	32801	
1167	0	32840	32756	
1168	0	32776	32710	
1169	0	32830	32775	
1170	0	32832	32774	
1171	0	32752	32743	
1172	0	32840	32874	
1173	0	32852	32807	
1174	0	32812	32740	
1175	0	32810	32750	
1176	0	32792	32807	
1177	0	32804	32668	
1178	0	32812	32764	
1179	0	32772	32844	
1180	0	32830	32744	
1181	0	32814	32802	
1182	0	32752	32848	
1183	0	32774	32684	
1184	0	32750	32790	
1185	0	32800	32700	
1186	0	32800	32834	
1187	0	32856	32846	
1188	0	32804	32679	
1189	0	32764	32754	
1190	0	32800	32732	
1191	0	32846	32814	
1192	0	32804	32839	
1193	0	32796	32716	
1194	0	32774	32724	
1195	0	32837	32775	
1196	0	32802	32775	
1197	0	32804	32812	
1198	0	32816	32610	
1199	0	32816	32797	
1200	0	32840	32762	
1201	0	32800	32743	
1202	0	32748	32724	
1203	0	32824	32692	
1204	0	32830	32732	
1205	0	32744	32775	
1206	0	32820	32796	
1207	0	32808	32746	
1208	0	32848	32764	
1209	0	32798	32852	
1210	0	32768	32726	
1211	0	32832	32760	
1212	0	32812	32774	
1213	0	32820	32798	
1214	0	32860	32820	
1215	0	32872	32716	
1216	0	32802	32647	
1217	0	32812	32823	
1218	0	32746	32724	
1219	0	32820	32800	
1220	0	32888	32812	
1221	0	32856	32710	
1222	0	32832	32752	
1223	0	32778	32775	
1224	0	32804	32742	
1225	0	32820	32822	
1226	0	32812	32814	
1227	0	32804	32647	
1228	0	32864	32775	
1229	0	32836	32840	
1230	0	32804	32716	
1231	0	32880	32719	
1232	0	32841	32748	
1233	0	32844	32706	
1234	0	32800	32798	
1235	0	32796	32794	
1236	0	32764	32704	
1237	0	32752	32791	
1238	0	32836	32775	
1239	0	32858	32734	
1240	0	32840	32716	
1241	0	32756	32775	
1242	0	32804	32826	
1243	0	32780	32732	
1244	0	32809	32784	
1245	0	32852	32780	
1246	0	32792	32630	
1247	0	32804	32668	
1248	0	32760	32833	
1249	0	32816	32784	
1250	0	32858	32804	
1251	0	32812	32892	
1252	0	32833	32724	
1253	0	32782	32816	
1254	0	32812	32831	
1255	0	32800	32711	
1256	0	32816	32839	
1257	0	32804	32672	
1258	0	32784	32797	
1259	0	32870	32804	
1260	0	32810	32700	
1261	0	32828	32791	
1262	0	32864	32790	
1263	0	32800	32652	
1264	0	32808	32743	
1265	0	32808	32786	
1266	0	32784	32744	
1267	0	32802	32724	
1268	0	32764	32774	
1269	0	32860	32798	
1270	0	32840	32670	
1271	0	32788	32774	
1272	0	32772	32824	
1273	0	32802	32775	
1274	0	32820	32768	
1275	0	32812	32758	
1276	0	32814	32798	
1277	0	32772	32633	
1278	0	32798	32708	
1279	0	32780	32751	
1280	0	32864	32760	
1281	0	32832	32720	
1282	0	32800	32733	
1283	0	32772	32800	
1284	0	32816	32856	
1285	0	32816	32732	
1286	0	32798	32768	
1287	0	32824	32686	
1288	0	32774	32746	
1289	0	32780	32834	
1290	0	32820	32756	
1291	0	32804	32816	
1292	0	32832	32840	
1293	0	32816	32711	
1294	0	32777	32797	
1295	0	32860	32788	
1296	0	32798	32718	
1297	0	32764	32839	
1298	0	32820	32762	
1299	0	32804	32714	
1300	0	32820	32820	
1301	0	32748	32798	
1302	0	32864	32832	
1303	0	32816	32775	
1304	0	32796	32698	
1305	0	32828	32796	
1306	0	32780	32668	
1307	0	32816	32833	
1308	0	32848	32855	
1309	0	32820	32726	
1310	0	32770	32788	
1311	0	32844	32770	
1312	0	32852	32844	
1313	0	32878	32728	
1314	0	32840	32700	
1315	0	32836	32814	
1316	0	32856	32815	
1317	0	32858	32642	
1318	0	32796	32838	
1319	0	32748	32826	
1320	0	32822	32728	
1321	0	32792	32788	
1322	0	32828	32668	
1323	0	32717	32842	
1324	0	32828	32740	
1325	0	32792	32624	
1326	0	32736	32788	
1327	0	32808	32740	
1328	0	32810	32768	
1329	0	32796	32830	
1330	0	32840	32732	
1331	0	32808	32828	
1332	0	32764	32833	
1333	0	32808	32772	
1334	0	32830	32888	
1335	0	32810	32760	
1336	0	32884	32711	
1337	0	32816	32795	
1338	0	32884	32788	
1339	0	32816	32767	
1340	0	32761	32812	
1341	0	32782	32820	
1342	0	32808	32644	
1343	0	32848	32750	
1344	0	32788	32760	
1345	0	32866	32775	
1346	0	32804	32794	
1347	0	32832	32750	
1348	0	32794	32806	
1349	0	32802	32806	
1350	0	32846	32672	
1351	0	32816	32762	
1352	0	32794	32818	
1353	0	32804	32754	
1354	0	32788	32764	
1355	0	32846	32832	
1356	0	32780	32666	
1357	0	32760	32798	
1358	0	32781	32798	
1359	0	32864	32698	
1360	0	32802	32807	
1361	0	32760	32788	
1362	0	32808	32775	
1363	0	32798	32854	
1364	0	32810	32730	
1365	0	32768	32736	
1366	0	32896	32756	
1367	0	32832	32798	
1368	0	32815	32748	
1369	0	32764	32616	
1370	0	32886	32900	
1371	0	32860	32796	
1372	0	32820	32744	
1373	0	32824	32838	
1374	0	32754	32679	
1375	0	32820	32774	
1376	0	32806	32798	
1377	0	32830	32774	
1378	0	32782	32744	
1379	0	32832	32756	
1380	0	32834	32824	
1381	0	32820	32702	
1382	0	32766	32903	
1383	0	32772	32842	
1384	0	32836	32652	
1385	0	32884	32792	
1386	0	32864	32828	
1387	0	32744	32672	
1388	0	32868	32728	
1389	0	32812	32820	
1390	0	32790	32748	
1391	0	32796	32831	
1392	0	32794	32810	
1393	0	32800	32614	
1394	0	32756	32820	
1395	0	32804	32804	
1396	0	32820	32749	
1397	0	32816	32738	
1398	0	32776	32716	
1399	0	32852	32754	
1400	0	32828	32742	
1401	0	32776	32706	
1402	0	32806	32788	
1403	0	32828	32789	
1404	0	32870	32851	
1405	0	32810	32724	
1406	0	32754	32683	
1407	0	32772	32856	
1408	0	32812	32774	
1409	0	32864	32655	
1410	0	32816	32764	
1411	0	32844	32712	
1412	0	32828	32628	
1413	0	32840	32854	
1414	0	32828	32743	
1415	0	32800	32793	
1416	0	32776	32756	
1417	0	32844	32814	
1418	0	32832	32884	
1419	0	32775	32718	
1420	0	32806	32863	
1421	0	32810	32822	
1422	0	32762	32680	
1423	0	32730	32775	
1424	0	32780	32743	
1425	0	32816	32657	
1426	0	32826	32774	
1427	0	32786	32740	
1428	0	32752	32826	
1429	0	32796	32764	
1430	0	32808	32800	
1431	0	32856	32840	
1432	0	32772	32742	
1433	0	32886	32834	
1434	0	32836	32712	
1435	0	32882	32870	
1436	0	32844	32868	
1437	0	32792	32744	
1438	0	32798	32730	
1439	0	32852	32772	
1440	0	32834	32590	
1441	0	32775	32771	
1442	0	32776	32870	
1443	0	32776	32684	
1444	0	32817	32775	
1445	0	32780	32828	
1446	0	32734	32766	
1447	0	32844	32724	
1448	0	32832	32775	
1449	0	32804	32775	
1450	0	32810	32775	
1451	0	32808	32730	
1452	0	32768	32848	
1453	0	32816	32786	
1454	0	32844	32734	
1455	0	32788	32798	
1456	0	32788	32766	
1457	0	32806	32772	
1458	0	32804	32775	
1459	0	32832	32724	
1460	0	32862	32750	
1461	0	32852	32702	
1462	0	32865	32694	
1463	0	32800	32852	
1464	0	32858	32794	
1465	0	32756	32719	
1466	0	32820	32730	
1467	0	32754	32784	
1468	0	32788	32766	
1469	0	32788	32692	
1470	0	32836	32775	
1471	0	32826	32791	
1472	0	32802	32654	
1473	0	32820	32736	
1474	0	32804	32710	
1475	0	32804	32774	
1476	0	32806	32770	
1477	0	32852	32655	
1478	0	32820	32774	
1479	0	32850	32846	
1480	0	32794	32714	
1481	0	32865	32830	
1482	0	32816	32830	
1483	0	32824	32711	
1484	0	32834	32832	
1485	0	32806	32775	
1486	0	32804	32794	
1487	0	32812	32798	
1488	0	32756	32692	
1489	0	32766	32749	
1490	0	32896	32812	
1491	0	32784	32767	
1492	0	32748	32814	
1493	0	32826	32808	
1494	0	32804	32679	
1495	0	32848	32758	
1496	0	32768	32812	
1497	0	32816	32703	
1498	0	32852	32775	
1499	0	32850	32720	
1500	0	32846	32774	
1501	0	32848	32712	
1502	0	32836	32738	
1503	0	32804	32748	
1504	0	32796	32800	
1505	0	32836	32711	
1506	0	32856	32662	
1507	0	32852	32900	
1508	0	32800	32796	
1509	0	32824	32672	
1510	0	32816	32677	
1511	0	32808	32807	
1512	0	32832	32768	
1513	0	32820	32759	
1514	0	32742	32854	
1515	0	32792	32724	
1516	0	32752	32706	
1517	0	32838	32676	
1518	0	32806	32660	
1519	0	32872	32796	
1520	0	32878	32775	
1521	0	32754	32804	
1522	0	32796	32866	
1523	0	32812	32742	
1524	0	32792	32804	
1525	0	32796	32788	
1526	0	32748	32790	
1527	0	32820	32782	
1528	0	32812	32871	
1529	0	32808	32712	
1530	0	32820	32814	
1531	0	32812	32744	
1532	0	32860	32798	
1533	0	32820	32768	
1534	0	32828	32676	
1535	0	32824	32764	
1536	0	32864	32791	
1537	0	32882	32682	
1538	0	32810	32708	
1539	0	32778	32775	
1540	0	32794	32700	
1541	0	32788	32767	
1542	0	32792	32816	
1543	0	32788	32668	
1544	0	32830	32793	
1545	0	32842	32836	
1546	0	32748	32632	
1547	0	32800	32750	
1548	0	32764	32742	
1549	0	32856	32844	
1550	0	32776	32828	
1551	0	32826	32732	
1552	0	32794	32784	
1553	0	32834	32775	
1554	0	32760	32918	
1555	0	32796	32764	
1556	0	32808	32684	
1557	0	32832	32820	
1558	0	32788	32736	
1559	0	32812	32768	
1560	0	32824	32903	
1561	0	32864	32662	
1562	0	32732	32802	
1563	0	32846	32836	
1564	0	32848	32737	
1565	0	32814	32796	
1566	0	32868	32750	
1567	0	32862	32702	
1568	0	32854	32775	
1569	0	32792	32702	
1570	0	32820	32794	
1571	0	32810	32802	
1572	0	32774	32730	
1573	0	32792	32796	
1574	0	32828	32820	
1575	0	32820	32726	
1576	0	32802	32752	
1577	0	32780	32820	
1578	0	32832	32700	
1579	0	32752	32748	
1580	0	32792	32768	
1581	0	32770	32678	
1582	0	32794	32696	
1583	0	32816	32630	
1584	0	32838	32840	
1585	0	32772	32774	
1586	0	32824	32702	
1587	0	32848	32884	
1588	0	32780	32891	
1589	0	32786	32752	
1590	0	32860	32874	
1591	0	32828	32736	
1592	0	32844	32704	
1593	0	32868	32716	
1594	0	32780	32792	
1595	0	32828	32820	
1596	0	32838	32742	
1597	0	32852	32794	
1598	0	32814	32794	
1599	0	32757	32630	
1600	0	32876	32730	
1601	0	32832	32760	
1602	0	32716	32775	
1603	0	32801	32690	
1604	0	32728	32724	
1605	0	32736	32816	
1606	0	32834	32711	
1607	0	32792	32836	
1608	0	32832	32696	
1609	0	32832	32870	
1610	0	32836	32746	
1611	0	32830	32732	
1612	0	32834	32812	
1613	0	32784	32830	
1614	0	32824	32671	
1615	0	32864	32810	
1616	0	32826	32744	
1617	0	32752	32729	
1618	0	32820	32758	
1619	0	32706	32775	
1620	0	32780	32796	
1621	0	32808	32840	
1622	0	32874	32734	
1623	0	32832	32742	
1624	0	32768	32679	
1625	0	32855	32831	
1626	0	32886	32762	
1627	0	32812	32714	
1628	0	32768	32748	
1629	0	32764	32743	
1630	0	32794	32676	
1631	0	32836	32834	
1632	0	32848	32820	
1633	0	32834	32736	
1634	0	32868	32860	
1635	0	32842	32798	
1636	0	32791	32696	
1637	0	32810	32772	
1638	0	32854	32810	
1639	0	32790	32688	
1640	0	32792	32726	
1641	0	32810	32838	
1642	0	32780	32722	
1643	0	32766	32759	
1644	0	32796	32704	
1645	0	32856	32788	
1646	0	32788	32802	
1647	0	32800	32856	
1648	0	32754	32764	
1649	0	32828	32706	
1650	0	32836	32746	
1651	0	32844	32732	
1652	0	32800	32682	
1653	0	32778	32724	
1654	0	32744	32680	
1655	0	32782	32796	
1656	0	32776	32774	
1657	0	32824	32676	
1658	0	32782	32748	
1659	0	32842	32775	
1660	0	32772	32712	
1661	0	32848	32794	
1662	0	32842	32812	
1663	0	32810	32636	
1664	0	32808	32775	
1665	0	32808	32816	
1666	0	32780	32740	
1667	0	32820	32714	
1668	0	32848	32759	
1669	0	32864	32846	
1670	0	32820	32700	
1671	0	32784	32774	
1672	0	32776	32908	
1673	0	32828	32770	
1674	0	32850	32889	
1675	0	32784	32770	
1676	0	32752	32732	
1677	0	32802	32824	
1678	0	32840	32692	
1679	0	32856	32656	
1680	0	32832	32764	
1681	0	32810	32708	
1682	0	32764	32791	
1683	0	32816	32684	
1684	0	32810	32772	
1685	0	32788	32802	
1686	0	32775	32793	
1687	0	32804	32688	
1688	0	32840	32774	
1689	0	32776	32796	
1690	0	32822	32686	
1691	0	32848	32852	
1692	0	32775	32796	
1693	0	32804	32766	
1694	0	32808	32738	
1695	0	32822	32756	
1696	0	32808	32848	
1697	0	32844	32734	
1698	0	32852	32848	
1699	0	32806	32720	
1700	0	32788	32736	
1701	0	32775	32804	
1702	0	32828	32764	
1703	0	32832	32717	
1704	0	32897	32732	
1705	0	32856	32775	
1706	0	32836	32762	
1707	0	32802	32770	
1708	0	32894	32758	
1709	0	32792	32712	
1710	0	32784	32742	
1711	0	32822	32820	
1712	0	32762	32670	
1713	0	32832	32866	
1714	0	32841	32736	
1715	0	32744	32951	
1716	0	32768	32748	
1717	0	32852	32739	
1718	0	32808	32758	
1719	0	32836	32798	
1720	0	32840	32752	
1721	0	32832	32684	
1722	0	32830	32698	
1723	0	32800	32774	
1724	0	32774	32710	
1725	0	32800	32768	
1726	0	32836	32876	
1727	0	32836	32692	
1728	0	32880	32878	
1729	0	32816	32796	
1730	0	32840	32846	
1731	0	32860	32732	
1732	0	32852	32764	
1733	0	32852	32775	
1734	0	32772	32746	
1735	0	32768	32812	
1736	0	32836	32786	
1737	0	32736	32824	
1738	0	32772	32750	
1739	0	32808	32818	
1740	0	32778	32812	
1741	0	32832	32652	
1742	0	32860	32726	
1743	0	32828	32828	
1744	0	32801	32686	
1745	0	32804	32826	
1746	0	32776	32855	
1747	0	32784	32860	
1748	0	32802	32828	
1749	0	32808	32774	
1750	0	32812	32814	
1751	0	32830	32812	
1752	0	32792	32615	
1753	0	32834	32775	
1754	0	32776	32754	
1755	0	32808	32794	
1756	0	32780	32738	
1757	0	32820	32746	
1758	0	32778	32799	
1759	0	32888	32636	
1760	0	32864	32796	
1761	0	32836	32732	
1762	0	32868	32810	
1763	0	32764	32686	
1764	0	32800	32842	
1765	0	32764	32842	
1766	0	32820	32720	
1767	0	32802	32840	
1768	0	32768	32775	
1769	0	32808	32814	
1770	0	32852	32794	
1771	0	32820	32802	
1772	0	32834	32746	
1773	0	32852	32770	
1774	0	32868	32738	
1775	0	32848	32866	
1776	0	32860	32788	
1777	0	32834	32844	
1778	0	32816	32698	
1779	0	32856	32792	
1780	0	32716	32748	
1781	0	32808	32750	
1782	0	32812	32766	
1783	0	32796	32736	
1784	0	32792	32772	
1785	0	32808	32660	
1786	0	32884	32775	
1787	0	32836	32750	
1788	0	32772	32711	
1789	0	32780	32646	
1790	0	32732	32774	
1791	0	32726	32830	
1792	0	32824	32712	
1793	0	32908	32864	
1794	0	32878	32712	
1795	0	32808	32720	
1796	0	32772	32812	
1797	0	32830	32790	
1798	0	32856	32806	
1799	0	32864	32688	
1800	0	32824	32809	
1801	0	32774	32839	
1802	0	32884	32668	
1803	0	32818	32775	
1804	0	32792	32840	
1805	0	32834	32714	
1806	0	32736	32760	
1807	0	32816	32823	
1808	0	32800	32700	
1809	0	32796	32871	
1810	0	32828	32775	
1811	0	32820	32660	
1812	0	32872	32846	
1813	0	32796	32822	
1814	0	32778	32738	
1815	0	32780	32804	
1816	0	32780	32768	
1817	0	32748	32698	
1818	0	32776	32864	
1819	0	32835	32736	
1820	0	32814	32807	
1821	0	32780	32724	
1822	0	32832	32750	
1823	0	32852	32736	
1824	0	32800	32788	
1825	0	32832	32858	
1826	0	32814	32748	
1827	0	32804	32720	
1828	0	32782	32756	
1829	0	32792	32775	
1830	0	32856	32733	
1831	0	32848	32743	
1832	0	32830	32822	
1833	0	32872	32858	
1834	0	32848	32775	
1835	0	32860	32742	
1836	0	32808	32750	
1837	0	32852	32774	
1838	0	32804	32718	
1839	0	32806	32799	
1840	0	32816	32707	
1841	0	32740	32791	
1842	0	32780	32729	
1843	0	32778	32732	
1844	0	32804	32820	
1845	0	32825	32734	
1846	0	32844	32686	
1847	0	32768	32820	
1848	0	32780	32823	
1849	0	32812	32666	
1850	0	32874	32850	
1851	0	32816	32831	
1852	0	32808	32684	
1853	0	32796	32838	
1854	0	32788	32772	
1855	0	32884	32698	
1856	0	32774	32798	
1857	0	32858	32810	
1858	0	32816	32716	
1859	0	32864	32680	
1860	0	32752	32793	
1861	0	32832	32834	
1862	0	32824	32754	
1863	0	32772	32710	
1864	0	32782	32668	
1865	0	32794	32792	
1866	0	32789	32831	
1867	0	32846	32671	
1868	0	32768	32903	
1869	0	32864	32774	
1870	0	32852	32683	
1871	0	32868	32758	
1872	0	32834	32832	
1873	0	32810	32754	
1874	0	32830	32788	
1875	0	32885	32806	
1876	0	32816	32843	
1877	0	32812	32806	
1878	0	32820	32816	
1879	0	32798	32831	
1880	0	32836	32736	
1881	0	32784	32752	
1882	0	32872	32684	
1883	0	32816	32693	
1884	0	32788	32740	
1885	0	32824	32673	
1886	0	32820	32760	
1887	0	32800	32854	
1888	0	32852	32707	
1889	0	32868	32762	
1890	0	32810	32775	
1891	0	32838	32738	
1892	0	32822	32834	
1893	0	32814	32804	
1894	0	32816	32775	
1895	0	32812	32856	
1896	0	32848	32799	
1897	0	32834	32830	
1898	0	32864	32735	
1899	0	32796	32791	
1900	0	32762	32790	
1901	0	32764	32759	
1902	0	32748	32736	
1903	0	32784	32692	
1904	0	32828	32698	
1905	0	32876	32740	
1906	0	32898	32856	
1907	0	32790	32760	
1908	0	32830	32756	
1909	0	32868	32716	
1910	0	32810	32775	
1911	0	32792	32812	
1912	0	32790	32614	
1913	0	32742	32822	
1914	0	32714	32839	
1915	0	32804	32678	
1916	0	32728	32844	
1917	0	32752	32714	
1918	0	32804	32679	
1919	0	32810	32739	
1920	0	32852	32700	
1921	0	32816	32676	
1922	0	32822	32806	
1923	0	32896	32796	
1924	0	32913	32663	
1925	0	32852	32673	
1926	0	32868	32848	
1927	0	32932	32574	
1928	0	32944	32638	
1929	0	32926	32700	
1930	0	32992	32468	
1931	0	32932	32606	
1932	0	32951	32700	
1933	0	32988	32538	
1934	0	32984	32712	
1935	0	32938	32650	
1936	0	32894	32534	
1937	0	32912	32678	
1938	0	32878	32684	
1939	0	32864	32814	
1940	0	32848	32732	
1941	0	32812	32762	
1942	0	32842	32730	
1943	0	32800	32838	
1944	0	32622	32902	
1945	0	32578	32992	
1946	0	32542	33066	
1947	0	32440	33031	
1948	0	32452	33180	
1949	0	32344	33378	
1950	0	32242	33550	
1951	0	32288	33476	
1952	0	32450	33198	
1953	0	32576	33063	
1954	0	32684	32979	
1955	0	32726	32814	
1956	0	32702	32800	
1957	0	32812	32790	
1958	0	32788	32866	
1959	0	32820	32807	
1960	0	32840	32732	
1961	0	32808	32548	
1962	0	32832	32559	
1963	0	32897	32672	
1964	0	32956	32460	
1965	0	33050	32500	
1966	0	32952	32466	
1967	0	33018	32506	
1968	0	33000	32624	
1969	0	32994	32588	
1970	0	32966	32534	
1971	0	32984	32594	
1972	0	32944	32712	
1973	0	32904	32608	
1974	0	32852	32642	
1975	0	32916	32678	
1976	0	32828	32612	
1977	0	32852	32680	
1978	0	32924	32775	
1979	0	32876	32640	
1980	0	32856	32738	
1981	0	32808	32703	
1982	0	32908	32639	
1983	0	32893	32807	
1984	0	32790	32800	
1985	0	32848	32719	
1986	0	32891	32871	
1987	0	32836	32802	
1988	0	32800	32720	
1989	0	32844	32756	
1990	0	32780	32750	
1991	0	32794	32842	
1992	0	32842	32740	
1993	0	32834	32740	
1994	0	32788	32828	
1995	0	32804	32775	
1996	0	32794	32820	
1997	0	32738	32688	
1998	0	32854	32792	
1999	0	32742	32724	
2000	0	32852	32838	
2001	0	32828	32640	
2002	0	32792	32704	
2003	0	32732	32743	
2004	0	32776	32766	
2005	0	32728	32724	
2006	0	32772	32794	
2007	0	32760	32862	
2008	0	32752	32846	
2009	0	32804	32636	
2010	0	32844	32888	
2011	0	32788	32756	
2012	0	32746	32836	
2013	0	32816	32684	
2014	0	32816	32807	
2015	0	32840	32794	
2016	0	32804	32751	
2017	0	32840	32734	
2018	0	32824	32816	
2019	0	32808	32727	
2020	0	32812	32817	
2021	0	32804	32762	
2022	0	32864	32670	
2023	0	32796	32758	
2024	0	32790	32688	
2025	0	32844	32830	
2026	0	32818	32688	
2027	0	32788	32756	
2028	0	32796	32888	
2029	0	32836	32720	
2030	0	32808	32804	
2031	0	32800	32710	
2032	0	32896	32758	
2033	0	32820	32792	
2034	0	32836	32696	
2035	0	32832	32775	
2036	0	32834	32808	
2037	0	32842	32712	
2038	0	32820	32736	
2039	0	32800	32828	
2040	0	32792	32710	
2041	0	32800	32730	
2042	0	32709	32804	
2043	0	32740	32668	
2044	0	32812	32758	
2045	0	32760	32840	
2046	0	32772	32775	
2047	0	32772	32792	
2048	0	32780	32824	
2049	0	32844	32673	
2050	0	32804	32791	
2051	0	32802	32852	
2052	0	32836	32832	
2053	0	32824	32850	
2054	0	32752	32820	
2055	0	32862	32775	
2056	0	32866	32887	
2057	0	32890	32738	
2058	0	32792	32828	
2059	0	32796	32804	
2060	0	32768	32660	
2061	0	32824	32704	
2062	0	32840	32724	
2063	0	32804	32762	
2064	0	32760	32775	
2065	0	32839	32708	
2066	0	32812	32824	
2067	0	32828	32666	
2068	0	32846	32788	
2069	0	32738	32762	
2070	0	32896	32762	
2071	0	32800	32806	
2072	0	32816	32716	
2073	0	32778	32775	
2074	0	32820	32711	
2075	0	32818	32850	
2076	0	32846	32732	
2077	0	32844	32662	
2078	0	32798	32738	
2079	0	32776	32772	
2080	0	32766	32750	
2081	0	32724	32634	
2082	0	32768	32655	
2083	0	32808	32775	
2084	0	32908	32742	
2085	0	32852	32706	
2086	0	32814	32760	
2087	0	32820	32830	
2088	0	32828	32692	
2089	0	32788	32854	
2090	0	32864	32852	
2091	0	32820	32736	
2092	0	32820	32718	
2093	0	32827	32768	
2094	0	32794	32775	
2095	0	32768	32758	
2096	0	32790	32820	
2097	0	32842	32766	
2098	0	32808	32796	
2099	0	32806	32716	
2100	0	32820	32879	
2101	0	32836	32764	
2102	0	32864	32820	
2103	0	32866	32754	
2104	0	32786	32744	
2105	0	32804	32775	
2106	0	32794	32807	
2107	0	32764	32687	
2108	0	32748	32775	
2109	0	32784	32854	
2110	0	32840	32714	
2111	0	32784	32852	
2112	0	32812	32767	
2113	0	32816	32647	
2114	0	32758	32842	
2115	0	32866	32836	
2116	0	32838	32746	
2117	0	32840	32775	
2118	0	32760	32780	
2119	0	32788	32684	
2120	0	32776	32804	
2121	0	32818	32798	
2122	0	32802	32724	
2123	0	32872	32744	
2124	0	32804	32820	
2125	0	32874	32689	
2126	0	32823	32822	
2127	0	32768	32791	
2128	0	32772	32732	
2129	0	32818	32720	
2130	0	32758	32807	
2131	0	32840	32759	
2132	0	32832	32775	
2133	0	32802	32666	
2134	0	32836	32860	
2135	0	32777	32768	
2136	0	32772	32742	
2137	0	32768	32724	
2138	0	32832	32784	
2139	0	32812	32824	
2140	0	32756	32714	
2141	0	32852	32756	
2142	0	32826	32788	
2143	0	32820	32664	
2144	0	32848	32732	
2145	0	32794	32812	
2146	0	32822	32740	
2147	0	32760	32702	
2148	0	32804	32844	
2149	0	32828	32852	
2150	0	32832	32766	
2151	0	32814	32676	
2152	0	32836	32710	
2153	0	32850	32796	
2154	0	32832	32700	
2155	0	32816	32868	
2156	0	32804	32760	
2157	0	32790	32876	
2158	0	32802	32664	
2159	0	32806	32832	
2160	0	32800	32804	
2161	0	32852	32839	
2162	0	32796	32774	
2163	0	32776	32696	
2164	0	32760	32768	
2165	0	32860	32775	
2166	0	32756	32671	
2167	0	32872	32764	
2168	0	32800	32784	
2169	0	32826	32702	
2170	0	32820	32814	
2171	0	32788	32706	
2172	0	32716	32754	
2173	0	32848	32740	
2174	0	32836	32828	
2175	0	32792	32736	
2176	0	32868	32660	
2177	0	32820	32832	
2178	0	32824	32759	
2179	0	32800	32802	
2180	0	32792	32686	
2181	0	32812	32636	
2182	0	32848	32799	
2183	0	32752	32816	
2184	0	32802	32752	
2185	0	32742	32718	
2186	0	32736	32738	
2187	0	32808	32704	
2188	0	32800	32744	
2189	0	32792	32886	
2190	0	32752	32810	
2191	0	32824	32775	
2192	0	32862	32798	
2193	0	32902	32822	
2194	0	32864	32828	
2195	0	32852	32775	
2196	0	32808	32708	
2197	0	32848	32598	
2198	0	32774	32775	
2199	0	32780	32822	
2200	0	32808	32800	
2201	0	32778	32764	
2202	0	32798	32818	
2203	0	32806	32736	
2204	0	32812	32720	
2205	0	32776	32608	
2206	0	32832	32696	
2207	0	32800	32711	
2208	0	32884	32824	
2209	0	32858	32666	
2210	0	32742	32910	
2211	0	32740	32754	
2212	0	32788	32785	
2213	0	32896	32688	
2214	0	32826	32902	
2215	0	32832	32775	
2216	0	32802	32704	
2217	0	32840	32710	
2218	0	32804	32886	
2219	0	32792	32808	
2220	0	32784	32860	
2221	0	32858	32742	
2222	0	32825	32792	
2223	0	32820	32800	
2224	0	32802	32894	
2225	0	32808	32745	
2226	0	32790	32719	
2227	0	32766	32866	
2228	0	32822	32724	
2229	0	32810	32832	
2230	0	32760	32748	
2231	0	32758	32752	
2232	0	32808	32647	
2233	0	32828	32769	
2234	0	32824	32822	
2235	0	32808	32722	
2236	0	32844	32775	
2237	0	32838	32762	
2238	0	32778	32775	
2239	0	32750	32750	
2240	0	32766	32756	
2241	0	32732	32839	
2242	0	32794	32708	
2243	0	32824	32750	
2244	0	32756	32762	
2245	0	32836	32807	
2246	0	32824	32868	
2247	0	32849	32826	
2248	0	32778	32688	
2249	0	32738	32696	
2250	0	32884	32627	
2251	0	32794	32782	
2252	0	32856	32772	
2253	0	32800	32808	
2254	0	32928	32906	
2255	0	32844	32764	
2256	0	32798	32788	
2257	0	32844	32738	
2258	0	32810	32816	
2259	0	32828	32812	
2260	0	32832	32682	
2261	0	32826	32686	
2262	0	32764	32852	
2263	0	32778	32724	
2264	0	32800	32788	
2265	0	32800	32865	
2266	0	32838	32692	
2267	0	32864	32820	
2268	0	32845	32830	
2269	0	32768	32676	
2270	0	32860	32848	
2271	0	32860	32772	
2272	0	32804	32671	
2273	0	32810	32915	
2274	0	32846	32769	
2275	0	32796	32794	
2276	0	32796	32674	
2277	0	32894	32744	
2278	0	32796	32806	
2279	0	32816	32682	
2280	0	32810	32754	
2281	0	32868	32764	
2282	0	32838	32708	
2283	0	32856	32732	
2284	0	32904	32788	
2285	0	32770	32775	
2286	0	32752	32716	
2287	0	32852	32876	
2288	0	32775	32788	
2289	0	32724	32803	
2290	0	32772	32686	
2291	0	32840	32864	
2292	0	32774	32854	
2293	0	32908	32656	
2294	0	32794	32652	
2295	0	32768	32750	
2296	0	32844	32741	
2297	0	32788	32743	
2298	0	32768	32788	
2299	0	32852	32782	
2300	0	32778	32800	
2301	0	32868	32678	
2302	0	32872	32647	
2303	0	32822	32810	
2304	0	32878	32710	
2305	0	32836	32642	
2306	0	32830	32762	
2307	0	32828	32844	
2308	0	32776	32743	
2309	0	32840	32775	
2310	0	32784	32795	
2311	0	32910	32674	
2312	0	32764	32860	
2313	0	32836	32775	
2314	0	32780	32647	
2315	0	32812	32792	
2316	0	32780	32838	
2317	0	32840	32644	
2318	0	32844	32706	
2319	0	32804	32823	
2320	0	32756	32716	
2321	0	32775	32748	
2322	0	32808	32746	
2323	0	32852	32775	
2324	0	32832	32806	
2325	0	32802	32702	
2326	0	32836	32744	
2327	0	32904	32753	
2328	0	32854	32724	
2329	0	32824	32830	
2330	0	32800	32791	
2331	0	32776	32775	
2332	0	32780	32903	
2333	0	32794	32804	
2334	0	32774	32689	
2335	0	32826	32692	
2336	0	32788	32666	
2337	0	32800	32692	
2338	0	32820	32770	
2339	0	32880	32775	
2340	0	32840	32676	
2341	0	32908	32728	
2342	0	32718	32808	
2343	0	32786	32820	
2344	0	32844	32876	
2345	0	32850	32762	
2346	0	32868	32770	
2347	0	32784	32678	
2348	0	32856	32825	
2349	0	32756	32725	
2350	0	32812	32756	
2351	0	32812	32816	
2352	0	32848	32940	
2353	0	32860	32763	
2354	0	32826	32794	
2355	0	32840	32774	
2356	0	32862	32704	
2357	0	32848	32736	
2358	0	32772	32806	
2359	0	32772	32830	
2360	0	32788	32732	
2361	0	32820	32880	
2362	0	32774	32752	
2363	0	32812	32722	
2364	0	32790	32836	
2365	0	32778	32849	
2366	0	32788	32668	
2367	0	32762	32775	
2368	0	32804	32799	
2369	0	32898	32734	
2370	0	32840	32760	
2371	0	32864	32764	
2372	0	32804	32760	
2373	0	32764	32770	
2374	0	32808	32726	
2375	0	32808	32862	
2376	0	32812	32816	
2377	0	32864	32636	
2378	0	32816	32784	
2379	0	32770	32820	
2380	0	32834	32726	
2381	0	32850	32828	
2382	0	32822	32784	
2383	0	32824	32804	
2384	0	32804	32746	
2385	0	32788	32772	
2386	0	32782	32718	
2387	0	32744	32790	
2388	0	32830	32780	
2389	0	32800	32626	
2390	0	32736	32768	
2391	0	32752	32756	
2392	0	32800	32644	
2393	0	32808	32726	
2394	0	32830	32758	
2395	0	32788	32609	
2396	0	32740	32716	
2397	0	32870	32807	
2398	0	32788	32764	
2399	0	32752	32748	
2400	0	32800	32657	
2401	0	32822	32702	
2402	0	32816	32615	
2403	0	32836	32564	
2404	0	32800	32788	
2405	0	32844	32980	
2406	0	32885	33030	
2407	0	32848	32948	
2408	0	32804	32958	
2409	0	32828	32710	
2410	0	32760	32800	
2411	0	32848	32772	
2412	0	32836	32808	
2413	0	32824	32784	
2414	0	32730	32812	
2415	0	32812	32826	
2416	0	32762	32928	
2417	0	32846	32758	
2418	0	32816	32732	
2419	0	32812	32711	
2420	0	32796	32636	
2421	0	32742	32710	
2422	0	32706	32775	
2423	0	32766	32718	
2424	0	32772	32730	
2425	0	32832	32796	
2426	0	32850	32558	
2427	0	32842	32684	
2428	0	32820	32708	
2429	0	32930	32742	
2430	0	32816	32808	
2431	0	32798	32800	
2432	0	32886	32852	
2433	0	32812	32882	
2434	0	32796	32712	
2435	0	32776	32871	
2436	0	32712	32676	
2437	0	32796	32479	
2438	0	32768	32730	
2439	0	32783	32842	
2440	0	32913	32828	
2441	0	32804	32860	
2442	0	32876	32930	
2443	0	32800	32743	
2444	0	32878	32828	
2445	0	32824	32886	
2446	0	32792	32934	
2447	0	32760	32976	
2448	0	32812	32786	
2449	0	32902	32708	
2450	0	32890	32760	
2451	0	32828	32721	
2452	0	32778	32692	
2453	0	32864	32740	
2454	0	32846	32728	
2455	0	32826	32774	
2456	0	32780	32700	
2457	0	32816	32590	
2458	0	32878	32647	
2459	0	32832	32810	
2460	0	32840	32798	
2461	0	32808	32671	
2462	0	32780	32658	
2463	0	32864	32596	
2464	0	32824	32526	
2465	0	32748	32662	
2466	0	32726	32852	
2467	0	32832	32890	
2468	0	32824	32761	
2469	0	32824	32828	
2470	0	32820	32800	
2471	0	32788	32726	
2472	0	32824	32764	
2473	0	32802	33041	
2474	0	32750	32919	
2475	0	32836	32804	
2476	0	32880	32916	
2477	0	32928	32707	
2478	0	32814	32434	
2479	0	32832	32756	
2480	0	32808	32905	
2481	0	32750	33060	
2482	0	32804	32802	
2483	0	32744	32680	
2484	0	32756	32696	
2485	0	32784	32602	
2486	0	32820	32628	
2487	0	32792	32668	
2488	0	32806	32710	
2489	0	32798	32932	
2490	0	32770	33118	
2491	0	32800	32842	
2492	0	32840	32812	
2493	0	32866	32827	
2494	0	32904	32668	
2495	0	32844	32551	
2496	0	32862	32482	
2497	0	32836	32588	
2498	0	32808	32518	
2499	0	32752	32618	
2500	0	32830	32632	
2501	0	32830	32878	
2502	0	32820	32932	
2503	0	32852	32910	
2504	0	32788	33282	
2505	0	32842	32966	
2506	0	32852	33031	
2507	0	32814	32944	
2508	0	32808	32700	
2509	0	32732	32758	
2510	0	32704	32654	
2511	0	32740	32408	
2512	0	32764	32562	
2513	0	32788	32745	
2514	0	32852	32808	
2515	0	32984	32884	
2516	0	32992	32812	
2517	0	32902	32626	
2518	0	32906	32670	
2519	0	32782	32794	
2520	0	32744	32824	
2521	0	32712	32932	
2522	0	32678	32850	
2523	0	32714	32878	
2524	0	32862	32794	
2525	0	32760	32620	
2526	0	32800	32664	
2527	0	32750	32754	
2528	0	32802	32592	
2529	0	32878	32551	
2530	0	32826	32556	
2531	0	32804	32518	
2532	0	32880	32572	
2533	0	32880	32744	
2534	0	32872	32636	
2535	0	32988	32928	
2536	0	32964	32870	
2537	0	32764	32738	
2538	0	32718	32878	
2539	0	32760	32892	
2540	0	32700	33172	
2541	0	32724	33084	
2542	0	32844	33279	
2543	0	32834	33152	
2544	0	32862	32714	
2545	0	32792	32558	
2546	0	32756	32423	
2547	0	32828	32254	
2548	0	33000	32328	
2549	0	33018	32528	
2550	0	32818	33018	
2551	0	32776	32929	
2552	0	32696	32817	
2553	0	32768	32872	
2554	0	32772	32852	
2555	0	32740	32736	
2556	0	32836	32986	
2557	0	32862	33120	
2558	0	32793	32692	
2559	0	32824	32546	
2560	0	32804	32604	
2561	0	32850	32842	
2562	0	32896	32884	
2563	0	32820	32775	
2564	0	32732	32740	
2565	0	32684	32554	
2566	0	32832	32727	
2567	0	32804	32804	
2568	0	32752	32721	
2569	0	32704	32956	
2570	0	32760	32935	
2571	0	32696	32772	
2572	0	32728	32612	
2573	0	32796	32718	
2574	0	32916	32769	
2575	0	32968	32763	
2576	0	32828	32618	
2577	0	32798	32679	
2578	0	32820	32751	
2579	0	32892	32634	
2580	0	32864	32774	
2581	0	32844	32574	
2582	0	32884	32888	
2583	0	32858	32408	
2584	0	32760	32812	
2585	0	32794	32686	
2586	0	32738	32838	
2587	0	32818	32935	
2588	0	32780	33073	
2589	0	32748	33057	
2590	0	32618	32798	
2591	0	32624	32730	
2592	0	32854	32670	
2593	0	32842	32999	
2594	0	32868	32792	
2595	0	32744	32922	
2596	0	32652	32731	
2597	0	32760	32828	
2598	0	32778	32770	
2599	0	32772	32903	
2600	0	32848	32536	
2601	0	32840	32151	
2602	0	32864	32350	
2603	0	32880	32220	
2604	0	32784	32766	
2605	0	32856	33184	
2606	0	32826	33260	
2607	0	32992	33066	
2608	0	33008	32940	
2609	0	32930	32646	
2610	0	32916	32254	
2611	0	32866	32630	
2612	0	32700	32647	
2613	0	32632	32892	
2614	0	32668	33140	
2615	0	32672	33433	
2616	0	32644	33136	
2617	0	32716	32956	
2618	0	32786	32688	
2619	0	32888	32568	
2620	0	32888	32338	
2621	0	32724	32380	
2622	0	32728	32599	
2623	0	32538	33080	
2624	0	32636	32982	
2625	0	32762	32762	
2626	0	32752	32862	
2627	0	32653	32846	
2628	0	32706	32670	
2629	0	32788	32562	
2630	0	32920	32554	
2631	0	32944	32676	
2632	0	32970	32840	
2633	0	32874	32603	
2634	0	32830	32646	
2635	0	32866	32692	
2636	0	32950	32960	
2637	0	32964	32814	
2638	0	32916	32576	
2639	0	32808	32768	
2640	0	32816	32908	
2641	0	32732	32758	
2642	0	32652	32895	
2643	0	32678	33116	
2644	0	32672	32872	
2645	0	32666	32710	
2646	0	32828	32577	
2647	0	32736	32508	
2648	0	32801	32650	
2649	0	32846	32578	
2650	0	32812	32652	
2651	0	32782	32652	
2652	0	32956	32615	
2653	0	33180	33148	
2654	0	33176	33228	
2655	0	33032	32620	
2656	0	32965	32775	
2657	0	32864	32624	
2658	0	32724	32727	
2659	0	32682	32892	
2660	0	32700	32854	
2661	0	32664	32987	
2662	0	32658	32656	
2663	0	32736	32290	
2664	0	32784	32682	
2665	0	32800	32768	
2666	0	32800	33334	
2667	0	32892	32970	
2668	0	32860	33016	
2669	0	32916	32389	
2670	0	32964	32068	
2671	0	32878	32355	
2672	0	32816	32606	
2673	0	32796	33383	
2674	0	32728	33228	
2675	0	32738	33052	
2676	0	32676	32602	
2677	0	32732	32170	
2678	0	32804	32263	
2679	0	32872	32664	
2680	0	32840	32935	
2681	0	32775	33728	
2682	0	32788	33148	
2683	0	32864	32598	
2684	0	32782	32506	
2685	0	32982	32646	
2686	0	33028	32820	
2687	0	33022	32924	
2688	0	32984	32614	
2689	0	32860	32263	
2690	0	32848	32614	
2691	0	32964	32505	
2692	0	32800	32176	
2693	0	32772	32724	
2694	0	32740	33098	
2695	0	32840	32944	
2696	0	32908	32847	
2697	0	32862	33130	
2698	0	32832	33008	
2699	0	32700	33173	
2700	0	32668	32839	
2701	0	32788	32404	
2702	0	32704	32516	
2703	0	32770	32583	
2704	0	32816	32615	
2705	0	32820	33180	
2706	0	32852	33390	
2707	0	32972	33250	
2708	0	33188	32620	
2709	0	32864	31692	
2710	0	32808	31934	
2711	0	32900	32732	
2712	0	32838	33484	
2713	0	32956	33383	
2714	0	32892	32954	
2715	0	32708	32839	
2716	0	32728	32704	
2717	0	32752	32962	
2718	0	32716	33380	
2719	0	32874	33159	
2720	0	32736	32618	
2721	0	32652	32326	
2722	0	32700	32343	
2723	0	32784	32308	
2724	0	32818	32167	
2725	0	32938	32414	
2726	0	32876	32903	
2727	0	32780	32975	
2728	0	32756	33066	
2729	0	32896	33130	
2730	0	32808	32834	
2731	0	32654	32630	
2732	0	32868	32151	
2733	0	32928	32199	
2734	0	32785	32774	
2735	0	32740	33367	
2736	0	32622	33454	
2737	0	32608	33068	
2738	0	32816	32852	
2739	0	33032	32732	
2740	0	33028	32406	
2741	0	32840	32732	
2742	0	32564	32590	
2743	0	32588	32702	
2744	0	32562	32706	
2745	0	32538	32432	
2746	0	32584	32872	
2747	0	32596	32903	
2748	0	32708	33096	
2749	0	32972	33026	
2750	0	33204	32738	
2751	0	33136	32615	
2752	0	33100	32748	
2753	0	33162	33031	
2754	0	33162	33438	
2755	0	32872	32359	
2756	0	32670	32399	
2757	0	32724	32288	
2758	0	32704	32552	
2759	0	32604	32812	
2760	0	32484	32898	
2761	0	32488	32834	
2762	0	32562	33050	
2763	0	32724	32562	
2764	0	32868	32375	
2765	0	32888	32730	
2766	0	32922	32762	
2767	0	32944	33045	
2768	0	33074	33239	
2769	0	33024	33262	
2770	0	32868	32580	
2771	0	32876	32208	
2772	0	33014	32142	
2773	0	32988	31724	
2774	0	32776	32686	
2775	0	32652	33980	
2776	0	32636	33268	
2777	0	32676	32892	
2778	0	32676	31940	
2779	0	32352	31720	
2780	0	32462	32664	
2781	0	32816	33011	
2782	0	32976	33923	
2783	0	32920	33742	
2784	0	32858	32802	
2785	0	32998	32562	
2786	0	32946	33150	
2787	0	32868	32420	
2788	0	32728	32518	
2789	0	32728	32822	
2790	0	32704	33376	
2791	0	32692	33492	
2792	0	32764	33552	
2793	0	32684	32764	
2794	0	32760	31788	
2795	0	32836	32046	
2796	0	32950	32240	
2797	0	32930	33270	
2798	0	32856	32824	
2799	0	32940	32312	
2800	0	32886	32164	
2801	0	32830	32284	
2802	0	32612	32519	
2803	0	32524	32406	
2804	0	32920	32820	
2805	0	33276	33050	
2806	0	33224	33004	
2807	0	33056	33560	
2808	0	32912	33420	
2809	0	32580	32920	
2810	0	32584	31366	
2811	0	32574	31626	
2812	0	32516	33448	
2813	0	32712	34296	
2814	0	32926	33120	
2815	0	32930	31824	
2816	0	33092	32228	
2817	0	33462	33642	
2818	0	33324	34023	
2819	0	32888	33502	
2820	0	32476	32513	
2821	0	32456	31732	
2822	0	32528	32166	
2823	0	32426	32176	
2824	0	32304	32116	
2825	0	32336	33186	
2826	0	32500	33031	
2827	0	32498	32737	
2828	0	32292	32510	
2829	0	32442	33305	
2830	0	32542	33584	
2831	0	32688	32870	
2832	0	32972	32720	
2833	0	32938	32623	
2834	0	32952	32519	
2835	0	33298	33216	
2836	0	33166	33013	
2837	0	32956	32436	
2838	0	32862	32631	
2839	0	32836	32234	
2840	0	32820	32005	
2841	0	32920	32178	
2842	0	32604	32300	
2843	0	32348	32505	
2844	0	32496	33700	
2845	0	32832	33316	
2846	0	33100	33089	
2847	0	33082	33010	
2848	0	32904	33062	
2849	0	32836	33282	
2850	0	32862	33503	
2851	0	32940	33254	
2852	0	32968	32531	
2853	0	32964	32332	
2854	0	32772	31220	
2855	0	32414	31440	
2856	0	32396	32263	
2857	0	32722	33226	
2858	0	32804	33372	
2859	0	32702	33184	
2860	0	33032	32714	
2861	0	33010	32700	
2862	0	32952	32824	
2863	0	32792	33234	
2864	0	32652	32728	
2865	0	32788	32452	
2866	0	32964	31806	
2867	0	33132	32865	
2868	0	33222	33300	
2869	0	33126	32500	
2870	0	33056	33086	
2871	0	32870	33610	
2872	0	33028	33176	
2873	0	33212	32848	
2874	0	33154	32241	
2875	0	32784	31824	
2876	0	32636	31788	
2877	0	32576	32519	
2878	0	32420	33466	
2879	0	32324	33232	
2880	0	32404	33192	
2881	0	32676	33552	
2882	0	32652	33680	
2883	0	32828	32878	
2884	0	32780	32175	
2885	0	32554	32268	
2886	0	32392	32346	
2887	0	33012	33004	
2888	0	33452	32436	
2889	0	33534	32002	
2890	0	33312	31722	
2891	0	33396	32406	
2892	0	33240	33008	
2893	0	33048	32952	
2894	0	32372	33098	
2895	0	32318	33258	
2896	0	32240	32670	
2897	0	32224	33080	
2898	0	32490	33574	
2899	0	32185	33082	
2900	0	32172	33319	
2901	0	32152	33540	
2902	0	32252	33152	
2903	0	32796	32234	
2904	0	33070	31699	
2905	0	33388	32324	
2906	0	33608	32636	
2907	0	33460	32625	
2908	0	33188	32978	
2909	0	33020	32839	
2910	0	33156	32928	
2911	0	33260	33018	
2912	0	33274	32572	
2913	0	33248	31924	
2914	0	33166	32070	
2915	0	32632	31886	
2916	0	32604	32976	
2917	0	32836	33736	
2918	0	32820	31572	
2919	0	32904	32007	
2920	0	32904	33388	
2921	0	33124	32214	
2922	0	33120	32902	
2923	0	32962	34447	
2924	0	32856	33402	
2925	0	32736	32154	
2926	0	32652	30428	
2927	0	32828	29757	
2928	0	33078	32456	
2929	0	33586	34439	
2930	0	33886	34306	
2931	0	33626	33846	
2932	0	33168	33767	
2933	0	32610	33084	
2934	0	32136	32788	
2935	0	31952	33278	
2936	0	31906	33142	
2937	0	31776	32437	
2938	0	31364	31852	
2939	0	31384	33766	
2940	0	31468	33388	
2941	0	31494	33166	
2942	0	31870	31730	
2943	0	32274	31632	
2944	0	32728	32400	
2945	0	32866	34248	
2946	0	33144	34354	
2947	0	33632	33799	
2948	0	33348	33362	
2949	0	33266	33602	
2950	0	33240	32384	
2951	0	33228	30656	
2952	0	32926	29820	
2953	0	32824	32800	
2954	0	33076	34044	
2955	0	33252	34284	
2956	0	33280	33559	
2957	0	33112	32500	
2958	0	33145	32484	
2959	0	33060	32277	
2960	0	33040	32204	
2961	0	32768	32670	
2962	0	32704	32871	
2963	0	32666	31976	
2964	0	32640	32433	
2965	0	32592	32231	
2966	0	32684	32442	
2967	0	32786	32007	
2968	0	33050	32698	
2969	0	33694	33287	
2970	0	33568	33391	
2971	0	32952	33842	
2972	0	32836	33174	
2973	0	32808	32870	
2974	0	32298	32762	
2975	0	31968	31380	
2976	0	31966	30874	
2977	0	32316	32042	
2978	0	32372	32876	
2979	0	32384	34310	
2980	0	32272	34480	
2981	0	32392	33486	
2982	0	32218	33095	
2983	0	32324	32628	
2984	0	32298	32336	
2985	0	32182	32696	
2986	0	32432	32256	
2987	0	33408	31931	
2988	0	33692	32758	
2989	0	33536	32160	
2990	0	33132	33282	
2991	0	33008	33182	
2992	0	32796	30498	
2993	0	32772	30676	
2994	0	32824	33116	
2995	0	33168	34324	
2996	0	33460	33430	
2997	0	33372	32511	
2998	0	33296	33272	
2999	0	33148	33369	
3000	0	33252	32926	
3001	0	32932	33240	
3002	0	33158	33120	
3003	0	33176	32310	
3004	0	33024	32263	
3005	0	32984	32622	
3006	0	33172	33031	
3007	0	32884	32728	
3008	0	32856	32230	
3009	0	32884	32812	
3010	0	32964	32358	
3011	0	33004	32724	
3012	0	33088	32088	
3013	0	32984	31911	
3014	0	33152	32620	
3015	0	33206	33623	
3016	0	33120	33252	
3017	0	33036	33530	
3018	0	32936	32871	
3019	0	32770	32260	
3020	0	32596	32354	
3021	0	32512	32934	
3022	0	32632	33690	
3023	0	32784	32724	
3024	0	32742	32708	
3025	0	32492	31770	
3026	0	32672	32092	
3027	0	32812	32986	
3028	0	32964	33228	
3029	0	33190	33073	
3030	0	33080	33060	
3031	0	32984	32944	
3032	0	32887	32898	
3033	0	32838	32737	
3034	0	32720	32465	
3035	0	32804	32918	
3036	0	32892	32135	
3037	0	32972	32188	
3038	0	32718	32007	
3039	0	32480	32590	
3040	0	32608	33416	
3041	0	32842	33308	
3042	0	32809	33072	
3043	0	32816	32055	
3044	0	33532	33154	
3045	0	33876	33063	
3046	0	33534	31360	
3047	0	33332	31972	
3048	0	33014	33892	
3049	0	32512	33888	
3050	0	32382	33810	
3051	0	32256	33140	
3052	0	32284	32142	
3053	0	32344	31940	
3054	0	32274	32715	
3055	0	32408	32512	
3056	0	32560	32550	
3057	0	32598	32615	
3058	0	32400	33382	
3059	0	32434	32351	
3060	0	32412	31444	
3061	0	32464	32468	
3062	0	32786	33554	
3063	0	32932	34180	
3064	0	33274	34503	
3065	0	33000	33304	
3066	0	32804	31818	
3067	0	32812	31644	
3068	0	33152	32538	
3069	0	33364	32772	
3070	0	32968	33022	
3071	0	32754	33799	
3072	0	32788	33480	
3073	0	32664	33384	
3074	0	32468	33012	
3075	0	32344	32711	
3076	0	32744	32020	
3077	0	32836	31868	
3078	0	33132	31952	
3079	0	33178	32742	
3080	0	32958	32322	
3081	0	32728	31932	
3082	0	32600	32689	
3083	0	32664	34068	
3084	0	32606	32638	
3085	0	32444	32552	
3086	0	32864	32700	
3087	0	33192	32388	
3088	0	33188	33130	
3089	0	32844	33447	
3090	0	32588	32640	
3091	0	32644	32462	
3092	0	32614	32296	
3093	0	32688	33572	
3094	0	32750	33126	
3095	0	32842	33486	
3096	0	32748	34012	
3097	0	32940	33716	
3098	0	32944	32702	
3099	0	32802	31534	
3100	0	32696	31716	
3101	0	32848	32230	
3102	0	32840	32989	
3103	0	32804	32884	
3104	0	32704	32836	
3105	0	32468	32911	
3106	0	32496	32428	
3107	0	32500	32423	
3108	0	32486	32222	
3109	0	32426	31744	
3110	0	32476	32580	
3111	0	32564	33732	
3112	0	32528	33666	
3113	0	32562	33644	
3114	0	32644	32692	
3115	0	32952	32304	
3116	0	33224	31949	
3117	0	33432	33468	
3118	0	33512	33992	
3119	0	32856	34082	
3120	0	32386	32936	
3121	0	32576	31580	
3122	0	32616	30884	
3123	0	32444	33876	
3124	0	32664	33926	
3125	0	33120	32640	
3126	0	33044	31770	
3127	0	32804	32764	
3128	0	32658	32751	
3129	0	32840	32884	
3130	0	32718	32886	
3131	0	32380	32828	
3132	0	32416	32854	
3133	0	32439	32902	
3134	0	32552	32770	
3135	0	32694	32839	
3136	0	32784	33074	
3137	0	32764	32810	
3138	0	32656	32315	
3139	0	32713	32036	
3140	0	32810	32500	
3141	0	32948	32642	
3142	0	33068	33210	
3143	0	32916	32844	
3144	0	32808	32601	
3145	0	32808	32436	
3146	0	32976	32360	
3147	0	33308	33012	
3148	0	33168	32608	
3149	0	32984	33018	
3150	0	32924	33223	
3151	0	32748	33808	
3152	0	32692	33524	
3153	0	32872	33970	
3154	0	32844	32526	
3155	0	32762	31956	
3156	0	32656	32234	
3157	0	32816	32314	
3158	0	32816	32448	
3159	0	32600	32668	
3160	0	32580	32641	
3161	0	32696	32134	
3162	0	32634	32270	
3163	0	32734	32839	
3164	0	32800	33287	
3165	0	32840	33050	
3166	0	32756	32492	
3167	0	32724	32996	
3168	0	32596	33200	
3169	0	32640	32614	
3170	0	32856	32902	
3171	0	32900	32540	
3172	0	33140	32864	
3173	0	33072	33122	
3174	0	32910	32928	
3175	0	32656	32722	
3176	0	32650	32392	
3177	0	32736	32642	
3178	0	32932	33319	
3179	0	32658	33036	
3180	0	32768	32312	
3181	0	33034	32452	
3182	0	32726	32854	
3183	0	32570	33224	
3184	0	32704	33202	
3185	0	32756	32702	
3186	0	32740	32236	
3187	0	32706	32576	
3188	0	32772	32978	
3189	0	32762	32897	
3190	0	33024	32519	
3191	0	32952	32180	
3192	0	32972	31286	
3193	0	32922	33230	
3194	0	32920	33736	
3195	0	32852	34218	
3196	0	32944	32988	
3197	0	33200	32170	
3198	0	32954	31303	
3199	0	32660	33628	
3200	0	32772	33356	
3201	0	32804	32804	
3202	0	32578	33118	
3203	0	32800	33103	
3204	0	32660	32818	
3205	0	32446	32560	
3206	0	32448	32468	
3207	0	32540	32622	
3208	0	32684	32597	
3209	0	32754	32631	
3210	0	32890	32624	
3211	0	32844	32844	
3212	0	32880	32704	
3213	0	32836	32775	
3214	0	33002	32236	
3215	0	33145	32314	
3216	0	33118	32580	
3217	0	32780	32644	
3218	0	32878	32572	
3219	0	32920	32484	
3220	0	32564	32734	
3221	0	32090	32860	
3222	0	32412	33490	
3223	0	33068	33279	
3224	0	33016	33260	
3225	0	33072	33062	
3226	0	33512	32853	
3227	0	33352	32424	
3228	0	32804	32324	
3229	0	32688	32532	
3230	0	32552	32884	
3231	0	32572	32462	
3232	0	32464	33238	
3233	0	32644	32828	
3234	0	32840	32236	
3235	0	32594	32578	
3236	0	32784	32916	
3237	0	32824	32836	
3238	0	32788	32510	
3239	0	32704	32482	
3240	0	32884	32476	
3241	0	32760	32828	
3242	0	32716	32676	
3243	0	32782	32714	
3244	0	32736	32661	
3245	0	32830	32734	
3246	0	32810	32794	
3247	0	32852	32800	
3248	0	32880	32834	
3249	0	32976	32774	
3250	0	33072	32544	
3251	0	32952	32716	
3252	0	32858	32920	
3253	0	32816	32748	
3254	0	32670	32560	
3255	0	32628	32650	
3256	0	32706	32342	
3257	0	32596	33079	
3258	0	32708	33426	
3259	0	33218	32807	
3260	0	33092	33248	
3261	0	32708	32910	
3262	0	32748	32486	
3263	0	32900	32532	
3264	0	33102	32294	
3265	0	33034	32494	
3266	0	32924	32511	
3267	0	32724	32652	
3268	0	32760	32884	
3269	0	32708	32982	
3270	0	32526	32865	
3271	0	32580	32404	
3272	0	32644	32366	
3273	0	32632	32831	
3274	0	32884	32752	
3275	0	32912	33052	
3276	0	33032	32775	
3277	0	32962	32992	
3278	0	32704	32968	
3279	0	32624	32721	
3280	0	33228	33326	
3281	0	33058	33082	
3282	0	32756	33402	
3283	0	32754	32664	
3284	0	32810	32359	
3285	0	32888	32812	
3286	0	33186	32624	
3287	0	32888	32696	
3288	0	32912	32842	
3289	0	32920	32882	
3290	0	32756	33124	
3291	0	32724	33272	
3292	0	32744	32920	
3293	0	32900	33166	
3294	0	32796	33168	
3295	0	32652	32764	
3296	0	32744	32448	
3297	0	32816	32532	
3298	0	32792	32381	
3299	0	32828	32666	
3300	0	32874	32982	
3301	0	32904	32678	
3302	0	32852	32444	
3303	0	32934	32612	
3304	0	32932	32838	
3305	0	32724	32716	
3306	0	32660	32606	
3307	0	32720	32558	
3308	0	32632	32598	
3309	0	32644	32812	
3310	0	32792	33108	
3311	0	32936	32916	
3312	0	32846	32690	
3313	0	32812	32908	
3314	0	32670	33258	
3315	0	32624	32817	
3316	0	32854	32632	
3317	0	32864	32712	
3318	0	32900	32552	
3319	0	32632	32236	
3320	0	32702	32430	
3321	0	33232	32580	
3322	0	33072	32840	
3323	0	32748	32838	
3324	0	32940	33104	
3325	0	32900	33090	
3326	0	32794	33031	
3327	0	32720	32743	
3328	0	32696	32775	
3329	0	32560	32796	
3330	0	32842	33070	
3331	0	32948	32826	
3332	0	32686	32688	
3333	0	32798	32576	
3334	0	33040	32456	
3335	0	33196	32468	
3336	0	32920	32464	
3337	0	32794	32775	
3338	0	32842	32680	
3339	0	32784	32444	
3340	0	32700	32631	
3341	0	32644	32406	
3342	0	32546	32580	
3343	0	32624	32507	
3344	0	32872	32796	
3345	0	32924	32366	
3346	0	33002	31856	
3347	0	33242	32750	
3348	0	33456	34096	
3349	0	33040	33580	
3350	0	32876	33326	
3351	0	32844	32804	
3352	0	32852	32775	
3353	0	32588	32614	
3354	0	32682	32592	
3355	0	32892	32628	
3356	0	32740	32452	
3357	0	32630	32652	
3358	0	32644	32654	
3359	0	32606	32518	
3360	0	32800	32612	
3361	0	32850	33124	
3362	0	32834	32999	
3363	0	32836	32750	
3364	0	32804	32998	
3365	0	32832	32764	
3366	0	32932	32752	
3367	0	32814	32792	
3368	0	32760	32804	
3369	0	32976	32615	
3370	0	32962	33004	
3371	0	32921	32674	
3372	0	32824	32388	
3373	0	32798	32574	
3374	0	32810	32647	
3375	0	32648	32849	
3376	0	32600	32788	
3377	0	32504	32548	
3378	0	32754	32638	
3379	0	32884	32606	
3380	0	32976	32760	
3381	0	32840	33056	
3382	0	32828	33262	
3383	0	32828	33031	
3384	0	32834	33054	
3385	0	32864	32846	
3386	0	32900	32472	
3387	0	33078	33048	
3388	0	32994	32854	
3389	0	32881	32610	
3390	0	32728	32625	
3391	0	32648	32720	
3392	0	32756	32734	
3393	0	32860	32892	
3394	0	32888	32676	
3395	0	33154	32592	
3396	0	33142	32618	
3397	0	32878	32572	
3398	0	32788	32518	
3399	0	32736	32862	
3400	0	33060	32868	
3401	0	32896	32654	
3402	0	32768	32705	
3403	0	32540	32654	
3404	0	32312	32486	
3405	0	32588	32302	
3406	0	33062	32806	
3407	0	32782	33052	
3408	0	32572	32743	
3409	0	32812	33011	
3410	0	32736	33120	
3411	0	32736	33112	
3412	0	32712	32902	
3413	0	32736	32799	
3414	0	32750	32392	
3415	0	32692	32578	
3416	0	32860	32582	
3417	0	32868	32577	
3418	0	32910	32439	
3419	0	32932	32396	
3420	0	32791	32340	
3421	0	32816	32572	
3422	0	32680	32578	
3423	0	32628	32550	
3424	0	32764	32670	
3425	0	32816	32775	
3426	0	32844	32700	
3427	0	32820	32796	
3428	0	32824	32771	
3429	0	32852	32775	
3430	0	32802	32748	
3431	0	32802	32775	
3432	0	32854	32725	
3433	0	32696	32474	
3434	0	32704	32792	
3435	0	32680	32700	
3436	0	32510	32306	
3437	0	32584	32150	
3438	0	32612	32468	
3439	0	32750	33112	
3440	0	33188	32629	
3441	0	33132	32830	
3442	0	33172	32404	
3443	0	32918	32614	
3444	0	32808	32944	
3445	0	32788	32724	
3446	0	32844	32438	
3447	0	32740	32492	
3448	0	32692	32604	
3449	0	32692	32584	
3450	0	32744	32870	
3451	0	32808	32814	
3452	0	32884	32847	
3453	0	32900	32888	
3454	0	32858	33136	
3455	0	32948	32942	
3456	0	32948	32704	
3457	0	32904	32612	
3458	0	32936	32548	
3459	0	32844	32636	
3460	0	32636	32655	
3461	0	32676	32746	
3462	0	32714	32592	
3463	0	32786	32610	
3464	0	32804	32498	
3465	0	32828	32684	
3466	0	32714	32492	
3467	0	32648	32576	
3468	0	32804	32751	
3469	0	32944	32959	
3470	0	32988	33183	
3471	0	32902	33070	
3472	0	32854	33230	
3473	0	33008	33188	
3474	0	32824	33450	
3475	0	32964	33665	
3476	0	32984	33024	
3477	0	32740	32868	
3478	0	32730	33090	
3479	0	32698	33338	
3480	0	32752	33042	
3481	0	33028	32713	
3482	0	33068	32804	
3483	0	32816	32644	
3484	0	32730	32711	
3485	0	32728	32868	
3486	0	32712	32886	
3487	0	32600	32816	
3488	0	32744	32722	
3489	0	32864	32836	
3490	0	32836	32692	
3491	0	32890	32636	
3492	0	32856	32598	
3493	0	32826	32666	
3494	0	32724	32410	
3495	0	32868	32498	
3496	0	32812	32567	
3497	0	32832	32502	
3498	0	32821	32830	
3499	0	32876	33015	
3500	0	32852	33078	
3501	0	32900	32958	
3502	0	32836	32992	
3503	0	32902	32871	
3504	0	32929	32674	
3505	0	32836	32298	
3506	0	32836	32420	
3507	0	32832	32455	
3508	0	32715	32464	
3509	0	32714	32454	
3510	0	32786	32454	
3511	0	32866	32647	
3512	0	32796	32966	
3513	0	32784	33204	
3514	0	32900	32762	
3515	0	33104	32468	
3516	0	33024	32512	
3517	0	32854	32802	
3518	0	32732	32678	
3519	0	32656	32806	
3520	0	32624	33052	
3521	0	32698	33118	
3522	0	32692	33354	
3523	0	32844	33542	
3524	0	32768	33700	
3525	0	32816	33620	
3526	0	32878	33599	
3527	0	32742	33738	
3528	0	32766	33690	
3529	0	32824	33216	
3530	0	32816	33062	
3531	0	32760	33020	
3532	0	32774	32903	
3533	0	32656	32950	
3534	0	32680	33064	
3535	0	32648	33073	
3536	0	32516	32924	
3537	0	32746	32842	
3538	0	32792	32690	
3539	0	32900	32686	
3540	0	32853	32980	
3541	0	33188	33166	
3542	0	33500	33350	
3543	0	32962	33386	
3544	0	32546	33503	
3545	0	32606	33873	
3546	0	32542	34670	
3547	0	32572	34174	
3548	0	32705	34030	
3549	0	32848	33654	
3550	0	32808	33272	
3551	0	32784	32820	
3552	0	32720	32492	
3553	0	32748	32774	
3554	0	32856	32935	
3555	0	32828	32908	
3556	0	32778	32599	
3557	0	32848	32852	
3558	0	32752	33068	
3559	0	32768	32950	
3560	0	32814	32948	
3561	0	32828	32850	
3562	0	32824	32980	
3563	0	32864	33312	
3564	0	32832	33394	
3565	0	32908	33148	
3566	0	32836	33044	
3567	0	32796	33022	
3568	0	32740	33066	
3569	0	32760	32740	
3570	0	32760	32130	
3571	0	32864	32013	
3572	0	32840	31690	
3573	0	32724	31640	
3574	0	32780	31924	
3575	0	32746	31890	
3576	0	32778	32316	
3577	0	32842	32479	
3578	0	32808	32646	
3579	0	32788	32596	
3580	0	32836	33312	
3581	0	32952	33072	
3582	0	33020	32980	
3583	0	33006	32550	
3584	0	32890	32439	
3585	0	32674	32826	
3586	0	32641	32743	
3587	0	32744	32426	
3588	0	32688	32245	
3589	0	32952	32118	
3590	0	32820	31786	
3591	0	32830	31924	
3592	0	32936	31686	
3593	0	33012	31556	
3594	0	32956	31412	
3595	0	32844	31393	
3596	0	32806	31686	
3597	0	32782	31822	
3598	0	32922	31800	
3599	0	32854	31938	
3600	0	32736	31568	
3601	0	32742	31572	
3602	0	33032	31542	
3603	0	33120	31671	
3604	0	32968	31692	
3605	0	32812	31848	
3606	0	32650	31876	
3607	0	32672	32150	
3608	0	32852	32500	
3609	0	32820	32527	
3610	0	32744	32418	
3611	0	32768	32602	
3612	0	32712	32986	
3613	0	32832	32964	
3614	0	32960	32999	
3615	0	32926	33359	
3616	0	33056	33606	
3617	0	32864	33528	
3618	0	32740	33536	
3619	0	32768	33110	
3620	0	32878	32725	
3621	0	32868	32167	
3622	0	32780	31580	
3623	0	32788	31474	
3624	0	32750	31481	
3625	0	32686	31696	
3626	0	32732	31806	
3627	0	32738	31848	
3628	0	32737	31844	
3629	0	32684	31919	
3630	0	32668	32423	
3631	0	32738	32878	
3632	0	32724	33252	
3633	0	32644	32848	
3634	0	32676	32746	
3635	0	32784	32822	
3636	0	32822	32948	
3637	0	32746	32942	
3638	0	32756	32986	
3639	0	32816	33256	
3640	0	32826	33319	
3641	0	32772	33307	
3642	0	32856	33318	
3643	0	32976	33225	
3644	0	32832	33127	
3645	0	32792	33012	
3646	0	32832	32918	
3647	0	32840	32764	
3648	0	32828	32560	
3649	0	32862	32126	
3650	0	32892	31978	
3651	0	32856	31980	
3652	0	32936	31792	
3653	0	32924	32014	
3654	0	32984	32020	
3655	0	32890	32198	
3656	0	32820	32263	
3657	0	32846	32426	
3658	0	32804	32674	
3659	0	32821	32960	
3660	0	32792	33151	
3661	0	32848	33338	
3662	0	32852	33632	
3663	0	32840	33742	
3664	0	32856	33839	
3665	0	32828	33716	
3666	0	32800	33744	
3667	0	32900	33996	
3668	0	32896	34176	
3669	0	32716	33754	
3670	0	32682	33537	
3671	0	32684	33234	
3672	0	32888	33391	
3673	0	32862	33134	
3674	0	32880	33118	
3675	0	32810	32762	
3676	0	32697	32920	
3677	0	32784	33087	
3678	0	32708	32988	
3679	0	32784	33170	
3680	0	32788	33284	
3681	0	32804	33031	
3682	0	32854	33279	
3683	0	32852	33348	
3684	0	32820	33180	
3685	0	32864	33304	
3686	0	32856	33358	
3687	0	32840	33362	
3688	0	32786	33320	
3689	0	32792	33227	
3690	0	32820	32940	
3691	0	32740	32986	
3692	0	32744	32896	
3693	0	32784	32620	
3694	0	32844	32764	
3695	0	32864	32775	
3696	0	32830	32644	
3697	0	32856	32694	
3698	0	32812	32836	
3699	0	32708	32772	
3700	0	32716	32432	
3701	0	32744	32418	
3702	0	32850	32454	
3703	0	32836	32422	
3704	0	32772	32310	
3705	0	32794	32248	
3706	0	32692	32296	
3707	0	32756	32176	
3708	0	32808	32070	
3709	0	32792	32263	
3710	0	32878	32328	
3711	0	32774	32407	
3712	0	32716	32572	
3713	0	32742	32542	
3714	0	32772	32606	
3715	0	32816	32647	
3716	0	32767	32655	
3717	0	32780	32498	
3718	0	32694	32644	
3719	0	32692	32532	
3720	0	32824	32874	
3721	0	32724	33073	
3722	0	32604	32960	
3723	0	32624	33000	
3724	0	32812	32880	
3725	0	32860	32674	
3726	0	32872	32818	
3727	0	32892	32793	
3728	0	32904	32764	
3729	0	32908	33016	
3730	0	32780	32926	
3731	0	32884	32918	
3732	0	32832	32958	
3733	0	32730	33090	
3734	0	32820	33008	
3735	0	32834	33068	
3736	0	32852	32932	
3737	0	32944	32788	
3738	0	32864	32590	
3739	0	32860	32262	
3740	0	32838	32660	
3741	0	32794	32892	
3742	0	32836	32564	
3743	0	32816	32426	
3744	0	32764	32368	
3745	0	32862	32216	
3746	0	32688	32232	
3747	0	32718	32039	
3748	0	32844	32082	
3749	0	32830	31992	
3750	0	32864	31808	
3751	0	33016	31888	
3752	0	32968	32054	
3753	0	32904	32328	
3754	0	32849	32504	
3755	0	32808	32363	
3756	0	32744	32446	
3757	0	32756	32591	
3758	0	32736	32876	
3759	0	32760	33176	
3760	0	32820	33154	
3761	0	32974	33272	
3762	0	33002	33382	
3763	0	33018	33312	
3764	0	32988	33319	
3765	0	32804	33320	
3766	0	32792	33272	
3767	0	32689	33439	
3768	0	32724	33524	
3769	0	32822	33134	
3770	0	32924	33302	
3771	0	32872	33170	
3772	0	32920	33456	
3773	0	32858	33462	
3774	0	32828	33270	
3775	0	32812	33242	
3776	0	32836	33414	
3777	0	32764	33156	
3778	0	32680	33040	
3779	0	32684	32810	
3780	0	32688	32765	
3781	0	32648	33044	
3782	0	32708	33135	
3783	0	32740	33196	
3784	0	32772	33160	
3785	0	32746	33156	
3786	0	32852	33200	
3787	0	32812	33232	
3788	0	32812	33190	
3789	0	32794	33002	
3790	0	32716	32756	
3791	0	32684	32988	
3792	0	32676	32984	
3793	0	32866	33010	
3794	0	32848	33126	
3795	0	32780	33226	
3796	0	33060	33302	
3797	0	32904	33504	
3798	0	32810	33258	
3799	0	32792	33004	
3800	0	32740	33308	
3801	0	32876	33424	
3802	0	33048	33297	
3803	0	33016	33415	
3804	0	32956	33216	
3805	0	32888	33336	
3806	0	32800	33086	
3807	0	32792	33052	
3808	0	32880	33046	
3809	0	32820	32916	
3810	0	32812	32844	
3811	0	32752	32706	
3812	0	32856	32850	
3813	0	32900	32652	
3814	0	32944	32647	
3815	0	32806	32597	
3816	0	32912	32620	
3817	0	32880	32686	
3818	0	32912	32636	
3819	0	32984	32678	
3820	0	32960	32711	
3821	0	32932	32756	
3822	0	32892	32628	
3823	0	32834	32484	
3824	0	32820	32708	
3825	0	32772	32856	
3826	0	32936	32606	
3827	0	33048	32664	
3828	0	32924	32596	
3829	0	32876	32710	
3830	0	32804	32775	
3831	0	32730	32874	
3832	0	32636	32864	
3833	0	32556	32844	
3834	0	32580	33026	
3835	0	32430	33063	
3836	0	32450	33092	
3837	0	32456	33376	
3838	0	32372	33499	
3839	0	32319	33480	
3840	0	32334	33174	
3841	0	32522	33191	
3842	0	32628	33160	
3843	0	32596	33130	
3844	0	32648	32908	
3845	0	32696	33134	
3846	0	32648	32946	
3847	0	32622	32772	
3848	0	32694	32471	
3849	0	32666	32296	
3850	0	32816	32302	
3851	0	32856	32151	
3852	0	32894	32106	
3853	0	32900	32185	
3854	0	32996	32302	
3855	0	33090	32594	
3856	0	33032	32532	
3857	0	33088	32898	
3858	0	33024	32952	
3859	0	32988	32756	
3860	0	32968	32689	
3861	0	32896	32766	
3862	0	32892	32698	
3863	0	32864	32748	
3864	0	32892	32772	
3865	0	32952	32786	
3866	0	32816	32574	
3867	0	32812	32314	
3868	0	32860	32700	
3869	0	32974	32932	
3870	0	32948	32748	
3871	0	32874	32628	
3872	0	32901	32688	
3873	0	32852	32792	
3874	0	32960	32804	
3875	0	32964	32744	
3876	0	32844	32638	
3877	0	32756	32636	
3878	0	32750	32672	
3879	0	32792	32876	
3880	0	32852	32768	
3881	0	32764	32440	
3882	0	32790	32542	
3883	0	32738	32667	
3884	0	32689	32551	
3885	0	32736	32591	
3886	0	32786	32668	
3887	0	32804	32656	
3888	0	32880	32724	
3889	0	32848	32692	
3890	0	32864	32750	
3891	0	32892	32804	
3892	0	32852	32746	
3893	0	32808	32647	
3894	0	32738	32462	
3895	0	32768	32602	
3896	0	32740	32527	
3897	0	32808	32340	
3898	0	32812	32596	
3899	0	32812	32712	
3900	0	32820	32478	
3901	0	32884	32554	
3902	0	32862	32608	
3903	0	32782	32454	
3904	0	32784	32391	
3905	0	32684	32418	
3906	0	32810	32742	
3907	0	32792	33060	
3908	0	32792	32606	
3909	0	32964	32492	
3910	0	32848	32592	
3911	0	32872	32472	
3912	0	32932	32775	
3913	0	32852	32996	
3914	0	32816	32892	
3915	0	32759	32508	
3916	0	32784	32488	
3917	0	32702	32630	
3918	0	32810	32706	
3919	0	32864	32734	
3920	0	32724	32725	
3921	0	32756	32486	
3922	0	32868	32464	
3923	0	32790	32732	
3924	0	32900	32642	
3925	0	32840	32743	
3926	0	32816	32655	
3927	0	32876	32710	
3928	0	32820	32625	
3929	0	32880	32607	
3930	0	32850	32544	
3931	0	32752	32672	
3932	0	32688	32640	
3933	0	32768	32711	
3934	0	32774	32519	
3935	0	32696	32586	
3936	0	32730	32642	
3937	0	32840	32705	
3938	0	32764	32812	
3939	0	32820	32647	
3940	0	32770	32710	
3941	0	32874	32698	
3942	0	32884	32711	
3943	0	32900	32734	
3944	0	32932	32664	
3945	0	32896	32830	
3946	0	32812	32775	
3947	0	32816	32816	
3948	0	32810	32652	
3949	0	32790	32615	
3950	0	32726	32544	
3951	0	32708	32839	
3952	0	32728	32775	
3953	0	32722	32626	
3954	0	32728	32576	
3955	0	32756	32754	
3956	0	32846	32660	
3957	0	32928	32570	
3958	0	32894	32572	
3959	0	32824	32623	
3960	0	32798	32480	
3961	0	32814	32518	
3962	0	32864	32502	
3963	0	32834	32596	
3964	0	32890	32532	
3965	0	32992	32510	
3966	0	32950	32678	
3967	0	32810	32683	
3968	0	32644	32514	
3969	0	32716	32680	
3970	0	32656	32770	
3971	0	32772	32636	
3972	0	32756	32640	
3973	0	32782	32552	
3974	0	32884	32810	
3975	0	32842	32874	
3976	0	32872	32728	
3977	0	32880	32724	
3978	0	32856	32518	
3979	0	32842	32647	
3980	0	32722	32916	
3981	0	32700	32926	
3982	0	32692	32775	
3983	0	32728	32855	
3984	0	32682	32890	
3985	0	32742	32656	
3986	0	32700	32724	
3987	0	32758	32865	
3988	0	32807	32724	
3989	0	32830	32824	
3990	0	32832	32820	
3991	0	32784	32764	
3992	0	32752	32788	
3993	0	32868	32618	
3994	0	32750	32588	
3995	0	32876	32822	
3996	0	32834	32748	
3997	0	32852	32718	
3998	0	32868	32504	
3999	0	32988	32764	
4000	0	33002	32972	
4001	0	33056	32736	
4002	0	32932	32824	
4003	0	32860	32664	
4004	0	32794	32614	
4005	0	32798	32670	
4006	0	32816	32516	
4007	0	32806	32263	
4008	0	32776	32562	
4009	0	32766	32660	
4010	0	32720	32894	
4011	0	32836	32720	
4012	0	32976	32836	
4013	0	32952	32920	
4014	0	32964	33084	
4015	0	32868	32986	
4016	0	32756	32860	
4017	0	32786	32596	
4018	0	32792	32775	
4019	0	32740	32606	
4020	0	32876	32855	
4021	0	32834	32964	
4022	0	32828	33024	
4023	0	32752	32954	
4024	0	32782	32769	
4025	0	32840	32682	
4026	0	32870	32614	
4027	0	32782	32632	
4028	0	32822	32732	
4029	0	32862	32750	
4030	0	32720	32801	
4031	0	32776	32790	
4032	0	32775	32862	
4033	0	32874	32807	
4034	0	32784	32795	
4035	0	32792	32828	
4036	0	32808	32911	
4037	0	32836	32918	
4038	0	32752	32663	
4039	0	32774	32821	
4040	0	32748	32746	
4041	0	32794	32920	
4042	0	32770	32771	
4043	0	32862	32892	
4044	0	32830	32775	
4045	0	32816	32884	
4046	0	32782	32874	
4047	0	32846	32775	
4048	0	32858	32974	
4049	0	32840	32888	
4050	0	32798	32876	
4051	0	32820	32762	
4052	0	32836	32756	
4053	0	32764	32735	
4054	0	32748	32560	
4055	0	32756	32606	
4056	0	32824	32868	
4057	0	32720	32897	
4058	0	32864	33068	
4059	0	32868	32607	
4060	0	32956	32564	
4061	0	32792	32794	
4062	0	32724	32732	
4063	0	32748	32735	
4064	0	32816	33218	
4065	0	32756	32970	
4066	0	32772	32935	
4067	0	32844	32866	
4068	0	32860	32734	
4069	0	32786	32734	
4070	0	32880	32811	
4071	0	32830	32818	
4072	0	32848	32664	
4073	0	32840	32790	
4074	0	32818	32764	
4075	0	32810	32822	
4076	0	32864	32769	
4077	0	32782	32700	
4078	0	32698	32760	
4079	0	32746	32898	
4080	0	32832	32968	
4081	0	32824	32836	
4082	0	32844	32912	
4083	0	32784	33031	
4084	0	32780	32948	
4085	0	32788	32452	
4086	0	32800	32519	
4087	0	32792	32754	
4088	0	32878	32640	
4089	0	32852	32678	
4090	0	32852	32731	
4091	0	32784	32662	
4092	0	32868	32814	
4093	0	32824	33308	
4094	0	32748	33142	
4095	0	32814	32752	
4096	0	32778	32632	
4097	0	32736	32544	
4098	0	32830	32760	
4099	0	32764	32675	
4100	0	32784	32809	
4101	0	32680	32934	
4102	0	32740	32802	
4103	0	32828	32872	
4104	0	32808	32855	
4105	0	32854	32914	
4106	0	32832	32695	
4107	0	32784	32632	
4108	0	32810	32726	
4109	0	32846	32678	
4110	0	32836	32775	
4111	0	32784	32634	
4112	0	32836	32676	
4113	0	32822	32684	
4114	0	32742	32670	
4115	0	32796	32725	
4116	0	32868	32638	
4117	0	32852	32812	
4118	0	32840	32826	
4119	0	32784	32570	
4120	0	32786	32642	
4121	0	32784	32622	
4122	0	32788	32942	
4123	0	32790	32840	
4124	0	32782	32647	
4125	0	32756	32704	
4126	0	32790	32988	
4127	0	32752	32953	
4128	0	32784	32956	
4129	0	32708	32918	
4130	0	32780	32880	
4131	0	32816	32756	
4132	0	32860	32671	
4133	0	32820	32607	
4134	0	32810	32839	
4135	0	32828	32860	
4136	0	32852	32763	
4137	0	32802	32710	
4138	0	32764	32742	
4139	0	32821	32862	
4140	0	32820	32988	
4141	0	32828	32796	
4142	0	32864	32676	
4143	0	33000	32688	
4144	0	33022	32783	
4145	0	32940	32919	
4146	0	32844	32970	
4147	0	32810	32967	
4148	0	32804	32918	
4149	0	32804	32680	
4150	0	32800	32748	
4151	0	32756	32836	
4152	0	32708	32832	
4153	0	32790	32796	
4154	0	32778	32666	
4155	0	32802	32636	
4156	0	32820	32554	
4157	0	32856	32676	
4158	0	32772	32628	
4159	0	32756	32860	
4160	0	32826	32866	
4161	0	32804	32898	
4162	0	32836	32804	
4163	0	32782	32722	
4164	0	32792	32775	
4165	0	32840	32880	
4166	0	32784	32796	
4167	0	32904	32664	
4168	0	32816	32791	
4169	0	32876	32736	
4170	0	32874	32704	
4171	0	32798	32742	
4172	0	32872	32746	
4173	0	32838	32860	
4174	0	32794	32860	
4175	0	32762	32804	
4176	0	32780	32810	
4177	0	32706	32874	
4178	0	32734	32868	
4179	0	32794	32884	
4180	0	32982	32807	
4181	0	32880	32416	
4182	0	32964	32352	
4183	0	32831	32656	
4184	0	32751	32710	
4185	0	32668	32686	
4186	0	32692	32725	
4187	0	32708	32710	
4188	0	32860	32535	
4189	0	32926	32756	
4190	0	32856	32758	
4191	0	32900	32696	
4192	0	32916	33031	
4193	0	32916	32964	
4194	0	32996	32983	
4195	0	32960	32775	
4196	0	32956	32660	
4197	0	32808	32817	
4198	0	32738	32903	
4199	0	32804	32670	
4200	0	32706	32832	
4201	0	32708	32796	
4202	0	32752	32759	
4203	0	32772	32628	
4204	0	32792	32846	
4205	0	32866	32772	
4206	0	32792	32852	
4207	0	32828	32807	
4208	0	32840	32872	
4209	0	32724	32772	
4210	0	32820	32775	
4211	0	32812	32590	
4212	0	32804	32514	
4213	0	32752	32682	
4214	0	32816	32772	
4215	0	32748	32562	
4216	0	32756	32604	
4217	0	32750	32604	
4218	0	32821	32686	
4219	0	32746	32640	
4220	0	32788	32800	
4221	0	32738	32882	
4222	0	32821	32839	
4223	0	32824	32775	
4224	0	32836	32864	
4225	0	32932	32798	
4226	0	32876	32932	
4227	0	32828	32839	
4228	0	32808	32676	
4229	0	32814	32832	
4230	0	32840	32983	
4231	0	32864	32775	
4232	0	32862	32878	
4233	0	32868	32775	
4234	0	32874	32596	
4235	0	32788	32580	
4236	0	32836	32640	
4237	0	32820	32740	
4238	0	32780	32796	
4239	0	32808	32870	
4240	0	32800	32801	
4241	0	32782	32756	
4242	0	32816	32732	
4243	0	32822	32726	
4244	0	32882	32882	
4245	0	32872	32696	
4246	0	32800	32814	
4247	0	32808	32658	
4248	0	32778	32730	
4249	0	32820	32658	
4250	0	32782	32738	
4251	0	32764	32870	
4252	0	32712	32846	
4253	0	32820	32772	
4254	0	32820	32862	
4255	0	32860	32718	
4256	0	32888	32683	
4257	0	32900	32616	
4258	0	32834	32743	
4259	0	32898	32746	
4260	0	32854	32524	
4261	0	32776	32697	
4262	0	32834	32856	
4263	0	32800	32901	
4264	0	32828	32684	
4265	0	32856	32856	
4266	0	32868	32891	
4267	0	32988	32680	
4268	0	32932	32647	
4269	0	32752	32756	
4270	0	32774	32730	
4271	0	32894	32576	
4272	0	33020	32516	
4273	0	32880	32742	
4274	0	32794	32816	
4275	0	32786	32679	
4276	0	32704	32688	
4277	0	32764	32730	
4278	0	32730	32774	
4279	0	32764	32768	
4280	0	32820	32748	
4281	0	32838	32887	
4282	0	32769	32775	
4283	0	32816	32711	
4284	0	32920	32775	
4285	0	32840	32852	
4286	0	32846	32680	
4287	0	32908	32759	
4288	0	32825	32766	
4289	0	32824	32666	
4290	0	32896	32762	
4291	0	32904	32806	
4292	0	32828	32799	
4293	0	32888	32782	
4294	0	32824	32692	
4295	0	32792	32803	
4296	0	32844	32810	
4297	0	32786	32732	
4298	0	32752	32862	
4299	0	32756	32868	
4300	0	32852	32950	
4301	0	32708	32889	
4302	0	32792	32775	
4303	0	32866	32879	
4304	0	32800	32844	
4305	0	32768	32839	
4306	0	32714	32775	
4307	0	32748	32647	
4308	0	32800	32900	
4309	0	32782	32871	
4310	0	32780	32847	
4311	0	32716	32920	
4312	0	32740	32900	
4313	0	32760	32908	
4314	0	32738	32855	
4315	0	32728	32828	
4316	0	32780	32862	
4317	0	32828	32775	
4318	0	32796	32700	
4319	0	32684	32748	
4320	0	32760	32692	
4321	0	32816	32738	
4322	0	32790	32775	
4323	0	32774	32738	
4324	0	32908	32766	
4325	0	32802	32700	
4326	0	32828	32798	
4327	0	32880	32760	
4328	0	32760	32710	
4329	0	32820	32644	
4330	0	32788	32854	
4331	0	32792	32924	
4332	0	32788	32696	
4333	0	32868	32652	
4334	0	32778	32670	
4335	0	32808	32664	
4336	0	32764	32738	
4337	0	32764	32775	
4338	0	32740	32500	
4339	0	32804	32720	
4340	0	32816	32528	
4341	0	32836	32526	
4342	0	32857	32678	
4343	0	32792	32628	
4344	0	32798	32800	
4345	0	32820	32788	
4346	0	32780	32724	
4347	0	32768	32775	
4348	0	32784	32702	
4349	0	32810	32688	
4350	0	32856	32676	
4351	0	32824	32702	
4352	0	32870	32526	
4353	0	32956	32688	
4354	0	32900	32670	
4355	0	32810	32567	
4356	0	32758	32732	
4357	0	32756	32624	
4358	0	32730	32588	
4359	0	32736	32743	
4360	0	32776	32775	
4361	0	32740	32660	
4362	0	32840	32738	
4363	0	32756	32660	
4364	0	32868	32736	
4365	0	32820	32860	
4366	0	32840	32830	
4367	0	32848	32680	
4368	0	32900	32692	
4369	0	32744	32636	
4370	0	32768	32622	
4371	0	32828	32554	
4372	0	32802	32640	
4373	0	32834	32684	
4374	0	32816	32643	
4375	0	32734	32814	
4376	0	32764	32775	
4377	0	32746	32710	
4378	0	32820	32818	
4379	0	32788	32738	
4380	0	32752	32640	
4381	0	32868	32772	
4382	0	32798	32756	
4383	0	32836	32486	
4384	0	32802	32666	
4385	0	32824	32884	
4386	0	32856	32818	
4387	0	32912	32948	
4388	0	32864	32868	
4389	0	32896	32731	
4390	0	32854	32820	
4391	0	32804	32860	
4392	0	32792	32775	
4393	0	32760	32743	
4394	0	32752	32775	
4395	0	32764	32798	
4396	0	32792	32926	
4397	0	32818	32822	
4398	0	32774	32946	
4399	0	32840	32903	
4400	0	32792	32738	
4401	0	32808	32775	
4402	0	32820	32840	
4403	0	32844	32798	
4404	0	32818	32916	
4405	0	32775	32736	
4406	0	32804	32912	
4407	0	32816	32942	
4408	0	32840	32859	
4409	0	32810	32806	
4410	0	32874	32832	
4411	0	32808	32910	
4412	0	32844	32955	
4413	0	32882	32996	
4414	0	32798	32860	
4415	0	32804	32775	
4416	0	32708	32743	
4417	0	32796	32924	
4418	0	32806	33018	
4419	0	32816	32788	
4420	0	32790	32754	
4421	0	32780	32740	
4422	0	32830	32686	
4423	0	32826	32583	
4424	0	32842	32612	
4425	0	32804	32692	
4426	0	32740	32800	
4427	0	32856	32519	
4428	0	32732	32500	
4429	0	32760	32490	
4430	0	32816	32490	
4431	0	32752	32519	
4432	0	32740	32554	
4433	0	32796	32644	
4434	0	32736	32823	
4435	0	32748	32743	
4436	0	32748	32686	
4437	0	32766	32761	
4438	0	32813	32903	
4439	0	32775	32842	
4440	0	32808	32816	
4441	0	32788	32796	
4442	0	32828	32756	
4443	0	32822	32794	
4444	0	32826	32806	
4445	0	32764	32740	
4446	0	32816	32800	
4447	0	32824	32806	
4448	0	32754	32734	
4449	0	32804	32826	
4450	0	32820	32757	
4451	0	32792	32755	
4452	0	32746	32774	
4453	0	32916	32888	
4454	0	32892	32918	
4455	0	32884	32822	
4456	0	32852	32824	
4457	0	32912	32816	
4458	0	32868	32871	
4459	0	32952	32822	
4460	0	32880	32766	
4461	0	32832	32854	
4462	0	32880	32770	
4463	0	32828	32770	
4464	0	32846	32680	
4465	0	32804	32724	
4466	0	32844	32664	
4467	0	32796	32647	
4468	0	32792	32694	
4469	0	32778	32706	
4470	0	32776	32616	
4471	0	32802	32670	
4472	0	32864	32647	
4473	0	32878	32580	
4474	0	32916	32673	
4475	0	32780	32805	
4476	0	32808	32824	
4477	0	32836	32837	
4478	0	32830	32890	
4479	0	32840	32764	
4480	0	32804	32767	
4481	0	32824	32846	
4482	0	32825	32662	
4483	0	32756	32720	
4484	0	32780	32727	
4485	0	32826	32653	
4486	0	32864	32688	
4487	0	32828	32670	
4488	0	32840	32612	
4489	0	32890	32632	
4490	0	32824	32644	
4491	0	32812	32715	
4492	0	32828	32738	
4493	0	32784	32748	
4494	0	32848	32858	
4495	0	32775	33022	
4496	0	32796	33118	
4497	0	32760	33018	
4498	0	32830	33194	
4499	0	32804	33158	
4500	0	32800	33208	
4501	0	32830	33202	
4502	0	32832	33228	
4503	0	32908	33106	
4504	0	32864	33102	
4505	0	32776	33062	
4506	0	32844	32881	
4507	0	32842	32814	
4508	0	32868	32752	
4509	0	32832	32876	
4510	0	32768	32832	
4511	0	32816	32705	
4512	0	32860	32718	
4513	0	32858	32724	
4514	0	32764	32695	
4515	0	32736	32562	
4516	0	32852	32554	
4517	0	32826	32372	
4518	0	32764	32428	
4519	0	32800	32460	
4520	0	32804	32434	
4521	0	32846	32458	
4522	0	32844	32428	
4523	0	32846	32388	
4524	0	32800	32543	
4525	0	32808	32660	
4526	0	32820	32616	
4527	0	32848	32634	
4528	0	32854	32668	
4529	0	32878	32716	
4530	0	32788	32762	
4531	0	32760	32748	
4532	0	32764	32856	
4533	0	32834	32814	
4534	0	32810	32834	
4535	0	32832	32832	
4536	0	32792	32846	
4537	0	32740	32916	
4538	0	32740	32775	
4539	0	32804	32858	
4540	0	32796	32892	
4541	0	32854	32766	
4542	0	32792	32919	
4543	0	32724	32816	
4544	0	32830	32618	
4545	0	32778	32576	
4546	0	32868	32538	
4547	0	32848	32458	
4548	0	32822	32324	
4549	0	32782	32330	
4550	0	32870	32504	
4551	0	32792	32599	
4552	0	32864	32775	
4553	0	32820	32983	
4554	0	32808	33124	
4555	0	32834	33418	
4556	0	32876	33535	
4557	0	32858	33442	
4558	0	32828	33454	
4559	0	32772	33564	
4560	0	32786	33358	
4561	0	32757	33303	
4562	0	32852	33186	
4563	0	32744	33164	
4564	0	32860	32976	
4565	0	32914	32806	
4566	0	32876	32662	
4567	0	32852	32823	
4568	0	32856	32622	
4569	0	32732	32745	
4570	0	32828	32640	
4571	0	32832	32542	
4572	0	32712	32452	
4573	0	32784	32460	
4574	0	32776	32488	
4575	0	32806	32506	
4576	0	32748	32374	
4577	0	32816	32411	
4578	0	32864	32340	
4579	0	32822	32534	
4580	0	32844	32487	
4581	0	32762	32338	
4582	0	32816	32535	
4583	0	32822	32376	
4584	0	32824	32308	
4585	0	32924	32374	
4586	0	32832	32440	
4587	0	32836	32434	
4588	0	32800	32615	
4589	0	32832	32690	
4590	0	32824	32600	
4591	0	32824	32788	
4592	0	32716	32831	
4593	0	32808	32838	
4594	0	32768	32987	
4595	0	32740	32990	
4596	0	32760	33007	
4597	0	32804	33162	
4598	0	32754	33136	
4599	0	32736	33082	
4600	0	32792	33075	
4601	0	32836	33150	
4602	0	32816	33066	
4603	0	32852	33003	
4604	0	32764	33048	
4605	0	32888	32954	
4606	0	32836	32930	
4607	0	32776	32850	
4608	0	32836	32920	
4609	0	32804	32884	
4610	0	32830	33060	
4611	0	32826	33018	
4612	0	32765	32775	
4613	0	32760	32850	
4614	0	32766	32744	
4615	0	32842	32807	
4616	0	32840	32826	
4617	0	32852	32717	
4618	0	32764	32870	
4619	0	32832	32844	
4620	0	32828	32768	
4621	0	32852	32944	
4622	0	32816	32743	
4623	0	32794	32734	
4624	0	32834	32810	
4625	0	32820	32792	
4626	0	32820	32652	
4627	0	32792	32775	
4628	0	32864	32679	
4629	0	32820	32794	
4630	0	32724	32838	
4631	0	32750	32654	
4632	0	32844	32736	
4633	0	32790	32644	
4634	0	32832	32722	
4635	0	32826	32775	
4636	0	32856	32721	
4637	0	32792	32682	
4638	0	32804	32746	
4639	0	32866	32884	
4640	0	32836	32736	
4641	0	32824	32702	
4642	0	32736	32727	
4643	0	32816	32710	
4644	0	32804	32676	
4645	0	32800	32766	
4646	0	32800	32820	
4647	0	32804	32712	
4648	0	32832	32696	
4649	0	32788	32820	
4650	0	32796	32708	
4651	0	32756	32734	
4652	0	32760	32810	
4653	0	32790	32646	
4654	0	32776	32794	
4655	0	32874	32720	
4656	0	32782	32686	
4657	0	32804	32732	
4658	0	32774	32775	
4659	0	32784	32774	
4660	0	32724	32786	
4661	0	32846	32864	
4662	0	32784	32770	
4663	0	32836	32794	
4664	0	32788	32700	
4665	0	32878	32824	
4666	0	32828	32775	
4667	0	32772	32722	
4668	0	32756	32757	
4669	0	32760	32787	
4670	0	32784	32814	
4671	0	32756	32882	
4672	0	32754	32671	
4673	0	32744	32830	
4674	0	32768	32718	
4675	0	32834	32768	
4676	0	32888	32775	
4677	0	32908	32640	
4678	0	32816	32920	
4679	0	32862	32860	
4680	0	32856	32718	
4681	0	32868	32793	
4682	0	32956	32736	
4683	0	32864	32690	
4684	0	32852	32654	
4685	0	32852	32588	
4686	0	32868	32704	
4687	0	32988	32586	
4688	0	32980	32455	
4689	0	33012	32646	
4690	0	33026	32690	
4691	0	32976	32549	
4692	0	32988	32736	
4693	0	33016	32646	
4694	0	33044	32600	
4695	0	33029	32647	
4696	0	32968	32591	
4697	0	33016	32664	
4698	0	32960	32666	
4699	0	32908	32670	
4700	0	32908	32838	
4701	0	32736	32820	
4702	0	32612	32986	
4703	0	32604	32934	
4704	0	32548	32854	
4705	0	32448	33008	
4706	0	32346	33063	
4707	0	32196	33055	
4708	0	32088	33292	
4709	0	32152	33236	
4710	0	32360	33140	
4711	0	32536	33196	
4712	0	32588	33015	
4713	0	32656	32876	
4714	0	32640	32890	
4715	0	32620	32938	
4716	0	32648	32820	
4717	0	32744	32764	
4718	0	32792	32692	
4719	0	32822	32766	
4720	0	32946	32583	
4721	0	33034	32489	
4722	0	33058	32550	
4723	0	33094	32476	
4724	0	33046	32388	
4725	0	32920	32578	
4726	0	33022	32524	
4727	0	32964	32475	
4728	0	33000	32583	
4729	0	32970	32554	
4730	0	32948	32710	
4731	0	32916	32670	
4732	0	32932	32590	
4733	0	32968	32650	
4734	0	32948	32656	
4735	0	32940	32628	
4736	0	33024	32790	
4737	0	32848	32750	
4738	0	32888	32692	
4739	0	32792	32786	
4740	0	32798	32718	
4741	0	32848	32700	
4742	0	32760	32784	
4743	0	32692	32852	
4744	0	32744	32710	
4745	0	32828	32839	
4746	0	32812	32793	
4747	0	32816	32642	
4748	0	32770	32857	
4749	0	32810	32725	
4750	0	32808	32722	
4751	0	32768	32754	
4752	0	32768	32834	
4753	0	32740	32720	
4754	0	32796	32838	
4755	0	32752	32870	
4756	0	32822	32738	
4757	0	32870	32868	
4758	0	32792	32775	
4759	0	32824	32726	
4760	0	32856	32752	
4761	0	32824	32774	
4762	0	32810	32734	
4763	0	32802	32742	
4764	0	32860	32725	
4765	0	32788	32680	
4766	0	32852	32699	
4767	0	32812	32824	
4768	0	32780	32708	
4769	0	32780	32774	
4770	0	32812	32812	
4771	0	32832	32676	
4772	0	32788	32766	
4773	0	32820	32775	
4774	0	32818	32670	
4775	0	32784	32736	
4776	0	32764	32694	
4777	0	32824	32753	
4778	0	32814	32742	
4779	0	32812	32796	
4780	0	32850	32760	
4781	0	32808	32753	
4782	0	32828	32682	
4783	0	32848	32764	
4784	0	32794	32764	
4785	0	32894	32858	
4786	0	32848	32846	
4787	0	32848	32743	
4788	0	32860	32864	
4789	0	32820	32834	
4790	0	32712	32690	
4791	0	32808	32740	
4792	0	32792	32794	
4793	0	32746	32704	
4794	0	32778	32772	
4795	0	32780	32890	
4796	0	32820	32748	
4797	0	32828	32735	
4798	0	32784	32770	
4799	0	32872	32816	
4800	0	32952	32708	
4801	0	32948	32696	
4802	0	32916	32804	
4803	0	32856	32798	
4804	0	32800	32796	
4805	0	32712	32732	
4806	0	32756	32842	
4807	0	32848	32822	
4808	0	32728	32692	
4809	0	32774	32756	
4810	0	32812	32802	
4811	0	32792	32688	
4812	0	32732	32734	
4813	0	32808	32774	
4814	0	32736	32730	
4815	0	32742	32775	
4816	0	32768	32716	
4817	0	32792	32728	
4818	0	32792	32750	
4819	0	32736	32710	
4820	0	32828	32766	
4821	0	32888	32748	
4822	0	32841	32807	
4823	0	32868	32932	
4824	0	32864	32767	
4825	0	32824	32756	
4826	0	32848	32800	
4827	0	32802	32656	
4828	0	32792	32772	
4829	0	32756	32878	
4830	0	32828	32733	
4831	0	32752	32826	
4832	0	32836	32831	
4833	0	32748	32692	
4834	0	32768	32732	
4835	0	32810	32743	
4836	0	32762	32710	
4837	0	32802	32820	
4838	0	32804	32736	
4839	0	32836	32871	
4840	0	32780	32770	
4841	0	32832	32694	
4842	0	32724	32764	
4843	0	32776	32674	
4844	0	32852	32772	
4845	0	32796	32636	
4846	0	32840	32824	
4847	0	32788	32791	
4848	0	32814	32652	
4849	0	32824	32774	
4850	0	32844	32692	
4851	0	32820	32654	
4852	0	32892	32742	
4853	0	32828	32775	
4854	0	32852	32814	
4855	0	32790	32848	
4856	0	32812	32668	
4857	0	32832	32806	
4858	0	32792	32791	
4859	0	32800	32734	
4860	0	32774	32822	
4861	0	32754	32770	
4862	0	32822	32840	
4863	0	32828	32799	
4864	0	32848	32872	
4865	0	32812	32698	
4866	0	32792	32798	
4867	0	32820	32750	
4868	0	32834	32714	
4869	0	32812	32799	
4870	0	32830	32712	
4871	0	32880	32743	
4872	0	32908	32775	
4873	0	32910	32683	
4874	0	32800	32788	
4875	0	32812	32628	
4876	0	32720	32775	
4877	0	32772	32718	
4878	0	32832	32775	
4879	0	32752	32850	
4880	0	32808	32612	
4881	0	32796	32831	
4882	0	32748	32801	
4883	0	32828	32662	
4884	0	32792	32742	
4885	0	32794	32799	
4886	0	32834	32839	
4887	0	32868	32775	
4888	0	32844	32764	
4889	0	32842	32774	
4890	0	32822	32756	
4891	0	32816	32792	
4892	0	32834	32665	
4893	0	32900	32748	
4894	0	32828	32788	
4895	0	32768	32692	
4896	0	32780	32768	
4897	0	32798	32742	
4898	0	32752	32762	
4899	0	32784	32802	
4900	0	32846	32830	
4901	0	32786	32692	
4902	0	32756	32775	
4903	0	32808	32746	
4904	0	32892	32820	
4905	0	32884	32820	
4906	0	32888	32807	
4907	0	32800	32732	
4908	0	32776	32740	
4909	0	32760	32738	
4910	0	32728	32770	
4911	0	32796	32646	
4912	0	32764	32814	
4913	0	32836	32809	
4914	0	32792	32684	
4915	0	32800	32746	
4916	0	32820	32796	
4917	0	32806	32681	
4918	0	32902	32711	
4919	0	32847	32775	
4920	0	32750	32820	
4921	0	32832	32700	
4922	0	32844	32794	
4923	0	32810	32790	
4924	0	32780	32730	
4925	0	32878	32832	
4926	0	32820	32768	
4927	0	32792	32690	
4928	0	32876	32902	
4929	0	32764	32823	
4930	0	32804	32756	
4931	0	32836	32870	
4932	0	32782	32906	
4933	0	32884	32664	
4934	0	32888	32764	
4935	0	32832	32840	
4936	0	32744	32717	
4937	0	32724	32806	
4938	0	32764	32790	
4939	0	32862	32728	
4940	0	32752	32820	
4941	0	32728	32774	
4942	0	32828	32598	
4943	0	32816	32760	
4944	0	32834	32732	
4945	0	32820	32798	
4946	0	32928	32836	
4947	0	32858	32713	
4948	0	32834	32718	
4949	0	32888	32670	
4950	0	32834	32820	
4951	0	32804	32782	
4952	0	32868	32664	
4953	0	32780	32804	
4954	0	32772	32832	
4955	0	32712	32682	
4956	0	32759	32798	
4957	0	32772	32775	
4958	0	32743	32726	
4959	0	32876	32868	
4960	0	32844	32814	
4961	0	32724	32678	
4962	0	32760	32799	
4963	0	32804	32794	
4964	0	32832	32665	
4965	0	32810	32800	
4966	0	32876	32766	
4967	0	32812	32718	
4968	0	32822	32788	
4969	0	32854	32724	
4970	0	32856	32698	
4971	0	32752	32728	
4972	0	32754	32744	
4973	0	32792	32775	
4974	0	32772	32764	
4975	0	32824	32716	
4976	0	32810	32842	
4977	0	32792	32864	
4978	0	32788	32711	
4979	0	32796	32786	
4980	0	32786	32720	
4981	0	32800	32844	
4982	0	32732	32775	
4983	0	32840	32795	
4984	0	32788	32918	
4985	0	32812	32709	
4986	0	32750	32761	
4987	0	32840	32839	
4988	0	32852	32743	
4989	0	32768	32807	
4990	0	32800	32756	
4991	0	32838	32732	
4992	0	32806	32690	
4993	0	32868	32775	
4994	0	32780	32711	
4995	0	32858	32785	
4996	0	32794	32748	
4997	0	32848	32724	
4998	0	32808	32630	
4999	0	32846	32758	
5000	0	32746	32828	
5001	0	32814	32862	
5002	0	32810	32714	
5003	0	32792	32770	
5004	0	32836	32838	
5005	0	32840	32828	
5006	0	32828	32702	
5007	0	32840	32718	
5008	0	32796	32775	
5009	0	32800	32871	
5010	0	32832	32804	
5011	0	32852	32704	
5012	0	32860	32828	
5013	0	32822	32728	
5014	0	32816	32784	
5015	0	32792	32850	
5016	0	32830	32666	
5017	0	32788	32711	
5018	0	32824	32663	
5019	0	32812	32775	
5020	0	32806	32830	
5021	0	32788	32748	
5022	0	32810	32836	
5023	0	32821	32730	
5024	0	32816	32720	
5025	0	32870	32758	
5026	0	32816	32678	
5027	0	32818	32828	
5028	0	32844	32759	
5029	0	32832	32632	
5030	0	32874	32802	
5031	0	32772	32708	
5032	0	32804	32841	
5033	0	32822	32806	
5034	0	32824	32656	
5035	0	32794	32860	
5036	0	32764	32818	
5037	0	32808	32775	
5038	0	32772	32768	
5039	0	32748	32795	
5040	0	32826	32759	
5041	0	32792	32728	
5042	0	32820	32704	
5043	0	32820	32679	
5044	0	32884	32720	
5045	0	32908	32906	
5046	0	32846	32810	
5047	0	32792	32748	
5048	0	32780	32838	
5049	0	32772	32770	
5050	0	32760	32686	
5051	0	32760	32664	
5052	0	32846	32728	
5053	0	32766	32812	
5054	0	32814	32769	
5055	0	32808	32750	
5056	0	32834	32791	
5057	0	32760	32712	
5058	0	32804	32821	
5059	0	32800	32724	
5060	0	32856	32834	
5061	0	32752	32870	
5062	0	32887	32770	
5063	0	32835	32767	
5064	0	32860	32704	
5065	0	32804	32879	
5066	0	32788	32816	
5067	0	32833	32687	
5068	0	32839	32798	
5069	0	32832	32639	
5070	0	32854	32750	
5071	0	32816	32686	
5072	0	32816	32748	
5073	0	32776	32690	
5074	0	32848	32800	
5075	0	32736	32858	
5076	0	32846	32734	
5077	0	32788	32815	
5078	0	32756	32758	
5079	0	32834	32900	
5080	0	32832	32816	
5081	0	32808	32672	
5082	0	32844	32764	
5083	0	32834	32686	
5084	0	32856	32720	
5085	0	32828	32775	
5086	0	32828	32764	
5087	0	32804	32735	
5088	0	32876	32727	
5089	0	32904	32788	
5090	0	32866	32842	
5091	0	32772	32708	
5092	0	32848	32764	
5093	0	32704	32802	
5094	0	32800	32788	
5095	0	32738	32770	
5096	0	32784	32666	
5097	0	32750	32760	
5098	0	32754	32743	
5099	0	32844	32854	
5100	0	32820	32769	
5101	0	32832	32692	
5102	0	32796	32739	
5103	0	32804	32788	
5104	0	32844	32866	
5105	0	32756	32807	
5106	0	32844	32666	
5107	0	32878	32752	
5108	0	32872	32839	
5109	0	32768	32711	
5110	0	32794	32732	
5111	0	32820	32656	
5112	0	32788	32775	
5113	0	32864	32871	
5114	0	32866	32636	
5115	0	32804	32662	
5116	0	32868	32655	
5117	0	32736	32798	
5118	0	32756	32743	
5119	0	32812	32698	
5120	0	32796	32775	
5121	0	32744	32743	
5122	0	32722	32824	
5123	0	32828	32804	
5124	0	32832	32828	
5125	0	32832	32814	
5126	0	32816	32838	
5127	0	32820	32772	
5128	0	32806	32718	
5129	0	32840	32824	
5130	0	32819	32706	
5131	0	32888	32682	
5132	0	32880	32712	
5133	0	32838	32853	
5134	0	32782	32858	
5135	0	32820	32820	
5136	0	32802	32698	
5137	0	32764	32748	
5138	0	32776	32757	
5139	0	32774	32804	
5140	0	32814	32864	
5141	0	32790	32684	
5142	0	32836	32762	
5143	0	32828	32775	
5144	0	32825	32804	
5145	0	32836	32775	
5146	0	32764	32690	
5147	0	32836	32734	
5148	0	32898	32784	
5149	0	32816	32720	
5150	0	32852	32796	
5151	0	32812	32775	
5152	0	32792	32848	
5153	0	32816	32860	
5154	0	32756	32719	
5155	0	32772	32812	
5156	0	32769	32820	
5157	0	32858	32684	
5158	0	32772	32775	
5159	0	32809	32680	
5160	0	32898	32762	
5161	0	32836	32806	
5162	0	32860	32692	
5163	0	32806	32714	
5164	0	32828	32688	
5165	0	32846	32754	
5166	0	32828	32802	
5167	0	32841	32696	
5168	0	32820	32833	
5169	0	32800	32732	
5170	0	32816	32858	
5171	0	32752	32794	
5172	0	32814	32728	
5173	0	32812	32772	
5174	0	32776	32766	
5175	0	32772	32798	
5176	0	32828	32831	
5177	0	32736	32666	
5178	0	32774	32762	
5179	0	32820	32692	
5180	0	32820	32812	
5181	0	32844	32744	
5182	0	32808	32807	
5183	0	32874	32823	
5184	0	32816	32700	
5185	0	32838	32788	
5186	0	32832	32746	
5187	0	32776	32748	
5188	0	32832	32775	
5189	0	32814	32775	
5190	0	32860	32711	
5191	0	32882	32764	
5192	0	32816	32766	
5193	0	32810	32728	
5194	0	32848	32762	
5195	0	32704	32774	
5196	0	32805	32855	
5197	0	32725	32668	
5198	0	32814	32826	
5199	0	32816	32752	
5200	0	32824	32886	
5201	0	32848	32719	
5202	0	32796	32887	
5203	0	32872	32760	
5204	0	32860	32752	
5205	0	32846	32660	
5206	0	32820	32696	
5207	0	32828	32866	
5208	0	32780	32614	
5209	0	32860	32786	
5210	0	32824	32714	
5211	0	32800	32740	
5212	0	32794	32848	
5213	0	32796	32736	
5214	0	32732	32814	
5215	0	32734	32740	
5216	0	32724	32720	
5217	0	32736	32748	
5218	0	32776	32768	
5219	0	32776	32838	
5220	0	32714	32805	
5221	0	32784	32791	
5222	0	32852	32793	
5223	0	32846	32764	
5224	0	32853	32629	
5225	0	32828	32852	
5226	0	32838	32750	
5227	0	32866	32775	
5228	0	32916	32724	
5229	0	32950	32836	
5230	0	32916	32775	
5231	0	32846	32700	
5232	0	32818	32766	
5233	0	32812	32814	
5234	0	32752	32628	
5235	0	32724	32874	
5236	0	32724	32810	
5237	0	32729	32768	
5238	0	32684	32816	
5239	0	32810	32736	
5240	0	32816	32686	
5241	0	32788	32807	
5242	0	32740	32768	
5243	0	32784	32758	
5244	0	32824	32752	
5245	0	32882	32775	
5246	0	32824	32682	
5247	0	32828	32802	
5248	0	32808	32828	
5249	0	32826	32734	
5250	0	32836	32788	
5251	0	32804	32772	
5252	0	32740	32722	
5253	0	32756	32774	
5254	0	32834	32626	
5255	0	32788	32798	
5256	0	32804	32816	
5257	0	32774	32736	
5258	0	32744	32718	
5259	0	32816	32848	
5260	0	32790	32752	
5261	0	32800	32854	
5262	0	32788	32812	
5263	0	32824	32709	
5264	0	32868	32800	
5265	0	32914	32756	
5266	0	32844	32696	
5267	0	32868	32764	
5268	0	32808	32716	
5269	0	32824	32800	
5270	0	32788	32840	
5271	0	32768	32730	
5272	0	32822	32848	
5273	0	32796	32782	
5274	0	32820	32775	
5275	0	32760	32804	
5276	0	32798	32750	
5277	0	32856	32823	
5278	0	32822	32738	
5279	0	32784	32772	
5280	0	32794	32720	
5281	0	32764	32824	
5282	0	32774	32732	
5283	0	32820	32726	
5284	0	32792	32672	
5285	0	32852	32706	
5286	0	32816	32752	
5287	0	32870	32782	
5288	0	32916	32654	
5289	0	32864	32766	
5290	0	32798	32896	
5291	0	32800	32658	
5292	0	32804	32820	
5293	0	32760	32812	
5294	0	32804	32800	
5295	0	32778	32732	
5296	0	32740	32748	
5297	0	32724	32752	
5298	0	32798	32810	
5299	0	32860	32766	
5300	0	32780	32758	
5301	0	32740	32720	
5302	0	32826	32810	
5303	0	32816	32768	
5304	0	32812	32894	
5305	0	32868	32775	
5306	0	32892	32706	
5307	0	32868	32774	
5308	0	32872	32754	
5309	0	32868	32775	
5310	0	32800	32766	
5311	0	32826	32792	
5312	0	32936	32866	
5313	0	32904	32647	
5314	0	32786	32768	
5315	0	32792	32740	
5316	0	32844	32700	
5317	0	32788	32770	
5318	0	32790	32700	
5319	0	32784	32722	
5320	0	32736	32712	
5321	0	32736	32862	
5322	0	32736	32734	
5323	0	32752	32750	
5324	0	32768	32692	
5325	0	32828	32736	
5326	0	32812	32818	
5327	0	32801	32714	
5328	0	32864	32792	
5329	0	32800	32736	
5330	0	32766	32820	
5331	0	32788	32870	
5332	0	32846	32694	
5333	0	32724	32802	
5334	0	32736	32726	
5335	0	32774	32870	
5336	0	32776	32852	
5337	0	32734	32737	
5338	0	32848	32724	
5339	0	32830	32794	
5340	0	32740	32775	
5341	0	32828	32775	
5342	0	32896	32676	
5343	0	32872	32802	
5344	0	32808	32800	
5345	0	32862	32766	
5346	0	32802	32766	
5347	0	32868	32759	
5348	0	32836	32796	
5349	0	32820	32712	
5350	0	32792	32806	
5351	0	32826	32807	
5352	0	32810	32674	
5353	0	32816	32753	
5354	0	32812	32740	
5355	0	32788	32721	
5356	0	32796	32839	
5357	0	32748	32773	
5358	0	32798	32804	
5359	0	32734	32684	
5360	0	32748	32734	
5361	0	32800	32742	
5362	0	32832	32690	
5363	0	32836	32728	
5364	0	32768	32802	
5365	0	32836	32876	
5366	0	32880	32688	
5367	0	32862	32784	
5368	0	32850	32792	
5369	0	32852	32737	
5370	0	32834	32816	
5371	0	32812	32750	
5372	0	32744	32687	
5373	0	32788	32839	
5374	0	32838	32724	
5375	0	32860	32766	
5376	0	32740	32705	
5377	0	32832	32734	
5378	0	32812	32748	
5379	0	32716	32839	
5380	0	32834	32694	
5381	0	32812	32785	
5382	0	32844	32743	
5383	0	32744	32759	
5384	0	32836	32774	
5385	0	32904	32688	
5386	0	32884	32850	
5387	0	32852	32820	
5388	0	32900	32696	
5389	0	32834	32718	
5390	0	32900	32772	
5391	0	32814	32790	
5392	0	32936	32814	
5393	0	32804	32710	
5394	0	32804	32831	
5395	0	32780	32814	
5396	0	32806	32703	
5397	0	32800	32814	
5398	0	32770	32879	
5399	0	32818	32881	
5400	0	32812	32759	
5401	0	32774	32740	
5402	0	32696	32724	
5403	0	32788	32746	
5404	0	32878	32852	
5405	0	32860	32805	
5406	0	32804	32647	
5407	0	32816	32772	
5408	0	32784	32706	
5409	0	32818	32792	
5410	0	32836	32784	
5411	0	32824	32838	
5412	0	32788	32860	
5413	0	32844	32726	
5414	0	32828	32871	
5415	0	32810	32672	
5416	0	32776	32732	
5417	0	32798	32771	
5418	0	32756	32803	
5419	0	32760	32804	
5420	0	32744	32697	
5421	0	32884	32823	
5422	0	32820	32798	
5423	0	32844	32704	
5424	0	32844	32752	
5425	0	32816	32816	
5426	0	32816	32662	
5427	0	32800	32895	
5428	0	32887	32736	
5429	0	32868	32771	
5430	0	32878	32792	
5431	0	32868	32608	
5432	0	32840	32728	
5433	0	32868	32775	
5434	0	32804	32665	
5435	0	32784	32760	
5436	0	32808	32722	
5437	0	32716	32836	
5438	0	32742	32808	
5439	0	32778	32742	
5440	0	32804	32758	
5441	0	32868	32750	
5442	0	32874	32762	
5443	0	32812	32784	
5444	0	32760	32806	
5445	0	32812	32724	
5446	0	32832	32854	
5447	0	32790	32858	
5448	0	32866	32728	
5449	0	32872	32802	
5450	0	32845	32678	
5451	0	32752	32682	
5452	0	32773	32660	
5453	0	32784	32800	
5454	0	32800	32828	
5455	0	32860	32708	
5456	0	32772	32791	
5457	0	32756	32820	
5458	0	32864	32775	
5459	0	32750	32786	
5460	0	32876	32722	
5461	0	32788	32812	
5462	0	32754	32748	
5463	0	32804	32880	
5464	0	32865	32714	
5465	0	32880	32818	
5466	0	32740	32748	
5467	0	32868	32766	
5468	0	32889	32758	
5469	0	32822	32740	
5470	0	32848	32774	
5471	0	32804	32738	
5472	0	32788	32750	
5473	0	32780	32729	
5474	0	32832	32808	
5475	0	32866	32768	
5476	0	32800	32788	
5477	0	32818	32690	
5478	0	32768	32732	
5479	0	32756	32678	
5480	0	32852	32834	
5481	0	32802	32832	
5482	0	32804	32699	
5483	0	32832	32788	
5484	0	32804	32764	
5485	0	32806	32807	
5486	0	32798	32846	
5487	0	32820	32865	
5488	0	32868	32802	
5489	0	32902	32686	
5490	0	32844	32748	
5491	0	32839	32802	
5492	0	32788	32703	
5493	0	32818	32836	
5494	0	32870	32830	
5495	0	32730	32708	
5496	0	32752	32796	
5497	0	32710	32712	
5498	0	32764	32695	
5499	0	32772	32694	
5500	0	32760	32775	
5501	0	32808	32784	
5502	0	32796	32775	
5503	0	32870	32692	
5504	0	32806	32798	
5505	0	32832	32786	
5506	0	32786	32640	
5507	0	32824	32855	
5508	0	32780	32775	
5509	0	32764	32710	
5510	0	32816	32910	
5511	0	32832	32854	
5512	0	32768	32708	
5513	0	32832	32775	
5514	0	32804	32710	
5515	0	32838	32816	
5516	0	32856	32638	
5517	0	32866	32670	
5518	0	32888	32710	
5519	0	32920	32730	
5520	0	32928	32668	
5521	0	32956	32672	
5522	0	32904	32554	
5523	0	32968	32724	
5524	0	33040	32700	
5525	0	33056	32628	
5526	0	33120	32684	
5527	0	33000	32628	
5528	0	32994	32628	
5529	0	32996	32540	
5530	0	32998	32674	
5531	0	33036	32655	
5532	0	32968	32702	
5533	0	32972	32790	
5534	0	32936	32638	
5535	0	32884	32799	
5536	0	32762	32913	
5537	0	32652	32786	
5538	0	32576	32903	
5539	0	32512	32951	
5540	0	32446	32926	
5541	0	32344	33084	
5542	0	32200	33110	
5543	0	32093	33404	
5544	0	32144	33372	
5545	0	32280	33306	
5546	0	32528	33152	
5547	0	32628	33120	
5548	0	32652	32980	
5549	0	32678	33014	
5550	0	32676	33018	
5551	0	32724	32839	
5552	0	32700	32828	
5553	0	32760	32727	
5554	0	32872	32684	
5555	0	32974	32615	
5556	0	33048	32506	
5557	0	33060	32683	
5558	0	33064	32470	
5559	0	33114	32426	
5560	0	33072	32596	
5561	0	32976	32602	
5562	0	32972	32495	
5563	0	32932	32620	
5564	0	32924	32614	
5565	0	32946	32588	
5566	0	32916	32740	
5567	0	32992	32610	
5568	0	32862	32692	
5569	0	32896	32656	
5570	0	32856	32719	
5571	0	32866	32806	
5572	0	32878	32708	
5573	0	32804	32834	
5574	0	32880	32790	
5575	0	32812	32624	
5576	0	32804	32808	
5577	0	32820	32814	
5578	0	32876	32690	
5579	0	32812	32870	
5580	0	32820	32768	
5581	0	32884	32908	
5582	0	32852	32894	
5583	0	32804	32690	
5584	0	32856	32775	
5585	0	32820	32775	
5586	0	32760	32657	
5587	0	32791	32832	
5588	0	32800	32838	
5589	0	32836	32706	
5590	0	32780	32838	
5591	0	32848	32832	
5592	0	32812	32706	
5593	0	32796	32743	
5594	0	32816	32774	
5595	0	32792	32718	
5596	0	32828	32838	
5597	0	32728	32718	
5598	0	32772	32770	
5599	0	32760	32738	
5600	0	32744	32750	
5601	0	32832	32764	
5602	0	32852	32775	
5603	0	32862	32792	
5604	0	32824	32692	
5605	0	32844	32734	
5606	0	32832	32734	
5607	0	32820	32708	
5608	0	32840	32738	
5609	0	32904	32830	
5610	0	32794	32775	
5611	0	32822	32684	
5612	0	32756	32738	
5613	0	32761	32711	
5614	0	32848	32814	
5615	0	32772	32764	
5616	0	32800	32814	
5617	0	32774	32801	
5618	0	32838	32760	
5619	0	32758	32740	
5620	0	32844	32768	
5621	0	32796	32839	
5622	0	32760	32762	
5623	0	32836	32796	
5624	0	32884	32775	
5625	0	32826	32724	
5626	0	32810	32784	
5627	0	32766	32756	
5628	0	32792	32794	
5629	0	32852	32724	
5630	0	32820	32831	
5631	0	32890	32770	
5632	0	32846	32734	
5633	0	32840	32772	
5634	0	32796	32754	
5635	0	32752	32628	
5636	0	32806	32708	
5637	0	32740	32844	
5638	0	32852	32672	
5639	0	32800	32810	
5640	0	32794	32812	
5641	0	32802	32748	
5642	0	32776	32864	
5643	0	32808	32806	
5644	0	32784	32711	
5645	0	32804	32821	
5646	0	32816	32732	
5647	0	32870	32704	
5648	0	32856	32716	
5649	0	32868	32804	
5650	0	32856	32728	
5651	0	32806	32724	
5652	0	32788	32842	
5653	0	32734	32850	
5654	0	32794	32738	
5655	0	32840	32796	
5656	0	32822	32898	
5657	0	32774	32606	
5658	0	32752	32771	
5659	0	32744	32836	
5660	0	32794	32735	
5661	0	32772	32834	
5662	0	32808	32820	
5663	0	32852	32804	
5664	0	32816	32705	
5665	0	32864	32839	
5666	0	32852	32834	
5667	0	32782	32666	
5668	0	32864	32775	
5669	0	32810	32770	
5670	0	32780	32824	
5671	0	32796	32730	
5672	0	32816	32815	
5673	0	32816	32727	
5674	0	32784	32855	
5675	0	32788	32756	
5676	0	32826	32792	
5677	0	32794	32740	
5678	0	32775	32672	
5679	0	32800	32790	
5680	0	32846	32743	
5681	0	32846	32832	
5682	0	32840	32775	
5683	0	32802	32752	
5684	0	32832	32762	
5685	0	32824	32762	
5686	0	32752	32646	
5687	0	32884	32775	
5688	0	32884	32758	
5689	0	32816	32761	
5690	0	32768	32828	
5691	0	32840	32743	
5692	0	32762	32708	
5693	0	32836	32862	
5694	0	32772	32786	
5695	0	32788	32660	
5696	0	32828	32740	
5697	0	32828	32752	
5698	0	32864	32712	
5699	0	32834	32852	
5700	0	32776	32744	
5701	0	32789	32686	
5702	0	32796	32884	
5703	0	32824	32730	
5704	0	32825	32775	
5705	0	32848	32774	
5706	0	32898	32656	
5707	0	32828	32867	
5708	0	32776	32742	
5709	0	32846	32759	
5710	0	32752	32798	
5711	0	32821	32692	
5712	0	32816	32832	
5713	0	32808	32798	
5714	0	32839	32812	
5715	0	32794	32796	
5716	0	32772	32644	
5717	0	32826	32775	
5718	0	32846	32742	
5719	0	32812	32638	
5720	0	32882	32772	
5721	0	32810	32636	
5722	0	32820	32804	
5723	0	32832	32752	
5724	0	32908	32740	
5725	0	32816	32804	
5726	0	32752	32814	
5727	0	32830	32729	
5728	0	32808	32705	
5729	0	32752	32737	
5730	0	32736	32772	
5731	0	32748	32870	
5732	0	32792	32799	
5733	0	32856	32684	
5734	0	32896	32748	
5735	0	32860	32662	
5736	0	32852	32775	
5737	0	32836	32772	
5738	0	32808	32822	
5739	0	32728	32764	
5740	0	32778	32722	
5741	0	32822	32790	
5742	0	32780	32708	
5743	0	32844	32830	
5744	0	32808	32736	
5745	0	32856	32748	
5746	0	32812	32694	
5747	0	32792	32736	
5748	0	32816	32774	
5749	0	32796	32774	
5750	0	32756	32820	
5751	0	32756	32847	
5752	0	32754	32687	
5753	0	32724	32775	
5754	0	32775	32800	
5755	0	32802	32718	
5756	0	32728	32760	
5757	0	32780	32764	
5758	0	32792	32871	
5759	0	32814	32775	
5760	0	32876	32696	
5761	0	32896	32775	
5762	0	32844	32761	
5763	0	32832	32679	
5764	0	32820	32700	
5765	0	32836	32806	
5766	0	32821	32772	
5767	0	32852	32699	
5768	0	32848	32832	
5769	0	32788	32756	
5770	0	32860	32742	
5771	0	32768	32836	
5772	0	32788	32750	
5773	0	32788	32712	
5774	0	32840	32775	
5775	0	32802	32836	
5776	0	32796	32852	
5777	0	32838	32775	
5778	0	32860	32692	
5779	0	32820	32788	
5780	0	32858	32792	
5781	0	32820	32790	
5782	0	32847	32775	
5783	0	32836	32702	
5784	0	32810	32775	
5785	0	32836	32810	
5786	0	32777	32736	
5787	0	32824	32775	
5788	0	32804	32790	
5789	0	32774	32696	
5790	0	32812	32700	
5791	0	32828	32679	
5792	0	32788	32812	
5793	0	32716	32878	
5794	0	32826	32750	
5795	0	32844	32802	
5796	0	32840	32804	
5797	0	32820	32775	
5798	0	32736	32732	
5799	0	32788	32724	
5800	0	32810	32679	
5801	0	32768	32769	
5802	0	32900	32775	
5803	0	32798	32789	
5804	0	32788	32818	
5805	0	32808	32847	
5806	0	32842	32676	
5807	0	32864	32844	
5808	0	32818	32789	
5809	0	32824	32700	
5810	0	32858	32774	
5811	0	32760	32828	
5812	0	32746	32752	
5813	0	32778	32775	
5814	0	32774	32736	
5815	0	32788	32700	
5816	0	32712	32775	
5817	0	32826	32786	
5818	0	32760	32827	
5819	0	32796	32708	
5820	0	32816	32887	
5821	0	32904	32842	
5822	0	32841	32774	
5823	0	32844	32884	
5824	0	32808	32746	
5825	0	32836	32846	
5826	0	32788	32638	
5827	0	32748	32647	
5828	0	32752	32763	
5829	0	32780	32791	
5830	0	32810	32725	
5831	0	32808	32880	
5832	0	32732	32840	
5833	0	32816	32756	
5834	0	32796	32730	
5835	0	32816	32680	
5836	0	32856	32756	
5837	0	32826	32820	
5838	0	32788	32711	
5839	0	32776	32831	
5840	0	32884	32678	
5841	0	32820	32722	
5842	0	32817	32820	
5843	0	32846	32826	
5844	0	32852	32654	
5845	0	32856	32775	
5846	0	32788	32884	
5847	0	32880	32702	
5848	0	32812	32711	
5849	0	32792	32802	
5850	0	32756	32802	
5851	0	32802	32775	
5852	0	32832	32714	
5853	0	32832	32842	
5854	0	32790	32748	
5855	0	32800	32839	
5856	0	32844	32698	
5857	0	32830	32854	
5858	0	32790	32758	
5859	0	32802	32838	
5860	0	32830	32775	
5861	0	32784	32652	
5862	0	32760	32752	
5863	0	32856	32820	
5864	0	32862	32692	
5865	0	32826	32806	
5866	0	32804	32817	
5867	0	32824	32708	
5868	0	32896	32740	
5869	0	32776	32804	
5870	0	32804	32752	
5871	0	32868	32710	
5872	0	32746	32715	
5873	0	32856	32719	
5874	0	32764	32844	
5875	0	32750	32746	
5876	0	32800	32764	
5877	0	32760	32794	
5878	0	32724	32711	
5879	0	32806	32711	
5880	0	32830	32736	
5881	0	32828	32820	
5882	0	32844	32698	
5883	0	32760	32746	
5884	0	32804	32820	
5885	0	32856	32743	
5886	0	32868	32714	
5887	0	32770	32800	
5888	0	32910	32820	
5889	0	32810	32804	
5890	0	32820	32694	
5891	0	32892	32714	
5892	0	32836	32710	
5893	0	32830	32844	
5894	0	32844	32798	
5895	0	32780	32728	
5896	0	32760	32742	
5897	0	32768	32794	
5898	0	32740	32742	
5899	0	32764	32775	
5900	0	32788	32796	
5901	0	32852	32836	
5902	0	32792	32690	
5903	0	32840	32800	
5904	0	32880	32772	
5905	0	32820	32775	
5906	0	32800	32704	
5907	0	32802	32838	
5908	0	32800	32864	
5909	0	32820	32774	
5910	0	32878	32652	
5911	0	32830	32740	
5912	0	32832	32724	
5913	0	32816	32794	
5914	0	32792	32693	
5915	0	32746	32792	
5916	0	32746	32735	
5917	0	32810	32869	
5918	0	32800	32784	
5919	0	32784	32724	
5920	0	32856	32828	
5921	0	32840	32810	
5922	0	32796	32807	
5923	0	32814	32686	
5924	0	32808	32812	
5925	0	32864	32766	
5926	0	32854	32816	
5927	0	32798	32646	
5928	0	32814	32866	
5929	0	32804	32799	
5930	0	32830	32805	
5931	0	32804	32652	
5932	0	32804	32874	
5933	0	32766	32828	
5934	0	32832	32758	
5935	0	32852	32744	
5936	0	32836	32674	
5937	0	32828	32844	
5938	0	32738	32840	
5939	0	32804	32736	
5940	0	32786	32870	
5941	0	32832	32773	
5942	0	32772	32728	
5943	0	32812	32741	
5944	0	32800	32793	
5945	0	32832	32788	
5946	0	32828	32640	
5947	0	32796	32798	
5948	0	32788	32806	
5949	0	32776	32826	
5950	0	32846	32700	
5951	0	32696	32742	
5952	0	32840	32804	
5953	0	32806	32807	
5954	0	32752	32752	
5955	0	32792	32774	
5956	0	32756	32828	
5957	0	32808	32820	
5958	0	32856	32698	
5959	0	32784	32798	
5960	0	32808	32756	
5961	0	32780	32724	
5962	0	32794	32614	
5963	0	32796	32808	
5964	0	32920	32748	
5965	0	32828	32772	
5966	0	32844	32716	
5967	0	32812	32822	
5968	0	32820	32836	
5969	0	32828	32734	
5970	0	32860	32676	
5971	0	32728	32897	
5972	0	32818	32804	
5973	0	32800	32832	
5974	0	32772	32672	
5975	0	32822	32676	
5976	0	32720	32796	
5977	0	32748	32698	
5978	0	32784	32800	
5979	0	32860	32716	
5980	0	32784	32760	
5981	0	32814	32671	
5982	0	32854	32784	
5983	0	32768	32802	
5984	0	32750	32712	
5985	0	32834	32711	
5986	0	32842	32760	
5987	0	32836	32770	
5988	0	32850	32784	
5989	0	32820	32690	
5990	0	32844	32660	
5991	0	32842	32714	
5992	0	32816	32812	
5993	0	32876	32772	
5994	0	32776	32769	
5995	0	32764	32800	
5996	0	32738	32772	
5997	0	32774	32836	
5998	0	32744	32738	
5999	0	32760	32771	
6000	0	32884	32631	
6001	0	32780	32806	
6002	0	32834	32816	
6003	0	32840	32718	
6004	0	32836	32798	
6005	0	32858	32802	
6006	0	32836	32724	
6007	0	32820	32840	
6008	0	32796	32852	
6009	0	32794	32712	
6010	0	32748	32799	
6011	0	32800	32812	
6012	0	32838	32647	
