# OpenSignals Text File Format. Version 1
# {"00:07:80:8C:0A:39": {"position": 0, "device": "biosignalsplux", "device name": "00:07:80:8C:0A:39", "device connection": "BTH00:07:80:8C:0A:39", "sampling rate": 1000, "resolution": [16, 16], "firmware version": 776, "comments": "", "keywords": "", "mode": 0, "sync interval": 2, "date": "2023-3-17", "time": "15:19:11.863", "channels": [1, 2], "sensor": ["EMG", "EMG"], "label": ["CH1", "CH2"], "column": ["nSeq", "DI", "CH1", "CH2"], "special": [{"SpO2": [80, 40, 5, 4, 3, 3]}, {"SpO2": [80, 40, 5, 4, 3, 3]}, {"SpO2": [80, 40, 5, 4, 3, 3]}, {"SpO2": [80, 40, 5, 4, 3, 3]}, {"SpO2": [80, 40, 5, 4, 3, 3]}, {"SpO2": [80, 40, 5, 4, 3, 3]}, {"SpO2": [80, 40, 5, 4, 3, 3]}, {"SpO2": [80, 40, 5, 4, 3, 3]}], "digital IO": [0, 1], "sleeve color": ["gray", "yellow"], "convertedValues": 0}}
# EndOfHeader
0	0	32814	32860	
1	0	32816	32756	
2	0	32824	32756	
3	0	32856	32794	
4	0	32800	32800	
5	0	32764	32798	
6	0	32748	32775	
7	0	32756	32679	
8	0	32814	32698	
9	0	32778	32716	
10	0	32906	32706	
11	0	32788	32807	
12	0	32832	32736	
13	0	32816	32838	
14	0	32848	32716	
15	0	32872	32663	
16	0	32906	32818	
17	0	32868	32854	
18	0	32820	32772	
19	0	32880	32798	
20	0	32848	32712	
21	0	32840	32646	
22	0	32908	32826	
23	0	32768	32878	
24	0	32784	32775	
25	0	32756	32775	
26	0	32820	32832	
27	0	32796	32700	
28	0	32880	32696	
29	0	32836	32836	
30	0	32804	32790	
31	0	32856	32775	
32	0	32794	32846	
33	0	32796	32800	
34	0	32802	32878	
35	0	32836	32882	
36	0	32840	32734	
37	0	32830	32756	
38	0	32884	32844	
39	0	32924	32919	
40	0	32860	32822	
41	0	32912	32808	
42	0	32884	32766	
43	0	32836	32822	
44	0	32796	32698	
45	0	32764	32750	
46	0	32696	32498	
47	0	32724	32536	
48	0	32740	32614	
49	0	32700	32636	
50	0	32666	32465	
51	0	32664	32430	
52	0	32636	32574	
53	0	32672	32580	
54	0	32684	32683	
55	0	32752	32599	
56	0	32838	32784	
57	0	32844	32808	
58	0	32834	32818	
59	0	32814	32950	
60	0	32912	32732	
61	0	32878	32826	
62	0	32848	32944	
63	0	32934	32944	
64	0	32864	32871	
65	0	32884	32904	
66	0	32856	33003	
67	0	32794	32968	
68	0	32836	32940	
69	0	32858	32876	
70	0	32816	32760	
71	0	32884	32770	
72	0	32860	32828	
73	0	32912	32775	
74	0	32868	32826	
75	0	32792	32842	
76	0	32844	32775	
77	0	32852	32727	
78	0	32804	32726	
79	0	32832	32855	
80	0	32814	32823	
81	0	32800	32815	
82	0	32728	32676	
83	0	32784	32680	
84	0	32832	32737	
85	0	32748	32768	
86	0	32808	32763	
87	0	32776	32708	
88	0	32784	32746	
89	0	32792	32830	
90	0	32844	32728	
91	0	32812	32852	
92	0	32788	32700	
93	0	32809	32690	
94	0	32780	32686	
95	0	32826	32810	
96	0	32802	32748	
97	0	32796	32756	
98	0	32798	32660	
99	0	32832	32753	
100	0	32832	32858	
101	0	32836	32746	
102	0	32792	32775	
103	0	32832	32847	
104	0	32852	32764	
105	0	32822	32748	
106	0	32804	32724	
107	0	32780	32839	
108	0	32766	32756	
109	0	32848	32758	
110	0	32788	32822	
111	0	32826	32836	
112	0	32796	32743	
113	0	32738	32690	
114	0	32852	32688	
115	0	32822	32820	
116	0	32840	32799	
117	0	32836	32802	
118	0	32832	32894	
119	0	32810	32718	
120	0	32800	32646	
121	0	32872	32854	
122	0	32868	32810	
123	0	32770	32752	
124	0	32824	32816	
125	0	32732	32620	
126	0	32800	32661	
127	0	32820	32794	
128	0	32800	32823	
129	0	32792	32743	
130	0	32870	32764	
131	0	32870	32746	
132	0	32790	32702	
133	0	32776	32750	
134	0	32752	32758	
135	0	32726	32839	
136	0	32804	32833	
137	0	32832	32672	
138	0	32876	32816	
139	0	32848	32768	
140	0	32790	32834	
141	0	32772	32647	
142	0	32834	32711	
143	0	32798	32852	
144	0	32816	32801	
145	0	32796	32775	
146	0	32816	32878	
147	0	32838	32684	
148	0	32842	32698	
149	0	32836	32644	
150	0	32806	32748	
151	0	32812	32720	
152	0	32800	32852	
153	0	32808	32784	
154	0	32864	32756	
155	0	32830	32722	
156	0	32804	32775	
157	0	32844	32770	
158	0	32804	32730	
159	0	32828	32836	
160	0	32808	32698	
161	0	32756	32720	
162	0	32852	32614	
163	0	32836	32852	
164	0	32880	32862	
165	0	32832	32790	
166	0	32850	32702	
167	0	32828	32704	
168	0	32810	32902	
169	0	32762	32766	
170	0	32748	32852	
171	0	32826	32806	
172	0	32832	32775	
173	0	32820	32710	
174	0	32792	32806	
175	0	32824	32674	
176	0	32848	32688	
177	0	32824	32775	
178	0	32824	32719	
179	0	32820	32736	
180	0	32808	32644	
181	0	32792	32666	
182	0	32812	32800	
183	0	32800	32766	
184	0	32864	32816	
185	0	32756	32696	
186	0	32804	32724	
187	0	32804	32750	
188	0	32788	32794	
189	0	32860	32828	
190	0	32892	32740	
191	0	32844	32760	
192	0	32784	32886	
193	0	32786	32752	
194	0	32816	32877	
195	0	32832	32678	
196	0	32806	32823	
197	0	32788	32775	
198	0	32840	32822	
199	0	32796	32714	
200	0	32804	32710	
201	0	32764	32795	
202	0	32792	32772	
203	0	32834	32807	
204	0	32788	32724	
205	0	32801	32775	
206	0	32806	32786	
207	0	32880	32800	
208	0	32818	32830	
209	0	32788	32766	
210	0	32832	32743	
211	0	32808	32798	
212	0	32856	32748	
213	0	32878	32826	
214	0	32820	32836	
215	0	32814	32708	
216	0	32836	32750	
217	0	32790	32656	
218	0	32816	32834	
219	0	32796	32718	
220	0	32794	32724	
221	0	32892	32768	
222	0	32796	32706	
223	0	32852	32740	
224	0	32862	32766	
225	0	32806	32764	
226	0	32858	32879	
227	0	32754	32712	
228	0	32804	32818	
229	0	32768	32680	
230	0	32840	32775	
231	0	32810	32820	
232	0	32836	32704	
233	0	32792	32718	
234	0	32800	32762	
235	0	32792	32783	
236	0	32790	32816	
237	0	32728	32894	
238	0	32848	32736	
239	0	32816	32760	
240	0	32836	32839	
241	0	32794	32788	
242	0	32840	32826	
243	0	32836	32698	
244	0	32826	32692	
245	0	32818	32772	
246	0	32768	32810	
247	0	32820	32752	
248	0	32746	32768	
249	0	32836	32687	
250	0	32856	32726	
251	0	32772	32736	
252	0	32828	32782	
253	0	32836	32775	
254	0	32780	32758	
255	0	32832	32772	
256	0	32814	32806	
257	0	32796	32775	
258	0	32836	32775	
259	0	32832	32678	
260	0	32836	32758	
261	0	32832	32738	
262	0	32796	32708	
263	0	32746	32838	
264	0	32804	32788	
265	0	32808	32672	
266	0	32846	32764	
267	0	32804	32814	
268	0	32808	32802	
269	0	32788	32768	
270	0	32784	32744	
271	0	32794	32854	
272	0	32816	32668	
273	0	32788	32702	
274	0	32792	32884	
275	0	32762	32828	
276	0	32864	32775	
277	0	32856	32766	
278	0	32874	32820	
279	0	32858	32824	
280	0	32784	32693	
281	0	32800	32748	
282	0	32774	32688	
283	0	32822	32772	
284	0	32784	32826	
285	0	32800	32788	
286	0	32788	32820	
287	0	32800	32722	
288	0	32840	32688	
289	0	32788	32844	
290	0	32804	32808	
291	0	32788	32682	
292	0	32842	32806	
293	0	32772	32741	
294	0	32740	32839	
295	0	32858	32694	
296	0	32832	32704	
297	0	32832	32657	
298	0	32792	32748	
299	0	32800	32700	
300	0	32812	32754	
301	0	32842	32902	
302	0	32796	32678	
303	0	32816	32748	
304	0	32832	32794	
305	0	32734	32746	
306	0	32788	32750	
307	0	32814	32820	
308	0	32884	32700	
309	0	32872	32644	
310	0	32788	32746	
311	0	32832	32836	
312	0	32868	32730	
313	0	32792	32688	
314	0	32788	32774	
315	0	32836	32858	
316	0	32810	32775	
317	0	32768	32775	
318	0	32760	32788	
319	0	32821	32836	
320	0	32868	32696	
321	0	32812	32638	
322	0	32854	32800	
323	0	32798	32816	
324	0	32820	32856	
325	0	32748	32900	
326	0	32840	32662	
327	0	32824	32807	
328	0	32812	32774	
329	0	32804	32775	
330	0	32769	32748	
331	0	32776	32710	
332	0	32856	32784	
333	0	32792	32844	
334	0	32790	32748	
335	0	32868	32816	
336	0	32744	32689	
337	0	32810	32775	
338	0	32864	32849	
339	0	32808	32706	
340	0	32808	32855	
341	0	32792	32647	
342	0	32848	32775	
343	0	32816	32788	
344	0	32818	32856	
345	0	32825	32804	
346	0	32864	32660	
347	0	32814	32775	
348	0	32816	32792	
349	0	32832	32850	
350	0	32810	32730	
351	0	32812	32698	
352	0	32724	32788	
353	0	32796	32708	
354	0	32826	32794	
355	0	32828	32828	
356	0	32804	32686	
357	0	32768	32670	
358	0	32764	32822	
359	0	32836	32708	
360	0	32788	32774	
361	0	32764	32846	
362	0	32852	32679	
363	0	32864	32742	
364	0	32800	32800	
365	0	32792	32730	
366	0	32798	32743	
367	0	32798	32813	
368	0	32820	32724	
369	0	32808	32766	
370	0	32802	32736	
371	0	32824	32839	
372	0	32756	32812	
373	0	32844	32788	
374	0	32820	32786	
375	0	32848	32830	
376	0	32864	32748	
377	0	32838	32702	
378	0	32844	32780	
379	0	32804	32770	
380	0	32812	32724	
381	0	32804	32812	
382	0	32778	32871	
383	0	32842	32679	
384	0	32776	32692	
385	0	32764	32798	
386	0	32776	32769	
387	0	32836	32808	
388	0	32760	32711	
389	0	32784	32678	
390	0	32904	32774	
391	0	32834	32870	
392	0	32824	32758	
393	0	32782	32738	
394	0	32768	32820	
395	0	32772	32711	
396	0	32756	32807	
397	0	32814	32790	
398	0	32806	32758	
399	0	32846	32775	
400	0	32852	32806	
401	0	32842	32769	
402	0	32864	32668	
403	0	32896	32718	
404	0	32812	32800	
405	0	32728	32758	
406	0	32802	32784	
407	0	32794	32798	
408	0	32812	32775	
409	0	32800	32734	
410	0	32794	32748	
411	0	32748	32822	
412	0	32838	32828	
413	0	32814	32775	
414	0	32812	32768	
415	0	32788	32824	
416	0	32852	32640	
417	0	32804	32708	
418	0	32804	32802	
419	0	32848	32771	
420	0	32876	32775	
421	0	32840	32748	
422	0	32816	32647	
423	0	32754	32748	
424	0	32836	32796	
425	0	32866	32678	
426	0	32808	32830	
427	0	32780	32727	
428	0	32828	32710	
429	0	32770	32770	
430	0	32832	32856	
431	0	32740	32770	
432	0	32810	32806	
433	0	32868	32808	
434	0	32752	32664	
435	0	32784	32711	
436	0	32828	32878	
437	0	32842	32850	
438	0	32784	32820	
439	0	32820	32816	
440	0	32808	32748	
441	0	32786	32687	
442	0	32888	32798	
443	0	32772	32826	
444	0	32844	32762	
445	0	32888	32806	
446	0	32832	32814	
447	0	32802	32641	
448	0	32804	32756	
449	0	32764	32822	
450	0	32810	32696	
451	0	32876	32716	
452	0	32858	32812	
453	0	32766	32762	
454	0	32758	32644	
455	0	32846	32816	
456	0	32832	32806	
457	0	32780	32792	
458	0	32800	32860	
459	0	32842	32754	
460	0	32845	32720	
461	0	32762	32772	
462	0	32822	32802	
463	0	32844	32790	
464	0	32840	32864	
465	0	32800	32804	
466	0	32756	32711	
467	0	32800	32708	
468	0	32816	32750	
469	0	32804	32774	
470	0	32840	32756	
471	0	32786	32760	
472	0	32832	32620	
473	0	32794	32688	
474	0	32800	32839	
475	0	32872	32769	
476	0	32848	32842	
477	0	32792	32860	
478	0	32766	32695	
479	0	32804	32729	
480	0	32804	32702	
481	0	32756	32796	
482	0	32842	32775	
483	0	32782	32760	
484	0	32784	32796	
485	0	32828	32848	
486	0	32784	32744	
487	0	32784	32686	
488	0	32786	32795	
489	0	32834	32816	
490	0	32852	32742	
491	0	32873	32742	
492	0	32776	32788	
493	0	32790	32804	
494	0	32844	32786	
495	0	32804	32855	
496	0	32816	32708	
497	0	32804	32770	
498	0	32880	32752	
499	0	32836	32774	
500	0	32826	32754	
501	0	32792	32704	
502	0	32764	32711	
503	0	32788	32830	
504	0	32878	32870	
505	0	32808	32874	
506	0	32800	32712	
507	0	32794	32746	
508	0	32844	32775	
509	0	32796	32796	
510	0	32912	32687	
511	0	32828	32772	
512	0	32824	32788	
513	0	32728	32716	
514	0	32800	32767	
515	0	32752	32834	
516	0	32848	32725	
517	0	32830	32775	
518	0	32760	32654	
519	0	32814	32704	
520	0	32864	32808	
521	0	32768	32772	
522	0	32802	32791	
523	0	32796	32807	
524	0	32788	32721	
525	0	32772	32730	
526	0	32700	32651	
527	0	32826	32816	
528	0	32844	32724	
529	0	32788	32836	
530	0	32828	32774	
531	0	32820	32770	
532	0	32766	32726	
533	0	32850	32775	
534	0	32828	32804	
535	0	32800	32794	
536	0	32816	32774	
537	0	32840	32608	
538	0	32824	32847	
539	0	32846	32785	
540	0	32756	32764	
541	0	32774	32696	
542	0	32896	32838	
543	0	32788	32624	
544	0	32804	32745	
545	0	32820	32720	
546	0	32760	32807	
547	0	32812	32820	
548	0	32772	32730	
549	0	32804	32770	
550	0	32820	32742	
551	0	32798	32788	
552	0	32868	32784	
553	0	32892	32735	
554	0	32812	32714	
555	0	32836	32758	
556	0	32816	32812	
557	0	32832	32724	
558	0	32784	32766	
559	0	32804	32772	
560	0	32844	32756	
561	0	32824	32734	
562	0	32808	32724	
563	0	32784	32647	
564	0	32816	32750	
565	0	32748	32750	
566	0	32750	32820	
567	0	32832	32814	
568	0	32864	32764	
569	0	32804	32720	
570	0	32792	32750	
571	0	32748	32752	
572	0	32840	32823	
573	0	32840	32791	
574	0	32816	32840	
575	0	32828	32919	
576	0	32848	32844	
577	0	32864	32736	
578	0	32758	32646	
579	0	32792	32744	
580	0	32832	32792	
581	0	32836	32775	
582	0	32786	32828	
583	0	32820	32804	
584	0	32804	32775	
585	0	32865	32692	
586	0	32816	32695	
587	0	32812	32723	
588	0	32788	32790	
589	0	32852	32750	
590	0	32840	32790	
591	0	32800	32794	
592	0	32820	32702	
593	0	32800	32681	
594	0	32745	32798	
595	0	32812	32852	
596	0	32800	32764	
597	0	32856	32838	
598	0	32784	32714	
599	0	32840	32748	
600	0	32800	32794	
601	0	32868	32808	
602	0	32876	32800	
603	0	32784	32804	
604	0	32828	32868	
605	0	32808	32706	
606	0	32824	32752	
607	0	32740	32850	
608	0	32866	32771	
609	0	32868	32800	
610	0	32764	32708	
611	0	32774	32692	
612	0	32820	32775	
613	0	32820	32810	
614	0	32780	32794	
615	0	32772	32746	
616	0	32774	32810	
617	0	32820	32886	
618	0	32772	32632	
619	0	32800	32760	
620	0	32882	32800	
621	0	32824	32726	
622	0	32784	32775	
623	0	32806	32804	
624	0	32808	32710	
625	0	32808	32736	
626	0	32808	32668	
627	0	32804	32759	
628	0	32840	32806	
629	0	32806	32710	
630	0	32748	32704	
631	0	32868	32772	
632	0	32856	32724	
633	0	32794	32728	
634	0	32828	32792	
635	0	32738	32775	
636	0	32824	32816	
637	0	32788	32726	
638	0	32820	32715	
639	0	32808	32768	
640	0	32821	32846	
641	0	32826	32742	
642	0	32830	32754	
643	0	32832	32757	
644	0	32848	32775	
645	0	32752	32794	
646	0	32792	32678	
647	0	32778	32718	
648	0	32802	32839	
649	0	32820	32830	
650	0	32902	32788	
651	0	32852	32748	
652	0	32800	32820	
653	0	32772	32682	
654	0	32754	32806	
655	0	32844	32754	
656	0	32792	32794	
657	0	32832	32636	
658	0	32872	32748	
659	0	32756	32732	
660	0	32822	32768	
661	0	32814	32775	
662	0	32792	32786	
663	0	32778	32808	
664	0	32828	32704	
665	0	32776	32768	
666	0	32804	32823	
667	0	32796	32790	
668	0	32766	32838	
669	0	32822	32816	
670	0	32856	32700	
671	0	32772	32730	
672	0	32830	32750	
673	0	32854	32767	
674	0	32786	32728	
675	0	32880	32760	
676	0	32808	32836	
677	0	32832	32739	
678	0	32748	32700	
679	0	32778	32856	
680	0	32796	32764	
681	0	32852	32775	
682	0	32823	32848	
683	0	32806	32850	
684	0	32858	32812	
685	0	32830	32638	
686	0	32828	32806	
687	0	32768	32858	
688	0	32834	32708	
689	0	32804	32736	
690	0	32772	32775	
691	0	32778	32672	
692	0	32758	32724	
693	0	32860	32844	
694	0	32808	32796	
695	0	32784	32788	
696	0	32804	32806	
697	0	32800	32680	
698	0	32844	32770	
699	0	32800	32810	
700	0	32914	32768	
701	0	32830	32854	
702	0	32740	32742	
703	0	32800	32806	
704	0	32802	32763	
705	0	32892	32764	
706	0	32812	32838	
707	0	32958	32676	
708	0	32814	32679	
709	0	32836	32834	
710	0	32788	32720	
711	0	32806	32762	
712	0	32810	32922	
713	0	32872	32720	
714	0	32812	32750	
715	0	32820	32728	
716	0	32816	32815	
717	0	32792	32734	
718	0	32818	32766	
719	0	32848	32890	
720	0	32802	32752	
721	0	32804	32796	
722	0	32774	32716	
723	0	32730	32775	
724	0	32800	32772	
725	0	32854	32834	
726	0	32800	32836	
727	0	32822	32712	
728	0	32804	32834	
729	0	32816	32906	
730	0	32832	32834	
731	0	32894	32872	
732	0	32880	32942	
733	0	32892	32764	
734	0	32888	32866	
735	0	32868	32887	
736	0	32862	32866	
737	0	32869	32820	
738	0	32760	32710	
739	0	32746	32618	
740	0	32680	32476	
741	0	32660	32536	
742	0	32660	32519	
743	0	32708	32471	
744	0	32656	32466	
745	0	32610	32332	
746	0	32688	32446	
747	0	32776	32660	
748	0	32752	32704	
749	0	32788	32639	
750	0	32832	32708	
751	0	32856	32806	
752	0	32840	32903	
753	0	32840	32868	
754	0	32734	32826	
755	0	32822	32810	
756	0	32780	32884	
757	0	32880	32938	
758	0	32942	32940	
759	0	32882	32903	
760	0	32886	32952	
761	0	32856	32800	
762	0	32824	32688	
763	0	32818	32774	
764	0	32886	32796	
765	0	32854	32854	
766	0	32880	32874	
767	0	32900	32884	
768	0	32816	32834	
769	0	32832	32822	
770	0	32826	32825	
771	0	32888	32662	
772	0	32832	32775	
773	0	32804	32840	
774	0	32788	32754	
775	0	32746	32853	
776	0	32798	32730	
777	0	32830	32744	
778	0	32772	32759	
779	0	32812	32775	
780	0	32836	32770	
781	0	32816	32754	
782	0	32770	32630	
783	0	32786	32631	
784	0	32812	32710	
785	0	32764	32798	
786	0	32824	32786	
787	0	32788	32732	
788	0	32778	32802	
789	0	32844	32938	
790	0	32828	32736	
791	0	32774	32700	
792	0	32738	32722	
793	0	32784	32692	
794	0	32850	32821	
795	0	32837	32740	
796	0	32774	32710	
797	0	32818	32724	
798	0	32800	32864	
799	0	32816	32828	
800	0	32848	32706	
801	0	32796	32716	
802	0	32804	32702	
803	0	32816	32762	
804	0	32846	32762	
805	0	32892	32814	
806	0	32762	32807	
807	0	32820	32807	
808	0	32808	32726	
809	0	32752	32775	
810	0	32784	32826	
811	0	32832	32754	
812	0	32846	32822	
813	0	32842	32684	
814	0	32830	32678	
815	0	32780	32740	
816	0	32848	32780	
817	0	32876	32872	
818	0	32840	32708	
819	0	32832	32775	
820	0	32868	32740	
821	0	32822	32870	
822	0	32802	32738	
823	0	32760	32839	
824	0	32816	32822	
825	0	32788	32870	
826	0	32776	32714	
827	0	32828	32762	
828	0	32792	32760	
829	0	32808	32838	
830	0	32788	32732	
831	0	32762	32728	
832	0	32808	32812	
833	0	32754	32740	
834	0	32796	32794	
835	0	32858	32695	
836	0	32814	32742	
837	0	32804	32775	
838	0	32768	32720	
839	0	32852	32812	
840	0	32864	32722	
841	0	32832	32636	
842	0	32832	32800	
843	0	32772	32732	
844	0	32828	32842	
845	0	32812	32678	
846	0	32848	32775	
847	0	32752	32838	
848	0	32749	32793	
849	0	32780	32856	
850	0	32778	32704	
851	0	32828	32748	
852	0	32856	32810	
853	0	32774	32736	
854	0	32880	32784	
855	0	32836	32820	
856	0	32848	32690	
857	0	32816	32700	
858	0	32810	32743	
859	0	32786	32740	
860	0	32848	32740	
861	0	32800	32800	
862	0	32778	32850	
863	0	32780	32756	
864	0	32836	32740	
865	0	32808	32816	
866	0	32832	32820	
867	0	32840	32754	
868	0	32798	32807	
869	0	32760	32657	
870	0	32792	32755	
871	0	32856	32775	
872	0	32732	32748	
873	0	32842	32775	
874	0	32804	32718	
875	0	32732	32754	
876	0	32848	32714	
877	0	32772	32660	
878	0	32792	32794	
879	0	32776	32742	
880	0	32754	32798	
881	0	32806	32775	
882	0	32832	32814	
883	0	32884	32748	
884	0	32798	32660	
885	0	32836	32720	
886	0	32852	32772	
887	0	32832	32768	
888	0	32826	32838	
889	0	32772	32774	
890	0	32769	32796	
891	0	32788	32704	
892	0	32826	32818	
893	0	32788	32742	
894	0	32802	32742	
895	0	32912	32766	
896	0	32844	32774	
897	0	32820	32876	
898	0	32760	32775	
899	0	32836	32704	
900	0	32772	32762	
901	0	32784	32808	
902	0	32768	32818	
903	0	32840	32802	
904	0	32788	32816	
905	0	32816	32711	
906	0	32804	32696	
907	0	32802	32746	
908	0	32856	32775	
909	0	32800	32814	
910	0	32852	32764	
911	0	32792	32766	
912	0	32838	32807	
913	0	32836	32812	
914	0	32740	32696	
915	0	32768	32722	
916	0	32772	32770	
917	0	32840	32762	
918	0	32776	32702	
919	0	32834	32758	
920	0	32800	32759	
921	0	32836	32720	
922	0	32863	32822	
923	0	32818	32750	
924	0	32788	32716	
925	0	32840	32740	
926	0	32812	32828	
927	0	32800	32862	
928	0	32810	32775	
929	0	32708	32822	
930	0	32868	32872	
931	0	32788	32670	
932	0	32846	32708	
933	0	32832	32806	
934	0	32800	32775	
935	0	32820	32743	
936	0	32910	32853	
937	0	32798	32854	
938	0	32800	32714	
939	0	32834	32688	
940	0	32792	32762	
941	0	32856	32768	
942	0	32774	32855	
943	0	32836	32734	
944	0	32786	32660	
945	0	32804	32742	
946	0	32794	32788	
947	0	32762	32702	
948	0	32888	32806	
949	0	32838	32700	
950	0	32768	32679	
951	0	32808	32806	
952	0	32836	32846	
953	0	32832	32772	
954	0	32824	32775	
955	0	32806	32704	
956	0	32802	32860	
957	0	32820	32843	
958	0	32792	32830	
959	0	32840	32743	
960	0	32769	32721	
961	0	32872	32638	
962	0	32796	32775	
963	0	32892	32656	
964	0	32840	32852	
965	0	32814	32668	
966	0	32844	32832	
967	0	32802	32767	
968	0	32826	32836	
969	0	32796	32796	
970	0	32736	32657	
971	0	32792	32766	
972	0	32810	32770	
973	0	32856	32796	
974	0	32832	32834	
975	0	32778	32756	
976	0	32788	32745	
977	0	32816	32794	
978	0	32836	32802	
979	0	32888	32802	
980	0	32824	32702	
981	0	32767	32732	
982	0	32796	32808	
983	0	32798	32804	
984	0	32792	32866	
985	0	32820	32903	
986	0	32810	32762	
987	0	32802	32692	
988	0	32828	32726	
989	0	32800	32775	
990	0	32762	32736	
991	0	32778	32864	
992	0	32824	32698	
993	0	32816	32638	
994	0	32820	32710	
995	0	32764	32775	
996	0	32836	32767	
997	0	32712	32746	
998	0	32778	32854	
999	0	32844	32696	
1000	0	32804	32732	
1001	0	32816	32810	
1002	0	32844	32772	
1003	0	32784	32759	
1004	0	32834	32803	
1005	0	32796	32693	
1006	0	32794	32758	
1007	0	32832	32806	
1008	0	32816	32702	
1009	0	32816	32832	
1010	0	32764	32754	
1011	0	32760	32711	
1012	0	32791	32735	
1013	0	32874	32796	
1014	0	32834	32800	
1015	0	32848	32785	
1016	0	32782	32732	
1017	0	32856	32775	
1018	0	32788	32816	
1019	0	32804	32768	
1020	0	32846	32756	
1021	0	32756	32682	
1022	0	32798	32696	
1023	0	32800	32844	
1024	0	32828	32740	
1025	0	32862	32775	
1026	0	32776	32823	
1027	0	32836	32724	
1028	0	32842	32706	
1029	0	32840	32836	
1030	0	32840	32768	
1031	0	32802	32775	
1032	0	32772	32634	
1033	0	32824	32790	
1034	0	32828	32807	
1035	0	32772	32844	
1036	0	32836	32750	
1037	0	32756	32672	
1038	0	32856	32852	
1039	0	32774	32766	
1040	0	32858	32868	
1041	0	32864	32674	
1042	0	32814	32896	
1043	0	32832	32798	
1044	0	32804	32884	
1045	0	32825	32652	
1046	0	32792	32761	
1047	0	32764	32802	
1048	0	32760	32818	
1049	0	32832	32730	
1050	0	32844	32760	
1051	0	32888	32857	
1052	0	32788	32796	
1053	0	32768	32774	
1054	0	32824	32716	
1055	0	32804	32894	
1056	0	32772	32668	
1057	0	32794	32718	
1058	0	32772	32818	
1059	0	32820	32756	
1060	0	32836	32868	
1061	0	32792	32876	
1062	0	32824	32652	
1063	0	32836	32814	
1064	0	32838	32768	
1065	0	32798	32768	
1066	0	32778	32654	
1067	0	32784	32711	
1068	0	32860	32802	
1069	0	32838	32754	
1070	0	32824	32692	
1071	0	32792	32722	
1072	0	32794	32878	
1073	0	32804	32793	
1074	0	32812	32849	
1075	0	32808	32790	
1076	0	32854	32686	
1077	0	32756	32718	
1078	0	32832	32910	
1079	0	32862	32774	
1080	0	32788	32790	
1081	0	32784	32670	
1082	0	32800	32790	
1083	0	32812	32762	
1084	0	32832	32806	
1085	0	32834	32714	
1086	0	32830	32720	
1087	0	32732	32700	
1088	0	32848	32814	
1089	0	32748	32652	
1090	0	32824	32775	
1091	0	32816	32706	
1092	0	32852	32775	
1093	0	32842	32764	
1094	0	32788	32828	
1095	0	32832	32830	
1096	0	32794	32838	
1097	0	32748	32720	
1098	0	32822	32792	
1099	0	32844	32808	
1100	0	32836	32834	
1101	0	32820	32659	
1102	0	32808	32786	
1103	0	32816	32766	
1104	0	32830	32828	
1105	0	32788	32775	
1106	0	32788	32694	
1107	0	32814	32846	
1108	0	32828	32703	
1109	0	32788	32772	
1110	0	32775	32792	
1111	0	32768	32722	
1112	0	32780	32858	
1113	0	32808	32700	
1114	0	32838	32790	
1115	0	32838	32816	
1116	0	32864	32814	
1117	0	32780	32822	
1118	0	32820	32704	
1119	0	32816	32852	
1120	0	32836	32856	
1121	0	32866	32726	
1122	0	32832	32816	
1123	0	32772	32802	
1124	0	32792	32814	
1125	0	32840	32732	
1126	0	32820	32720	
1127	0	32796	32743	
1128	0	32768	32746	
1129	0	32810	32738	
1130	0	32816	32708	
1131	0	32804	32760	
1132	0	32854	32775	
1133	0	32816	32668	
1134	0	32812	32775	
1135	0	32798	32860	
1136	0	32760	32775	
1137	0	32808	32743	
1138	0	32840	32874	
1139	0	32816	32756	
1140	0	32792	32702	
1141	0	32766	32754	
1142	0	32816	32820	
1143	0	32792	32791	
1144	0	32812	32692	
1145	0	32804	32756	
1146	0	32828	32802	
1147	0	32764	32672	
1148	0	32806	32834	
1149	0	32786	32692	
1150	0	32808	32775	
1151	0	32808	32848	
1152	0	32792	32831	
1153	0	32828	32711	
1154	0	32860	32656	
1155	0	32788	32808	
1156	0	32832	32806	
1157	0	32834	32732	
1158	0	32788	32870	
1159	0	32804	32756	
1160	0	32808	32726	
1161	0	32832	32644	
1162	0	32796	32900	
1163	0	32804	32692	
1164	0	32864	32820	
1165	0	32740	32736	
1166	0	32844	32758	
1167	0	32796	32758	
1168	0	32794	32838	
1169	0	32824	32662	
1170	0	32840	32655	
1171	0	32814	32718	
1172	0	32824	32774	
1173	0	32868	32838	
1174	0	32820	32800	
1175	0	32784	32807	
1176	0	32788	32772	
1177	0	32776	32732	
1178	0	32796	32820	
1179	0	32840	32752	
1180	0	32836	32836	
1181	0	32808	32672	
1182	0	32806	32684	
1183	0	32838	32716	
1184	0	32844	32837	
1185	0	32816	32775	
1186	0	32804	32768	
1187	0	32814	32839	
1188	0	32832	32756	
1189	0	32808	32812	
1190	0	32786	32844	
1191	0	32820	32684	
1192	0	32780	32704	
1193	0	32862	32814	
1194	0	32804	32766	
1195	0	32774	32860	
1196	0	32792	32724	
1197	0	32762	32684	
1198	0	32820	32775	
1199	0	32816	32791	
1200	0	32864	32879	
1201	0	32824	32807	
1202	0	32852	32790	
1203	0	32782	32798	
1204	0	32804	32770	
1205	0	32886	32714	
1206	0	32888	32704	
1207	0	32776	32742	
1208	0	32800	32676	
1209	0	32794	32836	
1210	0	32746	32796	
1211	0	32838	32760	
1212	0	32788	32788	
1213	0	32812	32700	
1214	0	32818	32732	
1215	0	32760	32734	
1216	0	32848	32872	
1217	0	32872	32740	
1218	0	32788	32822	
1219	0	32844	32775	
1220	0	32804	32764	
1221	0	32746	32647	
1222	0	32820	32811	
1223	0	32836	32806	
1224	0	32768	32750	
1225	0	32866	32792	
1226	0	32780	32810	
1227	0	32856	32868	
1228	0	32794	32642	
1229	0	32780	32748	
1230	0	32776	32764	
1231	0	32820	32847	
1232	0	32812	32795	
1233	0	32810	32775	
1234	0	32780	32774	
1235	0	32784	32756	
1236	0	32856	32695	
1237	0	32764	32775	
1238	0	32832	32820	
1239	0	32836	32788	
1240	0	32896	32764	
1241	0	32788	32775	
1242	0	32824	32728	
1243	0	32854	32680	
1244	0	32868	32704	
1245	0	32792	32790	
1246	0	32844	32775	
1247	0	32866	32724	
1248	0	32804	32832	
1249	0	32852	32862	
1250	0	32760	32758	
1251	0	32764	32724	
1252	0	32800	32864	
1253	0	32800	32696	
1254	0	32844	32806	
1255	0	32740	32698	
1256	0	32840	32656	
1257	0	32804	32700	
1258	0	32874	32775	
1259	0	32836	32814	
1260	0	32820	32716	
1261	0	32840	32806	
1262	0	32816	32758	
1263	0	32800	32738	
1264	0	32864	32798	
1265	0	32844	32780	
1266	0	32772	32822	
1267	0	32770	32695	
1268	0	32792	32742	
1269	0	32774	32832	
1270	0	32818	32744	
1271	0	32820	32806	
1272	0	32798	32678	
1273	0	32844	32724	
1274	0	32824	32844	
1275	0	32874	32775	
1276	0	32792	32700	
1277	0	32820	32799	
1278	0	32820	32718	
1279	0	32852	32656	
1280	0	32836	32838	
1281	0	32808	32771	
1282	0	32870	32758	
1283	0	32836	32800	
1284	0	32852	32757	
1285	0	32848	32792	
1286	0	32756	32791	
1287	0	32832	32798	
1288	0	32818	32890	
1289	0	32768	32748	
1290	0	32828	32834	
1291	0	32822	32775	
1292	0	32776	32860	
1293	0	32774	32788	
1294	0	32784	32802	
1295	0	32766	32812	
1296	0	32752	32768	
1297	0	32878	32724	
1298	0	32808	32768	
1299	0	32780	32810	
1300	0	32788	32836	
1301	0	32768	32728	
1302	0	32776	32784	
1303	0	32834	32775	
1304	0	32796	32722	
1305	0	32808	32712	
1306	0	32842	32748	
1307	0	32858	32881	
1308	0	32808	32736	
1309	0	32764	32793	
1310	0	32750	32775	
1311	0	32766	32654	
1312	0	32784	32748	
1313	0	32792	32799	
1314	0	32864	32756	
1315	0	32836	32794	
1316	0	32806	32788	
1317	0	32816	32772	
1318	0	32866	32775	
1319	0	32814	32744	
1320	0	32852	32766	
1321	0	32826	32822	
1322	0	32820	32698	
1323	0	32776	32732	
1324	0	32780	32790	
1325	0	32768	32824	
1326	0	32758	32768	
1327	0	32772	32702	
1328	0	32826	32802	
1329	0	32820	32892	
1330	0	32840	32814	
1331	0	32856	32804	
1332	0	32772	32708	
1333	0	32772	32658	
1334	0	32816	32754	
1335	0	32804	32804	
1336	0	32876	32804	
1337	0	32840	32820	
1338	0	32848	32764	
1339	0	32800	32708	
1340	0	32770	32895	
1341	0	32834	32788	
1342	0	32784	32732	
1343	0	32894	32852	
1344	0	32764	32694	
1345	0	32808	32718	
1346	0	32790	32775	
1347	0	32800	32760	
1348	0	32776	32812	
1349	0	32804	32828	
1350	0	32864	32752	
1351	0	32878	32666	
1352	0	32808	32758	
1353	0	32792	32802	
1354	0	32860	32775	
1355	0	32864	32767	
1356	0	32780	32849	
1357	0	32810	32700	
1358	0	32820	32775	
1359	0	32828	32844	
1360	0	32818	32700	
1361	0	32846	32762	
1362	0	32796	32716	
1363	0	32792	32775	
1364	0	32804	32807	
1365	0	32834	32839	
1366	0	32820	32794	
1367	0	32808	32796	
1368	0	32780	32761	
1369	0	32802	32698	
1370	0	32822	32808	
1371	0	32853	32770	
1372	0	32804	32775	
1373	0	32776	32934	
1374	0	32790	32750	
1375	0	32832	32715	
1376	0	32764	32775	
1377	0	32824	32804	
1378	0	32800	32756	
1379	0	32872	32742	
1380	0	32844	32712	
1381	0	32820	32769	
1382	0	32836	32766	
1383	0	32816	32842	
1384	0	32756	32736	
1385	0	32832	32738	
1386	0	32788	32798	
1387	0	32784	32786	
1388	0	32864	32775	
1389	0	32832	32775	
1390	0	32846	32814	
1391	0	32832	32762	
1392	0	32888	32804	
1393	0	32844	32738	
1394	0	32908	32690	
1395	0	32800	32736	
1396	0	32788	32752	
1397	0	32788	32846	
1398	0	32820	32774	
1399	0	32828	32742	
1400	0	32808	32908	
1401	0	32794	32798	
1402	0	32860	32722	
1403	0	32810	32754	
1404	0	32804	32760	
1405	0	32864	32820	
1406	0	32816	32786	
1407	0	32876	32852	
1408	0	32832	32775	
1409	0	32836	32878	
1410	0	32788	32788	
1411	0	32804	32773	
1412	0	32798	32718	
1413	0	32822	32888	
1414	0	32882	32890	
1415	0	32868	32960	
1416	0	32896	32930	
1417	0	32852	32842	
1418	0	32816	32756	
1419	0	32818	32792	
1420	0	32804	32862	
1421	0	32736	32670	
1422	0	32668	32586	
1423	0	32692	32572	
1424	0	32728	32634	
1425	0	32653	32371	
1426	0	32628	32287	
1427	0	32644	32360	
1428	0	32612	32422	
1429	0	32808	32576	
1430	0	32734	32754	
1431	0	32762	32709	
1432	0	32876	32724	
1433	0	32824	32783	
1434	0	32834	32834	
1435	0	32780	32828	
1436	0	32864	32852	
1437	0	32836	32775	
1438	0	32820	32732	
1439	0	32880	32884	
1440	0	32864	32965	
1441	0	32862	32940	
1442	0	32932	32935	
1443	0	32866	32808	
1444	0	32904	32926	
1445	0	32895	32822	
1446	0	32932	32914	
1447	0	32800	32746	
1448	0	32800	32775	
1449	0	32884	32903	
1450	0	32808	32775	
1451	0	32904	32640	
1452	0	32826	32822	
1453	0	32850	32814	
1454	0	32844	32758	
1455	0	32898	32798	
1456	0	32814	32784	
1457	0	32820	32832	
1458	0	32756	32790	
1459	0	32800	32700	
1460	0	32752	32705	
1461	0	32810	32796	
1462	0	32782	32756	
1463	0	32790	32654	
1464	0	32772	32775	
1465	0	32800	32760	
1466	0	32792	32824	
1467	0	32818	32704	
1468	0	32838	32866	
1469	0	32828	32789	
1470	0	32792	32756	
1471	0	32732	32766	
1472	0	32844	32734	
1473	0	32812	32798	
1474	0	32842	32760	
1475	0	32776	32839	
1476	0	32798	32708	
1477	0	32746	32854	
1478	0	32852	32772	
1479	0	32810	32628	
1480	0	32766	32710	
1481	0	32790	32752	
1482	0	32808	32786	
1483	0	32784	32804	
1484	0	32796	32790	
1485	0	32852	32728	
1486	0	32812	32678	
1487	0	32844	32820	
1488	0	32804	32788	
1489	0	32836	32762	
1490	0	32820	32848	
1491	0	32830	32732	
1492	0	32822	32916	
1493	0	32758	32708	
1494	0	32776	32694	
1495	0	32864	32775	
1496	0	32800	32775	
1497	0	32802	32751	
1498	0	32836	32775	
1499	0	32775	32862	
1500	0	32840	32804	
1501	0	32776	32694	
1502	0	32834	32724	
1503	0	32794	32724	
1504	0	32804	32828	
1505	0	32826	32734	
1506	0	32856	32798	
1507	0	32792	32758	
1508	0	32860	32760	
1509	0	32834	32854	
1510	0	32854	32700	
1511	0	32844	32692	
1512	0	32810	32850	
1513	0	32824	32838	
1514	0	32808	32870	
1515	0	32758	32880	
1516	0	32834	32710	
1517	0	32805	32796	
1518	0	32826	32775	
1519	0	32912	32820	
1520	0	32840	32668	
1521	0	32860	32775	
1522	0	32844	32815	
1523	0	32816	32775	
1524	0	32852	32858	
1525	0	32812	32700	
1526	0	32818	32752	
1527	0	32776	32842	
1528	0	32814	32742	
1529	0	32828	32828	
1530	0	32808	32726	
1531	0	32836	32740	
1532	0	32798	32711	
1533	0	32804	32856	
1534	0	32852	32764	
1535	0	32784	32799	
1536	0	32768	32766	
1537	0	32752	32764	
1538	0	32788	32646	
1539	0	32864	32732	
1540	0	32850	32666	
1541	0	32784	32744	
1542	0	32804	32892	
1543	0	32898	32694	
1544	0	32820	32832	
1545	0	32800	32746	
1546	0	32833	32775	
1547	0	32784	32808	
1548	0	32816	32788	
1549	0	32821	32762	
1550	0	32802	32839	
1551	0	32786	32902	
1552	0	32748	32788	
1553	0	32852	32814	
1554	0	32789	32758	
1555	0	32784	32646	
1556	0	32794	32708	
1557	0	32884	32692	
1558	0	32820	32742	
1559	0	32776	32796	
1560	0	32820	32804	
1561	0	32816	32746	
1562	0	32796	32794	
1563	0	32818	32702	
1564	0	32776	32756	
1565	0	32864	32806	
1566	0	32832	32879	
1567	0	32798	32796	
1568	0	32824	32708	
1569	0	32820	32766	
1570	0	32804	32866	
1571	0	32836	32718	
1572	0	32862	32752	
1573	0	32784	32878	
1574	0	32834	32748	
1575	0	32758	32728	
1576	0	32860	32756	
1577	0	32864	32794	
1578	0	32792	32895	
1579	0	32828	32734	
1580	0	32786	32806	
1581	0	32900	32762	
1582	0	32828	32702	
1583	0	32870	32730	
1584	0	32808	32692	
1585	0	32812	32743	
1586	0	32876	32852	
1587	0	32856	32854	
1588	0	32868	32786	
1589	0	32834	32810	
1590	0	32760	32828	
1591	0	32856	32789	
1592	0	32800	32699	
1593	0	32802	32710	
1594	0	32852	32826	
1595	0	32804	32775	
1596	0	32872	32775	
1597	0	32786	32874	
1598	0	32794	32696	
1599	0	32844	32796	
1600	0	32880	32839	
1601	0	32752	32760	
1602	0	32784	32854	
1603	0	32844	32706	
1604	0	32890	32711	
1605	0	32830	32852	
1606	0	32792	32826	
1607	0	32802	32770	
1608	0	32844	32834	
1609	0	32800	32775	
1610	0	32804	32716	
1611	0	32826	32766	
1612	0	32852	32673	
1613	0	32816	32790	
1614	0	32768	32788	
1615	0	32788	32740	
1616	0	32848	32760	
1617	0	32844	32868	
1618	0	32800	32750	
1619	0	32760	32614	
1620	0	32884	32798	
1621	0	32808	32802	
1622	0	32916	32734	
1623	0	32808	32798	
1624	0	32860	32684	
1625	0	32868	32756	
1626	0	32768	32832	
1627	0	32736	32796	
1628	0	32776	32798	
1629	0	32728	32730	
1630	0	32820	32766	
1631	0	32800	32810	
1632	0	32754	32860	
1633	0	32864	32798	
1634	0	32864	32798	
1635	0	32788	32790	
1636	0	32814	32732	
1637	0	32804	32743	
1638	0	32808	32794	
1639	0	32810	32806	
1640	0	32774	32822	
1641	0	32865	32706	
1642	0	32820	32732	
1643	0	32860	32670	
1644	0	32812	32812	
1645	0	32764	32720	
1646	0	32808	32770	
1647	0	32828	32852	
1648	0	32768	32660	
1649	0	32898	32692	
1650	0	32832	32820	
1651	0	32824	32832	
1652	0	32780	32744	
1653	0	32838	32748	
1654	0	32824	32810	
1655	0	32776	32710	
1656	0	32820	32700	
1657	0	32810	32708	
1658	0	32816	32802	
1659	0	32840	32788	
1660	0	32768	32775	
1661	0	32802	32820	
1662	0	32896	32842	
1663	0	32808	32818	
1664	0	32846	32678	
1665	0	32776	32724	
1666	0	32796	32732	
1667	0	32862	32800	
1668	0	32832	32772	
1669	0	32808	32716	
1670	0	32756	32686	
1671	0	32800	32738	
1672	0	32806	32788	
1673	0	32772	32816	
1674	0	32800	32758	
1675	0	32800	32775	
1676	0	32748	32775	
1677	0	32844	32720	
1678	0	32874	32654	
1679	0	32790	32774	
1680	0	32740	32730	
1681	0	32838	32863	
1682	0	32784	32706	
1683	0	32852	32743	
1684	0	32776	32804	
1685	0	32810	32708	
1686	0	32862	32742	
1687	0	32852	32822	
1688	0	32840	32752	
1689	0	32800	32772	
1690	0	32740	32708	
1691	0	32816	32834	
1692	0	32804	32738	
1693	0	32876	32762	
1694	0	32824	32788	
1695	0	32850	32703	
1696	0	32836	32739	
1697	0	32904	32768	
1698	0	32834	32790	
1699	0	32784	32743	
1700	0	32822	32806	
1701	0	32844	32766	
1702	0	32826	32678	
1703	0	32824	32734	
1704	0	32816	32824	
1705	0	32828	32804	
1706	0	32864	32804	
1707	0	32810	32775	
1708	0	32782	32830	
1709	0	32838	32800	
1710	0	32824	32730	
1711	0	32780	32762	
1712	0	32820	32830	
1713	0	32754	32894	
1714	0	32852	32744	
1715	0	32792	32807	
1716	0	32830	32700	
1717	0	32784	32702	
1718	0	32816	32702	
1719	0	32856	32754	
1720	0	32760	32775	
1721	0	32764	32870	
1722	0	32832	32712	
1723	0	32808	32790	
1724	0	32784	32872	
1725	0	32840	32714	
1726	0	32808	32738	
1727	0	32820	32774	
1728	0	32804	32827	
1729	0	32784	32774	
1730	0	32842	32808	
1731	0	32748	32775	
1732	0	32768	32704	
1733	0	32816	32726	
1734	0	32814	32843	
1735	0	32868	32828	
1736	0	32811	32798	
1737	0	32780	32736	
1738	0	32802	32943	
1739	0	32872	32692	
1740	0	32850	32714	
1741	0	32868	32775	
1742	0	32820	32814	
1743	0	32764	32802	
1744	0	32794	32738	
1745	0	32870	32762	
1746	0	32808	32788	
1747	0	32864	32730	
1748	0	32760	32736	
1749	0	32864	32774	
1750	0	32800	32735	
1751	0	32850	32839	
1752	0	32764	32772	
1753	0	32800	32767	
1754	0	32802	32775	
1755	0	32864	32806	
1756	0	32830	32823	
1757	0	32874	32794	
1758	0	32872	32734	
1759	0	32830	32688	
1760	0	32740	32830	
1761	0	32840	32838	
1762	0	32788	32750	
1763	0	32800	32808	
1764	0	32818	32762	
1765	0	32832	32670	
1766	0	32800	32800	
1767	0	32832	32788	
1768	0	32840	32858	
1769	0	32808	32744	
1770	0	32802	32746	
1771	0	32860	32696	
1772	0	32848	32862	
1773	0	32856	32722	
1774	0	32756	32770	
1775	0	32776	32836	
1776	0	32786	32842	
1777	0	32788	32684	
1778	0	32772	32710	
1779	0	32842	32828	
1780	0	32792	32775	
1781	0	32800	32764	
1782	0	32854	32786	
1783	0	32828	32842	
1784	0	32810	32740	
1785	0	32820	32760	
1786	0	32800	32766	
1787	0	32738	32802	
1788	0	32820	32775	
1789	0	32832	32743	
1790	0	32794	32756	
1791	0	32812	32839	
1792	0	32818	32711	
1793	0	32836	32654	
1794	0	32842	32754	
1795	0	32810	32806	
1796	0	32806	32760	
1797	0	32880	32840	
1798	0	32814	32807	
1799	0	32714	32876	
1800	0	32784	32764	
1801	0	32840	32774	
1802	0	32812	32812	
1803	0	32808	32774	
1804	0	32850	32766	
1805	0	32804	32759	
1806	0	32780	32760	
1807	0	32840	32810	
1808	0	32844	32896	
1809	0	32812	32690	
1810	0	32860	32710	
1811	0	32796	32750	
1812	0	32792	32814	
1813	0	32848	32746	
1814	0	32816	32768	
1815	0	32800	32828	
1816	0	32872	32804	
1817	0	32804	32868	
1818	0	32815	32758	
1819	0	32816	32638	
1820	0	32784	32760	
1821	0	32800	32704	
1822	0	32860	32794	
1823	0	32816	32766	
1824	0	32864	32752	
1825	0	32796	32719	
1826	0	32838	32774	
1827	0	32766	32807	
1828	0	32828	32812	
1829	0	32796	32852	
1830	0	32778	32798	
1831	0	32868	32688	
1832	0	32778	32734	
1833	0	32834	32726	
1834	0	32842	32852	
1835	0	32818	32750	
1836	0	32810	32842	
1837	0	32834	32775	
1838	0	32798	32824	
1839	0	32792	32822	
1840	0	32848	32800	
1841	0	32804	32795	
1842	0	32846	32676	
1843	0	32844	32600	
1844	0	32832	32716	
1845	0	32856	32820	
1846	0	32884	32732	
1847	0	32842	32796	
1848	0	32804	32804	
1849	0	32816	32700	
1850	0	32896	32712	
1851	0	32848	32756	
1852	0	32792	32758	
1853	0	32834	32824	
1854	0	32850	32791	
1855	0	32836	32775	
1856	0	32812	32764	
1857	0	32798	32868	
1858	0	32780	32758	
1859	0	32772	32712	
1860	0	32744	32740	
1861	0	32774	32836	
1862	0	32844	32832	
1863	0	32780	32792	
1864	0	32804	32814	
1865	0	32792	32838	
1866	0	32848	32832	
1867	0	32776	32706	
1868	0	32840	32689	
1869	0	32868	32702	
1870	0	32800	32796	
1871	0	32824	32860	
1872	0	32814	32834	
1873	0	32840	32724	
1874	0	32840	32831	
1875	0	32798	32830	
1876	0	32858	32703	
1877	0	32796	32816	
1878	0	32772	32770	
1879	0	32804	32710	
1880	0	32836	32744	
1881	0	32768	32825	
1882	0	32804	32680	
1883	0	32882	32742	
1884	0	32852	32824	
1885	0	32804	32742	
1886	0	32786	32734	
1887	0	32854	32743	
1888	0	32740	32710	
1889	0	32842	32708	
1890	0	32812	32788	
1891	0	32806	32775	
1892	0	32864	32774	
1893	0	32792	32775	
1894	0	32846	32822	
1895	0	32786	32743	
1896	0	32852	32682	
1897	0	32780	32730	
1898	0	32804	32820	
1899	0	32836	32855	
1900	0	32836	32830	
1901	0	32792	32684	
1902	0	32838	32775	
1903	0	32800	32742	
1904	0	32828	32679	
1905	0	32866	32794	
1906	0	32832	32862	
1907	0	32852	32826	
1908	0	32780	32686	
1909	0	32804	32698	
1910	0	32796	32788	
1911	0	32800	32846	
1912	0	32740	32818	
1913	0	32804	32832	
1914	0	32812	32734	
1915	0	32840	32804	
1916	0	32738	32772	
1917	0	32804	32748	
1918	0	32848	32775	
1919	0	32756	32700	
1920	0	32832	32756	
1921	0	32791	32806	
1922	0	32812	32800	
1923	0	32852	32775	
1924	0	32854	32750	
1925	0	32846	32704	
1926	0	32830	32775	
1927	0	32832	32908	
1928	0	32791	32710	
1929	0	32866	32790	
1930	0	32832	32839	
1931	0	32834	32688	
1932	0	32816	32710	
1933	0	32824	32815	
1934	0	32856	32868	
1935	0	32816	32762	
1936	0	32832	32796	
1937	0	32806	32736	
1938	0	32824	32654	
1939	0	32836	32774	
1940	0	32816	32718	
1941	0	32836	32798	
1942	0	32856	32808	
1943	0	32850	32775	
1944	0	32840	32836	
1945	0	32712	32692	
1946	0	32756	32732	
1947	0	32788	32690	
1948	0	32800	32807	
1949	0	32820	32810	
1950	0	32788	32748	
1951	0	32804	32806	
1952	0	32862	32644	
1953	0	32796	32614	
1954	0	32783	32818	
1955	0	32790	32752	
1956	0	32868	32748	
1957	0	32816	32839	
1958	0	32792	32708	
1959	0	32858	32686	
1960	0	32852	32758	
1961	0	32856	32824	
1962	0	32800	32834	
1963	0	32792	32822	
1964	0	32812	32952	
1965	0	32816	32704	
1966	0	32860	32748	
1967	0	32830	32752	
1968	0	32780	32810	
1969	0	32816	32848	
1970	0	32856	32722	
1971	0	32880	32775	
1972	0	32784	32712	
1973	0	32760	32748	
1974	0	32768	32802	
1975	0	32868	32800	
1976	0	32852	32727	
1977	0	32816	32788	
1978	0	32766	32794	
1979	0	32840	32812	
1980	0	32756	32716	
1981	0	32784	32622	
1982	0	32804	32732	
1983	0	32772	32742	
1984	0	32812	32774	
1985	0	32856	32806	
1986	0	32838	32775	
1987	0	32790	32712	
1988	0	32784	32824	
1989	0	32758	32796	
1990	0	32832	32839	
1991	0	32784	32727	
1992	0	32816	32652	
1993	0	32832	32678	
1994	0	32800	32834	
1995	0	32810	32822	
1996	0	32812	32818	
1997	0	32802	32687	
1998	0	32732	32688	
1999	0	32868	32743	
2000	0	32828	32832	
2001	0	32810	32792	
2002	0	32740	32828	
2003	0	32854	32724	
2004	0	32836	32679	
2005	0	32872	32820	
2006	0	32884	32760	
2007	0	32804	32834	
2008	0	32684	32827	
2009	0	32810	32652	
2010	0	32830	32664	
2011	0	32806	32732	
2012	0	32812	32855	
2013	0	32888	32814	
2014	0	32892	32732	
2015	0	32808	32818	
2016	0	32844	32792	
2017	0	32776	32692	
2018	0	32802	32796	
2019	0	32792	32772	
2020	0	32840	32791	
2021	0	32838	32862	
2022	0	32888	32692	
2023	0	32836	32722	
2024	0	32874	32860	
2025	0	32748	32726	
2026	0	32824	32744	
2027	0	32780	32678	
2028	0	32744	32695	
2029	0	32820	32711	
2030	0	32824	32752	
2031	0	32868	32775	
2032	0	32784	32686	
2033	0	32760	32798	
2034	0	32822	32836	
2035	0	32794	32854	
2036	0	32772	32702	
2037	0	32778	32724	
2038	0	32816	32870	
2039	0	32774	32772	
2040	0	32804	32766	
2041	0	32802	32743	
2042	0	32816	32658	
2043	0	32820	32742	
2044	0	32796	32838	
2045	0	32793	32770	
2046	0	32832	32810	
2047	0	32854	32743	
2048	0	32826	32794	
2049	0	32780	32750	
2050	0	32820	32802	
2051	0	32820	32770	
2052	0	32766	32772	
2053	0	32804	32724	
2054	0	32768	32752	
2055	0	32820	32806	
2056	0	32828	32738	
2057	0	32828	32839	
2058	0	32834	32752	
2059	0	32824	32748	
2060	0	32856	32818	
2061	0	32776	32742	
2062	0	32732	32726	
2063	0	32812	32679	
2064	0	32800	32654	
2065	0	32750	32855	
2066	0	32840	32840	
2067	0	32828	32766	
2068	0	32824	32844	
2069	0	32818	32769	
2070	0	32820	32774	
2071	0	32832	32792	
2072	0	32764	32818	
2073	0	32824	32793	
2074	0	32856	32807	
2075	0	32816	32790	
2076	0	32874	32926	
2077	0	32832	32759	
2078	0	32828	32670	
2079	0	32849	32762	
2080	0	32866	32815	
2081	0	32852	32775	
2082	0	32860	32694	
2083	0	32864	32700	
2084	0	32824	32824	
2085	0	32812	32850	
2086	0	32780	32868	
2087	0	32820	32732	
2088	0	32836	32730	
2089	0	32836	32775	
2090	0	32844	32774	
2091	0	32822	32864	
2092	0	32808	32772	
2093	0	32846	32852	
2094	0	32856	32950	
2095	0	32868	32896	
2096	0	32828	32902	
2097	0	32822	32807	
2098	0	32832	32775	
2099	0	32792	32796	
2100	0	32816	32634	
2101	0	32688	32614	
2102	0	32668	32442	
2103	0	32744	32580	
2104	0	32754	32432	
2105	0	32716	32498	
2106	0	32708	32433	
2107	0	32620	32452	
2108	0	32712	32545	
2109	0	32722	32588	
2110	0	32780	32700	
2111	0	32812	32740	
2112	0	32868	32718	
2113	0	32808	32784	
2114	0	32772	32860	
2115	0	32898	32792	
2116	0	32884	32878	
2117	0	32846	32900	
2118	0	32896	32906	
2119	0	32856	32994	
2120	0	32856	32914	
2121	0	32852	32986	
2122	0	32840	32862	
2123	0	32900	32810	
2124	0	32836	32910	
2125	0	32924	32870	
2126	0	32878	32856	
2127	0	32880	32982	
2128	0	32888	32750	
2129	0	32808	32816	
2130	0	32768	32874	
2131	0	32804	32790	
2132	0	32852	32720	
2133	0	32842	32816	
2134	0	32810	32714	
2135	0	32880	32728	
2136	0	32764	32816	
2137	0	32856	32758	
2138	0	32846	32775	
2139	0	32752	32764	
2140	0	32792	32679	
2141	0	32864	32704	
2142	0	32842	32764	
2143	0	32798	32796	
2144	0	32782	32742	
2145	0	32804	32727	
2146	0	32788	32810	
2147	0	32842	32714	
2148	0	32840	32654	
2149	0	32800	32823	
2150	0	32866	32846	
2151	0	32818	32730	
2152	0	32832	32775	
2153	0	32792	32775	
2154	0	32814	32726	
2155	0	32800	32722	
2156	0	32788	32760	
2157	0	32792	32846	
2158	0	32784	32800	
2159	0	32796	32754	
2160	0	32782	32868	
2161	0	32826	32764	
2162	0	32774	32704	
2163	0	32846	32840	
2164	0	32872	32816	
2165	0	32830	32754	
2166	0	32832	32807	
2167	0	32810	32737	
2168	0	32798	32676	
2169	0	32812	32807	
2170	0	32750	32868	
2171	0	32880	32790	
2172	0	32800	32754	
2173	0	32846	32788	
2174	0	32788	32724	
2175	0	32788	32754	
2176	0	32836	32796	
2177	0	32836	32744	
2178	0	32768	32814	
2179	0	32828	32775	
2180	0	32800	32654	
2181	0	32828	32691	
2182	0	32786	32768	
2183	0	32820	32788	
2184	0	32840	32767	
2185	0	32824	32802	
2186	0	32768	32902	
2187	0	32782	32696	
2188	0	32796	32716	
2189	0	32888	32736	
2190	0	32788	32772	
2191	0	32764	32833	
2192	0	32824	32662	
2193	0	32780	32810	
2194	0	32800	32756	
2195	0	32816	32870	
2196	0	32784	32708	
2197	0	32820	32834	
2198	0	32910	32684	
2199	0	32836	32756	
2200	0	32842	32700	
2201	0	32852	32662	
2202	0	32816	32764	
2203	0	32790	32684	
2204	0	32872	32824	
2205	0	32772	32844	
2206	0	32860	32718	
2207	0	32804	32719	
2208	0	32760	32816	
2209	0	32724	32808	
2210	0	32748	32852	
2211	0	32724	32714	
2212	0	32832	32700	
2213	0	32796	32874	
2214	0	32836	32756	
2215	0	32794	32812	
2216	0	32760	32734	
2217	0	32784	32706	
2218	0	32868	32734	
2219	0	32820	32808	
2220	0	32800	32794	
2221	0	32862	32664	
2222	0	32872	32692	
2223	0	32820	32743	
2224	0	32796	32719	
2225	0	32708	32769	
2226	0	32870	32730	
2227	0	32832	32826	
2228	0	32776	32727	
2229	0	32718	32688	
2230	0	32840	32730	
2231	0	32768	32790	
2232	0	32828	32804	
2233	0	32766	32774	
2234	0	32868	32744	
2235	0	32760	32650	
2236	0	32802	32706	
2237	0	32932	32774	
2238	0	32848	32874	
2239	0	32878	32836	
2240	0	32808	32724	
2241	0	32878	32796	
2242	0	32800	32714	
2243	0	32804	32756	
2244	0	32804	32716	
2245	0	32798	32735	
2246	0	32802	32806	
2247	0	32848	32694	
2248	0	32800	32798	
2249	0	32780	32807	
2250	0	32786	32760	
2251	0	32800	32810	
2252	0	32788	32711	
2253	0	32784	32724	
2254	0	32748	32702	
2255	0	32756	32814	
2256	0	32800	32812	
2257	0	32674	32740	
2258	0	32834	32654	
2259	0	32868	32726	
2260	0	32852	32774	
2261	0	32830	32639	
2262	0	32784	32775	
2263	0	32840	32775	
2264	0	32820	32652	
2265	0	32828	32698	
2266	0	32844	32688	
2267	0	32808	32828	
2268	0	32876	32812	
2269	0	32864	32832	
2270	0	32748	32900	
2271	0	32800	32948	
2272	0	32820	32906	
2273	0	32732	32870	
2274	0	32796	32775	
2275	0	32812	32852	
2276	0	32828	32846	
2277	0	32788	32892	
2278	0	32804	32790	
2279	0	32808	32756	
2280	0	32812	32794	
2281	0	32884	32762	
2282	0	32792	32690	
2283	0	32836	32692	
2284	0	32830	32622	
2285	0	32820	32654	
2286	0	32852	32774	
2287	0	32932	32608	
2288	0	32752	32424	
2289	0	32742	32518	
2290	0	32768	32566	
2291	0	32772	32596	
2292	0	32826	32695	
2293	0	32808	32748	
2294	0	32780	32704	
2295	0	32742	32775	
2296	0	32792	32837	
2297	0	32784	32894	
2298	0	32776	32878	
2299	0	32856	32832	
2300	0	32868	32814	
2301	0	32836	32948	
2302	0	32812	32992	
2303	0	32794	33008	
2304	0	32776	32924	
2305	0	32808	32950	
2306	0	32780	32728	
2307	0	32756	32692	
2308	0	32748	32824	
2309	0	32756	32750	
2310	0	32776	32757	
2311	0	32800	32647	
2312	0	32794	32660	
2313	0	32736	32692	
2314	0	32772	32775	
2315	0	32838	32708	
2316	0	32802	32796	
2317	0	32792	32686	
2318	0	32766	32586	
2319	0	32752	32788	
2320	0	32846	32698	
2321	0	32814	32656	
2322	0	32732	32711	
2323	0	32744	32564	
2324	0	32738	32612	
2325	0	32860	32730	
2326	0	32792	32702	
2327	0	32806	32706	
2328	0	32796	32708	
2329	0	32806	32615	
2330	0	32880	32565	
2331	0	32796	32628	
2332	0	32812	32688	
2333	0	32860	32608	
2334	0	32868	32721	
2335	0	32816	32600	
2336	0	32764	32551	
2337	0	32716	32756	
2338	0	32756	32742	
2339	0	32780	32822	
2340	0	32792	32834	
2341	0	32808	32919	
2342	0	32830	32992	
2343	0	32784	33127	
2344	0	32768	32987	
2345	0	32744	32903	
2346	0	32724	33012	
2347	0	32816	32960	
2348	0	32768	32807	
2349	0	32748	32772	
2350	0	32672	32895	
2351	0	32774	32903	
2352	0	32776	32635	
2353	0	32850	32578	
2354	0	32812	32662	
2355	0	32790	32694	
2356	0	32824	32688	
2357	0	32832	32678	
2358	0	32760	32598	
2359	0	32818	32698	
2360	0	32784	32686	
2361	0	32734	32510	
2362	0	32894	32600	
2363	0	32840	32702	
2364	0	32886	32704	
2365	0	32712	32688	
2366	0	32726	32654	
2367	0	32706	32644	
2368	0	32792	32784	
2369	0	32762	32775	
2370	0	32732	32746	
2371	0	32790	32898	
2372	0	32840	32854	
2373	0	32788	32828	
2374	0	32804	32842	
2375	0	32800	32884	
2376	0	32744	32838	
2377	0	32748	32838	
2378	0	32888	32615	
2379	0	32740	32602	
2380	0	32704	32466	
2381	0	32804	32554	
2382	0	32796	32482	
2383	0	32724	32454	
2384	0	32738	32647	
2385	0	32786	32756	
2386	0	32892	32678	
2387	0	32712	32970	
2388	0	32760	32832	
2389	0	32761	32810	
2390	0	32778	32987	
2391	0	32814	33018	
2392	0	32740	32896	
2393	0	32696	32978	
2394	0	32668	33038	
2395	0	32734	32935	
2396	0	32652	32975	
2397	0	32704	32887	
2398	0	32612	32730	
2399	0	32648	32612	
2400	0	32672	32358	
2401	0	32748	32346	
2402	0	32772	32372	
2403	0	32812	32576	
2404	0	32840	32612	
2405	0	32840	32783	
2406	0	32924	32690	
2407	0	32828	32675	
2408	0	32864	32740	
2409	0	32876	32838	
2410	0	32846	32862	
2411	0	32824	32758	
2412	0	32808	32588	
2413	0	32784	32700	
2414	0	32704	32596	
2415	0	32744	32519	
2416	0	32868	32431	
2417	0	32742	32367	
2418	0	32820	32700	
2419	0	32824	33008	
2420	0	32876	33002	
2421	0	32844	32964	
2422	0	32717	33016	
2423	0	32916	33070	
2424	0	32824	33028	
2425	0	32766	32962	
2426	0	32768	32916	
2427	0	32740	33092	
2428	0	32700	33127	
2429	0	32580	32942	
2430	0	32652	32894	
2431	0	32704	33086	
2432	0	32708	32992	
2433	0	32836	32750	
2434	0	32808	32772	
2435	0	32812	32804	
2436	0	32960	32654	
2437	0	32956	32650	
2438	0	32900	32702	
2439	0	32908	32647	
2440	0	32786	32656	
2441	0	32750	32568	
2442	0	32824	32716	
2443	0	32732	32662	
2444	0	32752	32552	
2445	0	32792	32312	
2446	0	32794	32342	
2447	0	32746	32148	
2448	0	32696	31998	
2449	0	32728	31946	
2450	0	32804	32132	
2451	0	32784	32292	
2452	0	32768	32568	
2453	0	32852	32422	
2454	0	32940	32486	
2455	0	32837	32711	
2456	0	32872	32838	
2457	0	32804	32711	
2458	0	32704	32718	
2459	0	32682	32706	
2460	0	32744	32804	
2461	0	32756	32839	
2462	0	32740	32759	
2463	0	32716	32800	
2464	0	32775	32678	
2465	0	32816	32656	
2466	0	32772	32724	
2467	0	32864	32711	
2468	0	32800	32614	
2469	0	32756	32770	
2470	0	32728	32852	
2471	0	32676	32671	
2472	0	32768	32670	
2473	0	32800	32751	
2474	0	32752	32670	
2475	0	32788	32620	
2476	0	32688	32692	
2477	0	32752	32752	
2478	0	32788	32616	
2479	0	32798	32832	
2480	0	32836	33084	
2481	0	32810	32764	
2482	0	32792	32791	
2483	0	32808	32930	
2484	0	32828	32878	
2485	0	32976	32895	
2486	0	32910	32902	
2487	0	32836	32911	
2488	0	32806	32974	
2489	0	32666	33098	
2490	0	32632	32996	
2491	0	32692	33026	
2492	0	32606	33072	
2493	0	32736	32920	
2494	0	32732	33031	
2495	0	32762	32868	
2496	0	32778	32912	
2497	0	32928	32774	
2498	0	32784	32754	
2499	0	32792	32878	
2500	0	32808	32816	
2501	0	32890	32766	
2502	0	32808	32852	
2503	0	32808	32810	
2504	0	32968	32742	
2505	0	32948	32788	
2506	0	32848	32604	
2507	0	32828	32550	
2508	0	32660	32679	
2509	0	32628	32664	
2510	0	32644	32708	
2511	0	32514	32714	
2512	0	32596	32566	
2513	0	32562	32653	
2514	0	32588	32616	
2515	0	32742	32657	
2516	0	32656	32456	
2517	0	32820	32720	
2518	0	32940	32992	
2519	0	32892	33082	
2520	0	32744	32947	
2521	0	32948	32838	
2522	0	32806	32804	
2523	0	32886	32775	
2524	0	32964	32644	
2525	0	32904	32608	
2526	0	32876	32700	
2527	0	32900	32644	
2528	0	32888	32746	
2529	0	32700	32898	
2530	0	32772	32930	
2531	0	32712	32868	
2532	0	32748	32708	
2533	0	32788	32696	
2534	0	32762	32620	
2535	0	32666	32638	
2536	0	32728	32679	
2537	0	32780	32623	
2538	0	32984	32448	
2539	0	32916	32464	
2540	0	32954	32500	
2541	0	32916	32631	
2542	0	32884	32656	
2543	0	32772	32646	
2544	0	32804	32844	
2545	0	32684	33003	
2546	0	32812	33031	
2547	0	32708	33072	
2548	0	32596	32998	
2549	0	32756	32892	
2550	0	32768	32762	
2551	0	32676	32808	
2552	0	32574	32696	
2553	0	32584	32590	
2554	0	32580	32816	
2555	0	32740	32886	
2556	0	32780	32720	
2557	0	32976	32647	
2558	0	32892	32551	
2559	0	32848	32615	
2560	0	32808	32588	
2561	0	32912	32450	
2562	0	32840	32324	
2563	0	32680	32284	
2564	0	32736	32558	
2565	0	32748	32614	
2566	0	32704	32752	
2567	0	32712	32860	
2568	0	32794	32732	
2569	0	32872	32652	
2570	0	33060	32670	
2571	0	33028	32838	
2572	0	33144	32948	
2573	0	33072	32988	
2574	0	32856	32976	
2575	0	32680	32647	
2576	0	32668	32626	
2577	0	32528	32639	
2578	0	32584	32536	
2579	0	32740	32464	
2580	0	32880	32646	
2581	0	32836	32592	
2582	0	32792	32704	
2583	0	32868	32716	
2584	0	32883	32774	
2585	0	32844	32934	
2586	0	32622	32967	
2587	0	32622	32996	
2588	0	32538	33108	
2589	0	32592	33207	
2590	0	32990	33138	
2591	0	33120	32914	
2592	0	33034	32576	
2593	0	33092	32590	
2594	0	33080	32654	
2595	0	32908	32694	
2596	0	32960	32946	
2597	0	32880	33031	
2598	0	32804	32998	
2599	0	32816	33187	
2600	0	32772	33020	
2601	0	32754	32824	
2602	0	32924	32866	
2603	0	32616	33040	
2604	0	32590	33048	
2605	0	32748	32864	
2606	0	32800	32615	
2607	0	32774	32634	
2608	0	32788	32480	
2609	0	32840	32471	
2610	0	32688	32407	
2611	0	32772	32519	
2612	0	32964	32801	
2613	0	32880	32915	
2614	0	32708	33030	
2615	0	32718	32722	
2616	0	32824	32668	
2617	0	32868	32545	
2618	0	32868	32586	
2619	0	32714	32620	
2620	0	32648	32596	
2621	0	32740	32762	
2622	0	33032	32950	
2623	0	32740	33008	
2624	0	32676	33171	
2625	0	32642	33054	
2626	0	32840	33098	
2627	0	32758	32962	
2628	0	32760	32775	
2629	0	32938	32618	
2630	0	32948	32646	
2631	0	33148	32551	
2632	0	32916	32652	
2633	0	32746	32600	
2634	0	32844	32519	
2635	0	32758	32736	
2636	0	32730	32639	
2637	0	32694	32838	
2638	0	32714	32620	
2639	0	32724	32711	
2640	0	32726	32748	
2641	0	32694	33028	
2642	0	32796	32782	
2643	0	32858	32658	
2644	0	32706	32416	
2645	0	32708	32548	
2646	0	32708	32454	
2647	0	32640	32554	
2648	0	32704	32448	
2649	0	32918	32536	
2650	0	32729	32459	
2651	0	32740	32534	
2652	0	32846	32697	
2653	0	32848	32750	
2654	0	32960	32963	
2655	0	33160	33175	
2656	0	32968	33318	
2657	0	32752	33302	
2658	0	32676	33506	
2659	0	32588	33590	
2660	0	32706	33118	
2661	0	32712	32964	
2662	0	32728	32503	
2663	0	32912	32412	
2664	0	33096	32076	
2665	0	33024	32198	
2666	0	32864	32452	
2667	0	32842	32798	
2668	0	32652	32788	
2669	0	32584	33198	
2670	0	32596	33222	
2671	0	32472	33046	
2672	0	32594	32994	
2673	0	32647	32806	
2674	0	32852	32706	
2675	0	32776	32646	
2676	0	32924	32330	
2677	0	33132	32263	
2678	0	33144	32234	
2679	0	32840	32410	
2680	0	32916	32896	
2681	0	32632	33142	
2682	0	32696	33058	
2683	0	33057	32734	
2684	0	33176	32519	
2685	0	33158	32476	
2686	0	33040	31925	
2687	0	32722	31854	
2688	0	32836	32314	
2689	0	32712	32692	
2690	0	32720	33126	
2691	0	32760	32992	
2692	0	32582	32942	
2693	0	32692	33062	
2694	0	32660	33196	
2695	0	32456	33334	
2696	0	32818	33196	
2697	0	32916	33084	
2698	0	33218	32874	
2699	0	33124	32948	
2700	0	32972	32999	
2701	0	33038	32748	
2702	0	32828	32498	
2703	0	32912	32836	
2704	0	32644	32903	
2705	0	32760	32976	
2706	0	32784	32810	
2707	0	32824	32558	
2708	0	32780	32618	
2709	0	32892	32668	
2710	0	32908	32718	
2711	0	32804	32567	
2712	0	32600	32418	
2713	0	32324	32350	
2714	0	32420	32466	
2715	0	32640	32616	
2716	0	32966	32600	
2717	0	33124	32650	
2718	0	33116	32766	
2719	0	32992	32814	
2720	0	32672	32924	
2721	0	32648	33075	
2722	0	32416	32952	
2723	0	32632	32870	
2724	0	32734	32903	
2725	0	32916	32880	
2726	0	32864	32559	
2727	0	32924	32766	
2728	0	33060	33031	
2729	0	32884	33287	
2730	0	32944	33196	
2731	0	32808	33068	
2732	0	32756	33064	
2733	0	32820	33074	
2734	0	32882	32998	
2735	0	32940	32758	
2736	0	32986	32736	
2737	0	33008	32656	
2738	0	32896	32716	
2739	0	32672	32455	
2740	0	32576	32465	
2741	0	32794	32344	
2742	0	32748	32298	
2743	0	32740	32262	
2744	0	32688	32294	
2745	0	32744	32636	
2746	0	32828	32644	
2747	0	32872	32516	
2748	0	32908	32702	
2749	0	33104	32772	
2750	0	32868	32696	
2751	0	32784	32775	
2752	0	32818	32572	
2753	0	32703	32358	
2754	0	32748	32334	
2755	0	32528	32519	
2756	0	32584	32890	
2757	0	32532	33030	
2758	0	32702	33196	
2759	0	32892	33074	
2760	0	33192	33278	
2761	0	32930	33184	
2762	0	32790	33183	
2763	0	32770	32848	
2764	0	32764	32802	
2765	0	32888	32686	
2766	0	33040	32871	
2767	0	32994	32618	
2768	0	33044	32616	
2769	0	32808	32914	
2770	0	32524	32887	
2771	0	32650	33120	
2772	0	32722	33188	
2773	0	32832	33146	
2774	0	32738	33102	
2775	0	32940	32882	
2776	0	32904	32900	
2777	0	33088	32921	
2778	0	33438	32798	
2779	0	33312	32792	
2780	0	33106	32324	
2781	0	32426	32402	
2782	0	32418	32342	
2783	0	32450	32190	
2784	0	32346	32188	
2785	0	32212	32396	
2786	0	32480	32218	
2787	0	32762	32107	
2788	0	32800	32706	
2789	0	32858	32774	
2790	0	32788	32758	
2791	0	32740	32954	
2792	0	32816	33014	
2793	0	33198	32788	
2794	0	32872	32622	
2795	0	32686	32752	
2796	0	32944	32738	
2797	0	32834	32774	
2798	0	32630	32834	
2799	0	32588	32790	
2800	0	32620	32839	
2801	0	32372	32512	
2802	0	32598	32470	
2803	0	33158	32982	
2804	0	33164	32956	
2805	0	32968	32572	
2806	0	32796	32580	
2807	0	33032	32828	
2808	0	32830	32936	
2809	0	33108	32842	
2810	0	32720	32994	
2811	0	32512	32995	
2812	0	32578	32900	
2813	0	32716	33070	
2814	0	32856	32962	
2815	0	33100	32775	
2816	0	33382	32924	
2817	0	33254	32982	
2818	0	32994	32804	
2819	0	32964	32766	
2820	0	32808	32817	
2821	0	32772	32544	
2822	0	32662	32654	
2823	0	32868	32768	
2824	0	32834	32608	
2825	0	32740	32719	
2826	0	32606	32478	
2827	0	32464	32150	
2828	0	32384	31915	
2829	0	32676	32247	
2830	0	32924	32824	
2831	0	32960	33338	
2832	0	33002	33646	
2833	0	33048	33608	
2834	0	32944	33612	
2835	0	32892	33556	
2836	0	32777	33616	
2837	0	32884	33622	
2838	0	32690	33018	
2839	0	32752	32272	
2840	0	32728	32194	
2841	0	32878	32276	
2842	0	32852	32286	
2843	0	32784	32335	
2844	0	32876	32542	
2845	0	32476	32638	
2846	0	32632	32416	
2847	0	32782	32428	
2848	0	32796	32544	
2849	0	32984	32862	
2850	0	32758	32844	
2851	0	32782	33271	
2852	0	32684	33348	
2853	0	32696	33287	
2854	0	32584	33170	
2855	0	32656	33108	
2856	0	32892	32898	
2857	0	33120	32404	
2858	0	32852	32150	
2859	0	32902	32166	
2860	0	33212	32062	
2861	0	33048	31908	
2862	0	32828	32244	
2863	0	33072	32604	
2864	0	32740	32430	
2865	0	32552	32382	
2866	0	32552	32340	
2867	0	32780	32644	
2868	0	32836	32806	
2869	0	32689	32936	
2870	0	32712	33054	
2871	0	32820	33016	
2872	0	32866	33334	
2873	0	32918	32426	
2874	0	32844	31952	
2875	0	32900	32263	
2876	0	32844	32532	
2877	0	32978	32262	
2878	0	32944	32151	
2879	0	32778	31822	
2880	0	32474	31868	
2881	0	32788	31878	
2882	0	32808	32582	
2883	0	32440	33724	
2884	0	32372	34062	
2885	0	32968	34132	
2886	0	32900	34656	
2887	0	32808	34336	
2888	0	33194	33854	
2889	0	33548	33671	
2890	0	32928	33844	
2891	0	32944	33026	
2892	0	32854	32654	
2893	0	32943	32111	
2894	0	32664	32240	
2895	0	32472	31494	
2896	0	32578	31528	
2897	0	31988	30830	
2898	0	31878	30994	
2899	0	32252	30383	
2900	0	32378	30727	
2901	0	32736	31588	
2902	0	33164	32276	
2903	0	33244	33770	
2904	0	33282	34710	
2905	0	33414	35157	
2906	0	33352	35304	
2907	0	33094	35384	
2908	0	33344	35330	
2909	0	33700	35194	
2910	0	33848	34862	
2911	0	33076	34040	
2912	0	32770	33406	
2913	0	32564	33027	
2914	0	32488	32900	
2915	0	32092	32870	
2916	0	32278	32244	
2917	0	32270	31524	
2918	0	31836	31492	
2919	0	31396	31384	
2920	0	31494	31655	
2921	0	31900	32208	
2922	0	32456	32588	
2923	0	33538	32631	
2924	0	33764	32476	
2925	0	33440	32402	
2926	0	33258	32583	
2927	0	33002	32640	
2928	0	33056	32770	
2929	0	32940	32356	
2930	0	33368	32040	
2931	0	33432	32252	
2932	0	33234	32226	
2933	0	33112	32363	
2934	0	32916	32848	
2935	0	32688	32895	
2936	0	32616	32182	
2937	0	32660	31408	
2938	0	33032	31214	
2939	0	32900	31186	
2940	0	32910	31618	
2941	0	32702	32087	
2942	0	32302	32691	
2943	0	32384	33070	
2944	0	32574	33686	
2945	0	32652	34004	
2946	0	32692	34116	
2947	0	32786	34272	
2948	0	32476	34266	
2949	0	32844	34280	
2950	0	32902	33128	
2951	0	33514	32202	
2952	0	33312	31982	
2953	0	33324	31674	
2954	0	33462	31578	
2955	0	32932	31970	
2956	0	32760	31830	
2957	0	32416	32135	
2958	0	32260	32720	
2959	0	32292	33452	
2960	0	32682	33846	
2961	0	32624	33136	
2962	0	33092	33514	
2963	0	33448	32886	
2964	0	32980	32158	
2965	0	32870	31962	
2966	0	32620	31732	
2967	0	32278	31860	
2968	0	32944	32647	
2969	0	33126	32599	
2970	0	33290	32258	
2971	0	32788	32966	
2972	0	32300	33906	
2973	0	32092	35160	
2974	0	32034	35264	
2975	0	31960	35500	
2976	0	32074	34512	
2977	0	32380	33346	
2978	0	32740	32263	
2979	0	33132	31982	
2980	0	33394	32134	
2981	0	33242	32146	
2982	0	33290	32122	
2983	0	33140	32456	
2984	0	33944	32518	
2985	0	34144	32500	
2986	0	33792	33202	
2987	0	33448	33914	
2988	0	32648	34668	
2989	0	32860	34743	
2990	0	32506	32912	
2991	0	32258	31544	
2992	0	32110	31232	
2993	0	32950	31398	
2994	0	32048	31143	
2995	0	32108	31623	
2996	0	32244	32464	
2997	0	32840	33016	
2998	0	32654	33352	
2999	0	32816	33422	
3000	0	32438	32870	
3001	0	32440	31736	
3002	0	32544	31692	
3003	0	32676	31951	
3004	0	32524	32228	
3005	0	33090	32092	
3006	0	32824	31780	
3007	0	32592	31879	
3008	0	32494	31834	
3009	0	32540	32369	
3010	0	32618	33316	
3011	0	32928	33346	
3012	0	32576	34136	
3013	0	33024	34346	
3014	0	32876	34524	
3015	0	32804	34342	
3016	0	33088	34044	
3017	0	32920	33610	
3018	0	33246	32920	
3019	0	33086	32366	
3020	0	33537	32204	
3021	0	33096	32056	
3022	0	33082	31456	
3023	0	33260	31441	
3024	0	33276	31812	
3025	0	33012	31940	
3026	0	33730	32156	
3027	0	33284	32098	
3028	0	32688	32336	
3029	0	32172	32452	
3030	0	32164	33313	
3031	0	32416	32732	
3032	0	32870	32436	
3033	0	32612	32602	
3034	0	33044	32898	
3035	0	33198	31718	
3036	0	33120	30706	
3037	0	32712	31260	
3038	0	32212	32038	
3039	0	32768	32240	
3040	0	32572	32828	
3041	0	32462	33114	
3042	0	32662	34010	
3043	0	32288	34406	
3044	0	32156	34634	
3045	0	32908	34844	
3046	0	33068	35374	
3047	0	33088	35271	
3048	0	33168	34588	
3049	0	33448	33814	
3050	0	33068	33628	
3051	0	32804	33016	
3052	0	32900	32704	
3053	0	32920	32318	
3054	0	32734	32442	
3055	0	32232	31962	
3056	0	32688	31175	
3057	0	32858	31250	
3058	0	33194	31493	
3059	0	33918	31488	
3060	0	33688	31624	
3061	0	32572	31279	
3062	0	32272	31268	
3063	0	31828	30468	
3064	0	31928	30382	
3065	0	31880	31032	
3066	0	32448	31474	
3067	0	32776	32126	
3068	0	32060	32900	
3069	0	32376	33606	
3070	0	32744	34484	
3071	0	32836	34794	
3072	0	33284	35076	
3073	0	33422	35298	
3074	0	33608	35318	
3075	0	33828	34874	
3076	0	33008	34496	
3077	0	32774	33910	
3078	0	32436	33406	
3079	0	32460	33104	
3080	0	32690	32528	
3081	0	32534	32858	
3082	0	32648	32508	
3083	0	32568	32734	
3084	0	32628	33172	
3085	0	33380	33372	
3086	0	33520	33558	
3087	0	33280	33334	
3088	0	33250	32428	
3089	0	33312	32130	
3090	0	32832	31252	
3091	0	32548	30382	
3092	0	32914	30671	
3093	0	32912	31495	
3094	0	32664	31690	
3095	0	32756	31288	
3096	0	32524	31990	
3097	0	32562	32852	
3098	0	32748	33543	
3099	0	32714	33774	
3100	0	32358	33336	
3101	0	32130	33415	
3102	0	32500	33543	
3103	0	32704	33132	
3104	0	32670	32871	
3105	0	32976	33040	
3106	0	32912	33268	
3107	0	32916	33238	
3108	0	32699	33364	
3109	0	32692	32734	
3110	0	32532	32074	
3111	0	32632	31599	
3112	0	33036	31271	
3113	0	33276	31146	
3114	0	33124	31719	
3115	0	32694	31899	
3116	0	32776	30983	
3117	0	32632	30830	
3118	0	33136	31758	
3119	0	33440	32231	
3120	0	32760	32580	
3121	0	33098	33000	
3122	0	32456	33351	
3123	0	32418	34300	
3124	0	32884	34820	
3125	0	32940	35228	
3126	0	33178	35562	
3127	0	33340	35326	
3128	0	33113	35008	
3129	0	32716	34296	
3130	0	32672	33196	
3131	0	32644	32263	
3132	0	32536	31558	
3133	0	32668	31966	
3134	0	32480	32214	
3135	0	32490	32472	
3136	0	32652	32584	
3137	0	32846	32767	
3138	0	32746	32704	
3139	0	32836	32970	
3140	0	33004	32558	
3141	0	32984	32514	
3142	0	33024	32425	
3143	0	32900	31624	
3144	0	32848	31577	
3145	0	32814	31616	
3146	0	32760	31760	
3147	0	32764	32100	
3148	0	32940	32388	
3149	0	32890	32260	
3150	0	32904	32103	
3151	0	32618	32320	
3152	0	32730	32646	
3153	0	32682	32844	
3154	0	32505	33498	
3155	0	33100	34242	
3156	0	33486	33788	
3157	0	33276	33248	
3158	0	33092	31544	
3159	0	32712	31376	
3160	0	32704	31166	
3161	0	32324	31126	
3162	0	32588	31367	
3163	0	32553	31812	
3164	0	32592	31702	
3165	0	32720	32024	
3166	0	32804	32476	
3167	0	32888	33200	
3168	0	33310	34572	
3169	0	32812	36144	
3170	0	33108	36830	
3171	0	32624	36775	
3172	0	32872	36536	
3173	0	32768	35239	
3174	0	32585	34300	
3175	0	32572	33764	
3176	0	32318	33374	
3177	0	32578	33002	
3178	0	32936	32590	
3179	0	32700	32692	
3180	0	32540	32240	
3181	0	32500	31968	
3182	0	32714	31674	
3183	0	32448	30708	
3184	0	32456	29498	
3185	0	32732	29590	
3186	0	33324	30054	
3187	0	33744	30332	
3188	0	34296	31111	
3189	0	34370	32406	
3190	0	33792	32924	
3191	0	32836	33210	
3192	0	32116	33764	
3193	0	31964	33846	
3194	0	32312	33804	
3195	0	32996	34216	
3196	0	32866	34151	
3197	0	32698	34183	
3198	0	32512	33910	
3199	0	32746	33750	
3200	0	32718	33244	
3201	0	32516	33384	
3202	0	32488	33049	
3203	0	32330	32770	
3204	0	32236	32372	
3205	0	32068	31098	
3206	0	32326	30428	
3207	0	32804	30640	
3208	0	32744	31020	
3209	0	32462	31254	
3210	0	32662	31878	
3211	0	33189	32288	
3212	0	33418	32508	
3213	0	33252	32448	
3214	0	33388	32431	
3215	0	33106	32172	
3216	0	32832	32561	
3217	0	32753	32654	
3218	0	32860	33124	
3219	0	32960	33870	
3220	0	33030	34308	
3221	0	33164	34488	
3222	0	33092	34524	
3223	0	32836	33886	
3224	0	32846	32994	
3225	0	32852	33052	
3226	0	32746	32564	
3227	0	32582	31910	
3228	0	32344	32014	
3229	0	32484	32486	
3230	0	32720	32368	
3231	0	33060	32188	
3232	0	33328	32170	
3233	0	33172	32526	
3234	0	33048	33084	
3235	0	32946	32856	
3236	0	32628	32846	
3237	0	32570	32902	
3238	0	32592	33122	
3239	0	32764	32870	
3240	0	32792	33206	
3241	0	32848	32816	
3242	0	32864	32856	
3243	0	32816	32775	
3244	0	32742	32374	
3245	0	32770	32262	
3246	0	32928	32298	
3247	0	32740	32100	
3248	0	32954	31988	
3249	0	32768	31758	
3250	0	32440	32434	
3251	0	32604	32280	
3252	0	32760	32642	
3253	0	32911	33920	
3254	0	32880	33466	
3255	0	32836	32913	
3256	0	32888	33442	
3257	0	32772	33454	
3258	0	32652	33414	
3259	0	32654	33782	
3260	0	32668	34102	
3261	0	32864	33983	
3262	0	32888	34544	
3263	0	32780	34836	
3264	0	32964	34372	
3265	0	33334	33706	
3266	0	33192	32156	
3267	0	32920	31509	
3268	0	32456	30832	
3269	0	32456	30844	
3270	0	32708	31022	
3271	0	32760	31286	
3272	0	32496	31188	
3273	0	32300	31852	
3274	0	32356	32207	
3275	0	32480	33159	
3276	0	32622	33066	
3277	0	32624	32804	
3278	0	32582	33002	
3279	0	32706	33566	
3280	0	32642	33602	
3281	0	32814	33500	
3282	0	32946	33426	
3283	0	33046	33700	
3284	0	33544	33786	
3285	0	33774	33868	
3286	0	33592	33626	
3287	0	33120	33368	
3288	0	32640	32990	
3289	0	32352	32446	
3290	0	32376	32231	
3291	0	32376	32118	
3292	0	32380	32035	
3293	0	32592	31902	
3294	0	32716	31879	
3295	0	32676	32111	
3296	0	32654	32551	
3297	0	32596	32798	
3298	0	32498	32622	
3299	0	32216	32746	
3300	0	32132	32636	
3301	0	32184	32164	
3302	0	32336	32452	
3303	0	32568	32382	
3304	0	32740	32064	
3305	0	32864	32299	
3306	0	33012	32390	
3307	0	32976	32614	
3308	0	33026	32842	
3309	0	32952	32846	
3310	0	33008	32839	
3311	0	33066	33000	
3312	0	33072	33099	
3313	0	33064	32993	
3314	0	33184	32903	
3315	0	33208	32564	
3316	0	33206	32538	
3317	0	33380	32702	
3318	0	33336	32938	
3319	0	33100	32978	
3320	0	32980	33120	
3321	0	32900	33000	
3322	0	32980	32644	
3323	0	32918	32312	
3324	0	33046	32492	
3325	0	32920	32917	
3326	0	32856	32788	
3327	0	32628	32716	
3328	0	32640	32252	
3329	0	32568	32222	
3330	0	32498	32228	
3331	0	32580	32154	
3332	0	32928	32336	
3333	0	33200	32554	
3334	0	33242	33010	
3335	0	33264	33768	
3336	0	33056	34068	
3337	0	32824	34215	
3338	0	32784	34350	
3339	0	32778	34462	
3340	0	32772	34499	
3341	0	32616	34304	
3342	0	32696	33970	
3343	0	32680	33532	
3344	0	32548	33436	
3345	0	32634	32913	
3346	0	32636	32112	
3347	0	32730	31508	
3348	0	32768	31336	
3349	0	33120	31304	
3350	0	33240	31710	
3351	0	33212	32164	
3352	0	33377	32906	
3353	0	33202	33368	
3354	0	32920	32748	
3355	0	32698	32442	
3356	0	32932	32702	
3357	0	32812	32196	
3358	0	32476	31712	
3359	0	32394	31942	
3360	0	32266	31989	
3361	0	32366	32020	
3362	0	32636	31920	
3363	0	32682	32246	
3364	0	32676	32840	
3365	0	32704	33526	
3366	0	32678	34128	
3367	0	32992	34372	
3368	0	33024	34156	
3369	0	32972	33810	
3370	0	32912	33597	
3371	0	32750	33543	
3372	0	32528	33296	
3373	0	32682	32686	
3374	0	32738	32519	
3375	0	32904	32106	
3376	0	32916	31704	
3377	0	32846	31860	
3378	0	32892	31220	
3379	0	33180	31444	
3380	0	33080	31818	
3381	0	32992	32286	
3382	0	33058	32366	
3383	0	32984	32198	
3384	0	32816	32634	
3385	0	32672	32646	
3386	0	32656	32516	
3387	0	32720	32871	
3388	0	32588	33116	
3389	0	32548	33430	
3390	0	32656	33698	
3391	0	32736	33670	
3392	0	32696	33958	
3393	0	32608	34160	
3394	0	32756	33676	
3395	0	32906	33248	
3396	0	33188	32666	
3397	0	33140	31860	
3398	0	33028	31398	
3399	0	33112	31382	
3400	0	33008	31540	
3401	0	32880	31733	
3402	0	32606	31980	
3403	0	32500	32278	
3404	0	32472	32135	
3405	0	32556	32524	
3406	0	32536	32692	
3407	0	32640	32990	
3408	0	32728	33252	
3409	0	32868	33244	
3410	0	33080	33140	
3411	0	33474	33198	
3412	0	32994	33538	
3413	0	32860	33660	
3414	0	32730	33542	
3415	0	32650	33050	
3416	0	32762	32980	
3417	0	32702	32516	
3418	0	32576	32358	
3419	0	32608	32466	
3420	0	32772	32796	
3421	0	32908	32892	
3422	0	32980	32879	
3423	0	32988	33264	
3424	0	32916	33320	
3425	0	32990	33248	
3426	0	32856	32825	
3427	0	32746	32604	
3428	0	32808	32350	
3429	0	32800	32399	
3430	0	32740	32660	
3431	0	32736	32712	
3432	0	32718	32806	
3433	0	32716	32998	
3434	0	32836	33204	
3435	0	32900	32986	
3436	0	32998	33080	
3437	0	33048	32410	
3438	0	32892	32092	
3439	0	32948	32006	
3440	0	32952	32212	
3441	0	32724	32498	
3442	0	32736	32409	
3443	0	32672	32423	
3444	0	32600	32691	
3445	0	32610	33170	
3446	0	32676	33460	
3447	0	32636	33758	
3448	0	32612	33706	
3449	0	32754	33702	
3450	0	32846	33692	
3451	0	32844	33511	
3452	0	32932	33031	
3453	0	32772	32914	
3454	0	32746	32674	
3455	0	32684	32384	
3456	0	32700	32374	
3457	0	32892	32372	
3458	0	32770	32372	
3459	0	32652	32568	
3460	0	32842	32396	
3461	0	32796	32560	
3462	0	32970	32938	
3463	0	33008	33126	
3464	0	33048	33152	
3465	0	32984	32964	
3466	0	32748	32954	
3467	0	32692	33079	
3468	0	32628	33003	
3469	0	32592	32615	
3470	0	32730	32558	
3471	0	32754	32536	
3472	0	32552	32538	
3473	0	32592	32602	
3474	0	32688	32391	
3475	0	32744	32358	
3476	0	32834	32199	
3477	0	32872	31930	
3478	0	32834	32039	
3479	0	32716	32519	
3480	0	32528	32615	
3481	0	32578	32653	
3482	0	32612	32564	
3483	0	32624	32732	
3484	0	32836	32870	
3485	0	32828	33039	
3486	0	32758	32908	
3487	0	32820	33040	
3488	0	32944	32849	
3489	0	33032	32807	
3490	0	33024	32812	
3491	0	32848	32966	
3492	0	32840	33016	
3493	0	32818	32824	
3494	0	32944	32774	
3495	0	32868	32567	
3496	0	32960	32486	
3497	0	32900	32710	
3498	0	32880	32713	
3499	0	32808	32692	
3500	0	32916	32630	
3501	0	32610	32676	
3502	0	32636	32838	
3503	0	32988	32950	
3504	0	32964	32806	
3505	0	32964	32740	
3506	0	33026	32606	
3507	0	33108	32462	
3508	0	33000	32306	
3509	0	33016	32320	
3510	0	32894	32746	
3511	0	32896	33014	
3512	0	32764	33444	
3513	0	32704	33486	
3514	0	32760	33314	
3515	0	32636	33020	
3516	0	32604	32660	
3517	0	32564	32390	
3518	0	32704	32630	
3519	0	32882	32788	
3520	0	32852	32594	
3521	0	32864	32828	
3522	0	32794	33056	
3523	0	32692	32960	
3524	0	32660	33243	
3525	0	32760	33262	
3526	0	32702	33162	
3527	0	32760	32902	
3528	0	32676	32774	
3529	0	32848	32644	
3530	0	32810	32528	
3531	0	32952	32418	
3532	0	32864	32713	
3533	0	32670	32538	
3534	0	32600	32368	
3535	0	32666	32490	
3536	0	32700	32464	
3537	0	32694	32624	
3538	0	32776	32494	
3539	0	32884	32519	
3540	0	32808	32764	
3541	0	32868	32696	
3542	0	32878	32606	
3543	0	32800	32519	
3544	0	32820	32470	
3545	0	32708	32828	
3546	0	32760	33106	
3547	0	32802	33114	
3548	0	32832	32926	
3549	0	32868	32676	
3550	0	32852	32694	
3551	0	32876	32954	
3552	0	32780	33098	
3553	0	32894	33098	
3554	0	32852	33102	
3555	0	32836	32866	
3556	0	32768	32742	
3557	0	32752	32636	
3558	0	32824	32734	
3559	0	32896	32519	
3560	0	32964	32454	
3561	0	32928	32531	
3562	0	32844	32591	
3563	0	32800	32508	
3564	0	32784	32656	
3565	0	32712	32798	
3566	0	32748	32736	
3567	0	32920	32794	
3568	0	32824	32820	
3569	0	32692	33000	
3570	0	32944	33042	
3571	0	32960	32948	
3572	0	32972	32895	
3573	0	32918	32710	
3574	0	32850	32663	
3575	0	32834	32878	
3576	0	32680	32871	
3577	0	32520	32840	
3578	0	32704	32848	
3579	0	32808	32775	
3580	0	32872	32854	
3581	0	32948	32850	
3582	0	32960	32967	
3583	0	32928	32816	
3584	0	32888	32775	
3585	0	32898	32886	
3586	0	33010	32692	
3587	0	32984	32519	
3588	0	32892	32560	
3589	0	32908	32503	
3590	0	32804	32568	
3591	0	32796	32730	
3592	0	32684	32764	
3593	0	32676	32775	
3594	0	32652	32878	
3595	0	32716	32826	
3596	0	32726	32956	
3597	0	32664	32860	
3598	0	32832	32702	
3599	0	32920	32474	
3600	0	32904	32551	
3601	0	32852	32718	
3602	0	32804	32474	
3603	0	32756	32486	
3604	0	32628	32642	
3605	0	32778	32628	
3606	0	32780	32775	
3607	0	32876	32804	
3608	0	33032	32647	
3609	0	32984	32816	
3610	0	32856	32700	
3611	0	32896	33046	
3612	0	32784	33166	
3613	0	32856	33031	
3614	0	32794	33286	
3615	0	32794	33454	
3616	0	32752	33506	
3617	0	32808	33324	
3618	0	32868	33106	
3619	0	32976	33020	
3620	0	33014	32714	
3621	0	32956	32582	
3622	0	32882	32368	
3623	0	32860	32342	
3624	0	32846	32208	
3625	0	32756	32215	
3626	0	32852	32121	
3627	0	32824	32414	
3628	0	32794	32610	
3629	0	32744	32676	
3630	0	32836	32716	
3631	0	32800	32770	
3632	0	32788	32596	
3633	0	32746	32775	
3634	0	32736	32775	
3635	0	32812	32839	
3636	0	32822	32791	
3637	0	32782	32840	
3638	0	32884	32985	
3639	0	32964	33031	
3640	0	32844	32871	
3641	0	32868	32810	
3642	0	32768	32644	
3643	0	32784	32732	
3644	0	32698	32718	
3645	0	32662	32702	
3646	0	32728	32775	
3647	0	32820	32722	
3648	0	32706	32749	
3649	0	32824	32750	
3650	0	32784	32814	
3651	0	32864	33007	
3652	0	32896	33038	
3653	0	32780	33156	
3654	0	32796	33166	
3655	0	32840	33098	
3656	0	32884	33022	
3657	0	32876	32870	
3658	0	32864	32738	
3659	0	32896	32608	
3660	0	32812	32519	
3661	0	32940	32583	
3662	0	32844	32456	
3663	0	32760	32700	
3664	0	32808	32722	
3665	0	32832	32772	
3666	0	32836	32840	
3667	0	32786	32775	
3668	0	32880	32806	
3669	0	32840	32822	
3670	0	32744	32564	
3671	0	32704	32612	
3672	0	32664	32770	
3673	0	32612	32775	
3674	0	32632	32714	
3675	0	32628	32775	
3676	0	32848	32590	
3677	0	32885	32730	
3678	0	32912	32564	
3679	0	32764	32583	
3680	0	32828	32682	
3681	0	32894	32693	
3682	0	32868	32878	
3683	0	32782	33052	
3684	0	32770	33180	
3685	0	32696	33276	
3686	0	32732	33086	
3687	0	32804	32932	
3688	0	32834	32890	
3689	0	32880	32871	
3690	0	32912	32748	
3691	0	32854	32732	
3692	0	32844	32647	
3693	0	32884	32348	
3694	0	32828	32412	
3695	0	32774	32519	
3696	0	32748	32488	
3697	0	32730	32512	
3698	0	32656	32460	
3699	0	32769	32372	
3700	0	32784	32398	
3701	0	32732	32720	
3702	0	32684	32836	
3703	0	32848	32994	
3704	0	32844	32896	
3705	0	32772	32990	
3706	0	32702	33076	
3707	0	32728	32894	
3708	0	32738	32746	
3709	0	32816	32740	
3710	0	32788	32726	
3711	0	32874	32808	
3712	0	32948	32808	
3713	0	32922	32640	
3714	0	32948	32608	
3715	0	32920	32488	
3716	0	32870	32476	
3717	0	32950	32526	
3718	0	32884	32728	
3719	0	32886	32834	
3720	0	32772	32600	
3721	0	32824	32654	
3722	0	32784	32775	
3723	0	32736	32847	
3724	0	32764	32839	
3725	0	32822	33088	
3726	0	32832	33166	
3727	0	32856	32960	
3728	0	32798	33026	
3729	0	32870	32903	
3730	0	32808	32720	
3731	0	32812	32814	
3732	0	32828	32760	
3733	0	32714	32719	
3734	0	32850	32528	
3735	0	32860	32574	
3736	0	32760	32546	
3737	0	32796	32551	
3738	0	32886	32698	
3739	0	32864	32712	
3740	0	32812	32692	
3741	0	32856	32884	
3742	0	32764	32884	
3743	0	32736	32935	
3744	0	32796	32940	
3745	0	32852	32716	
3746	0	32750	32844	
3747	0	32816	32586	
3748	0	32868	32673	
3749	0	32896	32642	
3750	0	32844	32644	
3751	0	32832	32752	
3752	0	32850	32732	
3753	0	32796	32722	
3754	0	32868	32775	
3755	0	32776	32758	
3756	0	32732	32791	
3757	0	32760	32848	
3758	0	32778	32750	
3759	0	32800	32692	
3760	0	32724	32664	
3761	0	32712	32604	
3762	0	32704	32668	
3763	0	32736	32788	
3764	0	32728	32820	
3765	0	32744	32910	
3766	0	32776	33010	
3767	0	32808	32918	
3768	0	32788	32896	
3769	0	32884	32716	
3770	0	32820	32868	
3771	0	32892	32721	
3772	0	32950	32714	
3773	0	32878	32672	
3774	0	32850	32794	
3775	0	32880	32772	
3776	0	32772	32839	
3777	0	32828	32714	
3778	0	32748	32916	
3779	0	32886	32876	
3780	0	32842	32981	
3781	0	32752	32862	
3782	0	32824	32942	
3783	0	32824	32900	
3784	0	32828	32825	
3785	0	32768	32720	
3786	0	32708	32693	
3787	0	32754	32662	
3788	0	32884	32769	
3789	0	32816	32694	
3790	0	32748	32798	
3791	0	32774	32698	
3792	0	32824	32668	
3793	0	32816	32812	
3794	0	32846	32740	
3795	0	32864	32758	
3796	0	32920	32807	
3797	0	32820	32711	
3798	0	32794	32696	
3799	0	32818	32802	
3800	0	32752	32990	
3801	0	32724	33488	
3802	0	32768	33263	
3803	0	32666	32972	
3804	0	32700	32814	
3805	0	32784	32662	
3806	0	32748	32642	
3807	0	32774	32582	
3808	0	32712	32466	
3809	0	32728	32490	
3810	0	32706	32647	
3811	0	32729	32476	
3812	0	32744	32470	
3813	0	32716	32504	
3814	0	32744	32628	
3815	0	32838	32580	
3816	0	32902	32750	
3817	0	32948	32832	
3818	0	33058	32662	
3819	0	33026	32602	
3820	0	33112	32724	
3821	0	33064	32823	
3822	0	32928	32728	
3823	0	33020	32752	
3824	0	32906	32908	
3825	0	32924	32839	
3826	0	32910	32918	
3827	0	32932	32804	
3828	0	32900	32748	
3829	0	32936	32754	
3830	0	32885	32766	
3831	0	32888	32732	
3832	0	32876	32686	
3833	0	32924	32793	
3834	0	32822	32799	
3835	0	32744	32807	
3836	0	32780	32884	
3837	0	32724	32930	
3838	0	32754	32772	
3839	0	32676	32695	
3840	0	32636	32775	
3841	0	32620	32802	
3842	0	32660	32836	
3843	0	32648	32620	
3844	0	32656	32708	
3845	0	32564	32750	
3846	0	32654	32830	
3847	0	32656	32852	
3848	0	32672	32714	
3849	0	32680	32724	
3850	0	32668	32798	
3851	0	32724	32868	
3852	0	32732	32826	
3853	0	32832	32790	
3854	0	32782	32734	
3855	0	32838	32886	
3856	0	32812	32900	
3857	0	32870	32908	
3858	0	32860	32794	
3859	0	32906	32855	
3860	0	32890	32748	
3861	0	32846	32708	
3862	0	32914	32792	
3863	0	32860	32794	
3864	0	32892	32759	
3865	0	32852	32738	
3866	0	32796	32684	
3867	0	32904	32820	
3868	0	32916	32817	
3869	0	32896	32775	
3870	0	32868	32855	
3871	0	32888	32682	
3872	0	32868	32644	
3873	0	32824	32788	
3874	0	32768	32810	
3875	0	32804	32804	
3876	0	32772	32775	
3877	0	32800	32742	
3878	0	32772	32732	
3879	0	32984	32828	
3880	0	32864	32764	
3881	0	32866	32798	
3882	0	32948	32758	
3883	0	32952	32711	
3884	0	32892	32732	
3885	0	32768	32912	
3886	0	32892	32866	
3887	0	32852	32798	
3888	0	32766	32775	
3889	0	32728	32663	
3890	0	32852	32676	
3891	0	32806	32792	
3892	0	32816	32772	
3893	0	32772	32799	
3894	0	32666	32774	
3895	0	32748	32628	
3896	0	32754	32750	
3897	0	32752	32772	
3898	0	32754	32810	
3899	0	32696	32742	
3900	0	32664	32806	
3901	0	32760	32775	
3902	0	32780	32708	
3903	0	32808	32764	
3904	0	32872	32711	
3905	0	32868	32696	
3906	0	32874	32756	
3907	0	32754	32706	
3908	0	32776	32710	
3909	0	32798	32770	
3910	0	32798	32871	
3911	0	32786	32814	
3912	0	32820	32790	
3913	0	32764	32774	
3914	0	32768	32750	
3915	0	32728	32686	
3916	0	32776	32796	
3917	0	32862	32830	
3918	0	32924	32810	
3919	0	32880	32720	
3920	0	32870	32814	
3921	0	32858	32728	
3922	0	32886	32729	
3923	0	32848	32850	
3924	0	32860	32726	
3925	0	32928	32754	
3926	0	32880	32711	
3927	0	32832	32703	
3928	0	32800	32751	
3929	0	32692	32770	
3930	0	32788	32812	
3931	0	32752	32852	
3932	0	32752	32666	
3933	0	32800	32623	
3934	0	32808	32590	
3935	0	32856	32639	
3936	0	32828	32796	
3937	0	32756	32938	
3938	0	32690	32902	
3939	0	32804	32852	
3940	0	32778	32854	
3941	0	32906	32679	
3942	0	32884	32728	
3943	0	32842	32927	
3944	0	32848	32775	
3945	0	32912	32682	
3946	0	32960	32758	
3947	0	33046	32888	
3948	0	33002	32848	
3949	0	33008	32862	
3950	0	32952	32814	
3951	0	32828	32852	
3952	0	32782	32948	
3953	0	32772	32850	
3954	0	32652	32878	
3955	0	32644	32788	
3956	0	32590	32519	
3957	0	32761	32578	
3958	0	32744	32775	
3959	0	32724	32722	
3960	0	32696	32630	
3961	0	32844	32378	
3962	0	32880	32423	
3963	0	32846	32736	
3964	0	32776	32940	
3965	0	32746	33028	
3966	0	32816	33038	
3967	0	32817	32990	
3968	0	32808	33072	
3969	0	32852	32958	
3970	0	32796	32839	
3971	0	32898	32836	
3972	0	32860	32872	
3973	0	32872	32898	
3974	0	32850	32818	
3975	0	32904	32570	
3976	0	32880	32702	
3977	0	32860	32630	
3978	0	32844	32756	
3979	0	32938	32662	
3980	0	32858	32588	
3981	0	32872	32570	
3982	0	32880	32722	
3983	0	32716	32604	
3984	0	32796	32726	
3985	0	32780	32808	
3986	0	32832	32750	
3987	0	32800	32740	
3988	0	32836	32724	
3989	0	32824	32772	
3990	0	32836	32842	
3991	0	32780	32744	
3992	0	32804	32740	
3993	0	32844	32898	
3994	0	32860	32808	
3995	0	32796	32803	
3996	0	32782	32646	
3997	0	32785	32876	
3998	0	32772	32794	
3999	0	32768	32806	
4000	0	32896	32636	
4001	0	32838	32775	
4002	0	32836	32684	
4003	0	32900	32630	
4004	0	32832	32692	
4005	0	32920	32720	
4006	0	32844	32756	
4007	0	32792	32550	
4008	0	32836	32748	
4009	0	32896	32748	
4010	0	32834	32838	
4011	0	32848	32636	
4012	0	32770	32734	
4013	0	32762	32766	
4014	0	32820	32647	
4015	0	32764	32798	
4016	0	32788	32784	
4017	0	32820	32754	
4018	0	32824	32774	
4019	0	32808	32774	
4020	0	32824	32846	
4021	0	32828	32762	
4022	0	32904	32932	
4023	0	32820	32842	
4024	0	32852	32895	
4025	0	32800	32790	
4026	0	32736	32812	
4027	0	32824	32912	
4028	0	32843	32720	
4029	0	32800	32872	
4030	0	32830	32724	
4031	0	32772	32642	
4032	0	32748	32724	
4033	0	32796	32748	
4034	0	32758	32727	
4035	0	32756	32670	
4036	0	32752	32651	
4037	0	32752	32823	
4038	0	32714	32815	
4039	0	32786	32672	
4040	0	32780	32706	
4041	0	32764	32796	
4042	0	32800	32799	
4043	0	32924	32766	
4044	0	32906	32688	
4045	0	32884	32708	
4046	0	32808	32814	
4047	0	32846	32660	
4048	0	32808	32805	
4049	0	32780	32756	
4050	0	32740	32612	
4051	0	32702	32752	
4052	0	32804	32652	
4053	0	32764	32759	
4054	0	32772	32700	
4055	0	32846	32842	
4056	0	32776	32775	
4057	0	32764	32748	
4058	0	32788	32784	
4059	0	32800	32871	
4060	0	32906	32724	
4061	0	32784	32748	
4062	0	32814	32734	
4063	0	32820	32725	
4064	0	32804	32756	
4065	0	32796	32738	
4066	0	32822	32842	
4067	0	32778	32902	
4068	0	32856	32844	
4069	0	32826	32870	
4070	0	32786	32678	
4071	0	32824	32732	
4072	0	32786	32806	
4073	0	32864	32775	
4074	0	32782	32798	
4075	0	32774	32746	
4076	0	32822	32772	
4077	0	32822	32817	
4078	0	32846	32636	
4079	0	32830	32696	
4080	0	32850	32708	
4081	0	32792	32820	
4082	0	32868	32810	
4083	0	32784	32892	
4084	0	32836	32738	
4085	0	32780	32871	
4086	0	32832	32858	
4087	0	32852	32774	
4088	0	32792	32804	
4089	0	32852	32729	
4090	0	32832	32748	
4091	0	32846	32775	
4092	0	32800	32775	
4093	0	32810	32752	
4094	0	32796	32821	
4095	0	32800	32820	
4096	0	32822	32844	
4097	0	32852	32775	
4098	0	32876	32654	
4099	0	32880	32568	
4100	0	32900	32602	
4101	0	32784	32772	
4102	0	32894	32774	
4103	0	32780	32896	
4104	0	32780	32724	
4105	0	32820	32712	
4106	0	32802	32804	
4107	0	32815	32832	
4108	0	32844	32814	
4109	0	32856	32679	
4110	0	32770	32647	
4111	0	32812	32854	
4112	0	32756	32690	
4113	0	32784	32820	
4114	0	32768	32710	
4115	0	32772	32775	
4116	0	32788	32817	
4117	0	32768	32816	
4118	0	32836	32718	
4119	0	32784	32884	
4120	0	32792	32887	
4121	0	32778	32831	
4122	0	32784	32798	
4123	0	32828	32686	
4124	0	32808	32742	
4125	0	32808	32775	
4126	0	32788	32812	
4127	0	32810	32836	
4128	0	32836	32735	
4129	0	32780	32720	
4130	0	32852	32878	
4131	0	32794	32792	
4132	0	32780	32821	
4133	0	32716	32770	
4134	0	32772	32775	
4135	0	32833	32838	
4136	0	32856	32820	
4137	0	32820	32838	
4138	0	32776	32680	
4139	0	32781	32756	
4140	0	32806	32666	
4141	0	32900	32775	
4142	0	32864	32756	
4143	0	32889	32784	
4144	0	32796	32682	
4145	0	32740	32664	
4146	0	32834	32736	
4147	0	32832	32714	
4148	0	32868	32812	
4149	0	32804	32702	
4150	0	32772	32698	
4151	0	32908	32950	
4152	0	32824	32806	
4153	0	32832	32884	
4154	0	32801	32728	
4155	0	32872	32766	
4156	0	32816	32775	
4157	0	32862	32834	
4158	0	32922	32787	
4159	0	32928	32802	
4160	0	32878	32879	
4161	0	32936	32935	
4162	0	32904	32926	
4163	0	32924	32814	
4164	0	32836	32852	
4165	0	32806	32727	
4166	0	32794	32823	
4167	0	32756	32598	
4168	0	32604	32502	
4169	0	32638	32582	
4170	0	32608	32386	
4171	0	32600	32304	
4172	0	32588	32192	
4173	0	32572	32340	
4174	0	32616	32420	
4175	0	32676	32511	
4176	0	32740	32583	
4177	0	32778	32775	
4178	0	32834	32814	
4179	0	32788	32894	
4180	0	32828	32898	
4181	0	32852	32769	
4182	0	32858	32820	
4183	0	32830	32884	
4184	0	32844	32820	
4185	0	32912	32852	
4186	0	32868	32822	
4187	0	32916	32820	
4188	0	32868	32874	
4189	0	32868	32810	
4190	0	32866	32974	
4191	0	32852	32980	
4192	0	32854	32818	
4193	0	32858	32876	
4194	0	32958	32774	
4195	0	32896	32753	
4196	0	32824	32864	
4197	0	32832	32775	
4198	0	32872	32772	
4199	0	32808	32759	
4200	0	32834	32678	
4201	0	32800	32807	
4202	0	32810	32728	
4203	0	32788	32842	
4204	0	32804	32836	
4205	0	32814	32728	
4206	0	32784	32812	
4207	0	32748	32734	
4208	0	32780	32752	
4209	0	32858	32804	
4210	0	32824	32712	
4211	0	32832	32844	
4212	0	32764	32864	
4213	0	32824	32700	
4214	0	32848	32770	
4215	0	32848	32746	
4216	0	32816	32823	
4217	0	32804	32930	
4218	0	32824	32714	
4219	0	32830	32740	
4220	0	32794	32764	
4221	0	32844	32775	
4222	0	32808	32814	
4223	0	32808	32680	
4224	0	32812	32766	
4225	0	32792	32794	
4226	0	32784	32854	
4227	0	32824	32828	
4228	0	32838	32740	
4229	0	32808	32840	
4230	0	32864	32895	
4231	0	32720	32728	
4232	0	32792	32855	
4233	0	32790	32708	
4234	0	32808	32798	
4235	0	32866	32788	
4236	0	32804	32853	
4237	0	32826	32902	
4238	0	32870	32854	
4239	0	32800	32734	
4240	0	32800	32794	
4241	0	32894	32750	
4242	0	32852	32710	
4243	0	32822	32802	
4244	0	32814	32740	
4245	0	32845	32704	
4246	0	32788	32810	
4247	0	32848	32688	
4248	0	32768	32722	
4249	0	32810	32663	
4250	0	32830	32706	
4251	0	32798	32730	
4252	0	32822	32758	
4253	0	32824	32668	
4254	0	32780	32736	
4255	0	32788	32692	
4256	0	32800	32756	
4257	0	32860	32766	
4258	0	32868	32690	
4259	0	32824	32814	
4260	0	32862	32744	
4261	0	32832	32650	
4262	0	32794	32790	
4263	0	32808	32800	
4264	0	32800	32712	
4265	0	32764	32736	
4266	0	32852	32724	
4267	0	32808	32821	
4268	0	32844	32756	
4269	0	32848	32866	
4270	0	32828	32792	
4271	0	32840	32775	
4272	0	32777	32767	
4273	0	32816	32818	
4274	0	32784	32614	
4275	0	32832	32788	
4276	0	32800	32702	
4277	0	32820	32872	
4278	0	32792	32652	
4279	0	32796	32871	
4280	0	32836	32858	
4281	0	32838	32903	
4282	0	32834	32752	
4283	0	32820	32830	
4284	0	32812	32814	
4285	0	32784	32900	
4286	0	32788	32700	
4287	0	32782	32764	
4288	0	32788	32775	
4289	0	32865	32665	
4290	0	32796	32812	
4291	0	32768	32688	
4292	0	32838	32775	
4293	0	32856	32808	
4294	0	32800	32775	
4295	0	32744	32708	
4296	0	32800	32636	
4297	0	32896	32732	
4298	0	32800	32768	
4299	0	32840	32903	
4300	0	32804	32734	
4301	0	32880	32866	
4302	0	32834	32786	
4303	0	32814	32628	
4304	0	32744	32698	
4305	0	32813	32708	
4306	0	32840	32764	
4307	0	32808	32695	
4308	0	32856	32847	
4309	0	32822	32608	
4310	0	32764	32724	
4311	0	32804	32682	
4312	0	32860	32794	
4313	0	32832	32664	
4314	0	32844	32844	
4315	0	32808	32772	
4316	0	32804	32774	
4317	0	32776	32743	
4318	0	32804	32775	
4319	0	32840	32788	
4320	0	32822	32788	
4321	0	32780	32698	
4322	0	32768	32688	
4323	0	32794	32806	
4324	0	32822	32728	
4325	0	32832	32696	
4326	0	32828	32730	
4327	0	32810	32674	
4328	0	32776	32834	
4329	0	32800	32688	
4330	0	32868	32804	
4331	0	32836	32772	
4332	0	32868	32770	
4333	0	32768	32660	
4334	0	32844	32710	
4335	0	32806	32898	
4336	0	32772	32886	
4337	0	32842	32900	
4338	0	32834	32742	
4339	0	32772	32750	
4340	0	32864	32900	
4341	0	32820	32758	
4342	0	32858	32808	
4343	0	32842	32775	
4344	0	32800	32850	
4345	0	32804	32712	
4346	0	32792	32832	
4347	0	32785	32740	
4348	0	32766	32714	
4349	0	32878	32772	
4350	0	32860	32800	
4351	0	32810	32848	
4352	0	32830	32731	
4353	0	32780	32774	
4354	0	32802	32879	
4355	0	32826	32816	
4356	0	32840	32746	
4357	0	32824	32647	
4358	0	32820	32884	
4359	0	32804	32705	
4360	0	32816	32870	
4361	0	32864	32748	
4362	0	32824	32728	
4363	0	32832	32756	
4364	0	32862	32796	
4365	0	32832	32823	
4366	0	32812	32762	
4367	0	32828	32708	
4368	0	32800	32802	
4369	0	32800	32762	
4370	0	32804	32850	
4371	0	32850	32713	
4372	0	32800	32601	
4373	0	32812	32752	
4374	0	32800	32730	
4375	0	32812	32702	
4376	0	32858	32810	
4377	0	32828	32738	
4378	0	32756	32815	
4379	0	32820	32775	
4380	0	32800	32752	
4381	0	32848	32724	
4382	0	32780	32759	
4383	0	32784	32806	
4384	0	32784	32799	
4385	0	32824	32744	
4386	0	32826	32682	
4387	0	32784	32832	
4388	0	32836	32766	
4389	0	32796	32858	
4390	0	32840	32710	
4391	0	32814	32612	
4392	0	32754	32743	
4393	0	32856	32766	
4394	0	32756	32716	
4395	0	32784	32606	
4396	0	32776	32808	
4397	0	32807	32854	
4398	0	32748	32850	
4399	0	32832	32810	
4400	0	32852	32727	
4401	0	32845	32800	
4402	0	32790	32823	
4403	0	32838	32792	
4404	0	32740	32764	
4405	0	32816	32822	
4406	0	32804	32736	
4407	0	32768	32647	
4408	0	32808	32616	
4409	0	32772	32666	
4410	0	32802	32688	
4411	0	32866	32686	
4412	0	32804	32746	
4413	0	32788	32636	
4414	0	32836	32775	
4415	0	32752	32838	
4416	0	32840	32800	
4417	0	32868	32832	
4418	0	32852	32752	
4419	0	32816	32870	
4420	0	32796	32860	
4421	0	32821	32844	
4422	0	32842	32682	
4423	0	32776	32660	
4424	0	32828	32742	
4425	0	32812	32726	
4426	0	32796	32823	
4427	0	32826	32666	
4428	0	32814	32580	
4429	0	32852	32732	
4430	0	32780	32676	
4431	0	32844	32703	
4432	0	32810	32662	
4433	0	32746	32660	
4434	0	32800	32772	
4435	0	32746	32743	
4436	0	32753	32727	
4437	0	32776	32702	
4438	0	32848	32822	
4439	0	32848	32848	
4440	0	32844	32844	
4441	0	32800	32894	
4442	0	32772	32752	
4443	0	32752	32912	
4444	0	32814	32903	
4445	0	32800	32810	
4446	0	32852	32775	
4447	0	32900	32775	
4448	0	32796	32816	
4449	0	32792	32842	
4450	0	32836	32799	
4451	0	32856	32824	
4452	0	32818	32806	
4453	0	32776	32868	
4454	0	32784	32724	
4455	0	32784	32804	
4456	0	32810	32791	
4457	0	32872	32803	
4458	0	32812	32644	
4459	0	32828	32723	
4460	0	32884	32646	
4461	0	32824	32819	
4462	0	32870	32658	
4463	0	32768	32799	
4464	0	32768	32728	
4465	0	32822	32794	
4466	0	32774	32746	
4467	0	32792	32871	
4468	0	32844	32852	
4469	0	32760	32798	
4470	0	32778	32799	
4471	0	32804	32814	
4472	0	32840	32878	
4473	0	32800	32804	
4474	0	32858	32916	
4475	0	32808	32816	
4476	0	32808	32807	
4477	0	32838	32759	
4478	0	32878	32798	
4479	0	32838	32804	
4480	0	32798	32700	
4481	0	32768	32814	
4482	0	32800	32746	
4483	0	32844	32719	
4484	0	32852	32676	
4485	0	32808	32834	
4486	0	32836	32846	
4487	0	32780	32775	
4488	0	32800	32692	
4489	0	32788	32775	
4490	0	32788	32711	
4491	0	32820	32823	
4492	0	32834	32690	
4493	0	32804	32774	
4494	0	32740	32762	
4495	0	32788	32736	
4496	0	32852	32678	
4497	0	32830	32834	
4498	0	32796	32798	
4499	0	32818	32678	
4500	0	32816	32794	
4501	0	32810	32839	
4502	0	32864	32768	
4503	0	32780	32775	
4504	0	32788	32762	
4505	0	32824	32703	
4506	0	32853	32878	
4507	0	32800	32750	
4508	0	32794	32584	
4509	0	32746	32775	
4510	0	32822	32822	
4511	0	32853	32676	
4512	0	32884	32716	
4513	0	32820	32764	
4514	0	32860	32724	
4515	0	32796	32732	
4516	0	32796	32766	
4517	0	32828	32696	
4518	0	32826	32692	
4519	0	32802	32638	
4520	0	32820	32802	
4521	0	32796	32762	
4522	0	32888	32852	
4523	0	32832	32775	
4524	0	32784	32762	
4525	0	32816	32691	
4526	0	32770	32840	
4527	0	32760	32794	
4528	0	32780	32724	
4529	0	32770	32770	
4530	0	32828	32790	
4531	0	32796	32808	
4532	0	32768	32634	
4533	0	32798	32807	
4534	0	32852	32760	
4535	0	32774	32766	
4536	0	32868	32858	
4537	0	32856	32769	
4538	0	32756	32760	
4539	0	32840	32742	
4540	0	32848	32863	
4541	0	32844	32860	
4542	0	32872	32948	
4543	0	32820	32708	
4544	0	32734	32772	
4545	0	32792	32766	
4546	0	32804	32760	
4547	0	32860	32775	
4548	0	32780	32768	
4549	0	32784	32810	
4550	0	32800	32920	
4551	0	32820	32740	
4552	0	32784	32759	
4553	0	32868	32775	
4554	0	32764	32823	
4555	0	32808	32716	
4556	0	32856	32696	
4557	0	32780	32792	
4558	0	32814	32746	
4559	0	32780	32775	
4560	0	32760	32647	
4561	0	32848	32786	
4562	0	32768	32775	
4563	0	32808	32666	
4564	0	32828	32656	
4565	0	32816	32862	
4566	0	32792	32880	
4567	0	32844	32740	
4568	0	32816	32775	
4569	0	32798	32798	
4570	0	32824	32647	
4571	0	32808	32740	
4572	0	32864	32886	
4573	0	32838	32766	
4574	0	32808	32884	
4575	0	32804	32756	
4576	0	32826	32828	
4577	0	32778	32824	
4578	0	32728	32835	
4579	0	32820	32680	
4580	0	32856	32796	
4581	0	32820	32760	
4582	0	32804	32810	
4583	0	32812	32616	
4584	0	32816	32640	
4585	0	32744	32708	
4586	0	32806	32622	
4587	0	32864	32728	
4588	0	32808	32551	
4589	0	32804	32688	
4590	0	32816	32704	
4591	0	32828	32732	
4592	0	32798	32680	
4593	0	32786	32644	
4594	0	32796	32758	
4595	0	32760	32710	
4596	0	32780	32775	
4597	0	32798	32647	
4598	0	32756	32760	
4599	0	32776	32615	
4600	0	32796	32710	
4601	0	32824	32567	
4602	0	32808	32775	
4603	0	32842	32790	
4604	0	32816	32775	
4605	0	32828	32791	
4606	0	32804	32792	
4607	0	32832	32732	
4608	0	32804	32918	
4609	0	32775	32870	
4610	0	32814	32984	
4611	0	32770	32807	
4612	0	32792	32770	
4613	0	32808	32886	
4614	0	32838	32788	
4615	0	32796	32788	
4616	0	32834	32826	
4617	0	32856	32752	
4618	0	32804	32732	
4619	0	32840	32774	
4620	0	32812	32864	
4621	0	32816	32872	
4622	0	32842	32862	
4623	0	32804	32884	
4624	0	32796	32717	
4625	0	32817	32699	
4626	0	32834	32748	
4627	0	32808	32699	
4628	0	32772	32743	
4629	0	32792	32826	
4630	0	32772	32638	
4631	0	32830	32726	
4632	0	32824	32862	
4633	0	32788	32775	
4634	0	32820	32775	
4635	0	32816	32862	
4636	0	32844	32727	
4637	0	32810	32774	
4638	0	32752	32775	
4639	0	32808	32711	
4640	0	32874	32760	
4641	0	32772	32726	
4642	0	32848	32736	
4643	0	32812	32738	
4644	0	32766	32772	
4645	0	32784	32816	
4646	0	32857	32898	
4647	0	32816	32732	
4648	0	32738	32696	
4649	0	32826	32780	
4650	0	32852	32772	
4651	0	32802	32830	
4652	0	32774	32790	
4653	0	32826	32743	
4654	0	32856	32700	
4655	0	32800	32800	
4656	0	32808	32764	
4657	0	32892	32756	
4658	0	32806	32831	
4659	0	32872	32816	
4660	0	32800	32754	
4661	0	32884	32743	
4662	0	32773	32744	
4663	0	32816	32824	
4664	0	32810	32820	
4665	0	32768	32726	
4666	0	32830	32903	
4667	0	32820	32754	
4668	0	32840	32774	
4669	0	32816	32800	
4670	0	32760	32734	
4671	0	32862	32830	
4672	0	32860	32716	
4673	0	32804	32740	
4674	0	32772	32730	
4675	0	32844	32788	
4676	0	32842	32642	
4677	0	32804	32736	
4678	0	32798	32852	
4679	0	32804	32686	
4680	0	32800	32726	
4681	0	32780	32703	
4682	0	32840	32732	
4683	0	32764	32652	
4684	0	32796	32692	
4685	0	32894	32750	
4686	0	32752	32632	
4687	0	32816	32680	
4688	0	32780	32720	
4689	0	32750	32646	
4690	0	32828	32774	
4691	0	32820	32702	
4692	0	32732	32866	
4693	0	32808	32775	
4694	0	32805	32694	
4695	0	32822	32658	
4696	0	32828	32682	
4697	0	32825	32684	
4698	0	32808	32780	
4699	0	32796	32830	
4700	0	32824	32740	
4701	0	32822	32818	
4702	0	32828	32808	
4703	0	32862	32743	
4704	0	32808	32845	
4705	0	32832	32692	
4706	0	32820	32790	
4707	0	32844	32763	
4708	0	32814	32760	
4709	0	32804	32751	
4710	0	32808	32878	
4711	0	32762	32716	
4712	0	32834	32664	
4713	0	32800	32820	
4714	0	32788	32800	
4715	0	32840	32738	
4716	0	32840	32804	
4717	0	32828	32764	
4718	0	32844	32687	
4719	0	32804	32718	
4720	0	32766	32812	
4721	0	32876	32862	
4722	0	32848	32808	
4723	0	32820	32775	
4724	0	32840	32834	
4725	0	32822	32736	
4726	0	32770	32676	
4727	0	32772	32742	
4728	0	32812	32834	
4729	0	32744	32775	
4730	0	32852	32775	
4731	0	32838	32840	
4732	0	32794	32772	
4733	0	32792	32708	
4734	0	32860	32652	
4735	0	32826	32808	
4736	0	32804	32814	
4737	0	32818	32764	
4738	0	32826	32790	
4739	0	32776	32848	
4740	0	32804	32678	
4741	0	32802	32727	
4742	0	32856	32775	
4743	0	32772	32756	
4744	0	32796	32725	
4745	0	32856	32774	
4746	0	32812	32828	
4747	0	32846	32775	
4748	0	32808	32762	
4749	0	32846	32775	
4750	0	32772	32828	
4751	0	32828	32684	
4752	0	32766	32882	
4753	0	32876	32762	
4754	0	32788	32871	
4755	0	32830	32698	
4756	0	32764	32647	
4757	0	32824	32858	
4758	0	32844	32800	
4759	0	32872	32750	
4760	0	32800	32824	
4761	0	32762	32790	
4762	0	32744	32740	
4763	0	32772	32748	
4764	0	32836	32748	
4765	0	32828	32763	
4766	0	32818	32734	
4767	0	32776	32844	
4768	0	32820	32792	
4769	0	32852	32668	
4770	0	32844	32672	
4771	0	32828	32806	
4772	0	32798	32884	
4773	0	32824	32751	
4774	0	32740	32806	
4775	0	32828	32759	
4776	0	32784	32792	
4777	0	32808	32886	
4778	0	32818	32680	
4779	0	32812	32679	
4780	0	32780	32719	
4781	0	32816	32764	
4782	0	32778	32880	
4783	0	32814	32704	
4784	0	32836	32782	
4785	0	32808	32804	
4786	0	32862	32657	
4787	0	32826	32682	
4788	0	32840	32788	
4789	0	32920	32806	
4790	0	32810	32804	
4791	0	32808	32786	
4792	0	32856	32916	
4793	0	32800	32742	
4794	0	32854	32770	
4795	0	32796	32716	
4796	0	32796	32791	
4797	0	32812	32823	
4798	0	32836	32708	
4799	0	32860	32824	
4800	0	32808	32798	
4801	0	32772	32672	
4802	0	32828	32714	
4803	0	32802	32775	
4804	0	32812	32839	
4805	0	32784	32788	
4806	0	32828	32772	
4807	0	32900	32851	
4808	0	32752	32736	
4809	0	32820	32692	
4810	0	32912	32740	
4811	0	32800	32794	
4812	0	32824	32812	
4813	0	32864	32743	
4814	0	32804	32786	
4815	0	32872	32775	
4816	0	32868	32894	
4817	0	32840	32908	
4818	0	32852	32834	
4819	0	32880	32806	
4820	0	32768	32812	
4821	0	32806	32814	
4822	0	32860	32836	
4823	0	32912	32974	
4824	0	32782	32836	
4825	0	32916	32840	
4826	0	32926	32759	
4827	0	32924	32892	
4828	0	32922	33030	
4829	0	32908	32834	
4830	0	32916	32764	
4831	0	32832	32807	
4832	0	32796	32646	
4833	0	32560	32518	
4834	0	32600	32431	
4835	0	32614	32474	
4836	0	32544	32388	
4837	0	32540	32314	
4838	0	32556	32366	
4839	0	32658	32390	
4840	0	32636	32592	
4841	0	32748	32616	
4842	0	32782	32804	
4843	0	32766	32770	
4844	0	32775	32660	
4845	0	32812	32788	
4846	0	32800	32820	
4847	0	32828	32830	
4848	0	32898	32842	
4849	0	32912	32864	
4850	0	32936	32972	
4851	0	32832	32882	
4852	0	32945	32886	
4853	0	32860	32980	
4854	0	32918	32898	
4855	0	32844	32930	
4856	0	32892	32736	
4857	0	32870	32728	
4858	0	32872	32926	
4859	0	32836	32818	
4860	0	32958	32858	
4861	0	32804	32882	
4862	0	32868	32722	
4863	0	32808	32902	
4864	0	32820	32788	
4865	0	32832	32884	
4866	0	32816	32678	
4867	0	32776	32730	
4868	0	32794	32724	
4869	0	32760	32768	
4870	0	32724	32807	
4871	0	32808	32660	
4872	0	32756	32754	
4873	0	32752	32847	
4874	0	32794	32784	
4875	0	32882	32775	
4876	0	32752	32644	
4877	0	32772	32708	
4878	0	32786	32834	
4879	0	32784	32824	
4880	0	32834	32808	
4881	0	32780	32706	
4882	0	32758	32831	
4883	0	32834	32772	
4884	0	32832	32791	
4885	0	32800	32834	
4886	0	32824	32708	
4887	0	32782	32816	
4888	0	32808	32799	
4889	0	32776	32720	
4890	0	32780	32658	
4891	0	32770	32732	
4892	0	32820	32726	
4893	0	32824	32772	
4894	0	32826	32640	
4895	0	32870	32703	
4896	0	32808	32726	
4897	0	32792	32886	
4898	0	32760	32734	
4899	0	32814	32874	
4900	0	32828	32792	
4901	0	32822	32750	
4902	0	32800	32720	
4903	0	32740	32862	
4904	0	32830	32746	
4905	0	32808	32730	
4906	0	32868	32724	
4907	0	32864	32802	
4908	0	32798	32719	
4909	0	32844	32872	
4910	0	32774	32698	
4911	0	32775	32726	
4912	0	32832	32844	
4913	0	32772	32820	
4914	0	32804	32805	
4915	0	32804	32692	
4916	0	32780	32748	
4917	0	32784	32864	
4918	0	32812	32806	
4919	0	32832	32814	
4920	0	32864	32668	
4921	0	32830	32679	
4922	0	32836	32838	
4923	0	32836	32756	
4924	0	32738	32764	
4925	0	32864	32722	
4926	0	32812	32804	
4927	0	32762	32768	
4928	0	32768	32774	
4929	0	32796	32881	
4930	0	32792	32768	
4931	0	32808	32775	
4932	0	32800	32852	
4933	0	32820	32704	
4934	0	32794	32722	
4935	0	32780	32736	
4936	0	32916	32836	
4937	0	32800	32756	
4938	0	32832	32800	
4939	0	32842	32806	
4940	0	32820	32844	
4941	0	32816	32734	
4942	0	32800	32730	
4943	0	32841	32764	
4944	0	32844	32743	
4945	0	32828	32720	
4946	0	32804	32792	
4947	0	32860	32746	
4948	0	32822	32775	
4949	0	32806	32879	
4950	0	32780	32744	
4951	0	32816	32840	
4952	0	32792	32784	
4953	0	32758	32819	
4954	0	32836	32630	
4955	0	32802	32820	
4956	0	32852	32775	
4957	0	32794	32794	
4958	0	32808	32686	
4959	0	32737	32900	
4960	0	32788	32752	
4961	0	32838	32724	
4962	0	32790	32676	
4963	0	32828	32856	
4964	0	32832	32800	
4965	0	32770	32720	
4966	0	32862	32770	
4967	0	32782	32780	
4968	0	32830	32798	
4969	0	32848	32800	
4970	0	32776	32631	
4971	0	32856	32786	
4972	0	32824	32738	
4973	0	32832	32689	
4974	0	32769	32823	
4975	0	32788	32700	
4976	0	32764	32794	
4977	0	32856	32775	
4978	0	32800	32678	
4979	0	32816	32680	
4980	0	32814	32800	
4981	0	32828	32760	
4982	0	32838	32822	
4983	0	32816	32718	
4984	0	32828	32712	
4985	0	32762	32806	
4986	0	32806	32814	
4987	0	32812	32775	
4988	0	32796	32754	
4989	0	32832	32856	
4990	0	32812	32880	
4991	0	32910	32758	
4992	0	32788	32712	
4993	0	32864	32756	
4994	0	32796	32804	
4995	0	32808	32754	
4996	0	32788	32748	
4997	0	32856	32666	
4998	0	32766	32726	
4999	0	32768	32768	
5000	0	32810	32850	
5001	0	32858	32740	
5002	0	32864	32750	
5003	0	32754	32676	
5004	0	32772	32784	
5005	0	32776	32743	
5006	0	32824	32824	
5007	0	32816	32902	
5008	0	32828	32703	
5009	0	32782	32711	
5010	0	32804	32852	
5011	0	32800	32828	
5012	0	32828	32722	
5013	0	32778	32844	
5014	0	32794	32692	
5015	0	32806	32706	
5016	0	32818	32796	
5017	0	32792	32702	
5018	0	32844	32807	
5019	0	32846	32716	
5020	0	32808	32796	
5021	0	32856	32788	
5022	0	32792	32799	
5023	0	32826	32829	
5024	0	32792	32642	
5025	0	32768	32770	
5026	0	32826	32775	
5027	0	32820	32852	
5028	0	32840	32640	
5029	0	32858	32699	
5030	0	32840	32800	
5031	0	32820	32804	
5032	0	32775	32742	
5033	0	32808	32775	
5034	0	32738	32716	
5035	0	32848	32679	
5036	0	32772	32790	
5037	0	32782	32775	
5038	0	32786	32730	
5039	0	32752	32775	
5040	0	32836	32656	
5041	0	32844	32696	
5042	0	32792	32842	
5043	0	32834	32750	
5044	0	32806	32858	
5045	0	32784	32738	
5046	0	32842	32689	
5047	0	32756	32762	
5048	0	32764	32736	
5049	0	32812	32789	
5050	0	32854	32838	
5051	0	32820	32789	
5052	0	32810	32678	
5053	0	32808	32775	
5054	0	32802	32742	
5055	0	32880	32710	
5056	0	32804	32678	
5057	0	32818	32680	
5058	0	32728	32832	
5059	0	32840	32775	
5060	0	32834	32814	
5061	0	32824	32844	
5062	0	32784	32676	
5063	0	32792	32678	
5064	0	32808	32844	
5065	0	32780	32804	
5066	0	32828	32826	
5067	0	32804	32684	
5068	0	32810	32688	
5069	0	32808	32751	
5070	0	32768	32844	
5071	0	32836	32724	
5072	0	32744	32812	
5073	0	32848	32698	
5074	0	32824	32862	
5075	0	32768	32734	
5076	0	32818	32876	
5077	0	32750	32690	
5078	0	32824	32752	
5079	0	32864	32766	
5080	0	32788	32847	
5081	0	32830	32729	
5082	0	32750	32740	
5083	0	32840	32817	
5084	0	32844	32814	
5085	0	32808	32720	
5086	0	32812	32726	
5087	0	32868	32839	
5088	0	32808	32764	
5089	0	32760	32826	
5090	0	32828	32808	
5091	0	32802	32732	
5092	0	32840	32848	
5093	0	32832	32748	
5094	0	32820	32820	
5095	0	32804	32636	
5096	0	32836	32666	
5097	0	32880	32750	
5098	0	32794	32726	
5099	0	32760	32814	
5100	0	32788	32775	
5101	0	32844	32688	
5102	0	32864	32775	
5103	0	32820	32796	
5104	0	32812	32762	
5105	0	32794	32823	
5106	0	32836	32676	
5107	0	32804	32682	
5108	0	32806	32656	
5109	0	32832	32775	
5110	0	32736	32766	
5111	0	32832	32868	
5112	0	32806	32700	
5113	0	32788	32732	
5114	0	32808	32770	
5115	0	32824	32866	
5116	0	32818	32927	
5117	0	32806	32775	
5118	0	32838	32775	
5119	0	32894	32834	
5120	0	32780	32722	
5121	0	32810	32747	
5122	0	32838	32796	
5123	0	32806	32715	
5124	0	32820	32756	
5125	0	32820	32787	
5126	0	32882	32727	
5127	0	32800	32716	
5128	0	32814	32766	
5129	0	32812	32730	
5130	0	32820	32740	
5131	0	32836	32762	
5132	0	32824	32775	
5133	0	32752	32830	
5134	0	32828	32750	
5135	0	32762	32822	
5136	0	32804	32704	
5137	0	32814	32724	
5138	0	32810	32840	
5139	0	32804	32726	
5140	0	32860	32828	
5141	0	32828	32722	
5142	0	32808	32628	
5143	0	32804	32802	
5144	0	32764	32692	
5145	0	32820	32804	
5146	0	32840	32822	
5147	0	32820	32724	
5148	0	32806	32725	
5149	0	32892	32788	
5150	0	32806	32718	
5151	0	32832	32802	
5152	0	32792	32866	
5153	0	32832	32804	
5154	0	32780	32750	
5155	0	32796	32775	
5156	0	32810	32768	
5157	0	32876	32726	
5158	0	32824	32703	
5159	0	32854	32799	
5160	0	32768	32748	
5161	0	32824	32868	
5162	0	32816	32854	
5163	0	32860	32711	
5164	0	32826	32724	
5165	0	32836	32799	
5166	0	32804	32802	
5167	0	32820	32741	
5168	0	32876	32774	
5169	0	32842	32767	
5170	0	32784	32868	
5171	0	32801	32722	
5172	0	32798	32807	
5173	0	32824	32732	
5174	0	32886	32830	
5175	0	32848	32668	
5176	0	32824	32830	
5177	0	32796	32735	
5178	0	32764	32743	
5179	0	32764	32716	
5180	0	32836	32807	
5181	0	32776	32775	
5182	0	32762	32807	
5183	0	32860	32732	
5184	0	32764	32800	
5185	0	32814	32808	
5186	0	32810	32856	
5187	0	32741	32688	
5188	0	32838	32772	
5189	0	32828	32754	
5190	0	32826	32804	
5191	0	32842	32652	
5192	0	32810	32772	
5193	0	32742	32765	
5194	0	32808	32852	
5195	0	32734	32704	
5196	0	32844	32775	
5197	0	32800	32804	
5198	0	32876	32720	
5199	0	32808	32668	
5200	0	32808	32775	
5201	0	32796	32762	
5202	0	32856	32858	
5203	0	32796	32710	
5204	0	32780	32746	
5205	0	32812	32726	
5206	0	32834	32864	
5207	0	32762	32654	
5208	0	32824	32816	
5209	0	32820	32711	
5210	0	32840	32815	
5211	0	32784	32704	
5212	0	32847	32724	
5213	0	32760	32788	
5214	0	32792	32775	
5215	0	32820	32758	
5216	0	32848	32746	
5217	0	32842	32828	
5218	0	32796	32775	
5219	0	32798	32706	
5220	0	32848	32852	
5221	0	32796	32728	
5222	0	32880	32812	
5223	0	32808	32822	
5224	0	32766	32732	
5225	0	32816	32718	
5226	0	32820	32820	
5227	0	32769	32794	
5228	0	32808	32855	
5229	0	32752	32711	
5230	0	32796	32746	
5231	0	32828	32886	
5232	0	32810	32834	
5233	0	32780	32654	
5234	0	32824	32743	
5235	0	32776	32758	
5236	0	32858	32850	
5237	0	32820	32700	
5238	0	32840	32750	
5239	0	32798	32775	
5240	0	32762	32847	
5241	0	32804	32738	
5242	0	32848	32752	
5243	0	32880	32812	
5244	0	32804	32825	
5245	0	32814	32714	
5246	0	32848	32730	
5247	0	32784	32850	
5248	0	32816	32742	
5249	0	32812	32730	
5250	0	32852	32732	
5251	0	32830	32796	
5252	0	32784	32762	
5253	0	32856	32730	
5254	0	32824	32791	
5255	0	32800	32714	
5256	0	32788	32710	
5257	0	32808	32871	
5258	0	32785	32754	
5259	0	32820	32775	
5260	0	32866	32734	
5261	0	32768	32766	
5262	0	32792	32788	
5263	0	32808	32768	
5264	0	32810	32775	
5265	0	32744	32860	
5266	0	32840	32714	
5267	0	32772	32736	
5268	0	32840	32743	
5269	0	32860	32894	
5270	0	32860	32738	
5271	0	32804	32720	
5272	0	32774	32848	
5273	0	32820	32812	
5274	0	32772	32852	
5275	0	32812	32676	
5276	0	32816	32666	
5277	0	32870	32743	
5278	0	32784	32775	
5279	0	32824	32746	
5280	0	32786	32678	
5281	0	32778	32794	
5282	0	32772	32716	
5283	0	32848	32654	
5284	0	32858	32760	
5285	0	32804	32807	
5286	0	32786	32786	
5287	0	32796	32693	
5288	0	32866	32724	
5289	0	32860	32775	
5290	0	32810	32794	
5291	0	32844	32806	
5292	0	32778	32714	
5293	0	32768	32702	
5294	0	32832	32842	
5295	0	32834	32821	
5296	0	32846	32711	
5297	0	32780	32884	
5298	0	32874	32766	
5299	0	32780	32818	
5300	0	32818	32712	
5301	0	32822	32836	
5302	0	32800	32746	
5303	0	32828	32806	
5304	0	32832	32782	
5305	0	32764	32634	
5306	0	32756	32692	
5307	0	32800	32760	
5308	0	32782	32750	
5309	0	32834	32816	
5310	0	32760	32766	
5311	0	32864	32775	
5312	0	32736	32758	
5313	0	32756	32756	
5314	0	32804	32711	
5315	0	32830	32874	
5316	0	32804	32743	
5317	0	32864	32738	
5318	0	32820	32640	
5319	0	32808	32768	
5320	0	32824	32838	
5321	0	32828	32718	
5322	0	32800	32775	
5323	0	32748	32719	
5324	0	32832	32752	
5325	0	32788	32836	
5326	0	32828	32772	
5327	0	32884	32770	
5328	0	32788	32752	
5329	0	32828	32794	
5330	0	32864	32775	
5331	0	32726	32798	
5332	0	32834	32802	
5333	0	32824	32762	
5334	0	32752	32706	
5335	0	32800	32703	
5336	0	32792	32807	
5337	0	32784	32698	
5338	0	32844	32796	
5339	0	32864	32828	
5340	0	32828	32796	
5341	0	32880	32664	
5342	0	32808	32690	
5343	0	32760	32815	
5344	0	32840	32758	
5345	0	32728	32795	
5346	0	32820	32870	
5347	0	32882	32775	
5348	0	32868	32752	
5349	0	32770	32826	
5350	0	32764	32884	
5351	0	32876	32751	
5352	0	32836	32710	
5353	0	32866	32792	
5354	0	32784	32706	
5355	0	32786	32756	
5356	0	32788	32743	
5357	0	32810	32766	
5358	0	32798	32862	
5359	0	32792	32775	
5360	0	32804	32800	
5361	0	32802	32827	
5362	0	32824	32676	
5363	0	32788	32766	
5364	0	32802	32670	
5365	0	32856	32799	
5366	0	32774	32660	
5367	0	32856	32758	
5368	0	32804	32834	
5369	0	32794	32758	
5370	0	32877	32812	
5371	0	32856	32694	
5372	0	32768	32844	
5373	0	32834	32719	
5374	0	32842	32796	
5375	0	32806	32735	
5376	0	32792	32659	
5377	0	32824	32808	
5378	0	32820	32816	
5379	0	32772	32817	
5380	0	32844	32706	
5381	0	32884	32748	
5382	0	32786	32750	
5383	0	32772	32792	
5384	0	32828	32888	
5385	0	32822	32671	
5386	0	32812	32674	
5387	0	32788	32694	
5388	0	32804	32758	
5389	0	32804	32864	
5390	0	32820	32775	
5391	0	32824	32768	
5392	0	32836	32711	
5393	0	32868	32722	
5394	0	32792	32710	
5395	0	32816	32800	
5396	0	32804	32808	
5397	0	32824	32802	
5398	0	32840	32834	
5399	0	32824	32736	
5400	0	32770	32711	
5401	0	32888	32856	
5402	0	32868	32692	
5403	0	32846	32864	
5404	0	32776	32666	
5405	0	32752	32692	
5406	0	32810	32743	
5407	0	32828	32768	
5408	0	32820	32775	
5409	0	32872	32770	
5410	0	32844	32772	
5411	0	32832	32754	
5412	0	32764	32686	
5413	0	32774	32794	
5414	0	32784	32769	
5415	0	32768	32798	
5416	0	32864	32663	
5417	0	32836	32666	
5418	0	32836	32788	
5419	0	32792	32838	
5420	0	32860	32842	
5421	0	32760	32810	
5422	0	32880	32757	
5423	0	32814	32838	
5424	0	32864	32716	
5425	0	32744	32796	
5426	0	32768	32740	
5427	0	32752	32772	
5428	0	32916	32719	
5429	0	32800	32743	
5430	0	32868	32818	
5431	0	32868	32790	
5432	0	32808	32806	
5433	0	32764	32684	
5434	0	32808	32788	
5435	0	32792	32789	
5436	0	32794	32873	
5437	0	32730	32660	
5438	0	32828	32811	
5439	0	32806	32765	
5440	0	32756	32812	
5441	0	32888	32876	
5442	0	32828	32738	
5443	0	32844	32738	
5444	0	32756	32830	
5445	0	32834	32680	
5446	0	32832	32846	
5447	0	32812	32728	
5448	0	32844	32820	
5449	0	32832	32696	
5450	0	32842	32798	
5451	0	32812	32775	
5452	0	32880	32852	
5453	0	32824	32842	
5454	0	32810	32721	
5455	0	32816	32766	
5456	0	32796	32802	
5457	0	32798	32834	
5458	0	32796	32746	
5459	0	32816	32746	
5460	0	32798	32784	
5461	0	32788	32724	
5462	0	32872	32712	
5463	0	32818	32654	
5464	0	32894	32870	
5465	0	32792	32766	
5466	0	32844	32759	
5467	0	32828	32866	
5468	0	32800	32666	
5469	0	32792	32856	
5470	0	32838	32870	
5471	0	32896	32824	
5472	0	32826	32750	
5473	0	32872	32762	
5474	0	32840	32924	
5475	0	32864	32766	
5476	0	32761	32884	
5477	0	32884	32760	
5478	0	32842	32775	
5479	0	32876	32864	
5480	0	32900	32874	
5481	0	32922	32824	
5482	0	32884	32850	
5483	0	32868	32852	
5484	0	32828	32892	
5485	0	32860	32784	
5486	0	32884	32812	
5487	0	32778	32718	
5488	0	32692	32602	
5489	0	32676	32519	
5490	0	32588	32530	
5491	0	32612	32432	
5492	0	32600	32418	
5493	0	32528	32278	
5494	0	32548	32396	
5495	0	32610	32428	
5496	0	32654	32602	
5497	0	32748	32528	
5498	0	32798	32768	
5499	0	32820	32849	
5500	0	32840	32743	
5501	0	32884	32841	
5502	0	32886	32848	
5503	0	32840	32836	
5504	0	32832	32807	
5505	0	32942	32832	
5506	0	32952	32926	
5507	0	32920	32847	
5508	0	32858	32967	
5509	0	32858	32852	
5510	0	32932	32935	
5511	0	32944	32820	
5512	0	32948	32800	
5513	0	32876	32808	
5514	0	32852	32862	
5515	0	32936	32872	
5516	0	32834	32878	
5517	0	32864	32686	
5518	0	32814	32740	
5519	0	32832	32774	
5520	0	32896	32714	
5521	0	32832	32654	
5522	0	32834	32848	
5523	0	32774	32764	
5524	0	32804	32652	
5525	0	32826	32756	
5526	0	32816	32847	
5527	0	32742	32742	
5528	0	32844	32820	
5529	0	32808	32752	
5530	0	32760	32768	
5531	0	32748	32718	
5532	0	32756	32792	
5533	0	32816	32710	
5534	0	32804	32816	
5535	0	32820	32750	
5536	0	32792	32874	
5537	0	32860	32711	
5538	0	32856	32740	
5539	0	32804	32740	
5540	0	32756	32756	
5541	0	32820	32832	
5542	0	32744	32751	
5543	0	32812	32840	
5544	0	32812	32764	
5545	0	32804	32644	
5546	0	32844	32772	
5547	0	32804	32808	
5548	0	32876	32807	
5549	0	32860	32730	
5550	0	32804	32728	
5551	0	32816	32823	
5552	0	32800	32820	
5553	0	32808	32644	
5554	0	32862	32718	
5555	0	32752	32771	
5556	0	32772	32775	
5557	0	32792	32695	
5558	0	32850	32775	
5559	0	32804	32770	
5560	0	32812	32724	
5561	0	32808	32808	
5562	0	32818	32743	
5563	0	32802	32758	
5564	0	32794	32728	
5565	0	32750	32678	
5566	0	32812	32775	
5567	0	32808	32820	
5568	0	32820	32766	
5569	0	32828	32750	
5570	0	32816	32804	
5571	0	32860	32736	
5572	0	32836	32832	
5573	0	32848	32626	
5574	0	32780	32786	
5575	0	32800	32768	
5576	0	32810	32783	
5577	0	32724	32718	
5578	0	32824	32738	
5579	0	32746	32676	
5580	0	32824	32858	
5581	0	32836	32660	
5582	0	32816	32830	
5583	0	32806	32744	
5584	0	32864	32670	
5585	0	32798	32759	
5586	0	32802	32728	
5587	0	32846	32864	
5588	0	32916	32744	
5589	0	32834	32774	
5590	0	32836	32806	
5591	0	32808	32798	
5592	0	32836	32696	
5593	0	32830	32784	
5594	0	32754	32758	
5595	0	32782	32896	
5596	0	32816	32812	
5597	0	32852	32863	
5598	0	32878	32750	
5599	0	32800	32826	
5600	0	32796	32638	
5601	0	32788	32697	
5602	0	32796	32774	
5603	0	32748	32804	
5604	0	32824	32670	
5605	0	32826	32755	
5606	0	32832	32714	
5607	0	32788	32847	
5608	0	32788	32714	
5609	0	32832	32734	
5610	0	32868	32740	
5611	0	32806	32874	
5612	0	32888	32721	
5613	0	32824	32856	
5614	0	32814	32724	
5615	0	32772	32839	
5616	0	32800	32718	
5617	0	32788	32694	
5618	0	32774	32660	
5619	0	32808	32814	
5620	0	32836	32720	
5621	0	32784	32641	
5622	0	32792	32824	
5623	0	32828	32814	
5624	0	32824	32792	
5625	0	32864	32662	
5626	0	32768	32839	
5627	0	32752	32766	
5628	0	32836	32852	
5629	0	32844	32724	
5630	0	32816	32678	
5631	0	32806	32814	
5632	0	32780	32746	
5633	0	32840	32792	
5634	0	32824	32686	
5635	0	32876	32736	
5636	0	32832	32775	
5637	0	32832	32852	
5638	0	32804	32816	
5639	0	32816	32744	
5640	0	32804	32775	
5641	0	32824	32748	
5642	0	32800	32792	
5643	0	32808	32879	
5644	0	32788	32743	
5645	0	32812	32756	
5646	0	32848	32852	
5647	0	32724	32737	
5648	0	32768	32772	
5649	0	32844	32690	
5650	0	32836	32676	
5651	0	32824	32728	
5652	0	32848	32732	
5653	0	32780	32818	
5654	0	32804	32682	
5655	0	32792	32844	
5656	0	32824	32774	
5657	0	32780	32702	
5658	0	32816	32730	
5659	0	32800	32872	
5660	0	32848	32775	
5661	0	32860	32807	
5662	0	32788	32704	
5663	0	32768	32847	
5664	0	32812	32736	
5665	0	32769	32812	
5666	0	32796	32647	
5667	0	32772	32752	
5668	0	32828	32808	
5669	0	32784	32724	
5670	0	32766	32775	
5671	0	32828	32730	
5672	0	32784	32852	
5673	0	32844	32764	
5674	0	32775	32775	
5675	0	32864	32820	
5676	0	32804	32775	
5677	0	32804	32878	
5678	0	32836	32806	
5679	0	32854	32764	
5680	0	32864	32770	
5681	0	32836	32704	
5682	0	32826	32854	
5683	0	32770	32714	
5684	0	32820	32802	
5685	0	32820	32655	
5686	0	32796	32729	
5687	0	32790	32754	
5688	0	32804	32612	
5689	0	32776	32758	
5690	0	32834	32806	
5691	0	32836	32800	
5692	0	32776	32806	
5693	0	32788	32714	
5694	0	32796	32724	
5695	0	32804	32768	
5696	0	32854	32758	
5697	0	32768	32718	
5698	0	32804	32674	
5699	0	32852	32726	
5700	0	32876	32839	
5701	0	32762	32775	
5702	0	32766	32816	
5703	0	32792	32711	
5704	0	32784	32738	
5705	0	32842	32698	
5706	0	32832	32786	
5707	0	32836	32722	
5708	0	32743	32724	
5709	0	32836	32796	
5710	0	32825	32930	
5711	0	32804	32710	
5712	0	32816	32710	
5713	0	32840	32740	
5714	0	32860	32852	
5715	0	32832	32764	
5716	0	32830	32720	
5717	0	32758	32839	
5718	0	32802	32742	
5719	0	32856	32740	
5720	0	32832	32767	
5721	0	32820	32726	
5722	0	32772	32738	
5723	0	32804	32839	
5724	0	32868	32773	
5725	0	32832	32759	
5726	0	32848	32712	
5727	0	32856	32840	
5728	0	32812	32764	
5729	0	32808	32764	
5730	0	32764	32764	
5731	0	32824	32768	
5732	0	32712	32798	
5733	0	32804	32820	
5734	0	32808	32731	
5735	0	32784	32804	
5736	0	32776	32785	
5737	0	32824	32742	
5738	0	32872	32730	
5739	0	32900	32743	
5740	0	32864	32798	
5741	0	32784	32802	
5742	0	32874	32790	
5743	0	32828	32794	
5744	0	32764	32647	
5745	0	32784	32726	
5746	0	32852	32800	
5747	0	32816	32795	
5748	0	32808	32775	
5749	0	32856	32694	
5750	0	32760	32839	
5751	0	32852	32786	
5752	0	32864	32822	
5753	0	32800	32884	
5754	0	32816	32711	
5755	0	32836	32642	
5756	0	32852	32775	
5757	0	32854	32740	
5758	0	32812	32824	
5759	0	32824	32714	
5760	0	32856	32700	
5761	0	32820	32704	
5762	0	32822	32807	
5763	0	32804	32790	
5764	0	32750	32820	
5765	0	32830	32804	
5766	0	32820	32680	
5767	0	32844	32654	
5768	0	32832	32646	
5769	0	32824	32764	
5770	0	32788	32775	
5771	0	32794	32790	
5772	0	32820	32764	
5773	0	32790	32726	
5774	0	32816	32746	
5775	0	32812	32820	
5776	0	32780	32826	
5777	0	32824	32762	
5778	0	32844	32775	
5779	0	32814	32839	
5780	0	32796	32738	
5781	0	32842	32737	
5782	0	32834	32824	
5783	0	32832	32770	
5784	0	32762	32839	
5785	0	32784	32799	
5786	0	32816	32704	
5787	0	32804	32806	
5788	0	32822	32790	
5789	0	32860	32864	
5790	0	32800	32748	
5791	0	32849	32810	
5792	0	32716	32678	
5793	0	32798	32846	
5794	0	32812	32706	
5795	0	32774	32692	
5796	0	32800	32838	
5797	0	32824	32766	
5798	0	32836	32821	
5799	0	32748	32710	
5800	0	32796	32734	
5801	0	32864	32736	
5802	0	32860	32838	
5803	0	32812	32743	
5804	0	32768	32802	
5805	0	32798	32744	
5806	0	32818	32654	
5807	0	32852	32786	
5808	0	32840	32748	
5809	0	32852	32800	
5810	0	32818	32828	
5811	0	32816	32714	
5812	0	32772	32775	
5813	0	32828	32775	
5814	0	32790	32858	
5815	0	32742	32752	
5816	0	32786	32720	
5817	0	32810	32824	
5818	0	32852	32708	
5819	0	32820	32692	
5820	0	32816	32638	
5821	0	32854	32804	
5822	0	32860	32784	
5823	0	32808	32758	
5824	0	32794	32838	
5825	0	32828	32670	
5826	0	32816	32775	
5827	0	32757	32775	
5828	0	32764	32745	
5829	0	32822	32803	
5830	0	32828	32744	
5831	0	32820	32700	
5832	0	32846	32796	
5833	0	32844	32799	
5834	0	32825	32775	
5835	0	32754	32740	
5836	0	32808	32868	
5837	0	32716	32710	
5838	0	32800	32732	
5839	0	32840	32886	
5840	0	32888	32832	
5841	0	32840	32814	
5842	0	32824	32686	
5843	0	32780	32692	
5844	0	32820	32815	
5845	0	32820	32812	
5846	0	32775	32718	
5847	0	32816	32766	
5848	0	32802	32872	
5849	0	32848	32614	
5850	0	32869	32708	
5851	0	32774	32786	
5852	0	32808	32775	
5853	0	32784	32728	
5854	0	32824	32775	
5855	0	32760	32808	
5856	0	32794	32660	
5857	0	32760	32748	
5858	0	32864	32839	
5859	0	32840	32775	
5860	0	32844	32806	
5861	0	32844	32697	
5862	0	32808	32874	
5863	0	32826	32762	
5864	0	32816	32820	
5865	0	32770	32834	
5866	0	32848	32750	
5867	0	32804	32688	
5868	0	32800	32768	
5869	0	32762	32820	
5870	0	32786	32844	
5871	0	32800	32794	
5872	0	32848	32775	
5873	0	32898	32678	
5874	0	32852	32686	
5875	0	32764	32840	
5876	0	32848	32814	
5877	0	32734	32788	
5878	0	32848	32767	
5879	0	32878	32724	
5880	0	32792	32657	
5881	0	32795	32836	
5882	0	32816	32746	
5883	0	32826	32769	
5884	0	32772	32682	
5885	0	32802	32676	
5886	0	32824	32806	
5887	0	32856	32806	
5888	0	32830	32802	
5889	0	32800	32839	
5890	0	32724	32694	
5891	0	32824	32775	
5892	0	32834	32775	
5893	0	32812	32775	
5894	0	32828	32860	
5895	0	32838	32766	
5896	0	32806	32772	
5897	0	32798	32730	
5898	0	32832	32808	
5899	0	32832	32804	
5900	0	32780	32714	
5901	0	32792	32738	
5902	0	32832	32775	
5903	0	32856	32764	
5904	0	32806	32712	
5905	0	32834	32716	
5906	0	32804	32812	
5907	0	32834	32766	
5908	0	32844	32770	
5909	0	32878	32767	
5910	0	32828	32692	
5911	0	32780	32730	
5912	0	32752	32836	
5913	0	32816	32730	
5914	0	32812	32770	
5915	0	32896	32600	
5916	0	32878	32734	
5917	0	32778	32711	
5918	0	32836	32834	
5919	0	32825	32756	
5920	0	32804	32647	
5921	0	32780	32830	
5922	0	32836	32744	
5923	0	32824	32828	
5924	0	32776	32756	
5925	0	32832	32684	
5926	0	32808	32848	
5927	0	32784	32768	
5928	0	32782	32808	
5929	0	32856	32716	
5930	0	32804	32756	
5931	0	32784	32794	
5932	0	32860	32785	
5933	0	32828	32806	
5934	0	32794	32668	
5935	0	32872	32681	
5936	0	32840	32771	
5937	0	32830	32788	
5938	0	32826	32775	
5939	0	32712	32698	
5940	0	32804	32704	
5941	0	32880	32721	
5942	0	32800	32826	
5943	0	32852	32768	
5944	0	32824	32654	
5945	0	32858	32812	
5946	0	32798	32820	
5947	0	32832	32759	
5948	0	32794	32712	
5949	0	32824	32708	
5950	0	32830	32846	
5951	0	32852	32692	
5952	0	32802	32799	
5953	0	32782	32868	
5954	0	32840	32654	
5955	0	32802	32641	
5956	0	32832	32801	
5957	0	32856	32807	
5958	0	32818	32750	
5959	0	32780	32692	
5960	0	32804	32702	
5961	0	32841	32775	
5962	0	32768	32775	
5963	0	32864	32788	
5964	0	32810	32816	
5965	0	32853	32775	
5966	0	32854	32748	
5967	0	32832	32726	
5968	0	32776	32654	
5969	0	32828	32742	
5970	0	32808	32820	
5971	0	32802	32738	
5972	0	32788	32759	
5973	0	32820	32766	
5974	0	32808	32922	
5975	0	32736	32738	
5976	0	32836	32638	
5977	0	32826	32670	
5978	0	32898	32799	
5979	0	32882	32790	
5980	0	32840	32772	
5981	0	32780	32874	
5982	0	32852	32838	
5983	0	32848	32743	
5984	0	32862	32702	
5985	0	32864	32760	
5986	0	32900	32794	
5987	0	32822	32738	
5988	0	32774	32814	
5989	0	32798	32822	
5990	0	32764	32689	
5991	0	32804	32671	
5992	0	32792	32759	
5993	0	32760	32775	
5994	0	32712	32774	
5995	0	32812	32840	
5996	0	32804	32814	
5997	0	32832	32792	
5998	0	32900	32849	
5999	0	32798	32740	
6000	0	32828	32711	
6001	0	32820	32810	
6002	0	32834	32812	
6003	0	32830	32794	
6004	0	32768	32775	
6005	0	32792	32758	
6006	0	32836	32775	
6007	0	32808	32836	
6008	0	32836	32847	
6009	0	32900	32720	
6010	0	32826	32674	
6011	0	32836	32818	
6012	0	32736	32812	
