# OpenSignals Text File Format. Version 1
# {"00:07:80:D8:AA:AB": {"position": 0, "device": "biosignalsplux", "device name": "00:07:80:D8:AA:AB", "device connection": "BTH00:07:80:D8:AA:AB", "sampling rate": 1000, "resolution": [16, 16], "firmware version": 773, "comments": "", "keywords": "", "mode": 0, "sync interval": 2, "date": "2023-2-23", "time": "12:22:50.882", "channels": [1, 2], "sensor": ["EMG", "EMG"], "label": ["CH1", "CH2"], "column": ["nSeq", "DI", "CH1", "CH2"], "special": [{}, {}], "digital IO": [0, 1], "convertedValues": 0}}
# EndOfHeader
0	0	32802	32717	
1	0	32744	32808	
2	0	32826	32743	
3	0	32830	32859	
4	0	32698	32893	
5	0	32821	32788	
6	0	32838	32719	
7	0	32799	32741	
8	0	32768	32934	
9	0	32742	32784	
10	0	32801	32818	
11	0	32850	32773	
12	0	32828	32713	
13	0	32760	32786	
14	0	32802	32832	
15	0	32804	32868	
16	0	32876	32780	
17	0	32837	32887	
18	0	32797	32895	
19	0	32828	32818	
20	0	32804	32843	
21	0	32784	32816	
22	0	32824	32854	
23	0	32786	32742	
24	0	32778	32713	
25	0	32796	32784	
26	0	32852	32829	
27	0	32805	32868	
28	0	32815	32714	
29	0	32876	32684	
30	0	32772	32857	
31	0	32784	32865	
32	0	32857	32832	
33	0	32826	32726	
34	0	32784	32756	
35	0	32809	32886	
36	0	32821	32769	
37	0	32825	32723	
38	0	32752	32829	
39	0	32740	32836	
40	0	32808	32892	
41	0	32835	32720	
42	0	32788	32775	
43	0	32768	32839	
44	0	32768	32850	
45	0	32782	32797	
46	0	32794	32738	
47	0	32808	32775	
48	0	32772	32829	
49	0	32781	32783	
50	0	32812	32832	
51	0	32816	32854	
52	0	32826	32761	
53	0	32832	32788	
54	0	32793	32866	
55	0	32871	32746	
56	0	32824	32775	
57	0	32738	32837	
58	0	32760	32876	
59	0	32792	32717	
60	0	32828	32726	
61	0	32796	32829	
62	0	32784	32781	
63	0	32810	32907	
64	0	32822	32812	
65	0	32852	32682	
66	0	32768	32752	
67	0	32818	32790	
68	0	32840	32730	
69	0	32786	32775	
70	0	32837	32845	
71	0	32835	32816	
72	0	32784	32864	
73	0	32764	32712	
74	0	32774	32838	
75	0	32796	32876	
76	0	32888	32876	
77	0	32814	32687	
78	0	32772	32760	
79	0	32772	32764	
80	0	32800	32815	
81	0	32892	32844	
82	0	32886	32774	
83	0	32775	32672	
84	0	32768	32807	
85	0	32805	32843	
86	0	32724	32870	
87	0	32828	32870	
88	0	32764	32775	
89	0	32754	32904	
90	0	32818	32817	
91	0	32800	32869	
92	0	32832	32829	
93	0	32796	32772	
94	0	32866	32831	
95	0	32805	32856	
96	0	32804	32830	
97	0	32838	32727	
98	0	32800	32711	
99	0	32842	32875	
100	0	32850	32797	
101	0	32836	32882	
102	0	32750	32720	
103	0	32826	32724	
104	0	32816	32775	
105	0	32815	32832	
106	0	32736	32855	
107	0	32806	32751	
108	0	32784	32841	
109	0	32797	32873	
110	0	32752	32830	
111	0	32827	32809	
112	0	32792	32717	
113	0	32829	32784	
114	0	32860	32914	
115	0	32818	32740	
116	0	32866	32756	
117	0	32720	32850	
118	0	32816	32874	
119	0	32800	32890	
120	0	32740	32713	
121	0	32860	32775	
122	0	32800	32836	
123	0	32774	32887	
124	0	32848	32735	
125	0	32775	32788	
126	0	32736	32782	
127	0	32788	32852	
128	0	32912	32804	
129	0	32796	32804	
130	0	32725	32829	
131	0	32804	32891	
132	0	32793	32763	
133	0	32780	32831	
134	0	32738	32773	
135	0	32813	32841	
136	0	32832	32710	
137	0	32816	32766	
138	0	32824	32854	
139	0	32816	32810	
140	0	32876	32728	
141	0	32780	32789	
142	0	32840	32813	
143	0	32924	32929	
144	0	32868	32748	
145	0	32924	32828	
146	0	32820	32887	
147	0	32792	32897	
148	0	32828	32754	
149	0	32692	32676	
150	0	32740	32801	
151	0	32772	32912	
152	0	32720	32682	
153	0	32840	32763	
154	0	32772	32850	
155	0	32804	32888	
156	0	32740	32804	
157	0	32746	32825	
158	0	32834	32775	
159	0	32834	32872	
160	0	32864	32731	
161	0	32793	32866	
162	0	32784	32839	
163	0	32808	32886	
164	0	32775	32761	
165	0	32844	32793	
166	0	32836	32808	
167	0	32838	32838	
168	0	32840	32704	
169	0	32803	32805	
170	0	32788	32847	
171	0	32844	32838	
172	0	32756	32818	
173	0	32800	32720	
174	0	32768	32767	
175	0	32760	32900	
176	0	32842	32883	
177	0	32736	32721	
178	0	32790	32757	
179	0	32832	32833	
180	0	32796	32823	
181	0	32749	32886	
182	0	32790	32731	
183	0	32760	32750	
184	0	32796	32835	
185	0	32724	32933	
186	0	32756	32771	
187	0	32809	32710	
188	0	32874	32733	
189	0	32796	32752	
190	0	32750	32868	
191	0	32820	32847	
192	0	32788	32774	
193	0	32796	32758	
194	0	32806	32815	
195	0	32900	32829	
196	0	32928	32822	
197	0	32893	32811	
198	0	32890	32814	
199	0	32827	32850	
200	0	32792	32783	
201	0	32800	32876	
202	0	32800	32843	
203	0	32768	32752	
204	0	32717	32811	
205	0	32798	32886	
206	0	32748	32853	
207	0	32848	32831	
208	0	32760	32756	
209	0	32690	32704	
210	0	32728	32834	
211	0	32898	32762	
212	0	32784	32844	
213	0	32784	32870	
214	0	32868	32756	
215	0	32837	32840	
216	0	32859	32850	
217	0	32780	32853	
218	0	32748	32719	
219	0	32826	32716	
220	0	32748	32775	
221	0	32775	32883	
222	0	32805	32700	
223	0	32860	32772	
224	0	32804	32800	
225	0	32808	32883	
226	0	32836	32852	
227	0	32780	32775	
228	0	32756	32769	
229	0	32833	32900	
230	0	32855	32844	
231	0	32838	32837	
232	0	32830	32719	
233	0	32856	32863	
234	0	32904	32851	
235	0	32828	32853	
236	0	32848	32698	
237	0	32808	32821	
238	0	32748	32895	
239	0	32728	32817	
240	0	32848	32726	
241	0	32854	32736	
242	0	32804	32796	
243	0	32842	32840	
244	0	32868	32748	
245	0	32859	32856	
246	0	32896	32903	
247	0	32768	32757	
248	0	32720	32728	
249	0	32834	32759	
250	0	32812	32837	
251	0	32873	32826	
252	0	32770	32873	
253	0	32752	32764	
254	0	32792	32771	
255	0	32791	32864	
256	0	32716	32912	
257	0	32764	32775	
258	0	32717	32775	
259	0	32809	32866	
260	0	32869	32750	
261	0	32848	32812	
262	0	32774	32795	
263	0	32864	32767	
264	0	32788	32792	
265	0	32873	32795	
266	0	32836	32759	
267	0	32896	32657	
268	0	32818	32812	
269	0	32808	32852	
270	0	32820	32890	
271	0	32757	32740	
272	0	32752	32811	
273	0	32824	32775	
274	0	32796	32868	
275	0	32801	32837	
276	0	32726	32794	
277	0	32752	32775	
278	0	32810	32832	
279	0	32775	32758	
280	0	32730	32848	
281	0	32736	32775	
282	0	32735	32809	
283	0	32792	32825	
284	0	32748	32895	
285	0	32854	32860	
286	0	32757	32697	
287	0	32796	32775	
288	0	32852	32694	
289	0	32800	32861	
290	0	32784	32676	
291	0	32768	32788	
292	0	32829	32872	
293	0	32780	32943	
294	0	32848	32743	
295	0	32857	32838	
296	0	32874	32851	
297	0	32882	32728	
298	0	32840	32818	
299	0	32756	32784	
300	0	32736	32838	
301	0	32611	32723	
302	0	32680	32812	
303	0	32704	32902	
304	0	32724	32838	
305	0	32805	32760	
306	0	32929	32815	
307	0	32920	32753	
308	0	32868	32786	
309	0	32912	32621	
310	0	32937	32732	
311	0	32967	32712	
312	0	32936	32680	
313	0	32933	32792	
314	0	32916	32651	
315	0	33004	32493	
316	0	32877	32654	
317	0	32888	32644	
318	0	32870	32731	
319	0	32907	32686	
320	0	32886	32702	
321	0	32768	32699	
322	0	32704	32832	
323	0	32692	32871	
324	0	32660	32945	
325	0	32784	32932	
326	0	32842	32832	
327	0	32796	32775	
328	0	32804	32825	
329	0	32724	32927	
330	0	32752	32987	
331	0	32843	32799	
332	0	32772	32890	
333	0	32640	33009	
334	0	32588	33126	
335	0	32630	33238	
336	0	32631	33118	
337	0	32576	33090	
338	0	32651	33189	
339	0	32688	33081	
340	0	32802	33055	
341	0	32773	32770	
342	0	32718	32700	
343	0	32720	32788	
344	0	32802	32741	
345	0	32700	32871	
346	0	32794	32850	
347	0	32824	32788	
348	0	32868	32731	
349	0	32882	32628	
350	0	32916	32620	
351	0	32836	32735	
352	0	32860	32853	
353	0	32866	32731	
354	0	32824	32656	
355	0	32953	32625	
356	0	32892	32658	
357	0	32906	32738	
358	0	32886	32744	
359	0	32846	32809	
360	0	32808	32792	
361	0	32818	32663	
362	0	32836	32726	
363	0	32872	32747	
364	0	32842	32832	
365	0	32850	32711	
366	0	32808	32738	
367	0	32784	32801	
368	0	32740	32856	
369	0	32772	32795	
370	0	32744	32697	
371	0	32802	32707	
372	0	32684	32800	
373	0	32713	32822	
374	0	32816	32708	
375	0	32740	32775	
376	0	32804	32836	
377	0	32872	32952	
378	0	32978	32875	
379	0	32870	32731	
380	0	32864	32754	
381	0	32861	32774	
382	0	32740	32858	
383	0	32766	32683	
384	0	32818	32804	
385	0	32784	32835	
386	0	32768	32938	
387	0	32690	32847	
388	0	32788	32692	
389	0	32890	32768	
390	0	32910	32775	
391	0	32860	32883	
392	0	32840	32893	
393	0	32780	32932	
394	0	32736	32928	
395	0	32744	32811	
396	0	32770	32720	
397	0	32758	32782	
398	0	32764	32836	
399	0	32773	32730	
400	0	32799	32690	
401	0	32828	32676	
402	0	32912	32814	
403	0	32818	32737	
404	0	32860	32896	
405	0	32861	32903	
406	0	32833	32877	
407	0	32827	32686	
408	0	32708	32802	
409	0	32806	32813	
410	0	32776	32787	
411	0	32828	32868	
412	0	32937	32711	
413	0	32857	32844	
414	0	32718	32860	
415	0	32813	32797	
416	0	32724	32740	
417	0	32664	32797	
418	0	32820	32909	
419	0	32725	32801	
420	0	32782	32826	
421	0	32747	32820	
422	0	32746	32894	
423	0	32876	32863	
424	0	32996	32708	
425	0	32888	32708	
426	0	32834	32687	
427	0	32784	32758	
428	0	32772	32824	
429	0	32852	32930	
430	0	32784	32891	
431	0	32801	32897	
432	0	32760	32791	
433	0	32736	32687	
434	0	32794	32708	
435	0	32796	32760	
436	0	32804	32770	
437	0	32896	32832	
438	0	32851	32796	
439	0	32876	32745	
440	0	32840	32793	
441	0	32817	32773	
442	0	32731	32876	
443	0	32720	32848	
444	0	32730	32858	
445	0	32769	32836	
446	0	32802	32847	
447	0	32784	32797	
448	0	32866	32758	
449	0	32799	32769	
450	0	32780	32758	
451	0	32828	32795	
452	0	32797	32899	
453	0	32802	32928	
454	0	32855	32775	
455	0	32826	32725	
456	0	32861	32742	
457	0	32800	32832	
458	0	32827	32862	
459	0	32793	32859	
460	0	32868	32711	
461	0	32832	32664	
462	0	32826	32797	
463	0	32764	32896	
464	0	32744	32912	
465	0	32714	32756	
466	0	32793	32711	
467	0	32784	32818	
468	0	32756	32856	
469	0	32878	32849	
470	0	32920	32817	
471	0	32828	32738	
472	0	32828	32690	
473	0	32800	32775	
474	0	32799	32761	
475	0	32840	32837	
476	0	32858	32804	
477	0	32776	32802	
478	0	32748	32850	
479	0	32848	32824	
480	0	32856	32866	
481	0	32724	32845	
482	0	32792	32824	
483	0	32792	32751	
484	0	32797	32879	
485	0	32888	32790	
486	0	32860	32843	
487	0	32752	32737	
488	0	32721	32748	
489	0	32636	32871	
490	0	32772	32813	
491	0	32858	32903	
492	0	32800	32742	
493	0	32808	32832	
494	0	32824	32797	
495	0	32882	32824	
496	0	32809	32806	
497	0	32808	32738	
498	0	32720	32800	
499	0	32800	32845	
500	0	32782	32846	
501	0	32880	32814	
502	0	32820	32907	
503	0	32833	32748	
504	0	32822	32718	
505	0	32710	32853	
506	0	32765	32855	
507	0	32738	32736	
508	0	32826	32916	
509	0	32805	32856	
510	0	32809	32818	
511	0	32848	32683	
512	0	32826	32690	
513	0	32836	32759	
514	0	32880	32728	
515	0	32801	32723	
516	0	32737	32820	
517	0	32864	32932	
518	0	32840	32992	
519	0	32848	32753	
520	0	32712	32717	
521	0	32760	32807	
522	0	32716	32768	
523	0	32612	32848	
524	0	32650	32774	
525	0	32704	32848	
526	0	32748	32920	
527	0	32906	32960	
528	0	32973	32751	
529	0	33186	32682	
530	0	33140	32658	
531	0	32941	32769	
532	0	32980	32836	
533	0	32786	32928	
534	0	32766	32937	
535	0	32688	32956	
536	0	32742	32799	
537	0	32728	32676	
538	0	32800	32665	
539	0	32834	32741	
540	0	32762	32824	
541	0	32724	32874	
542	0	32770	32977	
543	0	32724	32911	
544	0	32730	32800	
545	0	32725	32725	
546	0	32816	32763	
547	0	32736	32760	
548	0	32780	32835	
549	0	32804	32845	
550	0	32818	32668	
551	0	32830	32634	
552	0	32804	32687	
553	0	32768	32953	
554	0	32853	32817	
555	0	32884	32876	
556	0	32782	32659	
557	0	32786	32797	
558	0	32712	32787	
559	0	32736	32864	
560	0	32772	32742	
561	0	32738	32870	
562	0	32773	32824	
563	0	32857	32940	
564	0	32880	32842	
565	0	32788	32863	
566	0	32808	32898	
567	0	32816	32799	
568	0	32752	32810	
569	0	32854	32718	
570	0	32873	32869	
571	0	32827	32788	
572	0	32888	32867	
573	0	32780	32771	
574	0	32788	32725	
575	0	32838	32838	
576	0	32758	32882	
577	0	32896	32880	
578	0	32780	32823	
579	0	32796	32818	
580	0	32818	32765	
581	0	32773	32899	
582	0	32744	32814	
583	0	32780	32835	
584	0	32752	32888	
585	0	32710	32820	
586	0	32774	32729	
587	0	32756	32804	
588	0	32774	32859	
589	0	32834	32824	
590	0	32812	32718	
591	0	32793	32775	
592	0	32816	32841	
593	0	32796	32719	
594	0	32682	32829	
595	0	32668	32864	
596	0	32781	32848	
597	0	32778	32696	
598	0	32832	32816	
599	0	32864	32899	
600	0	32896	32742	
601	0	32894	32680	
602	0	32952	32810	
603	0	32868	32920	
604	0	32868	32809	
605	0	32748	32949	
606	0	32775	32879	
607	0	32728	32870	
608	0	32720	32800	
609	0	32712	32815	
610	0	32802	32874	
611	0	32733	32809	
612	0	32811	32811	
613	0	32760	32810	
614	0	32814	32868	
615	0	32859	32797	
616	0	32786	32726	
617	0	32836	32888	
618	0	32828	32731	
619	0	32715	32821	
620	0	32773	32813	
621	0	32754	32694	
622	0	32702	32753	
623	0	32716	32898	
624	0	32762	32951	
625	0	32779	32906	
626	0	32933	32962	
627	0	32940	32888	
628	0	32856	32764	
629	0	32864	32543	
630	0	32765	32574	
631	0	32692	32715	
632	0	32888	32600	
633	0	32848	32635	
634	0	32952	32865	
635	0	32834	32970	
636	0	32796	33046	
637	0	32774	33007	
638	0	32758	32886	
639	0	32775	32799	
640	0	32861	32716	
641	0	32851	32861	
642	0	32820	32720	
643	0	32722	32647	
644	0	32793	32736	
645	0	32761	32895	
646	0	32742	33024	
647	0	32700	32799	
648	0	32800	32790	
649	0	32866	32803	
650	0	32808	32816	
651	0	32876	32789	
652	0	32870	32713	
653	0	32944	32721	
654	0	32868	32739	
655	0	32859	32859	
656	0	32820	32892	
657	0	32752	32830	
658	0	32677	32718	
659	0	32720	32883	
660	0	32728	32919	
661	0	32736	32983	
662	0	32770	32895	
663	0	32898	32767	
664	0	32905	32738	
665	0	32882	32638	
666	0	32956	32540	
667	0	32904	32479	
668	0	32800	32700	
669	0	32804	32937	
670	0	32754	33010	
671	0	32674	32916	
672	0	32690	32938	
673	0	32762	32909	
674	0	32834	32727	
675	0	32880	32747	
676	0	32824	32812	
677	0	32813	32829	
678	0	32820	32818	
679	0	32768	32741	
680	0	32792	32789	
681	0	32856	32748	
682	0	32732	32841	
683	0	32805	32797	
684	0	32848	32753	
685	0	32812	32847	
686	0	32826	32840	
687	0	32713	32914	
688	0	32858	32789	
689	0	32789	32803	
690	0	32844	32843	
691	0	32826	32850	
692	0	32884	32789	
693	0	32784	32667	
694	0	32754	32639	
695	0	32796	32692	
696	0	32824	32814	
697	0	32858	32903	
698	0	32865	32899	
699	0	32774	32826	
700	0	32793	32800	
701	0	32857	32935	
702	0	32732	32863	
703	0	32892	32871	
704	0	32763	32775	
705	0	32785	32824	
706	0	32856	32893	
707	0	32792	32724	
708	0	32801	32755	
709	0	32648	32666	
710	0	32866	32647	
711	0	32768	32714	
712	0	32896	32813	
713	0	32850	32840	
714	0	32776	32742	
715	0	32748	32834	
716	0	32793	32775	
717	0	32837	32803	
718	0	32852	32971	
719	0	32870	32901	
720	0	32822	32890	
721	0	32832	32766	
722	0	32646	32839	
723	0	32781	32964	
724	0	32856	32773	
725	0	32790	32728	
726	0	32773	32702	
727	0	32793	32796	
728	0	32669	32746	
729	0	32768	32839	
730	0	32800	32869	
731	0	32799	32920	
732	0	32813	32847	
733	0	32900	32692	
734	0	32900	32832	
735	0	32828	32805	
736	0	32969	32960	
737	0	32874	32788	
738	0	32912	32820	
739	0	32756	32868	
740	0	32771	32712	
741	0	32760	32720	
742	0	32821	32760	
743	0	32780	32815	
744	0	32745	32786	
745	0	32725	32817	
746	0	32768	32939	
747	0	32772	32873	
748	0	32756	32868	
749	0	32762	32664	
750	0	32794	32799	
751	0	32770	32769	
752	0	32774	32758	
753	0	32848	32533	
754	0	32840	32668	
755	0	32884	32837	
756	0	32886	32884	
757	0	32924	32949	
758	0	32842	32964	
759	0	32800	32861	
760	0	32892	32860	
761	0	32893	32671	
762	0	32749	32760	
763	0	32848	32728	
764	0	32788	32768	
765	0	32772	32845	
766	0	32789	32801	
767	0	32775	32817	
768	0	32740	32866	
769	0	32781	32869	
770	0	32792	32829	
771	0	32716	32806	
772	0	32802	32759	
773	0	32872	32821	
774	0	32806	32887	
775	0	32796	32914	
776	0	32836	32842	
777	0	32777	32771	
778	0	32726	32703	
779	0	32752	32775	
780	0	32769	32750	
781	0	32788	32864	
782	0	32778	32782	
783	0	32772	32786	
784	0	32850	32805	
785	0	32835	32867	
786	0	32861	32866	
787	0	32896	32903	
788	0	32869	32762	
789	0	32858	32745	
790	0	32860	32715	
791	0	32836	32792	
792	0	32738	32820	
793	0	32728	32869	
794	0	32707	32729	
795	0	32669	32866	
796	0	32786	32766	
797	0	32710	32775	
798	0	32752	32790	
799	0	32832	32775	
800	0	32829	32784	
801	0	32844	32907	
802	0	32865	32763	
803	0	32824	32796	
804	0	32842	32772	
805	0	32854	32775	
806	0	32797	32850	
807	0	32740	32813	
808	0	32748	32864	
809	0	32738	32808	
810	0	32814	32751	
811	0	32824	32828	
812	0	32790	32802	
813	0	32810	32828	
814	0	32840	32723	
815	0	32800	32785	
816	0	32800	32797	
817	0	32722	32825	
818	0	32741	32775	
819	0	32770	32856	
820	0	32772	32891	
821	0	32816	32841	
822	0	32868	32883	
823	0	32905	32853	
824	0	32786	32802	
825	0	32794	32722	
826	0	32882	32775	
827	0	32844	32850	
828	0	32808	32628	
829	0	32796	32724	
830	0	32856	32824	
831	0	32818	32850	
832	0	32796	32881	
833	0	32864	32828	
834	0	32801	32775	
835	0	32838	32744	
836	0	32816	32839	
837	0	32800	32783	
838	0	32806	32873	
839	0	32796	32933	
840	0	32809	32823	
841	0	32794	32796	
842	0	32812	32642	
843	0	32750	32659	
844	0	32817	32824	
845	0	32805	32828	
846	0	32828	32731	
847	0	32772	32741	
848	0	32845	32866	
849	0	32728	32813	
850	0	32816	32872	
851	0	32792	32805	
852	0	32780	32678	
853	0	32746	32796	
854	0	32748	32851	
855	0	32792	32804	
856	0	32758	32876	
857	0	32834	32846	
858	0	32922	32816	
859	0	32888	32823	
860	0	32888	32775	
861	0	32884	32839	
862	0	32848	32681	
863	0	32832	32747	
864	0	32784	32793	
865	0	32858	32919	
866	0	32808	32831	
867	0	32818	32854	
868	0	32792	32902	
869	0	32762	32820	
870	0	32773	32826	
871	0	32766	32656	
872	0	32748	32686	
873	0	32724	32805	
874	0	32793	32868	
875	0	32840	32918	
876	0	32884	32833	
877	0	32906	32917	
878	0	32799	32840	
879	0	32713	32760	
880	0	32745	32758	
881	0	32803	32677	
882	0	32801	32711	
883	0	32792	32769	
884	0	32800	32743	
885	0	32751	32921	
886	0	32833	32893	
887	0	32876	32904	
888	0	32892	32722	
889	0	32890	32702	
890	0	32816	32754	
891	0	32796	32814	
892	0	32720	32807	
893	0	32697	32689	
894	0	32826	32815	
895	0	32820	32760	
896	0	32846	32788	
897	0	32840	32815	
898	0	32900	32938	
899	0	32784	32967	
900	0	32866	33014	
901	0	32775	32870	
902	0	32808	32764	
903	0	32828	32748	
904	0	32720	32711	
905	0	32830	32730	
906	0	32840	32647	
907	0	32794	32805	
908	0	32758	32884	
909	0	32801	32874	
910	0	32728	32858	
911	0	32738	32759	
912	0	32816	32762	
913	0	32792	32842	
914	0	32802	32680	
915	0	32826	32827	
916	0	32822	32910	
917	0	32817	32775	
918	0	32814	32780	
919	0	32796	32831	
920	0	32762	32928	
921	0	32720	32832	
922	0	32802	32685	
923	0	32832	32834	
924	0	32828	32843	
925	0	32834	32832	
926	0	32808	32793	
927	0	32856	32818	
928	0	32826	32882	
929	0	32832	32727	
930	0	32808	32895	
931	0	32804	32936	
932	0	32792	32805	
933	0	32740	32840	
934	0	32810	32873	
935	0	32820	32805	
936	0	32860	32671	
937	0	32793	32640	
938	0	32674	32741	
939	0	32772	32793	
940	0	32869	32863	
941	0	32786	32867	
942	0	32716	32870	
943	0	32810	32765	
944	0	32704	32723	
945	0	32861	32796	
946	0	32884	32789	
947	0	32820	32792	
948	0	32849	32805	
949	0	32864	32775	
950	0	32808	32834	
951	0	32758	32839	
952	0	32857	32841	
953	0	32797	32962	
954	0	32832	32822	
955	0	32837	32784	
956	0	32905	32773	
957	0	32837	32825	
958	0	32854	32870	
959	0	32760	32760	
960	0	32788	32756	
961	0	32748	32850	
962	0	32758	32864	
963	0	32786	32817	
964	0	32822	32817	
965	0	32714	32650	
966	0	32770	32668	
967	0	32731	32763	
968	0	32825	32832	
969	0	32796	32916	
970	0	32837	32831	
971	0	32829	32758	
972	0	32801	32737	
973	0	32808	32870	
974	0	32790	32854	
975	0	32709	32800	
976	0	32758	32718	
977	0	32752	32766	
978	0	32890	32720	
979	0	32882	32890	
980	0	32896	32720	
981	0	32838	32884	
982	0	32760	32825	
983	0	32800	32760	
984	0	32828	32848	
985	0	32776	32862	
986	0	32824	32866	
987	0	32838	32840	
988	0	32799	32873	
989	0	32740	32839	
990	0	32849	32763	
991	0	32759	32728	
992	0	32856	32788	
993	0	32762	32839	
994	0	32816	32866	
995	0	32804	32892	
996	0	32837	32734	
997	0	32793	32715	
998	0	32856	32906	
999	0	32708	32898	
1000	0	32724	32869	
1001	0	32752	32804	
1002	0	32828	32785	
1003	0	32808	32806	
1004	0	32836	32648	
1005	0	32888	32793	
1006	0	32870	32799	
1007	0	32770	32851	
1008	0	32800	32801	
1009	0	32752	32855	
1010	0	32795	32807	
1011	0	32818	32787	
1012	0	32957	32828	
1013	0	32805	32670	
1014	0	32814	32834	
1015	0	32733	32840	
1016	0	32736	32903	
1017	0	32668	32787	
1018	0	32758	32775	
1019	0	32932	32813	
1020	0	32987	32841	
1021	0	32926	32904	
1022	0	32854	32820	
1023	0	32852	32832	
1024	0	32808	32900	
1025	0	32780	32821	
1026	0	32738	32894	
1027	0	32664	32944	
1028	0	32756	32903	
1029	0	32784	32749	
1030	0	32769	32799	
1031	0	32880	32667	
1032	0	32904	32612	
1033	0	32808	32775	
1034	0	32813	32816	
1035	0	32814	32860	
1036	0	32784	32749	
1037	0	32882	32803	
1038	0	32788	32799	
1039	0	32798	32826	
1040	0	32671	32847	
1041	0	32688	32724	
1042	0	32685	32848	
1043	0	32775	32779	
1044	0	32799	32787	
1045	0	32848	32861	
1046	0	32864	32869	
1047	0	32808	32792	
1048	0	32838	32805	
1049	0	32841	32775	
1050	0	32822	32848	
1051	0	32844	32839	
1052	0	32774	32728	
1053	0	32796	32822	
1054	0	32705	32884	
1055	0	32755	32792	
1056	0	32802	32734	
1057	0	32765	32812	
1058	0	32832	32814	
1059	0	32826	32831	
1060	0	32832	32815	
1061	0	32778	32758	
1062	0	32788	32883	
1063	0	32774	32847	
1064	0	32785	32845	
1065	0	32804	32687	
1066	0	32836	32775	
1067	0	32869	32848	
1068	0	32869	32832	
1069	0	32858	32907	
1070	0	32842	32772	
1071	0	32797	32830	
1072	0	32786	32855	
1073	0	32825	32805	
1074	0	32796	32696	
1075	0	32801	32710	
1076	0	32794	32775	
1077	0	32736	32841	
1078	0	32824	32775	
1079	0	32754	32744	
1080	0	32848	32868	
1081	0	32758	32853	
1082	0	32824	32934	
1083	0	32812	32856	
1084	0	32844	32770	
1085	0	32824	32670	
1086	0	32780	32734	
1087	0	32820	32743	
1088	0	32809	32775	
1089	0	32757	32860	
1090	0	32810	32851	
1091	0	32706	32741	
1092	0	32724	32722	
1093	0	32785	32732	
1094	0	32872	32809	
1095	0	32886	32819	
1096	0	32826	32720	
1097	0	32820	32762	
1098	0	32798	32838	
1099	0	32800	32885	
1100	0	32820	32754	
1101	0	32794	32834	
1102	0	32758	32900	
1103	0	32828	32899	
1104	0	32805	32829	
1105	0	32816	32784	
1106	0	32826	32743	
1107	0	32808	32801	
1108	0	32840	32850	
1109	0	32812	32868	
1110	0	32712	32750	
1111	0	32716	32717	
1112	0	32808	32808	
1113	0	32805	32927	
1114	0	32812	32800	
1115	0	32780	32740	
1116	0	32804	32800	
1117	0	32832	32864	
1118	0	32784	32864	
1119	0	32916	32736	
1120	0	32784	32760	
1121	0	32840	32813	
1122	0	32816	32846	
1123	0	32831	32851	
1124	0	32778	32760	
1125	0	32808	32816	
1126	0	32896	32935	
1127	0	32773	32796	
1128	0	32802	32754	
1129	0	32818	32826	
1130	0	32792	32800	
1131	0	32745	32818	
1132	0	32840	32694	
1133	0	32800	32740	
1134	0	32880	32816	
1135	0	32788	32826	
1136	0	32786	32896	
1137	0	32790	32838	
1138	0	32786	32850	
1139	0	32870	32871	
1140	0	32832	32741	
1141	0	32860	32761	
1142	0	32820	32842	
1143	0	32826	32853	
1144	0	32782	32817	
1145	0	32840	32731	
1146	0	32857	32771	
1147	0	32848	32821	
1148	0	32740	32926	
1149	0	32768	32719	
1150	0	32760	32837	
1151	0	32740	32859	
1152	0	32804	32832	
1153	0	32780	32723	
1154	0	32830	32968	
1155	0	32772	32866	
1156	0	32748	32826	
1157	0	32770	32836	
1158	0	32764	32775	
1159	0	32825	32830	
1160	0	32804	32857	
1161	0	32808	32751	
1162	0	32876	32763	
1163	0	32788	32672	
1164	0	32842	32859	
1165	0	32840	32832	
1166	0	32838	32864	
1167	0	32873	32749	
1168	0	32797	32684	
1169	0	32778	32800	
1170	0	32784	32873	
1171	0	32860	32886	
1172	0	32820	32756	
1173	0	32812	32751	
1174	0	32813	32853	
1175	0	32809	32879	
1176	0	32768	32718	
1177	0	32773	32797	
1178	0	32744	32672	
1179	0	32788	32775	
1180	0	32802	32759	
1181	0	32754	32763	
1182	0	32765	32702	
1183	0	32773	32762	
1184	0	32826	32827	
1185	0	32805	32870	
1186	0	32773	32710	
1187	0	32832	32754	
1188	0	32830	32859	
1189	0	32830	32763	
1190	0	32768	32649	
1191	0	32775	32724	
1192	0	32832	32758	
1193	0	32816	32831	
1194	0	32805	32816	
1195	0	32858	32804	
1196	0	32860	32785	
1197	0	32850	32855	
1198	0	32812	32846	
1199	0	32808	32751	
1200	0	32773	32854	
1201	0	32736	32844	
1202	0	32816	32901	
1203	0	32816	32756	
1204	0	32752	32773	
1205	0	32792	32794	
1206	0	32761	32840	
1207	0	32819	32716	
1208	0	32796	32848	
1209	0	32722	32902	
1210	0	32816	32864	
1211	0	32808	32789	
1212	0	32816	32818	
1213	0	32876	32870	
1214	0	32770	32801	
1215	0	32758	32717	
1216	0	32797	32764	
1217	0	32772	32878	
1218	0	32760	32757	
1219	0	32844	32891	
1220	0	32888	32805	
1221	0	32828	32650	
1222	0	32836	32797	
1223	0	32901	32901	
1224	0	32832	32786	
1225	0	32797	32775	
1226	0	32890	32786	
1227	0	32762	32807	
1228	0	32816	32745	
1229	0	32836	32829	
1230	0	32808	32817	
1231	0	32813	32816	
1232	0	32712	32707	
1233	0	32750	32802	
1234	0	32768	32856	
1235	0	32836	32737	
1236	0	32816	32775	
1237	0	32745	32857	
1238	0	32742	32902	
1239	0	32852	32792	
1240	0	32912	32741	
1241	0	32792	32858	
1242	0	32722	32854	
1243	0	32868	32757	
1244	0	32821	32760	
1245	0	32876	32797	
1246	0	32788	32828	
1247	0	32808	32759	
1248	0	32744	32816	
1249	0	32796	32785	
1250	0	32860	32801	
1251	0	32809	32678	
1252	0	32880	32813	
1253	0	32792	32840	
1254	0	32800	32839	
1255	0	32796	32811	
1256	0	32812	32863	
1257	0	32805	32901	
1258	0	32772	32729	
1259	0	32816	32864	
1260	0	32784	32804	
1261	0	32791	32876	
1262	0	32775	32672	
1263	0	32775	32730	
1264	0	32794	32793	
1265	0	32788	32816	
1266	0	32860	32784	
1267	0	32832	32750	
1268	0	32801	32791	
1269	0	32764	32829	
1270	0	32752	32746	
1271	0	32836	32745	
1272	0	32838	32818	
1273	0	32812	32839	
1274	0	32813	32819	
1275	0	32858	32790	
1276	0	32784	32775	
1277	0	32828	32740	
1278	0	32863	32832	
1279	0	32844	32756	
1280	0	32822	32808	
1281	0	32834	32789	
1282	0	32767	32828	
1283	0	32820	32870	
1284	0	32848	32688	
1285	0	32852	32797	
1286	0	32864	32800	
1287	0	32808	32796	
1288	0	32775	32750	
1289	0	32754	32863	
1290	0	32785	32831	
1291	0	32736	32745	
1292	0	32786	32845	
1293	0	32840	32773	
1294	0	32752	32834	
1295	0	32758	32704	
1296	0	32815	32823	
1297	0	32884	32957	
1298	0	32850	32692	
1299	0	32841	32877	
1300	0	32797	32771	
1301	0	32844	32785	
1302	0	32804	32891	
1303	0	32769	32716	
1304	0	32850	32784	
1305	0	32773	32848	
1306	0	32760	32879	
1307	0	32761	32846	
1308	0	32818	32755	
1309	0	32760	32845	
1310	0	32745	32821	
1311	0	32828	32912	
1312	0	32842	32785	
1313	0	32811	32766	
1314	0	32886	32741	
1315	0	32744	32813	
1316	0	32775	32874	
1317	0	32770	32790	
1318	0	32779	32846	
1319	0	32816	32758	
1320	0	32820	32843	
1321	0	32877	32758	
1322	0	32804	32660	
1323	0	32782	32773	
1324	0	32912	32828	
1325	0	32928	32831	
1326	0	32889	32632	
1327	0	32882	32699	
1328	0	32940	32615	
1329	0	32903	32713	
1330	0	33013	32592	
1331	0	32896	32572	
1332	0	32924	32611	
1333	0	32892	32727	
1334	0	32918	32668	
1335	0	32864	32645	
1336	0	32826	32770	
1337	0	32796	32806	
1338	0	32748	32885	
1339	0	32768	32949	
1340	0	32720	32796	
1341	0	32678	32825	
1342	0	32694	32865	
1343	0	32680	32936	
1344	0	32720	32848	
1345	0	32704	32851	
1346	0	32705	32945	
1347	0	32714	32903	
1348	0	32684	33158	
1349	0	32616	33004	
1350	0	32656	33048	
1351	0	32618	33119	
1352	0	32650	33214	
1353	0	32660	33055	
1354	0	32610	33037	
1355	0	32743	32991	
1356	0	32801	32741	
1357	0	32781	32910	
1358	0	32820	32967	
1359	0	32829	32944	
1360	0	32828	32738	
1361	0	32824	32701	
1362	0	32891	32744	
1363	0	32829	32726	
1364	0	32868	32647	
1365	0	32801	32723	
1366	0	32840	32739	
1367	0	32872	32715	
1368	0	32872	32607	
1369	0	32882	32677	
1370	0	32836	32677	
1371	0	32924	32760	
1372	0	32864	32647	
1373	0	32864	32672	
1374	0	32920	32865	
1375	0	32816	32683	
1376	0	32810	32753	
1377	0	32832	32767	
1378	0	32856	32839	
1379	0	32848	32809	
1380	0	32840	32741	
1381	0	32825	32754	
1382	0	32758	32802	
1383	0	32804	32775	
1384	0	32773	32851	
1385	0	32796	32774	
1386	0	32829	32807	
1387	0	32817	32839	
1388	0	32826	32704	
1389	0	32808	32826	
1390	0	32765	32894	
1391	0	32782	32796	
1392	0	32772	32930	
1393	0	32816	32733	
1394	0	32812	32761	
1395	0	32788	32808	
1396	0	32788	32796	
1397	0	32809	32814	
1398	0	32869	32791	
1399	0	32836	32730	
1400	0	32872	32871	
1401	0	32775	32808	
1402	0	32808	32786	
1403	0	32816	32918	
1404	0	32780	32837	
1405	0	32824	32786	
1406	0	32786	32791	
1407	0	32766	32751	
1408	0	32768	32757	
1409	0	32764	32859	
1410	0	32712	32859	
1411	0	32775	32720	
1412	0	32841	32858	
1413	0	32845	32775	
1414	0	32788	32802	
1415	0	32866	32866	
1416	0	32816	32773	
1417	0	32816	32738	
1418	0	32874	32829	
1419	0	32813	32863	
1420	0	32792	32817	
1421	0	32850	32830	
1422	0	32844	32830	
1423	0	32768	32860	
1424	0	32790	32848	
1425	0	32769	32735	
1426	0	32793	32728	
1427	0	32857	32841	
1428	0	32778	32827	
1429	0	32801	32877	
1430	0	32808	32739	
1431	0	32832	32793	
1432	0	32831	32687	
1433	0	32829	32785	
1434	0	32856	32890	
1435	0	32801	32769	
1436	0	32812	32811	
1437	0	32774	32840	
1438	0	32836	32793	
1439	0	32788	32848	
1440	0	32811	32839	
1441	0	32836	32690	
1442	0	32832	32824	
1443	0	32812	32810	
1444	0	32800	32773	
1445	0	32784	32736	
1446	0	32820	32824	
1447	0	32816	32713	
1448	0	32800	32886	
1449	0	32808	32785	
1450	0	32816	32867	
1451	0	32756	32710	
1452	0	32785	32857	
1453	0	32800	32867	
1454	0	32804	32860	
1455	0	32775	32771	
1456	0	32793	32794	
1457	0	32838	32843	
1458	0	32816	32846	
1459	0	32848	32864	
1460	0	32869	32712	
1461	0	32808	32835	
1462	0	32871	32771	
1463	0	32794	32764	
1464	0	32788	32727	
1465	0	32812	32903	
1466	0	32800	32893	
1467	0	32793	32768	
1468	0	32760	32741	
1469	0	32702	32834	
1470	0	32780	32841	
1471	0	32790	32859	
1472	0	32805	32775	
1473	0	32822	32869	
1474	0	32856	32813	
1475	0	32856	32883	
1476	0	32793	32732	
1477	0	32773	32828	
1478	0	32872	32746	
1479	0	32772	32717	
1480	0	32834	32786	
1481	0	32775	32802	
1482	0	32839	32815	
1483	0	32809	32752	
1484	0	32820	32890	
1485	0	32906	32686	
1486	0	32804	32832	
1487	0	32788	32888	
1488	0	32864	32792	
1489	0	32872	32765	
1490	0	32786	32822	
1491	0	32774	32901	
1492	0	32775	32844	
1493	0	32813	32692	
1494	0	32860	32841	
1495	0	32768	32839	
1496	0	32797	32859	
1497	0	32834	32825	
1498	0	32816	32727	
1499	0	32816	32852	
1500	0	32761	32879	
1501	0	32786	32830	
1502	0	32834	32720	
1503	0	32896	32837	
1504	0	32768	32933	
1505	0	32784	32704	
1506	0	32744	32771	
1507	0	32789	32850	
1508	0	32780	32737	
1509	0	32829	32772	
1510	0	32832	32857	
1511	0	32836	32860	
1512	0	32892	32789	
1513	0	32832	32644	
1514	0	32796	32790	
1515	0	32860	32837	
1516	0	32828	32862	
1517	0	32901	32795	
1518	0	32764	32775	
1519	0	32774	32864	
1520	0	32762	32788	
1521	0	32816	32827	
1522	0	32796	32904	
1523	0	32824	32731	
1524	0	32868	32680	
1525	0	32874	32856	
1526	0	32832	32850	
1527	0	32784	32873	
1528	0	32764	32805	
1529	0	32792	32766	
1530	0	32872	32835	
1531	0	32728	32790	
1532	0	32772	32814	
1533	0	32794	32793	
1534	0	32762	32759	
1535	0	32816	32896	
1536	0	32840	32816	
1537	0	32802	32907	
1538	0	32844	32886	
1539	0	32816	32789	
1540	0	32829	32750	
1541	0	32824	32787	
1542	0	32804	32799	
1543	0	32800	32869	
1544	0	32741	32847	
1545	0	32808	32754	
1546	0	32852	32775	
1547	0	32868	32769	
1548	0	32776	32685	
1549	0	32826	32775	
1550	0	32752	32809	
1551	0	32812	32761	
1552	0	32792	32815	
1553	0	32788	32811	
1554	0	32804	32942	
1555	0	32869	32871	
1556	0	32850	32832	
1557	0	32746	32711	
1558	0	32804	32775	
1559	0	32805	32864	
1560	0	32806	32764	
1561	0	32789	32807	
1562	0	32768	32807	
1563	0	32758	32918	
1564	0	32736	32652	
1565	0	32877	32790	
1566	0	32766	32794	
1567	0	32800	32930	
1568	0	32865	32715	
1569	0	32772	32828	
1570	0	32786	32790	
1571	0	32800	32853	
1572	0	32808	32689	
1573	0	32831	32845	
1574	0	32837	32853	
1575	0	32842	32732	
1576	0	32856	32826	
1577	0	32836	32850	
1578	0	32838	32766	
1579	0	32865	32775	
1580	0	32774	32868	
1581	0	32828	32782	
1582	0	32804	32838	
1583	0	32768	32877	
1584	0	32804	32775	
1585	0	32869	32731	
1586	0	32824	32774	
1587	0	32790	32895	
1588	0	32800	32815	
1589	0	32812	32763	
1590	0	32772	32870	
1591	0	32768	32677	
1592	0	32814	32756	
1593	0	32798	32790	
1594	0	32740	32859	
1595	0	32840	32700	
1596	0	32804	32843	
1597	0	32796	32846	
1598	0	32840	32871	
1599	0	32784	32743	
1600	0	32775	32775	
1601	0	32850	32775	
1602	0	32834	32844	
1603	0	32786	32861	
1604	0	32718	32832	
1605	0	32774	32801	
1606	0	32832	32917	
1607	0	32778	32843	
1608	0	32816	32801	
1609	0	32829	32809	
1610	0	32754	32854	
1611	0	32796	32752	
1612	0	32800	32874	
1613	0	32763	32866	
1614	0	32826	32882	
1615	0	32758	32717	
1616	0	32786	32833	
1617	0	32755	32833	
1618	0	32760	32870	
1619	0	32809	32775	
1620	0	32820	32821	
1621	0	32836	32839	
1622	0	32713	32816	
1623	0	32748	32732	
1624	0	32794	32802	
1625	0	32790	32896	
1626	0	32784	32764	
1627	0	32818	32775	
1628	0	32790	32799	
1629	0	32780	32806	
1630	0	32786	32856	
1631	0	32757	32765	
1632	0	32868	32856	
1633	0	32808	32966	
1634	0	32805	32832	
1635	0	32805	32727	
1636	0	32848	32841	
1637	0	32792	32903	
1638	0	32832	32804	
1639	0	32800	32785	
1640	0	32814	32731	
1641	0	32710	32761	
1642	0	32794	32899	
1643	0	32800	32828	
1644	0	32850	32755	
1645	0	32768	32824	
1646	0	32784	32892	
1647	0	32812	32808	
1648	0	32841	32731	
1649	0	32808	32841	
1650	0	32868	32805	
1651	0	32860	32870	
1652	0	32841	32766	
1653	0	32800	32751	
1654	0	32786	32826	
1655	0	32778	32805	
1656	0	32752	32891	
1657	0	32809	32728	
1658	0	32900	32775	
1659	0	32782	32844	
1660	0	32752	32823	
1661	0	32816	32742	
1662	0	32820	32733	
1663	0	32818	32775	
1664	0	32873	32896	
1665	0	32792	32754	
1666	0	32792	32873	
1667	0	32852	32848	
1668	0	32848	32862	
1669	0	32789	32681	
1670	0	32763	32858	
1671	0	32740	32880	
1672	0	32792	32851	
1673	0	32762	32744	
1674	0	32836	32809	
1675	0	32808	32849	
1676	0	32775	32797	
1677	0	32764	32660	
1678	0	32794	32772	
1679	0	32836	32804	
1680	0	32836	32874	
1681	0	32789	32822	
1682	0	32800	32829	
1683	0	32824	32824	
1684	0	32799	32767	
1685	0	32824	32859	
1686	0	32754	32861	
1687	0	32814	32786	
1688	0	32801	32877	
1689	0	32798	32797	
1690	0	32829	32844	
1691	0	32832	32775	
1692	0	32752	32710	
1693	0	32775	32793	
1694	0	32832	32784	
1695	0	32858	32815	
1696	0	32789	32898	
1697	0	32784	32869	
1698	0	32856	32761	
1699	0	32802	32839	
1700	0	32824	32824	
1701	0	32781	32877	
1702	0	32804	32764	
1703	0	32825	32713	
1704	0	32756	32775	
1705	0	32791	32797	
1706	0	32832	32853	
1707	0	32788	32790	
1708	0	32868	32710	
1709	0	32801	32839	
1710	0	32797	32920	
1711	0	32840	32793	
1712	0	32820	32789	
1713	0	32805	32818	
1714	0	32848	32823	
1715	0	32822	32823	
1716	0	32854	32734	
1717	0	32760	32685	
1718	0	32789	32800	
1719	0	32740	32755	
1720	0	32810	32823	
1721	0	32792	32857	
1722	0	32800	32647	
1723	0	32850	32741	
1724	0	32848	32801	
1725	0	32802	32825	
1726	0	32775	32749	
1727	0	32824	32802	
1728	0	32731	32823	
1729	0	32773	32868	
1730	0	32816	32845	
1731	0	32793	32897	
1732	0	32829	32850	
1733	0	32801	32799	
1734	0	32788	32734	
1735	0	32792	32829	
1736	0	32824	32785	
1737	0	32818	32786	
1738	0	32816	32730	
1739	0	32788	32884	
1740	0	32800	32832	
1741	0	32798	32834	
1742	0	32802	32812	
1743	0	32777	32818	
1744	0	32832	32841	
1745	0	32824	32844	
1746	0	32792	32896	
1747	0	32796	32867	
1748	0	32784	32831	
1749	0	32868	32868	
1750	0	32785	32839	
1751	0	32754	32765	
1752	0	32788	32740	
1753	0	32754	32812	
1754	0	32784	32833	
1755	0	32832	32837	
1756	0	32812	32807	
1757	0	32758	32839	
1758	0	32793	32817	
1759	0	32812	32751	
1760	0	32824	32649	
1761	0	32864	32811	
1762	0	32832	32936	
1763	0	32796	32816	
1764	0	32893	32747	
1765	0	32797	32760	
1766	0	32797	32775	
1767	0	32784	32761	
1768	0	32808	32757	
1769	0	32775	32817	
1770	0	32864	32755	
1771	0	32856	32792	
1772	0	32796	32839	
1773	0	32877	32794	
1774	0	32797	32816	
1775	0	32816	32886	
1776	0	32744	32881	
1777	0	32814	32800	
1778	0	32766	32723	
1779	0	32720	32850	
1780	0	32896	32840	
1781	0	32813	32824	
1782	0	32850	32719	
1783	0	32828	32752	
1784	0	32842	32697	
1785	0	32786	32739	
1786	0	32793	32774	
1787	0	32769	32805	
1788	0	32837	32808	
1789	0	32816	32839	
1790	0	32760	32850	
1791	0	32800	32812	
1792	0	32720	32758	
1793	0	32808	32818	
1794	0	32848	32837	
1795	0	32820	32780	
1796	0	32813	32723	
1797	0	32809	32860	
1798	0	32894	32823	
1799	0	32796	32860	
1800	0	32803	32837	
1801	0	32812	32820	
1802	0	32765	32731	
1803	0	32768	32711	
1804	0	32854	32820	
1805	0	32824	32869	
1806	0	32828	32809	
1807	0	32793	32839	
1808	0	32797	32888	
1809	0	32713	32810	
1810	0	32816	32796	
1811	0	32798	32752	
1812	0	32730	32874	
1813	0	32809	32775	
1814	0	32808	32886	
1815	0	32737	32740	
1816	0	32781	32636	
1817	0	32810	32851	
1818	0	32832	32864	
1819	0	32845	32910	
1820	0	32831	32724	
1821	0	32764	32851	
1822	0	32796	32796	
1823	0	32748	32765	
1824	0	32814	32829	
1825	0	32832	32861	
1826	0	32810	32890	
1827	0	32885	32839	
1828	0	32816	32844	
1829	0	32788	32835	
1830	0	32748	32913	
1831	0	32784	32773	
1832	0	32825	32799	
1833	0	32812	32801	
1834	0	32780	32765	
1835	0	32768	32762	
1836	0	32776	32761	
1837	0	32790	32834	
1838	0	32809	32852	
1839	0	32808	32824	
1840	0	32824	32820	
1841	0	32792	32834	
1842	0	32880	32848	
1843	0	32774	32841	
1844	0	32822	32775	
1845	0	32805	32722	
1846	0	32852	32792	
1847	0	32844	32692	
1848	0	32798	32811	
1849	0	32756	32835	
1850	0	32778	32844	
1851	0	32848	32807	
1852	0	32830	32838	
1853	0	32792	32870	
1854	0	32756	32832	
1855	0	32772	32653	
1856	0	32780	32917	
1857	0	32786	32828	
1858	0	32852	32793	
1859	0	32808	32910	
1860	0	32802	32900	
1861	0	32836	32880	
1862	0	32822	32886	
1863	0	32758	32910	
1864	0	32848	32787	
1865	0	32808	32738	
1866	0	32832	32732	
1867	0	32775	32698	
1868	0	32876	32771	
1869	0	32775	32760	
1870	0	32752	32809	
1871	0	32817	32864	
1872	0	32758	32825	
1873	0	32820	32737	
1874	0	32860	32895	
1875	0	32834	32847	
1876	0	32804	32824	
1877	0	32756	32722	
1878	0	32818	32732	
1879	0	32741	32818	
1880	0	32748	32825	
1881	0	32820	32835	
1882	0	32805	32871	
1883	0	32706	32880	
1884	0	32897	32957	
1885	0	32828	32872	
1886	0	32818	32883	
1887	0	32831	32876	
1888	0	32832	32764	
1889	0	32842	32722	
1890	0	32797	32729	
1891	0	32812	32833	
1892	0	32740	32886	
1893	0	32842	32829	
1894	0	32760	32748	
1895	0	32838	32803	
1896	0	32856	32805	
1897	0	32816	32846	
1898	0	32796	32791	
1899	0	32844	32861	
1900	0	32828	32718	
1901	0	32773	32739	
1902	0	32826	32827	
1903	0	32776	32866	
1904	0	32808	32895	
1905	0	32820	32733	
1906	0	32808	32847	
1907	0	32760	32812	
1908	0	32836	32817	
1909	0	32797	32844	
1910	0	32856	32682	
1911	0	32784	32797	
1912	0	32796	32876	
1913	0	32782	32857	
1914	0	32834	32702	
1915	0	32760	32802	
1916	0	32832	32856	
1917	0	32746	32754	
1918	0	32780	32840	
1919	0	32870	32796	
1920	0	32842	32869	
1921	0	32782	32892	
1922	0	32808	32704	
1923	0	32812	32814	
1924	0	32808	32857	
1925	0	32752	32895	
1926	0	32797	32873	
1927	0	32777	32730	
1928	0	32760	32694	
1929	0	32788	32809	
1930	0	32775	32795	
1931	0	32772	32897	
1932	0	32768	32774	
1933	0	32808	32775	
1934	0	32775	32775	
1935	0	32808	32807	
1936	0	32797	32891	
1937	0	32882	32896	
1938	0	32796	32713	
1939	0	32868	32797	
1940	0	32852	32811	
1941	0	32764	32875	
1942	0	32798	32796	
1943	0	32848	32809	
1944	0	32724	32733	
1945	0	32805	32805	
1946	0	32828	32824	
1947	0	32740	32817	
1948	0	32789	32738	
1949	0	32820	32820	
1950	0	32846	32897	
1951	0	32860	32724	
1952	0	32836	32829	
1953	0	32879	32796	
1954	0	32794	32841	
1955	0	32817	32765	
1956	0	32775	32823	
1957	0	32794	32836	
1958	0	32808	32864	
1959	0	32839	32728	
1960	0	32776	32839	
1961	0	32910	32775	
1962	0	32764	32952	
1963	0	32825	32797	
1964	0	32800	32724	
1965	0	32822	32715	
1966	0	32768	32843	
1967	0	32772	32868	
1968	0	32772	32805	
1969	0	32808	32878	
1970	0	32751	32774	
1971	0	32886	32716	
1972	0	32832	32825	
1973	0	32770	32900	
1974	0	32765	32868	
1975	0	32780	32744	
1976	0	32797	32746	
1977	0	32816	32775	
1978	0	32837	32705	
1979	0	32793	32809	
1980	0	32690	32795	
1981	0	32813	32854	
1982	0	32834	32879	
1983	0	32780	32758	
1984	0	32873	32757	
1985	0	32741	32703	
1986	0	32850	32796	
1987	0	32820	32862	
1988	0	32776	32893	
1989	0	32792	32880	
1990	0	32800	32757	
1991	0	32761	32758	
1992	0	32761	32815	
1993	0	32792	32834	
1994	0	32797	32747	
1995	0	32816	32822	
1996	0	32812	32791	
1997	0	32780	32706	
1998	0	32775	32887	
1999	0	32800	32834	
2000	0	32824	32869	
2001	0	32792	32722	
2002	0	32816	32848	
2003	0	32808	32807	
2004	0	32725	32884	
2005	0	32841	32690	
2006	0	32864	32710	
2007	0	32733	32818	
2008	0	32768	32803	
2009	0	32796	32919	
2010	0	32776	32828	
2011	0	32804	32760	
2012	0	32804	32824	
2013	0	32838	32828	
2014	0	32832	32864	
2015	0	32834	32774	
2016	0	32807	32769	
2017	0	32776	32773	
2018	0	32736	32806	
2019	0	32912	32903	
2020	0	32820	32857	
2021	0	32848	32733	
2022	0	32753	32765	
2023	0	32803	32832	
2024	0	32779	32839	
2025	0	32841	32822	
2026	0	32820	32867	
2027	0	32744	32713	
2028	0	32799	32788	
2029	0	32822	32850	
2030	0	32824	32834	
2031	0	32832	32736	
2032	0	32768	32824	
2033	0	32775	32907	
2034	0	32747	32819	
2035	0	32843	32813	
2036	0	32882	32770	
2037	0	32793	32834	
2038	0	32836	32775	
2039	0	32862	32846	
2040	0	32748	32798	
2041	0	32775	32754	
2042	0	32846	32744	
2043	0	32804	32832	
2044	0	32832	32826	
2045	0	32820	32775	
2046	0	32816	32868	
2047	0	32820	32875	
2048	0	32800	32846	
2049	0	32804	32757	
2050	0	32812	32701	
2051	0	32760	32756	
2052	0	32793	32871	
2053	0	32788	32876	
2054	0	32880	32839	
2055	0	32856	32839	
2056	0	32818	32749	
2057	0	32804	32786	
2058	0	32772	32834	
2059	0	32876	32819	
2060	0	32800	32832	
2061	0	32804	32849	
2062	0	32801	32877	
2063	0	32782	32767	
2064	0	32776	32775	
2065	0	32824	32754	
2066	0	32790	32934	
2067	0	32764	32974	
2068	0	32828	32969	
2069	0	32838	32679	
2070	0	32818	32759	
2071	0	32778	32735	
2072	0	32752	32715	
2073	0	32797	32706	
2074	0	32800	32812	
2075	0	32766	32764	
2076	0	32880	32816	
2077	0	32822	32818	
2078	0	32802	32859	
2079	0	32846	32808	
2080	0	32856	32846	
2081	0	32848	32812	
2082	0	32802	32761	
2083	0	32826	32735	
2084	0	32874	32770	
2085	0	32816	32895	
2086	0	32782	32820	
2087	0	32788	32836	
2088	0	32754	32763	
2089	0	32760	32868	
2090	0	32810	32859	
2091	0	32808	32867	
2092	0	32824	32793	
2093	0	32864	32873	
2094	0	32824	32752	
2095	0	32786	32713	
2096	0	32722	32738	
2097	0	32868	32816	
2098	0	32781	32816	
2099	0	32805	32808	
2100	0	32792	32741	
2101	0	32752	32766	
2102	0	32824	32866	
2103	0	32825	32809	
2104	0	32760	32949	
2105	0	32738	32706	
2106	0	32808	32867	
2107	0	32792	32791	
2108	0	32878	32775	
2109	0	32848	32840	
2110	0	32704	32800	
2111	0	32868	32752	
2112	0	32768	32856	
2113	0	32818	32766	
2114	0	32813	32805	
2115	0	32832	32755	
2116	0	32852	32793	
2117	0	32788	32808	
2118	0	32740	32713	
2119	0	32792	32828	
2120	0	32792	32805	
2121	0	32848	32805	
2122	0	32818	32693	
2123	0	32768	32856	
2124	0	32796	32845	
2125	0	32762	32832	
2126	0	32813	32764	
2127	0	32890	32748	
2128	0	32800	32775	
2129	0	32870	32868	
2130	0	32825	32704	
2131	0	32813	32775	
2132	0	32818	32819	
2133	0	32773	32919	
2134	0	32899	32744	
2135	0	32775	32801	
2136	0	32768	32853	
2137	0	32754	32762	
2138	0	32816	32692	
2139	0	32872	32775	
2140	0	32880	32822	
2141	0	32748	32762	
2142	0	32769	32749	
2143	0	32785	32898	
2144	0	32828	32799	
2145	0	32800	32818	
2146	0	32802	32775	
2147	0	32786	32855	
2148	0	32825	32871	
2149	0	32808	32854	
2150	0	32790	32871	
2151	0	32788	32876	
2152	0	32728	32860	
2153	0	32802	32804	
2154	0	32730	32758	
2155	0	32820	32723	
2156	0	32848	32807	
2157	0	32781	32822	
2158	0	32800	32754	
2159	0	32720	32841	
2160	0	32757	32844	
2161	0	32770	32815	
2162	0	32842	32762	
2163	0	32827	32788	
2164	0	32840	32851	
2165	0	32816	32755	
2166	0	32824	32838	
2167	0	32772	32899	
2168	0	32736	32775	
2169	0	32741	32676	
2170	0	32864	32772	
2171	0	32775	32882	
2172	0	32824	32786	
2173	0	32826	32797	
2174	0	32836	32807	
2175	0	32813	32735	
2176	0	32869	32791	
2177	0	32804	32858	
2178	0	32858	32787	
2179	0	32797	32742	
2180	0	32789	32827	
2181	0	32808	32824	
2182	0	32804	32809	
2183	0	32806	32832	
2184	0	32758	32821	
2185	0	32778	32809	
2186	0	32828	32775	
2187	0	32764	32874	
2188	0	32816	32775	
2189	0	32772	32873	
2190	0	32824	32775	
2191	0	32870	32745	
2192	0	32863	32820	
2193	0	32857	32869	
2194	0	32784	32713	
2195	0	32768	32790	
2196	0	32758	32804	
2197	0	32780	32782	
2198	0	32820	32733	
2199	0	32788	32797	
2200	0	32760	32755	
2201	0	32805	32929	
2202	0	32801	32742	
2203	0	32720	32760	
2204	0	32769	32888	
2205	0	32780	32864	
2206	0	32852	32868	
2207	0	32828	32771	
2208	0	32808	32877	
2209	0	32774	32888	
2210	0	32818	32742	
2211	0	32784	32853	
2212	0	32832	32829	
2213	0	32801	32794	
2214	0	32812	32765	
2215	0	32841	32771	
2216	0	32808	32903	
2217	0	32785	32825	
2218	0	32816	32858	
2219	0	32828	32763	
2220	0	32788	32722	
2221	0	32830	32737	
2222	0	32828	32861	
2223	0	32781	32852	
2224	0	32770	32754	
2225	0	32804	32741	
2226	0	32854	32854	
2227	0	32762	32895	
2228	0	32810	32807	
2229	0	32744	32823	
2230	0	32828	32808	
2231	0	32801	32911	
2232	0	32850	32788	
2233	0	32688	32759	
2234	0	32813	32752	
2235	0	32827	32882	
2236	0	32812	32795	
2237	0	32802	32728	
2238	0	32835	32784	
2239	0	32856	32879	
2240	0	32772	32698	
2241	0	32761	32745	
2242	0	32722	32873	
2243	0	32844	32897	
2244	0	32819	32722	
2245	0	32805	32833	
2246	0	32804	32815	
2247	0	32846	32824	
2248	0	32852	32741	
2249	0	32846	32672	
2250	0	32850	32814	
2251	0	32780	32829	
2252	0	32740	32841	
2253	0	32828	32766	
2254	0	32740	32820	
2255	0	32778	32895	
2256	0	32796	32800	
2257	0	32816	32795	
2258	0	32787	32812	
2259	0	32758	32805	
2260	0	32844	32742	
2261	0	32809	32780	
2262	0	32826	32854	
2263	0	32772	32774	
2264	0	32800	32682	
2265	0	32808	32729	
2266	0	32804	32807	
2267	0	32886	32809	
2268	0	32816	32805	
2269	0	32809	32869	
2270	0	32734	32828	
2271	0	32760	32812	
2272	0	32754	32734	
2273	0	32770	32787	
2274	0	32784	32859	
2275	0	32784	32892	
2276	0	32844	32826	
2277	0	32799	32786	
2278	0	32788	32762	
2279	0	32748	32799	
2280	0	32848	32828	
2281	0	32784	32740	
2282	0	32808	32844	
2283	0	32816	32839	
2284	0	32828	32902	
2285	0	32801	32822	
2286	0	32775	32698	
2287	0	32792	32836	
2288	0	32758	32853	
2289	0	32821	32914	
2290	0	32804	32851	
2291	0	32809	32819	
2292	0	32805	32694	
2293	0	32747	32678	
2294	0	32832	32753	
2295	0	32784	32740	
2296	0	32779	32809	
2297	0	32745	32865	
2298	0	32800	32765	
2299	0	32732	32875	
2300	0	32795	32835	
2301	0	32808	32793	
2302	0	32818	32786	
2303	0	32828	32839	
2304	0	32780	32848	
2305	0	32762	32775	
2306	0	32797	32775	
2307	0	32802	32843	
2308	0	32808	32844	
2309	0	32830	32855	
2310	0	32807	32844	
2311	0	32826	32868	
2312	0	32808	32714	
2313	0	32792	32736	
2314	0	32850	32724	
2315	0	32824	32796	
2316	0	32834	32845	
2317	0	32868	32912	
2318	0	32784	32968	
2319	0	32796	32973	
2320	0	32828	32847	
2321	0	32810	32775	
2322	0	32800	32703	
2323	0	32752	32610	
2324	0	32820	32775	
2325	0	32706	32851	
2326	0	32732	32832	
2327	0	32776	32958	
2328	0	32740	32900	
2329	0	32766	32861	
2330	0	32777	32756	
2331	0	32840	32704	
2332	0	32802	32768	
2333	0	32800	32724	
2334	0	32786	32752	
2335	0	32747	32850	
2336	0	32800	32747	
2337	0	32792	32823	
2338	0	32812	32768	
2339	0	32844	32822	
2340	0	32856	32736	
2341	0	32861	32720	
2342	0	32867	32742	
2343	0	32922	32696	
2344	0	32896	32805	
2345	0	32958	32744	
2346	0	33008	32671	
2347	0	32948	32496	
2348	0	33043	32538	
2349	0	32917	32545	
2350	0	32988	32647	
2351	0	32841	32652	
2352	0	32802	32750	
2353	0	32862	32890	
2354	0	32896	32869	
2355	0	32776	32937	
2356	0	32620	32988	
2357	0	32677	32902	
2358	0	32662	32886	
2359	0	32712	32864	
2360	0	32756	32789	
2361	0	32608	32826	
2362	0	32620	32880	
2363	0	32714	32903	
2364	0	32724	32978	
2365	0	32682	33001	
2366	0	32644	33101	
2367	0	32620	33141	
2368	0	32664	33122	
2369	0	32634	33119	
2370	0	32648	33175	
2371	0	32680	33164	
2372	0	32700	33095	
2373	0	32704	33027	
2374	0	32760	33004	
2375	0	32824	32978	
2376	0	32840	32856	
2377	0	32808	32728	
2378	0	32780	32775	
2379	0	32869	32800	
2380	0	32856	32617	
2381	0	32877	32649	
2382	0	32872	32626	
2383	0	32800	32696	
2384	0	32921	32652	
2385	0	32928	32733	
2386	0	32909	32833	
2387	0	32781	32715	
2388	0	32878	32660	
2389	0	32882	32735	
2390	0	32848	32712	
2391	0	32872	32812	
2392	0	32831	32762	
2393	0	32834	32663	
2394	0	32948	32716	
2395	0	32832	32758	
2396	0	32800	32850	
2397	0	32856	32824	
2398	0	32846	32707	
2399	0	32817	32692	
2400	0	32762	32853	
2401	0	32824	32807	
2402	0	32812	32797	
2403	0	32762	32715	
2404	0	32837	32839	
2405	0	32880	32872	
2406	0	32810	32921	
2407	0	32775	32738	
2408	0	32828	32841	
2409	0	32840	32862	
2410	0	32879	32764	
2411	0	32758	32686	
2412	0	32892	32864	
2413	0	32762	32807	
2414	0	32827	32884	
2415	0	32842	32750	
2416	0	32813	32854	
2417	0	32781	32787	
2418	0	32857	32771	
2419	0	32814	32686	
2420	0	32758	32812	
2421	0	32805	32866	
2422	0	32840	32718	
2423	0	32816	32802	
2424	0	32824	32879	
2425	0	32796	32848	
2426	0	32826	32793	
2427	0	32844	32761	
2428	0	32881	32813	
2429	0	32765	32818	
2430	0	32779	32870	
2431	0	32754	32866	
2432	0	32710	32825	
2433	0	32800	32787	
2434	0	32804	32754	
2435	0	32818	32802	
2436	0	32852	32788	
2437	0	32872	32775	
2438	0	32800	32786	
2439	0	32816	32787	
2440	0	32809	32747	
2441	0	32752	32770	
2442	0	32808	32971	
2443	0	32826	32709	
2444	0	32807	32775	
2445	0	32852	32840	
2446	0	32865	32790	
2447	0	32762	32805	
2448	0	32861	32885	
2449	0	32784	32742	
2450	0	32882	32896	
2451	0	32740	32782	
2452	0	32784	32754	
2453	0	32784	32840	
2454	0	32814	32807	
2455	0	32767	32898	
2456	0	32799	32775	
2457	0	32752	32733	
2458	0	32788	32763	
2459	0	32804	32813	
2460	0	32804	32784	
2461	0	32765	32834	
2462	0	32784	32817	
2463	0	32832	32794	
2464	0	32836	32902	
2465	0	32832	32873	
2466	0	32770	32813	
2467	0	32797	32775	
2468	0	32804	32720	
2469	0	32794	32713	
2470	0	32844	32818	
2471	0	32788	32805	
2472	0	32800	32818	
2473	0	32752	32851	
2474	0	32892	32800	
2475	0	32864	32831	
2476	0	32832	32767	
2477	0	32772	32765	
2478	0	32724	32874	
2479	0	32768	32775	
2480	0	32808	32722	
2481	0	32788	32775	
2482	0	32812	32858	
2483	0	32770	32769	
2484	0	32808	32775	
2485	0	32852	32876	
2486	0	32752	32903	
2487	0	32824	32902	
2488	0	32852	32873	
2489	0	32836	32892	
2490	0	32763	32895	
2491	0	32808	32857	
2492	0	32808	32787	
2493	0	32773	32942	
2494	0	32812	32968	
2495	0	32824	32879	
2496	0	32814	32708	
2497	0	32836	32733	
2498	0	32804	32752	
2499	0	32852	32829	
2500	0	32765	32816	
2501	0	32748	32903	
2502	0	32801	32837	
2503	0	32824	32775	
2504	0	32793	32768	
2505	0	32788	32775	
2506	0	32836	32923	
2507	0	32800	32841	
2508	0	32884	32706	
2509	0	32776	32708	
2510	0	32804	32756	
2511	0	32856	32775	
2512	0	32731	32820	
2513	0	32804	32838	
2514	0	32805	32817	
2515	0	32784	32724	
2516	0	32732	32710	
2517	0	32836	32876	
2518	0	32844	32869	
2519	0	32758	32870	
2520	0	32832	32832	
2521	0	32866	32676	
2522	0	32817	32736	
2523	0	32810	32797	
2524	0	32746	32716	
2525	0	32769	32810	
2526	0	32928	32851	
2527	0	32860	32916	
2528	0	32762	32816	
2529	0	32848	32775	
2530	0	32800	32748	
2531	0	32760	32765	
2532	0	32752	32824	
2533	0	32808	32767	
2534	0	32804	32870	
2535	0	32816	32860	
2536	0	32746	32767	
2537	0	32764	32844	
2538	0	32840	32844	
2539	0	32804	32902	
2540	0	32824	32697	
2541	0	32784	32674	
2542	0	32846	32775	
2543	0	32801	32872	
2544	0	32818	32836	
2545	0	32780	32832	
2546	0	32794	32722	
2547	0	32780	32759	
2548	0	32764	32798	
2549	0	32860	32775	
2550	0	32797	32841	
2551	0	32754	32871	
2552	0	32800	32741	
2553	0	32756	32850	
2554	0	32779	32831	
2555	0	32760	32814	
2556	0	32824	32872	
2557	0	32816	32854	
2558	0	32836	32747	
2559	0	32816	32846	
2560	0	32792	32846	
2561	0	32824	32713	
2562	0	32837	32705	
2563	0	32876	32839	
2564	0	32804	32935	
2565	0	32824	33026	
2566	0	32771	32850	
2567	0	32793	32846	
2568	0	32816	32873	
2569	0	32844	32741	
2570	0	32745	32535	
2571	0	32826	32619	
2572	0	32772	32796	
2573	0	32882	32850	
2574	0	32850	32861	
2575	0	32775	32771	
2576	0	32754	32863	
2577	0	32824	32806	
2578	0	32846	32909	
2579	0	32788	32872	
2580	0	32840	32749	
2581	0	32813	32775	
2582	0	32850	32850	
2583	0	32794	32813	
2584	0	32864	32812	
2585	0	32788	32825	
2586	0	32808	32834	
2587	0	32798	32791	
2588	0	32788	32724	
2589	0	32822	32869	
2590	0	32779	32834	
2591	0	32722	32902	
2592	0	32852	32730	
2593	0	32808	32738	
2594	0	32766	32819	
2595	0	32836	32882	
2596	0	32805	32746	
2597	0	32844	32715	
2598	0	32820	32815	
2599	0	32792	32868	
2600	0	32848	32808	
2601	0	32796	32740	
2602	0	32778	32903	
2603	0	32780	32799	
2604	0	32765	32868	
2605	0	32840	32728	
2606	0	32834	32834	
2607	0	32864	32805	
2608	0	32825	32826	
2609	0	32765	32763	
2610	0	32797	32902	
2611	0	32780	32848	
2612	0	32826	32856	
2613	0	32796	32745	
2614	0	32816	32783	
2615	0	32820	32839	
2616	0	32856	32897	
2617	0	32795	32789	
2618	0	32768	32813	
2619	0	32852	32802	
2620	0	32782	32775	
2621	0	32824	32911	
2622	0	32788	32787	
2623	0	32736	32741	
2624	0	32740	32789	
2625	0	32816	32854	
2626	0	32808	32852	
2627	0	32761	32784	
2628	0	32797	32788	
2629	0	32762	32947	
2630	0	32726	32861	
2631	0	32742	32810	
2632	0	32808	32748	
2633	0	32754	32811	
2634	0	32805	32812	
2635	0	32828	32797	
2636	0	32834	32766	
2637	0	32842	32822	
2638	0	32768	32853	
2639	0	32888	32850	
2640	0	32805	32847	
2641	0	32786	32829	
2642	0	32836	32746	
2643	0	32841	32883	
2644	0	32804	32822	
2645	0	32859	32841	
2646	0	32748	32767	
2647	0	32809	32837	
2648	0	32831	32869	
2649	0	32779	32937	
2650	0	32770	32843	
2651	0	32805	32761	
2652	0	32775	32708	
2653	0	32765	32820	
2654	0	32768	32839	
2655	0	32818	32839	
2656	0	32832	32855	
2657	0	32804	32713	
2658	0	32764	32743	
2659	0	32828	32831	
2660	0	32728	32835	
2661	0	32748	32902	
2662	0	32812	32724	
2663	0	32872	32759	
2664	0	32844	32790	
2665	0	32728	32864	
2666	0	32834	32800	
2667	0	32892	32712	
2668	0	32813	32830	
2669	0	32808	32847	
2670	0	32796	32871	
2671	0	32805	32919	
2672	0	32798	32774	
2673	0	32760	32841	
2674	0	32710	32824	
2675	0	32824	32820	
2676	0	32754	32775	
2677	0	32768	32727	
2678	0	32860	32805	
2679	0	32820	32801	
2680	0	32856	32807	
2681	0	32833	32750	
2682	0	32864	32792	
2683	0	32813	32808	
2684	0	32742	32928	
2685	0	32830	32841	
2686	0	32820	32756	
2687	0	32820	32829	
2688	0	32782	32915	
2689	0	32856	32723	
2690	0	32762	32858	
2691	0	32820	32818	
2692	0	32826	32826	
2693	0	32830	32838	
2694	0	32864	32714	
2695	0	32738	32750	
2696	0	32839	32850	
2697	0	32816	32839	
2698	0	32814	32839	
2699	0	32840	32751	
2700	0	32808	32791	
2701	0	32876	32841	
2702	0	32788	32770	
2703	0	32812	32879	
2704	0	32720	32962	
2705	0	32860	32851	
2706	0	32828	32763	
2707	0	32828	32815	
2708	0	32716	32771	
2709	0	32812	32806	
2710	0	32828	32820	
2711	0	32736	32841	
2712	0	32824	32795	
2713	0	32796	32756	
2714	0	32816	32745	
2715	0	32808	32853	
2716	0	32882	32854	
2717	0	32757	32773	
2718	0	32814	32710	
2719	0	32826	32861	
2720	0	32766	32855	
2721	0	32772	32803	
2722	0	32928	32747	
2723	0	32800	32769	
2724	0	32808	32775	
2725	0	32750	32764	
2726	0	32860	32861	
2727	0	32852	32694	
2728	0	32772	32720	
2729	0	32828	32823	
2730	0	32740	32876	
2731	0	32758	32840	
2732	0	32800	32775	
2733	0	32816	32729	
2734	0	32906	32814	
2735	0	32868	32827	
2736	0	32740	32875	
2737	0	32822	32770	
2738	0	32837	32642	
2739	0	32800	32756	
2740	0	32784	32810	
2741	0	32792	32896	
2742	0	32800	32799	
2743	0	32772	32690	
2744	0	32802	32811	
2745	0	32746	32790	
2746	0	32860	32903	
2747	0	32800	32888	
2748	0	32800	32847	
2749	0	32804	32733	
2750	0	32822	32813	
2751	0	32844	32790	
2752	0	32804	32788	
2753	0	32744	32859	
2754	0	32760	32820	
2755	0	32813	32711	
2756	0	32773	32743	
2757	0	32835	32839	
2758	0	32816	32904	
2759	0	32840	32860	
2760	0	32866	32727	
2761	0	32824	32736	
2762	0	32804	32850	
2763	0	32765	32844	
2764	0	32768	32888	
2765	0	32792	32751	
2766	0	32672	32848	
2767	0	32816	32799	
2768	0	32869	32883	
2769	0	32848	32880	
2770	0	32874	32747	
2771	0	32816	32784	
2772	0	32792	32804	
2773	0	32798	32847	
2774	0	32819	32831	
2775	0	32788	32762	
2776	0	32797	32791	
2777	0	32788	32848	
2778	0	32808	32863	
2779	0	32856	32755	
2780	0	32864	32702	
2781	0	32828	32719	
2782	0	32826	32790	
2783	0	32751	32802	
2784	0	32804	32764	
2785	0	32748	32922	
2786	0	32804	32924	
2787	0	32786	32873	
2788	0	32804	32794	
2789	0	32844	32668	
2790	0	32804	32741	
2791	0	32793	32868	
2792	0	32836	32869	
2793	0	32812	32775	
2794	0	32788	32769	
2795	0	32818	32747	
2796	0	32768	32801	
2797	0	32865	32876	
2798	0	32860	32903	
2799	0	32842	32752	
2800	0	32819	32728	
2801	0	32820	32808	
2802	0	32773	32821	
2803	0	32808	32822	
2804	0	32822	32864	
2805	0	32880	32773	
2806	0	32778	32758	
2807	0	32720	32719	
2808	0	32775	32809	
2809	0	32808	32808	
2810	0	32820	32861	
2811	0	32748	32710	
2812	0	32748	32811	
2813	0	32810	32864	
2814	0	32765	32902	
2815	0	32866	32699	
2816	0	32907	32700	
2817	0	32836	32758	
2818	0	32866	32763	
2819	0	32740	32831	
2820	0	32750	32854	
2821	0	32748	32761	
2822	0	32802	32654	
2823	0	32800	32784	
2824	0	32762	32847	
2825	0	32791	32901	
2826	0	32844	32820	
2827	0	32787	32736	
2828	0	32825	32740	
2829	0	32768	32783	
2830	0	32836	32900	
2831	0	32824	32756	
2832	0	32771	32791	
2833	0	32785	32852	
2834	0	32780	32903	
2835	0	32768	32685	
2836	0	32796	32858	
2837	0	32848	32888	
2838	0	32824	32746	
2839	0	32805	32769	
2840	0	32832	32842	
2841	0	32860	32852	
2842	0	32842	32735	
2843	0	32832	32766	
2844	0	32816	32856	
2845	0	32768	32890	
2846	0	32800	32775	
2847	0	32768	32784	
2848	0	32736	32805	
2849	0	32724	32786	
2850	0	32922	32812	
2851	0	32784	32728	
2852	0	32784	32806	
2853	0	32813	32902	
2854	0	32750	32808	
2855	0	32832	32759	
2856	0	32790	32826	
2857	0	32803	32811	
2858	0	32768	32861	
2859	0	32736	32699	
2860	0	32894	32804	
2861	0	32786	32839	
2862	0	32792	32784	
2863	0	32800	32865	
2864	0	32813	32792	
2865	0	32840	32756	
2866	0	32804	32790	
2867	0	32852	32878	
2868	0	32848	32807	
2869	0	32796	32680	
2870	0	32860	32813	
2871	0	32800	32873	
2872	0	32888	32805	
2873	0	32872	32793	
2874	0	32788	32854	
2875	0	32848	32868	
2876	0	32774	32746	
2877	0	32762	32651	
2878	0	32769	32827	
2879	0	32820	32916	
2880	0	32784	32816	
2881	0	32801	32768	
2882	0	32842	32800	
2883	0	32868	32855	
2884	0	32797	32796	
2885	0	32776	32809	
2886	0	32804	32796	
2887	0	32784	32834	
2888	0	32818	32775	
2889	0	32818	32759	
2890	0	32808	32891	
2891	0	32766	32879	
2892	0	32814	32840	
2893	0	32765	32732	
2894	0	32866	32775	
2895	0	32801	32829	
2896	0	32786	32889	
2897	0	32826	32722	
2898	0	32784	32832	
2899	0	32816	32854	
2900	0	32824	32822	
2901	0	32872	32737	
2902	0	32800	32813	
2903	0	32810	32803	
2904	0	32854	32907	
2905	0	32790	32745	
2906	0	32810	32767	
2907	0	32813	32775	
2908	0	32812	32836	
2909	0	32856	32677	
2910	0	32896	32832	
2911	0	32848	32822	
2912	0	32840	32839	
2913	0	32797	32713	
2914	0	32765	32809	
2915	0	32793	32845	
2916	0	32809	32820	
2917	0	32825	32839	
2918	0	32788	32775	
2919	0	32822	32684	
2920	0	32776	32844	
2921	0	32800	32895	
2922	0	32784	32745	
2923	0	32804	32781	
2924	0	32824	32797	
2925	0	32732	32821	
2926	0	32808	32738	
2927	0	32826	32800	
2928	0	32834	32853	
2929	0	32807	32796	
2930	0	32766	32833	
2931	0	32808	32808	
2932	0	32794	32824	
2933	0	32836	32798	
2934	0	32788	32851	
2935	0	32838	32696	
2936	0	32848	32809	
2937	0	32748	32883	
2938	0	32792	32722	
2939	0	32762	32816	
2940	0	32864	32808	
2941	0	32837	32815	
2942	0	32896	32809	
2943	0	32870	32807	
2944	0	32760	32900	
2945	0	32848	32853	
2946	0	32824	32722	
2947	0	32868	32876	
2948	0	32790	32881	
2949	0	32812	32751	
2950	0	32765	32864	
2951	0	32724	32856	
2952	0	32716	32725	
2953	0	32858	32887	
2954	0	32868	32831	
2955	0	32772	32758	
2956	0	32802	32854	
2957	0	32778	32751	
2958	0	32768	32824	
2959	0	32736	32848	
2960	0	32832	32712	
2961	0	32828	32783	
2962	0	32784	32847	
2963	0	32842	32790	
2964	0	32792	32739	
2965	0	32866	32824	
2966	0	32820	32895	
2967	0	32752	32757	
2968	0	32816	32796	
2969	0	32832	32930	
2970	0	32842	32775	
2971	0	32792	32832	
2972	0	32752	32889	
2973	0	32813	32804	
2974	0	32791	32800	
2975	0	32914	32804	
2976	0	32793	32854	
2977	0	32802	32764	
2978	0	32773	32832	
2979	0	32832	32823	
2980	0	32806	32690	
2981	0	32792	32820	
2982	0	32791	32900	
2983	0	32816	32729	
2984	0	32821	32804	
2985	0	32833	32863	
2986	0	32805	32746	
2987	0	32775	32839	
2988	0	32754	32915	
2989	0	32813	32829	
2990	0	32756	32873	
2991	0	32738	32914	
2992	0	32844	32768	
2993	0	32782	32710	
2994	0	32834	32807	
2995	0	32768	32791	
2996	0	32860	32752	
2997	0	32860	32829	
2998	0	32788	32824	
2999	0	32800	32871	
3000	0	32836	32785	
3001	0	32793	32832	
3002	0	32804	32883	
3003	0	32745	32790	
3004	0	32796	32762	
3005	0	32768	32828	
3006	0	32812	32880	
3007	0	32802	32775	
3008	0	32832	32795	
3009	0	32869	32799	
3010	0	32856	32828	
3011	0	32778	32775	
3012	0	32800	32850	
3013	0	32843	32742	
3014	0	32741	32841	
3015	0	32808	32822	
3016	0	32828	32662	
3017	0	32792	32796	
3018	0	32786	32826	
3019	0	32876	32789	
3020	0	32794	32704	
3021	0	32744	32813	
3022	0	32865	32850	
3023	0	32836	32851	
3024	0	32752	32832	
3025	0	32850	32800	
3026	0	32802	32789	
3027	0	32788	32729	
3028	0	32787	32850	
3029	0	32769	32858	
3030	0	32826	32830	
3031	0	32770	32935	
3032	0	32788	32809	
3033	0	32837	32740	
3034	0	32826	32710	
3035	0	32866	32835	
3036	0	32793	32800	
3037	0	32729	32899	
3038	0	32796	32829	
3039	0	32792	32676	
3040	0	32805	32832	
3041	0	32768	32796	
3042	0	32833	32868	
3043	0	32850	32902	
3044	0	32816	32771	
3045	0	32768	32793	
3046	0	32775	32844	
3047	0	32904	32775	
3048	0	32808	32692	
3049	0	32788	32857	
3050	0	32770	32882	
3051	0	32800	32840	
3052	0	32844	32751	
3053	0	32775	32772	
3054	0	32782	32851	
3055	0	32738	32868	
3056	0	32758	32810	
3057	0	32832	32739	
3058	0	32820	32747	
3059	0	32844	32818	
3060	0	32813	32868	
3061	0	32800	32784	
3062	0	32804	32677	
3063	0	32800	32808	
3064	0	32804	32898	
3065	0	32756	32823	
3066	0	32844	32729	
3067	0	32814	32774	
3068	0	32848	32850	
3069	0	32824	32865	
3070	0	32824	32751	
3071	0	32842	32893	
3072	0	32796	32846	
3073	0	32794	32764	
3074	0	32824	32921	
3075	0	32784	32818	
3076	0	32784	32704	
3077	0	32790	32770	
3078	0	32796	32818	
3079	0	32850	32839	
3080	0	32804	32767	
3081	0	32834	32759	
3082	0	32760	32718	
3083	0	32834	32831	
3084	0	32754	32869	
3085	0	32782	32911	
3086	0	32748	32967	
3087	0	32832	32821	
3088	0	32797	32865	
3089	0	32805	32902	
3090	0	32768	32748	
3091	0	32804	32762	
3092	0	32836	32805	
3093	0	32801	32911	
3094	0	32805	32817	
3095	0	32796	32722	
3096	0	32834	32811	
3097	0	32800	32844	
3098	0	32730	32770	
3099	0	32758	32798	
3100	0	32824	32818	
3101	0	32784	32922	
3102	0	32875	32711	
3103	0	32794	32827	
3104	0	32816	32814	
3105	0	32848	32745	
3106	0	32802	32819	
3107	0	32751	32857	
3108	0	32828	32706	
3109	0	32839	32799	
3110	0	32799	32842	
3111	0	32768	32832	
3112	0	32746	32775	
3113	0	32816	32812	
3114	0	32808	32801	
3115	0	32804	32843	
3116	0	32784	32775	
3117	0	32786	32840	
3118	0	32832	32813	
3119	0	32800	32775	
3120	0	32775	32733	
3121	0	32767	32837	
3122	0	32860	32915	
3123	0	32850	32793	
3124	0	32813	32787	
3125	0	32812	32793	
3126	0	32852	32854	
3127	0	32838	32760	
3128	0	32844	32756	
3129	0	32781	32800	
3130	0	32841	32879	
3131	0	32796	32753	
3132	0	32804	32823	
3133	0	32820	32846	
3134	0	32848	32854	
3135	0	32805	32812	
3136	0	32856	32726	
3137	0	32764	32885	
3138	0	32733	32833	
3139	0	32804	32825	
3140	0	32746	32803	
3141	0	32772	32826	
3142	0	32740	32838	
3143	0	32856	32772	
3144	0	32808	32703	
3145	0	32850	32831	
3146	0	32866	32841	
3147	0	32802	32832	
3148	0	32810	32771	
3149	0	32836	32825	
3150	0	32774	32885	
3151	0	32758	32839	
3152	0	32837	32775	
3153	0	32808	32830	
3154	0	32775	32846	
3155	0	32822	32775	
3156	0	32793	32768	
3157	0	32812	32793	
3158	0	32868	32728	
3159	0	32844	32793	
3160	0	32812	32797	
3161	0	32800	32770	
3162	0	32804	32833	
3163	0	32808	32905	
3164	0	32780	32732	
3165	0	32832	32829	
3166	0	32848	32866	
3167	0	32848	32734	
3168	0	32784	32743	
3169	0	32801	32799	
3170	0	32770	32882	
3171	0	32818	32813	
3172	0	32744	32775	
3173	0	32760	32838	
3174	0	32744	32910	
3175	0	32776	32699	
3176	0	32827	32846	
3177	0	32816	32822	
3178	0	32812	32849	
3179	0	32884	32797	
3180	0	32803	32791	
3181	0	32848	32827	
3182	0	32799	32815	
3183	0	32749	32759	
3184	0	32804	32858	
3185	0	32736	32919	
3186	0	32761	32821	
3187	0	32836	32815	
3188	0	32856	32867	
3189	0	32826	32697	
3190	0	32864	32733	
3191	0	32804	32837	
3192	0	32752	32852	
3193	0	32900	32754	
3194	0	32760	32775	
3195	0	32756	32871	
3196	0	32808	32741	
3197	0	32829	32869	
3198	0	32775	32868	
3199	0	32804	32826	
3200	0	32804	32760	
3201	0	32792	32837	
3202	0	32816	32877	
3203	0	32808	32808	
3204	0	32804	32732	
3205	0	32826	32832	
3206	0	32823	32822	
3207	0	32769	32848	
3208	0	32784	32816	
3209	0	32784	32740	
3210	0	32796	32845	
3211	0	32788	32803	
3212	0	32774	32873	
3213	0	32754	32711	
3214	0	32806	32838	
3215	0	32776	32880	
3216	0	32812	32838	
3217	0	32756	32744	
3218	0	32792	32866	
3219	0	32758	32908	
3220	0	32894	32743	
3221	0	32837	32823	
3222	0	32774	32796	
3223	0	32775	32905	
3224	0	32824	32834	
3225	0	32775	32769	
3226	0	32818	32769	
3227	0	32864	32694	
3228	0	32868	32865	
3229	0	32730	32849	
3230	0	32788	32801	
3231	0	32816	32801	
3232	0	32877	32835	
3233	0	32848	32922	
3234	0	32852	32775	
3235	0	32832	32695	
3236	0	32800	32805	
3237	0	32828	32813	
3238	0	32820	32857	
3239	0	32864	32733	
3240	0	32826	32793	
3241	0	32834	32788	
3242	0	32792	32839	
3243	0	32769	32681	
3244	0	32790	32768	
3245	0	32812	32915	
3246	0	32760	32858	
3247	0	32802	32863	
3248	0	32784	32760	
3249	0	32802	32862	
3250	0	32836	32879	
3251	0	32769	32738	
3252	0	32814	32851	
3253	0	32808	32797	
3254	0	32824	32861	
3255	0	32808	32801	
3256	0	32832	32846	
3257	0	32785	32883	
3258	0	32753	32722	
3259	0	32860	32832	
3260	0	32812	32792	
3261	0	32716	32735	
3262	0	32788	32748	
3263	0	32792	32822	
3264	0	32808	32823	
3265	0	32806	32943	
3266	0	32692	32823	
3267	0	32800	32762	
3268	0	32768	32652	
3269	0	32700	32707	
3270	0	32792	32761	
3271	0	32788	32823	
3272	0	32840	32846	
3273	0	32756	32871	
3274	0	32797	32812	
3275	0	32792	32819	
3276	0	32816	32901	
3277	0	32858	32888	
3278	0	32788	32801	
3279	0	32756	32722	
3280	0	32754	32752	
3281	0	32802	32772	
3282	0	32800	32775	
3283	0	32850	32754	
3284	0	32844	32732	
3285	0	32813	32681	
3286	0	32856	32733	
3287	0	32952	32726	
3288	0	32868	32769	
3289	0	32930	32684	
3290	0	32938	32599	
3291	0	32982	32575	
3292	0	32994	32563	
3293	0	32968	32540	
3294	0	32824	32595	
3295	0	32872	32671	
3296	0	32916	32772	
3297	0	32857	32760	
3298	0	32833	32884	
3299	0	32816	32852	
3300	0	32728	32944	
3301	0	32692	33008	
3302	0	32620	32960	
3303	0	32704	32903	
3304	0	32736	32860	
3305	0	32704	32815	
3306	0	32637	32866	
3307	0	32708	32864	
3308	0	32752	32869	
3309	0	32676	32954	
3310	0	32622	32987	
3311	0	32706	33129	
3312	0	32656	33057	
3313	0	32612	33104	
3314	0	32612	33092	
3315	0	32612	33101	
3316	0	32729	33060	
3317	0	32744	32992	
3318	0	32728	33042	
3319	0	32729	32890	
3320	0	32835	32871	
3321	0	32844	32751	
3322	0	32885	32785	
3323	0	32792	32766	
3324	0	32878	32710	
3325	0	32836	32711	
3326	0	32836	32761	
3327	0	32888	32736	
3328	0	32905	32645	
3329	0	32882	32626	
3330	0	32836	32706	
3331	0	32872	32765	
3332	0	32884	32658	
3333	0	32912	32758	
3334	0	32948	32655	
3335	0	32892	32775	
3336	0	32816	32631	
3337	0	32872	32712	
3338	0	32840	32903	
3339	0	32842	32722	
3340	0	32808	32719	
3341	0	32817	32820	
3342	0	32812	32720	
3343	0	32802	32843	
3344	0	32772	32760	
3345	0	32735	32839	
3346	0	32796	32882	
3347	0	32714	32715	
3348	0	32768	32839	
3349	0	32786	32839	
3350	0	32892	32763	
3351	0	32794	32852	
3352	0	32760	32775	
3353	0	32772	32790	
3354	0	32831	32876	
3355	0	32857	32775	
3356	0	32804	32829	
3357	0	32824	32690	
3358	0	32760	32807	
3359	0	32774	32761	
3360	0	32816	32841	
3361	0	32738	32757	
3362	0	32796	32845	
3363	0	32868	32865	
3364	0	32826	32749	
3365	0	32800	32775	
3366	0	32760	32810	
3367	0	32775	32756	
3368	0	32780	32796	
3369	0	32745	32825	
3370	0	32772	32884	
3371	0	32804	32723	
3372	0	32864	32873	
3373	0	32837	32856	
3374	0	32829	32876	
3375	0	32840	32852	
3376	0	32758	32775	
3377	0	32824	32799	
3378	0	32816	32676	
3379	0	32845	32764	
3380	0	32828	32898	
3381	0	32848	32792	
3382	0	32854	32880	
3383	0	32783	32720	
3384	0	32794	32766	
3385	0	32756	32753	
3386	0	32830	32775	
3387	0	32782	32866	
3388	0	32784	32747	
3389	0	32720	32879	
3390	0	32744	32804	
3391	0	32799	32902	
3392	0	32802	32832	
3393	0	32852	32735	
3394	0	32774	32808	
3395	0	32802	32736	
3396	0	32824	32870	
3397	0	32832	32925	
3398	0	32816	32775	
3399	0	32813	32810	
3400	0	32740	32766	
3401	0	32802	32719	
3402	0	32813	32749	
3403	0	32786	32700	
3404	0	32828	32775	
3405	0	32788	32730	
3406	0	32832	32816	
3407	0	32784	32877	
3408	0	32816	32735	
3409	0	32854	32807	
3410	0	32825	32863	
3411	0	32756	32933	
3412	0	32717	32743	
3413	0	32750	32830	
3414	0	32818	32944	
3415	0	32788	32743	
3416	0	32792	32842	
3417	0	32776	32836	
3418	0	32744	32869	
3419	0	32890	32924	
3420	0	32792	32775	
3421	0	32797	32891	
3422	0	32818	32833	
3423	0	32843	32731	
3424	0	32836	32864	
3425	0	32809	32985	
3426	0	32737	32816	
3427	0	32824	32730	
3428	0	32802	32749	
3429	0	32758	32882	
3430	0	32844	32854	
3431	0	32756	32869	
3432	0	32848	32818	
3433	0	32800	32859	
3434	0	32808	32734	
3435	0	32814	32789	
3436	0	32786	32838	
3437	0	32792	32712	
3438	0	32732	32786	
3439	0	32873	32749	
3440	0	32728	32814	
3441	0	32785	32837	
3442	0	32844	32758	
3443	0	32898	32840	
3444	0	32804	32804	
3445	0	32824	32871	
3446	0	32864	32828	
3447	0	32796	32690	
3448	0	32778	32816	
3449	0	32792	32896	
3450	0	32853	32789	
3451	0	32744	32816	
3452	0	32816	32795	
3453	0	32772	32688	
3454	0	32864	32901	
3455	0	32778	32800	
3456	0	32810	32797	
3457	0	32770	32828	
3458	0	32805	32720	
3459	0	32857	32854	
3460	0	32775	32947	
3461	0	32775	32729	
3462	0	32728	32771	
3463	0	32850	32860	
3464	0	32792	32752	
3465	0	32753	32844	
3466	0	32892	32879	
3467	0	32891	32720	
3468	0	32744	32846	
3469	0	32816	32808	
3470	0	32789	32871	
3471	0	32762	32828	
3472	0	32796	32812	
3473	0	32707	32703	
3474	0	32832	32859	
3475	0	32793	32744	
3476	0	32802	32800	
3477	0	32812	32785	
3478	0	32803	32694	
3479	0	32844	32856	
3480	0	32840	32794	
3481	0	32820	32827	
3482	0	32837	32860	
3483	0	32808	32756	
3484	0	32789	32869	
3485	0	32773	32856	
3486	0	32859	32745	
3487	0	32813	32859	
3488	0	32816	32741	
3489	0	32776	32807	
3490	0	32821	32694	
3491	0	32786	32775	
3492	0	32832	32775	
3493	0	32788	32839	
3494	0	32784	32893	
3495	0	32768	32718	
3496	0	32796	32818	
3497	0	32824	32811	
3498	0	32808	32857	
3499	0	32761	32859	
3500	0	32790	32739	
3501	0	32786	32805	
3502	0	32832	32806	
3503	0	32771	32723	
3504	0	32848	32910	
3505	0	32797	32765	
3506	0	32833	32821	
3507	0	32762	32808	
3508	0	32784	32790	
3509	0	32859	32818	
3510	0	32760	32722	
3511	0	32734	32899	
3512	0	32839	32873	
3513	0	32837	32770	
3514	0	32792	32806	
3515	0	32850	32816	
3516	0	32808	32739	
3517	0	32845	32839	
3518	0	32864	32741	
3519	0	32828	32847	
3520	0	32848	32856	
3521	0	32804	32782	
3522	0	32826	32765	
3523	0	32856	32752	
3524	0	32788	32903	
3525	0	32764	32785	
3526	0	32790	32811	
3527	0	32813	32820	
3528	0	32824	32884	
3529	0	32854	32726	
3530	0	32799	32851	
3531	0	32784	32903	
3532	0	32748	32663	
3533	0	32788	32804	
3534	0	32775	32818	
3535	0	32770	32699	
3536	0	32728	32815	
3537	0	32857	32825	
3538	0	32844	32738	
3539	0	32760	32774	
3540	0	32841	32775	
3541	0	32852	32827	
3542	0	32810	32956	
3543	0	32760	32738	
3544	0	32820	32838	
3545	0	32802	32830	
3546	0	32902	32848	
3547	0	32841	32861	
3548	0	32868	32711	
3549	0	32778	32820	
3550	0	32827	32790	
3551	0	32748	32876	
3552	0	32732	32864	
3553	0	32736	32878	
3554	0	32744	32839	
3555	0	32744	32769	
3556	0	32788	32903	
3557	0	32836	32697	
3558	0	32813	32811	
3559	0	32841	32756	
3560	0	32833	32850	
3561	0	32864	32818	
3562	0	32872	32882	
3563	0	32821	32759	
3564	0	32799	32841	
3565	0	32768	32839	
3566	0	32831	32826	
3567	0	32796	32893	
3568	0	32868	32769	
3569	0	32780	32795	
3570	0	32824	32793	
3571	0	32800	32759	
3572	0	32760	32816	
3573	0	32704	32775	
3574	0	32784	32844	
3575	0	32797	32855	
3576	0	32728	32787	
3577	0	32844	32837	
3578	0	32754	32775	
3579	0	32868	32801	
3580	0	32814	32814	
3581	0	32832	32746	
3582	0	32704	32902	
3583	0	32802	32759	
3584	0	32786	32851	
3585	0	32869	32857	
3586	0	32784	32700	
3587	0	32786	32830	
3588	0	32758	32885	
3589	0	32828	32793	
3590	0	32772	32941	
3591	0	32773	32770	
3592	0	32832	32880	
3593	0	32801	32741	
3594	0	32802	32760	
3595	0	32790	32895	
3596	0	32784	32758	
3597	0	32873	32832	
3598	0	32760	32704	
3599	0	32828	32764	
3600	0	32760	32809	
3601	0	32800	32820	
3602	0	32816	32825	
3603	0	32820	32797	
3604	0	32786	32850	
3605	0	32816	32862	
3606	0	32802	32805	
3607	0	32748	32855	
3608	0	32744	32710	
3609	0	32796	32808	
3610	0	32784	32790	
3611	0	32824	32808	
3612	0	32850	32869	
3613	0	32852	32707	
3614	0	32822	32806	
3615	0	32788	32726	
3616	0	32908	32789	
3617	0	32856	32737	
3618	0	32832	32822	
3619	0	32808	32903	
3620	0	32856	32715	
3621	0	32760	32796	
3622	0	32834	32854	
3623	0	32884	32711	
3624	0	32809	32814	
3625	0	32812	32936	
3626	0	32737	32772	
3627	0	32808	32832	
3628	0	32807	32898	
3629	0	32832	32775	
3630	0	32775	32831	
3631	0	32820	32730	
3632	0	32784	32826	
3633	0	32840	32787	
3634	0	32794	32754	
3635	0	32838	32688	
3636	0	32868	32861	
3637	0	32880	32903	
3638	0	32832	32725	
3639	0	32864	32805	
3640	0	32809	32864	
3641	0	32797	32837	
3642	0	32840	32829	
3643	0	32802	32891	
3644	0	32800	32724	
3645	0	32796	32805	
3646	0	32764	32704	
3647	0	32884	32850	
3648	0	32775	32751	
3649	0	32770	32729	
3650	0	32784	32832	
3651	0	32793	32754	
3652	0	32840	32821	
3653	0	32844	32745	
3654	0	32824	32866	
3655	0	32812	32713	
3656	0	32804	32820	
3657	0	32824	32825	
3658	0	32800	32782	
3659	0	32846	32832	
3660	0	32796	32707	
3661	0	32816	32806	
3662	0	32860	32796	
3663	0	32820	32815	
3664	0	32854	32855	
3665	0	32764	32785	
3666	0	32875	32878	
3667	0	32874	32760	
3668	0	32844	32799	
3669	0	32768	32839	
3670	0	32804	32815	
3671	0	32832	32826	
3672	0	32828	32722	
3673	0	32716	32808	
3674	0	32820	32790	
3675	0	32754	32809	
3676	0	32848	32791	
3677	0	32812	32669	
3678	0	32800	32759	
3679	0	32872	32752	
3680	0	32805	32834	
3681	0	32765	32824	
3682	0	32752	32819	
3683	0	32882	32860	
3684	0	32798	32710	
3685	0	32778	32868	
3686	0	32769	32805	
3687	0	32864	32859	
3688	0	32765	32902	
3689	0	32775	32894	
3690	0	32842	32701	
3691	0	32812	32844	
3692	0	32852	32824	
3693	0	32738	32829	
3694	0	32857	32870	
3695	0	32797	32898	
3696	0	32860	32871	
3697	0	32832	32752	
3698	0	32728	32851	
3699	0	32764	32696	
3700	0	32818	32803	
3701	0	32829	32710	
3702	0	32854	32728	
3703	0	32860	32763	
3704	0	32858	32786	
3705	0	32859	32840	
3706	0	32778	32850	
3707	0	32816	32887	
3708	0	32834	32726	
3709	0	32804	32903	
3710	0	32820	32775	
3711	0	32748	32869	
3712	0	32848	32850	
3713	0	32784	32822	
3714	0	32824	32770	
3715	0	32775	32948	
3716	0	32768	32753	
3717	0	32801	32836	
3718	0	32766	32739	
3719	0	32818	32818	
3720	0	32732	32804	
3721	0	32775	32754	
3722	0	32797	32841	
3723	0	32798	32886	
3724	0	32760	32920	
3725	0	32840	32760	
3726	0	32780	32878	
3727	0	32826	32669	
3728	0	32782	32784	
3729	0	32784	32828	
3730	0	32812	32788	
3731	0	32794	32815	
3732	0	32774	32725	
3733	0	32768	32793	
3734	0	32816	32863	
3735	0	32808	32773	
3736	0	32833	32834	
3737	0	32796	32749	
3738	0	32872	32804	
3739	0	32852	32800	
3740	0	32800	32825	
3741	0	32775	32838	
3742	0	32792	32743	
3743	0	32765	32793	
3744	0	32764	32923	
3745	0	32824	32684	
3746	0	32804	32797	
3747	0	32786	32786	
3748	0	32868	32830	
3749	0	32775	32802	
3750	0	32824	32814	
3751	0	32802	32879	
3752	0	32841	32695	
3753	0	32758	32853	
3754	0	32774	32880	
3755	0	32808	32868	
3756	0	32790	32873	
3757	0	32721	32743	
3758	0	32760	32786	
3759	0	32836	32823	
3760	0	32932	32745	
3761	0	32856	32804	
3762	0	32896	32890	
3763	0	32816	32731	
3764	0	32752	32813	
3765	0	32752	32903	
3766	0	32770	32781	
3767	0	32745	32866	
3768	0	32750	32762	
3769	0	32851	32759	
3770	0	32744	32791	
3771	0	32886	32842	
3772	0	32740	32734	
3773	0	32813	32813	
3774	0	32756	32833	
3775	0	32844	32822	
3776	0	32844	32756	
3777	0	32836	32733	
3778	0	32744	32824	
3779	0	32724	32890	
3780	0	32772	32690	
3781	0	32860	32832	
3782	0	32842	32786	
3783	0	32752	32827	
3784	0	32802	32666	
3785	0	32868	32790	
3786	0	32728	32873	
3787	0	32824	32761	
3788	0	32852	32821	
3789	0	32820	32949	
3790	0	32864	32903	
3791	0	32750	32919	
3792	0	32814	32749	
3793	0	32808	32661	
3794	0	32785	32664	
3795	0	32784	32775	
3796	0	32806	32786	
3797	0	32768	32772	
3798	0	32826	32838	
3799	0	32801	32898	
3800	0	32818	32812	
3801	0	32800	32775	
3802	0	32819	32756	
3803	0	32754	32836	
3804	0	32845	32815	
3805	0	32858	32815	
3806	0	32824	32825	
3807	0	32826	32794	
3808	0	32836	32831	
3809	0	32796	32775	
3810	0	32828	32746	
3811	0	32756	32834	
3812	0	32748	32918	
3813	0	32765	32862	
3814	0	32834	32758	
3815	0	32856	32775	
3816	0	32790	32786	
3817	0	32772	32856	
3818	0	32790	32856	
3819	0	32832	32700	
3820	0	32802	32706	
3821	0	32784	32775	
3822	0	32777	32695	
3823	0	32756	32738	
3824	0	32756	32848	
3825	0	32816	32828	
3826	0	32800	32862	
3827	0	32810	32813	
3828	0	32820	32775	
3829	0	32804	32753	
3830	0	32828	32830	
3831	0	32788	32805	
3832	0	32824	32844	
3833	0	32774	32874	
3834	0	32716	32820	
3835	0	32871	32702	
3836	0	32765	32647	
3837	0	32766	32728	
3838	0	32844	32723	
3839	0	32832	32770	
3840	0	32793	32902	
3841	0	32841	32785	
3842	0	32741	32919	
3843	0	32794	32903	
3844	0	32775	32800	
3845	0	32824	32806	
3846	0	32754	32736	
3847	0	32811	32721	
3848	0	32840	32686	
3849	0	32838	32768	
3850	0	32824	32866	
3851	0	32802	32877	
3852	0	32772	32797	
3853	0	32857	32736	
3854	0	32866	32843	
3855	0	32828	32832	
3856	0	32864	32801	
3857	0	32692	32742	
3858	0	32764	32730	
3859	0	32775	32898	
3860	0	32724	32795	
3861	0	32812	32743	
3862	0	32818	32879	
3863	0	32872	32857	
3864	0	32729	32901	
3865	0	32858	32773	
3866	0	32856	32752	
3867	0	32800	32789	
3868	0	32807	32903	
3869	0	32768	32771	
3870	0	32764	32742	
3871	0	32796	32773	
3872	0	32900	32854	
3873	0	32822	32764	
3874	0	32744	32733	
3875	0	32787	32800	
3876	0	32808	32850	
3877	0	32780	32885	
3878	0	32796	32728	
3879	0	32782	32794	
3880	0	32818	32870	
3881	0	32775	32736	
3882	0	32808	32839	
3883	0	32829	32941	
3884	0	32931	32854	
3885	0	32898	32809	
3886	0	32940	32877	
3887	0	32864	32857	
3888	0	32857	32756	
3889	0	32818	32699	
3890	0	32800	32807	
3891	0	32708	32711	
3892	0	32688	32797	
3893	0	32656	32951	
3894	0	32716	32882	
3895	0	32716	32915	
3896	0	32760	32775	
3897	0	32778	32770	
3898	0	32856	32841	
3899	0	32832	32868	
3900	0	32821	32809	
3901	0	32770	32701	
3902	0	32868	32787	
3903	0	32756	32765	
3904	0	32854	32759	
3905	0	32775	32768	
3906	0	32825	32809	
3907	0	32688	32915	
3908	0	32775	32735	
3909	0	32766	32743	
3910	0	32836	32793	
3911	0	32796	32792	
3912	0	32850	32866	
3913	0	32872	32758	
3914	0	32840	32864	
3915	0	32872	32882	
3916	0	32852	32832	
3917	0	32792	32836	
3918	0	32773	32697	
3919	0	32716	32797	
3920	0	32864	32808	
3921	0	32798	32792	
3922	0	32780	32775	
3923	0	32832	32815	
3924	0	32832	32914	
3925	0	32865	32792	
3926	0	32756	32799	
3927	0	32832	32833	
3928	0	32768	32819	
3929	0	32820	32741	
3930	0	32810	32850	
3931	0	32814	32821	
3932	0	32845	32799	
3933	0	32795	32753	
3934	0	32798	32797	
3935	0	32765	32754	
3936	0	32804	32760	
3937	0	32800	32838	
3938	0	32847	32722	
3939	0	32874	32887	
3940	0	32820	32818	
3941	0	32792	32894	
3942	0	32932	32714	
3943	0	32905	32796	
3944	0	32894	32873	
3945	0	32808	32775	
3946	0	32756	32910	
3947	0	32700	32821	
3948	0	32672	32788	
3949	0	32699	32818	
3950	0	32780	32735	
3951	0	32841	32738	
3952	0	32710	32861	
3953	0	32828	32882	
3954	0	32861	32747	
3955	0	32809	32775	
3956	0	32869	32850	
3957	0	32729	32826	
3958	0	32774	32884	
3959	0	32868	32880	
3960	0	32745	32815	
3961	0	32848	32712	
3962	0	32760	32801	
3963	0	32842	32791	
3964	0	32836	32919	
3965	0	32912	32722	
3966	0	32837	32786	
3967	0	32860	32875	
3968	0	32826	32826	
3969	0	32808	32834	
3970	0	32696	32770	
3971	0	32743	32752	
3972	0	32784	32790	
3973	0	32736	32854	
3974	0	32801	32714	
3975	0	32791	32738	
3976	0	32741	32842	
3977	0	32849	32852	
3978	0	32932	32841	
3979	0	32920	32756	
3980	0	32948	32813	
3981	0	32825	32907	
3982	0	32704	32831	
3983	0	32771	32866	
3984	0	32692	32866	
3985	0	32752	32862	
3986	0	32793	32802	
3987	0	32732	32802	
3988	0	32807	32905	
3989	0	32984	32860	
3990	0	33206	32864	
3991	0	33024	32805	
3992	0	32784	32681	
3993	0	32630	32696	
3994	0	32660	32810	
3995	0	32652	32784	
3996	0	32708	32739	
3997	0	32668	32741	
3998	0	32708	32869	
3999	0	32754	32891	
4000	0	32708	32893	
4001	0	32552	32774	
4002	0	32571	32768	
4003	0	32723	32857	
4004	0	32868	32869	
4005	0	33044	32956	
4006	0	33018	32891	
4007	0	32913	32775	
4008	0	32818	32753	
4009	0	32755	32855	
4010	0	32754	32883	
4011	0	32796	32820	
4012	0	32746	32788	
4013	0	32904	32775	
4014	0	32969	32792	
4015	0	33001	32801	
4016	0	32764	32798	
4017	0	32604	32846	
4018	0	32600	32804	
4019	0	32725	32802	
4020	0	32904	32730	
4021	0	32796	32799	
4022	0	32796	32829	
4023	0	32824	32905	
4024	0	32781	32860	
4025	0	32816	32804	
4026	0	32836	32746	
4027	0	32842	32853	
4028	0	32920	32784	
4029	0	32924	32856	
4030	0	32868	32708	
4031	0	32824	32739	
4032	0	32858	32828	
4033	0	32696	32811	
4034	0	32681	32898	
4035	0	32728	32879	
4036	0	32726	32754	
4037	0	32754	32713	
4038	0	32822	32815	
4039	0	32774	32800	
4040	0	32802	32775	
4041	0	32844	32743	
4042	0	32880	32764	
4043	0	32802	32856	
4044	0	32875	32831	
4045	0	32852	32794	
4046	0	32850	32875	
4047	0	32848	32807	
4048	0	32864	32702	
4049	0	32762	32749	
4050	0	32740	32852	
4051	0	32824	32835	
4052	0	32869	32876	
4053	0	32960	32903	
4054	0	33048	32775	
4055	0	33016	32836	
4056	0	32880	32890	
4057	0	32620	32771	
4058	0	32496	32640	
4059	0	32448	32617	
4060	0	32448	32660	
4061	0	32476	32676	
4062	0	32558	32751	
4063	0	32672	32804	
4064	0	32769	32764	
4065	0	32940	32854	
4066	0	32958	32930	
4067	0	32984	32876	
4068	0	33004	32743	
4069	0	32960	32708	
4070	0	32907	32815	
4071	0	32878	32842	
4072	0	32868	32815	
4073	0	32900	32802	
4074	0	32816	32796	
4075	0	32850	32847	
4076	0	32834	32880	
4077	0	32740	32951	
4078	0	32788	32941	
4079	0	32766	32824	
4080	0	32780	32678	
4081	0	32764	32685	
4082	0	32656	32745	
4083	0	32732	32811	
4084	0	32740	32805	
4085	0	32892	32771	
4086	0	32956	32764	
4087	0	33009	32742	
4088	0	33013	32808	
4089	0	32976	32861	
4090	0	32933	32839	
4091	0	32692	32864	
4092	0	32636	32891	
4093	0	32612	32793	
4094	0	32572	32893	
4095	0	32614	32732	
4096	0	32654	32633	
4097	0	32745	32850	
4098	0	32811	32772	
4099	0	32844	32804	
4100	0	32856	32858	
4101	0	32837	32760	
4102	0	32840	32759	
4103	0	32884	32709	
4104	0	32830	32764	
4105	0	32876	32765	
4106	0	32840	32713	
4107	0	32805	32730	
4108	0	32812	32811	
4109	0	32824	32837	
4110	0	32756	32877	
4111	0	32781	32775	
4112	0	32808	32814	
4113	0	32832	32973	
4114	0	32810	32898	
4115	0	32802	32917	
4116	0	32720	32869	
4117	0	32752	32720	
4118	0	32859	32764	
4119	0	33020	32901	
4120	0	32994	32859	
4121	0	32893	32805	
4122	0	32912	32775	
4123	0	32712	32775	
4124	0	32644	32659	
4125	0	32780	32772	
4126	0	32688	32819	
4127	0	32640	32845	
4128	0	32781	32775	
4129	0	32744	32734	
4130	0	32712	32917	
4131	0	32766	32867	
4132	0	32684	32910	
4133	0	32760	32732	
4134	0	32844	32753	
4135	0	32853	32764	
4136	0	32800	32853	
4137	0	32782	32767	
4138	0	32780	32903	
4139	0	32850	32828	
4140	0	32766	32888	
4141	0	32838	32731	
4142	0	32796	32775	
4143	0	32768	32775	
4144	0	32864	32819	
4145	0	32980	32682	
4146	0	32906	32668	
4147	0	32936	32822	
4148	0	32896	32861	
4149	0	32848	32880	
4150	0	32834	32757	
4151	0	32828	32797	
4152	0	32796	32855	
4153	0	32784	32816	
4154	0	32837	32836	
4155	0	32740	32720	
4156	0	32801	32839	
4157	0	32812	32864	
4158	0	32806	32889	
4159	0	32760	32812	
4160	0	32809	32789	
4161	0	32800	32764	
4162	0	32768	32803	
4163	0	32780	32872	
4164	0	32756	32784	
4165	0	32802	32681	
4166	0	32784	32762	
4167	0	32792	32885	
4168	0	32850	32890	
4169	0	32798	32818	
4170	0	32728	32775	
4171	0	32768	32701	
4172	0	32706	32764	
4173	0	32772	32843	
4174	0	32778	32892	
4175	0	32812	32903	
4176	0	32892	32882	
4177	0	32852	32825	
4178	0	32898	32760	
4179	0	32842	32820	
4180	0	32808	32926	
4181	0	32808	32818	
4182	0	32812	32759	
4183	0	32794	32826	
4184	0	32791	32720	
4185	0	32808	32821	
4186	0	32802	32722	
4187	0	32892	32740	
4188	0	32888	32772	
4189	0	32840	32668	
4190	0	32902	32837	
4191	0	32862	32786	
4192	0	32744	32869	
4193	0	32720	32970	
4194	0	32646	32898	
4195	0	32644	32870	
4196	0	32740	32809	
4197	0	32744	32879	
4198	0	32856	32859	
4199	0	32850	32822	
4200	0	32902	32842	
4201	0	32837	32702	
4202	0	32792	32689	
4203	0	32754	32699	
4204	0	32688	32787	
4205	0	32651	32775	
4206	0	32740	32768	
4207	0	32682	32808	
4208	0	32775	32803	
4209	0	32861	32732	
4210	0	32840	32736	
4211	0	32832	32775	
4212	0	32805	32893	
4213	0	32984	32839	
4214	0	33008	32628	
4215	0	33017	32676	
4216	0	33061	32640	
4217	0	32988	32647	
4218	0	32918	32713	
4219	0	32961	32583	
4220	0	32978	32493	
4221	0	32866	32450	
4222	0	32772	32634	
4223	0	32704	32862	
4224	0	32688	32915	
4225	0	32836	32968	
4226	0	32883	32883	
4227	0	32844	32886	
4228	0	32932	32995	
4229	0	32948	32866	
4230	0	32834	32829	
4231	0	32800	32807	
4232	0	32696	32795	
4233	0	32580	32824	
4234	0	32595	32952	
4235	0	32504	32998	
4236	0	32537	33042	
4237	0	32536	33069	
4238	0	32537	33047	
4239	0	32591	33128	
4240	0	32618	33216	
4241	0	32618	33025	
4242	0	32702	32974	
4243	0	32712	32996	
4244	0	32772	32988	
4245	0	32768	32924	
4246	0	32850	32843	
4247	0	32908	32894	
4248	0	32948	32785	
4249	0	32969	32804	
4250	0	32948	32682	
4251	0	32962	32684	
4252	0	32746	32812	
4253	0	32794	32775	
4254	0	32688	32664	
4255	0	32668	32594	
4256	0	32741	32674	
4257	0	32713	32707	
4258	0	32872	32690	
4259	0	32920	32602	
4260	0	32876	32712	
4261	0	32944	32762	
4262	0	32904	32723	
4263	0	32796	32662	
4264	0	32779	32775	
4265	0	32824	32839	
4266	0	32804	32920	
4267	0	32824	32829	
4268	0	32828	32716	
4269	0	33016	32708	
4270	0	32992	32817	
4271	0	32944	32788	
4272	0	32925	32868	
4273	0	32770	32828	
4274	0	32765	32832	
4275	0	32765	32808	
4276	0	32744	32800	
4277	0	32741	32796	
4278	0	32769	32735	
4279	0	32788	32666	
4280	0	32854	32694	
4281	0	32856	32736	
4282	0	32722	32765	
4283	0	32626	32827	
4284	0	32589	32797	
4285	0	32652	32837	
4286	0	32800	32900	
4287	0	32740	32833	
4288	0	32801	32832	
4289	0	32825	32863	
4290	0	32878	32773	
4291	0	32952	32746	
4292	0	32968	32695	
4293	0	32960	32704	
4294	0	33016	32754	
4295	0	32872	32869	
4296	0	32774	32927	
4297	0	32706	32888	
4298	0	32761	32672	
4299	0	32756	32710	
4300	0	32824	32606	
4301	0	32780	32678	
4302	0	32814	32892	
4303	0	32762	32937	
4304	0	32748	32949	
4305	0	32732	32816	
4306	0	32796	32880	
4307	0	32793	32818	
4308	0	32832	32800	
4309	0	32764	32775	
4310	0	32772	32775	
4311	0	32858	32687	
4312	0	32800	32826	
4313	0	32864	32713	
4314	0	32763	32654	
4315	0	32740	32775	
4316	0	32856	32876	
4317	0	32744	32873	
4318	0	32771	32910	
4319	0	32810	32820	
4320	0	32860	32844	
4321	0	32810	32828	
4322	0	32861	32775	
4323	0	32880	32823	
4324	0	32809	32839	
4325	0	32804	32939	
4326	0	32800	32943	
4327	0	32810	32786	
4328	0	32736	32716	
4329	0	32808	32818	
4330	0	32792	32829	
4331	0	32871	32796	
4332	0	32816	32802	
4333	0	32837	32691	
4334	0	32811	32688	
4335	0	32860	32798	
4336	0	32836	32673	
4337	0	32900	32701	
4338	0	32872	32715	
4339	0	32860	32909	
4340	0	32880	32958	
4341	0	32665	32911	
4342	0	32664	32991	
4343	0	32704	32833	
4344	0	32647	32738	
4345	0	32759	32841	
4346	0	32920	32808	
4347	0	33048	32853	
4348	0	33148	32996	
4349	0	33160	32813	
4350	0	32950	32825	
4351	0	32760	32615	
4352	0	32726	32732	
4353	0	32637	32794	
4354	0	32448	32827	
4355	0	32498	32861	
4356	0	32558	32913	
4357	0	32610	32800	
4358	0	32586	32702	
4359	0	32624	32731	
4360	0	32800	32766	
4361	0	32914	32752	
4362	0	33008	32647	
4363	0	33020	32922	
4364	0	32940	32836	
4365	0	32925	32854	
4366	0	32910	32771	
4367	0	32952	32758	
4368	0	32914	32723	
4369	0	32838	32791	
4370	0	32760	32859	
4371	0	32715	32924	
4372	0	32800	32898	
4373	0	32658	32742	
4374	0	32664	32833	
4375	0	32756	32833	
4376	0	32764	32751	
4377	0	32780	32620	
4378	0	32844	32680	
4379	0	32904	32720	
4380	0	32966	32752	
4381	0	32916	32818	
4382	0	32772	32833	
4383	0	32678	33026	
4384	0	32668	32844	
4385	0	32596	32948	
4386	0	32720	32859	
4387	0	32721	32875	
4388	0	32781	32723	
4389	0	32958	32702	
4390	0	32832	32818	
4391	0	32922	32864	
4392	0	32877	32780	
4393	0	32720	32824	
4394	0	32671	32806	
4395	0	32700	32882	
4396	0	32824	32771	
4397	0	33080	32740	
4398	0	33146	32840	
4399	0	33020	32841	
4400	0	32900	32830	
4401	0	32842	32753	
4402	0	32620	32806	
4403	0	32389	32718	
4404	0	32420	32879	
4405	0	32548	32697	
4406	0	32699	32661	
4407	0	32844	32715	
4408	0	33052	32790	
4409	0	33108	32813	
4410	0	33124	32978	
4411	0	32824	32843	
4412	0	32794	32597	
4413	0	32748	32681	
4414	0	32775	32726	
4415	0	32792	32801	
4416	0	32862	32994	
4417	0	32793	33049	
4418	0	32688	33031	
4419	0	32748	33001	
4420	0	32797	32878	
4421	0	32696	32743	
4422	0	32872	32834	
4423	0	32912	32801	
4424	0	32938	32845	
4425	0	32924	32633	
4426	0	32818	32568	
4427	0	32720	32716	
4428	0	32624	32732	
4429	0	32664	32743	
4430	0	32564	32664	
4431	0	32566	32906	
4432	0	32572	32855	
4433	0	32716	32883	
4434	0	32780	32936	
4435	0	32869	32727	
4436	0	32936	32710	
4437	0	32985	32815	
4438	0	33024	32868	
4439	0	32920	32920	
4440	0	32858	32883	
4441	0	32996	32856	
4442	0	32882	32731	
4443	0	32779	32771	
4444	0	32748	32685	
4445	0	32740	32647	
4446	0	32747	32767	
4447	0	32716	32805	
4448	0	32822	32892	
4449	0	32796	32764	
4450	0	32768	32854	
4451	0	32849	33031	
4452	0	32816	33008	
4453	0	32852	32852	
4454	0	32902	32772	
4455	0	32907	32797	
4456	0	32948	32859	
4457	0	32876	32811	
4458	0	32926	32800	
4459	0	32860	32855	
4460	0	32752	32858	
4461	0	32804	32682	
4462	0	32704	32723	
4463	0	32620	32775	
4464	0	32640	32815	
4465	0	32488	32743	
4466	0	32685	32733	
4467	0	32786	32826	
4468	0	32906	32852	
4469	0	32875	32752	
4470	0	32920	32710	
4471	0	32868	32831	
4472	0	32851	32690	
4473	0	32836	32807	
4474	0	32876	32886	
4475	0	32896	32866	
4476	0	32873	32913	
4477	0	32866	32924	
4478	0	32846	32914	
4479	0	32781	32775	
4480	0	32773	32814	
4481	0	32818	32766	
4482	0	32905	32686	
4483	0	32882	32719	
4484	0	32810	32718	
4485	0	32726	32831	
4486	0	32720	32835	
4487	0	32726	33053	
4488	0	32765	32832	
4489	0	32864	32847	
4490	0	32976	32800	
4491	0	32970	32678	
4492	0	32958	32582	
4493	0	32952	32698	
4494	0	32844	32526	
4495	0	32782	32584	
4496	0	32671	32754	
4497	0	32517	32980	
4498	0	32354	32937	
4499	0	32384	32993	
4500	0	32558	32987	
4501	0	32805	32838	
4502	0	32752	32997	
4503	0	32850	33095	
4504	0	32980	32873	
4505	0	33016	32943	
4506	0	32989	32823	
4507	0	32844	32676	
4508	0	32838	32769	
4509	0	32784	32775	
4510	0	32852	32748	
4511	0	32812	32672	
4512	0	32740	32559	
4513	0	32956	32983	
4514	0	33277	33074	
4515	0	33302	33109	
4516	0	32958	32796	
4517	0	32775	32672	
4518	0	32668	32601	
4519	0	32432	32726	
4520	0	32630	32763	
4521	0	32682	33090	
4522	0	32716	33388	
4523	0	32768	33466	
4524	0	32836	33156	
4525	0	32716	32475	
4526	0	32663	31996	
4527	0	32656	32028	
4528	0	32696	32339	
4529	0	32770	32583	
4530	0	32688	32882	
4531	0	32841	33157	
4532	0	32860	32970	
4533	0	32824	32775	
4534	0	32888	32849	
4535	0	32852	32729	
4536	0	32854	32967	
4537	0	32864	32962	
4538	0	32805	32886	
4539	0	32940	32764	
4540	0	32913	32813	
4541	0	32898	32861	
4542	0	32832	32786	
4543	0	32836	32819	
4544	0	32776	32839	
4545	0	32824	32841	
4546	0	32820	32838	
4547	0	32746	32788	
4548	0	32844	32755	
4549	0	32857	32890	
4550	0	32800	32576	
4551	0	32870	32594	
4552	0	32824	32802	
4553	0	32821	32748	
4554	0	32782	32750	
4555	0	32804	32827	
4556	0	32804	32773	
4557	0	32854	32791	
4558	0	32797	32809	
4559	0	32768	32852	
4560	0	32749	33050	
4561	0	32706	33076	
4562	0	32736	32873	
4563	0	32768	32799	
4564	0	32816	32698	
4565	0	32857	32731	
4566	0	32845	32736	
4567	0	32810	32694	
4568	0	32880	32636	
4569	0	32902	32775	
4570	0	32836	32980	
4571	0	32841	32890	
4572	0	32808	32865	
4573	0	32896	32873	
4574	0	32781	32822	
4575	0	32772	32852	
4576	0	32632	32930	
4577	0	32669	32680	
4578	0	32732	32729	
4579	0	32796	32858	
4580	0	32794	32829	
4581	0	32888	32772	
4582	0	32899	32610	
4583	0	32842	32678	
4584	0	32850	32826	
4585	0	32876	32804	
4586	0	32920	32775	
4587	0	33061	32850	
4588	0	33033	32906	
4589	0	32994	32712	
4590	0	32994	32786	
4591	0	32864	32734	
4592	0	32708	32736	
4593	0	32621	32484	
4594	0	32536	32710	
4595	0	32646	32637	
4596	0	32560	32732	
4597	0	32549	32859	
4598	0	32610	32925	
4599	0	32828	33287	
4600	0	32916	33318	
4601	0	32930	33216	
4602	0	32990	32791	
4603	0	33064	32784	
4604	0	33088	32526	
4605	0	33076	32221	
4606	0	32912	32230	
4607	0	32774	32406	
4608	0	32664	32325	
4609	0	32532	32638	
4610	0	32341	33133	
4611	0	32500	33435	
4612	0	32544	33671	
4613	0	32469	33269	
4614	0	32688	32878	
4615	0	32931	32767	
4616	0	33054	32703	
4617	0	33052	32581	
4618	0	32951	32600	
4619	0	32746	32740	
4620	0	32720	32712	
4621	0	32628	32886	
4622	0	32717	33036	
4623	0	32869	33007	
4624	0	32933	32863	
4625	0	32876	32816	
4626	0	32820	32656	
4627	0	32824	32583	
4628	0	32912	32737	
4629	0	33010	32887	
4630	0	32985	33339	
4631	0	32901	33282	
4632	0	32774	33186	
4633	0	32702	32898	
4634	0	32508	32339	
4635	0	32608	32103	
4636	0	32698	32123	
4637	0	32796	32549	
4638	0	32833	32372	
4639	0	32680	32650	
4640	0	32757	32891	
4641	0	32775	32861	
4642	0	32824	33182	
4643	0	33000	33190	
4644	0	33064	32847	
4645	0	33068	32799	
4646	0	33008	32770	
4647	0	32906	32518	
4648	0	32763	32628	
4649	0	32614	32711	
4650	0	32602	32872	
4651	0	32596	33193	
4652	0	32661	33351	
4653	0	32601	33170	
4654	0	32696	32847	
4655	0	32750	32747	
4656	0	32860	32635	
4657	0	32784	32622	
4658	0	32884	32813	
4659	0	32829	32736	
4660	0	32938	32758	
4661	0	32944	32940	
4662	0	32896	33104	
4663	0	32854	32912	
4664	0	32824	32552	
4665	0	32808	32303	
4666	0	32714	32255	
4667	0	32812	32274	
4668	0	32764	32758	
4669	0	32868	33258	
4670	0	33012	33334	
4671	0	32848	33050	
4672	0	32796	33187	
4673	0	32568	32796	
4674	0	32536	32556	
4675	0	32594	32836	
4676	0	32500	32873	
4677	0	32680	32878	
4678	0	32775	33012	
4679	0	32984	33073	
4680	0	32928	33002	
4681	0	33086	32893	
4682	0	33060	32530	
4683	0	32972	32311	
4684	0	32884	32496	
4685	0	32702	32249	
4686	0	32576	32580	
4687	0	32430	32577	
4688	0	32458	32652	
4689	0	32676	33348	
4690	0	32713	33415	
4691	0	32888	33436	
4692	0	33423	32808	
4693	0	33344	32226	
4694	0	33184	32238	
4695	0	32918	32320	
4696	0	32524	32635	
4697	0	32497	32804	
4698	0	32505	33079	
4699	0	32731	32962	
4700	0	32852	33406	
4701	0	33004	33356	
4702	0	33092	33312	
4703	0	32826	33254	
4704	0	32745	32986	
4705	0	32612	32875	
4706	0	32672	32674	
4707	0	32564	32559	
4708	0	32626	32006	
4709	0	32672	32217	
4710	0	32585	32711	
4711	0	32549	32821	
4712	0	32609	33138	
4713	0	32913	32955	
4714	0	33053	32197	
4715	0	33264	32205	
4716	0	33210	32299	
4717	0	33290	32630	
4718	0	33192	33056	
4719	0	33053	33471	
4720	0	33090	33476	
4721	0	32996	33263	
4722	0	32548	32882	
4723	0	32320	32660	
4724	0	32168	32647	
4725	0	31936	32828	
4726	0	31933	32765	
4727	0	32061	32549	
4728	0	32564	31998	
4729	0	33064	31968	
4730	0	33116	32128	
4731	0	33040	32988	
4732	0	33257	32967	
4733	0	33302	33607	
4734	0	33112	33506	
4735	0	32842	32767	
4736	0	33088	32599	
4737	0	33140	33272	
4738	0	33180	34042	
4739	0	33152	33320	
4740	0	33138	32694	
4741	0	33242	32315	
4742	0	33328	32704	
4743	0	33556	33129	
4744	0	33156	33704	
4745	0	32402	33317	
4746	0	32121	32853	
4747	0	31952	32454	
4748	0	31980	32231	
4749	0	32220	32373	
4750	0	32468	32445	
4751	0	32688	32510	
4752	0	32788	32336	
4753	0	32904	32397	
4754	0	32668	32564	
4755	0	32748	32916	
4756	0	32908	33163	
4757	0	33040	32924	
4758	0	33060	33095	
4759	0	33208	32752	
4760	0	33235	32694	
4761	0	33338	33044	
4762	0	33376	32420	
4763	0	33117	31653	
4764	0	32646	31323	
4765	0	32372	31852	
4766	0	32357	33001	
4767	0	32640	34241	
4768	0	32940	34981	
4769	0	32825	34622	
4770	0	32689	33786	
4771	0	32728	32712	
4772	0	32828	32272	
4773	0	32818	32126	
4774	0	32570	31944	
4775	0	32464	32487	
4776	0	32216	32837	
4777	0	32292	32746	
4778	0	32296	32688	
4779	0	32708	32671	
4780	0	32900	32694	
4781	0	33000	32798	
4782	0	33458	32496	
4783	0	33412	32490	
4784	0	33264	32467	
4785	0	32944	32815	
4786	0	32784	32884	
4787	0	32580	33097	
4788	0	32372	33362	
4789	0	32374	33398	
4790	0	32800	32838	
4791	0	33244	32417	
4792	0	32921	32226	
4793	0	33448	32374	
4794	0	33698	31878	
4795	0	33930	31546	
4796	0	33345	31799	
4797	0	33222	31387	
4798	0	33212	32221	
4799	0	32769	33905	
4800	0	32292	34793	
4801	0	32084	35169	
4802	0	31792	34670	
4803	0	31816	34463	
4804	0	31688	33830	
4805	0	31617	32839	
4806	0	32096	31988	
4807	0	32648	31938	
4808	0	32772	32317	
4809	0	32672	32480	
4810	0	32962	32729	
4811	0	33568	32573	
4812	0	33572	32487	
4813	0	33108	32584	
4814	0	33042	32847	
4815	0	33138	32809	
4816	0	32902	32512	
4817	0	32884	32604	
4818	0	33022	32903	
4819	0	32896	32880	
4820	0	32688	32622	
4821	0	32754	32276	
4822	0	32834	31986	
4823	0	32918	32066	
4824	0	32852	32489	
4825	0	32572	33047	
4826	0	32669	32963	
4827	0	32716	33408	
4828	0	32804	33798	
4829	0	32866	33705	
4830	0	33292	33348	
4831	0	34080	32566	
4832	0	33881	32486	
4833	0	33808	32543	
4834	0	33224	32296	
4835	0	32494	32136	
4836	0	31768	32151	
4837	0	30888	32566	
4838	0	30749	32437	
4839	0	31062	32598	
4840	0	31773	32885	
4841	0	32412	33448	
4842	0	33224	33456	
4843	0	33692	33267	
4844	0	33890	32500	
4845	0	33648	32626	
4846	0	33336	33169	
4847	0	33248	32682	
4848	0	33378	32685	
4849	0	33252	33192	
4850	0	33854	33492	
4851	0	34020	32849	
4852	0	33988	32477	
4853	0	33920	32614	
4854	0	33316	32992	
4855	0	31881	33427	
4856	0	31039	33908	
4857	0	29794	34099	
4858	0	29642	33032	
4859	0	30829	32172	
4860	0	32194	31822	
4861	0	33392	31573	
4862	0	34061	31503	
4863	0	34360	32272	
4864	0	34425	32765	
4865	0	34789	33205	
4866	0	34768	32986	
4867	0	34080	32715	
4868	0	33136	33132	
4869	0	32000	32848	
4870	0	30860	32798	
4871	0	30884	33225	
4872	0	31742	33386	
4873	0	32220	32647	
4874	0	32837	32114	
4875	0	32768	31686	
4876	0	32338	32291	
4877	0	32406	33396	
4878	0	32601	34348	
4879	0	32500	33966	
4880	0	32408	33863	
4881	0	32618	33248	
4882	0	32852	32629	
4883	0	33256	32194	
4884	0	33360	31961	
4885	0	33499	32014	
4886	0	33784	32232	
4887	0	33984	32410	
4888	0	33618	32996	
4889	0	33190	33222	
4890	0	33010	32505	
4891	0	32479	32769	
4892	0	32073	33112	
4893	0	32249	33132	
4894	0	32183	33026	
4895	0	32157	32922	
4896	0	31993	32802	
4897	0	32322	32756	
4898	0	32668	32805	
4899	0	32918	32623	
4900	0	33227	32496	
4901	0	33432	32455	
4902	0	33409	32649	
4903	0	33320	32605	
4904	0	33068	32400	
4905	0	32973	32494	
4906	0	32809	32565	
4907	0	32868	33023	
4908	0	32570	33470	
4909	0	32614	33565	
4910	0	32828	33435	
4911	0	32572	33046	
4912	0	32306	32259	
4913	0	33037	32263	
4914	0	33438	32636	
4915	0	33592	33172	
4916	0	33408	33409	
4917	0	32965	32680	
4918	0	33034	32668	
4919	0	32794	32242	
4920	0	32504	32657	
4921	0	31872	33757	
4922	0	31514	33568	
4923	0	31755	33298	
4924	0	31885	32849	
4925	0	32331	32165	
4926	0	33181	32144	
4927	0	33440	32714	
4928	0	33433	33188	
4929	0	33016	32995	
4930	0	32956	32628	
4931	0	32968	32745	
4932	0	32372	32856	
4933	0	32520	32716	
4934	0	33092	32655	
4935	0	32926	32453	
4936	0	32941	32134	
4937	0	33190	32108	
4938	0	33218	32223	
4939	0	34346	33112	
4940	0	34842	33788	
4941	0	34348	33609	
4942	0	33209	32970	
4943	0	32570	32663	
4944	0	31532	32699	
4945	0	30818	32493	
4946	0	30584	32376	
4947	0	30784	32093	
4948	0	31503	32646	
4949	0	32468	33436	
4950	0	32992	33325	
4951	0	33256	33592	
4952	0	33164	33691	
4953	0	33188	33341	
4954	0	33383	32828	
4955	0	33608	32530	
4956	0	33348	32372	
4957	0	33338	32571	
4958	0	32848	32514	
4959	0	32448	32500	
4960	0	32684	32146	
4961	0	32722	32174	
4962	0	33092	32244	
4963	0	33120	32973	
4964	0	32932	33894	
4965	0	32772	33586	
4966	0	32616	32794	
4967	0	32288	32492	
4968	0	32126	32797	
4969	0	32344	33046	
4970	0	32396	33389	
4971	0	33390	33120	
4972	0	34512	32984	
4973	0	34720	32380	
4974	0	33916	31218	
4975	0	32841	31655	
4976	0	32144	32640	
4977	0	32002	33488	
4978	0	32781	33384	
4979	0	33289	33124	
4980	0	32602	33822	
4981	0	31836	33102	
4982	0	30922	32733	
4983	0	30896	32156	
4984	0	31572	32105	
4985	0	31919	32873	
4986	0	32784	33279	
4987	0	34073	33182	
4988	0	34316	32868	
4989	0	34028	32775	
4990	0	33780	32790	
4991	0	32715	32742	
4992	0	32416	32650	
4993	0	32568	32864	
4994	0	32460	32658	
4995	0	31969	33152	
4996	0	32192	33505	
4997	0	33126	32272	
4998	0	33671	31953	
4999	0	33876	32199	
5000	0	34529	32812	
5001	0	34008	32930	
5002	0	33382	32951	
5003	0	32678	32692	
5004	0	31356	32555	
5005	0	31098	32869	
5006	0	31192	33058	
5007	0	31860	33691	
5008	0	32617	33108	
5009	0	33860	33047	
5010	0	33642	33583	
5011	0	34086	33001	
5012	0	33876	32918	
5013	0	33120	32745	
5014	0	32016	32680	
5015	0	31642	32562	
5016	0	32162	32463	
5017	0	32893	32516	
5018	0	32816	32636	
5019	0	33594	32576	
5020	0	34441	32603	
5021	0	33370	32599	
5022	0	32514	32579	
5023	0	31828	32611	
5024	0	31318	32716	
5025	0	31333	32668	
5026	0	32142	32742	
5027	0	33284	32845	
5028	0	33318	33064	
5029	0	33007	33654	
5030	0	33032	32987	
5031	0	32770	32297	
5032	0	32488	32397	
5033	0	32124	32557	
5034	0	32146	32568	
5035	0	32728	32852	
5036	0	33415	33799	
5037	0	33632	33362	
5038	0	33444	33005	
5039	0	33348	32869	
5040	0	33168	33068	
5041	0	32833	32709	
5042	0	32788	32538	
5043	0	32789	32685	
5044	0	32812	32592	
5045	0	33132	32519	
5046	0	33484	32472	
5047	0	33581	32188	
5048	0	33331	32316	
5049	0	32946	32596	
5050	0	33044	33170	
5051	0	33248	33247	
5052	0	33152	32758	
5053	0	32690	32458	
5054	0	32082	32985	
5055	0	31698	33526	
5056	0	31674	32767	
5057	0	31684	32896	
5058	0	32160	32933	
5059	0	32530	32816	
5060	0	32541	32683	
5061	0	32517	32660	
5062	0	33188	32976	
5063	0	34364	32775	
5064	0	35463	32366	
5065	0	35348	33056	
5066	0	34692	33388	
5067	0	34130	33544	
5068	0	32212	32926	
5069	0	30248	32373	
5070	0	29664	31513	
5071	0	29964	31248	
5072	0	31388	30800	
5073	0	32280	31182	
5074	0	32210	33367	
5075	0	31736	35706	
5076	0	31884	35763	
5077	0	32482	35062	
5078	0	33372	33983	
5079	0	33928	33071	
5080	0	34332	32484	
5081	0	34196	32224	
5082	0	34408	32357	
5083	0	33522	32395	
5084	0	33158	32336	
5085	0	31976	32364	
5086	0	31428	32194	
5087	0	31800	32390	
5088	0	32412	32381	
5089	0	32454	32327	
5090	0	33044	32297	
5091	0	34144	32440	
5092	0	34355	32615	
5093	0	33757	32889	
5094	0	33483	33514	
5095	0	33256	32626	
5096	0	32774	31889	
5097	0	32617	31436	
5098	0	33044	32724	
5099	0	33372	33174	
5100	0	32713	32819	
5101	0	32775	32906	
5102	0	32459	33465	
5103	0	31616	34940	
5104	0	31744	34804	
5105	0	31628	33964	
5106	0	31628	33514	
5107	0	31968	32647	
5108	0	32068	32420	
5109	0	31927	32204	
5110	0	32622	32390	
5111	0	33824	32376	
5112	0	34714	32492	
5113	0	34676	32451	
5114	0	33870	32551	
5115	0	33044	32595	
5116	0	32913	32536	
5117	0	32890	32767	
5118	0	33148	32647	
5119	0	32468	32406	
5120	0	32644	32305	
5121	0	32838	32524	
5122	0	32452	32236	
5123	0	31488	31696	
5124	0	31168	32230	
5125	0	30880	33236	
5126	0	30749	33211	
5127	0	31990	32981	
5128	0	33108	32958	
5129	0	34401	33096	
5130	0	35288	32568	
5131	0	35724	32438	
5132	0	35516	32590	
5133	0	35412	33159	
5134	0	35584	32675	
5135	0	33926	32379	
5136	0	32295	32547	
5137	0	31132	32996	
5138	0	30164	33252	
5139	0	29748	33235	
5140	0	30356	33528	
5141	0	31030	33645	
5142	0	31701	33341	
5143	0	32452	32974	
5144	0	32416	32787	
5145	0	32900	32592	
5146	0	33286	32700	
5147	0	33512	32788	
5148	0	33768	32497	
5149	0	32734	32386	
5150	0	32578	32873	
5151	0	33402	33362	
5152	0	34200	32612	
5153	0	33772	32077	
5154	0	33504	33584	
5155	0	33081	33982	
5156	0	32466	32715	
5157	0	32290	32289	
5158	0	32026	32801	
5159	0	32025	32457	
5160	0	31965	31881	
5161	0	32420	32085	
5162	0	32522	33129	
5163	0	32948	34544	
5164	0	32756	34392	
5165	0	32668	33266	
5166	0	33100	33131	
5167	0	33728	33629	
5168	0	34128	33272	
5169	0	33468	33017	
5170	0	33004	32551	
5171	0	32254	32250	
5172	0	33268	32202	
5173	0	33764	32132	
5174	0	33384	32188	
5175	0	33092	32296	
5176	0	32186	32579	
5177	0	31320	32462	
5178	0	31079	32568	
5179	0	31460	32676	
5180	0	32232	32683	
5181	0	32421	32706	
5182	0	33248	32825	
5183	0	33352	32745	
5184	0	33544	32654	
5185	0	34020	32877	
5186	0	34062	32541	
5187	0	33232	32641	
5188	0	32098	32944	
5189	0	33056	33087	
5190	0	33310	32994	
5191	0	32898	32547	
5192	0	32128	32361	
5193	0	31914	32199	
5194	0	31248	32535	
5195	0	31364	32339	
5196	0	31440	32812	
5197	0	32824	33084	
5198	0	34116	33340	
5199	0	35734	33166	
5200	0	35784	32775	
5201	0	35800	33614	
5202	0	34885	33330	
5203	0	32013	33313	
5204	0	29858	32857	
5205	0	29604	33023	
5206	0	29786	32928	
5207	0	30408	32720	
5208	0	31428	31949	
5209	0	32572	31054	
5210	0	33361	30636	
5211	0	34388	32187	
5212	0	34464	34504	
5213	0	34580	35296	
5214	0	33797	34499	
5215	0	33229	33287	
5216	0	33805	32276	
5217	0	33492	32328	
5218	0	33714	32412	
5219	0	34916	32654	
5220	0	34322	32903	
5221	0	33314	32699	
5222	0	33190	33096	
5223	0	32642	32578	
5224	0	32054	32111	
5225	0	30698	32359	
5226	0	30720	32295	
5227	0	31570	33170	
5228	0	31076	33136	
5229	0	29808	32487	
5230	0	29931	31432	
5231	0	30938	32466	
5232	0	32278	33953	
5233	0	34944	32775	
5234	0	34970	33394	
5235	0	33900	34380	
5236	0	33002	34622	
5237	0	32136	33799	
5238	0	32324	33142	
5239	0	33240	32249	
5240	0	33376	32121	
5241	0	33476	31566	
5242	0	33852	31055	
5243	0	33124	31812	
5244	0	33360	32707	
5245	0	33566	33138	
5246	0	33648	33047	
5247	0	34972	32694	
5248	0	34920	32474	
5249	0	35712	32721	
5250	0	35618	33360	
5251	0	33276	33937	
5252	0	31048	33026	
5253	0	29282	32346	
5254	0	27785	32286	
5255	0	27796	32970	
5256	0	28480	33382	
5257	0	30612	33490	
5258	0	32044	33701	
5259	0	33774	32868	
5260	0	34810	32314	
5261	0	34660	31822	
5262	0	33922	32002	
5263	0	34032	32696	
5264	0	34699	33316	
5265	0	34490	33077	
5266	0	33876	32877	
5267	0	33154	32872	
5268	0	32576	33168	
5269	0	32327	33252	
5270	0	31780	33669	
5271	0	32408	33440	
5272	0	33404	33109	
5273	0	33760	32695	
5274	0	33892	32143	
5275	0	33880	31578	
5276	0	34672	31371	
5277	0	34534	31650	
5278	0	34400	32123	
5279	0	31166	32572	
5280	0	29892	32750	
5281	0	30444	32909	
5282	0	30748	33112	
5283	0	31972	33224	
5284	0	33043	33232	
5285	0	33938	32999	
5286	0	33485	32809	
5287	0	33008	32739	
5288	0	32421	32636	
5289	0	31638	32711	
5290	0	32004	32346	
5291	0	32472	32592	
5292	0	33024	33164	
5293	0	33238	33060	
5294	0	33128	32471	
5295	0	33745	32864	
5296	0	34996	33492	
5297	0	35055	32681	
5298	0	34526	32092	
5299	0	32688	33379	
5300	0	30528	33146	
5301	0	29522	32887	
5302	0	29967	33110	
5303	0	32381	33385	
5304	0	33178	33543	
5305	0	32829	33520	
5306	0	32545	33037	
5307	0	32583	32619	
5308	0	32822	32519	
5309	0	32352	32510	
5310	0	33592	32296	
5311	0	33544	32097	
5312	0	33808	32659	
5313	0	34356	32915	
5314	0	33705	32906	
5315	0	32752	32813	
5316	0	31296	32698	
5317	0	30624	32582	
5318	0	31124	32743	
5319	0	32124	32888	
5320	0	32686	32727	
5321	0	33140	33261	
5322	0	34370	33418	
5323	0	36964	33192	
5324	0	37202	33026	
5325	0	35788	32669	
5326	0	33796	32276	
5327	0	30816	32507	
5328	0	28592	32340	
5329	0	28226	32314	
5330	0	29072	32330	
5331	0	30442	32388	
5332	0	32674	32212	
5333	0	33746	32169	
5334	0	34604	32541	
5335	0	34708	33331	
5336	0	34486	33506	
5337	0	35064	32818	
5338	0	34488	32985	
5339	0	33952	32751	
5340	0	32008	33127	
5341	0	29342	34220	
5342	0	28187	34778	
5343	0	29200	33928	
5344	0	31724	32804	
5345	0	34302	32277	
5346	0	35334	32006	
5347	0	35706	32175	
5348	0	34972	32012	
5349	0	34660	31954	
5350	0	34426	31773	
5351	0	34090	32080	
5352	0	34160	32861	
5353	0	33832	32864	
5354	0	32772	32467	
5355	0	32338	32503	
5356	0	31880	32775	
5357	0	31967	32454	
5358	0	31568	32392	
5359	0	31682	32796	
5360	0	32238	32839	
5361	0	32096	33068	
5362	0	32140	33322	
5363	0	32618	33644	
5364	0	32610	34219	
5365	0	35248	33056	
5366	0	35628	32489	
5367	0	35936	32820	
5368	0	34644	32801	
5369	0	31066	32729	
5370	0	29592	32501	
5371	0	28256	32358	
5372	0	27419	32743	
5373	0	27495	32818	
5374	0	28953	33381	
5375	0	30212	33350	
5376	0	32424	33253	
5377	0	34956	32775	
5378	0	35475	32410	
5379	0	35200	32550	
5380	0	34872	33240	
5381	0	34760	33241	
5382	0	34666	32807	
5383	0	34770	32727	
5384	0	33812	32688	
5385	0	33250	32916	
5386	0	33616	32873	
5387	0	33352	32702	
5388	0	34242	32682	
5389	0	35462	32813	
5390	0	35280	32849	
5391	0	33841	33012	
5392	0	31920	32884	
5393	0	30605	32922	
5394	0	29726	32691	
5395	0	30720	32498	
5396	0	31882	32580	
5397	0	32558	32799	
5398	0	33668	32573	
5399	0	33109	32108	
5400	0	32592	32671	
5401	0	32400	32993	
5402	0	32420	32726	
5403	0	32985	33382	
5404	0	33353	33992	
5405	0	32928	34013	
5406	0	32306	32933	
5407	0	31870	32251	
5408	0	33088	31713	
5409	0	33956	31157	
5410	0	33684	31826	
5411	0	33341	32400	
5412	0	33504	33720	
5413	0	32104	34401	
5414	0	31237	33718	
5415	0	31388	32647	
5416	0	32301	32616	
5417	0	33280	32500	
5418	0	33818	32063	
5419	0	33867	32550	
5420	0	33128	32564	
5421	0	31976	32891	
5422	0	31864	32843	
5423	0	32194	33132	
5424	0	33584	33172	
5425	0	33622	32752	
5426	0	33600	32799	
5427	0	33816	32629	
5428	0	32024	32564	
5429	0	31520	33098	
5430	0	32535	33671	
5431	0	35250	33274	
5432	0	35140	32788	
5433	0	34371	32562	
5434	0	32952	32620	
5435	0	32256	33436	
5436	0	31593	33856	
5437	0	29208	33230	
5438	0	28954	32694	
5439	0	30218	31403	
5440	0	31192	31169	
5441	0	31554	31485	
5442	0	32356	32012	
5443	0	33186	32285	
5444	0	33592	32556	
5445	0	34780	33004	
5446	0	34168	33317	
5447	0	33902	33564	
5448	0	33576	33763	
5449	0	33094	33692	
5450	0	32496	33228	
5451	0	32140	32826	
5452	0	32098	32461	
5453	0	32316	32386	
5454	0	32904	32534	
5455	0	33880	32461	
5456	0	34172	32660	
5457	0	35824	32588	
5458	0	34552	33071	
5459	0	33808	33300	
5460	0	33352	33412	
5461	0	33040	33053	
5462	0	31908	32821	
5463	0	31378	32533	
5464	0	31412	32612	
5465	0	30984	32852	
5466	0	31188	32540	
5467	0	32044	32399	
5468	0	32534	32482	
5469	0	33829	33106	
5470	0	35459	33410	
5471	0	35632	33459	
5472	0	36080	33434	
5473	0	36300	33111	
5474	0	36280	32425	
5475	0	36058	32199	
5476	0	34082	32305	
5477	0	28908	32976	
5478	0	24104	32980	
5479	0	23172	32860	
5480	0	24312	32574	
5481	0	26868	32804	
5482	0	32469	32851	
5483	0	35800	32492	
5484	0	36658	32438	
5485	0	36345	32486	
5486	0	36528	32749	
5487	0	35675	32620	
5488	0	35556	32566	
5489	0	34536	32734	
5490	0	33890	32972	
5491	0	35013	32789	
5492	0	34112	32690	
5493	0	31440	33324	
5494	0	29040	33641	
5495	0	29560	33849	
5496	0	30717	33799	
5497	0	32392	33324	
5498	0	33540	33501	
5499	0	33902	33792	
5500	0	34080	33606	
5501	0	33864	33021	
5502	0	31901	31558	
5503	0	30834	31062	
5504	0	30248	31371	
5505	0	32027	30972	
5506	0	33412	31266	
5507	0	34972	32125	
5508	0	35042	32571	
5509	0	36362	33024	
5510	0	36044	33340	
5511	0	33892	32958	
5512	0	32816	33088	
5513	0	31840	33287	
5514	0	30546	33321	
5515	0	30148	33102	
5516	0	30510	32785	
5517	0	29732	32631	
5518	0	30898	32263	
5519	0	32178	32192	
5520	0	34284	32362	
5521	0	36144	32938	
5522	0	35954	32980	
5523	0	35172	33006	
5524	0	33068	33517	
5525	0	32372	33664	
5526	0	31490	33701	
5527	0	32156	33485	
5528	0	31840	33311	
5529	0	32532	32850	
5530	0	33788	32590	
5531	0	32892	32088	
5532	0	31232	32318	
5533	0	31322	32246	
5534	0	31572	32152	
5535	0	31740	32332	
5536	0	33184	32700	
5537	0	34784	32850	
5538	0	35640	32982	
5539	0	37608	33218	
5540	0	35908	33059	
5541	0	33416	33046	
5542	0	30376	32879	
5543	0	27636	32843	
5544	0	27357	32871	
5545	0	29472	32844	
5546	0	32696	32984	
5547	0	34768	32920	
5548	0	34961	32804	
5549	0	34488	32907	
5550	0	33702	32807	
5551	0	32676	32816	
5552	0	32720	32635	
5553	0	32626	32279	
5554	0	32704	32589	
5555	0	32686	32881	
5556	0	32504	33028	
5557	0	32244	33269	
5558	0	32316	33505	
5559	0	33032	33620	
5560	0	33652	33042	
5561	0	34512	32816	
5562	0	33799	32915	
5563	0	32711	32690	
5564	0	33472	32374	
5565	0	34176	32288	
5566	0	33094	31802	
5567	0	31556	31651	
5568	0	31568	32669	
5569	0	32954	33325	
5570	0	33964	33473	
5571	0	32452	34476	
5572	0	31241	34439	
5573	0	32372	33341	
5574	0	32969	32887	
5575	0	33864	32682	
5576	0	34332	33223	
5577	0	34378	32896	
5578	0	35444	32050	
5579	0	34906	31128	
5580	0	33724	30833	
5581	0	30546	30855	
5582	0	27532	31772	
5583	0	27224	32442	
5584	0	28544	32726	
5585	0	31190	32420	
5586	0	31396	32866	
5587	0	31968	33459	
5588	0	32626	33510	
5589	0	33577	33394	
5590	0	33708	33368	
5591	0	33876	32773	
5592	0	33940	33071	
5593	0	34625	33352	
5594	0	35204	33464	
5595	0	34704	33564	
5596	0	33778	33375	
5597	0	32300	33287	
5598	0	31968	32635	
5599	0	33006	32060	
5600	0	34006	32510	
5601	0	34012	32551	
5602	0	34360	32881	
5603	0	33821	32582	
5604	0	33256	32460	
5605	0	32937	32686	
5606	0	32080	32991	
5607	0	32365	33156	
5608	0	32046	32944	
5609	0	32978	32592	
5610	0	34504	32096	
5611	0	33604	32378	
5612	0	33178	33030	
5613	0	33138	33246	
5614	0	32652	33298	
5615	0	32616	33390	
5616	0	32330	33134	
5617	0	31860	32994	
5618	0	30752	33332	
5619	0	30054	33780	
5620	0	29384	33238	
5621	0	30196	33644	
5622	0	32332	33820	
5623	0	33976	32892	
5624	0	37081	31858	
5625	0	37971	31647	
5626	0	36249	31517	
5627	0	33799	31366	
5628	0	30769	31686	
5629	0	28392	32410	
5630	0	28460	33940	
5631	0	30435	35136	
5632	0	33344	33700	
5633	0	34262	32296	
5634	0	33287	32052	
5635	0	33482	31862	
5636	0	33252	32185	
5637	0	33268	33159	
5638	0	32705	33214	
5639	0	33440	32805	
5640	0	33536	31567	
5641	0	34102	31078	
5642	0	34558	32100	
5643	0	34961	33074	
5644	0	32238	33296	
5645	0	31638	32981	
5646	0	31174	32588	
5647	0	30826	31780	
5648	0	31089	31789	
5649	0	32289	32511	
5650	0	32330	32610	
5651	0	32796	33159	
5652	0	33762	34119	
5653	0	32436	34392	
5654	0	31924	34268	
5655	0	32710	34630	
5656	0	32938	34799	
5657	0	33228	33620	
5658	0	34054	33298	
5659	0	33508	32928	
5660	0	33424	32201	
5661	0	34330	32352	
5662	0	34920	32282	
5663	0	34924	31491	
5664	0	33474	31686	
5665	0	32636	32507	
5666	0	33036	32495	
5667	0	32816	32452	
5668	0	32263	32553	
5669	0	31840	32366	
5670	0	31296	32348	
5671	0	31812	32212	
5672	0	31320	32263	
5673	0	30648	32796	
5674	0	32612	33638	
5675	0	33462	34220	
5676	0	34245	33950	
5677	0	34208	33323	
5678	0	33156	32614	
5679	0	31040	32282	
5680	0	31064	32671	
5681	0	32512	32797	
5682	0	32810	32201	
5683	0	33286	32410	
5684	0	32775	32928	
5685	0	32336	32944	
5686	0	32320	32836	
5687	0	31896	32989	
5688	0	33437	33522	
5689	0	34424	33106	
5690	0	34386	32468	
5691	0	33420	32238	
5692	0	32265	32368	
5693	0	31741	32222	
5694	0	32160	32354	
5695	0	32608	32438	
5696	0	33168	32466	
5697	0	33760	32137	
5698	0	33274	32279	
5699	0	34592	32892	
5700	0	34470	33392	
5701	0	33752	33384	
5702	0	33110	33829	
5703	0	32506	33706	
5704	0	31948	33251	
5705	0	29784	33632	
5706	0	29993	34030	
5707	0	32009	33533	
5708	0	32809	33234	
5709	0	34048	32710	
5710	0	33995	32221	
5711	0	34468	32315	
5712	0	33714	32525	
5713	0	32946	32310	
5714	0	32364	32346	
5715	0	31196	32416	
5716	0	31920	32406	
5717	0	32110	32674	
5718	0	32144	32430	
5719	0	32136	32103	
5720	0	32156	32319	
5721	0	32784	32434	
5722	0	32972	32502	
5723	0	32882	32869	
5724	0	33141	33699	
5725	0	32581	34373	
5726	0	30962	34786	
5727	0	31940	36128	
5728	0	33896	36103	
5729	0	34804	33671	
5730	0	36100	32416	
5731	0	34426	31577	
5732	0	33674	31046	
5733	0	31719	30704	
5734	0	32350	29632	
5735	0	32916	30447	
5736	0	32670	31500	
5737	0	31580	31805	
5738	0	31610	31955	
5739	0	32416	32135	
5740	0	33376	32468	
5741	0	34370	33205	
5742	0	33700	33832	
5743	0	33048	33676	
5744	0	31196	33363	
5745	0	31143	33224	
5746	0	31420	32939	
5747	0	32214	32990	
5748	0	33024	32532	
5749	0	33660	32450	
5750	0	34485	32692	
5751	0	34988	32943	
5752	0	34048	33087	
5753	0	34192	33211	
5754	0	33888	33333	
5755	0	31560	33347	
5756	0	32338	33236	
5757	0	32612	32922	
5758	0	32185	32410	
5759	0	31933	32007	
5760	0	32138	31638	
5761	0	32480	32127	
5762	0	32436	32884	
5763	0	32026	34164	
5764	0	31574	34810	
5765	0	31810	35334	
5766	0	31978	34265	
5767	0	32178	33918	
5768	0	32873	33546	
5769	0	33084	32692	
5770	0	33310	31719	
5771	0	33464	31354	
5772	0	33142	31557	
5773	0	33400	31803	
5774	0	33736	32052	
5775	0	33340	31952	
5776	0	32877	32306	
5777	0	33424	32692	
5778	0	33340	32967	
5779	0	33386	33097	
5780	0	32397	32938	
5781	0	32284	33062	
5782	0	32568	33573	
5783	0	33113	33513	
5784	0	32775	33183	
5785	0	31900	32743	
5786	0	31688	31788	
5787	0	31689	31591	
5788	0	31254	32344	
5789	0	31500	33464	
5790	0	33068	34025	
5791	0	33844	33148	
5792	0	34006	32037	
5793	0	33884	31615	
5794	0	33492	32357	
5795	0	32628	33357	
5796	0	31200	34662	
5797	0	31054	34362	
5798	0	32446	33446	
5799	0	33260	32410	
5800	0	33680	31610	
5801	0	33884	31040	
5802	0	32984	31417	
5803	0	32460	32085	
5804	0	31874	32557	
5805	0	32412	32866	
5806	0	32800	32903	
5807	0	33169	33348	
5808	0	32765	33588	
5809	0	33360	33019	
5810	0	33936	32668	
5811	0	34176	32937	
5812	0	34373	33159	
5813	0	34320	32676	
5814	0	33452	32903	
5815	0	34065	32977	
5816	0	33504	33163	
5817	0	32664	33620	
5818	0	32004	33360	
5819	0	31232	33483	
5820	0	31208	33296	
5821	0	31680	32994	
5822	0	32024	32492	
5823	0	32492	32648	
5824	0	32962	32393	
5825	0	33101	31991	
5826	0	33156	31775	
5827	0	32976	32048	
5828	0	33024	32449	
5829	0	33069	32733	
5830	0	33121	32868	
5831	0	33386	33360	
5832	0	32940	33248	
5833	0	31422	33079	
5834	0	31844	33094	
5835	0	33360	32859	
5836	0	33320	32558	
5837	0	33900	32353	
5838	0	33658	32076	
5839	0	34984	31529	
5840	0	35433	31567	
5841	0	34768	32557	
5842	0	33376	33653	
5843	0	29986	34324	
5844	0	28228	34498	
5845	0	28482	34198	
5846	0	30084	33661	
5847	0	31316	32550	
5848	0	32112	32608	
5849	0	32804	32813	
5850	0	32297	33118	
5851	0	32084	33324	
5852	0	32342	32934	
5853	0	33414	31992	
5854	0	34156	31916	
5855	0	34720	32299	
5856	0	34437	32056	
5857	0	33736	32292	
5858	0	33168	32574	
5859	0	33553	32616	
5860	0	35224	32244	
5861	0	35120	32408	
5862	0	34626	32182	
5863	0	32928	32000	
5864	0	31403	31976	
5865	0	31488	32820	
5866	0	31252	33900	
5867	0	31522	33383	
5868	0	31734	33608	
5869	0	31893	33821	
5870	0	31960	33999	
5871	0	32290	34328	
5872	0	32348	33287	
5873	0	33080	33682	
5874	0	33253	33533	
5875	0	33311	32725	
5876	0	33212	31501	
5877	0	32780	31739	
5878	0	33232	31474	
5879	0	33596	32114	
5880	0	33700	32350	
5881	0	33188	32702	
5882	0	33092	32939	
5883	0	33398	32772	
5884	0	34692	32764	
5885	0	35028	32724	
5886	0	34073	32984	
5887	0	32756	33159	
5888	0	31956	33010	
5889	0	31848	32844	
5890	0	29909	32959	
5891	0	30684	33334	
5892	0	32492	33144	
5893	0	33036	32868	
5894	0	33478	32639	
5895	0	33220	32336	
5896	0	32416	32250	
5897	0	32370	32841	
5898	0	33682	33173	
5899	0	33738	32917	
5900	0	32652	32760	
5901	0	32116	32706	
5902	0	32002	33092	
5903	0	32432	32929	
5904	0	32390	33186	
5905	0	32464	33687	
5906	0	32611	33379	
5907	0	32696	32640	
5908	0	32946	32199	
5909	0	32708	31844	
5910	0	32608	31986	
5911	0	32524	32722	
5912	0	31842	33089	
5913	0	32018	32608	
5914	0	32672	32813	
5915	0	33286	33127	
5916	0	33360	32970	
5917	0	33536	32734	
5918	0	33957	32292	
5919	0	33350	32061	
5920	0	32203	32347	
5921	0	32504	32691	
5922	0	33168	32536	
5923	0	33598	32643	
5924	0	34050	32879	
5925	0	33680	33496	
5926	0	33573	33350	
5927	0	33892	32792	
5928	0	34332	32348	
5929	0	34114	32444	
5930	0	32797	32594	
5931	0	30332	32639	
5932	0	29684	33068	
5933	0	30002	34256	
5934	0	30156	34614	
5935	0	31200	34335	
5936	0	32699	33146	
5937	0	34770	31513	
5938	0	35510	31259	
5939	0	34821	32438	
5940	0	34084	32495	
5941	0	33323	33163	
5942	0	32413	33159	
5943	0	32474	32911	
5944	0	32678	32804	
5945	0	32192	32847	
5946	0	32720	32962	
5947	0	33764	32761	
5948	0	33958	32588	
5949	0	32941	32480	
5950	0	32392	32327	
5951	0	31978	32598	
5952	0	32150	33086	
5953	0	32100	33520	
5954	0	31762	33328	
5955	0	31696	33038	
5956	0	32152	32418	
5957	0	32637	32087	
5958	0	32916	32134	
5959	0	33085	31986	
5960	0	32720	31866	
5961	0	32620	31972	
5962	0	32798	32302	
5963	0	33074	32861	
5964	0	33268	33421	
5965	0	33501	33363	
5966	0	32980	33074	
5967	0	33060	33112	
5968	0	33528	33474	
5969	0	33880	33274	
5970	0	33492	33201	
5971	0	33376	33242	
5972	0	33568	33162	
5973	0	32954	32509	
5974	0	33396	32125	
5975	0	33048	32182	
5976	0	32544	32537	
5977	0	32372	32568	
5978	0	32108	32647	
5979	0	32140	33018	
5980	0	32370	33164	
5981	0	32224	33284	
5982	0	31103	33208	
5983	0	31540	33268	
5984	0	32424	33330	
5985	0	33340	32788	
5986	0	33604	32620	
5987	0	33496	32671	
5988	0	33400	32616	
5989	0	32736	32524	
5990	0	33416	32774	
5991	0	33316	33184	
5992	0	31917	33204	
5993	0	31949	33538	
5994	0	31988	34098	
5995	0	31722	33793	
5996	0	31984	33353	
5997	0	32258	32478	
5998	0	32668	32054	
5999	0	33076	31849	
6000	0	33237	31782	
6001	0	32708	31799	
6002	0	32640	31855	
6003	0	32866	31919	
6004	0	33287	32819	
6005	0	33700	33568	
6006	0	34092	33542	
6007	0	33976	33333	
6008	0	34024	33094	
6009	0	33896	32903	
6010	0	33770	32710	
6011	0	33808	32545	
6012	0	34012	32625	
6013	0	33196	32505	
6014	0	32509	32498	
6015	0	31370	32950	
6016	0	30772	33535	
6017	0	30539	33080	
6018	0	30048	32932	
6019	0	31048	32804	
6020	0	32616	32604	
6021	0	33920	32890	
6022	0	34219	33208	
6023	0	33784	32893	
6024	0	33590	32743	
6025	0	33338	32477	
6026	0	33194	32367	
