# OpenSignals Text File Format. Version 1
# {"00:07:80:8C:0A:39": {"position": 0, "device": "biosignalsplux", "device name": "00:07:80:8C:0A:39", "device connection": "BTH00:07:80:8C:0A:39", "sampling rate": 1000, "resolution": [16, 16], "firmware version": 776, "comments": "", "keywords": "", "mode": 0, "sync interval": 2, "date": "2023-3-10", "time": "12:43:39.319", "channels": [1, 2], "sensor": ["EMG", "EMG"], "label": ["CH1", "CH2"], "column": ["nSeq", "DI", "CH1", "CH2"], "special": [{"SpO2": [80, 40, 5, 4, 3, 3]}, {"SpO2": [80, 40, 5, 4, 3, 3]}, {"SpO2": [80, 40, 5, 4, 3, 3]}, {"SpO2": [80, 40, 5, 4, 3, 3]}, {"SpO2": [80, 40, 5, 4, 3, 3]}, {"SpO2": [80, 40, 5, 4, 3, 3]}, {"SpO2": [80, 40, 5, 4, 3, 3]}, {"SpO2": [80, 40, 5, 4, 3, 3]}], "digital IO": [0, 1], "sleeve color": ["gray", "yellow"], "convertedValues": 0}}
# EndOfHeader
0	0	32856	32696	
1	0	32820	32784	
2	0	32784	32784	
3	0	32860	32704	
4	0	32772	32764	
5	0	32796	32710	
6	0	32768	32712	
7	0	32816	32780	
8	0	32774	32734	
9	0	32836	32788	
10	0	32764	32656	
11	0	32824	32757	
12	0	32836	32640	
13	0	32828	32804	
14	0	32818	32658	
15	0	32752	32796	
16	0	32816	32700	
17	0	32852	32768	
18	0	32832	32718	
19	0	32890	32820	
20	0	32802	32744	
21	0	32834	32742	
22	0	32844	32784	
23	0	32836	32764	
24	0	32770	32708	
25	0	32798	32844	
26	0	32880	32904	
27	0	32868	32808	
28	0	32792	32775	
29	0	32876	32746	
30	0	32824	32772	
31	0	32756	32792	
32	0	32786	32748	
33	0	32824	32761	
34	0	32778	32838	
35	0	32868	32908	
36	0	32884	32744	
37	0	32880	32724	
38	0	32806	32775	
39	0	32752	32752	
40	0	32848	32750	
41	0	32798	32796	
42	0	32833	32728	
43	0	32796	32758	
44	0	32832	32882	
45	0	32768	32708	
46	0	32860	32855	
47	0	32834	32600	
48	0	32816	32784	
49	0	32812	32750	
50	0	32868	32743	
51	0	32840	32710	
52	0	32836	32712	
53	0	32824	32742	
54	0	32826	32833	
55	0	32776	32732	
56	0	32794	32840	
57	0	32830	32822	
58	0	32812	32814	
59	0	32816	32812	
60	0	32784	32780	
61	0	32828	32736	
62	0	32788	32668	
63	0	32793	32722	
64	0	32748	32760	
65	0	32828	32824	
66	0	32868	32788	
67	0	32840	32772	
68	0	32772	32684	
69	0	32784	32810	
70	0	32852	32794	
71	0	32876	32741	
72	0	32784	32796	
73	0	32768	32796	
74	0	32800	32792	
75	0	32852	32775	
76	0	32790	32760	
77	0	32750	32844	
78	0	32784	32839	
79	0	32756	32712	
80	0	32830	32782	
81	0	32828	32720	
82	0	32824	32768	
83	0	32830	32720	
84	0	32748	32764	
85	0	32760	32736	
86	0	32768	32728	
87	0	32832	32740	
88	0	32798	32712	
89	0	32804	32804	
90	0	32802	32732	
91	0	32796	32732	
92	0	32786	32774	
93	0	32826	32706	
94	0	32798	32784	
95	0	32796	32706	
96	0	32788	32762	
97	0	32844	32768	
98	0	32808	32834	
99	0	32858	32714	
100	0	32804	32821	
101	0	32824	32866	
102	0	32852	32768	
103	0	32852	32764	
104	0	32804	32740	
105	0	32866	32796	
106	0	32804	32730	
107	0	32796	32726	
108	0	32764	32768	
109	0	32792	32772	
110	0	32788	32828	
111	0	32760	32714	
112	0	32818	32726	
113	0	32844	32752	
114	0	32880	32852	
115	0	32754	32732	
116	0	32832	32776	
117	0	32768	32767	
118	0	32824	32640	
119	0	32848	32784	
120	0	32836	32692	
121	0	32830	32790	
122	0	32788	32856	
123	0	32864	32728	
124	0	32852	32737	
125	0	32764	32852	
126	0	32826	32748	
127	0	32810	32756	
128	0	32864	32692	
129	0	32696	32724	
130	0	32784	32720	
131	0	32788	32872	
132	0	32828	32852	
133	0	32824	32720	
134	0	32836	32780	
135	0	32764	32732	
136	0	32776	32810	
137	0	32788	32822	
138	0	32886	32816	
139	0	32802	32860	
140	0	32808	32708	
141	0	32812	32852	
142	0	32830	32736	
143	0	32792	32798	
144	0	32848	32812	
145	0	32852	32750	
146	0	32792	32680	
147	0	32832	32775	
148	0	32764	32772	
149	0	32788	32818	
150	0	32830	32820	
151	0	32760	32820	
152	0	32778	32824	
153	0	32834	32740	
154	0	32800	32820	
155	0	32812	32682	
156	0	32812	32728	
157	0	32740	32744	
158	0	32892	32854	
159	0	32760	32836	
160	0	32796	32800	
161	0	32760	32760	
162	0	32792	32716	
163	0	32786	32804	
164	0	32832	32676	
165	0	32890	32806	
166	0	32772	32652	
167	0	32794	32760	
168	0	32878	32768	
169	0	32832	32744	
170	0	32821	32756	
171	0	32814	32832	
172	0	32852	32775	
173	0	32720	32710	
174	0	32849	32802	
175	0	32804	32746	
176	0	32738	32756	
177	0	32796	32870	
178	0	32836	32884	
179	0	32750	32806	
180	0	32776	32686	
181	0	32854	32780	
182	0	32808	32740	
183	0	32824	32838	
184	0	32746	32774	
185	0	32808	32752	
186	0	32866	32732	
187	0	32848	32754	
188	0	32824	32688	
189	0	32780	32742	
190	0	32852	32724	
191	0	32808	32730	
192	0	32796	32692	
193	0	32736	32804	
194	0	32892	32728	
195	0	32812	32844	
196	0	32864	32858	
197	0	32828	32881	
198	0	32808	32868	
199	0	32864	32856	
200	0	32752	32858	
201	0	32842	32810	
202	0	32830	32664	
203	0	32802	32790	
204	0	32868	32756	
205	0	32868	32708	
206	0	32836	32648	
207	0	32826	32708	
208	0	32820	32680	
209	0	32780	32740	
210	0	32768	32692	
211	0	32792	32842	
212	0	32816	32720	
213	0	32804	32809	
214	0	32840	32804	
215	0	32820	32820	
216	0	32772	32796	
217	0	32808	32764	
218	0	32850	32810	
219	0	32780	32694	
220	0	32756	32714	
221	0	32784	32660	
222	0	32812	32788	
223	0	32776	32698	
224	0	32764	32732	
225	0	32840	32746	
226	0	32840	32742	
227	0	32864	32804	
228	0	32752	32704	
229	0	32786	32772	
230	0	32796	32696	
231	0	32790	32816	
232	0	32834	32804	
233	0	32756	32688	
234	0	32808	32842	
235	0	32760	32736	
236	0	32872	32788	
237	0	32856	32774	
238	0	32852	32852	
239	0	32812	32792	
240	0	32794	32752	
241	0	32864	32838	
242	0	32792	32712	
243	0	32848	32802	
244	0	32818	32684	
245	0	32800	32804	
246	0	32880	32742	
247	0	32908	32832	
248	0	32760	32772	
249	0	32892	32712	
250	0	32816	32832	
251	0	32762	32704	
252	0	32776	32842	
253	0	32806	32700	
254	0	32812	32760	
255	0	32820	32674	
256	0	32728	32802	
257	0	32796	32762	
258	0	32792	32840	
259	0	32822	32716	
260	0	32840	32784	
261	0	32848	32798	
262	0	32844	32680	
263	0	32778	32790	
264	0	32820	32818	
265	0	32780	32706	
266	0	32828	32754	
267	0	32768	32764	
268	0	32804	32720	
269	0	32820	32790	
270	0	32844	32742	
271	0	32780	32768	
272	0	32802	32708	
273	0	32780	32780	
274	0	32804	32720	
275	0	32856	32768	
276	0	32868	32692	
277	0	32772	32774	
278	0	32772	32748	
279	0	32844	32826	
280	0	32826	32770	
281	0	32856	32836	
282	0	32800	32800	
283	0	32832	32786	
284	0	32810	32732	
285	0	32836	32746	
286	0	32828	32836	
287	0	32836	32794	
288	0	32772	32718	
289	0	32776	32775	
290	0	32768	32656	
291	0	32772	32790	
292	0	32890	32716	
293	0	32822	32775	
294	0	32758	32728	
295	0	32788	32832	
296	0	32844	32800	
297	0	32800	32780	
298	0	32840	32860	
299	0	32768	32730	
300	0	32836	32876	
301	0	32796	32666	
302	0	32784	32774	
303	0	32804	32700	
304	0	32856	32748	
305	0	32872	32720	
306	0	32836	32824	
307	0	32832	32820	
308	0	32802	32670	
309	0	32804	32716	
310	0	32756	32696	
311	0	32832	32724	
312	0	32750	32842	
313	0	32840	32744	
314	0	32832	32814	
315	0	32884	32708	
316	0	32828	32856	
317	0	32824	32876	
318	0	32792	32716	
319	0	32744	32762	
320	0	32836	32682	
321	0	32796	32816	
322	0	32876	32696	
323	0	32816	32706	
324	0	32804	32775	
325	0	32780	32850	
326	0	32808	32746	
327	0	32864	32772	
328	0	32840	32820	
329	0	32878	32772	
330	0	32844	32772	
331	0	32812	32788	
332	0	32804	32796	
333	0	32792	32756	
334	0	32790	32852	
335	0	32836	32788	
336	0	32776	32788	
337	0	32826	32716	
338	0	32800	32758	
339	0	32844	32708	
340	0	32856	32775	
341	0	32820	32838	
342	0	32824	32686	
343	0	32862	32844	
344	0	32800	32728	
345	0	32872	32752	
346	0	32886	32680	
347	0	32800	32780	
348	0	32774	32724	
349	0	32818	32804	
350	0	32852	32796	
351	0	32794	32834	
352	0	32832	32838	
353	0	32808	32734	
354	0	32776	32828	
355	0	32862	32708	
356	0	32816	32814	
357	0	32740	32800	
358	0	32840	32814	
359	0	32832	32812	
360	0	32802	32692	
361	0	32744	32724	
362	0	32802	32638	
363	0	32800	32702	
364	0	32824	32775	
365	0	32808	32802	
366	0	32824	32806	
367	0	32756	32674	
368	0	32844	32888	
369	0	32812	32740	
370	0	32844	32858	
371	0	32774	32748	
372	0	32792	32778	
373	0	32814	32772	
374	0	32764	32683	
375	0	32821	32762	
376	0	32840	32650	
377	0	32836	32824	
378	0	32872	32816	
379	0	32760	32680	
380	0	32792	32790	
381	0	32828	32724	
382	0	32872	32788	
383	0	32760	32744	
384	0	32846	32770	
385	0	32804	32676	
386	0	32822	32752	
387	0	32760	32698	
388	0	32848	32748	
389	0	32824	32682	
390	0	32828	32816	
391	0	32840	32708	
392	0	32834	32770	
393	0	32760	32722	
394	0	32836	32746	
395	0	32800	32681	
396	0	32856	32758	
397	0	32804	32696	
398	0	32796	32740	
399	0	32784	32900	
400	0	32876	32848	
401	0	32814	32782	
402	0	32794	32756	
403	0	32780	32788	
404	0	32828	32800	
405	0	32852	32806	
406	0	32840	32768	
407	0	32826	32662	
408	0	32773	32768	
409	0	32814	32740	
410	0	32798	32800	
411	0	32864	32652	
412	0	32808	32784	
413	0	32744	32660	
414	0	32784	32760	
415	0	32848	32844	
416	0	32764	32740	
417	0	32776	32804	
418	0	32830	32716	
419	0	32740	32740	
420	0	32840	32662	
421	0	32772	32820	
422	0	32820	32800	
423	0	32834	32748	
424	0	32876	32796	
425	0	32764	32766	
426	0	32776	32736	
427	0	32812	32764	
428	0	32832	32732	
429	0	32764	32772	
430	0	32852	32702	
431	0	32842	32790	
432	0	32828	32774	
433	0	32816	32800	
434	0	32756	32816	
435	0	32768	32740	
436	0	32836	32852	
437	0	32820	32834	
438	0	32856	32676	
439	0	32800	32712	
440	0	32900	32834	
441	0	32784	32748	
442	0	32848	32789	
443	0	32866	32768	
444	0	32808	32676	
445	0	32836	32720	
446	0	32852	32694	
447	0	32806	32800	
448	0	32748	32968	
449	0	32774	32752	
450	0	32792	32772	
451	0	32804	32688	
452	0	32852	32820	
453	0	32804	32778	
454	0	32788	32744	
455	0	32834	32744	
456	0	32764	32726	
457	0	32788	32838	
458	0	32808	32692	
459	0	32784	32758	
460	0	32858	32775	
461	0	32786	32854	
462	0	32854	32754	
463	0	32788	32746	
464	0	32810	32774	
465	0	32828	32778	
466	0	32776	32784	
467	0	32804	32728	
468	0	32796	32796	
469	0	32796	32746	
470	0	32848	32696	
471	0	32780	32780	
472	0	32804	32664	
473	0	32868	32856	
474	0	32818	32808	
475	0	32780	32822	
476	0	32802	32804	
477	0	32804	32808	
478	0	32824	32804	
479	0	32848	32728	
480	0	32848	32832	
481	0	32828	32746	
482	0	32826	32789	
483	0	32820	32722	
484	0	32780	32700	
485	0	32846	32750	
486	0	32844	32788	
487	0	32868	32764	
488	0	32776	32684	
489	0	32808	32760	
490	0	32788	32788	
491	0	32852	32764	
492	0	32720	32824	
493	0	32784	32838	
494	0	32760	32806	
495	0	32848	32802	
496	0	32824	32775	
497	0	32852	32786	
498	0	32800	32820	
499	0	32836	32816	
500	0	32822	32814	
501	0	32846	32728	
502	0	32844	32778	
503	0	32842	32724	
504	0	32828	32718	
505	0	32800	32684	
506	0	32808	32775	
507	0	32796	32876	
508	0	32844	32752	
509	0	32792	32832	
510	0	32796	32700	
511	0	32820	32860	
512	0	32798	32732	
513	0	32772	32770	
514	0	32836	32856	
515	0	32824	32872	
516	0	32760	32898	
517	0	32864	32666	
518	0	32848	32852	
519	0	32794	32692	
520	0	32818	32834	
521	0	32788	32680	
522	0	32808	32738	
523	0	32790	32775	
524	0	32856	32732	
525	0	32840	32692	
526	0	32820	32706	
527	0	32808	32750	
528	0	32844	32784	
529	0	32816	32660	
530	0	32760	32775	
531	0	32828	32786	
532	0	32856	32706	
533	0	32770	32750	
534	0	32772	32624	
535	0	32798	32768	
536	0	32828	32702	
537	0	32828	32888	
538	0	32860	32891	
539	0	32834	32702	
540	0	32810	32848	
541	0	32764	32686	
542	0	32840	32782	
543	0	32830	32724	
544	0	32882	32840	
545	0	32872	32774	
546	0	32794	32702	
547	0	32760	32774	
548	0	32782	32716	
549	0	32784	32766	
550	0	32848	32720	
551	0	32836	32788	
552	0	32738	32742	
553	0	32742	32820	
554	0	32800	32796	
555	0	32790	32712	
556	0	32768	32775	
557	0	32820	32760	
558	0	32784	32756	
559	0	32846	32802	
560	0	32808	32676	
561	0	32796	32786	
562	0	32834	32775	
563	0	32778	32726	
564	0	32846	32822	
565	0	32816	32762	
566	0	32810	32790	
567	0	32864	32816	
568	0	32832	32878	
569	0	32760	32784	
570	0	32768	32724	
571	0	32810	32766	
572	0	32840	32836	
573	0	32816	32796	
574	0	32772	32784	
575	0	32760	32730	
576	0	32840	32818	
577	0	32768	32730	
578	0	32816	32804	
579	0	32812	32752	
580	0	32800	32760	
581	0	32808	32784	
582	0	32812	32870	
583	0	32772	32802	
584	0	32844	32656	
585	0	32808	32774	
586	0	32846	32748	
587	0	32816	32828	
588	0	32784	32855	
589	0	32810	32788	
590	0	32884	32688	
591	0	32816	32728	
592	0	32788	32820	
593	0	32762	32704	
594	0	32832	32788	
595	0	32808	32786	
596	0	32788	32676	
597	0	32832	32746	
598	0	32884	32800	
599	0	32760	32852	
600	0	32912	32876	
601	0	32914	32738	
602	0	32808	32784	
603	0	32796	32660	
604	0	32812	32836	
605	0	32812	32712	
606	0	32808	32775	
607	0	32846	32662	
608	0	32850	32780	
609	0	32756	32684	
610	0	32758	32775	
611	0	32820	32640	
612	0	32788	32844	
613	0	32778	32748	
614	0	32768	32720	
615	0	32768	32686	
616	0	32800	32754	
617	0	32852	32758	
618	0	32788	32704	
619	0	32800	32810	
620	0	32808	32700	
621	0	32830	32700	
622	0	32754	32860	
623	0	32868	32892	
624	0	32836	32766	
625	0	32876	32740	
626	0	32836	32788	
627	0	32802	32728	
628	0	32864	32736	
629	0	32824	32716	
630	0	32852	32790	
631	0	32824	32752	
632	0	32792	32866	
633	0	32748	32814	
634	0	32776	32760	
635	0	32766	32692	
636	0	32784	32746	
637	0	32808	32732	
638	0	32784	32732	
639	0	32804	32908	
640	0	32855	32814	
641	0	32796	32668	
642	0	32870	32794	
643	0	32836	32760	
644	0	32900	32790	
645	0	32808	32804	
646	0	32842	32706	
647	0	32798	32774	
648	0	32848	32682	
649	0	32792	32822	
650	0	32804	32818	
651	0	32740	32744	
652	0	32764	32768	
653	0	32824	32752	
654	0	32740	32800	
655	0	32724	32695	
656	0	32686	32766	
657	0	32732	32656	
658	0	32742	32625	
659	0	32744	32748	
660	0	32668	32648	
661	0	32660	32718	
662	0	32744	32664	
663	0	32710	32696	
664	0	32856	32608	
665	0	32782	32768	
666	0	32812	32802	
667	0	32790	32638	
668	0	32776	32740	
669	0	32864	32662	
670	0	32834	32788	
671	0	32836	32696	
672	0	32848	32792	
673	0	32800	32702	
674	0	32808	32884	
675	0	32760	32740	
676	0	32784	32808	
677	0	32936	32724	
678	0	32856	32892	
679	0	32928	32824	
680	0	33030	32840	
681	0	33100	32900	
682	0	33100	32952	
683	0	33062	32962	
684	0	33020	32972	
685	0	32988	32904	
686	0	32996	32908	
687	0	32968	32852	
688	0	32930	32886	
689	0	32930	32872	
690	0	32922	32768	
691	0	32792	32806	
692	0	32766	32622	
693	0	32748	32780	
694	0	32732	32598	
695	0	32648	32746	
696	0	32710	32688	
697	0	32688	32600	
698	0	32680	32676	
699	0	32694	32646	
700	0	32772	32740	
701	0	32720	32692	
702	0	32752	32782	
703	0	32760	32740	
704	0	32804	32775	
705	0	32804	32728	
706	0	32752	32804	
707	0	32808	32876	
708	0	32744	32832	
709	0	32806	32796	
710	0	32812	32684	
711	0	32816	32764	
712	0	32822	32724	
713	0	32784	32798	
714	0	32796	32722	
715	0	32876	32846	
716	0	32784	32908	
717	0	32748	32734	
718	0	32756	32704	
719	0	32794	32686	
720	0	32788	32775	
721	0	32786	32826	
722	0	32788	32666	
723	0	32860	32804	
724	0	32800	32758	
725	0	32824	32764	
726	0	32848	32684	
727	0	32796	32834	
728	0	32780	32802	
729	0	32806	32712	
730	0	32788	32762	
731	0	32752	32872	
732	0	32740	32720	
733	0	32772	32732	
734	0	32852	32640	
735	0	32798	32864	
736	0	32850	32844	
737	0	32808	32632	
738	0	32784	32784	
739	0	32820	32718	
740	0	32810	32804	
741	0	32816	32884	
742	0	32758	32680	
743	0	32796	32796	
744	0	32792	32788	
745	0	32796	32678	
746	0	32816	32792	
747	0	32816	32772	
748	0	32796	32734	
749	0	32802	32768	
750	0	32776	32702	
751	0	32840	32782	
752	0	32786	32844	
753	0	32820	32775	
754	0	32852	32770	
755	0	32804	32834	
756	0	32768	32688	
757	0	32816	32736	
758	0	32800	32760	
759	0	32836	32714	
760	0	32800	32772	
761	0	32820	32748	
762	0	32788	32836	
763	0	32780	32784	
764	0	32822	32686	
765	0	32860	32804	
766	0	32884	32816	
767	0	32760	32658	
768	0	32774	32760	
769	0	32840	32824	
770	0	32800	32792	
771	0	32800	32814	
772	0	32784	32724	
773	0	32868	32788	
774	0	32828	32676	
775	0	32788	32816	
776	0	32732	32842	
777	0	32752	32792	
778	0	32828	32856	
779	0	32864	32612	
780	0	32754	32806	
781	0	32808	32690	
782	0	32832	32742	
783	0	32772	32780	
784	0	32802	32712	
785	0	32852	32732	
786	0	32820	32774	
787	0	32808	32800	
788	0	32818	32775	
789	0	32836	32688	
790	0	32852	32784	
791	0	32856	32736	
792	0	32764	32800	
793	0	32796	32872	
794	0	32770	32762	
795	0	32784	32788	
796	0	32736	32724	
797	0	32848	32800	
798	0	32860	32818	
799	0	32816	32834	
800	0	32802	32804	
801	0	32898	32770	
802	0	32820	32868	
803	0	32864	32668	
804	0	32798	32768	
805	0	32840	32636	
806	0	32808	32824	
807	0	32820	32714	
808	0	32864	32716	
809	0	32754	32852	
810	0	32828	32672	
811	0	32786	32874	
812	0	32856	32746	
813	0	32824	32714	
814	0	32804	32744	
815	0	32796	32826	
816	0	32748	32838	
817	0	32804	32775	
818	0	32796	32814	
819	0	32816	32706	
820	0	32832	32800	
821	0	32774	32722	
822	0	32846	32772	
823	0	32796	32740	
824	0	32794	32644	
825	0	32824	32768	
826	0	32800	32740	
827	0	32870	32844	
828	0	32804	32728	
829	0	32788	32710	
830	0	32788	32842	
831	0	32820	32796	
832	0	32842	32732	
833	0	32816	32775	
834	0	32848	32742	
835	0	32792	32846	
836	0	32852	32859	
837	0	32836	32760	
838	0	32794	32764	
839	0	32794	32839	
840	0	32798	32828	
841	0	32800	32838	
842	0	32756	32714	
843	0	32800	32784	
844	0	32776	32764	
845	0	32800	32664	
846	0	32820	32697	
847	0	32800	32768	
848	0	32800	32780	
849	0	32820	32698	
850	0	32852	32828	
851	0	32804	32740	
852	0	32760	32686	
853	0	32828	32736	
854	0	32848	32756	
855	0	32792	32876	
856	0	32808	32924	
857	0	32912	32696	
858	0	32816	32768	
859	0	32866	32786	
860	0	32800	32846	
861	0	32840	32712	
862	0	32824	32822	
863	0	32832	32764	
864	0	32754	32746	
865	0	32850	32772	
866	0	32816	32766	
867	0	32800	32664	
868	0	32788	32768	
869	0	32784	32678	
870	0	32792	32784	
871	0	32808	32670	
872	0	32744	32756	
873	0	32882	32775	
874	0	32832	32772	
875	0	32834	32740	
876	0	32752	32783	
877	0	32780	32774	
878	0	32840	32804	
879	0	32844	32775	
880	0	32808	32816	
881	0	32812	32784	
882	0	32768	32686	
883	0	32816	32790	
884	0	32890	32712	
885	0	32836	32740	
886	0	32816	32728	
887	0	32762	32832	
888	0	32820	32668	
889	0	32800	32799	
890	0	32808	32824	
891	0	32800	32796	
892	0	32800	32738	
893	0	32820	32820	
894	0	32856	32764	
895	0	32788	32832	
896	0	32804	32780	
897	0	32768	32834	
898	0	32836	32868	
899	0	32836	32744	
900	0	32778	32686	
901	0	32808	32720	
902	0	32828	32814	
903	0	32822	32890	
904	0	32852	32824	
905	0	32868	32760	
906	0	32784	32664	
907	0	32824	32832	
908	0	32800	32710	
909	0	32862	32764	
910	0	32828	32712	
911	0	32846	32854	
912	0	32852	32668	
913	0	32816	32775	
914	0	32808	32688	
915	0	32778	32876	
916	0	32780	32794	
917	0	32778	32850	
918	0	32792	32852	
919	0	32834	32724	
920	0	32808	32784	
921	0	32788	32664	
922	0	32812	32715	
923	0	32880	32798	
924	0	32804	32684	
925	0	32804	32792	
926	0	32838	32744	
927	0	32796	32830	
928	0	32888	32756	
929	0	32792	32926	
930	0	32876	32761	
931	0	32832	32756	
932	0	32788	32912	
933	0	32756	32754	
934	0	32820	32704	
935	0	32778	32700	
936	0	32846	32828	
937	0	32804	32762	
938	0	32754	32770	
939	0	32760	32808	
940	0	32880	32752	
941	0	32788	32728	
942	0	32820	32800	
943	0	32828	32788	
944	0	32772	32780	
945	0	32824	32720	
946	0	32810	32748	
947	0	32788	32640	
948	0	32824	32748	
949	0	32880	32744	
950	0	32820	32884	
951	0	32792	32832	
952	0	32802	32736	
953	0	32840	32798	
954	0	32782	32700	
955	0	32852	32774	
956	0	32784	32840	
957	0	32796	32724	
958	0	32760	32796	
959	0	32868	32820	
960	0	32776	32774	
961	0	32816	32798	
962	0	32756	32744	
963	0	32800	32744	
964	0	32772	32676	
965	0	32818	32774	
966	0	32822	32848	
967	0	32842	32800	
968	0	32812	32708	
969	0	32812	32696	
970	0	32790	32800	
971	0	32784	32824	
972	0	32846	32720	
973	0	32868	32784	
974	0	32800	32702	
975	0	32720	32842	
976	0	32814	32820	
977	0	32780	32700	
978	0	32880	32732	
979	0	32828	32736	
980	0	32784	32832	
981	0	32760	32700	
982	0	32788	32860	
983	0	32848	32772	
984	0	32772	32764	
985	0	32832	32840	
986	0	32808	32770	
987	0	32836	32708	
988	0	32850	32844	
989	0	32848	32740	
990	0	32792	32788	
991	0	32760	32760	
992	0	32760	32756	
993	0	32824	32686	
994	0	32800	32742	
995	0	32834	32742	
996	0	32866	32808	
997	0	32816	32674	
998	0	32808	32752	
999	0	32792	32728	
1000	0	32786	32792	
1001	0	32820	32720	
1002	0	32804	32810	
1003	0	32852	32794	
1004	0	32818	32788	
1005	0	32794	32722	
1006	0	32876	32784	
1007	0	32804	32840	
1008	0	32784	32796	
1009	0	32794	32740	
1010	0	32784	32752	
1011	0	32772	32758	
1012	0	32760	32682	
1013	0	32824	32806	
1014	0	32810	32652	
1015	0	32836	32784	
1016	0	32824	32775	
1017	0	32828	32807	
1018	0	32808	32752	
1019	0	32832	32793	
1020	0	32796	32646	
1021	0	32820	32774	
1022	0	32880	32664	
1023	0	32824	32762	
1024	0	32832	32704	
1025	0	32768	32800	
1026	0	32778	32780	
1027	0	32732	32818	
1028	0	32808	32746	
1029	0	32784	32680	
1030	0	32832	32748	
1031	0	32830	32678	
1032	0	32810	32788	
1033	0	32834	32750	
1034	0	32760	32822	
1035	0	32804	32752	
1036	0	32828	32792	
1037	0	32848	32832	
1038	0	32816	32808	
1039	0	32734	32792	
1040	0	32864	32706	
1041	0	32810	32801	
1042	0	32804	32606	
1043	0	32776	32775	
1044	0	32840	32660	
1045	0	32878	32720	
1046	0	32852	32670	
1047	0	32728	32758	
1048	0	32850	32775	
1049	0	32800	32824	
1050	0	32788	32750	
1051	0	32794	32804	
1052	0	32784	32684	
1053	0	32764	32728	
1054	0	32856	32670	
1055	0	32788	32768	
1056	0	32828	32628	
1057	0	32864	32822	
1058	0	32804	32746	
1059	0	32812	32790	
1060	0	32776	32788	
1061	0	32842	32768	
1062	0	32788	32792	
1063	0	32784	32732	
1064	0	32794	32818	
1065	0	32788	32702	
1066	0	32818	32814	
1067	0	32816	32786	
1068	0	32836	32804	
1069	0	32828	32860	
1070	0	32816	32730	
1071	0	32740	32820	
1072	0	32828	32746	
1073	0	32800	32752	
1074	0	32838	32886	
1075	0	32802	32874	
1076	0	32816	32806	
1077	0	32754	32688	
1078	0	32772	32752	
1079	0	32782	32732	
1080	0	32792	32824	
1081	0	32768	32656	
1082	0	32790	32816	
1083	0	32820	32748	
1084	0	32784	32688	
1085	0	32836	32716	
1086	0	32850	32768	
1087	0	32804	32750	
1088	0	32780	32816	
1089	0	32848	32728	
1090	0	32852	32775	
1091	0	32826	32768	
1092	0	32772	32806	
1093	0	32782	32818	
1094	0	32768	32768	
1095	0	32776	32752	
1096	0	32798	32644	
1097	0	32784	32804	
1098	0	32840	32734	
1099	0	32810	32808	
1100	0	32828	32760	
1101	0	32828	32750	
1102	0	32802	32794	
1103	0	32808	32734	
1104	0	32784	32852	
1105	0	32756	32768	
1106	0	32812	32698	
1107	0	32848	32726	
1108	0	32832	32774	
1109	0	32852	32884	
1110	0	32876	32792	
1111	0	32800	32764	
1112	0	32804	32806	
1113	0	32812	32742	
1114	0	32840	32764	
1115	0	32716	32856	
1116	0	32804	32788	
1117	0	32830	32808	
1118	0	32868	32828	
1119	0	32836	32732	
1120	0	32792	32884	
1121	0	32852	32823	
1122	0	32832	32794	
1123	0	32796	32848	
1124	0	32768	32714	
1125	0	32820	32768	
1126	0	32880	32660	
1127	0	32786	32752	
1128	0	32840	32692	
1129	0	32784	32734	
1130	0	32840	32708	
1131	0	32768	32786	
1132	0	32820	32660	
1133	0	32798	32780	
1134	0	32794	32768	
1135	0	32808	32730	
1136	0	32818	32756	
1137	0	32796	32844	
1138	0	32780	32760	
1139	0	32786	32698	
1140	0	32858	32818	
1141	0	32804	32750	
1142	0	32810	32774	
1143	0	32820	32648	
1144	0	32816	32744	
1145	0	32822	32677	
1146	0	32742	32808	
1147	0	32786	32784	
1148	0	32816	32700	
1149	0	32784	32860	
1150	0	32796	32660	
1151	0	32816	32775	
1152	0	32770	32782	
1153	0	32850	32676	
1154	0	32810	32801	
1155	0	32768	32706	
1156	0	32820	32782	
1157	0	32860	32794	
1158	0	32760	32736	
1159	0	32816	32818	
1160	0	32808	32694	
1161	0	32780	32814	
1162	0	32802	32740	
1163	0	32752	32812	
1164	0	32812	32844	
1165	0	32814	32866	
1166	0	32866	32760	
1167	0	32808	32873	
1168	0	32826	32790	
1169	0	32816	32716	
1170	0	32912	32884	
1171	0	32818	32794	
1172	0	32808	32774	
1173	0	32836	32764	
1174	0	32784	32824	
1175	0	32832	32727	
1176	0	32768	32846	
1177	0	32762	32725	
1178	0	32777	32772	
1179	0	32814	32688	
1180	0	32812	32878	
1181	0	32858	32760	
1182	0	32872	32756	
1183	0	32832	32718	
1184	0	32780	32736	
1185	0	32820	32745	
1186	0	32760	32796	
1187	0	32836	32686	
1188	0	32782	32788	
1189	0	32870	32806	
1190	0	32812	32796	
1191	0	32828	32772	
1192	0	32804	32794	
1193	0	32762	32764	
1194	0	32764	32756	
1195	0	32796	32866	
1196	0	32764	32808	
1197	0	32741	32774	
1198	0	32856	32756	
1199	0	32792	32708	
1200	0	32738	32734	
1201	0	32788	32768	
1202	0	32784	32708	
1203	0	32892	32728	
1204	0	32804	32710	
1205	0	32820	32812	
1206	0	32814	32646	
1207	0	32836	32750	
1208	0	32864	32728	
1209	0	32832	32792	
1210	0	32776	32724	
1211	0	32812	32794	
1212	0	32868	32864	
1213	0	32830	32775	
1214	0	32784	32832	
1215	0	32772	32646	
1216	0	32764	32780	
1217	0	32832	32720	
1218	0	32868	32786	
1219	0	32828	32784	
1220	0	32866	32772	
1221	0	32808	32775	
1222	0	32796	32775	
1223	0	32822	32732	
1224	0	32860	32890	
1225	0	32860	32808	
1226	0	32796	32666	
1227	0	32792	32836	
1228	0	32728	32742	
1229	0	32826	32820	
1230	0	32834	32710	
1231	0	32844	32746	
1232	0	32810	32744	
1233	0	32774	32774	
1234	0	32750	32780	
1235	0	32770	32828	
1236	0	32792	32712	
1237	0	32862	32760	
1238	0	32824	32830	
1239	0	32794	32832	
1240	0	32812	32818	
1241	0	32820	32744	
1242	0	32808	32768	
1243	0	32834	32892	
1244	0	32838	32815	
1245	0	32890	32696	
1246	0	32878	32772	
1247	0	32804	32698	
1248	0	32796	32760	
1249	0	32826	32676	
1250	0	32844	32736	
1251	0	32812	32674	
1252	0	32752	32782	
1253	0	32852	32728	
1254	0	32810	32746	
1255	0	32816	32728	
1256	0	32816	32822	
1257	0	32824	32720	
1258	0	32782	32772	
1259	0	32856	32746	
1260	0	32804	32752	
1261	0	32756	32704	
1262	0	32854	32800	
1263	0	32832	32720	
1264	0	32768	32724	
1265	0	32848	32772	
1266	0	32844	32728	
1267	0	32828	32738	
1268	0	32852	32760	
1269	0	32774	32792	
1270	0	32804	32696	
1271	0	32860	32808	
1272	0	32804	32674	
1273	0	32788	32872	
1274	0	32852	32774	
1275	0	32802	32792	
1276	0	32822	32784	
1277	0	32880	32752	
1278	0	32778	32775	
1279	0	32792	32678	
1280	0	32796	32740	
1281	0	32794	32798	
1282	0	32760	32804	
1283	0	32836	32844	
1284	0	32782	32724	
1285	0	32804	32750	
1286	0	32848	32644	
1287	0	32832	32774	
1288	0	32780	32652	
1289	0	32904	32780	
1290	0	32800	32736	
1291	0	32800	32854	
1292	0	32800	32792	
1293	0	32822	32822	
1294	0	32820	32824	
1295	0	32748	32826	
1296	0	32842	32806	
1297	0	32823	32726	
1298	0	32820	32836	
1299	0	32834	32712	
1300	0	32786	32798	
1301	0	32830	32662	
1302	0	32796	32756	
1303	0	32848	32696	
1304	0	32780	32732	
1305	0	32756	32666	
1306	0	32784	32712	
1307	0	32808	32712	
1308	0	32792	32774	
1309	0	32860	32710	
1310	0	32764	32798	
1311	0	32782	32796	
1312	0	32808	32838	
1313	0	32824	32832	
1314	0	32756	32716	
1315	0	32812	32860	
1316	0	32832	32772	
1317	0	32796	32802	
1318	0	32788	32776	
1319	0	32800	32730	
1320	0	32770	32862	
1321	0	32760	32706	
1322	0	32836	32850	
1323	0	32848	32828	
1324	0	32826	32756	
1325	0	32772	32854	
1326	0	32804	32768	
1327	0	32792	32647	
1328	0	32808	32830	
1329	0	32804	32732	
1330	0	32806	32820	
1331	0	32786	32738	
1332	0	32864	32788	
1333	0	32804	32788	
1334	0	32856	32762	
1335	0	32772	32716	
1336	0	32832	32740	
1337	0	32880	32704	
1338	0	32784	32868	
1339	0	32840	32720	
1340	0	32804	32800	
1341	0	32804	32794	
1342	0	32840	32710	
1343	0	32816	32818	
1344	0	32724	32724	
1345	0	32828	32828	
1346	0	32860	32848	
1347	0	32796	32775	
1348	0	32830	32820	
1349	0	32736	32656	
1350	0	32864	32748	
1351	0	32820	32736	
1352	0	32836	32768	
1353	0	32881	32720	
1354	0	32816	32775	
1355	0	32812	32736	
1356	0	32788	32768	
1357	0	32760	32798	
1358	0	32822	32868	
1359	0	32820	32774	
1360	0	32836	32752	
1361	0	32788	32852	
1362	0	32776	32766	
1363	0	32900	32696	
1364	0	32862	32824	
1365	0	32778	32676	
1366	0	32840	32782	
1367	0	32852	32804	
1368	0	32846	32840	
1369	0	32810	32847	
1370	0	32772	32762	
1371	0	32844	32764	
1372	0	32828	32775	
1373	0	32804	32855	
1374	0	32844	32748	
1375	0	32752	32740	
1376	0	32808	32706	
1377	0	32844	32798	
1378	0	32782	32746	
1379	0	32744	32806	
1380	0	32824	32762	
1381	0	32842	32740	
1382	0	32824	32816	
1383	0	32800	32748	
1384	0	32802	32834	
1385	0	32844	32708	
1386	0	32772	32736	
1387	0	32832	32692	
1388	0	32840	32800	
1389	0	32802	32854	
1390	0	32896	32795	
1391	0	32834	32880	
1392	0	32836	32708	
1393	0	32788	32792	
1394	0	32852	32812	
1395	0	32816	32790	
1396	0	32769	32724	
1397	0	32840	32732	
1398	0	32748	32722	
1399	0	32736	32760	
1400	0	32802	32704	
1401	0	32744	32724	
1402	0	32772	32758	
1403	0	32834	32800	
1404	0	32820	32712	
1405	0	32804	32765	
1406	0	32778	32676	
1407	0	32888	32724	
1408	0	32844	32692	
1409	0	32832	32740	
1410	0	32792	32720	
1411	0	32800	32789	
1412	0	32816	32784	
1413	0	32800	32794	
1414	0	32820	32884	
1415	0	32834	32700	
1416	0	32744	32752	
1417	0	32796	32718	
1418	0	32828	32852	
1419	0	32814	32840	
1420	0	32838	32834	
1421	0	32804	32774	
1422	0	32820	32704	
1423	0	32782	32852	
1424	0	32888	32772	
1425	0	32832	32686	
1426	0	32756	32793	
1427	0	32836	32798	
1428	0	32818	32808	
1429	0	32808	32712	
1430	0	32804	32758	
1431	0	32744	32804	
1432	0	32810	32746	
1433	0	32798	32772	
1434	0	32790	32732	
1435	0	32768	32854	
1436	0	32768	32694	
1437	0	32816	32748	
1438	0	32862	32768	
1439	0	32848	32682	
1440	0	32840	32806	
1441	0	32876	32860	
1442	0	32784	32858	
1443	0	32812	32788	
1444	0	32810	32712	
1445	0	32836	32724	
1446	0	32826	32788	
1447	0	32840	32692	
1448	0	32846	32864	
1449	0	32836	32680	
1450	0	32832	32846	
1451	0	32830	32742	
1452	0	32818	32860	
1453	0	32800	32776	
1454	0	32772	32874	
1455	0	32742	32827	
1456	0	32728	32710	
1457	0	32822	32818	
1458	0	32804	32692	
1459	0	32804	32748	
1460	0	32832	32814	
1461	0	32804	32753	
1462	0	32770	32754	
1463	0	32784	32714	
1464	0	32804	32800	
1465	0	32824	32824	
1466	0	32856	32696	
1467	0	32836	32740	
1468	0	32826	32748	
1469	0	32844	32820	
1470	0	32836	32762	
1471	0	32794	32834	
1472	0	32776	32832	
1473	0	32786	32708	
1474	0	32828	32774	
1475	0	32856	32758	
1476	0	32772	32825	
1477	0	32784	32708	
1478	0	32824	32842	
1479	0	32836	32820	
1480	0	32788	32698	
1481	0	32804	32774	
1482	0	32808	32676	
1483	0	32792	32766	
1484	0	32752	32774	
1485	0	32832	32722	
1486	0	32820	32768	
1487	0	32798	32738	
1488	0	32854	32754	
1489	0	32836	32712	
1490	0	32848	32784	
1491	0	32776	32818	
1492	0	32842	32696	
1493	0	32880	32760	
1494	0	32816	32684	
1495	0	32784	32858	
1496	0	32788	32741	
1497	0	32788	32800	
1498	0	32862	32770	
1499	0	32802	32790	
1500	0	32802	32764	
1501	0	32846	32650	
1502	0	32812	32748	
1503	0	32844	32748	
1504	0	32792	32736	
1505	0	32766	32734	
1506	0	32766	32730	
1507	0	32814	32694	
1508	0	32828	32792	
1509	0	32872	32804	
1510	0	32848	32862	
1511	0	32792	32830	
1512	0	32808	32672	
1513	0	32770	32782	
1514	0	32816	32704	
1515	0	32836	32744	
1516	0	32856	32708	
1517	0	32876	32810	
1518	0	32764	32648	
1519	0	32804	32810	
1520	0	32852	32730	
1521	0	32770	32758	
1522	0	32760	32862	
1523	0	32808	32676	
1524	0	32940	32744	
1525	0	32844	32846	
1526	0	32848	32788	
1527	0	32802	32824	
1528	0	32800	32706	
1529	0	32800	32706	
1530	0	32832	32720	
1531	0	32836	32768	
1532	0	32852	32721	
1533	0	32804	32900	
1534	0	32818	32812	
1535	0	32816	32796	
1536	0	32826	32832	
1537	0	32832	32700	
1538	0	32852	32824	
1539	0	32824	32798	
1540	0	32816	32800	
1541	0	32836	32722	
1542	0	32872	32782	
1543	0	32812	32768	
1544	0	32788	32712	
1545	0	32800	32727	
1546	0	32792	32600	
1547	0	32752	32794	
1548	0	32724	32712	
1549	0	32774	32727	
1550	0	32752	32672	
1551	0	32724	32712	
1552	0	32636	32750	
1553	0	32680	32724	
1554	0	32700	32762	
1555	0	32652	32668	
1556	0	32728	32743	
1557	0	32664	32578	
1558	0	32660	32657	
1559	0	32724	32668	
1560	0	32730	32736	
1561	0	32698	32642	
1562	0	32800	32670	
1563	0	32770	32766	
1564	0	32864	32808	
1565	0	32816	32698	
1566	0	32856	32796	
1567	0	32816	32720	
1568	0	32870	32796	
1569	0	32838	32828	
1570	0	32840	32775	
1571	0	32792	32815	
1572	0	32856	32822	
1573	0	32922	32874	
1574	0	32980	32866	
1575	0	33008	32916	
1576	0	33118	32880	
1577	0	33068	33048	
1578	0	33128	32906	
1579	0	33120	33082	
1580	0	33008	32824	
1581	0	32988	32914	
1582	0	32944	32866	
1583	0	32988	32890	
1584	0	32936	32832	
1585	0	32962	32788	
1586	0	32872	32804	
1587	0	32880	32744	
1588	0	32800	32644	
1589	0	32704	32668	
1590	0	32696	32734	
1591	0	32674	32673	
1592	0	32646	32650	
1593	0	32700	32665	
1594	0	32676	32740	
1595	0	32676	32652	
1596	0	32736	32720	
1597	0	32716	32696	
1598	0	32732	32668	
1599	0	32760	32712	
1600	0	32810	32844	
1601	0	32786	32760	
1602	0	32714	32814	
1603	0	32772	32775	
1604	0	32792	32774	
1605	0	32796	32736	
1606	0	32804	32796	
1607	0	32880	32822	
1608	0	32794	32796	
1609	0	32872	32816	
1610	0	32752	32728	
1611	0	32832	32752	
1612	0	32844	32770	
1613	0	32800	32774	
1614	0	32832	32768	
1615	0	32812	32858	
1616	0	32828	32756	
1617	0	32744	32842	
1618	0	32772	32778	
1619	0	32724	32772	
1620	0	32788	32718	
1621	0	32872	32726	
1622	0	32800	32720	
1623	0	32862	32800	
1624	0	32732	32784	
1625	0	32776	32802	
1626	0	32778	32814	
1627	0	32848	32724	
1628	0	32812	32760	
1629	0	32844	32688	
1630	0	32820	32780	
1631	0	32820	32688	
1632	0	32796	32752	
1633	0	32820	32696	
1634	0	32812	32766	
1635	0	32816	32788	
1636	0	32816	32766	
1637	0	32792	32726	
1638	0	32826	32750	
1639	0	32804	32656	
1640	0	32796	32800	
1641	0	32802	32772	
1642	0	32776	32774	
1643	0	32828	32774	
1644	0	32840	32760	
1645	0	32824	32736	
1646	0	32764	32788	
1647	0	32774	32748	
1648	0	32788	32710	
1649	0	32800	32804	
1650	0	32816	32718	
1651	0	32800	32812	
1652	0	32792	32682	
1653	0	32898	32736	
1654	0	32796	32744	
1655	0	32852	32808	
1656	0	32752	32842	
1657	0	32814	32824	
1658	0	32828	32850	
1659	0	32840	32782	
1660	0	32782	32720	
1661	0	32824	32760	
1662	0	32880	32718	
1663	0	32780	32712	
1664	0	32814	32708	
1665	0	32812	32744	
1666	0	32804	32784	
1667	0	32766	32764	
1668	0	32856	32744	
1669	0	32824	32792	
1670	0	32850	32782	
1671	0	32786	32752	
1672	0	32782	32720	
1673	0	32824	32716	
1674	0	32796	32740	
1675	0	32788	32814	
1676	0	32800	32696	
1677	0	32760	32780	
1678	0	32776	32826	
1679	0	32840	32828	
1680	0	32794	32800	
1681	0	32812	32844	
1682	0	32812	32732	
1683	0	32796	32728	
1684	0	32804	32693	
1685	0	32852	32726	
1686	0	32776	32686	
1687	0	32808	32860	
1688	0	32820	32828	
1689	0	32840	32656	
1690	0	32820	32852	
1691	0	32822	32858	
1692	0	32836	32865	
1693	0	32834	32870	
1694	0	32820	32758	
1695	0	32848	32792	
1696	0	32740	32740	
1697	0	32776	32792	
1698	0	32784	32820	
1699	0	32786	32682	
1700	0	32770	32790	
1701	0	32856	32836	
1702	0	32789	32710	
1703	0	32802	32814	
1704	0	32848	32676	
1705	0	32810	32746	
1706	0	32786	32756	
1707	0	32830	32770	
1708	0	32840	32774	
1709	0	32793	32720	
1710	0	32808	32866	
1711	0	32772	32786	
1712	0	32772	32796	
1713	0	32840	32864	
1714	0	32756	32818	
1715	0	32824	32770	
1716	0	32802	32770	
1717	0	32772	32710	
1718	0	32816	32816	
1719	0	32792	32730	
1720	0	32808	32816	
1721	0	32792	32722	
1722	0	32814	32802	
1723	0	32744	32711	
1724	0	32860	32822	
1725	0	32816	32780	
1726	0	32792	32744	
1727	0	32820	32736	
1728	0	32904	32804	
1729	0	32808	32742	
1730	0	32852	32772	
1731	0	32828	32808	
1732	0	32808	32775	
1733	0	32812	32798	
1734	0	32874	32840	
1735	0	32778	32740	
1736	0	32776	32810	
1737	0	32764	32670	
1738	0	32826	32798	
1739	0	32760	32792	
1740	0	32756	32762	
1741	0	32872	32820	
1742	0	32816	32748	
1743	0	32800	32760	
1744	0	32810	32775	
1745	0	32806	32752	
1746	0	32852	32838	
1747	0	32876	32700	
1748	0	32766	32688	
1749	0	32818	32708	
1750	0	32796	32751	
1751	0	32788	32664	
1752	0	32852	32788	
1753	0	32804	32732	
1754	0	32770	32826	
1755	0	32838	32828	
1756	0	32760	32822	
1757	0	32792	32792	
1758	0	32816	32828	
1759	0	32756	32694	
1760	0	32804	32764	
1761	0	32846	32754	
1762	0	32808	32775	
1763	0	32786	32714	
1764	0	32808	32730	
1765	0	32796	32740	
1766	0	32796	32730	
1767	0	32840	32814	
1768	0	32788	32700	
1769	0	32764	32812	
1770	0	32836	32826	
1771	0	32814	32668	
1772	0	32816	32792	
1773	0	32888	32816	
1774	0	32788	32678	
1775	0	32780	32854	
1776	0	32772	32758	
1777	0	32790	32884	
1778	0	32826	32742	
1779	0	32860	32828	
1780	0	32812	32756	
1781	0	32828	32670	
1782	0	32788	32692	
1783	0	32836	32824	
1784	0	32800	32790	
1785	0	32776	32774	
1786	0	32794	32744	
1787	0	32794	32748	
1788	0	32792	32752	
1789	0	32820	32808	
1790	0	32778	32775	
1791	0	32792	32672	
1792	0	32808	32794	
1793	0	32816	32794	
1794	0	32810	32730	
1795	0	32820	32748	
1796	0	32828	32840	
1797	0	32832	32698	
1798	0	32800	32788	
1799	0	32800	32834	
1800	0	32808	32712	
1801	0	32812	32796	
1802	0	32794	32804	
1803	0	32904	32788	
1804	0	32792	32720	
1805	0	32896	32644	
1806	0	32736	32716	
1807	0	32800	32720	
1808	0	32840	32772	
1809	0	32788	32760	
1810	0	32808	32900	
1811	0	32780	32868	
1812	0	32832	32772	
1813	0	32822	32780	
1814	0	32832	32800	
1815	0	32768	32881	
1816	0	32904	32894	
1817	0	32808	32752	
1818	0	32740	32752	
1819	0	32804	32728	
1820	0	32821	32760	
1821	0	32786	32726	
1822	0	32868	32772	
1823	0	32870	32850	
1824	0	32736	32718	
1825	0	32798	32748	
1826	0	32796	32670	
1827	0	32844	32812	
1828	0	32806	32774	
1829	0	32880	32828	
1830	0	32840	32804	
1831	0	32846	32738	
1832	0	32820	32846	
1833	0	32826	32744	
1834	0	32812	32736	
1835	0	32844	32848	
1836	0	32782	32892	
1837	0	32874	32792	
1838	0	32844	32796	
1839	0	32828	32784	
1840	0	32808	32680	
1841	0	32800	32758	
1842	0	32812	32696	
1843	0	32804	32840	
1844	0	32808	32838	
1845	0	32812	32692	
1846	0	32808	32742	
1847	0	32792	32736	
1848	0	32884	32828	
1849	0	32788	32704	
1850	0	32804	32788	
1851	0	32816	32758	
1852	0	32832	32808	
1853	0	32772	32800	
1854	0	32712	32744	
1855	0	32780	32780	
1856	0	32776	32775	
1857	0	32824	32824	
1858	0	32720	32842	
1859	0	32814	32712	
1860	0	32848	32854	
1861	0	32808	32720	
1862	0	32792	32820	
1863	0	32836	32706	
1864	0	32872	32720	
1865	0	32856	32762	
1866	0	32848	32764	
1867	0	32840	32764	
1868	0	32804	32728	
1869	0	32780	32752	
1870	0	32792	32692	
1871	0	32776	32782	
1872	0	32814	32826	
1873	0	32836	32766	
1874	0	32800	32846	
1875	0	32802	32756	
1876	0	32812	32775	
1877	0	32802	32768	
1878	0	32834	32822	
1879	0	32854	32680	
1880	0	32774	32774	
1881	0	32826	32730	
1882	0	32800	32742	
1883	0	32816	32788	
1884	0	32792	32704	
1885	0	32810	32848	
1886	0	32820	32664	
1887	0	32826	32792	
1888	0	32820	32706	
1889	0	32788	32752	
1890	0	32778	32692	
1891	0	32760	32790	
1892	0	32760	32810	
1893	0	32848	32768	
1894	0	32744	32736	
1895	0	32856	32786	
1896	0	32866	32686	
1897	0	32758	32736	
1898	0	32788	32704	
1899	0	32784	32852	
1900	0	32784	32768	
1901	0	32836	32788	
1902	0	32864	32800	
1903	0	32772	32638	
1904	0	32856	32822	
1905	0	32808	32752	
1906	0	32796	32856	
1907	0	32838	32713	
1908	0	32844	32822	
1909	0	32820	32798	
1910	0	32828	32646	
1911	0	32768	32704	
1912	0	32836	32690	
1913	0	32740	32736	
1914	0	32820	32736	
1915	0	32786	32832	
1916	0	32828	32742	
1917	0	32824	32820	
1918	0	32784	32852	
1919	0	32790	32756	
1920	0	32796	32772	
1921	0	32868	32774	
1922	0	32802	32828	
1923	0	32824	32746	
1924	0	32820	32720	
1925	0	32836	32732	
1926	0	32796	32828	
1927	0	32840	32848	
1928	0	32884	32764	
1929	0	32792	32786	
1930	0	32836	32794	
1931	0	32768	32734	
1932	0	32736	32780	
1933	0	32832	32710	
1934	0	32772	32724	
1935	0	32881	32800	
1936	0	32834	32856	
1937	0	32804	32740	
1938	0	32762	32775	
1939	0	32796	32790	
1940	0	32800	32808	
1941	0	32744	32807	
1942	0	32788	32812	
1943	0	32744	32750	
1944	0	32776	32714	
1945	0	32832	32608	
1946	0	32872	32732	
1947	0	32796	32750	
1948	0	32808	32762	
1949	0	32846	32712	
1950	0	32756	32832	
1951	0	32808	32674	
1952	0	32828	32824	
1953	0	32816	32824	
1954	0	32824	32774	
1955	0	32782	32860	
1956	0	32780	32802	
1957	0	32828	32794	
1958	0	32880	32838	
1959	0	32884	32775	
1960	0	32868	32848	
1961	0	32732	32716	
1962	0	32760	32860	
1963	0	32790	32695	
1964	0	32824	32828	
1965	0	32808	32690	
1966	0	32752	32840	
1967	0	32866	32730	
1968	0	32802	32792	
1969	0	32780	32725	
1970	0	32764	32812	
1971	0	32824	32752	
1972	0	32800	32784	
1973	0	32800	32734	
1974	0	32720	32800	
1975	0	32804	32775	
1976	0	32864	32832	
1977	0	32810	32752	
1978	0	32800	32800	
1979	0	32800	32844	
1980	0	32816	32864	
1981	0	32768	32828	
1982	0	32830	32746	
1983	0	32828	32736	
1984	0	32810	32666	
1985	0	32788	32848	
1986	0	32866	32702	
1987	0	32860	32804	
1988	0	32800	32756	
1989	0	32848	32750	
1990	0	32780	32684	
1991	0	32812	32736	
1992	0	32784	32724	
1993	0	32756	32842	
1994	0	32792	32720	
1995	0	32840	32808	
1996	0	32788	32696	
1997	0	32872	32862	
1998	0	32840	32712	
1999	0	32838	32788	
2000	0	32760	32768	
2001	0	32764	32834	
2002	0	32824	32814	
2003	0	32834	32728	
2004	0	32772	32794	
2005	0	32858	32854	
2006	0	32872	32812	
2007	0	32808	32754	
2008	0	32816	32812	
2009	0	32768	32775	
2010	0	32800	32798	
2011	0	32820	32844	
2012	0	32836	32768	
2013	0	32822	32702	
2014	0	32800	32790	
2015	0	32796	32720	
2016	0	32764	32746	
2017	0	32760	32716	
2018	0	32872	32775	
2019	0	32788	32708	
2020	0	32780	32734	
2021	0	32820	32736	
2022	0	32820	32788	
2023	0	32828	32686	
2024	0	32848	32744	
2025	0	32760	32712	
2026	0	32850	32775	
2027	0	32802	32714	
2028	0	32836	32788	
2029	0	32774	32772	
2030	0	32802	32780	
2031	0	32792	32710	
2032	0	32840	32720	
2033	0	32844	32708	
2034	0	32804	32753	
2035	0	32808	32708	
2036	0	32804	32768	
2037	0	32796	32744	
2038	0	32902	32808	
2039	0	32792	32852	
2040	0	32804	32800	
2041	0	32820	32904	
2042	0	32836	32738	
2043	0	32732	32740	
2044	0	32824	32676	
2045	0	32788	32770	
2046	0	32836	32744	
2047	0	32812	32720	
2048	0	32848	32696	
2049	0	32804	32754	
2050	0	32800	32730	
2051	0	32844	32800	
2052	0	32808	32782	
2053	0	32816	32772	
2054	0	32900	32714	
2055	0	32804	32742	
2056	0	32828	32748	
2057	0	32764	32832	
2058	0	32896	32756	
2059	0	32726	32728	
2060	0	32868	32740	
2061	0	32800	32664	
2062	0	32824	32800	
2063	0	32796	32742	
2064	0	32772	32792	
2065	0	32812	32708	
2066	0	32820	32818	
2067	0	32828	32704	
2068	0	32804	32768	
2069	0	32852	32714	
2070	0	32832	32774	
2071	0	32858	32746	
2072	0	32778	32732	
2073	0	32820	32654	
2074	0	32796	32736	
2075	0	32832	32775	
2076	0	32820	32786	
2077	0	32804	32810	
2078	0	32860	32802	
2079	0	32772	32792	
2080	0	32824	32688	
2081	0	32780	32774	
2082	0	32772	32702	
2083	0	32774	32808	
2084	0	32792	32788	
2085	0	32792	32838	
2086	0	32836	32832	
2087	0	32838	32790	
2088	0	32792	32804	
2089	0	32826	32768	
2090	0	32828	32750	
2091	0	32848	32834	
2092	0	32780	32822	
2093	0	32808	32775	
2094	0	32756	32712	
2095	0	32768	32720	
2096	0	32796	32726	
2097	0	32768	32688	
2098	0	32780	32810	
2099	0	32808	32716	
2100	0	32836	32852	
2101	0	32900	32790	
2102	0	32816	32720	
2103	0	32828	32834	
2104	0	32824	32744	
2105	0	32856	32760	
2106	0	32840	32656	
2107	0	32812	32874	
2108	0	32800	32750	
2109	0	32796	32792	
2110	0	32778	32712	
2111	0	32800	32762	
2112	0	32824	32736	
2113	0	32792	32822	
2114	0	32800	32704	
2115	0	32776	32726	
2116	0	32812	32628	
2117	0	32836	32814	
2118	0	32804	32748	
2119	0	32808	32770	
2120	0	32784	32728	
2121	0	32784	32746	
2122	0	32748	32762	
2123	0	32874	32810	
2124	0	32874	32718	
2125	0	32788	32734	
2126	0	32852	32682	
2127	0	32772	32770	
2128	0	32848	32736	
2129	0	32775	32810	
2130	0	32800	32808	
2131	0	32808	32836	
2132	0	32776	32828	
2133	0	32848	32820	
2134	0	32736	32822	
2135	0	32808	32784	
2136	0	32832	32816	
2137	0	32848	32734	
2138	0	32824	32748	
2139	0	32804	32860	
2140	0	32788	32644	
2141	0	32856	32784	
2142	0	32784	32908	
2143	0	32792	32788	
2144	0	32830	32692	
2145	0	32788	32810	
2146	0	32872	32740	
2147	0	32812	32752	
2148	0	32816	32654	
2149	0	32762	32748	
2150	0	32836	32690	
2151	0	32788	32839	
2152	0	32766	32720	
2153	0	32842	32846	
2154	0	32798	32692	
2155	0	32794	32846	
2156	0	32820	32759	
2157	0	32844	32826	
2158	0	32794	32744	
2159	0	32772	32784	
2160	0	32808	32864	
2161	0	32802	32756	
2162	0	32742	32836	
2163	0	32824	32690	
2164	0	32836	32768	
2165	0	32832	32678	
2166	0	32768	32718	
2167	0	32864	32834	
2168	0	32864	32710	
2169	0	32880	32750	
2170	0	32864	32648	
2171	0	32776	32784	
2172	0	32760	32770	
2173	0	32780	32738	
2174	0	32812	32698	
2175	0	32784	32799	
2176	0	32812	32746	
2177	0	32776	32746	
2178	0	32820	32775	
2179	0	32824	32828	
2180	0	32904	32768	
2181	0	32824	32720	
2182	0	32826	32752	
2183	0	32780	32842	
2184	0	32788	32836	
2185	0	32776	32832	
2186	0	32824	32648	
2187	0	32784	32734	
2188	0	32804	32744	
2189	0	32762	32780	
2190	0	32800	32816	
2191	0	32788	32756	
2192	0	32800	32775	
2193	0	32834	32772	
2194	0	32820	32796	
2195	0	32832	32812	
2196	0	32820	32706	
2197	0	32828	32712	
2198	0	32780	32788	
2199	0	32818	32798	
2200	0	32820	32806	
2201	0	32868	32724	
2202	0	32760	32716	
2203	0	32792	32724	
2204	0	32808	32775	
2205	0	32840	32844	
2206	0	32836	32692	
2207	0	32756	32738	
2208	0	32824	32624	
2209	0	32848	32812	
2210	0	32798	32716	
2211	0	32760	32820	
2212	0	32800	32858	
2213	0	32856	32686	
2214	0	32772	32802	
2215	0	32896	32664	
2216	0	32840	32810	
2217	0	32784	32788	
2218	0	32868	32688	
2219	0	32734	32800	
2220	0	32812	32692	
2221	0	32830	32830	
2222	0	32820	32696	
2223	0	32812	32712	
2224	0	32804	32792	
2225	0	32796	32740	
2226	0	32728	32840	
2227	0	32748	32784	
2228	0	32764	32824	
2229	0	32784	32812	
2230	0	32768	32810	
2231	0	32780	32812	
2232	0	32884	32724	
2233	0	32816	32756	
2234	0	32820	32700	
2235	0	32832	32864	
2236	0	32764	32788	
2237	0	32792	32838	
2238	0	32732	32740	
2239	0	32880	32708	
2240	0	32820	32870	
2241	0	32916	32760	
2242	0	32840	32798	
2243	0	32868	32796	
2244	0	32870	32838	
2245	0	32844	32774	
2246	0	32808	32582	
2247	0	32884	32756	
2248	0	32842	32702	
2249	0	32760	32922	
2250	0	32736	32806	
2251	0	32780	32700	
2252	0	32769	32712	
2253	0	32808	32750	
2254	0	32714	32808	
2255	0	32800	32792	
2256	0	32800	32660	
2257	0	32804	32751	
2258	0	32832	32808	
2259	0	32804	32824	
2260	0	32712	32854	
2261	0	32944	32726	
2262	0	32992	32752	
2263	0	32974	32866	
2264	0	32882	32742	
2265	0	32836	32750	
2266	0	32696	32744	
2267	0	32656	32804	
2268	0	32692	32716	
2269	0	32712	32688	
2270	0	32672	32742	
2271	0	32740	32816	
2272	0	32788	32694	
2273	0	32808	32670	
2274	0	32736	32712	
2275	0	32796	32794	
2276	0	32737	32888	
2277	0	32748	32876	
2278	0	32816	32932	
2279	0	32840	32856	
2280	0	32866	32772	
2281	0	33018	32788	
2282	0	33056	32732	
2283	0	33050	32778	
2284	0	32964	32822	
2285	0	32906	32716	
2286	0	32726	32736	
2287	0	32704	32568	
2288	0	32620	32478	
2289	0	32568	32572	
2290	0	32460	32732	
2291	0	32570	32586	
2292	0	32684	32552	
2293	0	32676	32842	
2294	0	32824	32936	
2295	0	32852	33140	
2296	0	32960	32964	
2297	0	32992	32950	
2298	0	33146	32895	
2299	0	33028	32746	
2300	0	33026	32740	
2301	0	32816	33012	
2302	0	32848	33104	
2303	0	32930	32852	
2304	0	32980	32644	
2305	0	32982	32578	
2306	0	32736	32784	
2307	0	32730	32712	
2308	0	32904	32836	
2309	0	32622	32794	
2310	0	32678	32870	
2311	0	32786	32650	
2312	0	32820	32766	
2313	0	32792	32768	
2314	0	32736	32724	
2315	0	32764	32680	
2316	0	32880	32648	
2317	0	32780	32588	
2318	0	32798	32828	
2319	0	32786	32678	
2320	0	32692	32742	
2321	0	32784	32648	
2322	0	32820	32740	
2323	0	32866	32744	
2324	0	32884	32848	
2325	0	32812	32790	
2326	0	32898	32748	
2327	0	32700	32888	
2328	0	32660	32756	
2329	0	32620	32684	
2330	0	32752	32628	
2331	0	32616	32592	
2332	0	32652	32708	
2333	0	32848	32630	
2334	0	33028	32816	
2335	0	32956	32748	
2336	0	32848	32768	
2337	0	32828	32788	
2338	0	33038	32928	
2339	0	32964	32756	
2340	0	32866	32652	
2341	0	32996	32548	
2342	0	32544	32572	
2343	0	32176	32836	
2344	0	32336	32826	
2345	0	32672	32644	
2346	0	32592	32724	
2347	0	32845	32852	
2348	0	32800	32800	
2349	0	33024	32930	
2350	0	33180	33048	
2351	0	33392	32940	
2352	0	33392	32894	
2353	0	33328	33036	
2354	0	33124	32954	
2355	0	33026	33020	
2356	0	32752	32790	
2357	0	32532	32565	
2358	0	32478	32540	
2359	0	32512	32556	
2360	0	32520	32544	
2361	0	32436	32466	
2362	0	32588	32640	
2363	0	32852	32706	
2364	0	32720	32736	
2365	0	32676	32580	
2366	0	32804	32660	
2367	0	32640	32836	
2368	0	33068	32826	
2369	0	33184	32706	
2370	0	32988	32774	
2371	0	32994	32864	
2372	0	33096	33159	
2373	0	33244	33084	
2374	0	33148	32862	
2375	0	32964	32708	
2376	0	32648	32688	
2377	0	32368	32916	
2378	0	32390	32930	
2379	0	32296	32612	
2380	0	32484	32412	
2381	0	32668	32326	
2382	0	33284	32490	
2383	0	33308	32686	
2384	0	32984	32704	
2385	0	32672	33154	
2386	0	32748	33322	
2387	0	32892	33320	
2388	0	32844	33170	
2389	0	32596	32888	
2390	0	32740	32591	
2391	0	32760	32452	
2392	0	32728	32360	
2393	0	32964	32422	
2394	0	32788	32614	
2395	0	33024	32974	
2396	0	33000	33088	
2397	0	32724	33207	
2398	0	32580	32900	
2399	0	32966	32704	
2400	0	32948	32554	
2401	0	32980	32642	
2402	0	33012	32494	
2403	0	32888	32396	
2404	0	32672	32576	
2405	0	32628	32720	
2406	0	32634	32668	
2407	0	32644	32822	
2408	0	32648	32790	
2409	0	32730	32775	
2410	0	32848	32896	
2411	0	32920	33022	
2412	0	33036	32799	
2413	0	32954	32716	
2414	0	32800	32662	
2415	0	32868	32728	
2416	0	32762	32740	
2417	0	32648	32728	
2418	0	32660	32796	
2419	0	32708	32756	
2420	0	32804	32836	
2421	0	32800	32772	
2422	0	32856	32830	
2423	0	32882	32762	
2424	0	32864	32769	
2425	0	32804	32730	
2426	0	32820	32790	
2427	0	32776	32796	
2428	0	32888	32680	
2429	0	32816	32800	
2430	0	32896	32754	
2431	0	32928	32896	
2432	0	32896	32858	
2433	0	32756	32824	
2434	0	32640	32736	
2435	0	32564	32704	
2436	0	32616	32743	
2437	0	32768	32684	
2438	0	32804	32743	
2439	0	32912	32700	
2440	0	33070	32804	
2441	0	32936	32860	
2442	0	33008	32724	
2443	0	32984	32820	
2444	0	32832	32662	
2445	0	32674	32694	
2446	0	32630	32630	
2447	0	32656	32798	
2448	0	32718	32768	
2449	0	32618	32806	
2450	0	32908	32840	
2451	0	33162	32756	
2452	0	32878	32992	
2453	0	32744	32744	
2454	0	32752	32798	
2455	0	32736	32684	
2456	0	32884	32638	
2457	0	32802	32480	
2458	0	32682	32602	
2459	0	32770	32656	
2460	0	32760	32826	
2461	0	32914	32974	
2462	0	32868	32856	
2463	0	32880	32600	
2464	0	32888	32756	
2465	0	32666	32606	
2466	0	32704	32546	
2467	0	32750	32448	
2468	0	32868	32426	
2469	0	32976	32344	
2470	0	32894	32784	
2471	0	32618	33060	
2472	0	32374	33255	
2473	0	32648	33271	
2474	0	32848	33448	
2475	0	32954	33120	
2476	0	32808	33166	
2477	0	32948	32996	
2478	0	33168	32775	
2479	0	33076	32352	
2480	0	33020	32116	
2481	0	32685	32098	
2482	0	32656	32554	
2483	0	32904	32650	
2484	0	32916	32868	
2485	0	32698	33172	
2486	0	32680	33276	
2487	0	32844	33072	
2488	0	33212	32616	
2489	0	33100	32432	
2490	0	32756	32612	
2491	0	32672	32606	
2492	0	32600	32592	
2493	0	32276	32694	
2494	0	32140	32692	
2495	0	32360	32934	
2496	0	32570	32970	
2497	0	33184	32956	
2498	0	33800	32704	
2499	0	33872	32640	
2500	0	33460	32678	
2501	0	32812	32740	
2502	0	32412	32834	
2503	0	32174	32588	
2504	0	32284	32676	
2505	0	32336	32760	
2506	0	32384	32768	
2507	0	32940	32904	
2508	0	33616	32719	
2509	0	33436	32732	
2510	0	33076	32802	
2511	0	32800	32678	
2512	0	32716	32896	
2513	0	32752	32807	
2514	0	33044	32894	
2515	0	32656	32760	
2516	0	32508	32722	
2517	0	32476	32724	
2518	0	32784	32604	
2519	0	33442	32646	
2520	0	33114	32562	
2521	0	32552	32836	
2522	0	32544	32604	
2523	0	32490	32902	
2524	0	32464	33244	
2525	0	32820	33640	
2526	0	32636	33448	
2527	0	32620	33238	
2528	0	32968	32684	
2529	0	33306	32476	
2530	0	33044	32324	
2531	0	32868	32712	
2532	0	32780	32534	
2533	0	32626	32608	
2534	0	32098	32584	
2535	0	32226	32336	
2536	0	32404	32478	
2537	0	32496	32656	
2538	0	32496	32872	
2539	0	33362	32716	
2540	0	33560	32768	
2541	0	33476	32800	
2542	0	33760	33022	
2543	0	33440	33046	
2544	0	32996	33020	
2545	0	32584	32640	
2546	0	32520	32584	
2547	0	32484	32340	
2548	0	32512	32796	
2549	0	32472	32830	
2550	0	32686	32866	
2551	0	32864	32876	
2552	0	32712	32796	
2553	0	32576	32844	
2554	0	32578	32792	
2555	0	32528	32582	
2556	0	32488	32490	
2557	0	32580	32484	
2558	0	32662	32734	
2559	0	32628	33050	
2560	0	32404	32712	
2561	0	32618	32920	
2562	0	33328	32850	
2563	0	33184	32720	
2564	0	33088	32558	
2565	0	33252	32704	
2566	0	33500	32812	
2567	0	33176	32828	
2568	0	32938	32742	
2569	0	32666	32784	
2570	0	32920	32802	
2571	0	33102	32896	
2572	0	33088	32608	
2573	0	33016	32704	
2574	0	33112	32804	
2575	0	33384	33126	
2576	0	32932	33302	
2577	0	32690	33632	
2578	0	32490	33176	
2579	0	32556	32828	
2580	0	32636	32440	
2581	0	32668	32472	
2582	0	32452	32366	
2583	0	32880	32580	
2584	0	33120	32710	
2585	0	32968	32766	
2586	0	32768	32630	
2587	0	32898	32712	
2588	0	32828	32668	
2589	0	32632	32758	
2590	0	32620	32641	
2591	0	32684	32660	
2592	0	32660	32604	
2593	0	32612	32812	
2594	0	32780	32634	
2595	0	32724	32615	
2596	0	32692	32560	
2597	0	32770	32742	
2598	0	33028	32696	
2599	0	33082	32796	
2600	0	32984	32870	
2601	0	32832	32868	
2602	0	32802	32736	
2603	0	32764	32804	
2604	0	32720	32692	
2605	0	32692	32772	
2606	0	32612	32938	
2607	0	32574	32920	
2608	0	32696	32794	
2609	0	33012	32680	
2610	0	33192	32626	
2611	0	32848	32732	
2612	0	32696	32664	
2613	0	32640	32804	
2614	0	32632	32772	
2615	0	32660	32714	
2616	0	32888	32806	
2617	0	32836	32650	
2618	0	32692	32844	
2619	0	32744	32651	
2620	0	32672	32604	
2621	0	32848	32756	
2622	0	32834	32960	
2623	0	33072	33108	
2624	0	33032	33310	
2625	0	32950	33220	
2626	0	32888	33098	
2627	0	32794	32872	
2628	0	32752	32830	
2629	0	32828	32500	
2630	0	32852	32668	
2631	0	32728	32746	
2632	0	32786	32728	
2633	0	32764	32766	
2634	0	32728	32656	
2635	0	32728	32708	
2636	0	32748	32742	
2637	0	32876	32760	
2638	0	32932	32722	
2639	0	32816	32734	
2640	0	32828	32708	
2641	0	32898	32676	
2642	0	32948	32582	
2643	0	32896	32630	
2644	0	32618	32488	
2645	0	32580	32658	
2646	0	32574	32775	
2647	0	32552	32896	
2648	0	32672	32852	
2649	0	32736	32842	
2650	0	32840	32714	
2651	0	32956	32704	
2652	0	33004	32716	
2653	0	32744	32752	
2654	0	32716	32920	
2655	0	32854	32948	
2656	0	33068	33060	
2657	0	33352	32860	
2658	0	33244	32638	
2659	0	33092	32732	
2660	0	32892	32690	
2661	0	32726	32790	
2662	0	32580	32854	
2663	0	32600	32700	
2664	0	32580	32772	
2665	0	32588	32668	
2666	0	32820	32810	
2667	0	32712	32704	
2668	0	32708	32822	
2669	0	32882	32472	
2670	0	32804	32630	
2671	0	32742	32622	
2672	0	32764	32732	
2673	0	32704	32734	
2674	0	32562	32912	
2675	0	32576	32900	
2676	0	32760	32846	
2677	0	33056	32832	
2678	0	33226	32968	
2679	0	32996	32778	
2680	0	33040	32664	
2681	0	33152	32612	
2682	0	33014	32666	
2683	0	32800	32712	
2684	0	32706	32890	
2685	0	32544	32892	
2686	0	32560	32852	
2687	0	32560	32884	
2688	0	32748	32872	
2689	0	33028	32774	
2690	0	32968	32775	
2691	0	32916	32753	
2692	0	32926	32652	
2693	0	32924	32710	
2694	0	32708	32790	
2695	0	32656	32818	
2696	0	32520	32948	
2697	0	32720	32856	
2698	0	32796	32958	
2699	0	32804	32976	
2700	0	32740	32775	
2701	0	32652	32686	
2702	0	32708	32538	
2703	0	32840	32716	
2704	0	32842	32564	
2705	0	32880	32616	
2706	0	32816	32646	
2707	0	32758	32724	
2708	0	32774	32812	
2709	0	32792	32830	
2710	0	32868	32847	
2711	0	32836	32810	
2712	0	32824	32700	
2713	0	32828	32772	
2714	0	32692	32662	
2715	0	32832	32752	
2716	0	32772	32632	
2717	0	32822	32724	
2718	0	32836	32632	
2719	0	32828	32656	
2720	0	32848	32774	
2721	0	32724	32900	
2722	0	32604	32792	
2723	0	32740	32800	
2724	0	32812	32848	
2725	0	32996	32852	
2726	0	32992	32894	
2727	0	32908	33026	
2728	0	32772	32954	
2729	0	32904	32900	
2730	0	33120	32772	
2731	0	32998	32668	
2732	0	32680	32596	
2733	0	32610	32680	
2734	0	32576	32734	
2735	0	32676	32868	
2736	0	32960	32822	
2737	0	33092	32752	
2738	0	32980	32860	
2739	0	32836	32870	
2740	0	32746	32834	
2741	0	32716	32724	
2742	0	32616	32647	
2743	0	32674	32676	
2744	0	32772	32660	
2745	0	32992	32616	
2746	0	32976	32726	
2747	0	32790	32756	
2748	0	32820	32758	
2749	0	32688	32714	
2750	0	32672	32596	
2751	0	32836	32728	
2752	0	32708	32694	
2753	0	32614	32756	
2754	0	32564	32608	
2755	0	32616	32758	
2756	0	32672	32775	
2757	0	32912	32700	
2758	0	32890	32788	
2759	0	32926	32826	
2760	0	33128	32864	
2761	0	32976	32838	
2762	0	32756	32932	
2763	0	32712	32836	
2764	0	32884	32896	
2765	0	32906	32888	
2766	0	32860	32748	
2767	0	32872	32706	
2768	0	32924	32718	
2769	0	33172	32718	
2770	0	33156	32714	
2771	0	32778	32788	
2772	0	32628	32762	
2773	0	32706	32802	
2774	0	32616	32876	
2775	0	32508	32928	
2776	0	32658	32740	
2777	0	32616	32758	
2778	0	32754	32812	
2779	0	32908	32796	
2780	0	33036	32610	
2781	0	33084	32622	
2782	0	32960	32728	
2783	0	32800	32736	
2784	0	32544	32694	
2785	0	32456	32742	
2786	0	32512	32712	
2787	0	32564	32650	
2788	0	32856	32892	
2789	0	32916	32768	
2790	0	32880	32654	
2791	0	33088	32858	
2792	0	33012	32610	
2793	0	32942	32660	
2794	0	32724	32610	
2795	0	32784	32740	
2796	0	32788	32714	
2797	0	32836	32892	
2798	0	32916	32832	
2799	0	32850	32894	
2800	0	33000	32848	
2801	0	32764	32741	
2802	0	32580	32622	
2803	0	32630	32640	
2804	0	32650	32550	
2805	0	32684	32600	
2806	0	32736	32676	
2807	0	32800	32886	
2808	0	32896	32752	
2809	0	33204	32868	
2810	0	33060	33108	
2811	0	32764	32964	
2812	0	32692	32842	
2813	0	32632	32896	
2814	0	32676	33096	
2815	0	32760	32892	
2816	0	33124	32816	
2817	0	33058	32664	
2818	0	32824	32700	
2819	0	32830	32632	
2820	0	32752	32712	
2821	0	32672	32732	
2822	0	32716	32568	
2823	0	32752	32766	
2824	0	32744	32628	
2825	0	32889	32764	
2826	0	32986	32842	
2827	0	32992	32698	
2828	0	32978	32784	
2829	0	32842	32702	
2830	0	32776	32800	
2831	0	32756	32660	
2832	0	32796	32698	
2833	0	32832	32732	
2834	0	32696	32686	
2835	0	32784	32804	
2836	0	32816	32870	
2837	0	32860	32788	
2838	0	32778	32868	
2839	0	32734	32756	
2840	0	32752	32775	
2841	0	32678	32658	
2842	0	32764	32756	
2843	0	32890	32744	
2844	0	32904	32826	
2845	0	32872	32716	
2846	0	32856	32736	
2847	0	32924	32692	
2848	0	32836	32720	
2849	0	32784	32612	
2850	0	32684	32740	
2851	0	32780	32772	
2852	0	32818	32741	
2853	0	32772	32602	
2854	0	32940	32708	
2855	0	32864	32628	
2856	0	32636	32736	
2857	0	32524	32718	
2858	0	32448	32934	
2859	0	32768	32930	
2860	0	33008	32756	
2861	0	33268	32772	
2862	0	33224	32728	
2863	0	32768	32918	
2864	0	32700	32886	
2865	0	32756	32800	
2866	0	32776	32774	
2867	0	33032	32878	
2868	0	33112	32772	
2869	0	32964	32816	
2870	0	32816	32484	
2871	0	32836	32548	
2872	0	32784	32564	
2873	0	32652	32426	
2874	0	32612	32585	
2875	0	32738	32678	
2876	0	32812	32904	
2877	0	32748	32724	
2878	0	32800	32786	
2879	0	32628	32744	
2880	0	32644	32708	
2881	0	32700	32856	
2882	0	32608	32928	
2883	0	32520	32772	
2884	0	32824	32704	
2885	0	32849	32752	
2886	0	32770	32992	
2887	0	32924	33116	
2888	0	32924	33276	
2889	0	33084	32980	
2890	0	33096	32944	
2891	0	33004	32734	
2892	0	32912	32756	
2893	0	32716	32574	
2894	0	32788	32638	
2895	0	32704	32464	
2896	0	32836	32448	
2897	0	32814	32640	
2898	0	32802	32840	
2899	0	32920	32880	
2900	0	32784	32900	
2901	0	32900	32806	
2902	0	32724	32660	
2903	0	32642	32690	
2904	0	32680	32742	
2905	0	32728	32656	
2906	0	32920	32668	
2907	0	32940	32576	
2908	0	32748	32680	
2909	0	32716	32880	
2910	0	32616	32828	
2911	0	32674	32900	
2912	0	32708	32892	
2913	0	32912	32892	
2914	0	32904	32728	
2915	0	32888	32732	
2916	0	32850	32646	
2917	0	32952	32768	
2918	0	32986	32670	
2919	0	32880	32736	
2920	0	32924	32606	
2921	0	32884	32618	
2922	0	32780	32692	
2923	0	32712	32916	
2924	0	32682	32832	
2925	0	32516	32914	
2926	0	32616	32906	
2927	0	32804	32884	
2928	0	32894	32696	
2929	0	32992	32780	
2930	0	32912	32584	
2931	0	32780	32728	
2932	0	32752	32614	
2933	0	32730	32760	
2934	0	32816	32688	
2935	0	32786	32762	
2936	0	32974	32660	
2937	0	33010	32748	
2938	0	32824	32678	
2939	0	32692	32868	
2940	0	32786	32724	
2941	0	32732	32884	
2942	0	32668	32720	
2943	0	32788	32708	
2944	0	32874	32620	
2945	0	32888	32700	
2946	0	32832	32702	
2947	0	32688	32864	
2948	0	32738	32840	
2949	0	32824	32748	
2950	0	32848	32740	
2951	0	32812	32718	
2952	0	33008	32746	
2953	0	32972	32768	
2954	0	32956	32842	
2955	0	32988	32662	
2956	0	33020	32874	
2957	0	32892	32732	
2958	0	32608	32850	
2959	0	32616	32776	
2960	0	32700	32676	
2961	0	32714	32708	
2962	0	32616	32672	
2963	0	32728	32775	
2964	0	32776	32660	
2965	0	32928	32810	
2966	0	32878	32666	
2967	0	32824	32820	
2968	0	32828	32740	
2969	0	32868	32904	
2970	0	32720	32740	
2971	0	32804	32880	
2972	0	32818	32746	
2973	0	32846	32848	
2974	0	32904	32662	
2975	0	32848	32796	
2976	0	32768	32824	
2977	0	32676	32832	
2978	0	32820	32708	
2979	0	32826	32760	
2980	0	33016	32730	
2981	0	32868	32832	
2982	0	32834	32775	
2983	0	32800	32772	
2984	0	32844	32736	
2985	0	32808	32748	
2986	0	32820	32710	
2987	0	32840	32774	
2988	0	32760	32664	
2989	0	32834	32824	
2990	0	32784	32688	
2991	0	32816	32876	
2992	0	32832	32808	
2993	0	32784	32728	
2994	0	32812	32796	
2995	0	32748	32752	
2996	0	32854	32684	
2997	0	32872	32842	
2998	0	32886	32736	
2999	0	32780	32798	
3000	0	32790	32759	
3001	0	32816	32848	
3002	0	32736	32738	
3003	0	32860	32828	
3004	0	32852	32800	
3005	0	32804	32750	
3006	0	32756	32732	
3007	0	32792	32734	
3008	0	32816	32752	
3009	0	32857	32742	
3010	0	32880	32832	
3011	0	32788	32762	
3012	0	32784	32868	
3013	0	32828	32686	
3014	0	32780	32814	
3015	0	32760	32644	
3016	0	32810	32744	
3017	0	32826	32880	
3018	0	32766	32732	
3019	0	32840	32772	
3020	0	32798	32774	
3021	0	32856	32788	
3022	0	32842	32775	
3023	0	32856	32652	
3024	0	32816	32716	
3025	0	32792	32680	
3026	0	32814	32750	
3027	0	32840	32768	
3028	0	32832	32832	
3029	0	32800	32662	
3030	0	32744	32862	
3031	0	32772	32842	
3032	0	32824	32846	
3033	0	32828	32804	
3034	0	32864	32788	
3035	0	32740	32852	
3036	0	32808	32840	
3037	0	32764	32772	
3038	0	32744	32770	
3039	0	32776	32784	
3040	0	32784	32790	
3041	0	32840	32822	
3042	0	32860	32858	
3043	0	32866	32760	
3044	0	32846	32724	
3045	0	32812	32752	
3046	0	32826	32720	
3047	0	32786	32838	
3048	0	32872	32822	
3049	0	32800	32836	
3050	0	32760	32832	
3051	0	32800	32872	
3052	0	32769	32712	
3053	0	32740	32790	
3054	0	32820	32712	
3055	0	32792	32748	
3056	0	32812	32646	
3057	0	32810	32742	
3058	0	32856	32786	
3059	0	32852	32804	
3060	0	32788	32716	
3061	0	32762	32743	
3062	0	32774	32756	
3063	0	32800	32814	
3064	0	32820	32804	
3065	0	32744	32775	
3066	0	32844	32836	
3067	0	32837	32832	
3068	0	32760	32760	
3069	0	32720	32752	
3070	0	32736	32846	
3071	0	32716	32766	
3072	0	32844	32842	
3073	0	32960	32700	
3074	0	32996	32744	
3075	0	32924	32679	
3076	0	32884	32708	
3077	0	32740	32676	
3078	0	32828	32774	
3079	0	32836	32782	
3080	0	32760	32772	
3081	0	32762	32684	
3082	0	32796	32840	
3083	0	32818	32684	
3084	0	32776	32730	
3085	0	32752	32758	
3086	0	32866	32812	
3087	0	32760	32848	
3088	0	32662	32772	
3089	0	32782	32756	
3090	0	32888	32746	
3091	0	32868	32772	
3092	0	32836	32744	
3093	0	32768	32756	
3094	0	32800	32774	
3095	0	32772	32870	
3096	0	32874	32858	
3097	0	32832	32807	
3098	0	32878	32656	
3099	0	32776	32775	
3100	0	32828	32769	
3101	0	32772	32824	
3102	0	32846	32716	
3103	0	32780	32760	
3104	0	32860	32670	
3105	0	32850	32820	
3106	0	32820	32744	
3107	0	32828	32840	
3108	0	32790	32770	
3109	0	32716	32775	
3110	0	32724	32816	
3111	0	32808	32724	
3112	0	32912	32788	
3113	0	32838	32708	
3114	0	32776	32838	
3115	0	32788	32668	
3116	0	32874	32775	
3117	0	32856	32775	
3118	0	32840	32848	
3119	0	32826	32720	
3120	0	32816	32821	
3121	0	32798	32724	
3122	0	32796	32752	
3123	0	32744	32788	
3124	0	32816	32650	
3125	0	32852	32756	
3126	0	32796	32764	
3127	0	32798	32802	
3128	0	32840	32752	
3129	0	32852	32774	
3130	0	32804	32728	
3131	0	32832	32822	
3132	0	32812	32698	
3133	0	32740	32768	
3134	0	32842	32729	
3135	0	32812	32734	
3136	0	32748	32716	
3137	0	32784	32860	
3138	0	32868	32752	
3139	0	32832	32828	
3140	0	32756	32770	
3141	0	32774	32826	
3142	0	32744	32712	
3143	0	32816	32768	
3144	0	32840	32756	
3145	0	32856	32760	
3146	0	32850	32724	
3147	0	32896	32838	
3148	0	32756	32748	
3149	0	32788	32650	
3150	0	32740	32856	
3151	0	32810	32892	
3152	0	32820	32830	
3153	0	32820	32846	
3154	0	32896	32854	
3155	0	32768	32812	
3156	0	32848	32842	
3157	0	32800	32764	
3158	0	32754	32764	
3159	0	32860	32660	
3160	0	32856	32712	
3161	0	32802	32702	
3162	0	32736	32832	
3163	0	32732	32852	
3164	0	32762	32724	
3165	0	32832	32802	
3166	0	32880	32707	
3167	0	32824	32722	
3168	0	32806	32686	
3169	0	32832	32832	
3170	0	32868	32838	
3171	0	32884	32738	
3172	0	32842	32784	
3173	0	32776	32728	
3174	0	32804	32702	
3175	0	32832	32720	
3176	0	32816	32712	
3177	0	32730	32756	
3178	0	32784	32820	
3179	0	32812	32732	
3180	0	32840	32702	
3181	0	32764	32642	
3182	0	32732	32804	
3183	0	32792	32732	
3184	0	32800	32800	
3185	0	32824	32764	
3186	0	32812	32804	
3187	0	32872	32632	
3188	0	32872	32764	
3189	0	32792	32722	
3190	0	32820	32812	
3191	0	32804	32702	
3192	0	32784	32750	
3193	0	32840	32720	
3194	0	32850	32846	
3195	0	32842	32750	
3196	0	32800	32764	
3197	0	32724	32756	
3198	0	32792	32784	
3199	0	32796	32764	
3200	0	32768	32828	
3201	0	32776	32798	
3202	0	32808	32808	
3203	0	32836	32760	
3204	0	32788	32764	
3205	0	32816	32680	
3206	0	32788	32804	
3207	0	32832	32748	
3208	0	32840	32860	
3209	0	32848	32758	
3210	0	32836	32845	
3211	0	32748	32740	
3212	0	32804	32768	
3213	0	32844	32736	
3214	0	32812	32711	
3215	0	32772	32816	
3216	0	32864	32768	
3217	0	32760	32820	
3218	0	32832	32886	
3219	0	32852	32788	
3220	0	32824	32734	
3221	0	32800	32652	
3222	0	32870	32796	
3223	0	32834	32664	
3224	0	32788	32864	
3225	0	32788	32666	
3226	0	32740	32784	
3227	0	32856	32734	
3228	0	32780	32808	
3229	0	32836	32656	
3230	0	32844	32788	
3231	0	32836	32740	
3232	0	32804	32849	
3233	0	32846	32762	
3234	0	32832	32860	
3235	0	32716	32775	
3236	0	32830	32796	
3237	0	32824	32752	
3238	0	32828	32812	
3239	0	32854	32764	
3240	0	32812	32752	
3241	0	32780	32724	
3242	0	32784	32866	
3243	0	32788	32740	
3244	0	32820	32775	
3245	0	32820	32702	
3246	0	32816	32810	
3247	0	32836	32660	
3248	0	32862	32862	
3249	0	32824	32804	
3250	0	32836	32802	
3251	0	32804	32808	
3252	0	32812	32836	
3253	0	32856	32788	
3254	0	32740	32744	
3255	0	32876	32774	
3256	0	32784	32764	
3257	0	32792	32788	
3258	0	32834	32836	
3259	0	32800	32810	
3260	0	32784	32742	
3261	0	32832	32784	
3262	0	32880	32775	
3263	0	32778	32810	
3264	0	32812	32812	
3265	0	32842	32806	
3266	0	32816	32743	
3267	0	32816	32775	
3268	0	32856	32660	
3269	0	32792	32760	
3270	0	32768	32759	
3271	0	32804	32846	
3272	0	32780	32864	
3273	0	32792	32784	
3274	0	32808	32790	
3275	0	32764	32728	
3276	0	32764	32748	
3277	0	32852	32734	
3278	0	32796	32788	
3279	0	32832	32746	
3280	0	32808	32752	
3281	0	32784	32764	
3282	0	32780	32774	
3283	0	32828	32834	
3284	0	32884	32737	
3285	0	32826	32772	
3286	0	32766	32700	
3287	0	32868	32826	
3288	0	32832	32740	
3289	0	32814	32740	
3290	0	32780	32792	
3291	0	32812	32728	
3292	0	32764	32768	
3293	0	32776	32822	
3294	0	32818	32852	
3295	0	32776	32837	
3296	0	32784	32805	
3297	0	32808	32774	
3298	0	32808	32810	
3299	0	32760	32672	
3300	0	32862	32820	
3301	0	32790	32722	
3302	0	32788	32784	
3303	0	32800	32740	
3304	0	32811	32752	
3305	0	32812	32702	
3306	0	32816	32806	
3307	0	32844	32728	
3308	0	32788	32808	
3309	0	32804	32768	
3310	0	32816	32846	
3311	0	32822	32812	
3312	0	32780	32824	
3313	0	32840	32762	
3314	0	32808	32716	
3315	0	32796	32658	
3316	0	32808	32856	
3317	0	32808	32694	
3318	0	32788	32816	
3319	0	32744	32782	
3320	0	32836	32836	
3321	0	32848	32846	
3322	0	32860	32804	
3323	0	32832	32878	
3324	0	32842	32798	
3325	0	32830	32784	
3326	0	32836	32716	
3327	0	32776	32746	
3328	0	32816	32665	
3329	0	32824	32760	
3330	0	32808	32732	
3331	0	32808	32775	
3332	0	32824	32774	
3333	0	32800	32766	
3334	0	32740	32734	
3335	0	32800	32820	
3336	0	32812	32896	
3337	0	32814	32794	
3338	0	32768	32832	
3339	0	32916	32732	
3340	0	32798	32736	
3341	0	32784	32680	
3342	0	32848	32848	
3343	0	32840	32680	
3344	0	32836	32771	
3345	0	32800	32632	
3346	0	32852	32824	
3347	0	32792	32694	
3348	0	32784	32874	
3349	0	32784	32702	
3350	0	32794	32880	
3351	0	32836	32822	
3352	0	32816	32768	
3353	0	32836	32768	
3354	0	32748	32660	
3355	0	32776	32872	
3356	0	32714	32832	
3357	0	32820	32741	
3358	0	32852	32800	
3359	0	32828	32756	
3360	0	32784	32796	
3361	0	32792	32730	
3362	0	32776	32838	
3363	0	32842	32774	
3364	0	32798	32696	
3365	0	32832	32762	
3366	0	32776	32754	
3367	0	32852	32820	
3368	0	32832	32754	
3369	0	32812	32758	
3370	0	32784	32800	
3371	0	32838	32798	
3372	0	32788	32802	
3373	0	32872	32812	
3374	0	32844	32816	
3375	0	32788	32740	
3376	0	32832	32774	
3377	0	32768	32772	
3378	0	32836	32808	
3379	0	32820	32780	
3380	0	32852	32830	
3381	0	32778	32710	
3382	0	32798	32848	
3383	0	32818	32786	
3384	0	32816	32744	
3385	0	32864	32760	
3386	0	32812	32774	
3387	0	32858	32692	
3388	0	32844	32792	
3389	0	32876	32718	
3390	0	32804	32808	
3391	0	32780	32834	
3392	0	32868	32708	
3393	0	32858	32788	
3394	0	32820	32768	
3395	0	32742	32716	
3396	0	32800	32708	
3397	0	32812	32774	
3398	0	32816	32846	
3399	0	32862	32864	
3400	0	32756	32718	
3401	0	32804	32748	
3402	0	32794	32696	
3403	0	32796	32775	
3404	0	32808	32775	
3405	0	32808	32814	
3406	0	32868	32796	
3407	0	32780	32654	
3408	0	32852	32794	
3409	0	32802	32742	
3410	0	32768	32794	
3411	0	32848	32744	
3412	0	32832	32840	
3413	0	32832	32726	
3414	0	32852	32852	
3415	0	32790	32838	
3416	0	32864	32816	
3417	0	32808	32704	
3418	0	32804	32712	
3419	0	32786	32830	
3420	0	32808	32802	
3421	0	32820	32800	
3422	0	32816	32784	
3423	0	32800	32694	
3424	0	32864	32860	
3425	0	32880	32760	
3426	0	32788	32822	
3427	0	32800	32808	
3428	0	32774	32696	
3429	0	32840	32848	
3430	0	32860	32764	
3431	0	32836	32758	
3432	0	32800	32764	
3433	0	32821	32824	
3434	0	32814	32740	
3435	0	32760	32774	
3436	0	32792	32662	
3437	0	32828	32865	
3438	0	32784	32806	
3439	0	32868	32754	
3440	0	32884	32775	
3441	0	32876	32680	
3442	0	32832	32856	
3443	0	32848	32694	
3444	0	32880	32806	
3445	0	32804	32727	
3446	0	32764	32758	
3447	0	32822	32688	
3448	0	32828	32740	
3449	0	32744	32638	
3450	0	32792	32724	
3451	0	32848	32676	
3452	0	32726	32836	
3453	0	32692	32774	
3454	0	32632	32634	
3455	0	32620	32720	
3456	0	32708	32650	
3457	0	32768	32750	
3458	0	32766	32598	
3459	0	32680	32672	
3460	0	32656	32640	
3461	0	32704	32722	
3462	0	32720	32718	
3463	0	32720	32688	
3464	0	32720	32756	
3465	0	32752	32646	
3466	0	32858	32696	
3467	0	32732	32680	
3468	0	32896	32772	
3469	0	32790	32756	
3470	0	32790	32858	
3471	0	32884	32790	
3472	0	32880	32820	
3473	0	32852	32712	
3474	0	32880	32866	
3475	0	32868	32900	
3476	0	32892	32864	
3477	0	32918	32864	
3478	0	32996	32968	
3479	0	33064	32964	
3480	0	33104	33004	
3481	0	33110	32978	
3482	0	33118	32938	
3483	0	33016	32937	
3484	0	32968	32880	
3485	0	32980	32850	
3486	0	32968	32948	
3487	0	32976	32892	
3488	0	32900	32900	
3489	0	32888	32834	
3490	0	32820	32746	
3491	0	32728	32784	
3492	0	32708	32700	
3493	0	32624	32678	
3494	0	32644	32712	
3495	0	32712	32720	
3496	0	32614	32712	
3497	0	32764	32728	
3498	0	32688	32774	
3499	0	32714	32764	
3500	0	32720	32624	
3501	0	32832	32798	
3502	0	32752	32684	
3503	0	32820	32738	
3504	0	32768	32720	
3505	0	32744	32782	
3506	0	32798	32790	
3507	0	32840	32828	
3508	0	32816	32676	
3509	0	32804	32757	
3510	0	32788	32828	
3511	0	32846	32708	
3512	0	32776	32762	
3513	0	32856	32806	
3514	0	32834	32732	
3515	0	32826	32862	
3516	0	32808	32808	
3517	0	32800	32814	
3518	0	32722	32836	
3519	0	32784	32796	
3520	0	32762	32792	
3521	0	32844	32720	
3522	0	32832	32764	
3523	0	32748	32720	
3524	0	32804	32760	
3525	0	32810	32688	
3526	0	32826	32832	
3527	0	32772	32775	
3528	0	32800	32762	
3529	0	32864	32760	
3530	0	32780	32764	
3531	0	32796	32788	
3532	0	32776	32836	
3533	0	32832	32792	
3534	0	32764	32740	
3535	0	32800	32808	
3536	0	32840	32740	
3537	0	32872	32774	
3538	0	32762	32670	
3539	0	32770	32774	
3540	0	32776	32754	
3541	0	32824	32692	
3542	0	32804	32628	
3543	0	32856	32732	
3544	0	32778	32760	
3545	0	32758	32802	
3546	0	32826	32756	
3547	0	32804	32806	
3548	0	32746	32826	
3549	0	32844	32785	
3550	0	32792	32784	
3551	0	32880	32726	
3552	0	32844	32824	
3553	0	32816	32654	
3554	0	32808	32716	
3555	0	32840	32764	
3556	0	32802	32792	
3557	0	32768	32748	
3558	0	32800	32774	
3559	0	32776	32821	
3560	0	32752	32878	
3561	0	32834	32814	
3562	0	32810	32832	
3563	0	32848	32878	
3564	0	32860	32772	
3565	0	32832	32832	
3566	0	32852	32724	
3567	0	32788	32775	
3568	0	32836	32796	
3569	0	32842	32756	
3570	0	32785	32818	
3571	0	32782	32692	
3572	0	32804	32830	
3573	0	32826	32756	
3574	0	32776	32832	
3575	0	32772	32846	
3576	0	32808	32804	
3577	0	32760	32818	
3578	0	32740	32736	
3579	0	32832	32790	
3580	0	32848	32954	
3581	0	32824	32670	
3582	0	32878	32852	
3583	0	32868	32720	
3584	0	32820	32748	
3585	0	32834	32618	
3586	0	32802	32762	
3587	0	32800	32696	
3588	0	32834	32842	
3589	0	32808	32806	
3590	0	32804	32742	
3591	0	32772	32689	
3592	0	32788	32824	
3593	0	32780	32682	
3594	0	32740	32734	
3595	0	32808	32768	
3596	0	32800	32774	
3597	0	32818	32836	
3598	0	32794	32774	
3599	0	32704	32788	
3600	0	32780	32724	
3601	0	32828	32812	
3602	0	32788	32728	
3603	0	32820	32886	
3604	0	32846	32824	
3605	0	32844	32756	
3606	0	32808	32760	
3607	0	32780	32700	
3608	0	32812	32804	
3609	0	32834	32712	
3610	0	32816	32810	
3611	0	32796	32688	
3612	0	32762	32762	
3613	0	32810	32670	
3614	0	32798	32800	
3615	0	32800	32728	
3616	0	32836	32775	
3617	0	32866	32720	
3618	0	32828	32864	
3619	0	32740	32628	
3620	0	32784	32726	
3621	0	32746	32686	
3622	0	32764	32783	
3623	0	32740	32704	
3624	0	32812	32775	
3625	0	32870	32670	
3626	0	32784	32852	
3627	0	32820	32702	
3628	0	32826	32794	
3629	0	32756	32666	
3630	0	32840	32714	
3631	0	32780	32676	
3632	0	32841	32784	
3633	0	32820	32772	
3634	0	32820	32764	
3635	0	32860	32852	
3636	0	32824	32680	
3637	0	32792	32794	
3638	0	32756	32724	
3639	0	32816	32810	
3640	0	32764	32714	
3641	0	32816	32796	
3642	0	32840	32744	
3643	0	32836	32800	
3644	0	32840	32668	
3645	0	32840	32756	
3646	0	32820	32840	
3647	0	32846	32903	
3648	0	32792	32696	
3649	0	32744	32754	
3650	0	32804	32708	
3651	0	32760	32774	
3652	0	32856	32700	
3653	0	32814	32822	
3654	0	32840	32718	
3655	0	32834	32772	
3656	0	32820	32710	
3657	0	32768	32742	
3658	0	32844	32664	
3659	0	32754	32758	
3660	0	32772	32764	
3661	0	32808	32864	
3662	0	32864	32700	
3663	0	32844	32775	
3664	0	32874	32696	
3665	0	32888	32792	
3666	0	32860	32624	
3667	0	32780	32726	
3668	0	32844	32684	
3669	0	32826	32864	
3670	0	32866	32660	
3671	0	32808	32836	
3672	0	32848	32704	
3673	0	32812	32824	
3674	0	32744	32838	
3675	0	32746	32798	
3676	0	32730	32810	
3677	0	32732	32740	
3678	0	32828	32746	
3679	0	32846	32718	
3680	0	32748	32780	
3681	0	32768	32816	
3682	0	32828	32775	
3683	0	32872	32780	
3684	0	32856	32825	
3685	0	32792	32808	
3686	0	32828	32710	
3687	0	32842	32752	
3688	0	32800	32672	
3689	0	32824	32803	
3690	0	32752	32742	
3691	0	32820	32764	
3692	0	32780	32702	
3693	0	32802	32788	
3694	0	32832	32764	
3695	0	32816	32816	
3696	0	32784	32796	
3697	0	32816	32724	
3698	0	32796	32870	
3699	0	32784	32716	
3700	0	32816	32748	
3701	0	32880	32708	
3702	0	32836	32750	
3703	0	32844	32692	
3704	0	32818	32774	
3705	0	32840	32726	
3706	0	32832	32792	
3707	0	32834	32794	
3708	0	32848	32771	
3709	0	32770	32836	
3710	0	32848	32792	
3711	0	32788	32860	
3712	0	32802	32736	
3713	0	32804	32775	
3714	0	32826	32796	
3715	0	32856	32832	
3716	0	32816	32800	
3717	0	32820	32824	
3718	0	32792	32762	
3719	0	32804	32750	
3720	0	32868	32794	
3721	0	32844	32836	
3722	0	32884	32788	
3723	0	32772	32850	
3724	0	32778	32804	
3725	0	32860	32876	
3726	0	32844	32844	
3727	0	32900	32792	
3728	0	32768	32696	
3729	0	32784	32774	
3730	0	32784	32774	
3731	0	32840	32775	
3732	0	32784	32698	
3733	0	32736	32832	
3734	0	32852	32924	
3735	0	32826	32688	
3736	0	32788	32784	
3737	0	32794	32742	
3738	0	32824	32818	
3739	0	32816	32708	
3740	0	32832	32752	
3741	0	32810	32752	
3742	0	32776	32770	
3743	0	32822	32844	
3744	0	32800	32672	
3745	0	32844	32794	
3746	0	32816	32680	
3747	0	32834	32744	
3748	0	32820	32728	
3749	0	32748	32775	
3750	0	32752	32662	
3751	0	32860	32772	
3752	0	32752	32668	
3753	0	32772	32775	
3754	0	32800	32788	
3755	0	32820	32775	
3756	0	32812	32852	
3757	0	32816	32734	
3758	0	32804	32740	
3759	0	32776	32716	
3760	0	32760	32792	
3761	0	32866	32720	
3762	0	32852	32796	
3763	0	32820	32870	
3764	0	32864	32732	
3765	0	32808	32770	
3766	0	32780	32704	
3767	0	32836	32764	
3768	0	32840	32716	
3769	0	32760	32838	
3770	0	32828	32796	
3771	0	32748	32742	
3772	0	32752	32806	
3773	0	32800	32756	
3774	0	32836	32702	
3775	0	32804	32828	
3776	0	32772	32820	
3777	0	32764	32788	
3778	0	32792	32722	
3779	0	32832	32742	
3780	0	32794	32690	
3781	0	32740	32728	
3782	0	32759	32730	
3783	0	32834	32788	
3784	0	32888	32846	
3785	0	32834	32758	
3786	0	32802	32708	
3787	0	32748	32816	
3788	0	32816	32780	
3789	0	32830	32744	
3790	0	32832	32748	
3791	0	32800	32756	
3792	0	32804	32744	
3793	0	32764	32872	
3794	0	32780	32768	
3795	0	32806	32740	
3796	0	32848	32764	
3797	0	32816	32854	
3798	0	32796	32655	
3799	0	32832	32720	
3800	0	32776	32754	
3801	0	32792	32724	
3802	0	32852	32820	
3803	0	32770	32800	
3804	0	32808	32756	
3805	0	32824	32794	
3806	0	32836	32684	
3807	0	32788	32775	
3808	0	32776	32793	
3809	0	32812	32736	
3810	0	32800	32805	
3811	0	32752	32712	
3812	0	32814	32838	
3813	0	32802	32784	
3814	0	32876	32808	
3815	0	32872	32816	
3816	0	32792	32752	
3817	0	32852	32794	
3818	0	32786	32614	
3819	0	32764	32830	
3820	0	32756	32774	
3821	0	32820	32740	
3822	0	32830	32820	
3823	0	32786	32702	
3824	0	32816	32758	
3825	0	32800	32716	
3826	0	32824	32776	
3827	0	32834	32716	
3828	0	32720	32690	
3829	0	32836	32792	
3830	0	32816	32680	
3831	0	32812	32838	
3832	0	32788	32806	
3833	0	32788	32699	
3834	0	32720	32846	
3835	0	32808	32808	
3836	0	32828	32775	
3837	0	32880	32844	
3838	0	32892	32830	
3839	0	32856	32744	
3840	0	32760	32676	
3841	0	32864	32752	
3842	0	32828	32804	
3843	0	32810	32746	
3844	0	32804	32714	
3845	0	32840	32776	
3846	0	32752	32798	
3847	0	32828	32692	
3848	0	32840	32816	
3849	0	32804	32874	
3850	0	32824	32694	
3851	0	32768	32824	
3852	0	32748	32804	
3853	0	32852	32662	
3854	0	32802	32761	
3855	0	32756	32816	
3856	0	32901	32840	
3857	0	32838	32775	
3858	0	32786	32780	
3859	0	32804	32742	
3860	0	32834	32798	
3861	0	32794	32680	
3862	0	32774	32830	
3863	0	32820	32758	
3864	0	32876	32688	
3865	0	32816	32840	
3866	0	32802	32696	
3867	0	32792	32775	
3868	0	32804	32812	
3869	0	32832	32712	
3870	0	32774	32752	
3871	0	32816	32799	
3872	0	32780	32792	
3873	0	32806	32804	
3874	0	32814	32660	
3875	0	32788	32801	
3876	0	32804	32812	
3877	0	32776	32716	
3878	0	32828	32818	
3879	0	32808	32710	
3880	0	32806	32764	
3881	0	32824	32728	
3882	0	32764	32848	
3883	0	32830	32716	
3884	0	32852	32756	
3885	0	32824	32774	
3886	0	32814	32696	
3887	0	32792	32798	
3888	0	32874	32816	
3889	0	32776	32740	
3890	0	32784	32884	
3891	0	32800	32760	
3892	0	32798	32760	
3893	0	32864	32792	
3894	0	32800	32896	
3895	0	32806	32824	
3896	0	32800	32816	
3897	0	32818	32728	
3898	0	32904	32872	
3899	0	32808	32788	
3900	0	32762	32744	
3901	0	32816	32744	
3902	0	32764	32775	
3903	0	32814	32775	
3904	0	32900	32744	
3905	0	32800	32772	
3906	0	32764	32728	
3907	0	32828	32680	
3908	0	32848	32738	
3909	0	32820	32692	
3910	0	32788	32808	
3911	0	32808	32732	
3912	0	32788	32868	
3913	0	32820	32828	
3914	0	32780	32766	
3915	0	32816	32852	
3916	0	32806	32796	
3917	0	32744	32772	
3918	0	32800	32734	
3919	0	32792	32824	
3920	0	32828	32792	
3921	0	32836	32806	
3922	0	32824	32756	
3923	0	32856	32868	
3924	0	32888	32736	
3925	0	32796	32674	
3926	0	32806	32756	
3927	0	32826	32626	
3928	0	32878	32762	
3929	0	32836	32752	
3930	0	32788	32892	
3931	0	32788	32848	
3932	0	32790	32788	
3933	0	32826	32752	
3934	0	32832	32744	
3935	0	32796	32783	
3936	0	32720	32810	
3937	0	32820	32774	
3938	0	32808	32812	
3939	0	32808	32710	
3940	0	32828	32660	
3941	0	32896	32608	
3942	0	32812	32737	
3943	0	32764	32702	
3944	0	32776	32804	
3945	0	32812	32748	
3946	0	32852	32828	
3947	0	32792	32750	
3948	0	32814	32842	
3949	0	32784	32852	
3950	0	32800	32728	
3951	0	32824	32846	
3952	0	32834	32686	
3953	0	32740	32856	
3954	0	32836	32664	
3955	0	32806	32764	
3956	0	32780	32846	
3957	0	32868	32794	
3958	0	32840	32884	
3959	0	32822	32720	
3960	0	32844	32724	
3961	0	32802	32676	
3962	0	32852	32714	
3963	0	32868	32828	
3964	0	32772	32714	
3965	0	32810	32760	
3966	0	32812	32882	
3967	0	32836	32708	
3968	0	32896	32730	
3969	0	32730	32736	
3970	0	32806	32812	
3971	0	32736	32894	
3972	0	32764	32714	
3973	0	32852	32744	
3974	0	32794	32764	
3975	0	32826	32792	
3976	0	32768	32800	
3977	0	32834	32768	
3978	0	32828	32774	
3979	0	32800	32742	
3980	0	32756	32869	
3981	0	32834	32732	
3982	0	32816	32842	
3983	0	32792	32730	
3984	0	32850	32640	
3985	0	32776	32674	
3986	0	32896	32770	
3987	0	32740	32752	
3988	0	32822	32830	
3989	0	32844	32754	
3990	0	32824	32870	
3991	0	32830	32752	
3992	0	32836	32774	
3993	0	32808	32752	
3994	0	32860	32756	
3995	0	32788	32642	
3996	0	32788	32870	
3997	0	32826	32906	
3998	0	32814	32848	
3999	0	32804	32758	
4000	0	32724	32800	
4001	0	32808	32751	
4002	0	32820	32766	
4003	0	32800	32764	
4004	0	32824	32828	
4005	0	32794	32768	
4006	0	32794	32764	
4007	0	32762	32788	
4008	0	32824	32714	
4009	0	32828	32780	
4010	0	32816	32700	
4011	0	32876	32710	
4012	0	32832	32674	
4013	0	32772	32776	
4014	0	32808	32716	
4015	0	32788	32704	
4016	0	32848	32690	
4017	0	32828	32752	
4018	0	32786	32682	
4019	0	32756	32680	
4020	0	32874	32689	
4021	0	32822	32710	
4022	0	32852	32890	
4023	0	32792	32892	
4024	0	32772	32840	
4025	0	32784	32775	
4026	0	32840	32751	
4027	0	32756	32762	
4028	0	32838	32712	
4029	0	32822	32702	
4030	0	32852	32798	
4031	0	32856	32770	
4032	0	32860	32808	
4033	0	32828	32804	
4034	0	32752	32918	
4035	0	32716	32916	
4036	0	32818	32766	
4037	0	32868	32834	
4038	0	32808	32636	
4039	0	32832	32720	
4040	0	32800	32718	
4041	0	32834	32792	
4042	0	32834	32678	
4043	0	32840	32706	
4044	0	32824	32694	
4045	0	32842	32832	
4046	0	32788	32708	
4047	0	32834	32764	
4048	0	32830	32712	
4049	0	32812	32854	
4050	0	32864	32812	
4051	0	32820	32826	
4052	0	32766	32882	
4053	0	32700	32842	
4054	0	32768	32696	
4055	0	32764	32714	
4056	0	32832	32764	
4057	0	32792	32854	
4058	0	32848	32782	
4059	0	32846	32788	
4060	0	32850	32766	
4061	0	32774	32728	
4062	0	32720	32768	
4063	0	32778	32692	
4064	0	32788	32820	
4065	0	32840	32748	
4066	0	32900	32828	
4067	0	32784	32816	
4068	0	32732	32858	
4069	0	32820	32820	
4070	0	32896	32696	
4071	0	32798	32748	
4072	0	32802	32824	
4073	0	32824	32788	
4074	0	32808	32700	
4075	0	32862	32796	
4076	0	32852	32738	
4077	0	32832	32840	
4078	0	32844	32822	
4079	0	32772	32704	
4080	0	32800	32782	
4081	0	32792	32636	
4082	0	32832	32758	
4083	0	32872	32728	
4084	0	32800	32692	
4085	0	32746	32670	
4086	0	32832	32756	
4087	0	32824	32668	
4088	0	32816	32676	
4089	0	32822	32696	
4090	0	32798	32896	
4091	0	32828	32730	
4092	0	32812	32746	
4093	0	32812	32704	
4094	0	32804	32742	
4095	0	32840	32633	
4096	0	32776	32742	
4097	0	32788	32774	
4098	0	32872	32802	
4099	0	32816	32830	
4100	0	32854	32724	
4101	0	32760	32766	
4102	0	32800	32868	
4103	0	32840	32720	
4104	0	32810	32692	
4105	0	32840	32678	
4106	0	32808	32789	
4107	0	32832	32688	
4108	0	32706	32756	
4109	0	32828	32760	
4110	0	32848	32720	
4111	0	32804	32880	
4112	0	32800	32732	
4113	0	32796	32838	
4114	0	32792	32824	
4115	0	32852	32810	
4116	0	32778	32690	
4117	0	32828	32838	
4118	0	32816	32736	
4119	0	32836	32678	
4120	0	32848	32680	
4121	0	32872	32790	
4122	0	32768	32756	
4123	0	32744	32828	
4124	0	32760	32734	
4125	0	32796	32808	
4126	0	32800	32680	
4127	0	32857	32830	
4128	0	32820	32650	
4129	0	32824	32720	
4130	0	32928	32647	
4131	0	32820	32775	
4132	0	32788	32712	
4133	0	32856	32804	
4134	0	32864	32664	
4135	0	32784	32774	
4136	0	32784	32775	
4137	0	32724	32780	
4138	0	32748	32758	
4139	0	32804	32860	
4140	0	32840	32678	
4141	0	32836	32810	
4142	0	32736	32818	
4143	0	32800	32788	
4144	0	32828	32804	
4145	0	32820	32734	
4146	0	32816	32756	
4147	0	32794	32686	
4148	0	32824	32710	
4149	0	32840	32632	
4150	0	32852	32754	
4151	0	32816	32822	
4152	0	32792	32885	
4153	0	32814	32854	
4154	0	32776	32793	
4155	0	32800	32766	
4156	0	32836	32640	
4157	0	32844	32724	
4158	0	32752	32692	
4159	0	32820	32774	
4160	0	32802	32718	
4161	0	32840	32714	
4162	0	32864	32672	
4163	0	32840	32740	
4164	0	32904	32700	
4165	0	32860	32688	
4166	0	32740	32648	
4167	0	32772	32736	
4168	0	32704	32702	
4169	0	32772	32724	
4170	0	32856	32735	
4171	0	32828	32720	
4172	0	32740	32722	
4173	0	32840	32860	
4174	0	32836	32799	
4175	0	32840	32865	
4176	0	32820	32804	
4177	0	32828	32728	
4178	0	32824	32760	
4179	0	32780	32684	
4180	0	32788	32784	
4181	0	32778	32706	
4182	0	32816	32860	
4183	0	32810	32620	
4184	0	32848	32644	
4185	0	32842	32858	
4186	0	32832	32798	
4187	0	32828	32868	
4188	0	32814	32894	
4189	0	32824	32868	
4190	0	32816	32758	
4191	0	32784	32704	
4192	0	32796	32688	
4193	0	32796	32740	
4194	0	32780	32884	
4195	0	32746	32984	
4196	0	32780	32737	
4197	0	32714	32660	
4198	0	32790	32624	
4199	0	32792	32736	
4200	0	32826	32748	
4201	0	32862	32740	
4202	0	32882	32668	
4203	0	32792	32936	
4204	0	32834	32912	
4205	0	32804	32816	
4206	0	32852	32764	
4207	0	32816	32705	
4208	0	32790	32728	
4209	0	32884	32710	
4210	0	32830	32756	
4211	0	32802	32720	
4212	0	32802	32750	
4213	0	32784	32752	
4214	0	32786	32772	
4215	0	32736	32812	
4216	0	32844	32754	
4217	0	32834	32844	
4218	0	32836	32676	
4219	0	32822	32784	
4220	0	32820	32632	
4221	0	32820	32736	
4222	0	32800	32678	
4223	0	32792	32804	
4224	0	32736	32718	
4225	0	32832	32800	
4226	0	32936	32743	
4227	0	32764	32686	
4228	0	32842	32650	
4229	0	32824	32774	
4230	0	32882	32700	
4231	0	32866	32796	
4232	0	32832	32758	
4233	0	32864	32848	
4234	0	32756	32984	
4235	0	32816	32868	
4236	0	32766	32852	
4237	0	32784	32750	
4238	0	32774	32662	
4239	0	32836	32648	
4240	0	32824	32600	
4241	0	32800	32568	
4242	0	32736	32728	
4243	0	32790	33012	
4244	0	32868	33208	
4245	0	32796	33044	
4246	0	32814	32852	
4247	0	32842	32540	
4248	0	32836	32616	
4249	0	32862	32532	
4250	0	32832	32714	
4251	0	32736	32836	
4252	0	32740	32750	
4253	0	32800	32770	
4254	0	32744	32734	
4255	0	32784	32850	
4256	0	32864	32736	
4257	0	32896	32816	
4258	0	32900	32814	
4259	0	32732	32948	
4260	0	32784	32849	
4261	0	32764	32784	
4262	0	32884	32850	
4263	0	32824	32694	
4264	0	32814	32714	
4265	0	32902	32752	
4266	0	32858	32756	
4267	0	32812	32728	
4268	0	32916	32756	
4269	0	32904	32802	
4270	0	32792	32626	
4271	0	32784	32752	
4272	0	32840	32718	
4273	0	32804	32798	
4274	0	32734	32772	
4275	0	32784	32768	
4276	0	32802	32774	
4277	0	32720	32596	
4278	0	32752	32414	
4279	0	32748	32596	
4280	0	32812	32838	
4281	0	32848	32862	
4282	0	32828	32748	
4283	0	32780	32802	
4284	0	32848	32880	
4285	0	32808	32784	
4286	0	32852	32848	
4287	0	32816	32810	
4288	0	32756	32826	
4289	0	32824	32756	
4290	0	32832	32800	
4291	0	32840	32808	
4292	0	32828	32868	
4293	0	32816	32844	
4294	0	32780	32862	
4295	0	32776	32820	
4296	0	32756	32712	
4297	0	32844	32798	
4298	0	32832	32638	
4299	0	32858	32794	
4300	0	32844	32642	
4301	0	32812	32700	
4302	0	32834	32686	
4303	0	32800	32724	
4304	0	32864	32692	
4305	0	32828	32712	
4306	0	32832	32658	
4307	0	32788	32804	
4308	0	32836	32864	
4309	0	32850	32726	
4310	0	32832	32590	
4311	0	32808	32604	
4312	0	32780	32761	
4313	0	32832	32892	
4314	0	32756	32876	
4315	0	32798	32876	
4316	0	32834	32684	
4317	0	32814	32528	
4318	0	32832	32828	
4319	0	32760	33152	
4320	0	32752	33312	
4321	0	32764	33104	
4322	0	32834	33222	
4323	0	32812	33146	
4324	0	32830	33024	
4325	0	32784	32808	
4326	0	32772	32704	
4327	0	32864	32647	
4328	0	32844	32710	
4329	0	32860	32662	
4330	0	32836	32584	
4331	0	32720	32554	
4332	0	32744	32644	
4333	0	32668	32562	
4334	0	32694	32344	
4335	0	32700	32206	
4336	0	32688	31882	
4337	0	32712	32088	
4338	0	32692	32356	
4339	0	32724	32648	
4340	0	32740	33002	
4341	0	32752	32996	
4342	0	32780	32892	
4343	0	32760	33175	
4344	0	32688	33420	
4345	0	32820	33436	
4346	0	32864	33484	
4347	0	32844	33405	
4348	0	32896	33304	
4349	0	32812	33214	
4350	0	32816	32756	
4351	0	32848	32484	
4352	0	32834	32354	
4353	0	32840	32444	
4354	0	32960	32256	
4355	0	33010	32310	
4356	0	32948	32542	
4357	0	33042	33054	
4358	0	33072	32744	
4359	0	33056	32672	
4360	0	33128	32490	
4361	0	32996	32480	
4362	0	33020	32334	
4363	0	33040	32234	
4364	0	32940	32136	
4365	0	32962	32756	
4366	0	32880	33376	
4367	0	32756	33700	
4368	0	32740	33830	
4369	0	32692	33578	
4370	0	32640	33128	
4371	0	32698	33008	
4372	0	32648	32432	
4373	0	32706	32000	
4374	0	32740	31558	
4375	0	32758	31286	
4376	0	32736	31264	
4377	0	32784	30928	
4378	0	32810	31308	
4379	0	32810	32456	
4380	0	32828	33672	
4381	0	32812	34568	
4382	0	32776	35194	
4383	0	32732	34840	
4384	0	32812	33894	
4385	0	32836	33272	
4386	0	32860	33216	
4387	0	32856	33236	
4388	0	32832	32788	
4389	0	32768	32486	
4390	0	32804	32442	
4391	0	32788	31946	
4392	0	32932	31670	
4393	0	32960	31008	
4394	0	32824	30348	
4395	0	32704	31374	
4396	0	32756	32214	
4397	0	32804	32910	
4398	0	32652	34554	
4399	0	32680	35248	
4400	0	32584	33958	
4401	0	32622	32516	
4402	0	32768	32608	
4403	0	32864	32648	
4404	0	32922	33568	
4405	0	32984	34380	
4406	0	33086	35206	
4407	0	33076	35031	
4408	0	33060	34344	
4409	0	32832	34284	
4410	0	32784	33628	
4411	0	32796	33120	
4412	0	32768	32764	
4413	0	32700	31976	
4414	0	32528	31270	
4415	0	32520	30446	
4416	0	32662	30130	
4417	0	32724	30020	
4418	0	32648	30090	
4419	0	32620	30424	
4420	0	32376	31338	
4421	0	32512	32076	
4422	0	32348	32774	
4423	0	32748	33726	
4424	0	33116	34974	
4425	0	33392	35588	
4426	0	33306	35212	
4427	0	33570	35304	
4428	0	33360	34358	
4429	0	33178	33344	
4430	0	32974	32280	
4431	0	32868	32212	
4432	0	32728	31914	
4433	0	32616	31450	
4434	0	32548	31684	
4435	0	32452	31879	
4436	0	32584	31950	
4437	0	32576	31790	
4438	0	32756	31732	
4439	0	32784	31860	
4440	0	32636	31384	
4441	0	32720	30956	
4442	0	32724	31986	
4443	0	32696	32994	
4444	0	32796	34016	
4445	0	32892	35008	
4446	0	33006	35558	
4447	0	33016	35936	
4448	0	32948	35354	
4449	0	32956	34230	
4450	0	32798	33990	
4451	0	32820	32670	
4452	0	32802	31932	
4453	0	32712	31556	
4454	0	32624	31752	
4455	0	32704	31804	
4456	0	32854	32144	
4457	0	32860	32180	
4458	0	32784	32428	
4459	0	32712	32246	
4460	0	32792	32007	
4461	0	32836	31919	
4462	0	32890	32296	
4463	0	32792	32852	
4464	0	32776	32620	
4465	0	32692	31716	
4466	0	32884	31582	
4467	0	32860	32104	
4468	0	32752	32560	
4469	0	32820	33445	
4470	0	32774	32064	
4471	0	32780	32008	
4472	0	32816	32706	
4473	0	32864	33102	
4474	0	32744	33732	
4475	0	32834	34114	
4476	0	32868	34556	
4477	0	32986	33777	
4478	0	32848	32972	
4479	0	32908	32710	
4480	0	32984	32660	
4481	0	32970	32684	
4482	0	32956	32644	
4483	0	32968	32244	
4484	0	32868	32100	
4485	0	32906	31916	
4486	0	32938	31468	
4487	0	32884	31018	
4488	0	32832	31992	
4489	0	32676	33214	
4490	0	32704	33952	
4491	0	32658	34980	
4492	0	32536	35078	
4493	0	32592	34600	
4494	0	32218	34258	
4495	0	31984	33454	
4496	0	32320	32600	
4497	0	32728	31286	
4498	0	33100	30496	
4499	0	33482	31212	
4500	0	33568	32220	
4501	0	33428	32548	
4502	0	33336	32708	
4503	0	33088	33004	
4504	0	32820	33730	
4505	0	32174	32612	
4506	0	31938	31650	
4507	0	31678	31760	
4508	0	32236	31632	
4509	0	32540	31828	
4510	0	33008	32024	
4511	0	33274	32624	
4512	0	33276	32682	
4513	0	32926	34580	
4514	0	32890	34582	
4515	0	33232	34250	
4516	0	33240	34260	
4517	0	33310	33510	
4518	0	33316	32890	
4519	0	33184	32248	
4520	0	32992	32124	
4521	0	32640	31868	
4522	0	32434	32324	
4523	0	32362	33024	
4524	0	32648	33646	
4525	0	32580	32794	
4526	0	32680	31970	
4527	0	32712	32764	
4528	0	32888	32334	
4529	0	32976	30756	
4530	0	33016	31396	
4531	0	32520	32668	
4532	0	32304	33468	
4533	0	32552	33862	
4534	0	32320	33506	
4535	0	32450	33300	
4536	0	32800	34330	
4537	0	32728	33428	
4538	0	32480	32470	
4539	0	32914	31046	
4540	0	33104	31336	
4541	0	33132	32534	
4542	0	33072	33952	
4543	0	33192	35124	
4544	0	33152	33960	
4545	0	33032	32750	
4546	0	32832	31644	
4547	0	32952	31336	
4548	0	32792	32512	
4549	0	32618	32540	
4550	0	32860	31671	
4551	0	33076	31284	
4552	0	33096	31926	
4553	0	33176	31732	
4554	0	32864	31860	
4555	0	32384	32748	
4556	0	31528	33454	
4557	0	31906	35344	
4558	0	32444	36628	
4559	0	32884	35382	
4560	0	33194	33838	
4561	0	33440	33294	
4562	0	33568	32390	
4563	0	33568	32340	
4564	0	33480	32300	
4565	0	33204	32062	
4566	0	33040	31428	
4567	0	33068	31056	
4568	0	32804	30452	
4569	0	32560	31264	
4570	0	32606	31768	
4571	0	32769	32082	
4572	0	32824	33254	
4573	0	32602	33028	
4574	0	32800	33620	
4575	0	32416	33072	
4576	0	31534	33672	
4577	0	31256	33860	
4578	0	31456	33712	
4579	0	31312	34044	
4580	0	32344	33674	
4581	0	33142	32526	
4582	0	33336	31972	
4583	0	33760	32040	
4584	0	34314	31900	
4585	0	34190	32260	
4586	0	34084	32112	
4587	0	33702	32640	
4588	0	33248	31354	
4589	0	32544	31528	
4590	0	32388	31916	
4591	0	32488	32440	
4592	0	32580	33196	
4593	0	32680	34175	
4594	0	32606	34876	
4595	0	32612	34664	
4596	0	32872	34274	
4597	0	32868	33888	
4598	0	32872	32590	
4599	0	32980	31778	
4600	0	32888	32032	
4601	0	32872	31244	
4602	0	33160	30544	
4603	0	32540	32510	
4604	0	32404	33340	
4605	0	32538	32812	
4606	0	32684	33886	
4607	0	32528	34368	
4608	0	32444	33820	
4609	0	31120	33365	
4610	0	30834	33430	
4611	0	30828	32324	
4612	0	32384	31584	
4613	0	33812	31208	
4614	0	34848	31660	
4615	0	35080	32384	
4616	0	34960	33322	
4617	0	34524	33396	
4618	0	33316	33952	
4619	0	32410	33346	
4620	0	32414	32620	
4621	0	32360	31104	
4622	0	32272	29836	
4623	0	32366	30020	
4624	0	32710	31034	
4625	0	33032	32906	
4626	0	33364	33424	
4627	0	33328	33512	
4628	0	33272	34188	
4629	0	32976	34846	
4630	0	32920	35750	
4631	0	32680	36492	
4632	0	32328	35404	
4633	0	32034	33184	
4634	0	31908	31796	
4635	0	32068	31239	
4636	0	32428	31560	
4637	0	32572	31628	
4638	0	32816	31840	
4639	0	32632	32126	
4640	0	32882	31556	
4641	0	33132	31468	
4642	0	32984	31142	
4643	0	33032	31380	
4644	0	32480	32446	
4645	0	32152	34556	
4646	0	32072	34216	
4647	0	32748	33780	
4648	0	33292	34940	
4649	0	33692	33908	
4650	0	34116	34016	
4651	0	33670	32184	
4652	0	33136	29700	
4653	0	32860	29544	
4654	0	32034	29514	
4655	0	32120	30340	
4656	0	32030	32206	
4657	0	32170	34212	
4658	0	32436	35606	
4659	0	32218	37326	
4660	0	32852	37288	
4661	0	33100	35794	
4662	0	33006	34232	
4663	0	33444	33178	
4664	0	33664	31940	
4665	0	33962	31682	
4666	0	34060	31152	
4667	0	33964	30972	
4668	0	33196	31094	
4669	0	32752	31740	
4670	0	32516	32056	
4671	0	32096	31894	
4672	0	31976	32552	
4673	0	31162	33040	
4674	0	31488	33010	
4675	0	32250	32590	
4676	0	32330	31870	
4677	0	32632	31876	
4678	0	33208	32135	
4679	0	33540	32016	
4680	0	33510	31724	
4681	0	33684	30286	
4682	0	33748	29888	
4683	0	33230	30640	
4684	0	33132	33504	
4685	0	33132	36618	
4686	0	33056	36870	
4687	0	32652	35026	
4688	0	32748	36088	
4689	0	32484	36340	
4690	0	32428	35088	
4691	0	32200	33926	
4692	0	32420	33556	
4693	0	32004	32828	
4694	0	32114	31986	
4695	0	32396	31182	
4696	0	32932	30518	
4697	0	32894	29624	
4698	0	32724	29940	
4699	0	32820	30208	
4700	0	32288	31744	
4701	0	32360	32976	
4702	0	32232	34780	
4703	0	32608	34604	
4704	0	33124	33972	
4705	0	33696	32881	
4706	0	33828	31956	
4707	0	33520	31264	
4708	0	33474	32376	
4709	0	33704	32766	
4710	0	33344	33952	
4711	0	32944	31492	
4712	0	32764	31332	
4713	0	32552	31404	
4714	0	32196	32836	
4715	0	31760	34536	
4716	0	31800	35026	
4717	0	31898	33366	
4718	0	32296	33196	
4719	0	32538	33862	
4720	0	32976	32688	
4721	0	33188	32358	
4722	0	33036	33332	
4723	0	32488	33002	
4724	0	32832	33004	
4725	0	32588	32796	
4726	0	32816	32566	
4727	0	33136	32546	
4728	0	33258	32132	
4729	0	33444	33626	
4730	0	33334	34016	
4731	0	33164	33040	
4732	0	32490	31244	
4733	0	32544	31311	
4734	0	32860	31236	
4735	0	33222	31292	
4736	0	33376	31782	
4737	0	33420	33112	
4738	0	33408	33740	
4739	0	33006	34012	
4740	0	32752	32842	
4741	0	32500	32478	
4742	0	31736	32402	
4743	0	31356	31010	
4744	0	31566	29308	
4745	0	32444	29116	
4746	0	33256	32212	
4747	0	33080	35480	
4748	0	32972	37818	
4749	0	33504	37446	
4750	0	33788	35206	
4751	0	33678	34876	
4752	0	33440	33782	
4753	0	33138	33070	
4754	0	32546	31836	
4755	0	32140	30980	
4756	0	31753	31584	
4757	0	32240	31638	
4758	0	32648	32094	
4759	0	32904	32160	
4760	0	33000	32196	
4761	0	33140	32654	
4762	0	33230	32848	
4763	0	33120	33456	
4764	0	32820	32804	
4765	0	32620	32248	
4766	0	32504	32256	
4767	0	32520	32264	
4768	0	32528	31960	
4769	0	32272	32174	
4770	0	32802	31456	
4771	0	32948	31076	
4772	0	33152	31112	
4773	0	32826	32760	
4774	0	32712	34054	
4775	0	32564	34028	
4776	0	32314	33378	
4777	0	32716	34186	
4778	0	33160	34496	
4779	0	31378	33966	
4780	0	31496	33562	
4781	0	32656	33028	
4782	0	33720	32750	
4783	0	34296	33436	
4784	0	34068	33108	
4785	0	33808	32240	
4786	0	33126	31442	
4787	0	32724	31088	
4788	0	32834	30668	
4789	0	32768	31848	
4790	0	33056	33076	
4791	0	32688	32126	
4792	0	32048	30538	
4793	0	31824	31982	
4794	0	32298	34514	
4795	0	33322	34472	
4796	0	33860	35232	
4797	0	33320	36038	
4798	0	32936	35084	
4799	0	32952	33954	
4800	0	32760	33764	
4801	0	32442	32880	
4802	0	32448	32304	
4803	0	32524	31364	
4804	0	32780	31228	
4805	0	32914	31454	
4806	0	32672	31404	
4807	0	32450	31504	
4808	0	32456	31524	
4809	0	32628	31782	
4810	0	32664	32516	
4811	0	32938	32752	
4812	0	33094	33016	
4813	0	32990	32308	
4814	0	32948	32580	
4815	0	32424	34144	
4816	0	32534	34104	
4817	0	32934	32272	
4818	0	33130	31577	
4819	0	33088	33120	
4820	0	33116	33936	
4821	0	33120	33172	
4822	0	32912	32868	
4823	0	32460	32436	
4824	0	32484	31336	
4825	0	32716	32092	
4826	0	32820	33964	
4827	0	33072	33956	
4828	0	33144	33220	
4829	0	33132	33248	
4830	0	33034	33692	
4831	0	32772	33890	
4832	0	32512	33554	
4833	0	32290	32936	
4834	0	32328	31660	
4835	0	32716	30236	
4836	0	32920	29664	
4837	0	33058	29678	
4838	0	33394	29830	
4839	0	33228	32352	
4840	0	32820	35248	
4841	0	31824	34964	
4842	0	31754	35522	
4843	0	32504	37140	
4844	0	33196	36212	
4845	0	33816	34536	
4846	0	33962	32608	
4847	0	33820	32256	
4848	0	33448	32700	
4849	0	33068	31896	
4850	0	32756	31466	
4851	0	32554	31344	
4852	0	32360	31612	
4853	0	32316	32022	
4854	0	32224	32372	
4855	0	32010	32196	
4856	0	31906	32256	
4857	0	31908	32636	
4858	0	32406	32527	
4859	0	32428	32314	
4860	0	31844	31956	
4861	0	32416	32724	
4862	0	33032	32580	
4863	0	33612	32994	
4864	0	33842	32892	
4865	0	33712	33080	
4866	0	33612	32724	
4867	0	33368	32630	
4868	0	33120	32838	
4869	0	33352	32372	
4870	0	33288	32472	
4871	0	32992	32724	
4872	0	31936	32616	
4873	0	30816	32052	
4874	0	31204	32580	
4875	0	32368	33088	
4876	0	33508	33822	
4877	0	33684	33958	
4878	0	33884	34684	
4879	0	33684	34160	
4880	0	33824	34524	
4881	0	33832	32500	
4882	0	33304	31406	
4883	0	33020	31678	
4884	0	33062	32412	
4885	0	32844	33012	
4886	0	32628	33006	
4887	0	32248	33058	
4888	0	32008	31908	
4889	0	31826	32154	
4890	0	31794	33144	
4891	0	31920	32822	
4892	0	32122	32296	
4893	0	32404	31696	
4894	0	32480	30792	
4895	0	32648	32070	
4896	0	32688	33062	
4897	0	32860	33930	
4898	0	33010	33204	
4899	0	33156	32736	
4900	0	33398	33100	
4901	0	33242	33580	
4902	0	32260	32432	
4903	0	32500	32222	
4904	0	32824	31230	
4905	0	33064	31896	
4906	0	33672	34196	
4907	0	33572	33580	
4908	0	33552	33816	
4909	0	33470	33350	
4910	0	33144	33016	
4911	0	32836	33816	
4912	0	32544	33528	
4913	0	32469	32784	
4914	0	32452	32730	
4915	0	32548	32452	
4916	0	32632	30122	
4917	0	32724	29316	
4918	0	32848	30998	
4919	0	32868	33040	
4920	0	32528	34566	
4921	0	32440	35758	
4922	0	32916	34528	
4923	0	32736	32744	
4924	0	32316	32358	
4925	0	32588	33142	
4926	0	32900	33504	
4927	0	33096	32956	
4928	0	33280	30754	
4929	0	33200	29944	
4930	0	33036	31170	
4931	0	32832	33716	
4932	0	33096	32632	
4933	0	33194	31456	
4934	0	32760	33028	
4935	0	32246	33782	
4936	0	32276	34328	
4937	0	31436	35196	
4938	0	31978	34864	
4939	0	32740	34628	
4940	0	33312	33308	
4941	0	33608	31672	
4942	0	33520	32532	
4943	0	33262	32972	
4944	0	32810	32424	
4945	0	32624	32502	
4946	0	32578	32350	
4947	0	32856	31910	
4948	0	32828	31576	
4949	0	32772	32060	
4950	0	32202	32390	
4951	0	32472	32469	
4952	0	32884	32672	
4953	0	33124	32326	
4954	0	33168	31974	
4955	0	33192	31642	
4956	0	33088	31370	
4957	0	32784	32444	
4958	0	32384	32838	
4959	0	32552	32396	
4960	0	32918	32816	
4961	0	33180	35040	
4962	0	33356	34948	
4963	0	33280	33734	
4964	0	33034	32952	
4965	0	32728	33322	
4966	0	33178	32932	
4967	0	33120	32422	
4968	0	32936	32676	
4969	0	32960	31880	
4970	0	32580	32200	
4971	0	32634	32708	
4972	0	32706	33236	
4973	0	32040	31968	
4974	0	31952	31778	
4975	0	32224	32514	
4976	0	32860	33158	
4977	0	33182	33598	
4978	0	33192	33140	
4979	0	33112	32568	
4980	0	32810	32660	
4981	0	32688	32558	
4982	0	32572	32764	
4983	0	32476	33036	
4984	0	32456	33252	
4985	0	32484	32719	
4986	0	32492	32478	
4987	0	32870	31782	
4988	0	32768	31602	
4989	0	32784	33040	
4990	0	32946	33530	
4991	0	33166	33916	
4992	0	33216	32330	
4993	0	33236	32852	
4994	0	33118	33470	
4995	0	33056	33620	
4996	0	32852	33447	
4997	0	32916	33191	
4998	0	32572	32838	
4999	0	32416	32488	
5000	0	32464	32192	
5001	0	32656	32209	
5002	0	32740	32444	
5003	0	32808	32806	
5004	0	32900	32984	
5005	0	32920	32970	
5006	0	32936	32404	
5007	0	32776	32718	
5008	0	32792	32472	
5009	0	32860	32518	
5010	0	32870	32660	
5011	0	32834	32152	
5012	0	32872	31372	
5013	0	32804	31936	
5014	0	32782	33532	
5015	0	32776	33936	
5016	0	32732	33180	
5017	0	32820	33048	
5018	0	32804	33034	
5019	0	32808	33088	
5020	0	32828	32422	
5021	0	32928	31976	
5022	0	32808	33128	
5023	0	32942	33702	
5024	0	32884	33137	
5025	0	32798	32758	
5026	0	32612	32708	
5027	0	32500	32542	
5028	0	32628	33306	
5029	0	32834	33164	
5030	0	32928	33016	
5031	0	32976	32940	
5032	0	33072	32826	
5033	0	33104	32514	
5034	0	33046	32366	
5035	0	32996	32584	
5036	0	32820	32822	
5037	0	32768	32775	
5038	0	32802	32678	
5039	0	32712	32616	
5040	0	32792	32692	
5041	0	32696	32555	
5042	0	32652	32580	
5043	0	32576	32578	
5044	0	32752	32944	
5045	0	32856	32228	
5046	0	32914	32062	
5047	0	32786	32892	
5048	0	32768	32948	
5049	0	32880	33108	
5050	0	32868	32244	
5051	0	32912	32128	
5052	0	32832	32740	
5053	0	32884	33712	
5054	0	32854	32614	
5055	0	33100	31756	
5056	0	31954	32392	
5057	0	31954	32974	
5058	0	32552	33068	
5059	0	33252	34290	
5060	0	33492	35190	
5061	0	33284	33972	
5062	0	33164	32572	
5063	0	32784	32304	
5064	0	32674	32316	
5065	0	32518	32198	
5066	0	32524	32056	
5067	0	32466	32092	
5068	0	32652	32292	
5069	0	32664	32836	
5070	0	32644	32696	
5071	0	32856	32604	
5072	0	32732	32464	
5073	0	32812	32480	
5074	0	32916	32580	
5075	0	33048	32754	
5076	0	32928	33164	
5077	0	32928	32246	
5078	0	32844	32550	
5079	0	32840	32574	
5080	0	32840	33448	
5081	0	32738	33296	
5082	0	32782	33054	
5083	0	32782	32858	
5084	0	32734	32484	
5085	0	32840	32948	
5086	0	32994	32683	
5087	0	32992	33358	
5088	0	32942	32772	
5089	0	32866	32670	
5090	0	32798	32284	
5091	0	32846	32886	
5092	0	32840	32866	
5093	0	33012	32428	
5094	0	32860	32564	
5095	0	32836	32508	
5096	0	32918	33046	
5097	0	32696	32600	
5098	0	32824	33156	
5099	0	32798	33010	
5100	0	32840	33020	
5101	0	32825	32452	
5102	0	32840	32964	
5103	0	32720	32780	
5104	0	32714	32196	
5105	0	32776	32884	
5106	0	32736	33252	
5107	0	32800	33488	
5108	0	32792	33319	
5109	0	32686	32568	
5110	0	32728	32432	
5111	0	32848	32870	
5112	0	32706	32775	
5113	0	32888	32672	
5114	0	32984	32570	
5115	0	32912	32456	
5116	0	32852	32519	
5117	0	32894	32720	
5118	0	32900	32704	
5119	0	32856	32806	
5120	0	32772	32528	
5121	0	32824	32814	
5122	0	32882	32738	
5123	0	32860	32608	
5124	0	32704	32494	
5125	0	32660	32426	
5126	0	32710	32542	
5127	0	32834	32142	
5128	0	32740	32842	
5129	0	32692	32980	
5130	0	32840	32754	
5131	0	33024	33120	
5132	0	32906	33198	
5133	0	32924	33560	
5134	0	32968	33550	
5135	0	32836	33122	
5136	0	32820	32272	
5137	0	32676	33454	
5138	0	32652	33538	
5139	0	32624	33126	
5140	0	32772	32424	
5141	0	32770	32282	
5142	0	32746	32348	
5143	0	32710	32607	
5144	0	32682	32532	
5145	0	32716	32742	
5146	0	32916	32968	
5147	0	32940	32886	
5148	0	32848	32680	
5149	0	32908	32620	
5150	0	32770	32599	
5151	0	32760	32556	
5152	0	32700	32690	
5153	0	32784	32732	
5154	0	32806	32864	
5155	0	32840	32592	
5156	0	32884	32548	
5157	0	32820	32608	
5158	0	32766	32802	
5159	0	32778	32948	
5160	0	32720	32626	
5161	0	32678	32757	
5162	0	32716	32647	
5163	0	32674	32994	
5164	0	32712	33002	
5165	0	32776	32670	
5166	0	32888	32918	
5167	0	32996	33020	
5168	0	33028	32565	
5169	0	32904	32316	
5170	0	33108	31808	
5171	0	33032	31640	
5172	0	33070	32808	
5173	0	33010	33002	
5174	0	32988	32838	
5175	0	32808	33184	
5176	0	32660	32872	
5177	0	32554	33154	
5178	0	32528	32722	
5179	0	32644	33287	
5180	0	32565	33494	
5181	0	32570	33416	
5182	0	32720	32888	
5183	0	32836	32514	
5184	0	32682	32366	
5185	0	32592	32372	
5186	0	32584	32410	
5187	0	32696	32495	
5188	0	32800	32512	
5189	0	32936	32718	
5190	0	32868	32602	
5191	0	32808	32716	
5192	0	32892	32672	
5193	0	32852	32742	
5194	0	32852	32736	
5195	0	32864	32692	
5196	0	32804	32775	
5197	0	32758	32846	
5198	0	32696	32914	
5199	0	32696	32842	
5200	0	32660	32764	
5201	0	32920	32908	
5202	0	33072	32860	
5203	0	33224	32772	
5204	0	33200	32284	
5205	0	33214	32056	
5206	0	33170	32966	
5207	0	33184	33592	
5208	0	33010	33328	
5209	0	32996	32752	
5210	0	32928	33287	
5211	0	32802	33568	
5212	0	32896	33340	
5213	0	32994	32994	
5214	0	32854	32650	
5215	0	32700	32640	
5216	0	32582	32814	
5217	0	32592	32726	
5218	0	32636	32536	
5219	0	32714	32732	
5220	0	32696	32564	
5221	0	32612	32615	
5222	0	32728	32668	
5223	0	32812	32716	
5224	0	32792	32714	
5225	0	32648	32678	
5226	0	32724	32714	
5227	0	32886	32652	
5228	0	32810	32720	
5229	0	32804	32540	
5230	0	33008	32519	
5231	0	33048	32548	
5232	0	32744	32903	
5233	0	32560	32906	
5234	0	32664	32732	
5235	0	32864	32894	
5236	0	32908	32860	
5237	0	32924	32838	
5238	0	32866	32518	
5239	0	32776	32824	
5240	0	32696	32720	
5241	0	32753	32626	
5242	0	32796	32714	
5243	0	32698	32866	
5244	0	32724	33320	
5245	0	32796	33112	
5246	0	32724	32868	
5247	0	32702	32548	
5248	0	32888	32766	
5249	0	32844	32784	
5250	0	32776	32744	
5251	0	32800	32766	
5252	0	32752	32666	
5253	0	32808	32768	
5254	0	32714	32624	
5255	0	32816	32692	
5256	0	32896	32682	
5257	0	32816	32756	
5258	0	32716	32684	
5259	0	32746	32784	
5260	0	32862	32754	
5261	0	32816	32775	
5262	0	32702	32814	
5263	0	32736	32762	
5264	0	32780	32775	
5265	0	32844	32820	
5266	0	32766	32812	
5267	0	32784	32782	
5268	0	32824	32728	
5269	0	32872	32758	
5270	0	32832	32542	
5271	0	32792	32596	
5272	0	32776	32454	
5273	0	32910	32774	
5274	0	32904	32938	
5275	0	32804	32870	
5276	0	32804	32900	
5277	0	32918	32904	
5278	0	32884	32774	
5279	0	32740	32788	
5280	0	32898	32676	
5281	0	32900	32792	
5282	0	32904	32748	
5283	0	32830	32872	
5284	0	32804	32664	
5285	0	32798	32714	
5286	0	32761	32676	
5287	0	32828	32694	
5288	0	32826	32728	
5289	0	32800	32756	
5290	0	32932	32834	
5291	0	32852	32864	
5292	0	32800	32914	
5293	0	32836	32798	
5294	0	32808	32732	
5295	0	32804	32724	
5296	0	32880	32540	
5297	0	32936	32302	
5298	0	32800	32950	
5299	0	32798	32864	
5300	0	32800	32512	
5301	0	32756	32540	
5302	0	32780	32842	
5303	0	32932	32696	
5304	0	32974	32788	
5305	0	32922	32626	
5306	0	32764	32636	
5307	0	32684	32692	
5308	0	32756	32990	
5309	0	32900	33190	
5310	0	32840	32996	
5311	0	32870	32868	
5312	0	32868	32700	
5313	0	32774	32822	
5314	0	32764	32962	
5315	0	32868	32684	
5316	0	32832	32774	
5317	0	32858	32682	
5318	0	32848	32668	
5319	0	32836	32644	
5320	0	32924	32724	
5321	0	32868	32647	
5322	0	32796	32760	
5323	0	32858	32662	
5324	0	32806	32775	
5325	0	32778	32740	
5326	0	32804	32660	
5327	0	32844	32688	
5328	0	32802	32772	
5329	0	32796	32956	
5330	0	32774	32884	
5331	0	32768	32858	
5332	0	32744	32764	
5333	0	32784	32746	
5334	0	32760	32700	
5335	0	32800	32912	
5336	0	32892	32770	
5337	0	32792	32778	
5338	0	32728	32734	
5339	0	32732	32786	
5340	0	32826	32806	
5341	0	32789	32668	
5342	0	32782	32806	
5343	0	32736	32708	
5344	0	32668	32738	
5345	0	32726	32766	
5346	0	32752	32796	
5347	0	32740	32708	
5348	0	32764	32838	
5349	0	32874	32888	
5350	0	32862	32820	
5351	0	32804	32554	
5352	0	32836	32576	
5353	0	32852	32855	
5354	0	32864	33008	
5355	0	32828	33052	
5356	0	32802	32908	
5357	0	32796	32836	
5358	0	32826	32906	
5359	0	32764	32752	
5360	0	32744	32812	
5361	0	32864	32736	
5362	0	32748	32810	
5363	0	32744	32775	
5364	0	32744	32744	
5365	0	32744	32834	
5366	0	32780	32754	
5367	0	32764	32900	
5368	0	32828	32708	
5369	0	32800	32676	
5370	0	32838	32688	
5371	0	32860	32772	
5372	0	32824	32718	
5373	0	32824	32846	
5374	0	32776	32852	
5375	0	32804	32684	
5376	0	32744	32696	
5377	0	32758	32604	
5378	0	32776	32816	
5379	0	32764	32644	
5380	0	32740	32759	
5381	0	32838	32684	
5382	0	32772	32720	
5383	0	32868	32732	
5384	0	32806	32784	
5385	0	32776	32764	
5386	0	32782	32700	
5387	0	32740	32834	
5388	0	32736	32868	
5389	0	32700	32774	
5390	0	32832	32796	
5391	0	32820	32680	
5392	0	32868	32724	
5393	0	32842	32798	
5394	0	32876	32849	
5395	0	32812	32682	
5396	0	32844	32860	
5397	0	32880	32869	
5398	0	32832	32830	
5399	0	32920	32796	
5400	0	32812	32788	
5401	0	32736	32878	
5402	0	32556	32770	
5403	0	32650	32738	
5404	0	32876	32688	
5405	0	32952	32708	
5406	0	32888	32696	
5407	0	32768	32788	
5408	0	32746	32732	
5409	0	32812	32808	
5410	0	32584	32812	
5411	0	32564	32812	
5412	0	32764	32769	
5413	0	33016	32588	
5414	0	33084	32630	
5415	0	33066	33030	
5416	0	33040	33204	
5417	0	33028	32866	
5418	0	32948	32952	
5419	0	32768	32670	
5420	0	32728	32856	
5421	0	32588	32844	
5422	0	32644	32964	
5423	0	32760	33110	
5424	0	32740	32962	
5425	0	32752	32858	
5426	0	32724	32712	
5427	0	32852	32730	
5428	0	32852	32742	
5429	0	32788	32708	
5430	0	32788	32700	
5431	0	32804	32658	
5432	0	32844	32824	
5433	0	32752	32700	
5434	0	32800	32724	
5435	0	32784	32620	
5436	0	32878	32656	
5437	0	32848	32689	
5438	0	32844	32808	
5439	0	32792	32750	
5440	0	32718	32916	
5441	0	32740	32964	
5442	0	32780	32846	
5443	0	32752	32660	
5444	0	32752	32744	
5445	0	32864	32888	
5446	0	32948	32758	
5447	0	32910	32736	
5448	0	32796	32737	
5449	0	32804	32836	
5450	0	32922	32758	
5451	0	32872	32788	
5452	0	32936	32744	
5453	0	32780	32550	
5454	0	32860	32634	
5455	0	32684	32692	
5456	0	32800	32648	
5457	0	32824	32836	
5458	0	32780	32938	
5459	0	32804	32586	
5460	0	32772	32820	
5461	0	32738	32754	
5462	0	32684	32792	
5463	0	32692	32800	
5464	0	32774	32764	
5465	0	32812	33052	
5466	0	32896	32732	
5467	0	32814	32656	
5468	0	32810	32784	
5469	0	32826	32816	
5470	0	32804	32850	
5471	0	32820	32736	
5472	0	32862	32866	
5473	0	32812	32872	
5474	0	32782	32860	
5475	0	32728	32848	
5476	0	32772	32900	
5477	0	32884	32676	
5478	0	32816	32838	
5479	0	32780	32796	
5480	0	32804	32775	
5481	0	32778	32616	
5482	0	32808	32756	
5483	0	32810	32634	
5484	0	32828	32672	
5485	0	32872	32774	
5486	0	32800	32572	
5487	0	32824	32668	
5488	0	32850	32700	
5489	0	32684	32624	
5490	0	32760	32582	
5491	0	32756	32682	
5492	0	32752	32616	
5493	0	32780	32454	
5494	0	32796	32368	
5495	0	32780	32896	
5496	0	32912	32806	
5497	0	32874	33008	
5498	0	32872	32918	
5499	0	32762	32956	
5500	0	32784	32968	
5501	0	32788	32750	
5502	0	32756	32708	
5503	0	32836	32744	
5504	0	32810	32708	
5505	0	32816	32734	
5506	0	32840	32836	
5507	0	32832	32710	
5508	0	32832	32774	
5509	0	32848	32640	
5510	0	32780	32750	
5511	0	32856	32836	
5512	0	32954	32760	
5513	0	32858	32744	
5514	0	32796	32798	
5515	0	32828	32716	
5516	0	32788	32772	
5517	0	32794	32740	
5518	0	32832	32696	
5519	0	32930	32596	
5520	0	32736	32558	
5521	0	32720	32586	
5522	0	32648	32622	
5523	0	32684	32684	
5524	0	32772	32682	
5525	0	32696	32628	
5526	0	32744	32812	
5527	0	32832	32964	
5528	0	32872	32846	
5529	0	32868	32900	
5530	0	32836	32928	
5531	0	32884	32862	
5532	0	32872	32718	
5533	0	32808	32552	
5534	0	32886	32656	
5535	0	32708	32696	
5536	0	32752	32670	
5537	0	32836	32640	
5538	0	32762	32644	
5539	0	32736	32652	
5540	0	32780	32852	
5541	0	32752	32780	
5542	0	32752	32930	
5543	0	32740	32774	
5544	0	32860	32740	
5545	0	32892	32514	
5546	0	32894	32580	
5547	0	32816	32775	
5548	0	32828	33020	
5549	0	32902	33118	
5550	0	32820	32804	
5551	0	32812	32743	
5552	0	32832	32670	
5553	0	32958	32804	
5554	0	32868	32672	
5555	0	32832	32764	
5556	0	32862	32560	
5557	0	32740	32800	
5558	0	32736	32758	
5559	0	32740	32820	
5560	0	32772	32736	
5561	0	32760	32817	
5562	0	32848	32768	
5563	0	32776	32858	
5564	0	32868	32666	
5565	0	32770	32864	
5566	0	32818	32772	
5567	0	32832	32708	
5568	0	32820	32824	
5569	0	32824	32904	
5570	0	32772	32720	
5571	0	32778	32742	
5572	0	32728	32704	
5573	0	32838	32808	
5574	0	32856	32734	
5575	0	32820	32840	
5576	0	32864	32832	
5577	0	32976	32760	
5578	0	32974	32784	
5579	0	32780	32710	
5580	0	32784	32804	
5581	0	32864	32686	
5582	0	32810	32606	
5583	0	32812	32460	
5584	0	32780	32856	
5585	0	32776	32864	
5586	0	32778	32646	
5587	0	32800	32666	
5588	0	32832	32988	
5589	0	32844	33084	
5590	0	32788	32998	
5591	0	32796	32572	
5592	0	32792	32572	
5593	0	32784	32956	
5594	0	32808	32996	
5595	0	32828	32964	
5596	0	32820	32796	
5597	0	32841	32796	
5598	0	32836	32736	
5599	0	32792	32876	
5600	0	32772	32822	
5601	0	32800	32814	
5602	0	32772	32808	
5603	0	32728	32712	
5604	0	32776	32640	
5605	0	32756	32800	
5606	0	32800	32698	
5607	0	32836	32793	
5608	0	32776	32740	
5609	0	32866	32824	
5610	0	32852	32742	
5611	0	32806	32858	
5612	0	32798	32702	
5613	0	32884	32868	
5614	0	32832	32844	
5615	0	32836	32608	
5616	0	32906	32578	
5617	0	32912	32322	
5618	0	32836	32388	
5619	0	32748	32822	
5620	0	32860	32992	
5621	0	32834	33076	
5622	0	32794	33142	
5623	0	32704	32903	
5624	0	32778	32786	
5625	0	32792	32832	
5626	0	32786	32874	
5627	0	32840	32712	
5628	0	32840	32647	
5629	0	32796	32632	
5630	0	32836	32790	
5631	0	32804	32920	
5632	0	32804	32780	
5633	0	32832	32764	
5634	0	32880	32636	
5635	0	32816	32775	
5636	0	32778	32806	
5637	0	32836	32768	
5638	0	32782	32680	
5639	0	32820	32692	
5640	0	32792	32732	
5641	0	32800	32644	
5642	0	32780	32775	
5643	0	32788	32694	
5644	0	32820	32756	
5645	0	32836	32720	
5646	0	32860	32830	
5647	0	32872	32853	
5648	0	32856	32832	
5649	0	32784	32728	
5650	0	32798	32704	
5651	0	32750	32862	
5652	0	32796	32548	
5653	0	32868	32452	
5654	0	32868	32760	
5655	0	32816	32578	
5656	0	32816	32348	
5657	0	32770	32966	
5658	0	32800	32624	
5659	0	32838	33104	
5660	0	32810	33232	
5661	0	32696	33136	
5662	0	32760	32976	
5663	0	32760	32984	
5664	0	32832	32720	
5665	0	32780	32810	
5666	0	32820	32844	
5667	0	32810	32866	
5668	0	32778	32790	
5669	0	32860	32738	
5670	0	32782	32708	
5671	0	32852	32766	
5672	0	32788	32656	
5673	0	32835	32678	
5674	0	32816	32642	
5675	0	32862	32674	
5676	0	32828	32604	
5677	0	32870	32788	
5678	0	32792	32822	
5679	0	32832	32678	
5680	0	32838	32868	
5681	0	32670	32750	
5682	0	32744	32812	
5683	0	32800	32702	
5684	0	32864	32782	
5685	0	32817	32696	
5686	0	32820	32736	
5687	0	32812	32788	
5688	0	32792	32790	
5689	0	32796	32828	
5690	0	32856	32868	
5691	0	32876	32844	
5692	0	32922	32816	
5693	0	32802	32767	
5694	0	32848	32850	
5695	0	32838	32698	
5696	0	32890	32782	
5697	0	32836	32656	
5698	0	32832	32768	
5699	0	32840	32698	
5700	0	32794	32731	
5701	0	32820	32730	
5702	0	32862	32794	
5703	0	32740	32888	
5704	0	32760	32908	
5705	0	32882	32902	
5706	0	32882	32840	
5707	0	32736	32788	
5708	0	32692	32762	
5709	0	32696	32672	
5710	0	32760	32884	
5711	0	32680	32748	
5712	0	32744	32774	
5713	0	32838	32732	
5714	0	32860	32748	
5715	0	32812	32715	
5716	0	32904	32762	
5717	0	32778	32678	
5718	0	32864	32756	
5719	0	32828	32670	
5720	0	32786	32756	
5721	0	32816	32652	
5722	0	32800	32784	
5723	0	32824	32756	
5724	0	32776	32774	
5725	0	32808	32706	
5726	0	32888	32688	
5727	0	32818	32760	
5728	0	32812	32676	
5729	0	32878	32709	
5730	0	32848	32612	
5731	0	32834	32744	
5732	0	32812	32624	
5733	0	32816	32775	
5734	0	32810	32672	
5735	0	32808	32852	
5736	0	32856	32782	
5737	0	32792	33028	
5738	0	32828	32752	
5739	0	32862	32820	
5740	0	32832	32888	
5741	0	32794	32972	
5742	0	32842	32886	
5743	0	32766	32856	
5744	0	32804	32767	
5745	0	32834	32670	
5746	0	32836	32752	
5747	0	32904	32734	
5748	0	32864	32736	
5749	0	32802	32714	
5750	0	32852	32752	
5751	0	32800	32712	
5752	0	32784	32810	
5753	0	32761	32706	
5754	0	32760	32780	
5755	0	32804	32674	
5756	0	32816	32720	
5757	0	32768	32647	
5758	0	32760	32756	
5759	0	32872	32692	
5760	0	32772	32884	
5761	0	32848	32870	
5762	0	32804	32794	
5763	0	32824	32800	
5764	0	32816	32796	
5765	0	32810	32862	
5766	0	32836	32796	
5767	0	32816	32746	
5768	0	32824	32768	
5769	0	32796	32666	
5770	0	32752	32752	
5771	0	32812	32744	
5772	0	32854	32706	
5773	0	32804	32830	
5774	0	32740	33072	
5775	0	32848	33160	
5776	0	32830	32784	
5777	0	32840	32792	
5778	0	32856	32732	
5779	0	32798	32964	
5780	0	32768	32830	
5781	0	32724	32896	
5782	0	32710	32652	
5783	0	32824	32775	
5784	0	32816	32628	
5785	0	32784	32744	
5786	0	32824	32782	
5787	0	32792	32768	
5788	0	32832	32756	
5789	0	32832	32826	
5790	0	32824	32818	
5791	0	32864	32676	
5792	0	32828	32772	
5793	0	32816	32720	
5794	0	32812	32756	
5795	0	32768	32814	
5796	0	32802	32806	
5797	0	32821	32768	
5798	0	32832	32664	
5799	0	32796	32808	
5800	0	32736	32692	
5801	0	32828	32788	
5802	0	32860	32692	
5803	0	32792	32792	
5804	0	32888	32776	
5805	0	32836	32796	
5806	0	32810	32650	
5807	0	32890	32708	
5808	0	32864	32868	
5809	0	32852	32856	
5810	0	32802	32896	
5811	0	32834	32772	
5812	0	32808	32858	
5813	0	32860	32700	
5814	0	32832	32761	
5815	0	32772	32710	
5816	0	32876	32718	
5817	0	32880	32748	
5818	0	32772	32768	
5819	0	32834	32724	
5820	0	32802	32784	
5821	0	32784	32716	
5822	0	32752	32824	
5823	0	32838	32796	
5824	0	32756	32618	
5825	0	32778	32708	
5826	0	32844	32682	
5827	0	32852	32792	
5828	0	32840	32784	
5829	0	32848	32804	
5830	0	32840	32712	
5831	0	32852	32806	
5832	0	32828	32802	
5833	0	32816	32678	
5834	0	32828	32828	
5835	0	32856	32750	
5836	0	32852	32840	
5837	0	32762	32848	
5838	0	32710	32754	
5839	0	32856	32706	
5840	0	32788	32796	
5841	0	32712	32822	
5842	0	32792	32706	
5843	0	32854	32752	
5844	0	32840	32850	
5845	0	32832	32954	
5846	0	32826	32924	
5847	0	32840	32788	
5848	0	32840	32750	
5849	0	32834	32810	
5850	0	32904	32676	
5851	0	32812	32775	
5852	0	32842	32720	
5853	0	32836	32764	
5854	0	32816	32684	
5855	0	32844	32704	
5856	0	32900	32846	
5857	0	32806	32680	
5858	0	32870	32766	
5859	0	32820	32720	
5860	0	32768	32784	
5861	0	32812	32692	
5862	0	32800	32796	
5863	0	32828	32694	
5864	0	32828	32728	
5865	0	32824	32702	
5866	0	32836	32764	
5867	0	32772	32838	
5868	0	32732	32768	
5869	0	32816	32804	
5870	0	32860	32788	
5871	0	32870	32800	
5872	0	32872	32742	
5873	0	32868	32775	
5874	0	32912	32724	
5875	0	32749	32818	
5876	0	32830	32698	
5877	0	32792	32812	
5878	0	32806	32710	
5879	0	32796	32844	
5880	0	32780	32792	
5881	0	32828	32721	
5882	0	32782	32714	
5883	0	32796	32604	
5884	0	32864	32636	
5885	0	32824	32744	
5886	0	32764	32752	
5887	0	32848	32692	
5888	0	32750	32886	
5889	0	32820	32775	
5890	0	32764	32618	
5891	0	32836	32820	
5892	0	32786	32816	
5893	0	32816	32788	
5894	0	32802	32786	
5895	0	32780	32704	
5896	0	32820	32774	
5897	0	32792	32752	
5898	0	32822	32650	
5899	0	32804	32820	
5900	0	32872	32732	
5901	0	32844	32774	
5902	0	32768	32746	
5903	0	32704	32711	
5904	0	32816	32884	
5905	0	32796	32696	
5906	0	32796	32800	
5907	0	32768	32768	
5908	0	32778	32900	
5909	0	32824	32790	
5910	0	32778	32748	
5911	0	32868	32804	
5912	0	32788	32752	
5913	0	32864	32748	
5914	0	32860	32760	
5915	0	32828	32718	
5916	0	32900	32758	
5917	0	32860	32740	
5918	0	32780	32760	
5919	0	32856	32770	
5920	0	32782	32640	
5921	0	32800	32708	
5922	0	32758	32744	
5923	0	32800	33012	
5924	0	32770	32824	
5925	0	32794	32890	
5926	0	32784	32792	
5927	0	32784	32894	
5928	0	32780	32970	
5929	0	32834	32874	
5930	0	32784	32896	
5931	0	32892	32903	
5932	0	32840	32748	
5933	0	32854	32872	
5934	0	32804	32896	
5935	0	32879	32788	
5936	0	32788	32752	
5937	0	32792	32640	
5938	0	32792	32834	
5939	0	32768	32748	
5940	0	32768	32726	
5941	0	32704	32734	
5942	0	32752	32768	
5943	0	32776	32896	
5944	0	32736	32764	
5945	0	32812	32854	
5946	0	32776	32880	
5947	0	32812	32782	
5948	0	32826	32734	
5949	0	32840	32742	
5950	0	32866	32856	
5951	0	32892	32820	
5952	0	32868	32838	
5953	0	32760	32712	
5954	0	32840	32880	
5955	0	32796	32684	
5956	0	32842	32868	
5957	0	32876	32744	
5958	0	32856	32798	
5959	0	32764	32774	
5960	0	32736	32762	
5961	0	32764	32690	
5962	0	32704	32697	
5963	0	32822	32792	
5964	0	32796	32806	
5965	0	32794	32642	
5966	0	32744	32750	
5967	0	32788	32752	
5968	0	32792	32636	
5969	0	32816	32752	
5970	0	32736	32660	
5971	0	32826	32788	
5972	0	32760	32714	
5973	0	32840	32830	
5974	0	32816	32876	
5975	0	32850	32916	
5976	0	32804	32828	
5977	0	32876	32696	
5978	0	32800	32682	
5979	0	32840	32614	
5980	0	32770	32712	
5981	0	32804	32696	
5982	0	32798	32682	
5983	0	32788	32784	
5984	0	32784	32656	
5985	0	32816	32768	
5986	0	32760	32652	
5987	0	32872	32762	
5988	0	32796	32744	
5989	0	32808	32902	
5990	0	32800	32744	
5991	0	32780	32760	
5992	0	32870	32696	
5993	0	32788	32774	
5994	0	32762	32654	
5995	0	32853	32752	
5996	0	32732	32734	
5997	0	32736	32832	
5998	0	32820	32758	
5999	0	32836	32836	
6000	0	32776	32896	
6001	0	32686	32908	
6002	0	32776	32860	
6003	0	32782	32852	
6004	0	32782	32716	
6005	0	32780	32830	
6006	0	32862	32744	
6007	0	32832	32764	
6008	0	32849	32680	
6009	0	32836	32700	
6010	0	32834	32744	
6011	0	32782	32804	
6012	0	32880	32714	
