# OpenSignals Text File Format. Version 1
# {"00:07:80:8C:0A:39": {"position": 0, "device": "biosignalsplux", "device name": "00:07:80:8C:0A:39", "device connection": "BTH00:07:80:8C:0A:39", "sampling rate": 1000, "resolution": [16, 16], "firmware version": 776, "comments": "", "keywords": "", "mode": 0, "sync interval": 2, "date": "2023-3-20", "time": "19:56:12.247", "channels": [1, 2], "sensor": ["EMG", "EMG"], "label": ["CH1", "CH2"], "column": ["nSeq", "DI", "CH1", "CH2"], "special": [{"SpO2": [80, 40, 5, 4, 3, 3]}, {"SpO2": [80, 40, 5, 4, 3, 3]}, {"SpO2": [80, 40, 5, 4, 3, 3]}, {"SpO2": [80, 40, 5, 4, 3, 3]}, {"SpO2": [80, 40, 5, 4, 3, 3]}, {"SpO2": [80, 40, 5, 4, 3, 3]}, {"SpO2": [80, 40, 5, 4, 3, 3]}, {"SpO2": [80, 40, 5, 4, 3, 3]}], "digital IO": [0, 1], "sleeve color": ["gray", "yellow"], "convertedValues": 0}}
# EndOfHeader
0	0	32872	32854	
1	0	32740	32884	
2	0	32756	32678	
3	0	32792	32758	
4	0	32856	32818	
5	0	32724	32746	
6	0	32784	32694	
7	0	32820	32654	
8	0	32840	32775	
9	0	32852	32634	
10	0	32848	32711	
11	0	32832	32628	
12	0	32816	32852	
13	0	32800	32799	
14	0	32772	32824	
15	0	32730	32724	
16	0	32770	32735	
17	0	32804	32726	
18	0	32794	32838	
19	0	32794	32864	
20	0	32814	32759	
21	0	32824	32860	
22	0	32788	32647	
23	0	32756	32815	
24	0	32800	32849	
25	0	32788	32772	
26	0	32844	32863	
27	0	32852	32802	
28	0	32810	32810	
29	0	32832	32650	
30	0	32792	32716	
31	0	32872	32724	
32	0	32874	32784	
33	0	32852	32700	
34	0	32776	32711	
35	0	32832	32716	
36	0	32796	32775	
37	0	32852	32887	
38	0	32788	32727	
39	0	32832	32786	
40	0	32789	32775	
41	0	32796	32820	
42	0	32848	32879	
43	0	32814	32719	
44	0	32824	32732	
45	0	32828	32730	
46	0	32808	32788	
47	0	32880	32767	
48	0	32824	32830	
49	0	32832	32844	
50	0	32870	32702	
51	0	32804	32762	
52	0	32826	32708	
53	0	32800	32764	
54	0	32858	32708	
55	0	32724	32652	
56	0	32790	32766	
57	0	32804	32743	
58	0	32807	32814	
59	0	32748	32847	
60	0	32868	32716	
61	0	32748	32812	
62	0	32864	32892	
63	0	32808	32648	
64	0	32756	32764	
65	0	32836	32820	
66	0	32848	32760	
67	0	32828	32756	
68	0	32808	32756	
69	0	32818	32847	
70	0	32814	32784	
71	0	32848	32706	
72	0	32792	32774	
73	0	32798	32758	
74	0	32742	32806	
75	0	32862	32804	
76	0	32860	32748	
77	0	32746	32758	
78	0	32840	32752	
79	0	32876	32807	
80	0	32774	32816	
81	0	32804	32701	
82	0	32824	32748	
83	0	32836	32836	
84	0	32814	32687	
85	0	32810	32758	
86	0	32730	32794	
87	0	32828	32722	
88	0	32756	32738	
89	0	32814	32746	
90	0	32792	32663	
91	0	32854	32752	
92	0	32798	32812	
93	0	32780	32740	
94	0	32820	32743	
95	0	32822	32772	
96	0	32836	32806	
97	0	32808	32775	
98	0	32804	32796	
99	0	32806	32903	
100	0	32732	32807	
101	0	32764	32647	
102	0	32858	32834	
103	0	32820	32772	
104	0	32821	32774	
105	0	32802	32795	
106	0	32834	32794	
107	0	32834	32612	
108	0	32816	32796	
109	0	32756	32790	
110	0	32816	32727	
111	0	32872	32814	
112	0	32914	32838	
113	0	32812	32852	
114	0	32792	32775	
115	0	32802	32688	
116	0	32782	32775	
117	0	32828	32680	
118	0	32748	32838	
119	0	32804	32736	
120	0	32768	32706	
121	0	32728	32830	
122	0	32842	32814	
123	0	32810	32676	
124	0	32812	32816	
125	0	32804	32762	
126	0	32836	32868	
127	0	32828	32738	
128	0	32800	32770	
129	0	32832	32822	
130	0	32828	32762	
131	0	32820	32663	
132	0	32716	32871	
133	0	32848	32775	
134	0	32814	32744	
135	0	32800	32796	
136	0	32808	32746	
137	0	32810	32656	
138	0	32812	32740	
139	0	32788	32852	
140	0	32812	32716	
141	0	32828	32770	
142	0	32806	32718	
143	0	32752	32822	
144	0	32788	32802	
145	0	32868	32647	
146	0	32860	32890	
147	0	32850	32888	
148	0	32800	32735	
149	0	32836	32775	
150	0	32810	32672	
151	0	32798	32768	
152	0	32786	32744	
153	0	32806	32708	
154	0	32808	32794	
155	0	32800	32692	
156	0	32752	32814	
157	0	32792	32752	
158	0	32854	32775	
159	0	32820	32771	
160	0	32746	32686	
161	0	32844	32820	
162	0	32830	32806	
163	0	32776	32712	
164	0	32854	32801	
165	0	32824	32846	
166	0	32802	32760	
167	0	32804	32808	
168	0	32860	32774	
169	0	32768	32816	
170	0	32802	32812	
171	0	32865	32640	
172	0	32876	32734	
173	0	32878	32732	
174	0	32812	32770	
175	0	32792	32836	
176	0	32842	32714	
177	0	32842	32839	
178	0	32789	32768	
179	0	32720	32722	
180	0	32868	32802	
181	0	32798	32850	
182	0	32814	32684	
183	0	32818	32812	
184	0	32764	32852	
185	0	32808	32702	
186	0	32788	32762	
187	0	32834	32826	
188	0	32812	32686	
189	0	32860	32786	
190	0	32852	32632	
191	0	32804	32742	
192	0	32842	32855	
193	0	32775	32662	
194	0	32820	32836	
195	0	32832	32880	
196	0	32798	32734	
197	0	32780	32806	
198	0	32882	32856	
199	0	32744	32728	
200	0	32878	32775	
201	0	32864	32646	
202	0	32776	32740	
203	0	32796	32790	
204	0	32816	32711	
205	0	32808	32754	
206	0	32752	32736	
207	0	32804	32746	
208	0	32798	32724	
209	0	32848	32702	
210	0	32822	32748	
211	0	32832	32754	
212	0	32864	32736	
213	0	32852	32862	
214	0	32752	32738	
215	0	32796	32762	
216	0	32820	32908	
217	0	32824	32794	
218	0	32814	32766	
219	0	32804	32856	
220	0	32752	32807	
221	0	32848	32772	
222	0	32832	32711	
223	0	32834	32687	
224	0	32808	32812	
225	0	32776	32760	
226	0	32748	32794	
227	0	32808	32910	
228	0	32802	32746	
229	0	32788	32744	
230	0	32818	32718	
231	0	32764	32782	
232	0	32804	32746	
233	0	32872	32692	
234	0	32876	32815	
235	0	32884	32815	
236	0	32798	32766	
237	0	32836	32788	
238	0	32830	32692	
239	0	32764	32826	
240	0	32804	32794	
241	0	32840	32775	
242	0	32768	32745	
243	0	32796	32679	
244	0	32856	32817	
245	0	32784	32740	
246	0	32808	32876	
247	0	32836	32820	
248	0	32784	32704	
249	0	32778	32698	
250	0	32822	32720	
251	0	32782	32828	
252	0	32830	32822	
253	0	32836	32727	
254	0	32856	32752	
255	0	32794	32716	
256	0	32798	32748	
257	0	32818	32828	
258	0	32830	32725	
259	0	32764	32768	
260	0	32852	32673	
261	0	32800	32802	
262	0	32824	32748	
263	0	32800	32804	
264	0	32780	32812	
265	0	32852	32842	
266	0	32808	32822	
267	0	32804	32742	
268	0	32828	32775	
269	0	32748	32696	
270	0	32836	32767	
271	0	32772	32670	
272	0	32852	32764	
273	0	32848	32679	
274	0	32832	32772	
275	0	32810	32746	
276	0	32798	32800	
277	0	32792	32792	
278	0	32846	32812	
279	0	32892	32740	
280	0	32852	32696	
281	0	32896	32710	
282	0	32808	32708	
283	0	32800	32842	
284	0	32812	32788	
285	0	32836	32800	
286	0	32778	32818	
287	0	32848	32720	
288	0	32814	32750	
289	0	32820	32814	
290	0	32772	32720	
291	0	32800	32815	
292	0	32852	32816	
293	0	32940	32826	
294	0	32844	32758	
295	0	32858	32702	
296	0	32848	32848	
297	0	32858	32804	
298	0	32802	32718	
299	0	32756	32734	
300	0	32764	32768	
301	0	32776	32772	
302	0	32764	32728	
303	0	32856	32806	
304	0	32824	32796	
305	0	32842	32656	
306	0	32768	32736	
307	0	32828	32816	
308	0	32804	32750	
309	0	32853	32786	
310	0	32824	32647	
311	0	32840	32822	
312	0	32806	32670	
313	0	32808	32808	
314	0	32812	32814	
315	0	32804	32700	
316	0	32714	32716	
317	0	32784	32692	
318	0	32810	32820	
319	0	32772	32862	
320	0	32804	32656	
321	0	32812	32812	
322	0	32860	32800	
323	0	32862	32766	
324	0	32796	32763	
325	0	32788	32694	
326	0	32742	32746	
327	0	32784	32682	
328	0	32792	32775	
329	0	32854	32790	
330	0	32804	32728	
331	0	32856	32743	
332	0	32766	32686	
333	0	32886	32848	
334	0	32820	32802	
335	0	32896	32744	
336	0	32772	32802	
337	0	32808	32848	
338	0	32804	32712	
339	0	32814	32726	
340	0	32900	32613	
341	0	32812	32839	
342	0	32784	32664	
343	0	32784	32758	
344	0	32784	32760	
345	0	32788	32775	
346	0	32776	32818	
347	0	32824	32828	
348	0	32760	32775	
349	0	32786	32686	
350	0	32816	32775	
351	0	32780	32756	
352	0	32792	32828	
353	0	32794	32816	
354	0	32784	32775	
355	0	32830	32738	
356	0	32834	32668	
357	0	32820	32718	
358	0	32744	32750	
359	0	32796	32836	
360	0	32800	32830	
361	0	32874	32740	
362	0	32870	32742	
363	0	32852	32640	
364	0	32840	32800	
365	0	32768	32871	
366	0	32816	32726	
367	0	32788	32688	
368	0	32796	32647	
369	0	32798	32820	
370	0	32876	32858	
371	0	32824	32668	
372	0	32840	32818	
373	0	32824	32750	
374	0	32864	32814	
375	0	32816	32838	
376	0	32864	32800	
377	0	32818	32712	
378	0	32748	32784	
379	0	32848	32808	
380	0	32810	32878	
381	0	32832	32775	
382	0	32814	32718	
383	0	32820	32712	
384	0	32811	32732	
385	0	32744	32670	
386	0	32832	32770	
387	0	32796	32796	
388	0	32862	32775	
389	0	32816	32794	
390	0	32821	32766	
391	0	32800	32775	
392	0	32756	32670	
393	0	32752	32750	
394	0	32828	32743	
395	0	32802	32871	
396	0	32800	32788	
397	0	32836	32752	
398	0	32760	32770	
399	0	32762	32692	
400	0	32868	32742	
401	0	32852	32712	
402	0	32772	32848	
403	0	32828	32732	
404	0	32806	32743	
405	0	32816	32814	
406	0	32756	32766	
407	0	32780	32740	
408	0	32744	32712	
409	0	32780	32815	
410	0	32792	32790	
411	0	32784	32716	
412	0	32846	32706	
413	0	32750	32657	
414	0	32818	32702	
415	0	32844	32802	
416	0	32840	32764	
417	0	32856	32807	
418	0	32856	32714	
419	0	32836	32720	
420	0	32832	32711	
421	0	32824	32766	
422	0	32832	32744	
423	0	32814	32846	
424	0	32836	32838	
425	0	32868	32828	
426	0	32834	32860	
427	0	32800	32679	
428	0	32808	32820	
429	0	32768	32700	
430	0	32838	32698	
431	0	32800	32748	
432	0	32828	32767	
433	0	32754	32656	
434	0	32804	32738	
435	0	32786	32761	
436	0	32872	32728	
437	0	32824	32726	
438	0	32812	32792	
439	0	32840	32830	
440	0	32856	32842	
441	0	32820	32836	
442	0	32776	32734	
443	0	32832	32775	
444	0	32860	32687	
445	0	32792	32711	
446	0	32772	32868	
447	0	32802	32682	
448	0	32860	32748	
449	0	32785	32703	
450	0	32796	32775	
451	0	32762	32775	
452	0	32816	32775	
453	0	32812	32826	
454	0	32868	32892	
455	0	32840	32814	
456	0	32840	32918	
457	0	32808	32762	
458	0	32756	32640	
459	0	32804	32740	
460	0	32836	32668	
461	0	32752	32844	
462	0	32868	32894	
463	0	32828	32742	
464	0	32760	32718	
465	0	32775	32704	
466	0	32820	32847	
467	0	32880	32798	
468	0	32840	32748	
469	0	32760	32791	
470	0	32812	32775	
471	0	32864	32694	
472	0	32804	32822	
473	0	32757	32804	
474	0	32802	32672	
475	0	32820	32754	
476	0	32848	32815	
477	0	32810	32640	
478	0	32844	32762	
479	0	32816	32659	
480	0	32775	32900	
481	0	32828	32872	
482	0	32876	32756	
483	0	32904	32775	
484	0	32836	32740	
485	0	32788	32844	
486	0	32784	32812	
487	0	32858	32756	
488	0	32748	32766	
489	0	32840	32802	
490	0	32832	32834	
491	0	32850	32806	
492	0	32802	32754	
493	0	32828	32744	
494	0	32810	32760	
495	0	32806	32702	
496	0	32766	32774	
497	0	32784	32854	
498	0	32790	32612	
499	0	32860	32759	
500	0	32796	32758	
501	0	32754	32647	
502	0	32832	32796	
503	0	32776	32760	
504	0	32776	32830	
505	0	32834	32816	
506	0	32826	32684	
507	0	32868	32807	
508	0	32754	32840	
509	0	32800	32679	
510	0	32844	32822	
511	0	32822	32668	
512	0	32796	32798	
513	0	32796	32698	
514	0	32764	32754	
515	0	32834	32804	
516	0	32790	32750	
517	0	32780	32764	
518	0	32856	32756	
519	0	32816	32788	
520	0	32798	32724	
521	0	32808	32724	
522	0	32815	32868	
523	0	32830	32640	
524	0	32776	32732	
525	0	32828	32758	
526	0	32814	32750	
527	0	32824	32880	
528	0	32824	32804	
529	0	32828	32746	
530	0	32896	32855	
531	0	32788	32752	
532	0	32838	32818	
533	0	32808	32828	
534	0	32832	32762	
535	0	32850	32742	
536	0	32881	32916	
537	0	32768	32854	
538	0	32768	32703	
539	0	32716	32711	
540	0	32752	32748	
541	0	32720	32692	
542	0	32716	32630	
543	0	32726	32569	
544	0	32732	32668	
545	0	32724	32724	
546	0	32724	32622	
547	0	32730	32630	
548	0	32740	32726	
549	0	32756	32576	
550	0	32712	32665	
551	0	32762	32734	
552	0	32736	32615	
553	0	32756	32705	
554	0	32766	32770	
555	0	32740	32742	
556	0	32768	32744	
557	0	32790	32686	
558	0	32872	32759	
559	0	32880	32676	
560	0	32844	32793	
561	0	32906	32600	
562	0	32912	32756	
563	0	32996	32830	
564	0	33062	32696	
565	0	33068	32879	
566	0	33160	33038	
567	0	33176	32987	
568	0	33188	33184	
569	0	33128	33255	
570	0	33072	33098	
571	0	32988	33158	
572	0	32900	33100	
573	0	32860	32966	
574	0	32820	32996	
575	0	32736	32860	
576	0	32704	32886	
577	0	32712	32790	
578	0	32772	32586	
579	0	32692	32591	
580	0	32736	32614	
581	0	32712	32510	
582	0	32650	32586	
583	0	32708	32758	
584	0	32660	32572	
585	0	32678	32711	
586	0	32632	32718	
587	0	32676	32646	
588	0	32776	32692	
589	0	32728	32830	
590	0	32728	32695	
591	0	32732	32728	
592	0	32768	32734	
593	0	32740	32583	
594	0	32786	32743	
595	0	32868	32764	
596	0	32856	32806	
597	0	32912	32732	
598	0	32844	32798	
599	0	32896	32845	
600	0	32808	32692	
601	0	32878	32750	
602	0	32801	32836	
603	0	32856	32743	
604	0	32814	32822	
605	0	32864	32788	
606	0	32804	32836	
607	0	32832	32760	
608	0	32800	32753	
609	0	32836	32842	
610	0	32844	32832	
611	0	32820	32676	
612	0	32740	32869	
613	0	32844	32775	
614	0	32740	32687	
615	0	32868	32756	
616	0	32784	32774	
617	0	32784	32786	
618	0	32836	32775	
619	0	32820	32804	
620	0	32804	32760	
621	0	32790	32728	
622	0	32834	32836	
623	0	32832	32744	
624	0	32832	32774	
625	0	32832	32727	
626	0	32828	32842	
627	0	32842	32720	
628	0	32772	32830	
629	0	32860	32708	
630	0	32740	32807	
631	0	32768	32767	
632	0	32852	32734	
633	0	32794	32707	
634	0	32880	32822	
635	0	32775	32718	
636	0	32836	32798	
637	0	32840	32718	
638	0	32830	32804	
639	0	32792	32764	
640	0	32796	32766	
641	0	32804	32743	
642	0	32826	32774	
643	0	32804	32804	
644	0	32820	32708	
645	0	32816	32798	
646	0	32790	32788	
647	0	32834	32688	
648	0	32832	32732	
649	0	32814	32810	
650	0	32840	32836	
651	0	32860	32694	
652	0	32868	32797	
653	0	32808	32775	
654	0	32764	32764	
655	0	32724	32850	
656	0	32800	32798	
657	0	32780	32692	
658	0	32812	32748	
659	0	32786	32820	
660	0	32836	32720	
661	0	32812	32742	
662	0	32888	32740	
663	0	32852	32680	
664	0	32894	32812	
665	0	32816	32775	
666	0	32804	32766	
667	0	32752	32692	
668	0	32780	32863	
669	0	32776	32786	
670	0	32828	32775	
671	0	32844	32828	
672	0	32832	32882	
673	0	32780	32775	
674	0	32778	32818	
675	0	32816	32724	
676	0	32872	32870	
677	0	32878	32774	
678	0	32806	32716	
679	0	32770	32692	
680	0	32776	32884	
681	0	32760	32664	
682	0	32800	32743	
683	0	32808	32620	
684	0	32764	32752	
685	0	32816	32841	
686	0	32784	32743	
687	0	32812	32800	
688	0	32840	32750	
689	0	32860	32818	
690	0	32804	32772	
691	0	32788	32760	
692	0	32804	32800	
693	0	32786	32720	
694	0	32860	32788	
695	0	32836	32792	
696	0	32760	32736	
697	0	32812	32743	
698	0	32798	32750	
699	0	32792	32828	
700	0	32804	32800	
701	0	32764	32652	
702	0	32824	32796	
703	0	32800	32768	
704	0	32808	32796	
705	0	32716	32762	
706	0	32860	32720	
707	0	32808	32667	
708	0	32880	32750	
709	0	32816	32706	
710	0	32804	32802	
711	0	32834	32892	
712	0	32832	32873	
713	0	32806	32728	
714	0	32772	32824	
715	0	32796	32750	
716	0	32756	32754	
717	0	32736	32740	
718	0	32808	32714	
719	0	32872	32731	
720	0	32804	32652	
721	0	32810	32740	
722	0	32872	32732	
723	0	32862	32748	
724	0	32814	32712	
725	0	32760	32823	
726	0	32784	32680	
727	0	32764	32775	
728	0	32784	32772	
729	0	32858	32754	
730	0	32784	32704	
731	0	32832	32724	
732	0	32816	32852	
733	0	32834	32708	
734	0	32840	32775	
735	0	32738	32775	
736	0	32806	32862	
737	0	32822	32772	
738	0	32816	32799	
739	0	32836	32829	
740	0	32844	32704	
741	0	32848	32746	
742	0	32848	32704	
743	0	32750	32748	
744	0	32816	32673	
745	0	32796	32871	
746	0	32784	32743	
747	0	32844	32702	
748	0	32756	32786	
749	0	32812	32831	
750	0	32832	32802	
751	0	32746	32693	
752	0	32912	32744	
753	0	32876	32734	
754	0	32832	32836	
755	0	32804	32750	
756	0	32856	32722	
757	0	32864	32843	
758	0	32783	32775	
759	0	32860	32702	
760	0	32818	32842	
761	0	32796	32772	
762	0	32792	32740	
763	0	32756	32646	
764	0	32828	32836	
765	0	32850	32796	
766	0	32806	32640	
767	0	32798	32806	
768	0	32841	32775	
769	0	32856	32702	
770	0	32820	32832	
771	0	32826	32756	
772	0	32828	32772	
773	0	32828	32756	
774	0	32860	32842	
775	0	32834	32719	
776	0	32804	32842	
777	0	32808	32775	
778	0	32796	32735	
779	0	32832	32730	
780	0	32744	32775	
781	0	32816	32743	
782	0	32852	32732	
783	0	32756	32864	
784	0	32880	32799	
785	0	32796	32772	
786	0	32754	32774	
787	0	32784	32818	
788	0	32784	32850	
789	0	32866	32676	
790	0	32824	32806	
791	0	32780	32694	
792	0	32804	32758	
793	0	32880	32694	
794	0	32808	32768	
795	0	32748	32794	
796	0	32817	32730	
797	0	32826	32810	
798	0	32788	32775	
799	0	32804	32738	
800	0	32848	32806	
801	0	32832	32740	
802	0	32824	32764	
803	0	32844	32788	
804	0	32780	32716	
805	0	32812	32775	
806	0	32868	32826	
807	0	32852	32708	
808	0	32868	32766	
809	0	32884	32710	
810	0	32830	32828	
811	0	32764	32766	
812	0	32744	32724	
813	0	32848	32854	
814	0	32785	32806	
815	0	32780	32732	
816	0	32816	32780	
817	0	32816	32768	
818	0	32740	32650	
819	0	32828	32719	
820	0	32788	32668	
821	0	32836	32686	
822	0	32844	32800	
823	0	32912	32774	
824	0	32804	32775	
825	0	32794	32796	
826	0	32842	32684	
827	0	32804	32828	
828	0	32810	32890	
829	0	32816	32742	
830	0	32776	32832	
831	0	32808	32831	
832	0	32854	32664	
833	0	32788	32808	
834	0	32816	32849	
835	0	32772	32702	
836	0	32826	32748	
837	0	32776	32891	
838	0	32796	32711	
839	0	32764	32718	
840	0	32830	32775	
841	0	32796	32711	
842	0	32718	32808	
843	0	32828	32767	
844	0	32780	32840	
845	0	32768	32788	
846	0	32792	32644	
847	0	32794	32788	
848	0	32808	32694	
849	0	32810	32684	
850	0	32832	32839	
851	0	32816	32702	
852	0	32796	32839	
853	0	32756	32640	
854	0	32836	32804	
855	0	32744	32802	
856	0	32772	32670	
857	0	32832	32838	
858	0	32842	32816	
859	0	32788	32758	
860	0	32820	32724	
861	0	32849	32768	
862	0	32778	32746	
863	0	32812	32724	
864	0	32842	32775	
865	0	32768	32719	
866	0	32880	32844	
867	0	32810	32756	
868	0	32812	32732	
869	0	32804	32801	
870	0	32824	32722	
871	0	32814	32806	
872	0	32810	32850	
873	0	32832	32881	
874	0	32821	32818	
875	0	32836	32702	
876	0	32836	32750	
877	0	32796	32700	
878	0	32768	32774	
879	0	32775	32724	
880	0	32825	32750	
881	0	32760	32736	
882	0	32840	32702	
883	0	32878	32788	
884	0	32826	32798	
885	0	32796	32752	
886	0	32764	32686	
887	0	32768	32716	
888	0	32814	32668	
889	0	32808	32796	
890	0	32764	32868	
891	0	32776	32710	
892	0	32892	32870	
893	0	32792	32844	
894	0	32776	32847	
895	0	32804	32716	
896	0	32772	32796	
897	0	32810	32628	
898	0	32742	32878	
899	0	32846	32804	
900	0	32836	32748	
901	0	32852	32736	
902	0	32816	32680	
903	0	32788	32844	
904	0	32816	32737	
905	0	32840	32880	
906	0	32804	32762	
907	0	32808	32712	
908	0	32844	32799	
909	0	32824	32732	
910	0	32800	32812	
911	0	32824	32668	
912	0	32784	32801	
913	0	32784	32764	
914	0	32744	32828	
915	0	32874	32704	
916	0	32786	32800	
917	0	32798	32758	
918	0	32788	32858	
919	0	32916	32800	
920	0	32860	32816	
921	0	32780	32800	
922	0	32766	32718	
923	0	32824	32804	
924	0	32812	32711	
925	0	32820	32782	
926	0	32816	32742	
927	0	32820	32742	
928	0	32808	32820	
929	0	32796	32714	
930	0	32844	32775	
931	0	32798	32722	
932	0	32854	32807	
933	0	32913	32748	
934	0	32794	32810	
935	0	32800	32734	
936	0	32834	32680	
937	0	32786	32711	
938	0	32842	32782	
939	0	32812	32764	
940	0	32788	32754	
941	0	32825	32758	
942	0	32774	32820	
943	0	32836	32775	
944	0	32804	32647	
945	0	32792	32824	
946	0	32828	32746	
947	0	32796	32807	
948	0	32774	32864	
949	0	32824	32720	
950	0	32736	32826	
951	0	32788	32640	
952	0	32824	32791	
953	0	32842	32820	
954	0	32844	32870	
955	0	32872	32834	
956	0	32816	32807	
957	0	32864	32724	
958	0	32840	32684	
959	0	32800	32780	
960	0	32812	32638	
961	0	32772	32740	
962	0	32806	32884	
963	0	32864	32775	
964	0	32824	32748	
965	0	32804	32764	
966	0	32788	32836	
967	0	32784	32735	
968	0	32776	32807	
969	0	32816	32772	
970	0	32742	32788	
971	0	32806	32772	
972	0	32849	32660	
973	0	32786	32798	
974	0	32824	32686	
975	0	32844	32828	
976	0	32804	32879	
977	0	32816	32838	
978	0	32736	32821	
979	0	32868	32704	
980	0	32776	32775	
981	0	32804	32656	
982	0	32836	32860	
983	0	32836	32732	
984	0	32796	32726	
985	0	32824	32628	
986	0	32718	32808	
987	0	32784	32792	
988	0	32810	32775	
989	0	32770	32839	
990	0	32832	32700	
991	0	32820	32842	
992	0	32768	32716	
993	0	32784	32820	
994	0	32844	32758	
995	0	32856	32670	
996	0	32814	32860	
997	0	32816	32704	
998	0	32816	32657	
999	0	32784	32758	
1000	0	32764	32826	
1001	0	32818	32762	
1002	0	32884	32796	
1003	0	32836	32760	
1004	0	32830	32698	
1005	0	32888	32762	
1006	0	32778	32728	
1007	0	32812	32735	
1008	0	32776	32718	
1009	0	32816	32690	
1010	0	32794	32772	
1011	0	32820	32884	
1012	0	32862	32786	
1013	0	32804	32820	
1014	0	32824	32722	
1015	0	32820	32842	
1016	0	32790	32708	
1017	0	32904	32810	
1018	0	32823	32719	
1019	0	32718	32792	
1020	0	32800	32684	
1021	0	32834	32756	
1022	0	32804	32852	
1023	0	32800	32735	
1024	0	32812	32775	
1025	0	32816	32806	
1026	0	32775	32668	
1027	0	32820	32812	
1028	0	32868	32692	
1029	0	32810	32860	
1030	0	32872	32832	
1031	0	32818	32744	
1032	0	32752	32844	
1033	0	32775	32802	
1034	0	32828	32720	
1035	0	32812	32764	
1036	0	32800	32826	
1037	0	32840	32700	
1038	0	32832	32711	
1039	0	32816	32774	
1040	0	32760	32703	
1041	0	32744	32756	
1042	0	32766	32798	
1043	0	32736	32752	
1044	0	32872	32806	
1045	0	32848	32811	
1046	0	32820	32666	
1047	0	32836	32712	
1048	0	32784	32806	
1049	0	32848	32852	
1050	0	32820	32830	
1051	0	32872	32785	
1052	0	32864	32798	
1053	0	32874	32828	
1054	0	32862	32703	
1055	0	32824	32808	
1056	0	32844	32774	
1057	0	32776	32714	
1058	0	32742	32871	
1059	0	32740	32790	
1060	0	32792	32750	
1061	0	32792	32772	
1062	0	32816	32729	
1063	0	32804	32823	
1064	0	32818	32818	
1065	0	32868	32672	
1066	0	32830	32800	
1067	0	32828	32839	
1068	0	32788	32796	
1069	0	32840	32766	
1070	0	32744	32700	
1071	0	32868	32843	
1072	0	32788	32820	
1073	0	32780	32726	
1074	0	32792	32752	
1075	0	32868	32800	
1076	0	32736	32761	
1077	0	32824	32732	
1078	0	32770	32738	
1079	0	32810	32766	
1080	0	32816	32766	
1081	0	32808	32822	
1082	0	32772	32775	
1083	0	32820	32752	
1084	0	32788	32858	
1085	0	32832	32730	
1086	0	32752	32848	
1087	0	32768	32822	
1088	0	32774	32705	
1089	0	32824	32775	
1090	0	32826	32752	
1091	0	32834	32839	
1092	0	32785	32826	
1093	0	32840	32702	
1094	0	32780	32760	
1095	0	32828	32708	
1096	0	32864	32804	
1097	0	32828	32737	
1098	0	32878	32848	
1099	0	32828	32796	
1100	0	32756	32676	
1101	0	32752	32775	
1102	0	32778	32836	
1103	0	32848	32686	
1104	0	32828	32775	
1105	0	32852	32728	
1106	0	32844	32738	
1107	0	32780	32812	
1108	0	32828	32709	
1109	0	32780	32727	
1110	0	32798	32688	
1111	0	32820	32816	
1112	0	32816	32812	
1113	0	32808	32740	
1114	0	32826	32720	
1115	0	32860	32660	
1116	0	32848	32812	
1117	0	32812	32800	
1118	0	32810	32828	
1119	0	32822	32769	
1120	0	32740	32710	
1121	0	32804	32804	
1122	0	32820	32852	
1123	0	32864	32740	
1124	0	32796	32825	
1125	0	32880	32792	
1126	0	32844	32684	
1127	0	32816	32764	
1128	0	32808	32696	
1129	0	32850	32792	
1130	0	32804	32739	
1131	0	32788	32919	
1132	0	32832	32842	
1133	0	32836	32715	
1134	0	32824	32768	
1135	0	32812	32720	
1136	0	32804	32686	
1137	0	32824	32802	
1138	0	32843	32828	
1139	0	32840	32772	
1140	0	32810	32790	
1141	0	32728	32764	
1142	0	32824	32638	
1143	0	32790	32696	
1144	0	32756	32692	
1145	0	32788	32796	
1146	0	32876	32714	
1147	0	32788	32836	
1148	0	32832	32744	
1149	0	32794	32746	
1150	0	32748	32775	
1151	0	32872	32708	
1152	0	32828	32772	
1153	0	32784	32668	
1154	0	32852	32852	
1155	0	32824	32814	
1156	0	32813	32700	
1157	0	32840	32746	
1158	0	32816	32823	
1159	0	32860	32890	
1160	0	32836	32842	
1161	0	32840	32828	
1162	0	32818	32718	
1163	0	32832	32793	
1164	0	32786	32814	
1165	0	32796	32836	
1166	0	32836	32844	
1167	0	32754	32580	
1168	0	32784	32751	
1169	0	32832	32764	
1170	0	32828	32734	
1171	0	32820	32836	
1172	0	32798	32701	
1173	0	32790	32820	
1174	0	32828	32772	
1175	0	32788	32900	
1176	0	32772	32808	
1177	0	32778	32660	
1178	0	32792	32800	
1179	0	32780	32761	
1180	0	32810	32825	
1181	0	32796	32820	
1182	0	32802	32687	
1183	0	32808	32820	
1184	0	32780	32762	
1185	0	32792	32858	
1186	0	32776	32736	
1187	0	32784	32610	
1188	0	32900	32834	
1189	0	32821	32746	
1190	0	32838	32822	
1191	0	32800	32870	
1192	0	32826	32808	
1193	0	32868	32917	
1194	0	32868	32662	
1195	0	32800	32800	
1196	0	32792	32746	
1197	0	32724	32839	
1198	0	32854	32740	
1199	0	32796	32674	
1200	0	32816	32795	
1201	0	32808	32775	
1202	0	32840	32790	
1203	0	32848	32775	
1204	0	32796	32690	
1205	0	32732	32772	
1206	0	32796	32654	
1207	0	32848	32788	
1208	0	32834	32828	
1209	0	32744	32839	
1210	0	32792	32890	
1211	0	32798	32712	
1212	0	32852	32742	
1213	0	32804	32711	
1214	0	32846	32742	
1215	0	32788	32744	
1216	0	32736	32804	
1217	0	32834	32766	
1218	0	32860	32742	
1219	0	32808	32704	
1220	0	32833	32820	
1221	0	32822	32738	
1222	0	32756	32722	
1223	0	32794	32764	
1224	0	32840	32836	
1225	0	32846	32775	
1226	0	32810	32756	
1227	0	32838	32754	
1228	0	32814	32712	
1229	0	32840	32815	
1230	0	32848	32775	
1231	0	32804	32734	
1232	0	32834	32807	
1233	0	32816	32690	
1234	0	32872	32760	
1235	0	32860	32806	
1236	0	32780	32816	
1237	0	32790	32752	
1238	0	32862	32650	
1239	0	32796	32772	
1240	0	32830	32760	
1241	0	32793	32702	
1242	0	32816	32792	
1243	0	32824	32756	
1244	0	32830	32830	
1245	0	32870	32826	
1246	0	32760	32718	
1247	0	32832	32734	
1248	0	32852	32766	
1249	0	32812	32736	
1250	0	32784	32756	
1251	0	32832	32732	
1252	0	32848	32814	
1253	0	32868	32794	
1254	0	32836	32823	
1255	0	32818	32752	
1256	0	32812	32654	
1257	0	32816	32775	
1258	0	32768	32700	
1259	0	32828	32796	
1260	0	32818	32824	
1261	0	32856	32702	
1262	0	32804	32790	
1263	0	32868	32748	
1264	0	32846	32775	
1265	0	32817	32840	
1266	0	32812	32738	
1267	0	32800	32775	
1268	0	32794	32719	
1269	0	32804	32814	
1270	0	32836	32852	
1271	0	32824	32694	
1272	0	32808	32711	
1273	0	32778	32854	
1274	0	32792	32764	
1275	0	32826	32806	
1276	0	32832	32728	
1277	0	32794	32765	
1278	0	32796	32724	
1279	0	32802	32846	
1280	0	32864	32760	
1281	0	32784	32775	
1282	0	32824	32841	
1283	0	32816	32698	
1284	0	32748	32748	
1285	0	32784	32708	
1286	0	32804	32796	
1287	0	32828	32814	
1288	0	32834	32847	
1289	0	32776	32895	
1290	0	32840	32764	
1291	0	32850	32794	
1292	0	32778	32804	
1293	0	32854	32744	
1294	0	32836	32795	
1295	0	32836	32706	
1296	0	32804	32892	
1297	0	32738	32854	
1298	0	32832	32836	
1299	0	32872	32791	
1300	0	32800	32750	
1301	0	32804	32819	
1302	0	32808	32790	
1303	0	32864	32636	
1304	0	32734	32700	
1305	0	32756	32630	
1306	0	32720	32751	
1307	0	32756	32660	
1308	0	32730	32690	
1309	0	32700	32734	
1310	0	32732	32595	
1311	0	32692	32618	
1312	0	32775	32598	
1313	0	32758	32702	
1314	0	32720	32704	
1315	0	32744	32672	
1316	0	32708	32704	
1317	0	32752	32632	
1318	0	32688	32704	
1319	0	32720	32609	
1320	0	32840	32812	
1321	0	32808	32758	
1322	0	32862	32727	
1323	0	32816	32662	
1324	0	32840	32604	
1325	0	32924	32806	
1326	0	32920	32830	
1327	0	33000	32748	
1328	0	33060	32848	
1329	0	33120	32871	
1330	0	33154	32988	
1331	0	33142	33071	
1332	0	33172	33134	
1333	0	33016	33140	
1334	0	33008	33036	
1335	0	32988	33134	
1336	0	32840	33038	
1337	0	32798	32871	
1338	0	32760	32921	
1339	0	32740	32788	
1340	0	32676	32658	
1341	0	32680	32671	
1342	0	32704	32548	
1343	0	32740	32696	
1344	0	32686	32596	
1345	0	32744	32550	
1346	0	32652	32660	
1347	0	32694	32630	
1348	0	32706	32666	
1349	0	32708	32726	
1350	0	32712	32702	
1351	0	32704	32766	
1352	0	32752	32672	
1353	0	32728	32700	
1354	0	32816	32742	
1355	0	32756	32669	
1356	0	32764	32646	
1357	0	32832	32646	
1358	0	32860	32696	
1359	0	32806	32746	
1360	0	32800	32814	
1361	0	32842	32747	
1362	0	32836	32796	
1363	0	32770	32879	
1364	0	32868	32802	
1365	0	32866	32775	
1366	0	32834	32686	
1367	0	32847	32764	
1368	0	32832	32810	
1369	0	32800	32798	
1370	0	32848	32786	
1371	0	32879	32752	
1372	0	32782	32775	
1373	0	32844	32842	
1374	0	32776	32732	
1375	0	32792	32824	
1376	0	32824	32807	
1377	0	32756	32622	
1378	0	32742	32775	
1379	0	32852	32775	
1380	0	32792	32727	
1381	0	32766	32774	
1382	0	32812	32744	
1383	0	32784	32756	
1384	0	32825	32750	
1385	0	32820	32882	
1386	0	32876	32710	
1387	0	32852	32690	
1388	0	32876	32782	
1389	0	32868	32688	
1390	0	32832	32790	
1391	0	32774	32716	
1392	0	32876	32850	
1393	0	32852	32756	
1394	0	32756	32839	
1395	0	32740	32832	
1396	0	32856	32714	
1397	0	32780	32770	
1398	0	32880	32770	
1399	0	32784	32736	
1400	0	32790	32726	
1401	0	32792	32679	
1402	0	32781	32832	
1403	0	32814	32766	
1404	0	32770	32718	
1405	0	32820	32806	
1406	0	32794	32775	
1407	0	32782	32830	
1408	0	32812	32711	
1409	0	32760	32687	
1410	0	32816	32850	
1411	0	32774	32878	
1412	0	32832	32647	
1413	0	32780	32711	
1414	0	32812	32732	
1415	0	32780	32766	
1416	0	32736	32764	
1417	0	32816	32708	
1418	0	32796	32835	
1419	0	32800	32732	
1420	0	32804	32902	
1421	0	32816	32846	
1422	0	32820	32766	
1423	0	32836	32815	
1424	0	32808	32878	
1425	0	32764	32686	
1426	0	32816	32766	
1427	0	32888	32708	
1428	0	32820	32826	
1429	0	32792	32809	
1430	0	32808	32750	
1431	0	32810	32752	
1432	0	32820	32728	
1433	0	32764	32775	
1434	0	32820	32710	
1435	0	32816	32676	
1436	0	32774	32774	
1437	0	32812	32708	
1438	0	32788	32734	
1439	0	32834	32796	
1440	0	32828	32775	
1441	0	32792	32703	
1442	0	32760	32772	
1443	0	32832	32826	
1444	0	32836	32804	
1445	0	32764	32748	
1446	0	32894	32676	
1447	0	32830	32810	
1448	0	32784	32800	
1449	0	32820	32708	
1450	0	32816	32775	
1451	0	32790	32772	
1452	0	32800	32775	
1453	0	32824	32768	
1454	0	32832	32712	
1455	0	32836	32858	
1456	0	32784	32767	
1457	0	32854	32752	
1458	0	32884	32804	
1459	0	32820	32734	
1460	0	32872	32876	
1461	0	32856	32878	
1462	0	32736	32652	
1463	0	32750	32706	
1464	0	32856	32743	
1465	0	32808	32694	
1466	0	32802	32828	
1467	0	32782	32775	
1468	0	32778	32824	
1469	0	32800	32802	
1470	0	32850	32758	
1471	0	32828	32724	
1472	0	32908	32737	
1473	0	32824	32824	
1474	0	32786	32830	
1475	0	32768	32716	
1476	0	32828	32754	
1477	0	32836	32687	
1478	0	32882	32758	
1479	0	32820	32770	
1480	0	32852	32683	
1481	0	32764	32828	
1482	0	32820	32726	
1483	0	32758	32724	
1484	0	32816	32698	
1485	0	32775	32734	
1486	0	32828	32702	
1487	0	32760	32721	
1488	0	32840	32791	
1489	0	32768	32682	
1490	0	32800	32916	
1491	0	32756	32772	
1492	0	32784	32772	
1493	0	32774	32722	
1494	0	32898	32636	
1495	0	32796	32760	
1496	0	32798	32800	
1497	0	32904	32792	
1498	0	32752	32808	
1499	0	32848	32705	
1500	0	32816	32775	
1501	0	32824	32828	
1502	0	32782	32766	
1503	0	32760	32720	
1504	0	32860	32790	
1505	0	32828	32828	
1506	0	32808	32802	
1507	0	32840	32680	
1508	0	32780	32766	
1509	0	32784	32750	
1510	0	32776	32676	
1511	0	32796	32781	
1512	0	32792	32810	
1513	0	32848	32742	
1514	0	32880	32818	
1515	0	32792	32808	
1516	0	32768	32647	
1517	0	32800	32839	
1518	0	32764	32741	
1519	0	32880	32756	
1520	0	32880	32775	
1521	0	32860	32844	
1522	0	32852	32870	
1523	0	32840	32748	
1524	0	32822	32818	
1525	0	32780	32834	
1526	0	32846	32711	
1527	0	32840	32760	
1528	0	32840	32664	
1529	0	32772	32756	
1530	0	32810	32676	
1531	0	32864	32718	
1532	0	32788	32827	
1533	0	32800	32788	
1534	0	32759	32748	
1535	0	32818	32819	
1536	0	32844	32810	
1537	0	32766	32675	
1538	0	32852	32743	
1539	0	32812	32774	
1540	0	32870	32742	
1541	0	32844	32744	
1542	0	32780	32754	
1543	0	32756	32740	
1544	0	32844	32774	
1545	0	32812	32644	
1546	0	32860	32880	
1547	0	32830	32852	
1548	0	32812	32712	
1549	0	32896	32716	
1550	0	32806	32790	
1551	0	32802	32838	
1552	0	32824	32740	
1553	0	32842	32728	
1554	0	32774	32830	
1555	0	32812	32814	
1556	0	32846	32702	
1557	0	32714	32774	
1558	0	32824	32740	
1559	0	32692	32754	
1560	0	32846	32722	
1561	0	32788	32746	
1562	0	32839	32830	
1563	0	32801	32708	
1564	0	32768	32810	
1565	0	32849	32836	
1566	0	32852	32706	
1567	0	32824	32847	
1568	0	32850	32820	
1569	0	32804	32663	
1570	0	32786	32863	
1571	0	32848	32839	
1572	0	32828	32675	
1573	0	32788	32820	
1574	0	32792	32815	
1575	0	32872	32692	
1576	0	32800	32774	
1577	0	32804	32744	
1578	0	32800	32764	
1579	0	32800	32755	
1580	0	32778	32764	
1581	0	32832	32808	
1582	0	32780	32772	
1583	0	32815	32700	
1584	0	32834	32775	
1585	0	32780	32734	
1586	0	32776	32822	
1587	0	32834	32828	
1588	0	32860	32774	
1589	0	32812	32742	
1590	0	32788	32724	
1591	0	32775	32759	
1592	0	32808	32758	
1593	0	32808	32732	
1594	0	32776	32706	
1595	0	32818	32758	
1596	0	32800	32676	
1597	0	32802	32767	
1598	0	32758	32722	
1599	0	32824	32828	
1600	0	32840	32800	
1601	0	32845	32788	
1602	0	32794	32762	
1603	0	32792	32854	
1604	0	32784	32838	
1605	0	32788	32791	
1606	0	32740	32768	
1607	0	32788	32802	
1608	0	32784	32812	
1609	0	32838	32677	
1610	0	32792	32775	
1611	0	32780	32860	
1612	0	32816	32782	
1613	0	32808	32855	
1614	0	32836	32844	
1615	0	32832	32826	
1616	0	32800	32756	
1617	0	32808	32775	
1618	0	32776	32694	
1619	0	32792	32718	
1620	0	32808	32799	
1621	0	32770	32866	
1622	0	32848	32804	
1623	0	32836	32793	
1624	0	32774	32882	
1625	0	32840	32814	
1626	0	32844	32772	
1627	0	32798	32774	
1628	0	32824	32706	
1629	0	32808	32896	
1630	0	32800	32740	
1631	0	32810	32794	
1632	0	32884	32804	
1633	0	32798	32774	
1634	0	32772	32807	
1635	0	32826	32692	
1636	0	32838	32760	
1637	0	32812	32744	
1638	0	32840	32774	
1639	0	32820	32772	
1640	0	32752	32758	
1641	0	32804	32748	
1642	0	32884	32762	
1643	0	32860	32838	
1644	0	32816	32834	
1645	0	32808	32820	
1646	0	32846	32728	
1647	0	32828	32775	
1648	0	32788	32656	
1649	0	32756	32826	
1650	0	32840	32775	
1651	0	32796	32810	
1652	0	32864	32814	
1653	0	32820	32750	
1654	0	32816	32720	
1655	0	32854	32760	
1656	0	32872	32812	
1657	0	32780	32764	
1658	0	32784	32673	
1659	0	32832	32834	
1660	0	32768	32684	
1661	0	32864	32790	
1662	0	32770	32686	
1663	0	32770	32775	
1664	0	32778	32822	
1665	0	32834	32753	
1666	0	32770	32774	
1667	0	32812	32630	
1668	0	32868	32854	
1669	0	32748	32839	
1670	0	32780	32871	
1671	0	32804	32846	
1672	0	32800	32730	
1673	0	32812	32760	
1674	0	32838	32657	
1675	0	32840	32703	
1676	0	32826	32808	
1677	0	32780	32770	
1678	0	32832	32822	
1679	0	32736	32704	
1680	0	32800	32768	
1681	0	32804	32692	
1682	0	32738	32871	
1683	0	32816	32826	
1684	0	32874	32696	
1685	0	32832	32824	
1686	0	32828	32722	
1687	0	32770	32818	
1688	0	32780	32804	
1689	0	32808	32858	
1690	0	32774	32764	
1691	0	32846	32666	
1692	0	32808	32775	
1693	0	32792	32725	
1694	0	32870	32769	
1695	0	32888	32714	
1696	0	32816	32768	
1697	0	32760	32679	
1698	0	32848	32790	
1699	0	32804	32744	
1700	0	32804	32752	
1701	0	32778	32879	
1702	0	32800	32775	
1703	0	32852	32726	
1704	0	32832	32746	
1705	0	32830	32700	
1706	0	32860	32726	
1707	0	32814	32727	
1708	0	32804	32653	
1709	0	32774	32746	
1710	0	32760	32736	
1711	0	32844	32766	
1712	0	32796	32668	
1713	0	32832	32732	
1714	0	32864	32750	
1715	0	32838	32704	
1716	0	32784	32679	
1717	0	32792	32794	
1718	0	32808	32694	
1719	0	32785	32844	
1720	0	32784	32761	
1721	0	32780	32742	
1722	0	32800	32743	
1723	0	32868	32714	
1724	0	32806	32826	
1725	0	32842	32735	
1726	0	32856	32832	
1727	0	32816	32794	
1728	0	32784	32814	
1729	0	32824	32828	
1730	0	32806	32772	
1731	0	32812	32770	
1732	0	32808	32746	
1733	0	32806	32810	
1734	0	32800	32644	
1735	0	32794	32756	
1736	0	32818	32612	
1737	0	32775	32706	
1738	0	32813	32692	
1739	0	32818	32839	
1740	0	32800	32854	
1741	0	32818	32746	
1742	0	32792	32693	
1743	0	32792	32661	
1744	0	32832	32880	
1745	0	32752	32810	
1746	0	32877	32798	
1747	0	32804	32860	
1748	0	32792	32796	
1749	0	32824	32817	
1750	0	32792	32679	
1751	0	32814	32812	
1752	0	32850	32712	
1753	0	32812	32934	
1754	0	32834	32864	
1755	0	32784	32676	
1756	0	32856	32844	
1757	0	32796	32664	
1758	0	32848	32804	
1759	0	32788	32775	
1760	0	32802	32775	
1761	0	32858	32679	
1762	0	32800	32812	
1763	0	32734	32790	
1764	0	32774	32846	
1765	0	32757	32818	
1766	0	32830	32660	
1767	0	32834	32764	
1768	0	32852	32676	
1769	0	32816	32762	
1770	0	32794	32711	
1771	0	32826	32808	
1772	0	32804	32742	
1773	0	32800	32756	
1774	0	32788	32772	
1775	0	32844	32802	
1776	0	32804	32871	
1777	0	32756	32738	
1778	0	32852	32754	
1779	0	32836	32775	
1780	0	32812	32876	
1781	0	32804	32792	
1782	0	32844	32687	
1783	0	32885	32775	
1784	0	32774	32800	
1785	0	32816	32704	
1786	0	32804	32716	
1787	0	32808	32764	
1788	0	32800	32772	
1789	0	32840	32881	
1790	0	32852	32796	
1791	0	32814	32775	
1792	0	32824	32748	
1793	0	32772	32790	
1794	0	32756	32780	
1795	0	32821	32852	
1796	0	32856	32828	
1797	0	32784	32830	
1798	0	32776	32620	
1799	0	32802	32722	
1800	0	32792	32746	
1801	0	32757	32820	
1802	0	32800	32820	
1803	0	32784	32699	
1804	0	32800	32756	
1805	0	32876	32740	
1806	0	32864	32824	
1807	0	32842	32824	
1808	0	32832	32759	
1809	0	32816	32846	
1810	0	32804	32752	
1811	0	32860	32766	
1812	0	32794	32754	
1813	0	32826	32690	
1814	0	32748	32882	
1815	0	32864	32832	
1816	0	32796	32702	
1817	0	32820	32646	
1818	0	32784	32752	
1819	0	32776	32766	
1820	0	32821	32852	
1821	0	32788	32775	
1822	0	32800	32822	
1823	0	32792	32918	
1824	0	32784	32680	
1825	0	32800	32754	
1826	0	32802	32794	
1827	0	32740	32842	
1828	0	32812	32694	
1829	0	32810	32748	
1830	0	32820	32832	
1831	0	32798	32706	
1832	0	32814	32826	
1833	0	32818	32712	
1834	0	32820	32700	
1835	0	32844	32793	
1836	0	32828	32824	
1837	0	32832	32666	
1838	0	32856	32774	
1839	0	32814	32775	
1840	0	32879	32721	
1841	0	32816	32806	
1842	0	32828	32834	
1843	0	32800	32668	
1844	0	32864	32828	
1845	0	32812	32800	
1846	0	32784	32814	
1847	0	32800	32730	
1848	0	32808	32775	
1849	0	32796	32748	
1850	0	32788	32720	
1851	0	32788	32804	
1852	0	32788	32736	
1853	0	32834	32710	
1854	0	32840	32743	
1855	0	32792	32864	
1856	0	32820	32676	
1857	0	32812	32820	
1858	0	32802	32750	
1859	0	32784	32799	
1860	0	32804	32710	
1861	0	32704	32890	
1862	0	32840	32818	
1863	0	32852	32766	
1864	0	32810	32804	
1865	0	32794	32774	
1866	0	32856	32698	
1867	0	32824	32822	
1868	0	32824	32786	
1869	0	32800	32662	
1870	0	32870	32804	
1871	0	32812	32746	
1872	0	32828	32726	
1873	0	32832	32784	
1874	0	32848	32800	
1875	0	32736	32756	
1876	0	32816	32878	
1877	0	32812	32764	
1878	0	32826	32732	
1879	0	32824	32754	
1880	0	32740	32796	
1881	0	32826	32688	
1882	0	32812	32742	
1883	0	32808	32718	
1884	0	32756	32697	
1885	0	32832	32784	
1886	0	32836	32662	
1887	0	32764	32800	
1888	0	32753	32772	
1889	0	32792	32644	
1890	0	32840	32740	
1891	0	32820	32770	
1892	0	32852	32694	
1893	0	32808	32742	
1894	0	32808	32684	
1895	0	32910	32860	
1896	0	32830	32748	
1897	0	32848	32842	
1898	0	32812	32772	
1899	0	32848	32810	
1900	0	32772	32736	
1901	0	32810	32798	
1902	0	32834	32792	
1903	0	32794	32759	
1904	0	32740	32796	
1905	0	32808	32838	
1906	0	32792	32718	
1907	0	32860	32760	
1908	0	32856	32796	
1909	0	32774	32694	
1910	0	32800	32826	
1911	0	32800	32674	
1912	0	32800	32838	
1913	0	32868	32806	
1914	0	32776	32718	
1915	0	32828	32775	
1916	0	32778	32734	
1917	0	32864	32838	
1918	0	32780	32790	
1919	0	32750	32692	
1920	0	32832	32814	
1921	0	32834	32752	
1922	0	32878	32775	
1923	0	32864	32722	
1924	0	32808	32735	
1925	0	32772	32754	
1926	0	32854	32788	
1927	0	32808	32726	
1928	0	32832	32767	
1929	0	32804	32736	
1930	0	32844	32807	
1931	0	32756	32700	
1932	0	32824	32751	
1933	0	32776	32800	
1934	0	32796	32732	
1935	0	32812	32693	
1936	0	32832	32834	
1937	0	32752	32900	
1938	0	32772	32762	
1939	0	32826	32775	
1940	0	32848	32724	
1941	0	32740	32758	
1942	0	32826	32727	
1943	0	32821	32823	
1944	0	32864	32730	
1945	0	32808	32786	
1946	0	32786	32807	
1947	0	32828	32818	
1948	0	32812	32800	
1949	0	32878	32892	
1950	0	32792	32820	
1951	0	32898	32652	
1952	0	32880	32746	
1953	0	32856	32774	
1954	0	32834	32784	
1955	0	32768	32802	
1956	0	32838	32812	
1957	0	32776	32800	
1958	0	32740	32792	
1959	0	32866	32798	
1960	0	32824	32872	
1961	0	32810	32758	
1962	0	32816	32793	
1963	0	32774	32746	
1964	0	32792	32758	
1965	0	32772	32736	
1966	0	32788	32759	
1967	0	32768	32775	
1968	0	32792	32703	
1969	0	32768	32804	
1970	0	32844	32604	
1971	0	32816	32790	
1972	0	32832	32774	
1973	0	32812	32828	
1974	0	32820	32816	
1975	0	32832	32742	
1976	0	32828	32890	
1977	0	32820	32700	
1978	0	32744	32734	
1979	0	32828	32714	
1980	0	32766	32710	
1981	0	32786	32682	
1982	0	32800	32820	
1983	0	32770	32839	
1984	0	32808	32634	
1985	0	32812	32806	
1986	0	32826	32678	
1987	0	32840	32760	
1988	0	32880	32712	
1989	0	32880	32839	
1990	0	32824	32838	
1991	0	32772	32876	
1992	0	32850	32921	
1993	0	32804	32788	
1994	0	32834	32870	
1995	0	32864	32716	
1996	0	32816	32743	
1997	0	32840	32764	
1998	0	32808	32660	
1999	0	32838	32748	
2000	0	32770	32644	
2001	0	32760	32775	
2002	0	32836	32736	
2003	0	32796	32814	
2004	0	32776	32826	
2005	0	32800	32722	
2006	0	32788	32796	
2007	0	32820	32720	
2008	0	32836	32738	
2009	0	32774	32690	
2010	0	32800	32870	
2011	0	32824	32756	
2012	0	32780	32756	
2013	0	32820	32820	
2014	0	32832	32698	
2015	0	32775	32806	
2016	0	32812	32772	
2017	0	32876	32719	
2018	0	32817	32788	
2019	0	32804	32796	
2020	0	32884	32890	
2021	0	32784	32792	
2022	0	32752	32766	
2023	0	32856	32788	
2024	0	32828	32730	
2025	0	32844	32810	
2026	0	32842	32758	
2027	0	32730	32722	
2028	0	32792	32718	
2029	0	32776	32718	
2030	0	32806	32700	
2031	0	32780	32725	
2032	0	32800	32686	
2033	0	32756	32836	
2034	0	32846	32870	
2035	0	32840	32828	
2036	0	32800	32852	
2037	0	32808	32742	
2038	0	32840	32740	
2039	0	32848	32723	
2040	0	32796	32750	
2041	0	32876	32807	
2042	0	32816	32774	
2043	0	32832	32712	
2044	0	32753	32743	
2045	0	32818	32680	
2046	0	32836	32751	
2047	0	32762	32716	
2048	0	32812	32902	
2049	0	32848	32734	
2050	0	32808	32740	
2051	0	32782	32810	
2052	0	32846	32832	
2053	0	32750	32846	
2054	0	32774	32705	
2055	0	32836	32775	
2056	0	32898	32570	
2057	0	32824	32804	
2058	0	32776	32748	
2059	0	32832	32888	
2060	0	32824	32814	
2061	0	32802	32678	
2062	0	32760	32796	
2063	0	32804	32766	
2064	0	32804	32840	
2065	0	32800	32796	
2066	0	32736	32671	
2067	0	32826	32775	
2068	0	32804	32746	
2069	0	32784	32716	
2070	0	32862	32764	
2071	0	32792	32698	
2072	0	32804	32784	
2073	0	32820	32647	
2074	0	32792	32816	
2075	0	32830	32692	
2076	0	32816	32768	
2077	0	32785	32820	
2078	0	32842	32796	
2079	0	32788	32798	
2080	0	32772	32689	
2081	0	32828	32838	
2082	0	32824	32796	
2083	0	32808	32721	
2084	0	32792	32724	
2085	0	32828	32698	
2086	0	32778	32870	
2087	0	32842	32862	
2088	0	32842	32708	
2089	0	32900	32852	
2090	0	32808	32772	
2091	0	32860	32844	
2092	0	32814	32704	
2093	0	32760	32830	
2094	0	32841	32730	
2095	0	32868	32788	
2096	0	32844	32708	
2097	0	32828	32840	
2098	0	32740	32734	
2099	0	32772	32775	
2100	0	32794	32679	
2101	0	32784	32666	
2102	0	32812	32638	
2103	0	32766	32715	
2104	0	32762	32734	
2105	0	32716	32800	
2106	0	32764	32743	
2107	0	32812	32590	
2108	0	32750	32647	
2109	0	32684	32574	
2110	0	32708	32628	
2111	0	32740	32653	
2112	0	32760	32714	
2113	0	32728	32704	
2114	0	32766	32596	
2115	0	32692	32716	
2116	0	32748	32575	
2117	0	32714	32770	
2118	0	32752	32808	
2119	0	32772	32839	
2120	0	32780	32798	
2121	0	32852	32743	
2122	0	32856	32684	
2123	0	32836	32697	
2124	0	32836	32638	
2125	0	32920	32730	
2126	0	33040	32807	
2127	0	33000	32760	
2128	0	33088	32916	
2129	0	33104	33028	
2130	0	33088	32990	
2131	0	33156	33182	
2132	0	33062	33190	
2133	0	33002	33182	
2134	0	32922	33194	
2135	0	32884	32979	
2136	0	32840	33031	
2137	0	32852	32865	
2138	0	32836	32764	
2139	0	32748	32806	
2140	0	32716	32612	
2141	0	32740	32712	
2142	0	32692	32650	
2143	0	32742	32772	
2144	0	32686	32620	
2145	0	32664	32736	
2146	0	32652	32578	
2147	0	32764	32574	
2148	0	32724	32734	
2149	0	32678	32604	
2150	0	32700	32763	
2151	0	32712	32686	
2152	0	32740	32766	
2153	0	32768	32832	
2154	0	32772	32854	
2155	0	32820	32821	
2156	0	32808	32766	
2157	0	32824	32876	
2158	0	32804	32896	
2159	0	32772	32766	
2160	0	32760	32711	
2161	0	32804	32712	
2162	0	32780	32743	
2163	0	32840	32694	
2164	0	32884	32782	
2165	0	32774	32676	
2166	0	32848	32764	
2167	0	32806	32708	
2168	0	32741	32788	
2169	0	32806	32696	
2170	0	32864	32740	
2171	0	32824	32612	
2172	0	32786	32762	
2173	0	32834	32730	
2174	0	32864	32743	
2175	0	32836	32738	
2176	0	32854	32772	
2177	0	32810	32670	
2178	0	32772	32738	
2179	0	32840	32856	
2180	0	32768	32694	
2181	0	32784	32802	
2182	0	32780	32814	
2183	0	32820	32814	
2184	0	32820	32798	
2185	0	32840	32804	
2186	0	32848	32676	
2187	0	32796	32703	
2188	0	32782	32798	
2189	0	32893	32862	
2190	0	32816	32838	
2191	0	32812	32797	
2192	0	32804	32700	
2193	0	32776	32806	
2194	0	32832	32802	
2195	0	32794	32748	
2196	0	32840	32784	
2197	0	32880	32682	
2198	0	32872	32775	
2199	0	32801	32724	
2200	0	32772	32775	
2201	0	32848	32746	
2202	0	32776	32854	
2203	0	32884	32846	
2204	0	32804	32950	
2205	0	32788	32742	
2206	0	32764	32754	
2207	0	32776	32836	
2208	0	32798	32727	
2209	0	32769	32830	
2210	0	32758	32786	
2211	0	32764	32722	
2212	0	32836	32724	
2213	0	32836	32740	
2214	0	32836	32766	
2215	0	32808	32671	
2216	0	32784	32731	
2217	0	32796	32732	
2218	0	32852	32744	
2219	0	32792	32774	
2220	0	32832	32806	
2221	0	32840	32816	
2222	0	32748	32689	
2223	0	32808	32756	
2224	0	32800	32768	
2225	0	32788	32830	
2226	0	32805	32856	
2227	0	32856	32754	
2228	0	32874	32766	
2229	0	32756	32716	
2230	0	32872	32744	
2231	0	32816	32796	
2232	0	32844	32878	
2233	0	32848	32839	
2234	0	32798	32666	
2235	0	32796	32800	
2236	0	32752	32760	
2237	0	32820	32775	
2238	0	32864	32742	
2239	0	32868	32698	
2240	0	32780	32766	
2241	0	32792	32662	
2242	0	32812	32836	
2243	0	32800	32788	
2244	0	32846	32876	
2245	0	32746	32761	
2246	0	32788	32676	
2247	0	32810	32712	
2248	0	32832	32702	
2249	0	32842	32804	
2250	0	32808	32844	
2251	0	32818	32750	
2252	0	32844	32881	
2253	0	32826	32766	
2254	0	32769	32640	
2255	0	32708	32756	
2256	0	32892	32756	
2257	0	32844	32756	
2258	0	32758	32814	
2259	0	32880	32762	
2260	0	32862	32719	
2261	0	32834	32792	
2262	0	32770	32798	
2263	0	32780	32769	
2264	0	32744	32723	
2265	0	32842	32826	
2266	0	32804	32806	
2267	0	32760	32689	
2268	0	32840	32740	
2269	0	32834	32700	
2270	0	32756	32775	
2271	0	32858	32792	
2272	0	32780	32812	
2273	0	32780	32768	
2274	0	32832	32820	
2275	0	32776	32766	
2276	0	32814	32658	
2277	0	32798	32832	
2278	0	32824	32756	
2279	0	32801	32684	
2280	0	32780	32775	
2281	0	32816	32786	
2282	0	32766	32674	
2283	0	32824	32834	
2284	0	32856	32750	
2285	0	32794	32832	
2286	0	32840	32902	
2287	0	32784	32736	
2288	0	32776	32824	
2289	0	32844	32728	
2290	0	32828	32692	
2291	0	32774	32716	
2292	0	32858	32775	
2293	0	32804	32708	
2294	0	32784	32728	
2295	0	32814	32774	
2296	0	32770	32794	
2297	0	32760	32881	
2298	0	32776	32708	
2299	0	32788	32823	
2300	0	32810	32854	
2301	0	32808	32671	
2302	0	32792	32748	
2303	0	32858	32720	
2304	0	32852	32874	
2305	0	32808	32759	
2306	0	32752	32624	
2307	0	32786	32842	
2308	0	32804	32702	
2309	0	32812	32766	
2310	0	32816	32820	
2311	0	32842	32732	
2312	0	32846	32768	
2313	0	32840	32696	
2314	0	32768	32772	
2315	0	32784	32698	
2316	0	32744	32814	
2317	0	32762	32852	
2318	0	32860	32812	
2319	0	32856	32826	
2320	0	32838	32700	
2321	0	32868	32728	
2322	0	32850	32748	
2323	0	32828	32846	
2324	0	32800	32654	
2325	0	32762	32790	
2326	0	32800	32831	
2327	0	32842	32824	
2328	0	32828	32792	
2329	0	32852	32800	
2330	0	32784	32775	
2331	0	32788	32774	
2332	0	32782	32751	
2333	0	32872	32839	
2334	0	32836	32812	
2335	0	32872	32847	
2336	0	32836	32834	
2337	0	32870	32684	
2338	0	32806	32879	
2339	0	32804	32714	
2340	0	32796	32720	
2341	0	32804	32658	
2342	0	32776	32801	
2343	0	32736	32807	
2344	0	32736	32903	
2345	0	32840	32804	
2346	0	32876	32715	
2347	0	32800	32743	
2348	0	32840	32712	
2349	0	32802	32772	
2350	0	32906	32631	
2351	0	32760	32775	
2352	0	32800	32667	
2353	0	32820	32775	
2354	0	32740	32846	
2355	0	32852	32655	
2356	0	32784	32758	
2357	0	32852	32740	
2358	0	32862	32834	
2359	0	32800	32866	
2360	0	32820	32688	
2361	0	32804	32696	
2362	0	32826	32757	
2363	0	32904	32814	
2364	0	32764	32775	
2365	0	32792	32711	
2366	0	32834	32775	
2367	0	32812	32726	
2368	0	32802	32784	
2369	0	32820	32686	
2370	0	32812	32822	
2371	0	32884	32782	
2372	0	32798	32834	
2373	0	32854	32730	
2374	0	32814	32764	
2375	0	32836	32750	
2376	0	32804	32874	
2377	0	32848	32758	
2378	0	32822	32798	
2379	0	32820	32846	
2380	0	32848	32839	
2381	0	32852	32814	
2382	0	32794	32810	
2383	0	32788	32794	
2384	0	32780	32647	
2385	0	32764	32718	
2386	0	32785	32686	
2387	0	32804	32712	
2388	0	32832	32632	
2389	0	32880	32802	
2390	0	32800	32770	
2391	0	32752	32821	
2392	0	32780	32834	
2393	0	32834	32876	
2394	0	32870	32844	
2395	0	32832	32860	
2396	0	32826	32790	
2397	0	32838	32712	
2398	0	32852	32766	
2399	0	32792	32742	
2400	0	32868	32831	
2401	0	32874	32712	
2402	0	32760	32740	
2403	0	32850	32741	
2404	0	32744	32826	
2405	0	32794	32824	
2406	0	32812	32871	
2407	0	32824	32854	
2408	0	32772	32682	
2409	0	32818	32718	
2410	0	32836	32668	
2411	0	32858	32796	
2412	0	32828	32716	
2413	0	32758	32766	
2414	0	32776	32708	
2415	0	32806	32770	
2416	0	32800	32804	
2417	0	32778	32804	
2418	0	32824	32847	
2419	0	32772	32704	
2420	0	32736	32748	
2421	0	32740	32726	
2422	0	32788	32793	
2423	0	32782	32684	
2424	0	32902	32718	
2425	0	32829	32768	
2426	0	32808	32784	
2427	0	32868	32830	
2428	0	32800	32830	
2429	0	32820	32848	
2430	0	32776	32710	
2431	0	32836	32743	
2432	0	32768	32720	
2433	0	32824	32772	
2434	0	32818	32756	
2435	0	32726	32746	
2436	0	32856	32775	
2437	0	32896	32745	
2438	0	32840	32716	
2439	0	32798	32766	
2440	0	32894	32855	
2441	0	32792	32808	
2442	0	32832	32662	
2443	0	32804	32823	
2444	0	32814	32854	
2445	0	32754	32686	
2446	0	32742	32801	
2447	0	32892	32866	
2448	0	32796	32702	
2449	0	32836	32743	
2450	0	32852	32738	
2451	0	32776	32706	
2452	0	32836	32750	
2453	0	32782	32708	
2454	0	32812	32726	
2455	0	32852	32759	
2456	0	32868	32846	
2457	0	32836	32582	
2458	0	32782	32804	
2459	0	32821	32775	
2460	0	32828	32762	
2461	0	32864	32802	
2462	0	32806	32775	
2463	0	32804	32775	
2464	0	32744	32786	
2465	0	32828	32752	
2466	0	32796	32804	
2467	0	32816	32775	
2468	0	32780	32656	
2469	0	32812	32832	
2470	0	32808	32792	
2471	0	32808	32871	
2472	0	32784	32740	
2473	0	32824	32807	
2474	0	32882	32750	
2475	0	32848	32758	
2476	0	32832	32752	
2477	0	32824	32798	
2478	0	32830	32836	
2479	0	32804	32678	
2480	0	32812	32792	
2481	0	32808	32798	
2482	0	32756	32742	
2483	0	32772	32750	
2484	0	32828	32716	
2485	0	32852	32850	
2486	0	32816	32740	
2487	0	32812	32692	
2488	0	32808	32830	
2489	0	32808	32750	
2490	0	32764	32652	
2491	0	32820	32772	
2492	0	32864	32726	
2493	0	32764	32748	
2494	0	32855	32792	
2495	0	32880	32836	
2496	0	32812	32706	
2497	0	32778	32752	
2498	0	32736	32784	
2499	0	32804	32790	
2500	0	32808	32754	
2501	0	32848	32796	
2502	0	32824	32806	
2503	0	32814	32697	
2504	0	32828	32743	
2505	0	32826	32680	
2506	0	32802	32789	
2507	0	32820	32822	
2508	0	32814	32708	
2509	0	32836	32830	
2510	0	32806	32660	
2511	0	32776	32807	
2512	0	32744	32770	
2513	0	32842	32807	
2514	0	32756	32740	
2515	0	32888	32814	
2516	0	32880	32862	
2517	0	32816	32758	
2518	0	32868	32770	
2519	0	32848	32756	
2520	0	32746	32706	
2521	0	32768	32824	
2522	0	32792	32672	
2523	0	32838	32839	
2524	0	32820	32808	
2525	0	32826	32748	
2526	0	32830	32862	
2527	0	32834	32758	
2528	0	32748	32834	
2529	0	32832	32674	
2530	0	32804	32743	
2531	0	32800	32634	
2532	0	32756	32768	
2533	0	32841	32867	
2534	0	32780	32852	
2535	0	32870	32775	
2536	0	32792	32764	
2537	0	32800	32610	
2538	0	32808	32798	
2539	0	32868	32748	
2540	0	32792	32752	
2541	0	32860	32670	
2542	0	32872	32788	
2543	0	32792	32678	
2544	0	32792	32714	
2545	0	32865	32792	
2546	0	32808	32792	
2547	0	32780	32858	
2548	0	32820	32816	
2549	0	32812	32775	
2550	0	32812	32692	
2551	0	32720	32816	
2552	0	32764	32728	
2553	0	32748	32775	
2554	0	32836	32666	
2555	0	32816	32704	
2556	0	32756	32718	
2557	0	32769	32775	
2558	0	32834	32732	
2559	0	32816	32736	
2560	0	32836	32729	
2561	0	32832	32822	
2562	0	32850	32766	
2563	0	32756	32768	
2564	0	32818	32788	
2565	0	32852	32839	
2566	0	32780	32766	
2567	0	32864	32847	
2568	0	32824	32736	
2569	0	32876	32838	
2570	0	32798	32903	
2571	0	32764	32686	
2572	0	32808	32794	
2573	0	32812	32652	
2574	0	32844	32858	
2575	0	32804	32746	
2576	0	32774	32694	
2577	0	32794	32748	
2578	0	32788	32730	
2579	0	32837	32688	
2580	0	32816	32835	
2581	0	32800	32694	
2582	0	32816	32748	
2583	0	32836	32790	
2584	0	32884	32862	
2585	0	32816	32868	
2586	0	32792	32788	
2587	0	32816	32838	
2588	0	32774	32680	
2589	0	32768	32795	
2590	0	32824	32694	
2591	0	32772	32824	
2592	0	32848	32852	
2593	0	32814	32680	
2594	0	32840	32756	
2595	0	32806	32798	
2596	0	32836	32660	
2597	0	32808	32806	
2598	0	32816	32760	
2599	0	32898	32746	
2600	0	32834	32820	
2601	0	32864	32838	
2602	0	32772	32700	
2603	0	32816	32898	
2604	0	32858	32756	
2605	0	32816	32775	
2606	0	32762	32756	
2607	0	32748	32816	
2608	0	32806	32686	
2609	0	32744	32834	
2610	0	32836	32764	
2611	0	32752	32684	
2612	0	32780	32812	
2613	0	32836	32830	
2614	0	32862	32686	
2615	0	32840	32812	
2616	0	32808	32822	
2617	0	32730	32708	
2618	0	32888	32751	
2619	0	32746	32804	
2620	0	32804	32830	
2621	0	32816	32816	
2622	0	32788	32768	
2623	0	32842	32774	
2624	0	32806	32775	
2625	0	32804	32822	
2626	0	32768	32763	
2627	0	32794	32742	
2628	0	32832	32711	
2629	0	32794	32624	
2630	0	32804	32732	
2631	0	32850	32852	
2632	0	32822	32756	
2633	0	32749	32839	
2634	0	32832	32854	
2635	0	32846	32704	
2636	0	32854	32834	
2637	0	32804	32764	
2638	0	32768	32774	
2639	0	32856	32798	
2640	0	32860	32684	
2641	0	32772	32744	
2642	0	32724	32716	
2643	0	32812	32846	
2644	0	32828	32850	
2645	0	32876	32689	
2646	0	32860	32770	
2647	0	32824	32728	
2648	0	32848	32836	
2649	0	32804	32702	
2650	0	32772	32814	
2651	0	32776	32870	
2652	0	32816	32758	
2653	0	32788	32736	
2654	0	32804	32774	
2655	0	32788	32850	
2656	0	32802	32774	
2657	0	32740	32798	
2658	0	32858	32692	
2659	0	32804	32704	
2660	0	32804	32812	
2661	0	32904	32832	
2662	0	32772	32683	
2663	0	32800	32736	
2664	0	32860	32666	
2665	0	32816	32840	
2666	0	32791	32812	
2667	0	32776	32746	
2668	0	32796	32743	
2669	0	32826	32794	
2670	0	32764	32775	
2671	0	32746	32810	
2672	0	32750	32681	
2673	0	32868	32751	
2674	0	32812	32703	
2675	0	32792	32810	
2676	0	32784	32794	
2677	0	32855	32870	
2678	0	32844	32796	
2679	0	32816	32742	
2680	0	32802	32737	
2681	0	32836	32684	
2682	0	32828	32768	
2683	0	32852	32772	
2684	0	32832	32807	
2685	0	32848	32848	
2686	0	32844	32650	
2687	0	32832	32788	
2688	0	32804	32742	
2689	0	32774	32794	
2690	0	32794	32679	
2691	0	32756	32794	
2692	0	32768	32687	
2693	0	32812	32763	
2694	0	32804	32750	
2695	0	32856	32824	
2696	0	32772	32769	
2697	0	32832	32810	
2698	0	32848	32750	
2699	0	32794	32750	
2700	0	32830	32878	
2701	0	32810	32742	
2702	0	32838	32633	
2703	0	32744	32746	
2704	0	32804	32719	
2705	0	32876	32786	
2706	0	32849	32772	
2707	0	32808	32718	
2708	0	32804	32738	
2709	0	32760	32674	
2710	0	32824	32772	
2711	0	32840	32691	
2712	0	32780	32862	
2713	0	32740	32839	
2714	0	32824	32740	
2715	0	32862	32775	
2716	0	32768	32753	
2717	0	32800	32724	
2718	0	32812	32775	
2719	0	32840	32772	
2720	0	32800	32796	
2721	0	32808	32742	
2722	0	32844	32678	
2723	0	32756	32762	
2724	0	32766	32663	
2725	0	32828	32860	
2726	0	32868	32866	
2727	0	32850	32714	
2728	0	32826	32752	
2729	0	32800	32746	
2730	0	32802	32788	
2731	0	32852	32772	
2732	0	32808	32807	
2733	0	32752	32722	
2734	0	32858	32807	
2735	0	32864	32806	
2736	0	32834	32680	
2737	0	32860	32848	
2738	0	32828	32804	
2739	0	32828	32750	
2740	0	32776	32682	
2741	0	32816	32664	
2742	0	32822	32762	
2743	0	32756	32814	
2744	0	32790	32704	
2745	0	32812	32792	
2746	0	32782	32720	
2747	0	32828	32818	
2748	0	32796	32790	
2749	0	32836	32742	
2750	0	32788	32775	
2751	0	32856	32762	
2752	0	32784	32642	
2753	0	32906	32896	
2754	0	32836	32846	
2755	0	32788	32632	
2756	0	32824	32834	
2757	0	32818	32866	
2758	0	32828	32654	
2759	0	32794	32788	
2760	0	32740	32839	
2761	0	32796	32711	
2762	0	32794	32766	
2763	0	32814	32742	
2764	0	32888	32708	
2765	0	32828	32844	
2766	0	32852	32788	
2767	0	32788	32736	
2768	0	32784	32710	
2769	0	32792	32791	
2770	0	32804	32708	
2771	0	32814	32838	
2772	0	32776	32748	
2773	0	32810	32694	
2774	0	32834	32726	
2775	0	32752	32820	
2776	0	32780	32764	
2777	0	32774	32716	
2778	0	32876	32788	
2779	0	32810	32775	
2780	0	32802	32734	
2781	0	32769	32758	
2782	0	32812	32848	
2783	0	32792	32834	
2784	0	32820	32775	
2785	0	32822	32724	
2786	0	32824	32868	
2787	0	32824	32751	
2788	0	32838	32724	
2789	0	32828	32775	
2790	0	32844	32794	
2791	0	32796	32847	
2792	0	32812	32876	
2793	0	32752	32743	
2794	0	32804	32674	
2795	0	32812	32724	
2796	0	32764	32740	
2797	0	32842	32844	
2798	0	32866	32758	
2799	0	32700	32711	
2800	0	32810	32784	
2801	0	32858	32807	
2802	0	32792	32771	
2803	0	32846	32800	
2804	0	32812	32775	
2805	0	32764	32724	
2806	0	32800	32846	
2807	0	32816	32711	
2808	0	32844	32788	
2809	0	32850	32812	
2810	0	32824	32876	
2811	0	32812	32764	
2812	0	32806	32720	
2813	0	32794	32722	
2814	0	32792	32736	
2815	0	32852	32764	
2816	0	32862	32810	
2817	0	32808	32815	
2818	0	32786	32836	
2819	0	32794	32755	
2820	0	32800	32766	
2821	0	32800	32666	
2822	0	32808	32815	
2823	0	32748	32774	
2824	0	32756	32788	
2825	0	32810	32886	
2826	0	32818	32847	
2827	0	32818	32756	
2828	0	32857	32672	
2829	0	32826	32761	
2830	0	32821	32704	
2831	0	32768	32868	
2832	0	32868	32790	
2833	0	32878	32774	
2834	0	32758	32758	
2835	0	32738	32687	
2836	0	32792	32774	
2837	0	32830	32614	
2838	0	32852	32789	
2839	0	32792	32714	
2840	0	32848	32866	
2841	0	32824	32838	
2842	0	32748	32724	
2843	0	32760	32812	
2844	0	32792	32714	
2845	0	32804	32756	
2846	0	32768	32818	
2847	0	32836	32808	
2848	0	32832	32858	
2849	0	32816	32748	
2850	0	32824	32789	
2851	0	32800	32761	
2852	0	32820	32816	
2853	0	32790	32775	
2854	0	32750	32716	
2855	0	32792	32875	
2856	0	32842	32740	
2857	0	32776	32742	
2858	0	32828	32712	
2859	0	32876	32806	
2860	0	32814	32804	
2861	0	32848	32886	
2862	0	32810	32766	
2863	0	32780	32759	
2864	0	32800	32839	
2865	0	32806	32734	
2866	0	32924	32802	
2867	0	32804	32770	
2868	0	32780	32880	
2869	0	32788	32721	
2870	0	32822	32666	
2871	0	32794	32700	
2872	0	32756	32658	
2873	0	32768	32678	
2874	0	32777	32678	
2875	0	32716	32592	
2876	0	32764	32631	
2877	0	32696	32507	
2878	0	32700	32652	
2879	0	32732	32624	
2880	0	32712	32673	
2881	0	32720	32705	
2882	0	32712	32756	
2883	0	32688	32659	
2884	0	32796	32775	
2885	0	32732	32692	
2886	0	32769	32759	
2887	0	32842	32708	
2888	0	32800	32804	
2889	0	32844	32664	
2890	0	32812	32752	
2891	0	32840	32710	
2892	0	32930	32736	
2893	0	32932	32816	
2894	0	33076	32836	
2895	0	33088	32903	
2896	0	33096	33020	
2897	0	33152	33159	
2898	0	33136	33190	
2899	0	33070	33204	
2900	0	33006	33216	
2901	0	33020	33196	
2902	0	32920	33048	
2903	0	32930	32967	
2904	0	32816	33148	
2905	0	32772	32916	
2906	0	32656	32646	
2907	0	32692	32654	
2908	0	32674	32487	
2909	0	32692	32584	
2910	0	32732	32552	
2911	0	32660	32622	
2912	0	32736	32672	
2913	0	32716	32683	
2914	0	32754	32616	
2915	0	32714	32558	
2916	0	32684	32614	
2917	0	32680	32615	
2918	0	32716	32740	
2919	0	32734	32700	
2920	0	32741	32766	
2921	0	32748	32670	
2922	0	32736	32815	
2923	0	32798	32696	
2924	0	32736	32786	
2925	0	32848	32743	
2926	0	32849	32760	
2927	0	32764	32807	
2928	0	32780	32772	
2929	0	32864	32786	
2930	0	32864	32772	
2931	0	32834	32876	
2932	0	32880	32692	
2933	0	32836	32708	
2934	0	32872	32692	
2935	0	32832	32828	
2936	0	32844	32830	
2937	0	32856	32794	
2938	0	32820	32742	
2939	0	32892	32775	
2940	0	32828	32743	
2941	0	32840	32846	
2942	0	32760	32766	
2943	0	32840	32932	
2944	0	32752	32826	
2945	0	32864	32775	
2946	0	32812	32770	
2947	0	32848	32739	
2948	0	32768	32800	
2949	0	32820	32679	
2950	0	32840	32806	
2951	0	32836	32710	
2952	0	32804	32840	
2953	0	32792	32775	
2954	0	32800	32720	
2955	0	32808	32786	
2956	0	32844	32934	
2957	0	32824	32584	
2958	0	32824	32796	
2959	0	32838	32760	
2960	0	32870	32750	
2961	0	32808	32772	
2962	0	32852	32708	
2963	0	32816	32798	
2964	0	32848	32647	
2965	0	32816	32775	
2966	0	32800	32900	
2967	0	32868	32652	
2968	0	32784	32775	
2969	0	32842	32792	
2970	0	32772	32750	
2971	0	32844	32786	
2972	0	32822	32860	
2973	0	32808	32716	
2974	0	32896	32806	
2975	0	32828	32712	
2976	0	32748	32751	
2977	0	32804	32775	
2978	0	32836	32896	
2979	0	32784	32838	
2980	0	32764	32736	
2981	0	32850	32756	
2982	0	32764	32896	
2983	0	32804	32684	
2984	0	32810	32800	
2985	0	32800	32704	
2986	0	32828	32774	
2987	0	32796	32802	
2988	0	32784	32708	
2989	0	32820	32770	
2990	0	32808	32756	
2991	0	32852	32684	
2992	0	32800	32751	
2993	0	32784	32658	
2994	0	32856	32871	
2995	0	32798	32798	
2996	0	32828	32622	
2997	0	32824	32712	
2998	0	32860	32737	
2999	0	32868	32769	
3000	0	32810	32840	
3001	0	32796	32738	
3002	0	32820	32774	
3003	0	32796	32751	
3004	0	32928	32839	
3005	0	32840	32828	
3006	0	32842	32720	
3007	0	32824	32775	
3008	0	32784	32663	
3009	0	32858	32748	
3010	0	32825	32742	
3011	0	32852	32720	
3012	0	32798	32743	
3013	0	32825	32684	
3014	0	32810	32790	
3015	0	32768	32704	
3016	0	32760	32775	
3017	0	32812	32850	
3018	0	32852	32775	
3019	0	32848	32742	
3020	0	32812	32671	
3021	0	32828	32772	
3022	0	32870	32784	
3023	0	32828	32860	
3024	0	32800	32807	
3025	0	32832	32694	
3026	0	32744	32768	
3027	0	32812	32664	
3028	0	32868	32807	
3029	0	32800	32770	
3030	0	32744	32860	
3031	0	32788	32810	
3032	0	32760	32706	
3033	0	32792	32742	
3034	0	32820	32700	
3035	0	32842	32834	
3036	0	32732	32750	
3037	0	32764	32807	
3038	0	32844	32805	
3039	0	32838	32684	
3040	0	32788	32742	
3041	0	32816	32668	
3042	0	32716	32706	
3043	0	32820	32764	
3044	0	32832	32798	
3045	0	32802	32828	
3046	0	32822	32652	
3047	0	32802	32768	
3048	0	32748	32724	
3049	0	32804	32746	
3050	0	32856	32734	
3051	0	32824	32742	
3052	0	32856	32774	
3053	0	32828	32836	
3054	0	32868	32828	
3055	0	32828	32710	
3056	0	32828	32814	
3057	0	32844	32708	
3058	0	32782	32862	
3059	0	32784	32805	
3060	0	32794	32850	
3061	0	32794	32828	
3062	0	32804	32620	
3063	0	32816	32828	
3064	0	32816	32742	
3065	0	32786	32736	
3066	0	32762	32752	
3067	0	32888	32838	
3068	0	32744	32840	
3069	0	32780	32676	
3070	0	32816	32711	
3071	0	32822	32694	
3072	0	32746	32806	
3073	0	32848	32754	
3074	0	32792	32895	
3075	0	32792	32730	
3076	0	32820	32852	
3077	0	32872	32761	
3078	0	32840	32686	
3079	0	32836	32679	
3080	0	32848	32838	
3081	0	32800	32728	
3082	0	32816	32753	
3083	0	32760	32714	
3084	0	32768	32775	
3085	0	32800	32796	
3086	0	32848	32836	
3087	0	32834	32832	
3088	0	32804	32750	
3089	0	32840	32742	
3090	0	32788	32700	
3091	0	32856	32814	
3092	0	32776	32738	
3093	0	32784	32834	
3094	0	32860	32808	
3095	0	32804	32848	
3096	0	32862	32836	
3097	0	32880	32674	
3098	0	32828	32774	
3099	0	32824	32727	
3100	0	32740	32730	
3101	0	32866	32762	
3102	0	32830	32852	
3103	0	32814	32852	
3104	0	32836	32724	
3105	0	32808	32775	
3106	0	32820	32807	
3107	0	32824	32863	
3108	0	32792	32788	
3109	0	32828	32740	
3110	0	32858	32774	
3111	0	32832	32774	
3112	0	32804	32828	
3113	0	32780	32760	
3114	0	32816	32708	
3115	0	32726	32886	
3116	0	32828	32660	
3117	0	32816	32770	
3118	0	32836	32798	
3119	0	32836	32831	
3120	0	32824	32767	
3121	0	32864	32828	
3122	0	32844	32790	
3123	0	32820	32756	
3124	0	32778	32764	
3125	0	32724	32816	
3126	0	32832	32852	
3127	0	32844	32842	
3128	0	32860	32648	
3129	0	32808	32769	
3130	0	32794	32774	
3131	0	32826	32868	
3132	0	32836	32798	
3133	0	32862	32811	
3134	0	32874	32894	
3135	0	32776	32775	
3136	0	32776	32764	
3137	0	32768	32724	
3138	0	32908	32732	
3139	0	32852	32626	
3140	0	32856	32743	
3141	0	32820	32652	
3142	0	32776	32846	
3143	0	32786	32790	
3144	0	32808	32826	
3145	0	32848	32751	
3146	0	32772	32774	
3147	0	32746	32764	
3148	0	32810	32800	
3149	0	32844	32728	
3150	0	32870	32712	
3151	0	32752	32796	
3152	0	32822	32871	
3153	0	32758	32815	
3154	0	32868	32885	
3155	0	32794	32790	
3156	0	32806	32668	
3157	0	32769	32748	
3158	0	32850	32716	
3159	0	32844	32780	
3160	0	32832	32708	
3161	0	32832	32784	
3162	0	32784	32862	
3163	0	32736	32714	
3164	0	32828	32752	
3165	0	32816	32727	
3166	0	32816	32814	
3167	0	32800	32652	
3168	0	32768	32860	
3169	0	32838	32750	
3170	0	32796	32815	
3171	0	32816	32800	
3172	0	32782	32616	
3173	0	32750	32775	
3174	0	32832	32706	
3175	0	32766	32854	
3176	0	32804	32750	
3177	0	32814	32852	
3178	0	32792	32702	
3179	0	32800	32756	
3180	0	32794	32616	
3181	0	32838	32800	
3182	0	32806	32727	
3183	0	32820	32850	
3184	0	32852	32785	
3185	0	32800	32838	
3186	0	32793	32714	
3187	0	32868	32730	
3188	0	32808	32746	
3189	0	32780	32792	
3190	0	32772	32868	
3191	0	32800	32893	
3192	0	32802	32810	
3193	0	32768	32688	
3194	0	32800	32772	
3195	0	32800	32711	
3196	0	32812	32760	
3197	0	32792	32689	
3198	0	32804	32838	
3199	0	32802	32770	
3200	0	32820	32828	
3201	0	32792	32764	
3202	0	32850	32786	
3203	0	32800	32804	
3204	0	32824	32700	
3205	0	32802	32756	
3206	0	32798	32689	
3207	0	32862	32874	
3208	0	32800	32790	
3209	0	32780	32708	
3210	0	32842	32720	
3211	0	32814	32698	
3212	0	32876	32804	
3213	0	32817	32644	
3214	0	32828	32790	
3215	0	32780	32806	
3216	0	32794	32822	
3217	0	32896	32807	
3218	0	32872	32824	
3219	0	32852	32879	
3220	0	32836	32712	
3221	0	32824	32764	
3222	0	32816	32708	
3223	0	32832	32807	
3224	0	32812	32730	
3225	0	32822	32844	
3226	0	32824	32767	
3227	0	32828	32697	
3228	0	32732	32806	
3229	0	32756	32764	
3230	0	32776	32798	
3231	0	32784	32775	
3232	0	32772	32744	
3233	0	32840	32730	
3234	0	32736	32842	
3235	0	32834	32786	
3236	0	32836	32756	
3237	0	32802	32772	
3238	0	32744	32647	
3239	0	32870	32770	
3240	0	32804	32748	
3241	0	32808	32852	
3242	0	32820	32814	
3243	0	32768	32839	
3244	0	32790	32828	
3245	0	32796	32836	
3246	0	32860	32836	
3247	0	32852	32743	
3248	0	32816	32740	
3249	0	32796	32696	
3250	0	32792	32792	
3251	0	32778	32708	
3252	0	32842	32775	
3253	0	32800	32626	
3254	0	32832	32794	
3255	0	32752	32612	
3256	0	32788	32720	
3257	0	32860	32716	
3258	0	32834	32806	
3259	0	32736	32848	
3260	0	32808	32836	
3261	0	32780	32710	
3262	0	32768	32788	
3263	0	32798	32822	
3264	0	32856	32890	
3265	0	32844	32854	
3266	0	32836	32820	
3267	0	32844	32743	
3268	0	32772	32839	
3269	0	32752	32775	
3270	0	32799	32728	
3271	0	32796	32775	
3272	0	32844	32758	
3273	0	32894	32748	
3274	0	32834	32738	
3275	0	32852	32774	
3276	0	32812	32732	
3277	0	32792	32815	
3278	0	32836	32726	
3279	0	32880	32847	
3280	0	32780	32770	
3281	0	32760	32814	
3282	0	32824	32706	
3283	0	32832	32775	
3284	0	32744	32836	
3285	0	32862	32728	
3286	0	32780	32762	
3287	0	32832	32722	
3288	0	32804	32734	
3289	0	32812	32724	
3290	0	32832	32752	
3291	0	32780	32672	
3292	0	32812	32744	
3293	0	32880	32727	
3294	0	32844	32808	
3295	0	32776	32662	
3296	0	32828	32750	
3297	0	32800	32660	
3298	0	32824	32744	
3299	0	32866	32708	
3300	0	32868	32871	
3301	0	32808	32691	
3302	0	32770	32838	
3303	0	32820	32788	
3304	0	32860	32780	
3305	0	32806	32822	
3306	0	32814	32898	
3307	0	32830	32742	
3308	0	32796	32795	
3309	0	32834	32760	
3310	0	32820	32775	
3311	0	32798	32758	
3312	0	32842	32724	
3313	0	32756	32856	
3314	0	32782	32658	
3315	0	32778	32804	
3316	0	32792	32768	
3317	0	32748	32807	
3318	0	32782	32716	
3319	0	32816	32826	
3320	0	32770	32734	
3321	0	32770	32718	
3322	0	32846	32726	
3323	0	32824	32790	
3324	0	32790	32804	
3325	0	32828	32736	
3326	0	32784	32830	
3327	0	32832	32720	
3328	0	32784	32772	
3329	0	32756	32742	
3330	0	32820	32750	
3331	0	32820	32801	
3332	0	32824	32796	
3333	0	32804	32804	
3334	0	32812	32714	
3335	0	32870	32838	
3336	0	32868	32706	
3337	0	32862	32718	
3338	0	32844	32794	
3339	0	32834	32722	
3340	0	32788	32684	
3341	0	32726	32785	
3342	0	32856	32742	
3343	0	32744	32766	
3344	0	32836	32670	
3345	0	32746	32796	
3346	0	32812	32668	
3347	0	32796	32775	
3348	0	32840	32738	
3349	0	32826	32766	
3350	0	32762	32775	
3351	0	32778	32800	
3352	0	32808	32756	
3353	0	32816	32728	
3354	0	32774	32818	
3355	0	32852	32686	
3356	0	32810	32750	
3357	0	32816	32743	
3358	0	32876	32756	
3359	0	32872	32768	
3360	0	32824	32708	
3361	0	32784	32689	
3362	0	32870	32720	
3363	0	32758	32775	
3364	0	32836	32704	
3365	0	32856	32761	
3366	0	32821	32830	
3367	0	32808	32730	
3368	0	32820	32762	
3369	0	32796	32724	
3370	0	32768	32746	
3371	0	32816	32844	
3372	0	32897	32706	
3373	0	32800	32806	
3374	0	32784	32744	
3375	0	32804	32800	
3376	0	32806	32664	
3377	0	32933	32870	
3378	0	32828	32804	
3379	0	32816	32742	
3380	0	32798	32754	
3381	0	32812	32766	
3382	0	32840	32742	
3383	0	32772	32807	
3384	0	32804	32743	
3385	0	32810	32732	
3386	0	32846	32775	
3387	0	32838	32823	
3388	0	32802	32838	
3389	0	32860	32690	
3390	0	32812	32742	
3391	0	32776	32734	
3392	0	32788	32824	
3393	0	32830	32854	
3394	0	32856	32654	
3395	0	32842	32708	
3396	0	32852	32746	
3397	0	32812	32819	
3398	0	32844	32808	
3399	0	32788	32764	
3400	0	32828	32740	
3401	0	32812	32704	
3402	0	32816	32869	
3403	0	32792	32757	
3404	0	32804	32762	
3405	0	32788	32768	
3406	0	32828	32775	
3407	0	32810	32836	
3408	0	32820	32762	
3409	0	32784	32655	
3410	0	32812	32814	
3411	0	32768	32710	
3412	0	32756	32784	
3413	0	32824	32844	
3414	0	32814	32768	
3415	0	32834	32742	
3416	0	32814	32756	
3417	0	32888	32824	
3418	0	32764	32710	
3419	0	32740	32734	
3420	0	32836	32718	
3421	0	32784	32806	
3422	0	32836	32752	
3423	0	32836	32816	
3424	0	32788	32752	
3425	0	32826	32846	
3426	0	32836	32828	
3427	0	32744	32690	
3428	0	32812	32860	
3429	0	32858	32730	
3430	0	32864	32736	
3431	0	32808	32606	
3432	0	32800	32789	
3433	0	32814	32646	
3434	0	32878	32775	
3435	0	32788	32748	
3436	0	32788	32704	
3437	0	32828	32794	
3438	0	32794	32810	
3439	0	32860	32752	
3440	0	32804	32666	
3441	0	32852	32798	
3442	0	32810	32796	
3443	0	32816	32814	
3444	0	32806	32791	
3445	0	32836	32810	
3446	0	32804	32820	
3447	0	32884	32710	
3448	0	32780	32750	
3449	0	32772	32764	
3450	0	32784	32802	
3451	0	32804	32788	
3452	0	32841	32702	
3453	0	32808	32758	
3454	0	32806	32804	
3455	0	32792	32888	
3456	0	32832	32867	
3457	0	32822	32719	
3458	0	32756	32756	
3459	0	32804	32788	
3460	0	32828	32608	
3461	0	32816	32806	
3462	0	32832	32756	
3463	0	32778	32746	
3464	0	32856	32687	
3465	0	32788	32775	
3466	0	32812	32826	
3467	0	32848	32774	
3468	0	32812	32642	
3469	0	32764	32846	
3470	0	32846	32770	
3471	0	32792	32720	
3472	0	32788	32812	
3473	0	32872	32692	
3474	0	32798	32800	
3475	0	32788	32766	
3476	0	32808	32804	
3477	0	32772	32750	
3478	0	32930	32810	
3479	0	32780	32740	
3480	0	32804	32716	
3481	0	32832	32664	
3482	0	32884	32811	
3483	0	32776	32838	
3484	0	32720	32697	
3485	0	32780	32814	
3486	0	32782	32662	
3487	0	32798	32750	
3488	0	32820	32740	
3489	0	32808	32804	
3490	0	32788	32775	
3491	0	32778	32696	
3492	0	32820	32746	
3493	0	32884	32632	
3494	0	32824	32842	
3495	0	32856	32788	
3496	0	32804	32804	
3497	0	32848	32706	
3498	0	32842	32831	
3499	0	32800	32818	
3500	0	32788	32732	
3501	0	32762	32796	
3502	0	32764	32676	
3503	0	32774	32712	
3504	0	32744	32750	
3505	0	32772	32844	
3506	0	32856	32811	
3507	0	32832	32708	
3508	0	32858	32744	
3509	0	32848	32720	
3510	0	32756	32720	
3511	0	32816	32712	
3512	0	32790	32775	
3513	0	32836	32642	
3514	0	32818	32830	
3515	0	32784	32828	
3516	0	32856	32804	
3517	0	32800	32839	
3518	0	32820	32696	
3519	0	32752	32746	
3520	0	32820	32708	
3521	0	32788	32849	
3522	0	32792	32752	
3523	0	32828	32820	
3524	0	32861	32666	
3525	0	32848	32852	
3526	0	32808	32808	
3527	0	32776	32864	
3528	0	32832	32775	
3529	0	32840	32736	
3530	0	32844	32764	
3531	0	32796	32708	
3532	0	32794	32768	
3533	0	32792	32743	
3534	0	32786	32743	
3535	0	32860	32819	
3536	0	32820	32775	
3537	0	32810	32862	
3538	0	32836	32868	
3539	0	32816	32832	
3540	0	32830	32804	
3541	0	32810	32807	
3542	0	32856	32716	
3543	0	32772	32767	
3544	0	32848	32711	
3545	0	32790	32821	
3546	0	32808	32738	
3547	0	32821	32838	
3548	0	32794	32692	
3549	0	32764	32753	
3550	0	32736	32697	
3551	0	32848	32806	
3552	0	32860	32620	
3553	0	32804	32740	
3554	0	32788	32854	
3555	0	32836	32790	
3556	0	32792	32704	
3557	0	32872	32692	
3558	0	32826	32718	
3559	0	32792	32722	
3560	0	32824	32716	
3561	0	32804	32695	
3562	0	32800	32888	
3563	0	32760	32724	
3564	0	32814	32732	
3565	0	32824	32687	
3566	0	32812	32838	
3567	0	32836	32878	
3568	0	32794	32714	
3569	0	32784	32775	
3570	0	32790	32674	
3571	0	32864	32722	
3572	0	32804	32836	
3573	0	32858	32758	
3574	0	32808	32897	
3575	0	32800	32850	
3576	0	32828	32868	
3577	0	32812	32870	
3578	0	32824	32880	
3579	0	32800	32855	
3580	0	32820	32796	
3581	0	32820	33026	
3582	0	32752	32871	
3583	0	32766	32736	
3584	0	32836	32818	
3585	0	32860	32652	
3586	0	32772	32642	
3587	0	32852	32764	
3588	0	32772	32724	
3589	0	32824	32676	
3590	0	32848	32766	
3591	0	32832	32654	
3592	0	32764	32770	
3593	0	32854	32726	
3594	0	32790	32819	
3595	0	32784	32943	
3596	0	32812	32831	
3597	0	32800	32700	
3598	0	32812	32808	
3599	0	32806	32822	
3600	0	32856	32812	
3601	0	32776	32826	
3602	0	32788	32839	
3603	0	32796	32836	
3604	0	32828	32772	
3605	0	32872	32903	
3606	0	32814	32764	
3607	0	32900	32916	
3608	0	32820	32844	
3609	0	32800	32864	
3610	0	32838	32876	
3611	0	32784	32686	
3612	0	32872	32625	
3613	0	32868	32753	
3614	0	32882	32890	
3615	0	32792	32822	
3616	0	32752	32866	
3617	0	32718	32882	
3618	0	32750	32986	
3619	0	32748	32664	
3620	0	32668	32710	
3621	0	32864	32686	
3622	0	32618	32576	
3623	0	32698	32318	
3624	0	32770	32674	
3625	0	32784	32796	
3626	0	32748	32760	
3627	0	32772	32731	
3628	0	32744	32476	
3629	0	32830	32660	
3630	0	32796	32734	
3631	0	32786	32704	
3632	0	32770	32732	
3633	0	32772	33020	
3634	0	32798	33028	
3635	0	32808	32775	
3636	0	32812	32507	
3637	0	32840	32534	
3638	0	32854	32698	
3639	0	32800	32736	
3640	0	32894	32764	
3641	0	32970	32568	
3642	0	32930	32812	
3643	0	32796	32636	
3644	0	32768	32674	
3645	0	32656	32590	
3646	0	32680	32576	
3647	0	32476	32486	
3648	0	32538	32668	
3649	0	32640	32647	
3650	0	32696	32670	
3651	0	32826	32788	
3652	0	32944	33026	
3653	0	33084	33066	
3654	0	33348	33031	
3655	0	33322	33082	
3656	0	33264	33356	
3657	0	33220	33412	
3658	0	33208	33314	
3659	0	33072	33356	
3660	0	32920	33102	
3661	0	32872	33144	
3662	0	32884	32860	
3663	0	32708	32808	
3664	0	32656	32921	
3665	0	32706	32572	
3666	0	32736	32472	
3667	0	32760	32420	
3668	0	32854	32748	
3669	0	32796	32498	
3670	0	32862	32660	
3671	0	32804	32609	
3672	0	32812	32586	
3673	0	32816	32644	
3674	0	32730	32660	
3675	0	32744	32558	
3676	0	32672	32752	
3677	0	32636	32696	
3678	0	32652	32818	
3679	0	32666	32790	
3680	0	32644	32770	
3681	0	32682	32832	
3682	0	32676	32684	
3683	0	32744	32704	
3684	0	32712	32765	
3685	0	32740	32692	
3686	0	32766	32775	
3687	0	32796	32744	
3688	0	32736	32870	
3689	0	32728	32798	
3690	0	32802	32634	
3691	0	32882	32930	
3692	0	32933	32882	
3693	0	32852	32860	
3694	0	32932	32836	
3695	0	32792	32656	
3696	0	32788	32639	
3697	0	32836	32647	
3698	0	32784	32622	
3699	0	32780	32640	
3700	0	32810	32607	
3701	0	32828	32830	
3702	0	32878	32708	
3703	0	32812	32879	
3704	0	32740	32774	
3705	0	32700	32772	
3706	0	32886	32666	
3707	0	32870	32696	
3708	0	32820	32935	
3709	0	32820	32758	
3710	0	32808	32862	
3711	0	32832	32668	
3712	0	32848	32662	
3713	0	32894	32716	
3714	0	32772	32746	
3715	0	32752	32614	
3716	0	32852	32675	
3717	0	32864	32842	
3718	0	32836	32843	
3719	0	32892	32948	
3720	0	32936	32695	
3721	0	32912	32706	
3722	0	32948	32908	
3723	0	32852	32838	
3724	0	32716	32708	
3725	0	32760	32758	
3726	0	32760	32760	
3727	0	32788	32682	
3728	0	32656	33060	
3729	0	32676	33031	
3730	0	32766	32708	
3731	0	32782	32654	
3732	0	32866	32688	
3733	0	32816	32810	
3734	0	32868	32554	
3735	0	32792	32516	
3736	0	32848	32631	
3737	0	32832	32736	
3738	0	32826	32926	
3739	0	32816	32756	
3740	0	32840	32820	
3741	0	32864	32884	
3742	0	32956	33066	
3743	0	32816	33095	
3744	0	32870	32710	
3745	0	32920	32770	
3746	0	32936	32666	
3747	0	32854	32662	
3748	0	32858	32696	
3749	0	32868	32788	
3750	0	32880	32978	
3751	0	32944	32801	
3752	0	32901	32654	
3753	0	32817	32519	
3754	0	32694	32764	
3755	0	32680	32654	
3756	0	32728	32724	
3757	0	32694	32834	
3758	0	32552	32672	
3759	0	32572	32756	
3760	0	32620	32785	
3761	0	32712	32865	
3762	0	32728	32802	
3763	0	32920	32748	
3764	0	32986	32951	
3765	0	33062	32618	
3766	0	33040	32546	
3767	0	32958	32882	
3768	0	32846	32840	
3769	0	32848	32790	
3770	0	32704	32679	
3771	0	32734	32606	
3772	0	32852	32672	
3773	0	32722	32807	
3774	0	32632	32938	
3775	0	32604	32918	
3776	0	32656	32804	
3777	0	32618	32834	
3778	0	32764	32622	
3779	0	32872	32708	
3780	0	32850	32663	
3781	0	32848	32804	
3782	0	32826	32920	
3783	0	32728	32826	
3784	0	32932	32756	
3785	0	32878	32612	
3786	0	32908	32864	
3787	0	32916	32775	
3788	0	32948	32840	
3789	0	32950	32634	
3790	0	32900	32634	
3791	0	32992	32872	
3792	0	32772	32834	
3793	0	32772	32930	
3794	0	32792	32775	
3795	0	32716	32711	
3796	0	32740	32562	
3797	0	32802	32676	
3798	0	32848	32775	
3799	0	32736	32558	
3800	0	32772	32578	
3801	0	32844	32688	
3802	0	32838	32903	
3803	0	32852	32967	
3804	0	32862	32868	
3805	0	32848	32614	
3806	0	32792	32628	
3807	0	32848	32633	
3808	0	32820	32810	
3809	0	32834	32756	
3810	0	32816	32903	
3811	0	32716	32820	
3812	0	32724	32804	
3813	0	32800	32948	
3814	0	32778	32538	
3815	0	32752	32647	
3816	0	32728	32700	
3817	0	32728	32844	
3818	0	32718	32758	
3819	0	32856	33226	
3820	0	32756	32624	
3821	0	32760	32335	
3822	0	32812	32372	
3823	0	32900	32404	
3824	0	32896	32531	
3825	0	32992	32882	
3826	0	32916	32695	
3827	0	32789	32884	
3828	0	32760	32834	
3829	0	32708	32998	
3830	0	32744	32874	
3831	0	32696	32886	
3832	0	32846	32742	
3833	0	32916	32828	
3834	0	32880	32714	
3835	0	33000	32964	
3836	0	32852	32844	
3837	0	32860	32646	
3838	0	32842	32792	
3839	0	32788	32775	
3840	0	32792	32794	
3841	0	32898	33071	
3842	0	32700	32488	
3843	0	32612	32503	
3844	0	32588	32455	
3845	0	32628	32624	
3846	0	32556	32464	
3847	0	32728	32502	
3848	0	32664	32510	
3849	0	32740	32740	
3850	0	32834	32841	
3851	0	32860	32758	
3852	0	33034	32990	
3853	0	33190	33580	
3854	0	33136	33094	
3855	0	32974	32532	
3856	0	32906	32880	
3857	0	32878	32760	
3858	0	32912	32714	
3859	0	33052	32814	
3860	0	33052	32464	
3861	0	33014	32712	
3862	0	32822	32418	
3863	0	32548	32263	
3864	0	32496	32458	
3865	0	32588	32672	
3866	0	32594	32802	
3867	0	32464	32748	
3868	0	32548	32736	
3869	0	32608	32912	
3870	0	32592	33030	
3871	0	32696	32926	
3872	0	32860	33120	
3873	0	32908	32647	
3874	0	32996	32596	
3875	0	33008	32774	
3876	0	32926	32926	
3877	0	32848	32898	
3878	0	32766	32998	
3879	0	32784	32820	
3880	0	32736	32570	
3881	0	32844	32812	
3882	0	32984	32640	
3883	0	32908	32564	
3884	0	32932	32748	
3885	0	32892	32788	
3886	0	32870	32988	
3887	0	32674	32934	
3888	0	32708	32912	
3889	0	32944	32436	
3890	0	32920	32602	
3891	0	32804	32648	
3892	0	32724	33010	
3893	0	32584	33052	
3894	0	32668	32868	
3895	0	32660	32626	
3896	0	32822	32670	
3897	0	32938	32882	
3898	0	33080	32760	
3899	0	33028	32678	
3900	0	33136	32566	
3901	0	33208	32407	
3902	0	33188	32624	
3903	0	32976	32806	
3904	0	32896	32652	
3905	0	32812	32711	
3906	0	32660	32903	
3907	0	32924	33372	
3908	0	32896	33146	
3909	0	32778	33094	
3910	0	32672	33194	
3911	0	32657	33031	
3912	0	32678	32582	
3913	0	32624	32568	
3914	0	32562	32213	
3915	0	32804	32143	
3916	0	32643	32215	
3917	0	32452	32160	
3918	0	32226	32480	
3919	0	32438	32537	
3920	0	32642	32872	
3921	0	32696	32952	
3922	0	32878	33070	
3923	0	32892	33402	
3924	0	32800	33234	
3925	0	32802	32284	
3926	0	32808	32458	
3927	0	33044	32836	
3928	0	32998	32980	
3929	0	32976	33350	
3930	0	32920	33830	
3931	0	32810	33786	
3932	0	32984	32816	
3933	0	32968	32630	
3934	0	32850	32088	
3935	0	32868	32108	
3936	0	32752	32212	
3937	0	32896	32437	
3938	0	32740	32924	
3939	0	32951	32998	
3940	0	33040	32680	
3941	0	32968	32738	
3942	0	32820	32426	
3943	0	32700	32816	
3944	0	32736	32932	
3945	0	32676	32719	
3946	0	32585	32647	
3947	0	32528	32962	
3948	0	32588	32530	
3949	0	32772	32440	
3950	0	32804	32619	
3951	0	32908	32774	
3952	0	32846	32560	
3953	0	32912	32676	
3954	0	32944	32694	
3955	0	32858	32775	
3956	0	32888	32728	
3957	0	32926	32871	
3958	0	32992	33080	
3959	0	32956	33399	
3960	0	32952	33264	
3961	0	32936	32868	
3962	0	33012	33084	
3963	0	32956	32726	
3964	0	32766	32508	
3965	0	32700	32848	
3966	0	32682	32602	
3967	0	32658	32982	
3968	0	32740	33094	
3969	0	32842	32518	
3970	0	32744	32716	
3971	0	32620	32490	
3972	0	32648	32596	
3973	0	32692	32590	
3974	0	32714	32692	
3975	0	32718	33356	
3976	0	32768	33146	
3977	0	32644	32724	
3978	0	32668	32656	
3979	0	32778	32730	
3980	0	32940	32168	
3981	0	32944	32182	
3982	0	32902	32482	
3983	0	33016	32834	
3984	0	33044	32790	
3985	0	32890	32967	
3986	0	32756	32724	
3987	0	32736	33224	
3988	0	32602	32936	
3989	0	32548	33752	
3990	0	32548	32828	
3991	0	32608	32306	
3992	0	32782	32982	
3993	0	32732	32582	
3994	0	32830	32775	
3995	0	33012	33342	
3996	0	32992	32654	
3997	0	33102	32850	
3998	0	33124	33108	
3999	0	33016	32860	
4000	0	32792	33184	
4001	0	32820	32848	
4002	0	32688	32070	
4003	0	32744	31778	
4004	0	32666	32244	
4005	0	32556	32208	
4006	0	32528	31991	
4007	0	32408	32392	
4008	0	32448	32132	
4009	0	32604	32020	
4010	0	32932	32334	
4011	0	32996	32942	
4012	0	33170	33354	
4013	0	33348	33366	
4014	0	33268	33159	
4015	0	33288	32956	
4016	0	33248	33095	
4017	0	33152	33384	
4018	0	32940	33182	
4019	0	32776	32934	
4020	0	32662	32846	
4021	0	32696	33228	
4022	0	32680	32900	
4023	0	32654	33136	
4024	0	32692	32886	
4025	0	32640	32480	
4026	0	32752	32446	
4027	0	32884	32636	
4028	0	32977	32824	
4029	0	33016	33135	
4030	0	32888	32348	
4031	0	32744	32895	
4032	0	32744	33214	
4033	0	32596	33996	
4034	0	32618	33394	
4035	0	32608	32732	
4036	0	32718	32237	
4037	0	32632	31846	
4038	0	32540	31482	
4039	0	32684	31736	
4040	0	32804	31751	
4041	0	32802	32142	
4042	0	32906	32734	
4043	0	32930	32892	
4044	0	32885	33041	
4045	0	32880	33166	
4046	0	32876	33091	
4047	0	32752	32894	
4048	0	32908	32692	
4049	0	32736	33440	
4050	0	32696	33952	
4051	0	32464	33382	
4052	0	32634	32660	
4053	0	32776	33008	
4054	0	32804	33146	
4055	0	32888	34090	
4056	0	33092	31751	
4057	0	33056	31944	
4058	0	32908	32903	
4059	0	32704	32378	
4060	0	32884	33287	
4061	0	32952	33016	
4062	0	32952	32340	
4063	0	32798	32134	
4064	0	32872	32288	
4065	0	32930	31602	
4066	0	32754	31714	
4067	0	32696	31516	
4068	0	32732	31906	
4069	0	32800	32824	
4070	0	32732	33222	
4071	0	32832	33428	
4072	0	33060	33706	
4073	0	33048	33780	
4074	0	32982	31782	
4075	0	32914	31522	
4076	0	32746	32444	
4077	0	32680	33458	
4078	0	32672	34042	
4079	0	32700	33282	
4080	0	32796	33264	
4081	0	32884	33338	
4082	0	32912	32798	
4083	0	33024	32468	
4084	0	33062	31728	
4085	0	32848	32436	
4086	0	32758	32647	
4087	0	32660	32764	
4088	0	32614	33446	
4089	0	32540	33994	
4090	0	32591	34188	
4091	0	32474	33707	
4092	0	32620	33022	
4093	0	32624	33246	
4094	0	32872	32583	
4095	0	33034	31440	
4096	0	33080	31151	
4097	0	33056	30808	
4098	0	33140	31842	
4099	0	33088	33620	
4100	0	32996	33652	
4101	0	32636	33088	
4102	0	32564	32774	
4103	0	32504	33342	
4104	0	32308	31450	
4105	0	32316	30834	
4106	0	32532	31974	
4107	0	32692	32742	
4108	0	32768	32638	
4109	0	32904	32800	
4110	0	32784	33020	
4111	0	32736	33060	
4112	0	32744	33440	
4113	0	32740	33214	
4114	0	32912	33504	
4115	0	33000	33575	
4116	0	33064	32934	
4117	0	33258	32570	
4118	0	33216	32611	
4119	0	33204	32784	
4120	0	33108	32980	
4121	0	33222	33222	
4122	0	32968	33344	
4123	0	32860	33014	
4124	0	32866	33908	
4125	0	32996	33358	
4126	0	33054	32948	
4127	0	33084	31844	
4128	0	33008	31800	
4129	0	32826	31928	
4130	0	32608	32752	
4131	0	32520	32775	
4132	0	32564	32512	
4133	0	32592	32706	
4134	0	32712	33780	
4135	0	32784	32903	
4136	0	32720	32740	
4137	0	32640	32302	
4138	0	32584	32356	
4139	0	32822	32628	
4140	0	32740	32620	
4141	0	32788	32460	
4142	0	32836	32864	
4143	0	32868	33038	
4144	0	32824	32865	
4145	0	32756	32980	
4146	0	32760	32568	
4147	0	32696	32546	
4148	0	32624	33402	
4149	0	32584	31905	
4150	0	32474	31948	
4151	0	32258	32452	
4152	0	32734	32922	
4153	0	32804	33502	
4154	0	32900	33626	
4155	0	32928	33522	
4156	0	32954	32988	
4157	0	32796	32040	
4158	0	32768	32775	
4159	0	32680	33151	
4160	0	32880	32550	
4161	0	32916	31842	
4162	0	32980	32246	
4163	0	32926	32662	
4164	0	32800	32070	
4165	0	32762	33098	
4166	0	32760	33534	
4167	0	32842	33878	
4168	0	32856	33607	
4169	0	32972	33543	
4170	0	32844	33151	
4171	0	32880	32369	
4172	0	32800	32327	
4173	0	32898	31806	
4174	0	32732	31002	
4175	0	32954	31952	
4176	0	33106	32947	
4177	0	33060	33150	
4178	0	32986	33004	
4179	0	32842	32980	
4180	0	32764	32692	
4181	0	32894	32876	
4182	0	32920	33112	
4183	0	32840	32700	
4184	0	32708	33026	
4185	0	32872	32926	
4186	0	32984	34010	
4187	0	32942	32742	
4188	0	32996	31664	
4189	0	33072	33312	
4190	0	33108	35340	
4191	0	32920	33988	
4192	0	32998	33393	
4193	0	32906	33253	
4194	0	32700	32728	
4195	0	32736	31412	
4196	0	32692	30584	
4197	0	32380	29515	
4198	0	32330	30432	
4199	0	32504	31398	
4200	0	32304	32418	
4201	0	32292	32854	
4202	0	32488	33508	
4203	0	32680	33484	
4204	0	32748	33699	
4205	0	32904	33498	
4206	0	32972	33370	
4207	0	33248	33394	
4208	0	32852	33591	
4209	0	32704	33454	
4210	0	32868	33082	
4211	0	32864	33172	
4212	0	32762	32878	
4213	0	32660	32686	
4214	0	32676	31702	
4215	0	32806	33600	
4216	0	32936	32935	
4217	0	32912	33237	
4218	0	32878	34096	
4219	0	32908	34030	
4220	0	32956	33556	
4221	0	33088	31668	
4222	0	33086	31226	
4223	0	32952	30856	
4224	0	32960	30644	
4225	0	32820	31004	
4226	0	32648	31560	
4227	0	32712	32380	
4228	0	32906	33347	
4229	0	32712	33684	
4230	0	32792	34516	
4231	0	32836	33626	
4232	0	32750	34054	
4233	0	32794	35074	
4234	0	32806	34344	
4235	0	32856	32988	
4236	0	32878	31638	
4237	0	32880	31298	
4238	0	32744	31903	
4239	0	32862	32378	
4240	0	32892	32584	
4241	0	33020	32764	
4242	0	33065	31546	
4243	0	32870	31808	
4244	0	32564	31748	
4245	0	32380	33004	
4246	0	32352	32871	
4247	0	32386	33722	
4248	0	32520	33092	
4249	0	32398	32811	
4250	0	32520	33560	
4251	0	32724	33467	
4252	0	32862	33138	
4253	0	32692	32674	
4254	0	32928	33244	
4255	0	33128	32580	
4256	0	32834	32724	
4257	0	32836	32135	
4258	0	32832	32542	
4259	0	33040	32439	
4260	0	32848	32724	
4261	0	32898	32552	
4262	0	32940	33160	
4263	0	33092	33414	
4264	0	33008	33148	
4265	0	33030	32962	
4266	0	32984	32890	
4267	0	32816	32854	
4268	0	32726	32616	
4269	0	32884	31541	
4270	0	32976	31620	
4271	0	33000	32664	
4272	0	33068	32966	
4273	0	32940	33031	
4274	0	32814	33046	
4275	0	32760	33132	
4276	0	32740	32700	
4277	0	32672	33094	
4278	0	32656	32836	
4279	0	32756	32890	
4280	0	32686	32647	
4281	0	32560	32556	
4282	0	32494	32334	
4283	0	32528	33222	
4284	0	32632	33516	
4285	0	32772	33039	
4286	0	33078	33740	
4287	0	32917	33088	
4288	0	32738	32746	
4289	0	32513	31806	
4290	0	32540	32135	
4291	0	32560	32220	
4292	0	32278	32455	
4293	0	32328	32728	
4294	0	32608	32418	
4295	0	32464	32590	
4296	0	32604	32448	
4297	0	32552	33040	
4298	0	32924	34566	
4299	0	33382	33614	
4300	0	33704	33046	
4301	0	33544	33014	
4302	0	33488	32220	
4303	0	33492	31940	
4304	0	33320	31026	
4305	0	33156	31316	
4306	0	33356	31744	
4307	0	33026	32443	
4308	0	32736	32816	
4309	0	32524	33031	
4310	0	32500	34680	
4311	0	32544	33536	
4312	0	32412	34150	
4313	0	32548	34044	
4314	0	32740	32752	
4315	0	32972	32918	
4316	0	32654	32316	
4317	0	32462	31534	
4318	0	32444	31946	
4319	0	32352	31808	
4320	0	32348	32554	
4321	0	32660	32337	
4322	0	32848	32714	
4323	0	32772	33222	
4324	0	32836	33108	
4325	0	32818	33028	
4326	0	33056	32932	
4327	0	33162	32506	
4328	0	33092	33471	
4329	0	33404	33611	
4330	0	33244	32984	
4331	0	33108	33086	
4332	0	32956	32796	
4333	0	32910	33598	
4334	0	32938	32708	
4335	0	32772	32567	
4336	0	32706	32672	
4337	0	32564	32950	
4338	0	32688	32634	
4339	0	32580	32775	
4340	0	32468	31868	
4341	0	32608	32736	
4342	0	32592	32976	
4343	0	32400	33350	
4344	0	32384	34178	
4345	0	32468	32878	
4346	0	32784	31554	
4347	0	33206	31576	
4348	0	33218	31818	
4349	0	33342	31878	
4350	0	33242	31799	
4351	0	33216	32814	
4352	0	33202	32975	
4353	0	33100	33124	
4354	0	32952	33494	
4355	0	32834	33524	
4356	0	32756	33558	
4357	0	32560	33916	
4358	0	32548	32606	
4359	0	32604	33644	
4360	0	32808	33788	
4361	0	32572	33159	
4362	0	32420	32468	
4363	0	32672	32547	
4364	0	32796	31204	
4365	0	32684	31536	
4366	0	32436	31953	
4367	0	32384	31806	
4368	0	32708	31846	
4369	0	32734	32206	
4370	0	33276	32352	
4371	0	33248	32442	
4372	0	32916	32658	
4373	0	32958	33158	
4374	0	32780	34008	
4375	0	32500	33220	
4376	0	32608	33040	
4377	0	32760	33272	
4378	0	33048	33310	
4379	0	33160	33561	
4380	0	33004	33860	
4381	0	33084	33910	
4382	0	32904	33924	
4383	0	32884	33910	
4384	0	32708	34644	
4385	0	32736	31632	
4386	0	32828	30208	
4387	0	32896	30513	
4388	0	32974	30582	
4389	0	32640	31492	
4390	0	32684	31876	
4391	0	32596	30904	
4392	0	32684	31504	
4393	0	32760	32703	
4394	0	32936	33287	
4395	0	32928	33552	
4396	0	32896	33890	
4397	0	33004	33671	
4398	0	32884	34350	
4399	0	32792	33768	
4400	0	32870	33900	
4401	0	32578	33270	
4402	0	32946	33752	
4403	0	32948	33380	
4404	0	33010	32418	
4405	0	33196	32359	
4406	0	33160	31786	
4407	0	32884	32012	
4408	0	32774	32130	
4409	0	32604	32330	
4410	0	32500	31724	
4411	0	32540	32236	
4412	0	32572	33968	
4413	0	32740	34420	
4414	0	32808	33660	
4415	0	32731	32404	
4416	0	32460	32478	
4417	0	32568	31630	
4418	0	32384	32374	
4419	0	32282	32172	
4420	0	32432	32372	
4421	0	32524	32958	
4422	0	32608	32001	
4423	0	32408	32440	
4424	0	32504	32574	
4425	0	32621	32753	
4426	0	32718	32832	
4427	0	32964	32844	
4428	0	32976	33154	
4429	0	33034	33138	
4430	0	33178	33372	
4431	0	33388	33200	
4432	0	33436	32668	
4433	0	33320	33074	
4434	0	33204	33096	
4435	0	33144	32366	
4436	0	33160	32947	
4437	0	33000	33020	
4438	0	33056	33244	
4439	0	33064	33064	
4440	0	33140	32938	
4441	0	33028	33096	
4442	0	32826	33302	
4443	0	32884	33237	
4444	0	32844	32788	
4445	0	32868	33488	
4446	0	32894	32478	
4447	0	32896	31990	
4448	0	32676	31698	
4449	0	32484	32308	
4450	0	32432	31984	
4451	0	32556	32497	
4452	0	32504	32532	
4453	0	32576	32939	
4454	0	32862	33036	
4455	0	32844	32864	
4456	0	32968	33386	
4457	0	32806	33876	
4458	0	32748	33300	
4459	0	32734	33636	
4460	0	32694	34990	
4461	0	32716	34458	
4462	0	32936	31088	
4463	0	32656	30842	
4464	0	32530	31564	
4465	0	32346	31072	
4466	0	32542	31592	
4467	0	32778	31820	
4468	0	32528	32114	
4469	0	32304	32716	
4470	0	32702	33480	
4471	0	32856	32847	
4472	0	32808	32738	
4473	0	33190	33744	
4474	0	33272	32832	
4475	0	33108	33112	
4476	0	33016	33543	
4477	0	33238	32679	
4478	0	33032	33060	
4479	0	32842	32864	
4480	0	32702	33159	
4481	0	32684	33238	
4482	0	32826	31802	
4483	0	32725	33308	
4484	0	32692	33383	
4485	0	32728	33927	
4486	0	32848	33388	
4487	0	32930	32394	
4488	0	32856	31398	
4489	0	32888	31178	
4490	0	32976	31888	
4491	0	32880	32864	
4492	0	32804	34386	
4493	0	32752	32488	
4494	0	32816	32260	
4495	0	32768	32903	
4496	0	32932	32338	
4497	0	32744	32455	
4498	0	32596	32465	
4499	0	32824	32674	
4500	0	32802	32604	
4501	0	32952	32490	
4502	0	32888	33040	
4503	0	32956	33335	
4504	0	32880	32832	
4505	0	32794	32668	
4506	0	32814	32538	
4507	0	32738	32852	
4508	0	32640	32889	
4509	0	32869	32672	
4510	0	32914	32884	
4511	0	32810	32944	
4512	0	32940	32798	
4513	0	32896	32914	
4514	0	32916	33748	
4515	0	32708	32920	
4516	0	32840	34144	
4517	0	32724	32927	
4518	0	32588	34036	
4519	0	32664	32696	
4520	0	32568	31900	
4521	0	32480	31652	
4522	0	32738	31963	
4523	0	32864	32751	
4524	0	32968	31654	
4525	0	32728	30724	
4526	0	32520	31530	
4527	0	32712	32532	
4528	0	32554	33434	
4529	0	32728	32638	
4530	0	32800	32986	
4531	0	32848	34336	
4532	0	32812	33912	
4533	0	32772	33956	
4534	0	32856	33680	
4535	0	32936	33558	
4536	0	33056	32404	
4537	0	33266	31548	
4538	0	33237	31708	
4539	0	33076	31594	
4540	0	32872	32436	
4541	0	32864	32782	
4542	0	33016	32646	
4543	0	33186	34154	
4544	0	33148	33404	
4545	0	32988	31970	
4546	0	32892	33460	
4547	0	32704	32854	
4548	0	32566	33579	
4549	0	32424	31628	
4550	0	32228	31184	
4551	0	31770	32228	
4552	0	32014	32246	
4553	0	32488	32226	
4554	0	32410	33622	
4555	0	32370	34430	
4556	0	32644	34090	
4557	0	32804	33782	
4558	0	32880	31968	
4559	0	33280	31719	
4560	0	33488	31930	
4561	0	33340	31301	
4562	0	33080	32022	
4563	0	33108	32030	
4564	0	32996	33728	
4565	0	33138	33576	
4566	0	33314	34238	
4567	0	33168	31996	
4568	0	33236	32392	
4569	0	33268	32980	
4570	0	33116	32961	
4571	0	32986	33536	
4572	0	32520	33644	
4573	0	32516	32284	
4574	0	32666	31339	
4575	0	32716	32056	
4576	0	32656	32682	
4577	0	32456	32468	
4578	0	32536	33020	
4579	0	32500	32606	
4580	0	32514	33982	
4581	0	32490	33070	
4582	0	32478	32464	
4583	0	32480	33340	
4584	0	32600	32886	
4585	0	32908	32364	
4586	0	32888	33252	
4587	0	32950	33342	
4588	0	33200	33350	
4589	0	33088	33006	
4590	0	32856	32884	
4591	0	32860	31896	
4592	0	32936	32054	
4593	0	32818	32474	
4594	0	32834	33214	
4595	0	32668	33488	
4596	0	32641	32172	
4597	0	32636	31266	
4598	0	32528	31278	
4599	0	32516	32106	
4600	0	32548	33031	
4601	0	32672	33660	
4602	0	33048	33336	
4603	0	33128	33452	
4604	0	33032	32808	
4605	0	32784	32630	
4606	0	32602	33316	
4607	0	32744	33626	
4608	0	32826	33767	
4609	0	32796	32629	
4610	0	32984	32198	
4611	0	32952	31943	
4612	0	32976	32822	
4613	0	32966	32368	
4614	0	32980	33002	
4615	0	33052	33209	
4616	0	33164	31556	
4617	0	33216	31668	
4618	0	33048	32864	
4619	0	32906	32678	
4620	0	32772	33476	
4621	0	32628	33688	
4622	0	32824	32518	
4623	0	32732	32944	
4624	0	32652	32934	
4625	0	32704	33298	
4626	0	32634	32854	
4627	0	32520	32712	
4628	0	32744	33012	
4629	0	32660	32784	
4630	0	32856	31959	
4631	0	32674	33810	
4632	0	32698	33238	
4633	0	32348	32450	
4634	0	32168	35505	
4635	0	32208	32496	
4636	0	32320	32118	
4637	0	32836	33916	
4638	0	33188	33780	
4639	0	32936	32756	
4640	0	32810	29840	
4641	0	32900	30710	
4642	0	33024	30524	
4643	0	33020	31036	
4644	0	32830	31684	
4645	0	32918	31751	
4646	0	33125	32391	
4647	0	33016	33820	
4648	0	32856	33088	
4649	0	32932	33650	
4650	0	33160	33706	
4651	0	33180	34243	
4652	0	33136	33044	
4653	0	33286	33324	
4654	0	33264	33284	
4655	0	33134	32818	
4656	0	32970	33274	
4657	0	32784	33272	
4658	0	32774	33583	
4659	0	32809	32385	
4660	0	32572	33188	
4661	0	32548	33734	
4662	0	32556	31688	
4663	0	32616	32228	
4664	0	32680	31874	
4665	0	32720	32398	
4666	0	32758	32253	
4667	0	32496	33108	
4668	0	32570	33792	
4669	0	32600	33038	
4670	0	32730	32878	
4671	0	32762	31940	
4672	0	32764	31888	
4673	0	32826	32519	
4674	0	32904	32700	
4675	0	33036	33174	
4676	0	33108	32006	
4677	0	32928	32878	
4678	0	32952	34352	
4679	0	32666	33166	
4680	0	32580	33276	
4681	0	32628	33015	
4682	0	32672	33378	
4683	0	32660	31880	
4684	0	32522	31540	
4685	0	32564	32296	
4686	0	32866	32286	
4687	0	32852	34618	
4688	0	32708	31143	
4689	0	32704	32986	
4690	0	32860	33340	
4691	0	32986	33372	
4692	0	32884	32263	
4693	0	32876	31998	
4694	0	32989	32474	
4695	0	32896	32508	
4696	0	32932	32647	
4697	0	32944	32670	
4698	0	32808	33422	
4699	0	32780	33447	
4700	0	33010	33734	
4701	0	32868	33466	
4702	0	32970	32800	
4703	0	32916	32288	
4704	0	32696	31848	
4705	0	32766	32398	
4706	0	32696	32567	
4707	0	32712	32542	
4708	0	32600	32423	
4709	0	32686	32488	
4710	0	32976	32906	
4711	0	32984	33692	
4712	0	32967	34560	
4713	0	32772	32404	
4714	0	32738	33516	
4715	0	32712	34202	
4716	0	32596	32740	
4717	0	32656	32770	
4718	0	32604	31570	
4719	0	32468	30412	
4720	0	32706	31832	
4721	0	32576	32652	
4722	0	32700	32184	
4723	0	33172	32296	
4724	0	33012	32696	
4725	0	32930	33730	
4726	0	32752	32596	
4727	0	32758	33122	
4728	0	32728	33256	
4729	0	33002	31958	
4730	0	33184	33071	
4731	0	33020	32324	
4732	0	33108	33880	
4733	0	33088	33859	
4734	0	32848	32242	
4735	0	32988	33300	
4736	0	33220	33140	
4737	0	33064	32334	
4738	0	32984	32839	
4739	0	33072	32604	
4740	0	33078	32342	
4741	0	32812	32193	
4742	0	32884	32590	
4743	0	32684	32348	
4744	0	32512	33383	
4745	0	32484	33142	
4746	0	32622	32676	
4747	0	32490	32632	
4748	0	32556	32312	
4749	0	32512	32554	
4750	0	32528	33140	
4751	0	32506	32884	
4752	0	32764	32922	
4753	0	32804	33166	
4754	0	32980	32946	
4755	0	32912	33182	
4756	0	32860	32572	
4757	0	32748	32643	
4758	0	32812	32496	
4759	0	32966	32418	
4760	0	32876	33152	
4761	0	32772	33194	
4762	0	32682	33878	
4763	0	32520	34428	
4764	0	32416	31216	
4765	0	32692	31309	
4766	0	32936	32598	
4767	0	32984	32948	
4768	0	32808	32743	
4769	0	33004	32425	
4770	0	32970	32240	
4771	0	32958	32343	
4772	0	32900	32343	
4773	0	32870	32238	
4774	0	32912	32554	
4775	0	32640	33094	
4776	0	32696	33104	
4777	0	32760	32878	
4778	0	32798	32760	
4779	0	32992	33153	
4780	0	33172	33263	
4781	0	33296	33048	
4782	0	33152	33402	
4783	0	33064	33092	
4784	0	33042	32960	
4785	0	32876	32676	
4786	0	32692	32622	
4787	0	32736	32810	
4788	0	32664	32620	
4789	0	32638	32544	
4790	0	32626	32492	
4791	0	32668	32794	
4792	0	32712	32402	
4793	0	32766	32423	
4794	0	32736	32750	
4795	0	32752	33026	
4796	0	32742	32306	
4797	0	32812	33175	
4798	0	32692	33327	
4799	0	32680	33964	
4800	0	32848	33031	
4801	0	32862	33037	
4802	0	32736	32324	
4803	0	32817	32936	
4804	0	32752	32612	
4805	0	32792	32675	
4806	0	32744	31964	
4807	0	32404	31808	
4808	0	32454	31664	
4809	0	32844	32628	
4810	0	32892	32582	
4811	0	32604	32936	
4812	0	32760	33378	
4813	0	32817	32632	
4814	0	32936	33476	
4815	0	33136	32655	
4816	0	32928	33054	
4817	0	32746	33024	
4818	0	32764	32263	
4819	0	32844	32064	
4820	0	32928	32796	
4821	0	32992	32768	
4822	0	33136	32556	
4823	0	32928	33086	
4824	0	32912	33045	
4825	0	32728	33264	
4826	0	32640	32916	
4827	0	32630	33030	
4828	0	32764	32702	
4829	0	32972	32880	
4830	0	32848	32516	
4831	0	32778	32670	
4832	0	33026	32892	
4833	0	32948	32812	
4834	0	32858	32775	
4835	0	32620	32788	
4836	0	32556	33146	
4837	0	32586	32375	
4838	0	32776	32640	
4839	0	32836	32615	
4840	0	32868	32190	
4841	0	32780	32952	
4842	0	32704	33148	
4843	0	32652	32817	
4844	0	32780	32874	
4845	0	32680	32684	
4846	0	32746	32720	
4847	0	32758	32772	
4848	0	32800	32792	
4849	0	32728	32738	
4850	0	32660	32700	
4851	0	32702	32454	
4852	0	32736	32964	
4853	0	33022	33031	
4854	0	33480	32862	
4855	0	33224	32876	
4856	0	32952	32842	
4857	0	32788	33207	
4858	0	32864	33286	
4859	0	32668	33384	
4860	0	32642	32724	
4861	0	32804	31990	
4862	0	32850	32181	
4863	0	32736	32401	
4864	0	32602	32470	
4865	0	32764	32132	
4866	0	32598	32858	
4867	0	32624	32847	
4868	0	33052	32479	
4869	0	32976	32598	
4870	0	32864	32820	
4871	0	32824	32560	
4872	0	32796	33068	
4873	0	32680	33244	
4874	0	32686	33511	
4875	0	32636	33590	
4876	0	32640	32342	
4877	0	32782	32536	
4878	0	32924	32896	
4879	0	32948	32324	
4880	0	32964	32647	
4881	0	32708	32950	
4882	0	32748	32708	
4883	0	32716	32756	
4884	0	32728	32359	
4885	0	32720	32318	
4886	0	32676	32402	
4887	0	32872	32596	
4888	0	32860	32679	
4889	0	32736	32767	
4890	0	33124	32912	
4891	0	33180	32872	
4892	0	33058	33175	
4893	0	32978	32895	
4894	0	32976	32775	
4895	0	32712	32956	
4896	0	32764	32726	
4897	0	32808	32912	
4898	0	32644	33073	
4899	0	32856	33158	
4900	0	32852	32540	
4901	0	32800	33024	
4902	0	32900	32926	
4903	0	32958	32882	
4904	0	32744	33020	
4905	0	32760	32796	
4906	0	32686	32480	
4907	0	32588	32218	
4908	0	32704	32462	
4909	0	32826	32455	
4910	0	32884	32610	
4911	0	32894	32804	
4912	0	32888	32716	
4913	0	32848	32691	
4914	0	32836	32870	
4915	0	32868	32903	
4916	0	32980	32824	
4917	0	32980	32849	
4918	0	32936	33060	
4919	0	32982	33108	
4920	0	32904	33076	
4921	0	32804	33060	
4922	0	32728	32668	
4923	0	32436	33352	
4924	0	32604	32828	
4925	0	32760	32840	
4926	0	32748	32158	
4927	0	33002	32161	
4928	0	32632	32030	
4929	0	32848	32464	
4930	0	32876	32460	
4931	0	32808	32446	
4932	0	32682	32775	
4933	0	32552	32839	
4934	0	32608	32912	
4935	0	32800	32935	
4936	0	33000	32820	
4937	0	33184	32959	
4938	0	33036	32903	
4939	0	32876	32974	
4940	0	32992	32884	
4941	0	32940	32848	
4942	0	32784	32804	
4943	0	32690	33016	
4944	0	32780	33127	
4945	0	32646	33148	
4946	0	32628	32690	
4947	0	32534	33114	
4948	0	32612	33146	
4949	0	32792	33046	
4950	0	32834	32620	
4951	0	33080	32154	
4952	0	33200	32839	
4953	0	32976	32772	
4954	0	32872	32646	
4955	0	32908	32504	
4956	0	32840	32496	
4957	0	32794	32292	
4958	0	32744	32492	
4959	0	32716	32806	
4960	0	32650	32890	
4961	0	32576	32690	
4962	0	32616	32868	
4963	0	32666	33194	
4964	0	32792	33140	
4965	0	32908	32740	
4966	0	32863	32802	
4967	0	32708	32750	
4968	0	32762	32868	
4969	0	32902	32686	
4970	0	32826	32766	
4971	0	32752	32922	
4972	0	32876	32664	
4973	0	32916	32828	
4974	0	32824	32664	
4975	0	32800	32900	
4976	0	32804	32758	
4977	0	32570	32754	
4978	0	32672	32775	
4979	0	32776	32938	
4980	0	32684	33050	
4981	0	32758	32572	
4982	0	32920	32241	
4983	0	32840	32478	
4984	0	32834	32590	
4985	0	32968	32822	
4986	0	33012	32828	
4987	0	33020	32815	
4988	0	32980	32750	
4989	0	33132	32854	
4990	0	33002	32682	
4991	0	32780	32804	
4992	0	32792	32854	
4993	0	32916	32743	
4994	0	33122	32532	
4995	0	32976	33108	
4996	0	32740	33120	
4997	0	32744	33054	
4998	0	32740	32647	
4999	0	32788	32558	
5000	0	32918	32794	
5001	0	32868	32622	
5002	0	32852	32626	
5003	0	32740	32450	
5004	0	32686	32794	
5005	0	32576	32934	
5006	0	32646	33218	
5007	0	32625	32694	
5008	0	32596	33063	
5009	0	32590	33214	
5010	0	32612	32575	
5011	0	32870	32358	
5012	0	32936	32506	
5013	0	32848	32391	
5014	0	32864	32510	
5015	0	33140	32610	
5016	0	32930	32790	
5017	0	32750	32612	
5018	0	32696	32804	
5019	0	32792	33142	
5020	0	33000	32699	
5021	0	32920	32830	
5022	0	32732	32988	
5023	0	32788	32988	
5024	0	32636	33031	
5025	0	32736	33090	
5026	0	32780	32849	
5027	0	32792	32692	
5028	0	32672	32844	
5029	0	32692	32790	
5030	0	32816	32546	
5031	0	32858	32583	
5032	0	32932	32608	
5033	0	33148	32638	
5034	0	33160	32643	
5035	0	33134	33100	
5036	0	33048	32863	
5037	0	32888	32732	
5038	0	32714	32999	
5039	0	32644	32878	
5040	0	32772	32911	
5041	0	32852	32600	
5042	0	32844	32168	
5043	0	32830	32556	
5044	0	32784	32204	
5045	0	32736	32460	
5046	0	32856	33252	
5047	0	32704	32775	
5048	0	32768	32511	
5049	0	32768	32508	
5050	0	32706	32278	
5051	0	32664	32948	
5052	0	32840	32908	
5053	0	32840	32995	
5054	0	32752	32696	
5055	0	32778	32744	
5056	0	32572	32943	
5057	0	32604	32754	
5058	0	32604	32986	
5059	0	32700	32903	
5060	0	32804	32888	
5061	0	32868	32830	
5062	0	32928	32840	
5063	0	32888	32852	
5064	0	32868	32642	
5065	0	32788	32740	
5066	0	32904	32583	
5067	0	33070	32788	
5068	0	32964	32738	
5069	0	32980	33358	
5070	0	32730	32946	
5071	0	32726	32972	
5072	0	32776	32630	
5073	0	32864	32610	
5074	0	32838	32756	
5075	0	32892	32760	
5076	0	32994	32366	
5077	0	32801	32468	
5078	0	32858	32519	
5079	0	32838	32693	
5080	0	32836	32660	
5081	0	32736	33046	
5082	0	32704	32822	
5083	0	32852	32622	
5084	0	32842	32980	
5085	0	32832	32938	
5086	0	32848	32492	
5087	0	32720	32592	
5088	0	32652	32826	
5089	0	32678	32804	
5090	0	32656	32885	
5091	0	32764	32832	
5092	0	32744	32876	
5093	0	32752	32986	
5094	0	32708	32800	
5095	0	32805	32948	
5096	0	32804	32732	
5097	0	32836	32614	
5098	0	33018	32588	
5099	0	33008	32775	
5100	0	32932	32782	
5101	0	32812	32812	
5102	0	32836	32974	
5103	0	32744	33006	
5104	0	32752	32502	
5105	0	32896	32534	
5106	0	32732	32864	
5107	0	32686	32316	
5108	0	32820	32440	
5109	0	32802	32724	
5110	0	32792	32682	
5111	0	32700	32998	
5112	0	32554	33159	
5113	0	32774	32775	
5114	0	33140	32502	
5115	0	33184	32751	
5116	0	33060	32936	
5117	0	32970	32632	
5118	0	32904	32991	
5119	0	32772	32586	
5120	0	32746	32542	
5121	0	32900	32724	
5122	0	32740	32534	
5123	0	32612	32740	
5124	0	32742	32724	
5125	0	32568	32678	
5126	0	32720	33083	
5127	0	32894	32946	
5128	0	32864	33087	
5129	0	32844	32866	
5130	0	32836	33153	
5131	0	32948	32716	
5132	0	32852	32552	
5133	0	32836	32455	
5134	0	32768	32536	
5135	0	32664	32870	
5136	0	32790	32838	
5137	0	32634	32724	
5138	0	32692	32834	
5139	0	32728	33146	
5140	0	32722	32896	
5141	0	32738	32720	
5142	0	32596	32817	
5143	0	32688	32912	
5144	0	32750	32918	
5145	0	32964	32647	
5146	0	32876	32748	
5147	0	32864	32775	
5148	0	33004	32910	
5149	0	33056	32775	
5150	0	33068	32396	
5151	0	32986	32698	
5152	0	32772	32896	
5153	0	32652	33058	
5154	0	32638	32888	
5155	0	32833	33028	
5156	0	32906	32548	
5157	0	32952	32412	
5158	0	32984	32628	
5159	0	32936	32530	
5160	0	32962	32234	
5161	0	32892	32544	
5162	0	32696	33327	
5163	0	32764	33226	
5164	0	32888	33209	
5165	0	32712	32991	
5166	0	32700	32871	
5167	0	32820	32546	
5168	0	32836	32647	
5169	0	32770	32610	
5170	0	32704	32640	
5171	0	32666	32764	
5172	0	32798	32818	
5173	0	32756	33180	
5174	0	32824	33276	
5175	0	33028	32719	
5176	0	32724	32908	
5177	0	32708	32647	
5178	0	32580	32674	
5179	0	32540	32447	
5180	0	32584	32530	
5181	0	32622	32472	
5182	0	32642	32550	
5183	0	32772	32362	
5184	0	32800	32622	
5185	0	32852	32540	
5186	0	32766	32410	
5187	0	32676	32206	
5188	0	32584	32614	
5189	0	32552	32842	
5190	0	32722	32914	
5191	0	32760	32888	
5192	0	32844	32864	
5193	0	32944	32636	
5194	0	33126	32903	
5195	0	33020	32518	
5196	0	33118	32506	
5197	0	33036	32567	
5198	0	33022	32878	
5199	0	32944	32924	
5200	0	33082	32686	
5201	0	33072	32976	
5202	0	33180	33174	
5203	0	33134	33369	
5204	0	33152	33328	
5205	0	33192	33446	
5206	0	33004	33335	
5207	0	32836	33357	
5208	0	32756	33183	
5209	0	32628	33082	
5210	0	32676	33054	
5211	0	32616	32871	
5212	0	32626	32478	
5213	0	32628	32238	
5214	0	32484	32662	
5215	0	32446	32903	
5216	0	32744	32470	
5217	0	32688	32422	
5218	0	32800	32212	
5219	0	32884	32647	
5220	0	32986	32583	
5221	0	33052	32358	
5222	0	33028	32982	
5223	0	32868	33026	
5224	0	32856	32641	
5225	0	32692	32516	
5226	0	32698	32422	
5227	0	32548	32631	
5228	0	32510	32534	
5229	0	32526	32846	
5230	0	32660	32688	
5231	0	32760	32678	
5232	0	32888	32967	
5233	0	32940	32852	
5234	0	32932	33060	
5235	0	32900	32958	
5236	0	32826	32720	
5237	0	32756	33127	
5238	0	32854	33094	
5239	0	32820	32836	
5240	0	32816	32948	
5241	0	32848	33090	
5242	0	32608	32934	
5243	0	32612	32834	
5244	0	32672	32356	
5245	0	32636	32122	
5246	0	32712	32438	
5247	0	32802	32450	
5248	0	32778	32535	
5249	0	32884	32468	
5250	0	32837	32706	
5251	0	32994	32736	
5252	0	33006	32934	
5253	0	32960	32884	
5254	0	32890	32692	
5255	0	33092	32734	
5256	0	33036	32796	
5257	0	32894	32878	
5258	0	32768	33031	
5259	0	32608	32842	
5260	0	32710	32742	
5261	0	32704	33058	
5262	0	32704	32766	
5263	0	32676	32836	
5264	0	32706	32687	
5265	0	32924	32754	
5266	0	32880	32639	
5267	0	33006	32646	
5268	0	32872	32964	
5269	0	32848	33011	
5270	0	32916	32812	
5271	0	32766	32775	
5272	0	32712	32724	
5273	0	32812	32879	
5274	0	32786	32852	
5275	0	32676	32618	
5276	0	32836	32567	
5277	0	32820	32584	
5278	0	32804	32660	
5279	0	32800	32806	
5280	0	32808	32766	
5281	0	32720	32860	
5282	0	32794	32658	
5283	0	32732	32666	
5284	0	32656	32705	
5285	0	32712	32824	
5286	0	32760	32872	
5287	0	32760	32791	
5288	0	32808	32775	
5289	0	32856	32702	
5290	0	32828	32724	
5291	0	32820	32619	
5292	0	32876	32476	
5293	0	32946	32262	
5294	0	32886	32436	
5295	0	32980	32684	
5296	0	32968	32980	
5297	0	32960	32894	
5298	0	32998	33060	
5299	0	32984	32868	
5300	0	32824	32742	
5301	0	32846	32628	
5302	0	32766	32696	
5303	0	32810	32814	
5304	0	32780	32910	
5305	0	32724	32844	
5306	0	32816	32998	
5307	0	32728	33070	
5308	0	32658	33060	
5309	0	32694	32788	
5310	0	32708	32594	
5311	0	32728	32542	
5312	0	32768	32535	
5313	0	32814	32556	
5314	0	32884	32628	
5315	0	32762	32671	
5316	0	32756	32702	
5317	0	32686	33120	
5318	0	32764	33006	
5319	0	32856	32792	
5320	0	32920	33174	
5321	0	32660	33056	
5322	0	32740	32700	
5323	0	32754	32294	
5324	0	32880	32519	
5325	0	32948	32673	
5326	0	32936	32702	
5327	0	32844	33050	
5328	0	32720	32462	
5329	0	32738	32775	
5330	0	32852	33004	
5331	0	32846	32926	
5332	0	32788	32852	
5333	0	32814	32760	
5334	0	32914	33159	
5335	0	32996	32900	
5336	0	32976	32634	
5337	0	32954	32614	
5338	0	32896	32751	
5339	0	32934	32816	
5340	0	32686	32714	
5341	0	32656	32576	
5342	0	32732	32703	
5343	0	32760	32790	
5344	0	32692	32602	
5345	0	32636	32752	
5346	0	32668	32924	
5347	0	32660	32894	
5348	0	32676	32636	
5349	0	32703	32652	
5350	0	32768	32790	
5351	0	32872	32714	
5352	0	32912	32820	
5353	0	32924	32582	
5354	0	32908	32878	
5355	0	32864	32702	
5356	0	32864	32823	
5357	0	32888	32922	
5358	0	32816	32746	
5359	0	32712	32871	
5360	0	32728	32946	
5361	0	32828	32716	
5362	0	32788	32508	
5363	0	32788	32534	
5364	0	33012	32698	
5365	0	33016	32492	
5366	0	32956	32732	
5367	0	32910	32687	
5368	0	32894	32920	
5369	0	32798	32894	
5370	0	32868	32942	
5371	0	32802	32682	
5372	0	32800	32658	
5373	0	32806	32881	
5374	0	32880	32952	
5375	0	32900	32874	
5376	0	32814	32634	
5377	0	32772	32800	
5378	0	32870	32577	
5379	0	32804	32550	
5380	0	32744	33034	
5381	0	32760	32599	
5382	0	32596	32960	
5383	0	32436	33002	
5384	0	32508	32948	
5385	0	32608	32740	
5386	0	32600	32900	
5387	0	32720	32580	
5388	0	32785	32386	
5389	0	32896	32692	
5390	0	32952	32622	
5391	0	32976	32634	
5392	0	33050	32533	
5393	0	33000	32726	
5394	0	33024	32712	
5395	0	32936	32892	
5396	0	32948	32924	
5397	0	32956	32865	
5398	0	32924	33008	
5399	0	32892	32806	
5400	0	32784	32775	
5401	0	32818	32588	
5402	0	32806	32670	
5403	0	32777	32882	
5404	0	32744	32886	
5405	0	32773	32882	
5406	0	32758	32716	
5407	0	32836	32628	
5408	0	32792	32686	
5409	0	32640	32722	
5410	0	32672	32871	
5411	0	32672	32775	
5412	0	32692	32550	
5413	0	32594	32788	
5414	0	32642	32830	
5415	0	32698	32868	
5416	0	32832	32838	
5417	0	32936	32762	
5418	0	32944	32732	
5419	0	33008	32775	
5420	0	32928	32796	
5421	0	32914	32731	
5422	0	32856	32752	
5423	0	32802	32775	
5424	0	32824	32628	
5425	0	32770	32714	
5426	0	32720	32768	
5427	0	32732	32772	
5428	0	32802	32752	
5429	0	32908	32710	
5430	0	32832	32816	
5431	0	33060	32786	
5432	0	32908	32862	
5433	0	32888	32990	
5434	0	32820	33000	
5435	0	32762	32935	
5436	0	32872	32908	
5437	0	32774	32870	
5438	0	32768	32532	
5439	0	32698	32660	
5440	0	32720	32414	
5441	0	32680	32644	
5442	0	32838	32760	
5443	0	32900	32796	
5444	0	32914	32838	
5445	0	32858	32728	
5446	0	32864	32842	
5447	0	32772	32893	
5448	0	32840	32812	
5449	0	32836	32820	
5450	0	32806	32854	
5451	0	32866	32708	
5452	0	32834	32911	
5453	0	32782	32693	
5454	0	32792	32616	
5455	0	32824	33006	
5456	0	32776	33031	
5457	0	32708	32444	
5458	0	32768	32832	
5459	0	32804	32666	
5460	0	32876	32796	
5461	0	33022	32534	
5462	0	32930	32662	
5463	0	32800	32887	
5464	0	32808	32804	
5465	0	32784	32662	
5466	0	32852	32839	
5467	0	32744	32992	
5468	0	32716	32615	
5469	0	32848	32830	
5470	0	32880	32642	
5471	0	32878	32938	
5472	0	32784	32858	
5473	0	32772	32666	
5474	0	32868	32848	
5475	0	32712	32703	
5476	0	32732	32946	
5477	0	32880	32799	
5478	0	32882	32758	
5479	0	32816	32722	
5480	0	32770	32927	
5481	0	32764	32826	
5482	0	32724	32938	
5483	0	32817	32775	
5484	0	32896	32792	
5485	0	32764	32542	
5486	0	32742	32551	
5487	0	32836	32528	
5488	0	32756	32620	
5489	0	32922	32764	
5490	0	33000	32774	
5491	0	32908	32764	
5492	0	32820	32788	
5493	0	32860	32854	
5494	0	32784	32948	
5495	0	32884	33087	
5496	0	32736	32775	
5497	0	32684	32703	
5498	0	32754	32668	
5499	0	32800	33052	
5500	0	32932	32922	
5501	0	32840	32546	
5502	0	32784	32767	
5503	0	32840	32678	
5504	0	32728	32740	
5505	0	32768	32800	
5506	0	32804	32636	
5507	0	32796	32656	
5508	0	32746	32416	
5509	0	32884	32824	
5510	0	32820	32844	
5511	0	32756	32695	
5512	0	32858	32782	
5513	0	32596	32866	
5514	0	32774	32935	
5515	0	32816	32775	
5516	0	32872	32610	
5517	0	32816	32810	
5518	0	32852	32808	
5519	0	32928	32736	
5520	0	32840	32610	
5521	0	32824	32951	
5522	0	32856	32842	
5523	0	32810	32710	
5524	0	32888	32838	
5525	0	32904	32846	
5526	0	32780	32852	
5527	0	32796	32894	
5528	0	32862	32726	
5529	0	32784	32540	
5530	0	32780	32706	
5531	0	32804	32738	
5532	0	32788	32801	
5533	0	32820	32688	
5534	0	32748	32670	
5535	0	32786	32494	
5536	0	32858	32766	
5537	0	32848	32623	
5538	0	32876	32638	
5539	0	32914	32594	
5540	0	32920	32716	
5541	0	32724	32622	
5542	0	32834	32764	
5543	0	32788	32806	
5544	0	32776	32608	
5545	0	32728	32742	
5546	0	32714	32934	
5547	0	32800	32902	
5548	0	32776	33050	
5549	0	32772	32678	
5550	0	32884	32992	
5551	0	32752	32960	
5552	0	32770	32484	
5553	0	32762	32578	
5554	0	32816	32744	
5555	0	32768	32775	
5556	0	32628	32849	
5557	0	32736	32871	
5558	0	32774	32931	
5559	0	32922	32642	
5560	0	32832	32590	
5561	0	32816	32660	
5562	0	32900	32631	
5563	0	32932	32704	
5564	0	32828	32775	
5565	0	32824	32980	
5566	0	32944	32761	
5567	0	32836	32994	
5568	0	32860	32874	
5569	0	32846	32912	
5570	0	32912	32668	
5571	0	32860	32612	
5572	0	32804	32468	
5573	0	32732	32684	
5574	0	32716	32518	
5575	0	32800	32647	
5576	0	32684	32642	
5577	0	32700	32727	
5578	0	32778	32775	
5579	0	32772	32810	
5580	0	32868	33002	
5581	0	32952	32816	
5582	0	32960	32810	
5583	0	32932	32724	
5584	0	32976	32726	
5585	0	32856	32894	
5586	0	32880	32903	
5587	0	32864	32928	
5588	0	32764	32870	
5589	0	32784	32775	
5590	0	32720	32750	
5591	0	32708	32647	
5592	0	32838	32636	
5593	0	32788	32891	
5594	0	32788	32855	
5595	0	32814	32916	
5596	0	32876	32812	
5597	0	32756	32774	
5598	0	32748	32828	
5599	0	32836	32654	
5600	0	32936	32706	
5601	0	32784	32706	
5602	0	32838	32554	
5603	0	32788	32658	
5604	0	32796	32676	
5605	0	32770	32788	
5606	0	32688	33082	
5607	0	32836	32820	
5608	0	32822	32978	
5609	0	32780	32828	
5610	0	32730	32866	
5611	0	32740	32888	
5612	0	32816	32620	
5613	0	32840	32738	
5614	0	32780	32554	
5615	0	32748	32940	
5616	0	32784	32882	
5617	0	32696	32800	
5618	0	32746	32774	
5619	0	32697	32830	
5620	0	32760	32788	
5621	0	32834	32507	
5622	0	32820	32666	
5623	0	32864	32698	
5624	0	32784	32772	
5625	0	32920	32743	
5626	0	32988	32618	
5627	0	32900	32732	
5628	0	32840	32710	
5629	0	32830	32725	
5630	0	32936	32785	
5631	0	32860	32726	
5632	0	32903	32865	
5633	0	32864	32732	
5634	0	32810	32984	
5635	0	32776	33024	
5636	0	32864	32972	
5637	0	32836	32878	
5638	0	32866	32916	
5639	0	32852	32742	
5640	0	32881	32688	
5641	0	32860	32654	
5642	0	32774	33066	
5643	0	32700	32974	
5644	0	32706	32870	
5645	0	32692	32634	
5646	0	32656	32432	
5647	0	32776	32694	
5648	0	32792	32668	
5649	0	32884	32620	
5650	0	32916	32660	
5651	0	32808	32684	
5652	0	32792	32539	
5653	0	32824	32708	
5654	0	32816	32902	
5655	0	32864	32740	
5656	0	32820	32878	
5657	0	32868	32784	
5658	0	32904	32756	
5659	0	32922	32790	
5660	0	32832	32720	
5661	0	32828	32870	
5662	0	32756	32775	
5663	0	32794	32864	
5664	0	32852	32906	
5665	0	32804	32764	
5666	0	32800	32871	
5667	0	32766	32867	
5668	0	32824	32796	
5669	0	32764	32840	
5670	0	32780	32832	
5671	0	32772	32966	
5672	0	32816	32881	
5673	0	32638	32500	
5674	0	32784	32540	
5675	0	32908	32412	
5676	0	32844	32468	
5677	0	32796	32794	
5678	0	32844	32798	
5679	0	32910	32662	
5680	0	32822	32712	
5681	0	32919	32876	
5682	0	32880	32871	
5683	0	32916	32794	
5684	0	32804	32775	
5685	0	32800	32582	
5686	0	32748	32734	
5687	0	32840	32709	
5688	0	32800	32759	
5689	0	32738	32895	
5690	0	32852	32754	
5691	0	32912	32844	
5692	0	32922	32852	
5693	0	32866	32706	
5694	0	32842	32775	
5695	0	32852	32772	
5696	0	32836	32640	
5697	0	32756	32774	
5698	0	32698	32728	
5699	0	32752	32743	
5700	0	32724	32500	
5701	0	32720	32953	
5702	0	32792	33092	
5703	0	32688	32967	
5704	0	32630	32928	
5705	0	32854	32820	
5706	0	32994	32678	
5707	0	32865	32744	
5708	0	32876	32775	
5709	0	32864	32615	
5710	0	32844	32542	
5711	0	32674	32334	
5712	0	32856	32519	
5713	0	32924	32684	
5714	0	32894	32696	
5715	0	32906	32887	
5716	0	32872	32828	
5717	0	32884	32902	
5718	0	32828	32751	
5719	0	32828	32857	
5720	0	32792	32928	
5721	0	32740	32836	
5722	0	32774	32620	
5723	0	32772	32756	
5724	0	32828	32792	
5725	0	32752	32643	
5726	0	32802	32638	
5727	0	32752	32654	
5728	0	32804	32964	
5729	0	32836	32818	
5730	0	32852	32820	
5731	0	32816	32944	
5732	0	32832	32746	
5733	0	32856	32870	
5734	0	32672	32775	
5735	0	32624	32806	
5736	0	32660	32932	
5737	0	32840	32736	
5738	0	32730	32774	
5739	0	32840	32688	
5740	0	32842	32762	
5741	0	32852	32839	
5742	0	32932	32686	
5743	0	32964	32682	
5744	0	32928	32548	
5745	0	32778	32628	
5746	0	32740	32632	
5747	0	32756	32631	
5748	0	32727	32718	
5749	0	32700	32752	
5750	0	32776	32811	
5751	0	32820	32823	
5752	0	32848	32865	
5753	0	32768	32808	
5754	0	32728	32764	
5755	0	32852	32843	
5756	0	32893	32862	
5757	0	32772	32852	
5758	0	32822	32726	
5759	0	32832	32786	
5760	0	32770	32944	
5761	0	32757	32693	
5762	0	32778	32740	
5763	0	32812	32711	
5764	0	32782	32771	
5765	0	32804	32960	
5766	0	32892	32696	
5767	0	32812	32590	
5768	0	32696	32686	
5769	0	32800	32710	
5770	0	32780	32620	
5771	0	32846	32806	
5772	0	32872	32588	
5773	0	32846	32860	
5774	0	32840	32942	
5775	0	32852	32718	
5776	0	32862	32766	
5777	0	32836	32764	
5778	0	32758	32810	
5779	0	32744	32936	
5780	0	32768	32696	
5781	0	32780	32804	
5782	0	32828	32772	
5783	0	32852	32767	
5784	0	32904	32816	
5785	0	32832	32775	
5786	0	32788	32814	
5787	0	32784	32635	
5788	0	32780	32806	
5789	0	32790	32798	
5790	0	32824	32769	
5791	0	32784	32738	
5792	0	32804	32898	
5793	0	32832	32684	
5794	0	32782	32810	
5795	0	32728	32694	
5796	0	32790	32561	
5797	0	32650	32417	
5798	0	32824	32740	
5799	0	32816	32820	
5800	0	32820	32926	
5801	0	32824	32740	
5802	0	32808	32730	
5803	0	32772	32967	
5804	0	32880	33014	
5805	0	33016	32796	
5806	0	32964	32780	
5807	0	32832	32970	
5808	0	32856	32836	
5809	0	32844	32858	
5810	0	32740	32725	
5811	0	32826	32814	
5812	0	32936	32792	
5813	0	32780	32720	
5814	0	32848	32638	
5815	0	32780	32599	
5816	0	32668	32358	
5817	0	32836	32574	
5818	0	32780	32911	
5819	0	32720	32629	
5820	0	32688	32939	
5821	0	32720	32962	
5822	0	32784	32794	
5823	0	32796	33031	
5824	0	32840	32766	
5825	0	32846	32672	
5826	0	32804	32832	
5827	0	32802	32804	
5828	0	32766	32759	
5829	0	32904	32930	
5830	0	32784	32555	
5831	0	32816	32725	
5832	0	32984	32823	
5833	0	32852	32824	
5834	0	32728	32750	
5835	0	32776	32708	
5836	0	32896	32640	
5837	0	32888	32812	
5838	0	32776	32880	
5839	0	32664	32892	
5840	0	32788	32852	
5841	0	32848	32679	
5842	0	32688	32718	
5843	0	32852	32619	
5844	0	32913	32606	
5845	0	32976	32596	
5846	0	32800	32562	
5847	0	32788	32460	
5848	0	32748	32704	
5849	0	32872	33056	
5850	0	32812	33036	
5851	0	32748	32875	
5852	0	32860	32860	
5853	0	32982	32775	
5854	0	32836	32811	
5855	0	32908	32788	
5856	0	32974	32742	
5857	0	32897	32792	
5858	0	32886	32754	
5859	0	32814	32738	
5860	0	32828	32738	
5861	0	32828	32760	
5862	0	32804	32702	
5863	0	32754	32839	
5864	0	32780	32740	
5865	0	32778	32798	
5866	0	32748	32722	
5867	0	32808	32890	
5868	0	32712	32793	
5869	0	32736	32708	
5870	0	32724	32734	
5871	0	32796	32872	
5872	0	32777	32746	
5873	0	32780	32756	
5874	0	32826	32710	
5875	0	32792	32694	
5876	0	32840	32707	
5877	0	32872	32620	
5878	0	32864	32852	
5879	0	32768	32953	
5880	0	32772	32868	
5881	0	32860	32898	
5882	0	32844	32799	
5883	0	32840	32679	
5884	0	32720	32724	
5885	0	32708	32844	
5886	0	32802	32698	
5887	0	32804	32534	
5888	0	32818	32484	
5889	0	32864	32577	
5890	0	32810	32898	
5891	0	32748	32871	
5892	0	32830	32760	
5893	0	32776	32700	
5894	0	32788	32884	
5895	0	32808	32702	
5896	0	32840	32766	
5897	0	32848	32656	
5898	0	32816	32754	
5899	0	32846	32902	
5900	0	32916	33014	
5901	0	32852	32838	
5902	0	32810	32764	
5903	0	32816	32967	
5904	0	32662	32790	
5905	0	32804	32920	
5906	0	32924	32672	
5907	0	32968	32866	
5908	0	32900	32808	
5909	0	32922	32891	
5910	0	32768	32850	
5911	0	32844	32775	
5912	0	32936	32743	
5913	0	32730	32688	
5914	0	32820	32900	
5915	0	32848	32926	
5916	0	32728	32676	
5917	0	32768	32733	
5918	0	32784	32706	
5919	0	32864	32508	
5920	0	32816	32470	
5921	0	32804	32366	
5922	0	32648	32436	
5923	0	32718	32553	
5924	0	32738	32660	
5925	0	32704	32743	
5926	0	32684	32634	
5927	0	32654	32501	
5928	0	32664	32688	
5929	0	32728	32682	
5930	0	32704	32504	
5931	0	32764	32702	
5932	0	32714	32650	
5933	0	32758	32670	
5934	0	32730	32614	
5935	0	32816	32566	
5936	0	32740	32688	
5937	0	32700	32671	
5938	0	32714	32944	
5939	0	32846	33028	
5940	0	32792	32812	
5941	0	32860	32724	
5942	0	32816	32410	
5943	0	32916	32458	
5944	0	32932	32424	
5945	0	33104	32944	
5946	0	33172	33240	
5947	0	33268	33344	
5948	0	33288	33454	
5949	0	33296	33448	
5950	0	33192	33616	
5951	0	33092	33264	
5952	0	33064	33182	
5953	0	32956	33152	
5954	0	32996	32914	
5955	0	32878	32854	
5956	0	32840	32526	
5957	0	32756	32444	
5958	0	32752	32502	
5959	0	32720	32500	
5960	0	32736	32376	
5961	0	32792	32524	
5962	0	32756	32391	
5963	0	32541	32484	
5964	0	32442	32638	
5965	0	32512	32750	
5966	0	32526	32738	
5967	0	32665	32558	
5968	0	32680	32775	
5969	0	32740	32748	
5970	0	32678	32842	
5971	0	32728	32964	
5972	0	32756	32854	
5973	0	32732	32896	
5974	0	32830	32820	
5975	0	32794	32856	
5976	0	32806	32788	
5977	0	32796	32772	
5978	0	32856	32804	
5979	0	32764	32844	
5980	0	32714	32892	
5981	0	32808	32871	
5982	0	32744	32679	
5983	0	32816	32634	
5984	0	32900	32506	
5985	0	32820	32764	
5986	0	32896	32806	
5987	0	32736	32830	
5988	0	32712	32775	
5989	0	32836	32894	
5990	0	32852	32934	
5991	0	32800	32816	
5992	0	32872	32714	
5993	0	32744	32730	
5994	0	32860	32820	
5995	0	32784	32644	
5996	0	32768	32674	
5997	0	32748	32718	
5998	0	32882	32950	
5999	0	32828	32807	
6000	0	32888	32968	
6001	0	32882	32798	
6002	0	32860	32790	
6003	0	32824	32742	
6004	0	32762	32903	
6005	0	32844	32510	
6006	0	32846	32578	
6007	0	32830	32622	
6008	0	32784	32466	
6009	0	32820	32598	
6010	0	32796	32686	
6011	0	32804	32834	
6012	0	32820	32894	
