# OpenSignals Text File Format. Version 1
# {"00:07:80:8C:0A:39": {"position": 0, "device": "biosignalsplux", "device name": "00:07:80:8C:0A:39", "device connection": "BTH00:07:80:8C:0A:39", "sampling rate": 1000, "resolution": [16, 16], "firmware version": 776, "comments": "", "keywords": "", "mode": 0, "sync interval": 2, "date": "2023-3-10", "time": "12:34:43.508", "channels": [1, 2], "sensor": ["EMG", "EMG"], "label": ["CH1", "CH2"], "column": ["nSeq", "DI", "CH1", "CH2"], "special": [{"SpO2": [80, 40, 5, 4, 3, 3]}, {"SpO2": [80, 40, 5, 4, 3, 3]}, {"SpO2": [80, 40, 5, 4, 3, 3]}, {"SpO2": [80, 40, 5, 4, 3, 3]}, {"SpO2": [80, 40, 5, 4, 3, 3]}, {"SpO2": [80, 40, 5, 4, 3, 3]}, {"SpO2": [80, 40, 5, 4, 3, 3]}, {"SpO2": [80, 40, 5, 4, 3, 3]}], "digital IO": [0, 1], "sleeve color": ["gray", "yellow"], "convertedValues": 0}}
# EndOfHeader
0	0	32782	32716	
1	0	32848	32806	
2	0	32778	32666	
3	0	32788	32808	
4	0	32750	32768	
5	0	32846	32760	
6	0	32792	32824	
7	0	32794	32728	
8	0	32812	32710	
9	0	32836	32704	
10	0	32820	32748	
11	0	32852	32730	
12	0	32820	32700	
13	0	32832	32812	
14	0	32746	32647	
15	0	32734	32736	
16	0	32768	32708	
17	0	32828	32724	
18	0	32836	32878	
19	0	32884	32796	
20	0	32818	32650	
21	0	32800	32792	
22	0	32844	32700	
23	0	32848	32800	
24	0	32800	32828	
25	0	32756	32818	
26	0	32792	32824	
27	0	32796	32692	
28	0	32756	32752	
29	0	32818	32695	
30	0	32754	32752	
31	0	32784	32768	
32	0	32834	32740	
33	0	32844	32724	
34	0	32848	32698	
35	0	32780	32775	
36	0	32852	32758	
37	0	32824	32770	
38	0	32768	32680	
39	0	32798	32856	
40	0	32798	32820	
41	0	32898	32876	
42	0	32820	32832	
43	0	32840	32810	
44	0	32772	32742	
45	0	32852	32766	
46	0	32828	32788	
47	0	32836	32828	
48	0	32896	32788	
49	0	32828	32828	
50	0	32802	32788	
51	0	32784	32794	
52	0	32750	32810	
53	0	32764	32780	
54	0	32844	32794	
55	0	32860	32858	
56	0	32856	32775	
57	0	32832	32738	
58	0	32802	32712	
59	0	32798	32672	
60	0	32876	32870	
61	0	32820	32806	
62	0	32820	32727	
63	0	32834	32736	
64	0	32800	32734	
65	0	32800	32742	
66	0	32832	32772	
67	0	32840	32672	
68	0	32772	32824	
69	0	32844	32740	
70	0	32804	32806	
71	0	32826	32810	
72	0	32812	32704	
73	0	32812	32808	
74	0	32800	32744	
75	0	32832	32808	
76	0	32816	32700	
77	0	32784	32746	
78	0	32834	32676	
79	0	32816	32836	
80	0	32796	32840	
81	0	32800	32692	
82	0	32748	32756	
83	0	32800	32800	
84	0	32814	32694	
85	0	32760	32692	
86	0	32780	32860	
87	0	32826	32834	
88	0	32792	32742	
89	0	32864	32774	
90	0	32772	32740	
91	0	32828	32798	
92	0	32880	32692	
93	0	32796	32689	
94	0	32800	32694	
95	0	32792	32820	
96	0	32794	32744	
97	0	32812	32716	
98	0	32788	32784	
99	0	32804	32808	
100	0	32824	32778	
101	0	32900	32776	
102	0	32760	32729	
103	0	32748	32708	
104	0	32752	32720	
105	0	32788	32690	
106	0	32764	32806	
107	0	32820	32826	
108	0	32788	32682	
109	0	32782	32775	
110	0	32848	32746	
111	0	32852	32719	
112	0	32848	32732	
113	0	32804	32704	
114	0	32806	32832	
115	0	32828	32814	
116	0	32832	32720	
117	0	32818	32800	
118	0	32740	32764	
119	0	32820	32686	
120	0	32800	32780	
121	0	32814	32758	
122	0	32820	32724	
123	0	32792	32753	
124	0	32848	32692	
125	0	32788	32800	
126	0	32836	32724	
127	0	32833	32752	
128	0	32744	32780	
129	0	32800	32870	
130	0	32770	32660	
131	0	32824	32768	
132	0	32800	32842	
133	0	32856	32738	
134	0	32844	32848	
135	0	32820	32768	
136	0	32880	32652	
137	0	32784	32804	
138	0	32772	32828	
139	0	32790	32675	
140	0	32732	32786	
141	0	32882	32806	
142	0	32820	32732	
143	0	32852	32768	
144	0	32784	32670	
145	0	32832	32788	
146	0	32828	32812	
147	0	32844	32700	
148	0	32808	32780	
149	0	32852	32850	
150	0	32820	32756	
151	0	32816	32844	
152	0	32828	32740	
153	0	32804	32876	
154	0	32780	32852	
155	0	32794	32754	
156	0	32832	32816	
157	0	32836	32736	
158	0	32788	32724	
159	0	32836	32730	
160	0	32778	32726	
161	0	32814	32764	
162	0	32868	32836	
163	0	32776	32700	
164	0	32756	32726	
165	0	32740	32788	
166	0	32852	32740	
167	0	32848	32782	
168	0	32860	32720	
169	0	32910	32808	
170	0	32768	32816	
171	0	32800	32775	
172	0	32800	32782	
173	0	32832	32764	
174	0	32772	32846	
175	0	32772	32838	
176	0	32768	32696	
177	0	32782	32772	
178	0	32768	32772	
179	0	32868	32810	
180	0	32804	32736	
181	0	32840	32764	
182	0	32872	32804	
183	0	32804	32728	
184	0	32780	32856	
185	0	32880	32666	
186	0	32828	32750	
187	0	32886	32892	
188	0	32764	32660	
189	0	32824	32836	
190	0	32796	32852	
191	0	32826	32740	
192	0	32796	32768	
193	0	32828	32732	
194	0	32884	32879	
195	0	32826	32724	
196	0	32848	32790	
197	0	32844	32826	
198	0	32756	32812	
199	0	32740	32722	
200	0	32796	32746	
201	0	32766	32810	
202	0	32762	32720	
203	0	32862	32714	
204	0	32780	32756	
205	0	32860	32705	
206	0	32820	32836	
207	0	32764	32775	
208	0	32894	32812	
209	0	32844	32774	
210	0	32828	32890	
211	0	32786	32768	
212	0	32798	32732	
213	0	32780	32688	
214	0	32840	32756	
215	0	32782	32818	
216	0	32822	32746	
217	0	32792	32858	
218	0	32808	32782	
219	0	32782	32684	
220	0	32836	32840	
221	0	32824	32784	
222	0	32796	32754	
223	0	32796	32884	
224	0	32784	32774	
225	0	32820	32620	
226	0	32800	32820	
227	0	32868	32764	
228	0	32804	32664	
229	0	32764	32786	
230	0	32760	32866	
231	0	32674	32712	
232	0	32872	32752	
233	0	32868	32820	
234	0	32828	32712	
235	0	32800	32724	
236	0	32836	32762	
237	0	32796	32678	
238	0	32788	32844	
239	0	32772	32742	
240	0	32804	32724	
241	0	32804	32796	
242	0	32824	32724	
243	0	32796	32780	
244	0	32764	32768	
245	0	32802	32724	
246	0	32808	32870	
247	0	32852	32808	
248	0	32868	32736	
249	0	32888	32836	
250	0	32788	32794	
251	0	32802	32752	
252	0	32788	32754	
253	0	32840	32766	
254	0	32748	32840	
255	0	32776	32767	
256	0	32790	32633	
257	0	32834	32730	
258	0	32865	32722	
259	0	32804	32768	
260	0	32832	32834	
261	0	32820	32728	
262	0	32800	32818	
263	0	32800	32844	
264	0	32816	32700	
265	0	32784	32775	
266	0	32804	32704	
267	0	32858	32705	
268	0	32816	32762	
269	0	32824	32748	
270	0	32794	32792	
271	0	32818	32804	
272	0	32850	32774	
273	0	32804	32820	
274	0	32832	32852	
275	0	32832	32764	
276	0	32804	32726	
277	0	32804	32775	
278	0	32780	32724	
279	0	32816	32732	
280	0	32834	32808	
281	0	32832	32682	
282	0	32774	32734	
283	0	32828	32775	
284	0	32808	32838	
285	0	32868	32788	
286	0	32784	32692	
287	0	32804	32828	
288	0	32798	32770	
289	0	32816	32744	
290	0	32776	32802	
291	0	32800	32688	
292	0	32768	32775	
293	0	32844	32696	
294	0	32784	32758	
295	0	32862	32912	
296	0	32852	32820	
297	0	32794	32832	
298	0	32752	32732	
299	0	32792	32804	
300	0	32804	32638	
301	0	32808	32728	
302	0	32820	32710	
303	0	32836	32784	
304	0	32870	32844	
305	0	32768	32698	
306	0	32848	32812	
307	0	32786	32848	
308	0	32828	32652	
309	0	32832	32732	
310	0	32846	32752	
311	0	32780	32852	
312	0	32812	32730	
313	0	32802	32780	
314	0	32792	32780	
315	0	32784	32788	
316	0	32852	32808	
317	0	32800	32808	
318	0	32808	32772	
319	0	32796	32788	
320	0	32832	32775	
321	0	32788	32796	
322	0	32800	32738	
323	0	32784	32660	
324	0	32788	32826	
325	0	32812	32702	
326	0	32840	32876	
327	0	32830	32852	
328	0	32810	32740	
329	0	32818	32742	
330	0	32832	32786	
331	0	32780	32806	
332	0	32792	32744	
333	0	32796	32696	
334	0	32768	32784	
335	0	32788	32752	
336	0	32800	32738	
337	0	32800	32736	
338	0	32804	32694	
339	0	32808	32784	
340	0	32836	32712	
341	0	32856	32828	
342	0	32868	32812	
343	0	32816	32704	
344	0	32840	32788	
345	0	32826	32780	
346	0	32704	32648	
347	0	32808	32784	
348	0	32804	32870	
349	0	32820	32758	
350	0	32812	32796	
351	0	32764	32764	
352	0	32808	32748	
353	0	32792	32806	
354	0	32836	32792	
355	0	32812	32740	
356	0	32848	32772	
357	0	32788	32756	
358	0	32804	32724	
359	0	32792	32775	
360	0	32816	32774	
361	0	32812	32872	
362	0	32800	32694	
363	0	32836	32676	
364	0	32842	32816	
365	0	32814	32830	
366	0	32810	32756	
367	0	32836	32788	
368	0	32828	32834	
369	0	32788	32712	
370	0	32858	32752	
371	0	32842	32792	
372	0	32798	32810	
373	0	32740	32790	
374	0	32844	32700	
375	0	32790	32780	
376	0	32852	32780	
377	0	32822	32664	
378	0	32826	32768	
379	0	32832	32828	
380	0	32716	32764	
381	0	32796	32710	
382	0	32812	32714	
383	0	32852	32770	
384	0	32740	32836	
385	0	32810	32840	
386	0	32824	32800	
387	0	32804	32672	
388	0	32834	32746	
389	0	32784	32708	
390	0	32768	32775	
391	0	32788	32706	
392	0	32740	32896	
393	0	32756	32840	
394	0	32782	32704	
395	0	32768	32716	
396	0	32892	32744	
397	0	32848	32775	
398	0	32884	32818	
399	0	32846	32754	
400	0	32852	32756	
401	0	32788	32666	
402	0	32840	32850	
403	0	32914	32722	
404	0	32764	32839	
405	0	32734	32744	
406	0	32820	32756	
407	0	32798	32856	
408	0	32776	32906	
409	0	32720	32848	
410	0	32882	32730	
411	0	32784	32748	
412	0	32828	32784	
413	0	32804	32698	
414	0	32794	32732	
415	0	32766	32772	
416	0	32752	32818	
417	0	32754	32774	
418	0	32826	32838	
419	0	32818	32746	
420	0	32832	32694	
421	0	32802	32738	
422	0	32788	32824	
423	0	32806	32764	
424	0	32828	32788	
425	0	32746	32714	
426	0	32828	32760	
427	0	32856	32768	
428	0	32752	32775	
429	0	32828	32750	
430	0	32834	32716	
431	0	32804	32712	
432	0	32792	32702	
433	0	32804	32844	
434	0	32788	32784	
435	0	32762	32672	
436	0	32864	32804	
437	0	32772	32903	
438	0	32772	32720	
439	0	32840	32802	
440	0	32838	32784	
441	0	32834	32820	
442	0	32768	32650	
443	0	32800	32764	
444	0	32826	32864	
445	0	32802	32722	
446	0	32852	32746	
447	0	32824	32682	
448	0	32798	32784	
449	0	32764	32808	
450	0	32834	32718	
451	0	32820	32730	
452	0	32790	32744	
453	0	32768	32806	
454	0	32832	32800	
455	0	32776	32846	
456	0	32744	32808	
457	0	32808	32708	
458	0	32802	32880	
459	0	32846	32804	
460	0	32888	32798	
461	0	32798	32778	
462	0	32868	32708	
463	0	32832	32774	
464	0	32836	32682	
465	0	32814	32784	
466	0	32836	32736	
467	0	32768	32810	
468	0	32828	32832	
469	0	32792	32702	
470	0	32788	32748	
471	0	32796	32770	
472	0	32812	32820	
473	0	32804	32752	
474	0	32820	32888	
475	0	32740	32730	
476	0	32796	32786	
477	0	32828	32688	
478	0	32830	32823	
479	0	32856	32762	
480	0	32764	32836	
481	0	32732	32744	
482	0	32836	32784	
483	0	32808	32900	
484	0	32812	32836	
485	0	32816	32632	
486	0	32848	32830	
487	0	32814	32718	
488	0	32780	32750	
489	0	32820	32652	
490	0	32872	32796	
491	0	32792	32678	
492	0	32786	32788	
493	0	32828	32700	
494	0	32836	32780	
495	0	32764	32706	
496	0	32756	32824	
497	0	32864	32812	
498	0	32880	32672	
499	0	32722	32780	
500	0	32784	32704	
501	0	32808	32844	
502	0	32794	32710	
503	0	32820	32764	
504	0	32852	32700	
505	0	32848	32808	
506	0	32820	32724	
507	0	32848	32770	
508	0	32830	32724	
509	0	32928	32712	
510	0	32840	32678	
511	0	32768	32820	
512	0	32824	32638	
513	0	32816	32862	
514	0	32800	32852	
515	0	32776	32775	
516	0	32778	32750	
517	0	32844	32752	
518	0	32800	32770	
519	0	32840	32654	
520	0	32808	32820	
521	0	32836	32758	
522	0	32810	32774	
523	0	32756	32864	
524	0	32808	32720	
525	0	32812	32660	
526	0	32764	32696	
527	0	32776	32844	
528	0	32864	32692	
529	0	32832	32792	
530	0	32792	32720	
531	0	32822	32740	
532	0	32832	32670	
533	0	32772	32800	
534	0	32764	32700	
535	0	32776	32802	
536	0	32796	32710	
537	0	32828	32762	
538	0	32808	32692	
539	0	32824	32810	
540	0	32788	32742	
541	0	32856	32764	
542	0	32780	32697	
543	0	32856	32724	
544	0	32896	32682	
545	0	32820	32794	
546	0	32798	32766	
547	0	32798	32824	
548	0	32776	32752	
549	0	32776	32852	
550	0	32838	32826	
551	0	32784	32820	
552	0	32812	32750	
553	0	32832	32764	
554	0	32810	32708	
555	0	32780	32830	
556	0	32756	32748	
557	0	32806	32714	
558	0	32844	32682	
559	0	32818	32764	
560	0	32820	32671	
561	0	32824	32842	
562	0	32836	32722	
563	0	32880	32710	
564	0	32788	32717	
565	0	32812	32744	
566	0	32774	32760	
567	0	32808	32816	
568	0	32754	32768	
569	0	32800	32804	
570	0	32868	32870	
571	0	32888	32822	
572	0	32742	32932	
573	0	32728	32750	
574	0	32768	32812	
575	0	32800	32728	
576	0	32802	32804	
577	0	32734	32624	
578	0	32796	32734	
579	0	32830	32692	
580	0	32792	32774	
581	0	32798	32768	
582	0	32848	32716	
583	0	32808	32764	
584	0	32832	32720	
585	0	32744	32806	
586	0	32796	32772	
587	0	32816	32766	
588	0	32860	32828	
589	0	32880	32775	
590	0	32858	32762	
591	0	32856	32672	
592	0	32784	32796	
593	0	32788	32790	
594	0	32892	32846	
595	0	32852	32820	
596	0	32880	32712	
597	0	32840	32714	
598	0	32752	32754	
599	0	32788	32836	
600	0	32860	32774	
601	0	32744	32806	
602	0	32764	32648	
603	0	32756	32792	
604	0	32828	32652	
605	0	32750	32748	
606	0	32788	32692	
607	0	32740	32775	
608	0	32812	32798	
609	0	32780	32786	
610	0	32896	32806	
611	0	32776	32802	
612	0	32852	32820	
613	0	32842	32714	
614	0	32880	32762	
615	0	32784	32682	
616	0	32740	32790	
617	0	32778	32864	
618	0	32840	32794	
619	0	32860	32670	
620	0	32832	32676	
621	0	32824	32864	
622	0	32808	32752	
623	0	32868	32720	
624	0	32752	32787	
625	0	32784	32888	
626	0	32816	32718	
627	0	32810	32752	
628	0	32780	32648	
629	0	32780	32724	
630	0	32808	32736	
631	0	32804	32698	
632	0	32868	32828	
633	0	32712	32830	
634	0	32760	32760	
635	0	32782	32761	
636	0	32836	32732	
637	0	32848	32830	
638	0	32812	32702	
639	0	32849	32840	
640	0	32858	32752	
641	0	32872	32775	
642	0	32788	32764	
643	0	32772	32740	
644	0	32794	32820	
645	0	32860	32664	
646	0	32824	32704	
647	0	32860	32826	
648	0	32824	32678	
649	0	32844	32684	
650	0	32824	32800	
651	0	32772	32856	
652	0	32792	32868	
653	0	32800	32744	
654	0	32812	32744	
655	0	32816	32625	
656	0	32756	32800	
657	0	32812	32688	
658	0	32832	32788	
659	0	32856	32820	
660	0	32878	32748	
661	0	32872	32849	
662	0	32856	32688	
663	0	32804	32710	
664	0	32792	32714	
665	0	32812	32768	
666	0	32864	32704	
667	0	32810	32747	
668	0	32796	32692	
669	0	32740	32768	
670	0	32766	32714	
671	0	32796	32808	
672	0	32820	32704	
673	0	32760	32762	
674	0	32784	32880	
675	0	32800	32792	
676	0	32814	32826	
677	0	32896	32820	
678	0	32828	32758	
679	0	32778	32775	
680	0	32744	32775	
681	0	32820	32760	
682	0	32810	32780	
683	0	32900	32736	
684	0	32808	32756	
685	0	32812	32752	
686	0	32748	32807	
687	0	32828	32764	
688	0	32794	32812	
689	0	32832	32734	
690	0	32759	32798	
691	0	32780	32826	
692	0	32812	32768	
693	0	32788	32678	
694	0	32844	32788	
695	0	32868	32756	
696	0	32802	32756	
697	0	32834	32744	
698	0	32868	32742	
699	0	32842	32728	
700	0	32824	32744	
701	0	32890	32688	
702	0	32796	32804	
703	0	32846	32748	
704	0	32850	32812	
705	0	32748	32730	
706	0	32814	32818	
707	0	32828	32710	
708	0	32782	32760	
709	0	32792	32656	
710	0	32732	32718	
711	0	32700	32684	
712	0	32704	32798	
713	0	32648	32784	
714	0	32692	32672	
715	0	32648	32728	
716	0	32720	32620	
717	0	32724	32672	
718	0	32744	32708	
719	0	32750	32724	
720	0	32740	32638	
721	0	32684	32682	
722	0	32700	32664	
723	0	32784	32774	
724	0	32784	32674	
725	0	32780	32850	
726	0	32876	32716	
727	0	32908	32914	
728	0	32804	32824	
729	0	32836	32742	
730	0	32794	32798	
731	0	32820	32756	
732	0	32798	32852	
733	0	32792	32764	
734	0	32784	32786	
735	0	32936	32830	
736	0	32972	32848	
737	0	32912	32880	
738	0	33088	32998	
739	0	33068	32980	
740	0	33120	33072	
741	0	33162	32890	
742	0	33094	33000	
743	0	33004	32834	
744	0	32968	32854	
745	0	32936	32846	
746	0	32932	32868	
747	0	32890	32874	
748	0	32928	32766	
749	0	32854	32832	
750	0	32784	32740	
751	0	32754	32676	
752	0	32712	32632	
753	0	32696	32572	
754	0	32632	32700	
755	0	32652	32694	
756	0	32692	32620	
757	0	32732	32694	
758	0	32700	32610	
759	0	32688	32696	
760	0	32769	32674	
761	0	32738	32728	
762	0	32717	32674	
763	0	32728	32800	
764	0	32728	32800	
765	0	32772	32792	
766	0	32812	32754	
767	0	32792	32714	
768	0	32778	32800	
769	0	32784	32758	
770	0	32764	32758	
771	0	32860	32700	
772	0	32888	32784	
773	0	32816	32736	
774	0	32808	32788	
775	0	32872	32672	
776	0	32858	32772	
777	0	32838	32758	
778	0	32792	32842	
779	0	32810	32804	
780	0	32736	32679	
781	0	32822	32848	
782	0	32732	32712	
783	0	32772	32770	
784	0	32756	32718	
785	0	32792	32784	
786	0	32768	32740	
787	0	32824	32712	
788	0	32784	32830	
789	0	32852	32818	
790	0	32800	32800	
791	0	32784	32724	
792	0	32792	32820	
793	0	32808	32720	
794	0	32820	32817	
795	0	32852	32724	
796	0	32816	32796	
797	0	32884	32652	
798	0	32864	32775	
799	0	32852	32696	
800	0	32800	32768	
801	0	32828	32640	
802	0	32752	32884	
803	0	32800	32852	
804	0	32848	32802	
805	0	32844	32796	
806	0	32820	32648	
807	0	32792	32764	
808	0	32792	32686	
809	0	32730	32838	
810	0	32798	32840	
811	0	32760	32818	
812	0	32796	32812	
813	0	32744	32760	
814	0	32778	32736	
815	0	32864	32702	
816	0	32814	32764	
817	0	32844	32730	
818	0	32862	32814	
819	0	32852	32784	
820	0	32776	32806	
821	0	32884	32812	
822	0	32788	32678	
823	0	32774	32712	
824	0	32828	32746	
825	0	32808	32762	
826	0	32856	32866	
827	0	32840	32774	
828	0	32772	32724	
829	0	32816	32804	
830	0	32722	32766	
831	0	32840	32806	
832	0	32780	32751	
833	0	32760	32827	
834	0	32748	32760	
835	0	32800	32742	
836	0	32828	32775	
837	0	32808	32784	
838	0	32880	32754	
839	0	32808	32860	
840	0	32766	32775	
841	0	32772	32832	
842	0	32796	32662	
843	0	32854	32724	
844	0	32808	32730	
845	0	32794	32740	
846	0	32756	32720	
847	0	32776	32688	
848	0	32886	32840	
849	0	32864	32894	
850	0	32804	32812	
851	0	32882	32822	
852	0	32836	32707	
853	0	32788	32724	
854	0	32772	32756	
855	0	32784	32792	
856	0	32768	32772	
857	0	32862	32684	
858	0	32740	32752	
859	0	32768	32616	
860	0	32822	32860	
861	0	32808	32814	
862	0	32788	32772	
863	0	32788	32722	
864	0	32772	32752	
865	0	32754	32714	
866	0	32760	32680	
867	0	32856	32800	
868	0	32820	32742	
869	0	32824	32808	
870	0	32880	32712	
871	0	32812	32752	
872	0	32842	32788	
873	0	32886	32852	
874	0	32856	32832	
875	0	32904	32708	
876	0	32810	32804	
877	0	32784	32682	
878	0	32792	32788	
879	0	32760	32780	
880	0	32844	32744	
881	0	32816	32839	
882	0	32814	32686	
883	0	32752	32742	
884	0	32752	32808	
885	0	32812	32780	
886	0	32832	32832	
887	0	32782	32806	
888	0	32768	32822	
889	0	32800	32822	
890	0	32812	32888	
891	0	32776	32864	
892	0	32860	32820	
893	0	32764	32756	
894	0	32808	32826	
895	0	32824	32836	
896	0	32800	32824	
897	0	32798	32670	
898	0	32824	32756	
899	0	32804	32758	
900	0	32744	32828	
901	0	32810	32730	
902	0	32832	32762	
903	0	32804	32820	
904	0	32798	32708	
905	0	32800	32758	
906	0	32842	32700	
907	0	32820	32804	
908	0	32848	32798	
909	0	32748	32700	
910	0	32776	32878	
911	0	32828	32728	
912	0	32780	32716	
913	0	32832	32764	
914	0	32848	32700	
915	0	32828	32802	
916	0	32778	32788	
917	0	32832	32660	
918	0	32764	32800	
919	0	32780	32700	
920	0	32738	32800	
921	0	32864	32670	
922	0	32784	32768	
923	0	32768	32704	
924	0	32792	32804	
925	0	32812	32768	
926	0	32812	32752	
927	0	32832	32868	
928	0	32792	32774	
929	0	32796	32734	
930	0	32904	32752	
931	0	32856	32756	
932	0	32848	32693	
933	0	32836	32832	
934	0	32816	32878	
935	0	32796	32832	
936	0	32820	32802	
937	0	32806	32748	
938	0	32792	32792	
939	0	32784	32764	
940	0	32776	32760	
941	0	32780	32726	
942	0	32818	32852	
943	0	32820	32750	
944	0	32880	32748	
945	0	32834	32774	
946	0	32780	32798	
947	0	32796	32860	
948	0	32798	32790	
949	0	32850	32738	
950	0	32840	32848	
951	0	32904	32704	
952	0	32844	32788	
953	0	32808	32839	
954	0	32808	32756	
955	0	32776	32752	
956	0	32820	32720	
957	0	32884	32812	
958	0	32792	32796	
959	0	32772	32816	
960	0	32870	32790	
961	0	32780	32724	
962	0	32800	32746	
963	0	32840	32660	
964	0	32742	32798	
965	0	32788	32760	
966	0	32840	32896	
967	0	32784	32820	
968	0	32836	32736	
969	0	32878	32784	
970	0	32846	32754	
971	0	32844	32806	
972	0	32816	32838	
973	0	32852	32774	
974	0	32848	32838	
975	0	32790	32840	
976	0	32770	32694	
977	0	32798	32804	
978	0	32776	32692	
979	0	32790	32727	
980	0	32856	32860	
981	0	32896	32798	
982	0	32832	32804	
983	0	32848	32678	
984	0	32828	32752	
985	0	32792	32784	
986	0	32760	32792	
987	0	32772	32804	
988	0	32848	32764	
989	0	32860	32758	
990	0	32840	32716	
991	0	32824	32762	
992	0	32810	32816	
993	0	32854	32756	
994	0	32804	32820	
995	0	32878	32700	
996	0	32858	32812	
997	0	32856	32794	
998	0	32856	32860	
999	0	32764	32782	
1000	0	32804	32804	
1001	0	32816	32862	
1002	0	32808	32708	
1003	0	32792	32834	
1004	0	32752	32812	
1005	0	32812	32750	
1006	0	32752	32768	
1007	0	32830	32754	
1008	0	32826	32704	
1009	0	32792	32738	
1010	0	32776	32714	
1011	0	32882	32832	
1012	0	32832	32846	
1013	0	32832	32732	
1014	0	32816	32818	
1015	0	32844	32650	
1016	0	32900	32718	
1017	0	32786	32702	
1018	0	32770	32762	
1019	0	32780	32800	
1020	0	32752	32658	
1021	0	32752	32775	
1022	0	32700	32678	
1023	0	32792	32848	
1024	0	32788	32708	
1025	0	32828	32863	
1026	0	32744	32808	
1027	0	32828	32740	
1028	0	32792	32734	
1029	0	32834	32650	
1030	0	32826	32856	
1031	0	32808	32714	
1032	0	32812	32798	
1033	0	32812	32848	
1034	0	32790	32768	
1035	0	32816	32746	
1036	0	32862	32694	
1037	0	32856	32738	
1038	0	32808	32718	
1039	0	32808	32764	
1040	0	32766	32784	
1041	0	32760	32730	
1042	0	32804	32792	
1043	0	32764	32664	
1044	0	32856	32796	
1045	0	32834	32868	
1046	0	32768	32846	
1047	0	32780	32770	
1048	0	32882	32686	
1049	0	32816	32836	
1050	0	32828	32738	
1051	0	32838	32790	
1052	0	32778	32775	
1053	0	32852	32756	
1054	0	32848	32848	
1055	0	32778	32774	
1056	0	32746	32744	
1057	0	32814	32710	
1058	0	32832	32692	
1059	0	32828	32724	
1060	0	32746	32726	
1061	0	32792	32740	
1062	0	32752	32762	
1063	0	32810	32768	
1064	0	32856	32708	
1065	0	32848	32752	
1066	0	32790	32852	
1067	0	32832	32668	
1068	0	32820	32828	
1069	0	32804	32724	
1070	0	32868	32820	
1071	0	32794	32846	
1072	0	32832	32730	
1073	0	32760	32856	
1074	0	32746	32794	
1075	0	32812	32724	
1076	0	32788	32848	
1077	0	32800	32759	
1078	0	32824	32632	
1079	0	32836	32652	
1080	0	32822	32724	
1081	0	32756	32772	
1082	0	32808	32672	
1083	0	32730	32768	
1084	0	32848	32688	
1085	0	32810	32788	
1086	0	32896	32766	
1087	0	32842	32852	
1088	0	32794	32794	
1089	0	32820	32692	
1090	0	32880	32802	
1091	0	32752	32678	
1092	0	32848	32824	
1093	0	32716	32782	
1094	0	32752	32682	
1095	0	32806	32712	
1096	0	32824	32680	
1097	0	32872	32866	
1098	0	32860	32866	
1099	0	32832	32806	
1100	0	32912	32836	
1101	0	32844	32824	
1102	0	32840	32775	
1103	0	32780	32711	
1104	0	32756	32812	
1105	0	32818	32758	
1106	0	32824	32750	
1107	0	32796	32874	
1108	0	32802	32820	
1109	0	32850	32724	
1110	0	32840	32742	
1111	0	32816	32732	
1112	0	32784	32702	
1113	0	32776	32775	
1114	0	32694	32688	
1115	0	32816	32868	
1116	0	32844	32854	
1117	0	32808	32740	
1118	0	32858	32775	
1119	0	32818	32698	
1120	0	32792	32764	
1121	0	32864	32760	
1122	0	32858	32736	
1123	0	32816	32816	
1124	0	32788	32694	
1125	0	32834	32734	
1126	0	32804	32738	
1127	0	32794	32796	
1128	0	32804	32756	
1129	0	32816	32740	
1130	0	32856	32724	
1131	0	32780	32704	
1132	0	32752	32736	
1133	0	32812	32714	
1134	0	32702	32830	
1135	0	32788	32739	
1136	0	32820	32840	
1137	0	32838	32775	
1138	0	32840	32666	
1139	0	32888	32736	
1140	0	32824	32710	
1141	0	32880	32828	
1142	0	32818	32788	
1143	0	32846	32806	
1144	0	32872	32788	
1145	0	32772	32804	
1146	0	32756	32740	
1147	0	32768	32742	
1148	0	32798	32832	
1149	0	32868	32784	
1150	0	32808	32768	
1151	0	32780	32772	
1152	0	32778	32788	
1153	0	32760	32794	
1154	0	32788	32736	
1155	0	32836	32768	
1156	0	32800	32764	
1157	0	32826	32766	
1158	0	32904	32752	
1159	0	32796	32704	
1160	0	32790	32794	
1161	0	32817	32738	
1162	0	32940	32812	
1163	0	32790	32762	
1164	0	32820	32700	
1165	0	32736	32808	
1166	0	32796	32814	
1167	0	32872	32816	
1168	0	32816	32860	
1169	0	32866	32670	
1170	0	32780	32812	
1171	0	32752	32792	
1172	0	32776	32756	
1173	0	32776	32764	
1174	0	32830	32772	
1175	0	32714	32726	
1176	0	32804	32772	
1177	0	32848	32856	
1178	0	32848	32772	
1179	0	32808	32820	
1180	0	32868	32697	
1181	0	32780	32810	
1182	0	32820	32814	
1183	0	32878	32696	
1184	0	32840	32838	
1185	0	32816	32748	
1186	0	32828	32720	
1187	0	32718	32794	
1188	0	32812	32784	
1189	0	32770	32668	
1190	0	32848	32756	
1191	0	32824	32762	
1192	0	32760	32752	
1193	0	32820	32720	
1194	0	32906	32900	
1195	0	32836	32824	
1196	0	32864	32810	
1197	0	32800	32652	
1198	0	32832	32838	
1199	0	32858	32754	
1200	0	32804	32668	
1201	0	32788	32826	
1202	0	32804	32730	
1203	0	32800	32718	
1204	0	32772	32844	
1205	0	32772	32798	
1206	0	32784	32662	
1207	0	32846	32754	
1208	0	32804	32746	
1209	0	32740	32834	
1210	0	32804	32792	
1211	0	32768	32910	
1212	0	32826	32800	
1213	0	32734	32728	
1214	0	32808	32784	
1215	0	32800	32834	
1216	0	32844	32722	
1217	0	32840	32798	
1218	0	32844	32774	
1219	0	32822	32684	
1220	0	32832	32820	
1221	0	32826	32740	
1222	0	32804	32760	
1223	0	32840	32670	
1224	0	32812	32798	
1225	0	32718	32772	
1226	0	32720	32750	
1227	0	32764	32800	
1228	0	32844	32834	
1229	0	32810	32764	
1230	0	32874	32756	
1231	0	32748	32758	
1232	0	32856	32692	
1233	0	32832	32792	
1234	0	32814	32732	
1235	0	32800	32730	
1236	0	32784	32807	
1237	0	32900	32808	
1238	0	32772	32702	
1239	0	32874	32786	
1240	0	32832	32748	
1241	0	32844	32726	
1242	0	32766	32818	
1243	0	32796	32744	
1244	0	32886	32878	
1245	0	32860	32772	
1246	0	32768	32784	
1247	0	32800	32680	
1248	0	32760	32828	
1249	0	32800	32870	
1250	0	32794	32678	
1251	0	32826	32828	
1252	0	32832	32796	
1253	0	32788	32762	
1254	0	32792	32804	
1255	0	32724	32702	
1256	0	32818	32760	
1257	0	32776	32752	
1258	0	32849	32840	
1259	0	32788	32740	
1260	0	32756	32740	
1261	0	32756	32792	
1262	0	32800	32880	
1263	0	32856	32692	
1264	0	32848	32798	
1265	0	32841	32736	
1266	0	32898	32788	
1267	0	32928	32808	
1268	0	32858	32696	
1269	0	32828	32802	
1270	0	32792	32756	
1271	0	32848	32708	
1272	0	32798	32840	
1273	0	32788	32852	
1274	0	32794	32640	
1275	0	32760	32774	
1276	0	32724	32790	
1277	0	32824	32684	
1278	0	32836	32816	
1279	0	32800	32792	
1280	0	32786	32800	
1281	0	32796	32834	
1282	0	32852	32680	
1283	0	32780	32780	
1284	0	32864	32796	
1285	0	32836	32696	
1286	0	32876	32820	
1287	0	32794	32802	
1288	0	32836	32728	
1289	0	32784	32796	
1290	0	32812	32708	
1291	0	32706	32728	
1292	0	32820	32806	
1293	0	32884	32832	
1294	0	32792	32746	
1295	0	32852	32774	
1296	0	32764	32871	
1297	0	32826	32816	
1298	0	32788	32694	
1299	0	32834	32742	
1300	0	32760	32672	
1301	0	32884	32790	
1302	0	32816	32898	
1303	0	32800	32722	
1304	0	32836	32816	
1305	0	32808	32686	
1306	0	32836	32768	
1307	0	32828	32740	
1308	0	32840	32792	
1309	0	32784	32732	
1310	0	32820	32836	
1311	0	32860	32736	
1312	0	32778	32804	
1313	0	32834	32668	
1314	0	32802	32752	
1315	0	32892	32676	
1316	0	32784	32826	
1317	0	32756	32716	
1318	0	32744	32790	
1319	0	32790	32815	
1320	0	32868	32724	
1321	0	32850	32736	
1322	0	32786	32824	
1323	0	32834	32788	
1324	0	32904	32769	
1325	0	32832	32752	
1326	0	32784	32896	
1327	0	32848	32790	
1328	0	32860	32736	
1329	0	32808	32704	
1330	0	32816	32688	
1331	0	32856	32752	
1332	0	32748	32708	
1333	0	32788	32768	
1334	0	32856	32818	
1335	0	32792	32660	
1336	0	32756	32806	
1337	0	32728	32702	
1338	0	32820	32826	
1339	0	32776	32824	
1340	0	32894	32724	
1341	0	32824	32769	
1342	0	32864	32762	
1343	0	32800	32762	
1344	0	32808	32858	
1345	0	32708	32754	
1346	0	32852	32704	
1347	0	32848	32802	
1348	0	32836	32716	
1349	0	32796	32780	
1350	0	32808	32820	
1351	0	32800	32714	
1352	0	32784	32786	
1353	0	32828	32710	
1354	0	32746	32760	
1355	0	32768	32688	
1356	0	32858	32814	
1357	0	32772	32792	
1358	0	32882	32774	
1359	0	32800	32774	
1360	0	32748	32686	
1361	0	32752	32788	
1362	0	32800	32742	
1363	0	32808	32742	
1364	0	32760	32718	
1365	0	32800	32750	
1366	0	32850	32868	
1367	0	32764	32840	
1368	0	32812	32718	
1369	0	32854	32764	
1370	0	32838	32676	
1371	0	32852	32864	
1372	0	32844	32820	
1373	0	32792	32658	
1374	0	32826	32802	
1375	0	32824	32804	
1376	0	32816	32696	
1377	0	32760	32784	
1378	0	32792	32750	
1379	0	32804	32742	
1380	0	32782	32768	
1381	0	32864	32754	
1382	0	32744	32746	
1383	0	32778	32708	
1384	0	32784	32796	
1385	0	32844	32722	
1386	0	32824	32828	
1387	0	32908	32790	
1388	0	32784	32638	
1389	0	32816	32816	
1390	0	32776	32820	
1391	0	32764	32822	
1392	0	32852	32860	
1393	0	32868	32622	
1394	0	32832	32816	
1395	0	32820	32820	
1396	0	32872	32710	
1397	0	32806	32774	
1398	0	32812	32792	
1399	0	32766	32740	
1400	0	32794	32792	
1401	0	32792	32724	
1402	0	32786	32808	
1403	0	32780	32838	
1404	0	32777	32664	
1405	0	32836	32775	
1406	0	32764	32664	
1407	0	32802	32790	
1408	0	32798	32753	
1409	0	32814	32736	
1410	0	32844	32794	
1411	0	32740	32816	
1412	0	32852	32696	
1413	0	32906	32746	
1414	0	32826	32774	
1415	0	32872	32840	
1416	0	32746	32780	
1417	0	32786	32816	
1418	0	32800	32720	
1419	0	32828	32738	
1420	0	32840	32804	
1421	0	32800	32742	
1422	0	32792	32718	
1423	0	32844	32850	
1424	0	32776	32756	
1425	0	32796	32764	
1426	0	32804	32820	
1427	0	32776	32796	
1428	0	32764	32828	
1429	0	32792	32622	
1430	0	32832	32828	
1431	0	32784	32764	
1432	0	32884	32806	
1433	0	32768	32614	
1434	0	32772	32856	
1435	0	32820	32804	
1436	0	32789	32738	
1437	0	32836	32807	
1438	0	32864	32778	
1439	0	32808	32682	
1440	0	32856	32768	
1441	0	32860	32774	
1442	0	32878	32672	
1443	0	32864	32746	
1444	0	32752	32774	
1445	0	32794	32678	
1446	0	32800	32792	
1447	0	32806	32820	
1448	0	32752	32732	
1449	0	32776	32775	
1450	0	32810	32772	
1451	0	32768	32896	
1452	0	32852	32766	
1453	0	32832	32651	
1454	0	32846	32855	
1455	0	32868	32794	
1456	0	32852	32774	
1457	0	32836	32728	
1458	0	32804	32732	
1459	0	32810	32680	
1460	0	32756	32822	
1461	0	32760	32744	
1462	0	32824	32810	
1463	0	32732	32732	
1464	0	32752	32744	
1465	0	32784	32806	
1466	0	32840	32784	
1467	0	32808	32730	
1468	0	32810	32764	
1469	0	32868	32892	
1470	0	32804	32758	
1471	0	32864	32806	
1472	0	32916	32680	
1473	0	32814	32740	
1474	0	32816	32774	
1475	0	32878	32660	
1476	0	32792	32774	
1477	0	32800	32810	
1478	0	32778	32714	
1479	0	32812	32768	
1480	0	32816	32768	
1481	0	32820	32754	
1482	0	32806	32764	
1483	0	32802	32860	
1484	0	32822	32684	
1485	0	32844	32772	
1486	0	32844	32800	
1487	0	32760	32688	
1488	0	32802	32870	
1489	0	32820	32760	
1490	0	32780	32740	
1491	0	32892	32768	
1492	0	32836	32775	
1493	0	32808	32642	
1494	0	32816	32808	
1495	0	32724	32836	
1496	0	32816	32632	
1497	0	32746	32820	
1498	0	32796	32848	
1499	0	32834	32760	
1500	0	32784	32762	
1501	0	32776	32804	
1502	0	32824	32692	
1503	0	32764	32766	
1504	0	32806	32788	
1505	0	32780	32736	
1506	0	32756	32796	
1507	0	32810	32864	
1508	0	32848	32664	
1509	0	32872	32752	
1510	0	32822	32640	
1511	0	32864	32834	
1512	0	32734	32828	
1513	0	32828	32728	
1514	0	32800	32750	
1515	0	32808	32708	
1516	0	32810	32780	
1517	0	32772	32836	
1518	0	32809	32808	
1519	0	32876	32638	
1520	0	32848	32818	
1521	0	32768	32752	
1522	0	32756	32702	
1523	0	32836	32752	
1524	0	32792	32698	
1525	0	32808	32672	
1526	0	32754	32775	
1527	0	32860	32827	
1528	0	32804	32816	
1529	0	32808	32762	
1530	0	32854	32862	
1531	0	32764	32672	
1532	0	32769	32780	
1533	0	32760	32724	
1534	0	32756	32740	
1535	0	32868	32852	
1536	0	32780	32756	
1537	0	32716	32862	
1538	0	32810	32766	
1539	0	32824	32740	
1540	0	32796	32764	
1541	0	32864	32850	
1542	0	32788	32718	
1543	0	32880	32807	
1544	0	32968	32848	
1545	0	32828	32734	
1546	0	32740	32740	
1547	0	32816	32708	
1548	0	32788	32804	
1549	0	32836	32860	
1550	0	32720	32746	
1551	0	32788	32872	
1552	0	32834	32774	
1553	0	32756	32638	
1554	0	32858	32768	
1555	0	32768	32775	
1556	0	32856	32708	
1557	0	32784	32742	
1558	0	32852	32774	
1559	0	32832	32762	
1560	0	32760	32792	
1561	0	32840	32810	
1562	0	32816	32798	
1563	0	32776	32656	
1564	0	32768	32775	
1565	0	32770	32684	
1566	0	32806	32792	
1567	0	32821	32718	
1568	0	32832	32764	
1569	0	32846	32864	
1570	0	32872	32828	
1571	0	32784	32748	
1572	0	32804	32800	
1573	0	32820	32816	
1574	0	32756	32836	
1575	0	32826	32772	
1576	0	32864	32692	
1577	0	32820	32772	
1578	0	32770	32800	
1579	0	32788	32752	
1580	0	32746	32766	
1581	0	32784	32775	
1582	0	32780	32812	
1583	0	32832	32742	
1584	0	32884	32736	
1585	0	32802	32832	
1586	0	32800	32768	
1587	0	32848	32772	
1588	0	32928	32754	
1589	0	32800	32710	
1590	0	32770	32774	
1591	0	32800	32696	
1592	0	32770	32772	
1593	0	32760	32762	
1594	0	32720	32654	
1595	0	32774	32808	
1596	0	32832	32812	
1597	0	32848	32708	
1598	0	32824	32772	
1599	0	32840	32764	
1600	0	32804	32902	
1601	0	32824	32760	
1602	0	32816	32684	
1603	0	32740	32774	
1604	0	32740	32674	
1605	0	32824	32880	
1606	0	32752	32775	
1607	0	32772	32682	
1608	0	32782	32824	
1609	0	32852	32838	
1610	0	32856	32774	
1611	0	32818	32756	
1612	0	32810	32676	
1613	0	32868	32816	
1614	0	32816	32784	
1615	0	32744	32660	
1616	0	32860	32828	
1617	0	32820	32856	
1618	0	32788	32772	
1619	0	32752	32840	
1620	0	32810	32808	
1621	0	32840	32632	
1622	0	32892	32774	
1623	0	32892	32708	
1624	0	32868	32760	
1625	0	32804	32738	
1626	0	32768	32832	
1627	0	32816	32808	
1628	0	32820	32624	
1629	0	32848	32808	
1630	0	32740	32785	
1631	0	32820	32668	
1632	0	32792	32732	
1633	0	32821	32720	
1634	0	32788	32808	
1635	0	32786	32888	
1636	0	32860	32754	
1637	0	32820	32775	
1638	0	32784	32742	
1639	0	32832	32727	
1640	0	32824	32808	
1641	0	32814	32788	
1642	0	32784	32700	
1643	0	32788	32844	
1644	0	32820	32812	
1645	0	32854	32812	
1646	0	32816	32736	
1647	0	32794	32766	
1648	0	32832	32774	
1649	0	32808	32790	
1650	0	32888	32816	
1651	0	32786	32748	
1652	0	32756	32724	
1653	0	32788	32590	
1654	0	32768	32808	
1655	0	32826	32814	
1656	0	32800	32704	
1657	0	32800	32753	
1658	0	32872	32820	
1659	0	32868	32770	
1660	0	32816	32828	
1661	0	32808	32808	
1662	0	32800	32662	
1663	0	32828	32804	
1664	0	32852	32764	
1665	0	32780	32694	
1666	0	32780	32871	
1667	0	32846	32850	
1668	0	32832	32858	
1669	0	32828	32762	
1670	0	32754	32680	
1671	0	32884	32880	
1672	0	32800	32860	
1673	0	32840	32816	
1674	0	32802	32740	
1675	0	32800	32698	
1676	0	32726	32820	
1677	0	32826	32743	
1678	0	32812	32736	
1679	0	32820	32770	
1680	0	32812	32712	
1681	0	32822	32792	
1682	0	32792	32795	
1683	0	32856	32734	
1684	0	32792	32750	
1685	0	32836	32839	
1686	0	32854	32750	
1687	0	32866	32708	
1688	0	32770	32824	
1689	0	32818	32820	
1690	0	32786	32712	
1691	0	32796	32770	
1692	0	32776	32664	
1693	0	32774	32796	
1694	0	32706	32816	
1695	0	32704	32720	
1696	0	32712	32704	
1697	0	32782	32647	
1698	0	32744	32684	
1699	0	32652	32658	
1700	0	32712	32796	
1701	0	32714	32742	
1702	0	32688	32584	
1703	0	32736	32628	
1704	0	32664	32622	
1705	0	32702	32708	
1706	0	32732	32656	
1707	0	32768	32802	
1708	0	32720	32828	
1709	0	32730	32740	
1710	0	32768	32756	
1711	0	32764	32706	
1712	0	32856	32828	
1713	0	32804	32774	
1714	0	32838	32680	
1715	0	32828	32760	
1716	0	32824	32850	
1717	0	32844	32775	
1718	0	32900	32812	
1719	0	32880	32736	
1720	0	32968	32889	
1721	0	33060	33022	
1722	0	33090	32868	
1723	0	33082	33031	
1724	0	33090	33038	
1725	0	33064	32960	
1726	0	33052	32960	
1727	0	33004	32932	
1728	0	33006	32868	
1729	0	32952	32870	
1730	0	32908	32824	
1731	0	32976	32848	
1732	0	32892	32830	
1733	0	32818	32874	
1734	0	32716	32814	
1735	0	32688	32656	
1736	0	32700	32666	
1737	0	32640	32456	
1738	0	32712	32676	
1739	0	32656	32746	
1740	0	32756	32678	
1741	0	32724	32714	
1742	0	32672	32578	
1743	0	32738	32728	
1744	0	32708	32644	
1745	0	32688	32732	
1746	0	32796	32712	
1747	0	32760	32772	
1748	0	32780	32768	
1749	0	32754	32720	
1750	0	32868	32704	
1751	0	32860	32708	
1752	0	32804	32830	
1753	0	32776	32870	
1754	0	32770	32726	
1755	0	32784	32792	
1756	0	32738	32668	
1757	0	32804	32812	
1758	0	32788	32758	
1759	0	32748	32794	
1760	0	32740	32774	
1761	0	32932	32708	
1762	0	32838	32792	
1763	0	32784	32720	
1764	0	32824	32784	
1765	0	32860	32754	
1766	0	32828	32714	
1767	0	32804	32798	
1768	0	32768	32732	
1769	0	32740	32802	
1770	0	32794	32768	
1771	0	32816	32746	
1772	0	32728	32679	
1773	0	32756	32840	
1774	0	32836	32744	
1775	0	32802	32736	
1776	0	32784	32718	
1777	0	32848	32838	
1778	0	32804	32738	
1779	0	32854	32752	
1780	0	32756	32788	
1781	0	32802	32884	
1782	0	32858	32728	
1783	0	32839	32880	
1784	0	32846	32810	
1785	0	32852	32742	
1786	0	32778	32764	
1787	0	32736	32710	
1788	0	32780	32711	
1789	0	32820	32752	
1790	0	32808	32820	
1791	0	32844	32686	
1792	0	32788	32812	
1793	0	32874	32804	
1794	0	32806	32680	
1795	0	32849	32804	
1796	0	32808	32820	
1797	0	32766	32708	
1798	0	32816	32788	
1799	0	32816	32698	
1800	0	32860	32762	
1801	0	32782	32748	
1802	0	32808	32858	
1803	0	32864	32852	
1804	0	32760	32650	
1805	0	32754	32742	
1806	0	32804	32718	
1807	0	32760	32800	
1808	0	32752	32698	
1809	0	32768	32823	
1810	0	32804	32792	
1811	0	32836	32682	
1812	0	32856	32872	
1813	0	32872	32740	
1814	0	32832	32807	
1815	0	32836	32728	
1816	0	32810	32805	
1817	0	32808	32775	
1818	0	32820	32784	
1819	0	32752	32740	
1820	0	32840	32784	
1821	0	32812	32652	
1822	0	32744	32842	
1823	0	32837	32724	
1824	0	32876	32732	
1825	0	32864	32740	
1826	0	32808	32798	
1827	0	32824	32698	
1828	0	32820	32760	
1829	0	32776	32822	
1830	0	32780	32688	
1831	0	32838	32822	
1832	0	32836	32672	
1833	0	32792	32736	
1834	0	32744	32752	
1835	0	32840	32790	
1836	0	32752	32810	
1837	0	32854	32734	
1838	0	32802	32752	
1839	0	32846	32716	
1840	0	32866	32728	
1841	0	32736	32740	
1842	0	32838	32775	
1843	0	32794	32784	
1844	0	32864	32668	
1845	0	32856	32758	
1846	0	32856	32744	
1847	0	32866	32836	
1848	0	32832	32764	
1849	0	32817	32824	
1850	0	32876	32828	
1851	0	32784	32724	
1852	0	32800	32800	
1853	0	32788	32620	
1854	0	32820	32828	
1855	0	32740	32764	
1856	0	32810	32778	
1857	0	32748	32768	
1858	0	32844	32772	
1859	0	32818	32772	
1860	0	32756	32746	
1861	0	32768	32775	
1862	0	32824	32838	
1863	0	32846	32800	
1864	0	32840	32664	
1865	0	32808	32816	
1866	0	32838	32658	
1867	0	32828	32862	
1868	0	32796	32824	
1869	0	32826	32848	
1870	0	32768	32800	
1871	0	32834	32744	
1872	0	32856	32868	
1873	0	32760	32850	
1874	0	32754	32740	
1875	0	32770	32748	
1876	0	32736	32708	
1877	0	32718	32716	
1878	0	32804	32770	
1879	0	32802	32660	
1880	0	32816	32744	
1881	0	32764	32734	
1882	0	32840	32830	
1883	0	32856	32800	
1884	0	32904	32606	
1885	0	32836	32740	
1886	0	32872	32708	
1887	0	32740	32804	
1888	0	32784	32698	
1889	0	32836	32684	
1890	0	32734	32804	
1891	0	32776	32716	
1892	0	32808	32824	
1893	0	32796	32774	
1894	0	32788	32840	
1895	0	32778	32852	
1896	0	32794	32708	
1897	0	32848	32832	
1898	0	32820	32636	
1899	0	32800	32740	
1900	0	32820	32792	
1901	0	32768	32724	
1902	0	32852	32775	
1903	0	32824	32726	
1904	0	32812	32800	
1905	0	32792	32736	
1906	0	32756	32832	
1907	0	32776	32762	
1908	0	32782	32654	
1909	0	32836	32756	
1910	0	32816	32700	
1911	0	32834	32747	
1912	0	32802	32832	
1913	0	32876	32678	
1914	0	32852	32764	
1915	0	32812	32860	
1916	0	32776	32712	
1917	0	32816	32716	
1918	0	32792	32756	
1919	0	32856	32766	
1920	0	32800	32848	
1921	0	32772	32692	
1922	0	32788	32826	
1923	0	32824	32826	
1924	0	32806	32748	
1925	0	32756	32816	
1926	0	32816	32780	
1927	0	32870	32652	
1928	0	32800	32874	
1929	0	32764	32793	
1930	0	32834	32762	
1931	0	32740	32906	
1932	0	32806	32824	
1933	0	32872	32749	
1934	0	32844	32756	
1935	0	32818	32664	
1936	0	32784	32708	
1937	0	32748	32834	
1938	0	32840	32734	
1939	0	32824	32724	
1940	0	32792	32680	
1941	0	32856	32668	
1942	0	32836	32756	
1943	0	32780	32688	
1944	0	32836	32758	
1945	0	32908	32796	
1946	0	32892	32782	
1947	0	32828	32788	
1948	0	32824	32808	
1949	0	32846	32662	
1950	0	32824	32802	
1951	0	32798	32768	
1952	0	32724	32711	
1953	0	32794	32800	
1954	0	32824	32830	
1955	0	32808	32764	
1956	0	32756	32784	
1957	0	32778	32814	
1958	0	32784	32670	
1959	0	32814	32810	
1960	0	32816	32807	
1961	0	32848	32718	
1962	0	32956	32774	
1963	0	32812	32744	
1964	0	32858	32876	
1965	0	32862	32728	
1966	0	32816	32846	
1967	0	32836	32820	
1968	0	32820	32775	
1969	0	32772	32784	
1970	0	32764	32750	
1971	0	32816	32900	
1972	0	32874	32764	
1973	0	32920	32704	
1974	0	32818	32771	
1975	0	32820	32694	
1976	0	32858	32816	
1977	0	32736	32806	
1978	0	32776	32682	
1979	0	32792	32794	
1980	0	32812	32828	
1981	0	32900	32708	
1982	0	32770	32768	
1983	0	32884	32770	
1984	0	32828	32696	
1985	0	32820	32912	
1986	0	32804	32816	
1987	0	32802	32738	
1988	0	32848	32772	
1989	0	32814	32775	
1990	0	32816	32708	
1991	0	32788	32774	
1992	0	32740	32692	
1993	0	32816	32748	
1994	0	32820	32764	
1995	0	32752	32756	
1996	0	32824	32712	
1997	0	32779	32668	
1998	0	32830	32812	
1999	0	32880	32720	
2000	0	32900	32796	
2001	0	32764	32808	
2002	0	32840	32804	
2003	0	32864	32852	
2004	0	32778	32720	
2005	0	32790	32752	
2006	0	32780	32706	
2007	0	32772	32808	
2008	0	32776	32742	
2009	0	32856	32752	
2010	0	32840	32756	
2011	0	32804	32758	
2012	0	32870	32846	
2013	0	32816	32778	
2014	0	32776	32672	
2015	0	32740	32766	
2016	0	32804	32796	
2017	0	32780	32681	
2018	0	32808	32824	
2019	0	32792	32672	
2020	0	32776	32788	
2021	0	32768	32764	
2022	0	32816	32679	
2023	0	32800	32862	
2024	0	32812	32748	
2025	0	32808	32740	
2026	0	32866	32860	
2027	0	32808	32712	
2028	0	32708	32862	
2029	0	32820	32848	
2030	0	32820	32732	
2031	0	32736	32854	
2032	0	32800	32866	
2033	0	32784	32696	
2034	0	32770	32742	
2035	0	32936	32772	
2036	0	32764	32740	
2037	0	32764	32760	
2038	0	32816	32646	
2039	0	32868	32736	
2040	0	32880	32730	
2041	0	32816	32670	
2042	0	32830	32687	
2043	0	32824	32786	
2044	0	32800	32800	
2045	0	32866	32780	
2046	0	32808	32774	
2047	0	32814	32702	
2048	0	32804	32798	
2049	0	32736	32834	
2050	0	32848	32804	
2051	0	32776	32712	
2052	0	32836	32766	
2053	0	32892	32704	
2054	0	32784	32778	
2055	0	32772	32758	
2056	0	32748	32756	
2057	0	32872	32804	
2058	0	32772	32854	
2059	0	32780	32796	
2060	0	32804	32712	
2061	0	32820	32792	
2062	0	32824	32696	
2063	0	32814	32750	
2064	0	32748	32830	
2065	0	32773	32789	
2066	0	32824	32698	
2067	0	32822	32822	
2068	0	32852	32800	
2069	0	32850	32656	
2070	0	32784	32728	
2071	0	32858	32724	
2072	0	32828	32838	
2073	0	32852	32772	
2074	0	32812	32728	
2075	0	32802	32780	
2076	0	32832	32790	
2077	0	32836	32676	
2078	0	32812	32830	
2079	0	32824	32820	
2080	0	32818	32810	
2081	0	32806	32684	
2082	0	32842	32786	
2083	0	32820	32848	
2084	0	32822	32766	
2085	0	32808	32748	
2086	0	32776	32726	
2087	0	32776	32790	
2088	0	32840	32772	
2089	0	32806	32756	
2090	0	32804	32782	
2091	0	32822	32708	
2092	0	32752	32794	
2093	0	32780	32840	
2094	0	32800	32656	
2095	0	32830	32670	
2096	0	32844	32702	
2097	0	32780	32870	
2098	0	32820	32816	
2099	0	32792	32752	
2100	0	32852	32770	
2101	0	32824	32730	
2102	0	32896	32742	
2103	0	32808	32792	
2104	0	32825	32696	
2105	0	32812	32766	
2106	0	32776	32684	
2107	0	32724	32784	
2108	0	32780	32804	
2109	0	32802	32848	
2110	0	32768	32806	
2111	0	32892	32652	
2112	0	32788	32794	
2113	0	32808	32690	
2114	0	32848	32870	
2115	0	32844	32806	
2116	0	32812	32698	
2117	0	32792	32688	
2118	0	32858	32734	
2119	0	32752	32798	
2120	0	32774	32792	
2121	0	32844	32696	
2122	0	32810	32792	
2123	0	32768	32826	
2124	0	32800	32631	
2125	0	32824	32820	
2126	0	32793	32792	
2127	0	32764	32750	
2128	0	32802	32852	
2129	0	32812	32662	
2130	0	32804	32812	
2131	0	32888	32872	
2132	0	32794	32716	
2133	0	32766	32768	
2134	0	32758	32754	
2135	0	32804	32784	
2136	0	32816	32775	
2137	0	32816	32676	
2138	0	32810	32742	
2139	0	32800	32700	
2140	0	32834	32828	
2141	0	32844	32752	
2142	0	32792	32708	
2143	0	32802	32748	
2144	0	32848	32724	
2145	0	32788	32732	
2146	0	32806	32766	
2147	0	32824	32662	
2148	0	32832	32894	
2149	0	32736	32864	
2150	0	32740	32644	
2151	0	32848	32740	
2152	0	32860	32775	
2153	0	32824	32796	
2154	0	32810	32830	
2155	0	32820	32740	
2156	0	32864	32698	
2157	0	32832	32772	
2158	0	32872	32820	
2159	0	32792	32736	
2160	0	32748	32748	
2161	0	32796	32830	
2162	0	32756	32790	
2163	0	32768	32792	
2164	0	32828	32832	
2165	0	32818	32738	
2166	0	32800	32780	
2167	0	32820	32812	
2168	0	32834	32676	
2169	0	32792	32864	
2170	0	32880	32800	
2171	0	32732	32856	
2172	0	32704	32767	
2173	0	32792	32678	
2174	0	32824	32754	
2175	0	32856	32710	
2176	0	32734	32748	
2177	0	32736	32686	
2178	0	32844	32722	
2179	0	32828	32742	
2180	0	32860	32656	
2181	0	32820	32764	
2182	0	32796	32708	
2183	0	32804	32806	
2184	0	32856	32752	
2185	0	32860	32876	
2186	0	32786	32764	
2187	0	32776	32690	
2188	0	32812	32828	
2189	0	32824	32796	
2190	0	32842	32646	
2191	0	32862	32792	
2192	0	32762	32824	
2193	0	32832	32732	
2194	0	32814	32756	
2195	0	32860	32736	
2196	0	32836	32760	
2197	0	32872	32772	
2198	0	32744	32674	
2199	0	32812	32788	
2200	0	32786	32842	
2201	0	32848	32710	
2202	0	32828	32836	
2203	0	32836	32750	
2204	0	32762	32796	
2205	0	32863	32796	
2206	0	32800	32736	
2207	0	32824	32764	
2208	0	32876	32808	
2209	0	32884	32744	
2210	0	32792	32756	
2211	0	32792	32748	
2212	0	32816	32788	
2213	0	32828	32790	
2214	0	32828	32742	
2215	0	32816	32710	
2216	0	32792	32674	
2217	0	32774	32838	
2218	0	32844	32736	
2219	0	32776	32633	
2220	0	32832	32820	
2221	0	32776	32848	
2222	0	32822	32830	
2223	0	32828	32808	
2224	0	32736	32684	
2225	0	32822	32770	
2226	0	32812	32718	
2227	0	32788	32774	
2228	0	32816	32774	
2229	0	32776	32826	
2230	0	32784	32760	
2231	0	32820	32732	
2232	0	32800	32775	
2233	0	32792	32688	
2234	0	32868	32796	
2235	0	32836	32664	
2236	0	32810	32804	
2237	0	32868	32800	
2238	0	32832	32775	
2239	0	32788	32738	
2240	0	32804	32743	
2241	0	32840	32804	
2242	0	32780	32792	
2243	0	32798	32708	
2244	0	32856	32760	
2245	0	32812	32772	
2246	0	32814	32852	
2247	0	32820	32792	
2248	0	32812	32728	
2249	0	32782	32820	
2250	0	32848	32840	
2251	0	32716	32698	
2252	0	32808	32800	
2253	0	32816	32775	
2254	0	32812	32756	
2255	0	32824	32714	
2256	0	32752	32720	
2257	0	32796	32775	
2258	0	32860	32820	
2259	0	32836	32666	
2260	0	32840	32760	
2261	0	32848	32784	
2262	0	32796	32838	
2263	0	32740	32636	
2264	0	32844	32792	
2265	0	32796	32828	
2266	0	32860	32734	
2267	0	32834	32780	
2268	0	32764	32780	
2269	0	32802	32832	
2270	0	32812	32758	
2271	0	32800	32798	
2272	0	32820	32760	
2273	0	32764	32742	
2274	0	32832	32774	
2275	0	32814	32706	
2276	0	32824	32800	
2277	0	32812	32766	
2278	0	32826	32660	
2279	0	32824	32852	
2280	0	32784	32772	
2281	0	32834	32734	
2282	0	32824	32704	
2283	0	32725	32812	
2284	0	32748	32800	
2285	0	32808	32742	
2286	0	32834	32768	
2287	0	32814	32750	
2288	0	32804	32764	
2289	0	32784	32732	
2290	0	32880	32744	
2291	0	32848	32852	
2292	0	32820	32770	
2293	0	32772	32736	
2294	0	32800	32770	
2295	0	32772	32822	
2296	0	32812	32686	
2297	0	32836	32836	
2298	0	32802	32775	
2299	0	32842	32724	
2300	0	32844	32852	
2301	0	32778	32676	
2302	0	32822	32744	
2303	0	32810	32784	
2304	0	32804	32768	
2305	0	32832	32744	
2306	0	32816	32804	
2307	0	32884	32772	
2308	0	32860	32746	
2309	0	32760	32738	
2310	0	32788	32768	
2311	0	32740	32742	
2312	0	32824	32774	
2313	0	32736	32740	
2314	0	32804	32800	
2315	0	32782	32850	
2316	0	32740	32774	
2317	0	32828	32708	
2318	0	32836	32808	
2319	0	32858	32866	
2320	0	32832	32712	
2321	0	32824	32760	
2322	0	32836	32740	
2323	0	32866	32670	
2324	0	32804	32752	
2325	0	32792	32836	
2326	0	32802	32804	
2327	0	32852	32720	
2328	0	32844	32732	
2329	0	32768	32860	
2330	0	32852	32660	
2331	0	32794	32844	
2332	0	32840	32766	
2333	0	32776	32708	
2334	0	32792	32804	
2335	0	32736	32822	
2336	0	32760	32664	
2337	0	32712	32736	
2338	0	32730	32676	
2339	0	32758	32764	
2340	0	32810	32818	
2341	0	32884	32700	
2342	0	32804	32796	
2343	0	32812	32816	
2344	0	32832	32728	
2345	0	32856	32782	
2346	0	32832	32656	
2347	0	32864	32804	
2348	0	32796	32775	
2349	0	32814	32684	
2350	0	32728	32806	
2351	0	32782	32856	
2352	0	32796	32716	
2353	0	32788	32844	
2354	0	32836	32761	
2355	0	32886	32714	
2356	0	32812	32840	
2357	0	32896	32732	
2358	0	32808	32684	
2359	0	32828	32775	
2360	0	32824	32748	
2361	0	32760	32772	
2362	0	32908	32692	
2363	0	32822	32794	
2364	0	32838	32706	
2365	0	32800	32768	
2366	0	32744	32768	
2367	0	32824	32687	
2368	0	32848	32824	
2369	0	32880	32810	
2370	0	32762	32720	
2371	0	32832	32864	
2372	0	32804	32788	
2373	0	32876	32702	
2374	0	32824	32824	
2375	0	32820	32812	
2376	0	32784	32640	
2377	0	32772	32784	
2378	0	32772	32834	
2379	0	32800	32686	
2380	0	32840	32770	
2381	0	32778	32754	
2382	0	32836	32788	
2383	0	32834	32726	
2384	0	32838	32684	
2385	0	32748	32775	
2386	0	32826	32730	
2387	0	32824	32672	
2388	0	32768	32786	
2389	0	32830	32876	
2390	0	32792	32728	
2391	0	32886	32756	
2392	0	32828	32852	
2393	0	32760	32818	
2394	0	32782	32650	
2395	0	32840	32670	
2396	0	32750	32810	
2397	0	32788	32788	
2398	0	32832	32768	
2399	0	32816	32820	
2400	0	32816	32692	
2401	0	32838	32698	
2402	0	32820	32744	
2403	0	32804	32754	
2404	0	32852	32764	
2405	0	32818	32736	
2406	0	32816	32824	
2407	0	32788	32702	
2408	0	32792	32684	
2409	0	32824	32804	
2410	0	32844	32848	
2411	0	32780	32744	
2412	0	32848	32804	
2413	0	32828	32775	
2414	0	32804	32850	
2415	0	32776	32740	
2416	0	32768	32743	
2417	0	32864	32744	
2418	0	32826	32816	
2419	0	32808	32778	
2420	0	32752	32708	
2421	0	32820	32748	
2422	0	32796	32712	
2423	0	32772	32734	
2424	0	32824	32788	
2425	0	32876	32760	
2426	0	32778	32710	
2427	0	32856	32798	
2428	0	32816	32792	
2429	0	32772	32694	
2430	0	32830	32796	
2431	0	32808	32758	
2432	0	32780	32743	
2433	0	32744	32796	
2434	0	32844	32764	
2435	0	32800	32828	
2436	0	32778	32748	
2437	0	32802	32726	
2438	0	32810	32740	
2439	0	32852	32714	
2440	0	32836	32794	
2441	0	32920	32731	
2442	0	32844	32740	
2443	0	32796	32646	
2444	0	32778	32775	
2445	0	32772	32782	
2446	0	32760	32790	
2447	0	32766	32786	
2448	0	32784	32686	
2449	0	32798	32688	
2450	0	32762	32758	
2451	0	32788	32832	
2452	0	32804	32816	
2453	0	32716	32766	
2454	0	32848	32788	
2455	0	32760	32767	
2456	0	32844	32708	
2457	0	32846	32862	
2458	0	32892	32800	
2459	0	32772	32740	
2460	0	32798	32784	
2461	0	32756	32804	
2462	0	32768	32654	
2463	0	32802	32774	
2464	0	32848	32784	
2465	0	32816	32710	
2466	0	32828	32840	
2467	0	32868	32908	
2468	0	32832	32820	
2469	0	32804	32804	
2470	0	32768	32640	
2471	0	32816	32782	
2472	0	32800	32840	
2473	0	32800	32718	
2474	0	32856	32774	
2475	0	32836	32828	
2476	0	32828	32714	
2477	0	32840	32836	
2478	0	32808	32736	
2479	0	32786	32676	
2480	0	32826	32744	
2481	0	32836	32728	
2482	0	32824	32748	
2483	0	32846	32688	
2484	0	32816	32704	
2485	0	32836	32828	
2486	0	32845	32800	
2487	0	32802	32824	
2488	0	32746	32740	
2489	0	32768	32866	
2490	0	32768	32764	
2491	0	32788	32744	
2492	0	32760	32754	
2493	0	32772	32760	
2494	0	32817	32662	
2495	0	32778	32798	
2496	0	32832	32752	
2497	0	32878	32842	
2498	0	32846	32702	
2499	0	32816	32772	
2500	0	32811	32784	
2501	0	32844	32668	
2502	0	32760	32780	
2503	0	32860	32800	
2504	0	32836	32738	
2505	0	32822	32804	
2506	0	32764	32816	
2507	0	32834	32748	
2508	0	32784	32756	
2509	0	32772	32728	
2510	0	32784	32798	
2511	0	32788	32688	
2512	0	32774	32822	
2513	0	32824	32807	
2514	0	32832	32720	
2515	0	32864	32800	
2516	0	32744	32800	
2517	0	32804	32636	
2518	0	32768	32805	
2519	0	32836	32712	
2520	0	32792	32760	
2521	0	32738	32846	
2522	0	32816	32708	
2523	0	32830	32752	
2524	0	32802	32826	
2525	0	32832	32842	
2526	0	32880	32740	
2527	0	32784	32806	
2528	0	32768	32858	
2529	0	32830	32716	
2530	0	32792	32736	
2531	0	32828	32716	
2532	0	32748	32846	
2533	0	32824	32796	
2534	0	32832	32798	
2535	0	32880	32772	
2536	0	32778	32676	
2537	0	32780	32792	
2538	0	32848	32850	
2539	0	32796	32782	
2540	0	32792	32808	
2541	0	32834	32703	
2542	0	32824	32766	
2543	0	32812	32848	
2544	0	32804	32720	
2545	0	32788	32756	
2546	0	32738	32694	
2547	0	32832	32836	
2548	0	32790	32780	
2549	0	32786	32772	
2550	0	32840	32784	
2551	0	32848	32744	
2552	0	32788	32809	
2553	0	32816	32784	
2554	0	32812	32734	
2555	0	32808	32768	
2556	0	32816	32696	
2557	0	32804	32788	
2558	0	32824	32772	
2559	0	32792	32700	
2560	0	32816	32828	
2561	0	32816	32688	
2562	0	32822	32800	
2563	0	32784	32774	
2564	0	32820	32718	
2565	0	32844	32874	
2566	0	32830	32796	
2567	0	32800	32716	
2568	0	32820	32768	
2569	0	32796	32800	
2570	0	32824	32760	
2571	0	32836	32825	
2572	0	32832	32796	
2573	0	32808	32724	
2574	0	32870	32774	
2575	0	32864	32718	
2576	0	32864	32736	
2577	0	32848	32804	
2578	0	32780	32698	
2579	0	32784	32808	
2580	0	32784	32775	
2581	0	32720	32762	
2582	0	32800	32768	
2583	0	32848	32746	
2584	0	32780	32732	
2585	0	32804	32775	
2586	0	32826	32706	
2587	0	32832	32820	
2588	0	32808	32840	
2589	0	32818	32688	
2590	0	32800	32712	
2591	0	32741	32784	
2592	0	32806	32842	
2593	0	32808	32728	
2594	0	32752	32670	
2595	0	32818	32824	
2596	0	32856	32762	
2597	0	32800	32802	
2598	0	32866	32775	
2599	0	32828	32680	
2600	0	32764	32738	
2601	0	32834	32796	
2602	0	32822	32764	
2603	0	32788	32775	
2604	0	32852	32704	
2605	0	32897	32804	
2606	0	32863	32802	
2607	0	32792	32692	
2608	0	32854	32758	
2609	0	32800	32775	
2610	0	32836	32772	
2611	0	32816	32792	
2612	0	32836	32712	
2613	0	32816	32916	
2614	0	32820	32711	
2615	0	32794	32736	
2616	0	32740	32864	
2617	0	32801	32766	
2618	0	32776	32686	
2619	0	32792	32816	
2620	0	32822	32774	
2621	0	32832	32760	
2622	0	32812	32812	
2623	0	32786	32696	
2624	0	32788	32799	
2625	0	32798	32702	
2626	0	32836	32716	
2627	0	32828	32822	
2628	0	32824	32804	
2629	0	32784	32714	
2630	0	32876	32744	
2631	0	32832	32824	
2632	0	32776	32820	
2633	0	32866	32743	
2634	0	32808	32770	
2635	0	32792	32832	
2636	0	32800	32836	
2637	0	32824	32652	
2638	0	32776	32775	
2639	0	32836	32786	
2640	0	32840	32775	
2641	0	32824	32880	
2642	0	32804	32728	
2643	0	32826	32896	
2644	0	32828	32730	
2645	0	32768	32784	
2646	0	32796	32852	
2647	0	32824	32736	
2648	0	32800	32740	
2649	0	32812	32742	
2650	0	32844	32796	
2651	0	32828	32890	
2652	0	32790	32688	
2653	0	32818	32790	
2654	0	32836	32740	
2655	0	32828	32772	
2656	0	32804	32700	
2657	0	32748	32724	
2658	0	32768	32764	
2659	0	32808	32718	
2660	0	32820	32716	
2661	0	32824	32740	
2662	0	32708	32694	
2663	0	32708	32652	
2664	0	32688	32708	
2665	0	32704	32637	
2666	0	32686	32736	
2667	0	32698	32728	
2668	0	32736	32661	
2669	0	32772	32720	
2670	0	32792	32634	
2671	0	32752	32696	
2672	0	32714	32678	
2673	0	32714	32646	
2674	0	32740	32686	
2675	0	32653	32656	
2676	0	32798	32786	
2677	0	32820	32768	
2678	0	32848	32748	
2679	0	32812	32764	
2680	0	32844	32823	
2681	0	32792	32748	
2682	0	32810	32775	
2683	0	32768	32752	
2684	0	32848	32844	
2685	0	32798	32832	
2686	0	32872	32768	
2687	0	32898	32896	
2688	0	32916	32816	
2689	0	33026	32900	
2690	0	32984	32890	
2691	0	33036	33053	
2692	0	33024	32992	
2693	0	33124	32982	
2694	0	32996	33078	
2695	0	33064	32936	
2696	0	33054	32896	
2697	0	33020	32806	
2698	0	32918	32864	
2699	0	32928	32698	
2700	0	32884	32882	
2701	0	32814	32828	
2702	0	32752	32792	
2703	0	32726	32628	
2704	0	32672	32582	
2705	0	32732	32640	
2706	0	32692	32596	
2707	0	32672	32724	
2708	0	32654	32728	
2709	0	32696	32614	
2710	0	32696	32706	
2711	0	32736	32772	
2712	0	32744	32775	
2713	0	32754	32752	
2714	0	32756	32706	
2715	0	32788	32822	
2716	0	32836	32760	
2717	0	32798	32728	
2718	0	32772	32722	
2719	0	32736	32692	
2720	0	32754	32784	
2721	0	32764	32794	
2722	0	32792	32774	
2723	0	32786	32760	
2724	0	32844	32804	
2725	0	32824	32838	
2726	0	32856	32808	
2727	0	32852	32708	
2728	0	32852	32775	
2729	0	32868	32756	
2730	0	32892	32830	
2731	0	32788	32816	
2732	0	32790	32666	
2733	0	32808	32800	
2734	0	32826	32808	
2735	0	32770	32684	
2736	0	32740	32808	
2737	0	32812	32740	
2738	0	32728	32632	
2739	0	32840	32846	
2740	0	32744	32878	
2741	0	32792	32720	
2742	0	32784	32775	
2743	0	32760	32668	
2744	0	32720	32798	
2745	0	32788	32832	
2746	0	32780	32732	
2747	0	32832	32738	
2748	0	32792	32760	
2749	0	32776	32704	
2750	0	32840	32766	
2751	0	32874	32824	
2752	0	32728	32734	
2753	0	32812	32807	
2754	0	32810	32814	
2755	0	32800	32722	
2756	0	32756	32806	
2757	0	32756	32862	
2758	0	32804	32696	
2759	0	32888	32816	
2760	0	32786	32826	
2761	0	32820	32702	
2762	0	32692	32768	
2763	0	32880	32682	
2764	0	32790	32860	
2765	0	32808	32732	
2766	0	32792	32772	
2767	0	32820	32864	
2768	0	32828	32764	
2769	0	32880	32708	
2770	0	32832	32790	
2771	0	32788	32672	
2772	0	32874	32770	
2773	0	32828	32736	
2774	0	32804	32756	
2775	0	32824	32830	
2776	0	32842	32710	
2777	0	32834	32654	
2778	0	32817	32820	
2779	0	32828	32832	
2780	0	32828	32836	
2781	0	32812	32744	
2782	0	32752	32658	
2783	0	32804	32790	
2784	0	32832	32842	
2785	0	32816	32760	
2786	0	32836	32744	
2787	0	32756	32868	
2788	0	32820	32672	
2789	0	32832	32768	
2790	0	32768	32716	
2791	0	32856	32728	
2792	0	32836	32710	
2793	0	32784	32880	
2794	0	32768	32728	
2795	0	32896	32836	
2796	0	32840	32738	
2797	0	32746	32720	
2798	0	32688	32712	
2799	0	32616	32724	
2800	0	32768	32764	
2801	0	32770	32796	
2802	0	32824	32716	
2803	0	32908	32768	
2804	0	32980	32824	
2805	0	32930	32736	
2806	0	32916	32744	
2807	0	32836	32710	
2808	0	32804	32822	
2809	0	32748	32756	
2810	0	32736	32748	
2811	0	32808	32884	
2812	0	32756	32808	
2813	0	32798	32746	
2814	0	32824	32808	
2815	0	32764	32710	
2816	0	32736	32752	
2817	0	32820	32712	
2818	0	32780	32760	
2819	0	32760	32688	
2820	0	32770	32736	
2821	0	32764	32764	
2822	0	32786	32704	
2823	0	32776	32766	
2824	0	32768	32769	
2825	0	32836	32668	
2826	0	32800	32804	
2827	0	32810	32768	
2828	0	32896	32764	
2829	0	32904	32744	
2830	0	32840	32698	
2831	0	32868	32822	
2832	0	32840	32764	
2833	0	32916	32832	
2834	0	32840	32760	
2835	0	32778	32816	
2836	0	32884	32704	
2837	0	32732	32730	
2838	0	32682	32730	
2839	0	32708	32772	
2840	0	32762	32702	
2841	0	32744	32752	
2842	0	32824	32728	
2843	0	32784	32852	
2844	0	32892	32728	
2845	0	32920	32768	
2846	0	32922	32774	
2847	0	32848	32704	
2848	0	32800	32846	
2849	0	32820	32808	
2850	0	32678	32658	
2851	0	32714	32786	
2852	0	32802	32800	
2853	0	32786	32806	
2854	0	32756	32712	
2855	0	32804	32792	
2856	0	32790	32802	
2857	0	32944	32720	
2858	0	32898	32800	
2859	0	32928	32804	
2860	0	32804	32732	
2861	0	32728	32774	
2862	0	32756	32660	
2863	0	32752	32770	
2864	0	32774	32790	
2865	0	32852	32736	
2866	0	32808	32748	
2867	0	32828	32752	
2868	0	32780	32816	
2869	0	32752	32820	
2870	0	32836	32668	
2871	0	32756	32772	
2872	0	32800	32772	
2873	0	32800	32798	
2874	0	32742	32746	
2875	0	32792	32692	
2876	0	32792	32802	
2877	0	32812	32844	
2878	0	32820	32666	
2879	0	32824	32832	
2880	0	32804	32815	
2881	0	32852	32710	
2882	0	32736	32774	
2883	0	32744	32784	
2884	0	32776	32654	
2885	0	32776	32804	
2886	0	32844	32816	
2887	0	32804	32732	
2888	0	32820	32796	
2889	0	32900	32682	
2890	0	32816	32794	
2891	0	32830	32834	
2892	0	32864	32620	
2893	0	32848	32732	
2894	0	32840	32712	
2895	0	32796	32775	
2896	0	32804	32716	
2897	0	32832	32748	
2898	0	32862	32696	
2899	0	32858	32800	
2900	0	32784	32774	
2901	0	32804	32769	
2902	0	32760	32808	
2903	0	32874	32774	
2904	0	32784	32630	
2905	0	32741	32748	
2906	0	32740	32740	
2907	0	32834	32772	
2908	0	32884	32676	
2909	0	32836	32784	
2910	0	32880	32826	
2911	0	32824	32758	
2912	0	32764	32756	
2913	0	32846	32782	
2914	0	32880	32798	
2915	0	32790	32692	
2916	0	32804	32816	
2917	0	32798	32804	
2918	0	32772	32688	
2919	0	32852	32828	
2920	0	32808	32660	
2921	0	32844	32630	
2922	0	32864	32822	
2923	0	32810	32838	
2924	0	32832	32714	
2925	0	32772	32782	
2926	0	32664	32732	
2927	0	32656	32884	
2928	0	32692	32772	
2929	0	32868	32720	
2930	0	32882	32871	
2931	0	32766	32836	
2932	0	32824	32730	
2933	0	32840	32766	
2934	0	32820	32694	
2935	0	32914	32772	
2936	0	32852	32812	
2937	0	32878	32760	
2938	0	32768	32775	
2939	0	32844	32738	
2940	0	32826	32688	
2941	0	32824	32684	
2942	0	32874	32775	
2943	0	32796	32812	
2944	0	32792	32852	
2945	0	32801	32900	
2946	0	32800	32770	
2947	0	32842	32732	
2948	0	32820	32775	
2949	0	32792	32794	
2950	0	32762	32718	
2951	0	32728	32880	
2952	0	32736	32774	
2953	0	32792	32652	
2954	0	32796	32740	
2955	0	32728	32768	
2956	0	32916	32760	
2957	0	32896	32780	
2958	0	32892	32636	
2959	0	32844	32764	
2960	0	32852	32726	
2961	0	32856	32788	
2962	0	32836	32814	
2963	0	32826	32774	
2964	0	32844	32794	
2965	0	32744	32824	
2966	0	32762	32736	
2967	0	32708	32820	
2968	0	32780	32672	
2969	0	32852	32760	
2970	0	32832	32818	
2971	0	32812	32678	
2972	0	32774	32816	
2973	0	32804	32704	
2974	0	32780	32775	
2975	0	32752	32766	
2976	0	32704	32740	
2977	0	32724	32720	
2978	0	32828	32684	
2979	0	32792	32760	
2980	0	32872	32754	
2981	0	32862	32848	
2982	0	32868	32676	
2983	0	32928	32738	
2984	0	32812	32756	
2985	0	32798	32716	
2986	0	32810	32768	
2987	0	32760	32622	
2988	0	32828	32796	
2989	0	32854	32816	
2990	0	32792	32676	
2991	0	32736	32714	
2992	0	32804	32800	
2993	0	32748	32766	
2994	0	32808	32736	
2995	0	32790	32804	
2996	0	32784	32774	
2997	0	32832	32766	
2998	0	32800	32724	
2999	0	32908	32700	
3000	0	32912	32728	
3001	0	32948	32770	
3002	0	32844	32758	
3003	0	32768	32710	
3004	0	32780	32784	
3005	0	32800	32764	
3006	0	32780	32760	
3007	0	32756	32788	
3008	0	32776	32760	
3009	0	32864	32800	
3010	0	32856	32760	
3011	0	32820	32804	
3012	0	32768	32652	
3013	0	32842	32836	
3014	0	32804	32836	
3015	0	32712	32708	
3016	0	32714	32775	
3017	0	32774	32708	
3018	0	32944	32786	
3019	0	32794	32696	
3020	0	32734	32820	
3021	0	32812	32792	
3022	0	32828	32640	
3023	0	32832	32796	
3024	0	32736	32775	
3025	0	32834	32775	
3026	0	32748	32698	
3027	0	32708	32812	
3028	0	32788	32673	
3029	0	32864	32732	
3030	0	32824	32774	
3031	0	32824	32826	
3032	0	32880	32810	
3033	0	32930	32734	
3034	0	32896	32772	
3035	0	32800	32774	
3036	0	32774	32846	
3037	0	32832	32736	
3038	0	32718	32704	
3039	0	32816	32680	
3040	0	32752	32692	
3041	0	32786	32817	
3042	0	32780	32864	
3043	0	32840	32756	
3044	0	32808	32800	
3045	0	32868	32834	
3046	0	32868	32666	
3047	0	32910	32743	
3048	0	32848	32810	
3049	0	32898	32616	
3050	0	32844	32792	
3051	0	32882	32796	
3052	0	32840	32752	
3053	0	32708	32903	
3054	0	32775	32836	
3055	0	32724	32766	
3056	0	32844	32736	
3057	0	32956	32712	
3058	0	32908	32680	
3059	0	32852	32598	
3060	0	32828	32676	
3061	0	32744	32728	
3062	0	32712	32692	
3063	0	32766	32716	
3064	0	32844	32934	
3065	0	32852	32727	
3066	0	32758	32756	
3067	0	32656	32830	
3068	0	32604	32776	
3069	0	32640	32684	
3070	0	32704	32824	
3071	0	32782	32866	
3072	0	32770	32626	
3073	0	32804	32740	
3074	0	32896	32870	
3075	0	33000	32796	
3076	0	32844	32842	
3077	0	32898	32712	
3078	0	32929	32850	
3079	0	32872	32908	
3080	0	32932	32766	
3081	0	32902	32872	
3082	0	32872	32630	
3083	0	32736	32822	
3084	0	32748	32692	
3085	0	32756	32834	
3086	0	32868	32782	
3087	0	32808	32688	
3088	0	32624	32704	
3089	0	32762	32702	
3090	0	32820	32774	
3091	0	32876	32820	
3092	0	32914	32636	
3093	0	32928	32722	
3094	0	32840	32736	
3095	0	32782	32794	
3096	0	32784	32807	
3097	0	32772	32688	
3098	0	32744	32742	
3099	0	32772	32784	
3100	0	32784	32770	
3101	0	32792	32798	
3102	0	32768	32775	
3103	0	32780	32716	
3104	0	32760	32792	
3105	0	32800	32800	
3106	0	32858	32836	
3107	0	32800	32788	
3108	0	32932	32874	
3109	0	32772	32678	
3110	0	32836	32804	
3111	0	32796	32698	
3112	0	32792	32836	
3113	0	32834	32766	
3114	0	32838	32644	
3115	0	32920	32796	
3116	0	32840	32692	
3117	0	32906	32832	
3118	0	32792	32768	
3119	0	32822	32708	
3120	0	32912	32648	
3121	0	32860	32708	
3122	0	32800	32740	
3123	0	32738	32834	
3124	0	32812	32744	
3125	0	32724	32764	
3126	0	32612	32750	
3127	0	32606	32856	
3128	0	32752	32822	
3129	0	32820	32724	
3130	0	32856	32740	
3131	0	32956	32684	
3132	0	32920	32874	
3133	0	32920	32810	
3134	0	32812	32676	
3135	0	32676	32740	
3136	0	32740	32784	
3137	0	32818	32871	
3138	0	32844	32880	
3139	0	32884	32756	
3140	0	32930	32802	
3141	0	32948	32928	
3142	0	32932	32783	
3143	0	32680	32732	
3144	0	32732	32752	
3145	0	32698	32802	
3146	0	32700	32769	
3147	0	32784	32666	
3148	0	32868	32724	
3149	0	32844	32760	
3150	0	32824	32734	
3151	0	32788	32705	
3152	0	32768	32788	
3153	0	32800	32800	
3154	0	32836	32830	
3155	0	32878	32826	
3156	0	32784	32716	
3157	0	32732	32848	
3158	0	32784	32774	
3159	0	32820	32688	
3160	0	32808	32748	
3161	0	32890	32672	
3162	0	32882	32736	
3163	0	32872	32754	
3164	0	32820	32766	
3165	0	32830	32768	
3166	0	32736	32852	
3167	0	32772	32872	
3168	0	32704	32770	
3169	0	32800	32918	
3170	0	32848	32912	
3171	0	32800	32804	
3172	0	32820	32594	
3173	0	32864	32612	
3174	0	32864	32592	
3175	0	32896	32519	
3176	0	32692	32552	
3177	0	32714	32736	
3178	0	32664	32740	
3179	0	32764	32864	
3180	0	32804	32760	
3181	0	32704	32858	
3182	0	32776	32942	
3183	0	32888	32852	
3184	0	32864	32880	
3185	0	32844	32810	
3186	0	32950	32792	
3187	0	32898	32647	
3188	0	32800	32760	
3189	0	32904	32700	
3190	0	32956	32804	
3191	0	32980	32740	
3192	0	32940	32784	
3193	0	32816	32736	
3194	0	32728	32738	
3195	0	32748	32818	
3196	0	32704	32775	
3197	0	32584	32870	
3198	0	32624	32732	
3199	0	32712	32789	
3200	0	32832	32768	
3201	0	32788	32798	
3202	0	32908	32784	
3203	0	32970	32780	
3204	0	32896	32756	
3205	0	32848	32621	
3206	0	32706	32754	
3207	0	32804	32682	
3208	0	32852	32708	
3209	0	32852	32732	
3210	0	32826	32928	
3211	0	32705	32820	
3212	0	32712	32816	
3213	0	32656	32775	
3214	0	32674	32750	
3215	0	32856	32768	
3216	0	32766	32751	
3217	0	32888	32792	
3218	0	32896	32766	
3219	0	32918	32766	
3220	0	32956	32728	
3221	0	32800	32836	
3222	0	32812	32752	
3223	0	32796	32772	
3224	0	32784	32840	
3225	0	32876	32794	
3226	0	32668	32812	
3227	0	32720	32848	
3228	0	32744	32832	
3229	0	32930	32720	
3230	0	32804	32788	
3231	0	32810	32736	
3232	0	32898	32806	
3233	0	32876	32812	
3234	0	32768	32841	
3235	0	32820	32736	
3236	0	32712	32775	
3237	0	32784	32658	
3238	0	32940	32724	
3239	0	32900	32688	
3240	0	32716	32800	
3241	0	32734	32640	
3242	0	32704	32850	
3243	0	32576	32710	
3244	0	32668	32858	
3245	0	32648	32816	
3246	0	32704	32758	
3247	0	32828	32688	
3248	0	32740	32784	
3249	0	32960	32734	
3250	0	32948	32688	
3251	0	32944	32841	
3252	0	33042	32876	
3253	0	33130	32706	
3254	0	33120	32742	
3255	0	32928	32712	
3256	0	32852	32742	
3257	0	32756	32718	
3258	0	32788	32774	
3259	0	32824	32740	
3260	0	32744	32752	
3261	0	32724	32876	
3262	0	32594	32768	
3263	0	32584	32740	
3264	0	32536	32684	
3265	0	32608	32784	
3266	0	32884	32742	
3267	0	32956	32698	
3268	0	32820	32772	
3269	0	32712	32676	
3270	0	32736	32774	
3271	0	32840	32840	
3272	0	32820	32688	
3273	0	32752	32794	
3274	0	32796	32658	
3275	0	32636	32792	
3276	0	32775	32812	
3277	0	32920	32640	
3278	0	32852	32650	
3279	0	32792	32804	
3280	0	33070	32712	
3281	0	33152	32775	
3282	0	33160	32682	
3283	0	32984	32752	
3284	0	32812	32752	
3285	0	32600	32796	
3286	0	32696	32964	
3287	0	32764	32832	
3288	0	32784	32884	
3289	0	32496	32716	
3290	0	32358	32692	
3291	0	32512	32490	
3292	0	32492	32313	
3293	0	32864	32500	
3294	0	33292	32504	
3295	0	33072	32628	
3296	0	32632	32847	
3297	0	32654	32892	
3298	0	32704	32928	
3299	0	33002	33020	
3300	0	33036	33082	
3301	0	32980	33008	
3302	0	33096	32946	
3303	0	32800	32828	
3304	0	32936	32740	
3305	0	32924	32796	
3306	0	32758	32660	
3307	0	32762	32600	
3308	0	32774	32650	
3309	0	32720	32700	
3310	0	32696	32676	
3311	0	32868	32774	
3312	0	32944	32834	
3313	0	32826	32774	
3314	0	32648	32796	
3315	0	32592	32762	
3316	0	32610	32720	
3317	0	32612	32788	
3318	0	32578	32796	
3319	0	32788	32758	
3320	0	32928	32802	
3321	0	33028	32832	
3322	0	32976	32640	
3323	0	33136	32734	
3324	0	32958	32804	
3325	0	32968	32792	
3326	0	32732	32830	
3327	0	32582	32716	
3328	0	32600	32798	
3329	0	32636	32806	
3330	0	32860	32772	
3331	0	32840	32820	
3332	0	32778	32750	
3333	0	32836	32814	
3334	0	32736	32732	
3335	0	32808	32676	
3336	0	32868	32780	
3337	0	32788	32760	
3338	0	32754	32628	
3339	0	32728	32684	
3340	0	32632	32736	
3341	0	32490	32524	
3342	0	32818	32696	
3343	0	32556	32817	
3344	0	32472	32704	
3345	0	32584	32800	
3346	0	32516	32929	
3347	0	32668	32960	
3348	0	33292	32936	
3349	0	33516	32894	
3350	0	33408	32818	
3351	0	33074	32526	
3352	0	33248	32728	
3353	0	33398	32798	
3354	0	33144	32900	
3355	0	32728	32796	
3356	0	32564	32682	
3357	0	32466	32560	
3358	0	32576	32688	
3359	0	32732	32624	
3360	0	32820	32704	
3361	0	32884	32760	
3362	0	33080	32328	
3363	0	32488	32624	
3364	0	32494	32608	
3365	0	32732	32598	
3366	0	32904	32968	
3367	0	32456	33088	
3368	0	32852	33324	
3369	0	33064	33144	
3370	0	32760	32830	
3371	0	32732	32714	
3372	0	32536	32530	
3373	0	32494	32392	
3374	0	32828	32298	
3375	0	32810	32320	
3376	0	33104	32965	
3377	0	33076	32932	
3378	0	32676	33156	
3379	0	32682	33198	
3380	0	32862	32984	
3381	0	32924	32892	
3382	0	32904	32852	
3383	0	32540	32868	
3384	0	32156	32775	
3385	0	32538	32583	
3386	0	32656	31756	
3387	0	32668	31604	
3388	0	32732	32214	
3389	0	32892	32906	
3390	0	33372	33008	
3391	0	33944	32714	
3392	0	33384	32972	
3393	0	32484	33616	
3394	0	32700	33680	
3395	0	32712	33720	
3396	0	32296	33456	
3397	0	32452	33246	
3398	0	33244	33108	
3399	0	32992	33047	
3400	0	32986	32848	
3401	0	33468	31940	
3402	0	33348	32230	
3403	0	32872	32484	
3404	0	32536	32448	
3405	0	32492	32412	
3406	0	32560	32132	
3407	0	32532	32016	
3408	0	32802	32144	
3409	0	32804	32624	
3410	0	32712	32970	
3411	0	32844	33044	
3412	0	32948	33031	
3413	0	32962	33200	
3414	0	32712	33380	
3415	0	32536	33390	
3416	0	32056	33348	
3417	0	32144	33207	
3418	0	32468	32906	
3419	0	32942	32796	
3420	0	32948	32640	
3421	0	33276	32420	
3422	0	32796	32326	
3423	0	32656	32204	
3424	0	33120	32407	
3425	0	32860	32318	
3426	0	32228	32474	
3427	0	31946	32452	
3428	0	32364	32512	
3429	0	32320	32162	
3430	0	32580	32096	
3431	0	33576	32150	
3432	0	34390	32684	
3433	0	34660	32610	
3434	0	34062	32470	
3435	0	33440	32798	
3436	0	33316	33528	
3437	0	32694	33994	
3438	0	32480	34392	
3439	0	32432	33444	
3440	0	32480	33016	
3441	0	32350	33178	
3442	0	32066	33068	
3443	0	32172	32846	
3444	0	31824	32647	
3445	0	32074	32892	
3446	0	32650	32850	
3447	0	33234	32364	
3448	0	33568	31482	
3449	0	32672	31633	
3450	0	32577	32126	
3451	0	32780	31956	
3452	0	32694	32126	
3453	0	32676	32552	
3454	0	32868	33188	
3455	0	33066	33762	
3456	0	32712	34108	
3457	0	32696	33656	
3458	0	32924	33122	
3459	0	32924	32540	
3460	0	32460	32878	
3461	0	33016	32648	
3462	0	33104	31704	
3463	0	33636	31788	
3464	0	33800	31988	
3465	0	33080	32074	
3466	0	32180	31984	
3467	0	32496	32990	
3468	0	32856	34438	
3469	0	33308	34136	
3470	0	33748	32588	
3471	0	32816	31994	
3472	0	32356	32078	
3473	0	32676	33514	
3474	0	32756	33820	
3475	0	32896	34054	
3476	0	32826	33662	
3477	0	32572	33508	
3478	0	31964	33150	
3479	0	31840	33310	
3480	0	31784	33112	
3481	0	31992	32762	
3482	0	33000	33386	
3483	0	33660	33622	
3484	0	33444	33461	
3485	0	33888	32598	
3486	0	33524	31654	
3487	0	32832	30410	
3488	0	32693	30136	
3489	0	32676	30440	
3490	0	32208	30400	
3491	0	32180	31006	
3492	0	32376	31732	
3493	0	32952	32444	
3494	0	33356	33652	
3495	0	33140	34464	
3496	0	32584	35414	
3497	0	32064	35746	
3498	0	32916	35008	
3499	0	32708	34272	
3500	0	32878	33312	
3501	0	32864	32412	
3502	0	33312	32008	
3503	0	33364	32020	
3504	0	33280	31928	
3505	0	33328	32260	
3506	0	33756	32866	
3507	0	33026	33024	
3508	0	32796	32952	
3509	0	32586	33190	
3510	0	32488	33080	
3511	0	32136	32672	
3512	0	32224	32292	
3513	0	32632	31764	
3514	0	32516	31716	
3515	0	32378	32078	
3516	0	32878	32228	
3517	0	32988	32376	
3518	0	32752	32224	
3519	0	32240	32278	
3520	0	31344	31534	
3521	0	31042	31972	
3522	0	32248	32538	
3523	0	33932	31992	
3524	0	33310	32932	
3525	0	32988	34476	
3526	0	33540	34704	
3527	0	34708	35232	
3528	0	34672	34712	
3529	0	34528	33508	
3530	0	33628	32888	
3531	0	32636	32498	
3532	0	32316	32026	
3533	0	32036	31866	
3534	0	32136	31902	
3535	0	32160	32564	
3536	0	31972	32892	
3537	0	32252	33382	
3538	0	32920	33252	
3539	0	32856	33264	
3540	0	32372	33056	
3541	0	32322	32596	
3542	0	32790	32330	
3543	0	32916	31980	
3544	0	33112	32284	
3545	0	33068	32584	
3546	0	32522	32606	
3547	0	32564	32500	
3548	0	32602	32336	
3549	0	32648	31872	
3550	0	32878	31616	
3551	0	33002	31684	
3552	0	32704	31796	
3553	0	32772	32351	
3554	0	32432	33430	
3555	0	31816	33518	
3556	0	32070	34012	
3557	0	31870	33892	
3558	0	33736	33068	
3559	0	33480	32610	
3560	0	33748	33260	
3561	0	33194	33876	
3562	0	33488	34118	
3563	0	33522	33332	
3564	0	33012	32985	
3565	0	32532	32034	
3566	0	32096	32932	
3567	0	32392	33214	
3568	0	32732	32838	
3569	0	33312	32804	
3570	0	33154	32580	
3571	0	32954	32140	
3572	0	32800	31834	
3573	0	32548	31720	
3574	0	32212	31908	
3575	0	32606	31728	
3576	0	33056	31536	
3577	0	32312	31822	
3578	0	32780	33324	
3579	0	32868	34612	
3580	0	32668	34324	
3581	0	32464	33924	
3582	0	32520	33173	
3583	0	32516	32420	
3584	0	31600	31082	
3585	0	30720	30892	
3586	0	32400	31664	
3587	0	33012	31796	
3588	0	34390	32772	
3589	0	34594	33396	
3590	0	34798	32904	
3591	0	32888	34028	
3592	0	33442	34052	
3593	0	34380	34768	
3594	0	33644	35084	
3595	0	32968	34440	
3596	0	33664	33586	
3597	0	33512	33396	
3598	0	33016	33352	
3599	0	32776	33390	
3600	0	32190	32696	
3601	0	32148	32124	
3602	0	32404	31712	
3603	0	32360	31608	
3604	0	32158	31688	
3605	0	32558	32042	
3606	0	32836	31944	
3607	0	32498	32092	
3608	0	32132	32860	
3609	0	32608	33042	
3610	0	32520	32996	
3611	0	32042	32572	
3612	0	32246	32164	
3613	0	32100	31476	
3614	0	32154	29294	
3615	0	32528	28734	
3616	0	32816	31434	
3617	0	31854	34512	
3618	0	32596	35800	
3619	0	32726	35392	
3620	0	32328	35764	
3621	0	33760	35626	
3622	0	34538	34432	
3623	0	32988	32132	
3624	0	32146	30264	
3625	0	32824	30260	
3626	0	33762	30952	
3627	0	34216	32400	
3628	0	33976	32876	
3629	0	34344	33998	
3630	0	33716	35060	
3631	0	33092	35352	
3632	0	32640	35298	
3633	0	32724	35000	
3634	0	32176	33876	
3635	0	32192	32902	
3636	0	32042	31686	
3637	0	31928	30564	
3638	0	32668	30120	
3639	0	32418	29537	
3640	0	32460	30164	
3641	0	32088	30302	
3642	0	31642	31246	
3643	0	31288	32254	
3644	0	33068	32312	
3645	0	34092	32196	
3646	0	34136	32600	
3647	0	33276	33356	
3648	0	32364	33926	
3649	0	32020	34954	
3650	0	32532	36292	
3651	0	32504	36604	
3652	0	32652	36788	
3653	0	32656	35028	
3654	0	32714	34238	
3655	0	33396	33543	
3656	0	33028	32204	
3657	0	32108	31000	
3658	0	30752	30116	
3659	0	32832	29840	
3660	0	34692	30422	
3661	0	34682	31034	
3662	0	34560	31606	
3663	0	33924	31948	
3664	0	33480	31336	
3665	0	32448	31176	
3666	0	32892	31658	
3667	0	32420	32516	
3668	0	32104	33828	
3669	0	32420	34250	
3670	0	32342	33908	
3671	0	32652	34086	
3672	0	32568	32904	
3673	0	31560	31890	
3674	0	31848	31652	
3675	0	32648	33008	
3676	0	33952	33696	
3677	0	33328	34552	
3678	0	32546	34652	
3679	0	32426	34792	
3680	0	32106	33956	
3681	0	33008	32320	
3682	0	32526	31452	
3683	0	32266	31844	
3684	0	32852	31926	
3685	0	32992	32640	
3686	0	33000	33160	
3687	0	33104	33504	
3688	0	34164	33478	
3689	0	32984	33156	
3690	0	31952	31870	
3691	0	32072	31966	
3692	0	34542	32670	
3693	0	34068	32724	
3694	0	32988	31212	
3695	0	33428	31872	
3696	0	33064	33100	
3697	0	32560	33146	
3698	0	32668	32650	
3699	0	32644	32318	
3700	0	31740	31204	
3701	0	32588	32020	
3702	0	32696	33264	
3703	0	32944	33220	
3704	0	33012	31986	
3705	0	32168	32156	
3706	0	32008	33476	
3707	0	32788	33518	
3708	0	32564	33164	
3709	0	32422	33152	
3710	0	33200	33000	
3711	0	33808	33250	
3712	0	32970	33020	
3713	0	31914	33454	
3714	0	31048	33872	
3715	0	31924	34224	
3716	0	32736	33468	
3717	0	32476	32802	
3718	0	33032	31382	
3719	0	32552	31072	
3720	0	32892	31530	
3721	0	34380	32016	
3722	0	34256	32378	
3723	0	34952	32764	
3724	0	35528	33516	
3725	0	34796	33548	
3726	0	32768	32634	
3727	0	32022	31626	
3728	0	32064	32024	
3729	0	31740	32282	
3730	0	31676	32860	
3731	0	31360	33636	
3732	0	31456	33748	
3733	0	31740	33972	
3734	0	33008	33799	
3735	0	33380	33182	
3736	0	33236	32048	
3737	0	32878	31378	
3738	0	33104	31460	
3739	0	33952	30636	
3740	0	33746	29940	
3741	0	32768	31098	
3742	0	31904	32378	
3743	0	31440	33084	
3744	0	31298	32666	
3745	0	30966	33004	
3746	0	32656	33736	
3747	0	32996	33426	
3748	0	33784	33256	
3749	0	33648	33908	
3750	0	32900	34150	
3751	0	33568	33292	
3752	0	33676	34036	
3753	0	33952	34008	
3754	0	33956	33796	
3755	0	32554	33700	
3756	0	31948	33540	
3757	0	31944	32356	
3758	0	31520	31724	
3759	0	32618	31510	
3760	0	31348	31520	
3761	0	32748	31610	
3762	0	32650	32160	
3763	0	33292	32398	
3764	0	33784	32136	
3765	0	32332	31494	
3766	0	31748	31810	
3767	0	33958	32358	
3768	0	35364	33424	
3769	0	35072	34028	
3770	0	35344	35216	
3771	0	32836	34920	
3772	0	31624	33014	
3773	0	32116	31984	
3774	0	32408	31276	
3775	0	32472	31452	
3776	0	32740	31706	
3777	0	32060	31916	
3778	0	30830	32020	
3779	0	31668	33248	
3780	0	32976	32816	
3781	0	33386	32020	
3782	0	32784	32404	
3783	0	32848	32696	
3784	0	32800	33492	
3785	0	33010	33836	
3786	0	33120	34460	
3787	0	33004	34296	
3788	0	32364	33648	
3789	0	32712	33382	
3790	0	32984	33068	
3791	0	32994	32390	
3792	0	31344	32280	
3793	0	32146	32740	
3794	0	32640	32230	
3795	0	31632	31968	
3796	0	33064	31076	
3797	0	32840	29756	
3798	0	33688	29774	
3799	0	32756	30620	
3800	0	32088	30236	
3801	0	33744	31400	
3802	0	33650	33964	
3803	0	33846	36416	
3804	0	33388	38528	
3805	0	33348	38808	
3806	0	33960	37076	
3807	0	34528	35348	
3808	0	33226	32804	
3809	0	32604	31504	
3810	0	31644	29989	
3811	0	31420	29692	
3812	0	31812	30292	
3813	0	32826	30676	
3814	0	33020	31422	
3815	0	33296	32662	
3816	0	32142	33856	
3817	0	31302	34032	
3818	0	33572	33404	
3819	0	34324	32430	
3820	0	33626	31248	
3821	0	32488	31164	
3822	0	32496	31646	
3823	0	32804	32596	
3824	0	32560	33256	
3825	0	31560	32728	
3826	0	31308	32980	
3827	0	31176	32522	
3828	0	32200	32548	
3829	0	34146	33292	
3830	0	34204	33138	
3831	0	34132	32034	
3832	0	33216	33230	
3833	0	33924	34920	
3834	0	33684	35876	
3835	0	32588	36172	
3836	0	32372	35288	
3837	0	31944	34600	
3838	0	32506	33596	
3839	0	33050	32476	
3840	0	33556	31728	
3841	0	32820	30744	
3842	0	32556	30852	
3843	0	32472	31661	
3844	0	32074	32204	
3845	0	32346	32376	
3846	0	32768	33228	
3847	0	32330	33696	
3848	0	33116	33559	
3849	0	33118	33078	
3850	0	33200	32676	
3851	0	31652	31850	
3852	0	30964	30622	
3853	0	32392	31300	
3854	0	33624	31818	
3855	0	34226	32460	
3856	0	34048	33472	
3857	0	31776	34260	
3858	0	32436	33844	
3859	0	34256	33666	
3860	0	33820	32834	
3861	0	32794	33314	
3862	0	32876	33094	
3863	0	33314	32140	
3864	0	33708	31640	
3865	0	32900	31840	
3866	0	32412	32384	
3867	0	32192	32746	
3868	0	32548	33252	
3869	0	32336	33352	
3870	0	32780	33252	
3871	0	32878	33406	
3872	0	32324	33100	
3873	0	32448	32944	
3874	0	32812	32592	
3875	0	32928	31700	
3876	0	32500	31764	
3877	0	32888	32136	
3878	0	32888	32682	
3879	0	32296	32174	
3880	0	32504	32184	
3881	0	32838	32324	
3882	0	33692	32568	
3883	0	33098	32448	
3884	0	31676	31662	
3885	0	31553	31344	
3886	0	32228	31822	
3887	0	32102	33036	
3888	0	32820	34516	
3889	0	32600	34908	
3890	0	32032	35348	
3891	0	33734	35168	
3892	0	33642	34600	
3893	0	35938	33952	
3894	0	34292	33476	
3895	0	33600	32872	
3896	0	33146	32036	
3897	0	32598	32122	
3898	0	31964	32354	
3899	0	32272	32588	
3900	0	32796	32136	
3901	0	33524	32020	
3902	0	32928	32644	
3903	0	32804	32458	
3904	0	32740	32756	
3905	0	32568	33758	
3906	0	32880	33470	
3907	0	32800	32116	
3908	0	32504	31942	
3909	0	32576	31960	
3910	0	32636	32288	
3911	0	32460	32718	
3912	0	31988	32748	
3913	0	31994	33356	
3914	0	32952	33996	
3915	0	32806	33962	
3916	0	32032	33560	
3917	0	32606	32934	
3918	0	34234	32330	
3919	0	33408	31772	
3920	0	33068	31292	
3921	0	32794	30856	
3922	0	31552	31532	
3923	0	31214	32656	
3924	0	32188	33406	
3925	0	33732	33076	
3926	0	34220	33572	
3927	0	32970	33920	
3928	0	32328	34016	
3929	0	32590	33996	
3930	0	34104	33652	
3931	0	34396	33262	
3932	0	33058	33060	
3933	0	31608	32392	
3934	0	31940	31934	
3935	0	32776	31848	
3936	0	33288	31388	
3937	0	33660	31414	
3938	0	32916	31562	
3939	0	32900	31624	
3940	0	32988	31468	
3941	0	32834	31118	
3942	0	32812	30914	
3943	0	32744	31578	
3944	0	32360	32740	
3945	0	32508	33646	
3946	0	32672	33610	
3947	0	32098	34314	
3948	0	32396	34818	
3949	0	33020	34684	
3950	0	33060	34570	
3951	0	32648	35106	
3952	0	32456	35162	
3953	0	33296	34792	
3954	0	32308	33954	
3955	0	31924	32850	
3956	0	32788	32020	
3957	0	33720	31376	
3958	0	34780	30760	
3959	0	33350	30800	
3960	0	32432	31328	
3961	0	33440	31815	
3962	0	32912	31424	
3963	0	32872	31640	
3964	0	32432	32362	
3965	0	32240	33284	
3966	0	32224	33538	
3967	0	31742	33968	
3968	0	31512	34036	
3969	0	31600	34048	
3970	0	32394	33484	
3971	0	34292	33186	
3972	0	33728	32654	
3973	0	33612	32276	
3974	0	33804	32204	
3975	0	33016	32032	
3976	0	32673	31880	
3977	0	32852	31624	
3978	0	32354	31662	
3979	0	32366	31679	
3980	0	32568	32396	
3981	0	32892	32906	
3982	0	32828	33352	
3983	0	32754	33560	
3984	0	32568	33564	
3985	0	32376	33562	
3986	0	32176	33426	
3987	0	33016	33086	
3988	0	33104	32558	
3989	0	33060	31718	
3990	0	31836	31466	
3991	0	32022	31686	
3992	0	33360	32398	
3993	0	33486	33244	
3994	0	33088	33736	
3995	0	32272	33604	
3996	0	32904	32976	
3997	0	32928	32600	
3998	0	32300	32256	
3999	0	32148	32286	
4000	0	33072	32359	
4001	0	32034	32620	
4002	0	31680	33174	
4003	0	32828	33452	
4004	0	33472	33496	
4005	0	33464	32708	
4006	0	34716	32180	
4007	0	33816	32148	
4008	0	33262	32647	
4009	0	32780	33124	
4010	0	32772	33588	
4011	0	32852	34012	
4012	0	32680	33918	
4013	0	32488	33514	
4014	0	32504	33104	
4015	0	32600	32616	
4016	0	32458	32064	
4017	0	32350	31352	
4018	0	32328	31822	
4019	0	32340	32454	
4020	0	31912	32268	
4021	0	33058	31892	
4022	0	32720	31156	
4023	0	32762	31488	
4024	0	33188	32896	
4025	0	32976	34200	
4026	0	33064	35160	
4027	0	32472	35384	
4028	0	32450	35112	
4029	0	32760	34692	
4030	0	33322	33224	
4031	0	33316	31844	
4032	0	33208	31362	
4033	0	32512	31802	
4034	0	32850	31960	
4035	0	33064	32132	
4036	0	32896	32348	
4037	0	32800	32524	
4038	0	32782	32612	
4039	0	32804	32628	
4040	0	32772	32694	
4041	0	32754	32492	
4042	0	32784	32594	
4043	0	32716	32664	
4044	0	32704	32544	
4045	0	32684	32772	
4046	0	32696	32842	
4047	0	32802	32836	
4048	0	32520	32834	
4049	0	32760	32836	
4050	0	33012	32982	
4051	0	33240	32890	
4052	0	32826	32692	
4053	0	32288	32588	
4054	0	31988	32452	
4055	0	31852	32292	
4056	0	32436	32122	
4057	0	34016	32472	
4058	0	32940	32050	
4059	0	33688	31304	
4060	0	33090	32148	
4061	0	32428	32644	
4062	0	32274	32960	
4063	0	33060	32656	
4064	0	33728	33388	
4065	0	33792	33828	
4066	0	33066	34314	
4067	0	32740	34416	
4068	0	32700	34426	
4069	0	32604	33884	
4070	0	32724	33196	
4071	0	32668	32850	
4072	0	32712	32490	
4073	0	32748	32003	
4074	0	32782	31860	
4075	0	32794	31804	
4076	0	32784	32152	
4077	0	32736	32422	
4078	0	32660	32632	
4079	0	32690	32656	
4080	0	32836	32702	
4081	0	32878	32850	
4082	0	32900	32788	
4083	0	32592	32750	
4084	0	32546	32740	
4085	0	32816	32754	
4086	0	32730	32916	
4087	0	32988	33024	
4088	0	31392	32976	
4089	0	30821	32868	
4090	0	32108	32472	
4091	0	32664	32490	
4092	0	33508	32664	
4093	0	33212	32344	
4094	0	34292	31560	
4095	0	34676	31836	
4096	0	33728	32180	
4097	0	33434	32604	
4098	0	33008	32881	
4099	0	32880	33097	
4100	0	32660	33268	
4101	0	32756	33536	
4102	0	32576	33444	
4103	0	32528	33192	
4104	0	32628	32848	
4105	0	32580	32704	
4106	0	32676	32604	
4107	0	32644	32684	
4108	0	32600	32868	
4109	0	32692	32814	
4110	0	32702	32596	
4111	0	32650	32558	
4112	0	32612	32286	
4113	0	32722	32174	
4114	0	32728	32208	
4115	0	32756	32598	
4116	0	32792	32804	
4117	0	32828	33006	
4118	0	32794	33406	
4119	0	32920	33382	
4120	0	32918	33354	
4121	0	32970	33276	
4122	0	32864	33052	
4123	0	32432	33038	
4124	0	32442	32964	
4125	0	32208	32948	
4126	0	32134	32822	
4127	0	32232	32566	
4128	0	33160	32230	
4129	0	33642	32446	
4130	0	33572	32408	
4131	0	33302	32460	
4132	0	33460	32652	
4133	0	33628	32714	
4134	0	33096	32576	
4135	0	32760	32744	
4136	0	32556	32672	
4137	0	32640	32742	
4138	0	32708	32700	
4139	0	32560	32738	
4140	0	32608	32902	
4141	0	32716	32693	
4142	0	32556	32766	
4143	0	32676	32657	
4144	0	32824	32558	
4145	0	32762	32646	
4146	0	32820	32676	
4147	0	32812	32852	
4148	0	32780	33128	
4149	0	32712	33198	
4150	0	32784	33272	
4151	0	32650	33128	
4152	0	32560	33056	
4153	0	32626	33048	
4154	0	33062	32884	
4155	0	33374	32356	
4156	0	32960	32436	
4157	0	32802	32366	
4158	0	32416	32165	
4159	0	32496	32426	
4160	0	32484	32848	
4161	0	32380	32939	
4162	0	32676	33030	
4163	0	32656	33120	
4164	0	33136	32952	
4165	0	33280	32790	
4166	0	33192	32642	
4167	0	32984	32508	
4168	0	32916	32510	
4169	0	32744	32672	
4170	0	32988	32772	
4171	0	32709	32764	
4172	0	32748	32702	
4173	0	33028	33020	
4174	0	33016	33148	
4175	0	32840	33108	
4176	0	32796	33162	
4177	0	32852	32808	
4178	0	32892	32724	
4179	0	32804	32756	
4180	0	32524	32590	
4181	0	32634	32634	
4182	0	32772	32692	
4183	0	32952	32680	
4184	0	32904	32528	
4185	0	32728	32728	
4186	0	32708	32700	
4187	0	32910	32680	
4188	0	32712	32646	
4189	0	32724	32584	
4190	0	32744	32917	
4191	0	32799	32972	
4192	0	32884	32888	
4193	0	32872	32644	
4194	0	33106	32332	
4195	0	32992	31980	
4196	0	32684	32420	
4197	0	32704	32632	
4198	0	32668	32647	
4199	0	32602	32410	
4200	0	32648	32598	
4201	0	33128	32572	
4202	0	33080	32680	
4203	0	32840	32820	
4204	0	32820	33128	
4205	0	32764	33174	
4206	0	32918	33256	
4207	0	32612	33228	
4208	0	32788	33186	
4209	0	32970	33246	
4210	0	33054	33212	
4211	0	32636	33138	
4212	0	32540	33104	
4213	0	32716	33074	
4214	0	32858	33148	
4215	0	32808	32954	
4216	0	32842	32408	
4217	0	32892	32318	
4218	0	33100	31940	
4219	0	33060	31772	
4220	0	32932	32360	
4221	0	32766	32668	
4222	0	32560	32868	
4223	0	32748	32904	
4224	0	32820	32970	
4225	0	32788	32836	
4226	0	32788	32650	
4227	0	32724	32794	
4228	0	32616	32808	
4229	0	32704	32692	
4230	0	32952	32820	
4231	0	32960	32504	
4232	0	32910	32494	
4233	0	32844	32832	
4234	0	32528	32908	
4235	0	32592	33068	
4236	0	32820	33136	
4237	0	32948	33031	
4238	0	32920	33082	
4239	0	32800	32890	
4240	0	33136	32864	
4241	0	32752	32708	
4242	0	32458	32580	
4243	0	32784	32536	
4244	0	32816	32430	
4245	0	32936	32614	
4246	0	33356	32647	
4247	0	32898	32644	
4248	0	32712	32784	
4249	0	32856	32868	
4250	0	32952	32882	
4251	0	32752	32924	
4252	0	32762	32785	
4253	0	32716	32758	
4254	0	32702	32740	
4255	0	32862	32542	
4256	0	32848	32742	
4257	0	32748	32728	
4258	0	32740	32742	
4259	0	32758	32836	
4260	0	32720	32775	
4261	0	32746	32724	
4262	0	32652	32832	
4263	0	32818	32727	
4264	0	32776	32896	
4265	0	32688	32844	
4266	0	32632	32928	
4267	0	32804	32980	
4268	0	32764	32872	
4269	0	32864	32810	
4270	0	32776	32914	
4271	0	32696	32786	
4272	0	33032	32806	
4273	0	33148	32720	
4274	0	32784	32580	
4275	0	32608	32684	
4276	0	32772	32712	
4277	0	32832	32622	
4278	0	32958	32752	
4279	0	32700	32796	
4280	0	32802	32772	
4281	0	32848	32598	
4282	0	32794	32220	
4283	0	32688	31878	
4284	0	32868	32482	
4285	0	32928	32858	
4286	0	33220	32734	
4287	0	33044	32814	
4288	0	32672	33134	
4289	0	32754	33284	
4290	0	32642	33138	
4291	0	32656	32996	
4292	0	32562	33108	
4293	0	32548	33106	
4294	0	32928	32736	
4295	0	33286	32840	
4296	0	33044	32728	
4297	0	32992	32740	
4298	0	32928	32680	
4299	0	32868	32666	
4300	0	32618	32816	
4301	0	32704	32716	
4302	0	32692	32696	
4303	0	32904	32696	
4304	0	32940	32708	
4305	0	32904	32790	
4306	0	32644	32756	
4307	0	32712	32600	
4308	0	32656	32580	
4309	0	32808	32570	
4310	0	32896	32852	
4311	0	32768	32842	
4312	0	32736	32850	
4313	0	32724	32764	
4314	0	32800	32748	
4315	0	32772	32812	
4316	0	32704	32700	
4317	0	32816	32608	
4318	0	32904	32740	
4319	0	32800	32768	
4320	0	32860	33008	
4321	0	32768	33008	
4322	0	32984	32784	
4323	0	32768	32848	
4324	0	32516	32728	
4325	0	32592	32664	
4326	0	32802	32806	
4327	0	32812	32808	
4328	0	32798	32864	
4329	0	32846	32822	
4330	0	32852	32712	
4331	0	32804	32860	
4332	0	32760	32834	
4333	0	32686	32616	
4334	0	32704	32680	
4335	0	32812	32656	
4336	0	32852	32844	
4337	0	32914	32828	
4338	0	32896	32716	
4339	0	32780	32748	
4340	0	32970	32732	
4341	0	32866	32638	
4342	0	32592	32816	
4343	0	32564	32892	
4344	0	33016	32874	
4345	0	32892	32512	
4346	0	32840	32440	
4347	0	32928	32734	
4348	0	32696	32740	
4349	0	32640	32680	
4350	0	32844	32772	
4351	0	32840	32836	
4352	0	32932	32718	
4353	0	32836	32842	
4354	0	32704	32940	
4355	0	32940	32928	
4356	0	33046	32884	
4357	0	32856	32874	
4358	0	32736	32746	
4359	0	32800	32638	
4360	0	32848	32690	
4361	0	32724	32754	
4362	0	32720	32856	
4363	0	32732	32736	
4364	0	32832	32586	
4365	0	32864	32790	
4366	0	32776	32852	
4367	0	32898	32638	
4368	0	32836	32710	
4369	0	32664	32810	
4370	0	32604	32806	
4371	0	32728	32856	
4372	0	32736	32838	
4373	0	32768	32944	
4374	0	32756	32808	
4375	0	32800	32904	
4376	0	32936	32660	
4377	0	32696	32830	
4378	0	32800	32748	
4379	0	32516	32572	
4380	0	32720	32632	
4381	0	33284	32600	
4382	0	33088	32794	
4383	0	32864	32808	
4384	0	32986	32790	
4385	0	33028	32724	
4386	0	32740	32782	
4387	0	32724	32836	
4388	0	32586	32924	
4389	0	32674	32680	
4390	0	32972	32664	
4391	0	33024	32458	
4392	0	32848	32750	
4393	0	32782	32782	
4394	0	32744	32774	
4395	0	32736	32896	
4396	0	32744	32856	
4397	0	32848	32932	
4398	0	32964	32816	
4399	0	32692	32708	
4400	0	32764	32640	
4401	0	32764	32756	
4402	0	32796	32871	
4403	0	32848	32708	
4404	0	32884	32688	
4405	0	32880	32714	
4406	0	32864	32872	
4407	0	32712	32798	
4408	0	32730	32774	
4409	0	32782	32682	
4410	0	32784	32628	
4411	0	32736	32684	
4412	0	32552	32647	
4413	0	32444	32846	
4414	0	32480	32788	
4415	0	32272	32766	
4416	0	32336	32800	
4417	0	32480	32852	
4418	0	32574	32844	
4419	0	33304	32584	
4420	0	33374	32424	
4421	0	32770	32332	
4422	0	32696	32826	
4423	0	33116	33040	
4424	0	33544	32942	
4425	0	33092	32942	
4426	0	32700	32652	
4427	0	32816	32464	
4428	0	32814	32476	
4429	0	32912	32404	
4430	0	32744	32560	
4431	0	32624	32810	
4432	0	32762	32686	
4433	0	32776	32942	
4434	0	32956	32996	
4435	0	32976	32912	
4436	0	32912	32978	
4437	0	33128	32910	
4438	0	33141	32878	
4439	0	33232	32880	
4440	0	33232	32808	
4441	0	33072	32888	
4442	0	33037	32916	
4443	0	32980	32860	
4444	0	32928	32912	
4445	0	32872	33028	
4446	0	32988	32992	
4447	0	32856	33036	
4448	0	32604	32942	
4449	0	32642	32784	
4450	0	32642	32792	
4451	0	32740	32708	
4452	0	32704	32682	
4453	0	32610	32814	
4454	0	32676	32704	
4455	0	32864	32506	
4456	0	32736	32608	
4457	0	32760	32550	
4458	0	32744	32392	
4459	0	32690	32554	
4460	0	32686	32676	
4461	0	32780	32562	
4462	0	32832	32650	
4463	0	32710	32828	
4464	0	32616	32774	
4465	0	32940	32800	
4466	0	32906	32828	
4467	0	32620	32698	
4468	0	32604	32720	
4469	0	32772	32579	
4470	0	32928	32652	
4471	0	32888	32708	
4472	0	32744	32744	
4473	0	32632	32734	
4474	0	32516	32620	
4475	0	32444	32468	
4476	0	33172	32678	
4477	0	33228	32555	
4478	0	33508	32484	
4479	0	33352	32762	
4480	0	32882	32772	
4481	0	32708	32880	
4482	0	32712	33156	
4483	0	32690	33168	
4484	0	32664	33184	
4485	0	32672	33164	
4486	0	32722	32844	
4487	0	32728	33070	
4488	0	32744	33028	
4489	0	32682	32915	
4490	0	32754	32894	
4491	0	32684	32770	
4492	0	32670	32576	
4493	0	32668	32684	
4494	0	32816	32716	
4495	0	32920	32548	
4496	0	32884	32746	
4497	0	32846	32700	
4498	0	32704	32740	
4499	0	32624	32763	
4500	0	32808	32458	
4501	0	32914	32390	
4502	0	32868	32184	
4503	0	32812	32462	
4504	0	32596	32700	
4505	0	32865	32920	
4506	0	33108	32960	
4507	0	32996	32908	
4508	0	32852	33006	
4509	0	32998	32926	
4510	0	32928	32674	
4511	0	32788	32770	
4512	0	32704	32702	
4513	0	32668	32712	
4514	0	32722	32858	
4515	0	32750	32676	
4516	0	32850	32334	
4517	0	32880	32508	
4518	0	32820	32574	
4519	0	32696	32792	
4520	0	32796	32984	
4521	0	32740	32968	
4522	0	32836	33156	
4523	0	32804	33012	
4524	0	32782	32840	
4525	0	32776	32846	
4526	0	32764	32788	
4527	0	32596	32626	
4528	0	32862	32582	
4529	0	32888	32610	
4530	0	32888	32566	
4531	0	33152	32804	
4532	0	33132	32536	
4533	0	32724	32494	
4534	0	32620	32612	
4535	0	32640	32690	
4536	0	32784	32982	
4537	0	33008	32898	
4538	0	32816	32672	
4539	0	32748	32870	
4540	0	32772	33352	
4541	0	32972	33464	
4542	0	32718	33084	
4543	0	32864	33062	
4544	0	32984	32838	
4545	0	32956	32660	
4546	0	32828	32584	
4547	0	32868	32494	
4548	0	32964	32548	
4549	0	33020	32368	
4550	0	32860	32294	
4551	0	32680	32550	
4552	0	32512	32679	
4553	0	32536	32876	
4554	0	32740	32976	
4555	0	32816	33060	
4556	0	32698	33074	
4557	0	32728	32999	
4558	0	32616	32922	
4559	0	32716	32650	
4560	0	32844	32686	
4561	0	32824	32744	
4562	0	32884	32744	
4563	0	32897	32750	
4564	0	32572	32628	
4565	0	32916	32728	
4566	0	33184	32818	
4567	0	33208	32586	
4568	0	32912	32768	
4569	0	32818	32852	
4570	0	32784	32808	
4571	0	32768	32958	
4572	0	32664	33010	
4573	0	32656	33004	
4574	0	32788	32914	
4575	0	32640	32768	
4576	0	32794	32458	
4577	0	32936	32628	
4578	0	32920	32632	
4579	0	32896	32754	
4580	0	32824	32692	
4581	0	32744	32788	
4582	0	32368	32896	
4583	0	32484	32676	
4584	0	32820	32940	
4585	0	32948	32896	
4586	0	32498	32916	
4587	0	32728	32916	
4588	0	32974	32512	
4589	0	32904	32614	
4590	0	32856	32704	
4591	0	33172	32614	
4592	0	32920	32704	
4593	0	32932	32604	
4594	0	33072	32772	
4595	0	33044	32885	
4596	0	32748	32898	
4597	0	32724	32884	
4598	0	32864	32848	
4599	0	32808	32841	
4600	0	32716	32774	
4601	0	32690	32766	
4602	0	32740	32558	
4603	0	32752	32592	
4604	0	32736	32826	
4605	0	32716	32836	
4606	0	32704	33008	
4607	0	32836	32920	
4608	0	32816	32846	
4609	0	32800	32852	
4610	0	32740	32730	
4611	0	32848	32688	
4612	0	32786	32712	
4613	0	32788	32712	
4614	0	32740	32560	
4615	0	32672	32570	
4616	0	32760	32486	
4617	0	32954	32692	
4618	0	32912	32736	
4619	0	32948	32618	
4620	0	33108	32736	
4621	0	33052	32638	
4622	0	32716	32668	
4623	0	32600	32592	
4624	0	32634	32246	
4625	0	32656	32508	
4626	0	33048	32676	
4627	0	33138	32940	
4628	0	32808	32928	
4629	0	32744	33092	
4630	0	32788	33142	
4631	0	32724	33096	
4632	0	32854	33214	
4633	0	33016	33070	
4634	0	32772	33026	
4635	0	32620	32832	
4636	0	32906	32708	
4637	0	32914	32647	
4638	0	32780	32500	
4639	0	32730	32672	
4640	0	32904	32482	
4641	0	32736	32518	
4642	0	32754	32598	
4643	0	32892	32666	
4644	0	32874	32704	
4645	0	32708	32888	
4646	0	32824	32864	
4647	0	32828	32888	
4648	0	32790	32900	
4649	0	32748	32858	
4650	0	32798	32926	
4651	0	32736	32738	
4652	0	32752	32800	
4653	0	32692	32818	
4654	0	32746	32858	
4655	0	32868	32724	
4656	0	32790	32844	
4657	0	32744	32806	
4658	0	32808	32668	
4659	0	33032	32622	
4660	0	33020	32656	
4661	0	32852	32513	
4662	0	32780	32624	
4663	0	32600	32790	
4664	0	32788	32946	
4665	0	32896	32968	
4666	0	32734	32848	
4667	0	32740	32906	
4668	0	32888	32847	
4669	0	32816	32934	
4670	0	32740	32710	
4671	0	32838	32725	
4672	0	32929	32774	
4673	0	32786	32846	
4674	0	32660	32768	
4675	0	32820	32662	
4676	0	33100	32582	
4677	0	33200	32616	
4678	0	32860	32754	
4679	0	32634	32836	
4680	0	32654	32872	
4681	0	32634	32842	
4682	0	32792	32980	
4683	0	32776	32894	
4684	0	32960	32788	
4685	0	32906	32730	
4686	0	32912	32798	
4687	0	32800	32964	
4688	0	32714	32868	
4689	0	32724	32774	
4690	0	32936	32702	
4691	0	32744	32716	
4692	0	32716	32770	
4693	0	32788	32774	
4694	0	32788	32644	
4695	0	32904	32876	
4696	0	32904	32807	
4697	0	32864	32678	
4698	0	32738	32660	
4699	0	32796	32660	
4700	0	32869	32466	
4701	0	32712	32628	
4702	0	32780	32628	
4703	0	32724	32618	
4704	0	32804	32796	
4705	0	32644	32928	
4706	0	32776	33020	
4707	0	32892	32936	
4708	0	32864	33036	
4709	0	32708	32984	
4710	0	33032	32738	
4711	0	33044	32640	
4712	0	32916	32622	
4713	0	32762	32681	
4714	0	32628	32798	
4715	0	32676	32576	
4716	0	32648	32588	
4717	0	32832	32800	
4718	0	32720	32914	
4719	0	32650	32716	
4720	0	32668	32728	
4721	0	32768	32662	
4722	0	32816	32676	
4723	0	32904	32712	
4724	0	32936	32766	
4725	0	32988	32508	
4726	0	33120	32668	
4727	0	32956	32866	
4728	0	32788	32752	
4729	0	32744	32890	
4730	0	32848	32870	
4731	0	32708	32811	
4732	0	32664	32804	
4733	0	32684	32770	
4734	0	32712	32760	
4735	0	32690	32900	
4736	0	32712	32888	
4737	0	32884	32736	
4738	0	32847	32796	
4739	0	32820	32792	
4740	0	32856	32836	
4741	0	32856	32774	
4742	0	32696	32662	
4743	0	32730	32828	
4744	0	32826	32656	
4745	0	32816	32768	
4746	0	32922	32878	
4747	0	32820	32796	
4748	0	32904	32838	
4749	0	32810	32934	
4750	0	32816	32756	
4751	0	32660	32808	
4752	0	32840	32696	
4753	0	32900	32766	
4754	0	32848	32750	
4755	0	32624	32634	
4756	0	32552	32692	
4757	0	32402	32730	
4758	0	32700	32728	
4759	0	32960	32768	
4760	0	33004	32588	
4761	0	33044	32428	
4762	0	33180	32424	
4763	0	32980	32596	
4764	0	32760	32660	
4765	0	32844	32816	
4766	0	32976	32800	
4767	0	32892	32612	
4768	0	32684	32772	
4769	0	32820	32960	
4770	0	32784	32868	
4771	0	32668	32892	
4772	0	32776	33004	
4773	0	32800	32940	
4774	0	32808	32906	
4775	0	32948	32924	
4776	0	32840	32796	
4777	0	32734	32804	
4778	0	32780	32782	
4779	0	32802	32656	
4780	0	32828	32874	
4781	0	32770	32696	
4782	0	32652	32840	
4783	0	32804	32768	
4784	0	32778	32721	
4785	0	32964	32802	
4786	0	32820	32716	
4787	0	32740	32712	
4788	0	32772	32902	
4789	0	32720	32909	
4790	0	32596	32844	
4791	0	32784	32836	
4792	0	32916	32868	
4793	0	32804	32878	
4794	0	32836	32670	
4795	0	32724	32746	
4796	0	32744	32814	
4797	0	32688	32823	
4798	0	32860	32916	
4799	0	32740	32874	
4800	0	32960	32882	
4801	0	33056	32600	
4802	0	32964	32156	
4803	0	32680	32550	
4804	0	32842	32654	
4805	0	32924	32872	
4806	0	33036	32926	
4807	0	32782	32834	
4808	0	32642	32948	
4809	0	32840	32912	
4810	0	32836	32934	
4811	0	32810	32752	
4812	0	32848	32668	
4813	0	32924	32728	
4814	0	32948	32758	
4815	0	32916	32754	
4816	0	32736	32840	
4817	0	32832	32775	
4818	0	32726	32740	
4819	0	32640	32676	
4820	0	32704	32742	
4821	0	32824	32764	
4822	0	32744	32738	
4823	0	32688	32764	
4824	0	32746	32840	
4825	0	32708	32762	
4826	0	32828	32716	
4827	0	33044	32804	
4828	0	32948	32804	
4829	0	32784	32736	
4830	0	32780	32726	
4831	0	32612	32648	
4832	0	32620	32768	
4833	0	32878	32759	
4834	0	32744	32710	
4835	0	32816	32743	
4836	0	32692	32596	
4837	0	32712	32616	
4838	0	32864	32554	
4839	0	32657	32698	
4840	0	32974	32752	
4841	0	33016	32682	
4842	0	32912	32820	
4843	0	32744	32824	
4844	0	32676	32828	
4845	0	32856	32866	
4846	0	32790	32722	
4847	0	32852	32796	
4848	0	33056	32678	
4849	0	32836	32632	
4850	0	32792	32824	
4851	0	32852	32862	
4852	0	32800	32904	
4853	0	32744	32808	
4854	0	32820	32744	
4855	0	32848	32748	
4856	0	32720	32702	
4857	0	32704	32644	
4858	0	32776	32714	
4859	0	32738	32864	
4860	0	32740	32740	
4861	0	32804	32769	
4862	0	32800	32892	
4863	0	32758	32854	
4864	0	32828	32828	
4865	0	32784	32884	
4866	0	32818	32742	
4867	0	32824	32804	
4868	0	32908	32856	
4869	0	32732	32794	
4870	0	32628	32804	
4871	0	32678	32884	
4872	0	32864	32748	
4873	0	33056	32903	
4874	0	32872	32830	
4875	0	32788	32768	
4876	0	32908	32756	
4877	0	32796	32728	
4878	0	32860	32804	
4879	0	32764	32760	
4880	0	32706	32696	
4881	0	32816	32744	
4882	0	32832	32768	
4883	0	32824	32644	
4884	0	32816	32752	
4885	0	32712	32864	
4886	0	33028	32718	
4887	0	32914	32776	
4888	0	32960	32742	
4889	0	32930	32844	
4890	0	32820	32814	
4891	0	32942	32732	
4892	0	32892	32696	
4893	0	32852	32646	
4894	0	32800	32612	
4895	0	32668	32760	
4896	0	32528	32764	
4897	0	32628	32648	
4898	0	32876	32775	
4899	0	32980	32644	
4900	0	32960	32708	
4901	0	32888	32836	
4902	0	32752	32742	
4903	0	32644	32752	
4904	0	32714	32654	
4905	0	32832	32908	
4906	0	32946	32724	
4907	0	32904	32836	
4908	0	32924	32754	
4909	0	32848	32840	
4910	0	32764	32798	
4911	0	32792	32820	
4912	0	32800	32832	
4913	0	32754	32692	
4914	0	32772	32775	
4915	0	32828	32780	
4916	0	32832	32724	
4917	0	32744	32706	
4918	0	32700	32734	
4919	0	32736	32772	
4920	0	32714	32750	
4921	0	32876	32712	
4922	0	32884	32796	
4923	0	32828	32832	
4924	0	32802	32808	
4925	0	32718	32775	
4926	0	33126	32684	
4927	0	32864	32752	
4928	0	32824	32682	
4929	0	32788	32698	
4930	0	32728	32710	
4931	0	32700	32696	
4932	0	32684	32775	
4933	0	32824	32692	
4934	0	33018	32784	
4935	0	33026	32784	
4936	0	32852	32628	
4937	0	32768	32775	
4938	0	32700	32646	
4939	0	32768	32748	
4940	0	32736	32800	
4941	0	32884	32652	
4942	0	32940	32740	
4943	0	32832	32716	
4944	0	32716	32844	
4945	0	32820	32760	
4946	0	32756	32716	
4947	0	32748	32796	
4948	0	32816	32796	
4949	0	32816	32868	
4950	0	32824	32762	
4951	0	32844	32732	
4952	0	32748	32804	
4953	0	32806	32794	
4954	0	32796	32718	
4955	0	32770	32704	
4956	0	32756	32808	
4957	0	32820	32930	
4958	0	32856	32660	
4959	0	32778	32752	
4960	0	32750	32708	
4961	0	32712	32874	
4962	0	32826	32886	
4963	0	32820	32734	
4964	0	32768	32752	
4965	0	32714	32568	
4966	0	32892	32738	
4967	0	32848	32908	
4968	0	32856	33022	
4969	0	32800	32882	
4970	0	32688	32808	
4971	0	32794	32882	
4972	0	32842	32824	
4973	0	33026	32802	
4974	0	32996	32868	
4975	0	32870	32716	
4976	0	32748	32726	
4977	0	32746	32770	
4978	0	32808	32706	
4979	0	32860	32640	
4980	0	32871	32760	
4981	0	32852	32752	
4982	0	32670	32712	
4983	0	32760	32864	
4984	0	32932	32807	
4985	0	32826	32846	
4986	0	32588	32832	
4987	0	32696	32714	
4988	0	32852	32718	
4989	0	32932	32788	
4990	0	32960	32736	
4991	0	32916	32816	
4992	0	32670	32688	
4993	0	32660	32788	
4994	0	32812	32862	
4995	0	32756	32756	
4996	0	32744	32754	
4997	0	32802	32770	
4998	0	32868	32644	
4999	0	32984	32744	
5000	0	32780	32658	
5001	0	32804	32752	
5002	0	32808	32846	
5003	0	32728	32750	
5004	0	32808	32844	
5005	0	32836	32886	
5006	0	32762	32794	
5007	0	32796	32876	
5008	0	32688	32804	
5009	0	32758	32917	
5010	0	32848	32868	
5011	0	32896	32766	
5012	0	32888	32688	
5013	0	32868	32618	
5014	0	32842	32576	
5015	0	33096	32568	
5016	0	32800	32700	
5017	0	32922	32760	
5018	0	32684	32696	
5019	0	32532	32800	
5020	0	32468	32820	
5021	0	32634	32688	
5022	0	32842	32718	
5023	0	33204	32684	
5024	0	33032	32804	
5025	0	32876	32836	
5026	0	32816	32790	
5027	0	32800	32960	
5028	0	32772	32968	
5029	0	32821	32804	
5030	0	32884	32764	
5031	0	32809	32606	
5032	0	32788	32752	
5033	0	32792	32754	
5034	0	32736	32654	
5035	0	32750	32734	
5036	0	32832	32716	
5037	0	32848	32930	
5038	0	32744	32844	
5039	0	32784	32686	
5040	0	32772	32756	
5041	0	32744	32686	
5042	0	32856	32734	
5043	0	32824	32839	
5044	0	32816	32672	
5045	0	32912	32820	
5046	0	32892	32740	
5047	0	32768	32704	
5048	0	32834	32858	
5049	0	32762	32688	
5050	0	32748	32768	
5051	0	32756	32648	
5052	0	32816	32764	
5053	0	32916	32712	
5054	0	32824	32696	
5055	0	32762	32590	
5056	0	32836	32798	
5057	0	32712	32808	
5058	0	32788	32714	
5059	0	32777	32672	
5060	0	32738	32700	
5061	0	32912	32750	
5062	0	32952	32743	
5063	0	32816	32832	
5064	0	32612	32882	
5065	0	32798	32726	
5066	0	32848	32760	
5067	0	32712	32696	
5068	0	32823	32864	
5069	0	32856	32800	
5070	0	32832	32692	
5071	0	32772	32906	
5072	0	32806	32770	
5073	0	32906	32762	
5074	0	32896	32838	
5075	0	32882	32806	
5076	0	32740	32716	
5077	0	32834	32708	
5078	0	32780	32848	
5079	0	32788	32924	
5080	0	32804	32775	
5081	0	32800	32954	
5082	0	32754	32836	
5083	0	32708	32724	
5084	0	32792	32769	
5085	0	32848	32824	
5086	0	32800	32844	
5087	0	32828	32752	
5088	0	32814	32778	
5089	0	32832	32760	
5090	0	32800	32812	
5091	0	32794	32884	
5092	0	32844	32848	
5093	0	32796	32800	
5094	0	32704	32766	
5095	0	32796	32670	
5096	0	32612	32796	
5097	0	32728	32680	
5098	0	32788	32730	
5099	0	32806	32698	
5100	0	33008	32586	
5101	0	32912	32647	
5102	0	32808	32692	
5103	0	32756	32728	
5104	0	32840	32794	
5105	0	32788	32952	
5106	0	32912	32780	
5107	0	32852	32798	
5108	0	32778	32888	
5109	0	32776	32738	
5110	0	32796	32836	
5111	0	32664	32743	
5112	0	32800	32800	
5113	0	32816	32774	
5114	0	32872	32848	
5115	0	32818	32678	
5116	0	32794	32784	
5117	0	33028	32775	
5118	0	32904	32740	
5119	0	32904	32744	
5120	0	32886	32784	
5121	0	32730	32736	
5122	0	32756	32720	
5123	0	32744	32844	
5124	0	32780	32710	
5125	0	32786	32852	
5126	0	32842	32724	
5127	0	32804	32802	
5128	0	32804	32772	
5129	0	32728	32804	
5130	0	32818	32713	
5131	0	32776	32844	
5132	0	32732	32736	
5133	0	32660	32818	
5134	0	32900	32728	
5135	0	32872	32618	
5136	0	32922	32806	
5137	0	32940	32734	
5138	0	32916	32794	
5139	0	32864	32714	
5140	0	32708	32760	
5141	0	32864	32716	
5142	0	32728	32822	
5143	0	32598	32816	
5144	0	32618	32726	
5145	0	32808	32812	
5146	0	32932	32662	
5147	0	32820	32724	
5148	0	32812	32760	
5149	0	32844	32865	
5150	0	32888	32816	
5151	0	32780	32836	
5152	0	32784	32724	
5153	0	32812	32860	
5154	0	32816	32770	
5155	0	32844	32666	
5156	0	32832	32686	
5157	0	32696	32646	
5158	0	32790	32716	
5159	0	32740	32720	
5160	0	32750	32736	
5161	0	32828	32704	
5162	0	32766	32672	
5163	0	32760	32822	
5164	0	32846	32772	
5165	0	32948	32750	
5166	0	32952	32818	
5167	0	32684	32772	
5168	0	32704	32792	
5169	0	32832	32878	
5170	0	32954	32762	
5171	0	32752	32744	
5172	0	32864	32732	
5173	0	32844	32844	
5174	0	32856	32804	
5175	0	32664	32752	
5176	0	32726	32744	
5177	0	32728	32788	
5178	0	32688	32698	
5179	0	32834	32748	
5180	0	32962	32652	
5181	0	32956	32771	
5182	0	32938	32818	
5183	0	32756	32740	
5184	0	32704	32910	
5185	0	32696	32890	
5186	0	32780	32700	
5187	0	32896	32788	
5188	0	32860	32742	
5189	0	32896	32782	
5190	0	32864	32774	
5191	0	32870	32738	
5192	0	32772	32796	
5193	0	32848	32828	
5194	0	32832	32774	
5195	0	32704	32908	
5196	0	32821	32670	
5197	0	32732	32670	
5198	0	32800	32664	
5199	0	32866	32774	
5200	0	32814	32740	
5201	0	32770	32784	
5202	0	32804	32768	
5203	0	32876	32752	
5204	0	32856	32788	
5205	0	32862	32860	
5206	0	32848	32828	
5207	0	32758	32804	
5208	0	32776	32820	
5209	0	32772	32892	
5210	0	32912	32864	
5211	0	32932	32752	
5212	0	32698	32688	
5213	0	32688	32588	
5214	0	32728	32682	
5215	0	32656	32774	
5216	0	32680	32756	
5217	0	32712	32800	
5218	0	32772	32728	
5219	0	32816	32828	
5220	0	32794	32704	
5221	0	32956	32798	
5222	0	32970	32730	
5223	0	32832	32742	
5224	0	32808	32820	
5225	0	32848	32806	
5226	0	32820	32796	
5227	0	32842	32755	
5228	0	32852	32736	
5229	0	32864	32696	
5230	0	32852	32752	
5231	0	32900	32730	
5232	0	32840	32744	
5233	0	32734	32830	
5234	0	32864	32725	
5235	0	32664	32798	
5236	0	32738	32704	
5237	0	32864	32868	
5238	0	32936	32804	
5239	0	32932	32830	
5240	0	32932	32936	
5241	0	32770	32720	
5242	0	32708	32788	
5243	0	32728	32836	
5244	0	32684	32744	
5245	0	32664	32784	
5246	0	32772	32660	
5247	0	32796	32726	
5248	0	32804	32768	
5249	0	32700	32828	
5250	0	32744	32792	
5251	0	32792	32806	
5252	0	32792	32764	
5253	0	32916	32666	
5254	0	32956	32804	
5255	0	32868	32788	
5256	0	32776	32708	
5257	0	32838	32734	
5258	0	32836	32716	
5259	0	32770	32704	
5260	0	32836	32772	
5261	0	32812	32668	
5262	0	32818	32756	
5263	0	32804	32775	
5264	0	32828	32722	
5265	0	32740	32740	
5266	0	32726	32720	
5267	0	32802	32786	
5268	0	32912	32802	
5269	0	32736	32686	
5270	0	32748	32740	
5271	0	32696	32746	
5272	0	32601	32756	
5273	0	32626	32558	
5274	0	32738	32676	
5275	0	32800	32692	
5276	0	32692	32568	
5277	0	32632	32720	
5278	0	32588	32692	
5279	0	32692	32760	
5280	0	32660	32670	
5281	0	32788	32608	
5282	0	32712	32804	
5283	0	32906	32802	
5284	0	32856	32752	
5285	0	32824	32942	
5286	0	32836	32840	
5287	0	32876	32750	
5288	0	32938	32808	
5289	0	32948	32832	
5290	0	32868	32804	
5291	0	32920	32856	
5292	0	32996	32852	
5293	0	32968	32948	
5294	0	33118	32822	
5295	0	33052	33020	
5296	0	33066	32999	
5297	0	33012	32876	
5298	0	33006	32958	
5299	0	32928	32960	
5300	0	32968	32912	
5301	0	33036	32892	
5302	0	32992	32852	
5303	0	32904	32976	
5304	0	32894	32816	
5305	0	32968	32972	
5306	0	32932	32898	
5307	0	32864	32740	
5308	0	32816	32840	
5309	0	32744	32668	
5310	0	32624	32616	
5311	0	32612	32698	
5312	0	32656	32698	
5313	0	32738	32640	
5314	0	32666	32756	
5315	0	32624	32772	
5316	0	32708	32662	
5317	0	32778	32676	
5318	0	32644	32654	
5319	0	32682	32718	
5320	0	32896	32680	
5321	0	32784	32648	
5322	0	32824	32792	
5323	0	32858	32802	
5324	0	32792	32700	
5325	0	32832	32754	
5326	0	32820	32816	
5327	0	32812	32804	
5328	0	32812	32870	
5329	0	32800	32768	
5330	0	32826	32816	
5331	0	32812	32812	
5332	0	32824	32740	
5333	0	32828	32774	
5334	0	32752	32740	
5335	0	32834	32838	
5336	0	32782	32728	
5337	0	32836	32580	
5338	0	32856	32775	
5339	0	32720	32760	
5340	0	32812	32764	
5341	0	32828	32682	
5342	0	32880	32702	
5343	0	32880	32764	
5344	0	32860	32775	
5345	0	32860	32830	
5346	0	32772	32798	
5347	0	32724	32631	
5348	0	32756	32744	
5349	0	32884	32647	
5350	0	32772	32780	
5351	0	32820	32740	
5352	0	32864	32678	
5353	0	32820	32770	
5354	0	32832	32784	
5355	0	32760	32676	
5356	0	32768	32796	
5357	0	32740	32810	
5358	0	32780	32684	
5359	0	32762	32780	
5360	0	32822	32744	
5361	0	32820	32708	
5362	0	32864	32772	
5363	0	32860	32704	
5364	0	32894	32768	
5365	0	32888	32792	
5366	0	32856	32688	
5367	0	32786	32804	
5368	0	32760	32844	
5369	0	32766	32684	
5370	0	32774	32775	
5371	0	32782	32734	
5372	0	32742	32692	
5373	0	32826	32811	
5374	0	32704	32740	
5375	0	32760	32775	
5376	0	32828	32836	
5377	0	32852	32678	
5378	0	32826	32812	
5379	0	32886	32856	
5380	0	32814	32740	
5381	0	32752	32724	
5382	0	32676	32756	
5383	0	32796	32802	
5384	0	32664	32782	
5385	0	32804	32700	
5386	0	33032	32770	
5387	0	32794	32660	
5388	0	32768	32897	
5389	0	32746	32836	
5390	0	32860	32708	
5391	0	32886	32902	
5392	0	32834	32788	
5393	0	32792	32692	
5394	0	32780	32798	
5395	0	32920	32742	
5396	0	32804	32748	
5397	0	32858	32728	
5398	0	32820	32688	
5399	0	32772	32764	
5400	0	32830	32770	
5401	0	32864	32692	
5402	0	32820	32794	
5403	0	32818	32800	
5404	0	32816	32752	
5405	0	32880	32856	
5406	0	32888	32820	
5407	0	32828	32706	
5408	0	32824	32820	
5409	0	32876	32817	
5410	0	32792	32828	
5411	0	32768	32814	
5412	0	32772	32752	
5413	0	32812	32734	
5414	0	32748	32718	
5415	0	32784	32750	
5416	0	32816	32780	
5417	0	32828	32782	
5418	0	32800	32710	
5419	0	32788	32774	
5420	0	32872	32766	
5421	0	32752	32664	
5422	0	32822	32822	
5423	0	32834	32702	
5424	0	32792	32810	
5425	0	32756	32796	
5426	0	32796	32727	
5427	0	32752	32750	
5428	0	32816	32736	
5429	0	32848	32808	
5430	0	32812	32806	
5431	0	32888	32713	
5432	0	32818	32775	
5433	0	32814	32896	
5434	0	32878	32712	
5435	0	32866	32714	
5436	0	32812	32778	
5437	0	32836	32856	
5438	0	32752	32792	
5439	0	32776	32696	
5440	0	32826	32838	
5441	0	32948	32798	
5442	0	32982	32708	
5443	0	33058	32760	
5444	0	32916	32768	
5445	0	32780	32634	
5446	0	32732	32786	
5447	0	32672	32758	
5448	0	32658	32772	
5449	0	32650	32672	
5450	0	32626	32796	
5451	0	32712	32678	
5452	0	32732	32748	
5453	0	32816	32814	
5454	0	32752	32686	
5455	0	32776	32696	
5456	0	32772	32806	
5457	0	32792	32775	
5458	0	32888	32696	
5459	0	32748	32724	
5460	0	32746	32772	
5461	0	32676	32696	
5462	0	32801	32774	
5463	0	32868	32832	
5464	0	32852	32674	
5465	0	32860	32828	
5466	0	32864	32708	
5467	0	32882	32774	
5468	0	32860	32849	
5469	0	32864	32742	
5470	0	32840	32854	
5471	0	32816	32808	
5472	0	32812	32734	
5473	0	32844	32760	
5474	0	32812	32672	
5475	0	32844	32836	
5476	0	32738	32696	
5477	0	32842	32886	
5478	0	32860	32822	
5479	0	32746	32844	
5480	0	32836	32774	
5481	0	32792	32690	
5482	0	32824	32752	
5483	0	32750	32786	
5484	0	32780	32672	
5485	0	32816	32742	
5486	0	32746	32700	
5487	0	32784	32798	
5488	0	32816	32724	
5489	0	32752	32842	
5490	0	32828	32760	
5491	0	32828	32800	
5492	0	32820	32704	
5493	0	32748	32775	
5494	0	32754	32684	
5495	0	32870	32680	
5496	0	32780	32756	
5497	0	32808	32814	
5498	0	32764	32616	
5499	0	32778	32746	
5500	0	32820	32720	
5501	0	32820	32672	
5502	0	32856	32876	
5503	0	32844	32754	
5504	0	32840	32644	
5505	0	32784	32832	
5506	0	32756	32870	
5507	0	32836	32756	
5508	0	32798	32792	
5509	0	32740	32724	
5510	0	32684	32808	
5511	0	32788	32840	
5512	0	32794	32762	
5513	0	32844	32836	
5514	0	32748	32796	
5515	0	32758	32682	
5516	0	32744	32724	
5517	0	32800	32764	
5518	0	32844	32748	
5519	0	32896	32694	
5520	0	32882	32742	
5521	0	32748	32712	
5522	0	32788	32688	
5523	0	32802	32764	
5524	0	32848	32688	
5525	0	32764	32870	
5526	0	32824	32868	
5527	0	32816	32692	
5528	0	32810	32878	
5529	0	32892	32812	
5530	0	32848	32736	
5531	0	32848	32840	
5532	0	32796	32768	
5533	0	32884	32820	
5534	0	32816	32718	
5535	0	32796	32764	
5536	0	32860	32772	
5537	0	32894	32756	
5538	0	32836	32702	
5539	0	32812	32770	
5540	0	32914	32748	
5541	0	32808	32660	
5542	0	32842	32814	
5543	0	32764	32820	
5544	0	32802	32806	
5545	0	32748	32732	
5546	0	32856	32776	
5547	0	32844	32764	
5548	0	32776	32848	
5549	0	32822	32860	
5550	0	32778	32698	
5551	0	32688	32828	
5552	0	32806	32820	
5553	0	32826	32742	
5554	0	32846	32732	
5555	0	32930	32694	
5556	0	32880	32748	
5557	0	32826	32800	
5558	0	32824	32726	
5559	0	32798	32640	
5560	0	32734	32854	
5561	0	32742	32774	
5562	0	32698	32652	
5563	0	32764	32844	
5564	0	32886	32804	
5565	0	32872	32708	
5566	0	32880	32818	
5567	0	32908	32708	
5568	0	32882	32836	
5569	0	32854	32790	
5570	0	32820	32766	
5571	0	32816	32728	
5572	0	32748	32748	
5573	0	32800	32860	
5574	0	32760	32686	
5575	0	32736	32758	
5576	0	32768	32660	
5577	0	32792	32724	
5578	0	32804	32784	
5579	0	32856	32744	
5580	0	32808	32764	
5581	0	32784	32704	
5582	0	32820	32804	
5583	0	32772	32808	
5584	0	32812	32740	
5585	0	32740	32742	
5586	0	32848	32736	
5587	0	32832	32724	
5588	0	32852	32775	
5589	0	32868	32686	
5590	0	32856	32838	
5591	0	32838	32782	
5592	0	32862	32706	
5593	0	32812	32712	
5594	0	32876	32724	
5595	0	32760	32775	
5596	0	32828	32704	
5597	0	32752	32664	
5598	0	32720	32775	
5599	0	32864	32688	
5600	0	32848	32678	
5601	0	32760	32820	
5602	0	32846	32672	
5603	0	32832	32734	
5604	0	32740	32824	
5605	0	32792	32806	
5606	0	32844	32860	
5607	0	32842	32702	
5608	0	32852	32774	
5609	0	32844	32846	
5610	0	32852	32660	
5611	0	32786	32784	
5612	0	32816	32676	
5613	0	32820	32764	
5614	0	32740	32816	
5615	0	32798	32668	
5616	0	32788	32702	
5617	0	32780	32684	
5618	0	32754	32756	
5619	0	32792	32770	
5620	0	32776	32686	
5621	0	32808	32714	
5622	0	32852	32800	
5623	0	32844	32676	
5624	0	32820	32792	
5625	0	32760	32716	
5626	0	32786	32884	
5627	0	32788	32852	
5628	0	32744	32752	
5629	0	32764	32766	
5630	0	32766	32724	
5631	0	32900	32775	
5632	0	32832	32674	
5633	0	32708	32730	
5634	0	32792	32758	
5635	0	32744	32736	
5636	0	32714	32714	
5637	0	32848	32764	
5638	0	32920	32800	
5639	0	32804	32729	
5640	0	32840	32775	
5641	0	32850	32712	
5642	0	32836	32736	
5643	0	32788	32767	
5644	0	32860	32754	
5645	0	32738	32729	
5646	0	32736	32758	
5647	0	32776	32775	
5648	0	32832	32768	
5649	0	32830	32748	
5650	0	32776	32710	
5651	0	32812	32744	
5652	0	32848	32736	
5653	0	32740	32820	
5654	0	32816	32743	
5655	0	32800	32738	
5656	0	32892	32788	
5657	0	32816	32832	
5658	0	32780	32644	
5659	0	32828	32736	
5660	0	32828	32700	
5661	0	32892	32900	
5662	0	32866	32820	
5663	0	32792	32792	
5664	0	32906	32748	
5665	0	32800	32738	
5666	0	32824	32818	
5667	0	32880	32748	
5668	0	32836	32802	
5669	0	32732	32886	
5670	0	32848	32726	
5671	0	32804	32736	
5672	0	32696	32732	
5673	0	32712	32840	
5674	0	32804	32782	
5675	0	32828	32674	
5676	0	32864	32692	
5677	0	32824	32630	
5678	0	32796	32775	
5679	0	32856	32768	
5680	0	32812	32736	
5681	0	32808	32824	
5682	0	32808	32716	
5683	0	32828	32808	
5684	0	32840	32844	
5685	0	32810	32720	
5686	0	32776	32824	
5687	0	32860	32852	
5688	0	32826	32778	
5689	0	32856	32788	
5690	0	32834	32742	
5691	0	32878	32758	
5692	0	32692	32870	
5693	0	32810	32772	
5694	0	32884	32868	
5695	0	32900	32790	
5696	0	32880	32682	
5697	0	32792	32796	
5698	0	32864	32714	
5699	0	32764	32798	
5700	0	32776	32806	
5701	0	32760	32618	
5702	0	32692	32820	
5703	0	32880	32782	
5704	0	32880	32672	
5705	0	32984	32806	
5706	0	32800	32804	
5707	0	32758	32772	
5708	0	32820	32800	
5709	0	32922	32764	
5710	0	32928	32764	
5711	0	32904	32836	
5712	0	32892	32744	
5713	0	32900	32762	
5714	0	32792	32718	
5715	0	32792	32670	
5716	0	32808	32768	
5717	0	32828	32740	
5718	0	32778	32780	
5719	0	32740	32808	
5720	0	32776	32760	
5721	0	32804	32814	
5722	0	32756	32748	
5723	0	32820	32824	
5724	0	32838	32734	
5725	0	32824	32800	
5726	0	32784	32902	
5727	0	32842	32782	
5728	0	32804	32770	
5729	0	32836	32736	
5730	0	32812	32774	
5731	0	32840	32814	
5732	0	32780	32802	
5733	0	32790	32804	
5734	0	32788	32710	
5735	0	32828	32760	
5736	0	32794	32642	
5737	0	32836	32740	
5738	0	32772	32664	
5739	0	32816	32752	
5740	0	32740	32748	
5741	0	32760	32796	
5742	0	32760	32804	
5743	0	33004	32726	
5744	0	32780	32856	
5745	0	32804	32830	
5746	0	32860	32700	
5747	0	32788	32760	
5748	0	32816	32688	
5749	0	32814	32810	
5750	0	32852	32750	
5751	0	32852	32804	
5752	0	32848	32826	
5753	0	32856	32764	
5754	0	32900	32824	
5755	0	32820	32732	
5756	0	32780	32725	
5757	0	32832	32838	
5758	0	32872	32740	
5759	0	32860	32673	
5760	0	32836	32790	
5761	0	32812	32746	
5762	0	32822	32810	
5763	0	32820	32842	
5764	0	32828	32712	
5765	0	32832	32752	
5766	0	32716	32752	
5767	0	32736	32808	
5768	0	32764	32876	
5769	0	32862	32742	
5770	0	32856	32853	
5771	0	32804	32626	
5772	0	32746	32818	
5773	0	32812	32854	
5774	0	32880	32678	
5775	0	32718	32758	
5776	0	32708	32666	
5777	0	33042	32824	
5778	0	32770	32756	
5779	0	32736	32840	
5780	0	32742	32734	
5781	0	32734	32744	
5782	0	32600	32764	
5783	0	32672	32716	
5784	0	32764	32810	
5785	0	32796	32852	
5786	0	32972	32730	
5787	0	32968	32772	
5788	0	33040	32736	
5789	0	32960	32914	
5790	0	32944	32836	
5791	0	32784	32684	
5792	0	32808	32844	
5793	0	32828	32792	
5794	0	32856	32732	
5795	0	32780	32812	
5796	0	32728	32732	
5797	0	32756	32692	
5798	0	32760	32846	
5799	0	32718	32842	
5800	0	32700	32670	
5801	0	32790	32904	
5802	0	32748	32782	
5803	0	32752	32704	
5804	0	32796	32762	
5805	0	32748	32700	
5806	0	32824	32871	
5807	0	32820	32812	
5808	0	32816	32720	
5809	0	32868	32808	
5810	0	32870	32674	
5811	0	32776	32788	
5812	0	32840	32772	
5813	0	32870	32716	
5814	0	33012	32852	
5815	0	32860	32872	
5816	0	32748	32756	
5817	0	32756	32710	
5818	0	32596	32702	
5819	0	32676	32636	
5820	0	32768	32774	
5821	0	32896	32800	
5822	0	32848	32722	
5823	0	32886	32798	
5824	0	32748	32814	
5825	0	32736	32712	
5826	0	32808	32856	
5827	0	32796	32794	
5828	0	32832	32647	
5829	0	32844	32800	
5830	0	32800	32890	
5831	0	32772	32674	
5832	0	32792	32792	
5833	0	32854	32736	
5834	0	32760	32772	
5835	0	32804	32785	
5836	0	32748	32748	
5837	0	32798	32820	
5838	0	32768	32892	
5839	0	32780	32752	
5840	0	32834	32820	
5841	0	32836	32700	
5842	0	32772	32820	
5843	0	32820	32775	
5844	0	32752	32856	
5845	0	32734	32854	
5846	0	32772	32810	
5847	0	32776	32708	
5848	0	32780	32596	
5849	0	32760	32769	
5850	0	32772	32814	
5851	0	32892	32652	
5852	0	32778	32766	
5853	0	32824	32828	
5854	0	32752	32704	
5855	0	32760	32792	
5856	0	32836	32750	
5857	0	32830	32784	
5858	0	32864	32796	
5859	0	32768	32754	
5860	0	32616	32758	
5861	0	32664	32904	
5862	0	32778	32762	
5863	0	32872	32740	
5864	0	32804	32754	
5865	0	32810	32804	
5866	0	32832	32788	
5867	0	32800	32792	
5868	0	32754	32814	
5869	0	32824	32746	
5870	0	32856	32774	
5871	0	32806	32660	
5872	0	32806	32792	
5873	0	32840	32752	
5874	0	32944	32798	
5875	0	32852	32858	
5876	0	32856	32790	
5877	0	32826	32876	
5878	0	32856	32764	
5879	0	32912	32720	
5880	0	32860	32846	
5881	0	32802	32838	
5882	0	32844	32682	
5883	0	32776	32742	
5884	0	32834	32820	
5885	0	32792	32724	
5886	0	32820	32772	
5887	0	32860	32715	
5888	0	32800	32784	
5889	0	32840	32816	
5890	0	32888	32678	
5891	0	32852	32790	
5892	0	32738	32775	
5893	0	32852	32738	
5894	0	32714	32772	
5895	0	32616	32792	
5896	0	32872	32734	
5897	0	32932	32796	
5898	0	32996	32826	
5899	0	32874	32738	
5900	0	32830	32780	
5901	0	32792	32764	
5902	0	32840	32768	
5903	0	32876	32798	
5904	0	32796	32708	
5905	0	32800	32846	
5906	0	32752	32718	
5907	0	32756	32828	
5908	0	32884	32762	
5909	0	32856	32794	
5910	0	32856	32678	
5911	0	32792	32752	
5912	0	32836	32814	
5913	0	32776	32716	
5914	0	32728	32778	
5915	0	32808	32783	
5916	0	32836	32644	
5917	0	32786	32836	
5918	0	32812	32852	
5919	0	32784	32746	
5920	0	32806	32800	
5921	0	32786	32792	
5922	0	32830	32708	
5923	0	32800	32824	
5924	0	32784	32852	
5925	0	32750	32704	
5926	0	32802	32760	
5927	0	32766	32870	
5928	0	32736	32798	
5929	0	32692	32734	
5930	0	32768	32850	
5931	0	32716	32775	
5932	0	32808	32794	
5933	0	32752	32672	
5934	0	32778	32836	
5935	0	32808	32836	
5936	0	32804	32752	
5937	0	32764	32742	
5938	0	32740	32710	
5939	0	32764	32600	
5940	0	32828	32848	
5941	0	32748	32772	
5942	0	32820	32674	
5943	0	32828	32804	
5944	0	32740	32740	
5945	0	32812	32668	
5946	0	32868	32782	
5947	0	32834	32824	
5948	0	32720	32680	
5949	0	32804	32834	
5950	0	32848	32748	
5951	0	32794	32700	
5952	0	32760	32766	
5953	0	32760	32664	
5954	0	32814	32828	
5955	0	32844	32802	
5956	0	32858	32680	
5957	0	32812	32752	
5958	0	32842	32694	
5959	0	32872	32833	
5960	0	32824	32742	
5961	0	32864	32710	
5962	0	32864	32750	
5963	0	32796	32763	
5964	0	32800	32856	
5965	0	32774	32860	
5966	0	32732	32712	
5967	0	32880	32828	
5968	0	32932	32768	
5969	0	32820	32644	
5970	0	32772	32775	
5971	0	32816	32792	
5972	0	32676	32692	
5973	0	32780	32842	
5974	0	32756	32832	
5975	0	32730	32676	
5976	0	32776	32728	
5977	0	32764	32792	
5978	0	32762	32696	
5979	0	32700	32746	
5980	0	32786	32748	
5981	0	32764	32738	
5982	0	32812	32752	
5983	0	32790	32744	
5984	0	32840	32786	
5985	0	32926	32860	
5986	0	32906	32802	
5987	0	32876	32784	
5988	0	32788	32784	
5989	0	32828	32768	
5990	0	32882	32726	
5991	0	32784	32809	
5992	0	32852	32756	
5993	0	32802	32792	
5994	0	32732	32778	
5995	0	32796	32647	
5996	0	32820	32732	
5997	0	32808	32820	
5998	0	32814	32793	
5999	0	32802	32764	
6000	0	32688	32734	
6001	0	32772	32736	
6002	0	32794	32872	
6003	0	32764	32760	
6004	0	32984	32762	
6005	0	32884	32712	
6006	0	32836	32818	
6007	0	32944	32812	
6008	0	32832	32668	
6009	0	32796	32862	
6010	0	32632	32836	
6011	0	32740	32774	
6012	0	32776	32832	
