# OpenSignals Text File Format. Version 1
# {"00:07:80:8C:0A:39": {"position": 0, "device": "biosignalsplux", "device name": "00:07:80:8C:0A:39", "device connection": "BTH00:07:80:8C:0A:39", "sampling rate": 1000, "resolution": [16, 16], "firmware version": 776, "comments": "", "keywords": "", "mode": 0, "sync interval": 2, "date": "2023-3-10", "time": "12:31:33.186", "channels": [1, 2], "sensor": ["EMG", "EMG"], "label": ["CH1", "CH2"], "column": ["nSeq", "DI", "CH1", "CH2"], "special": [{"SpO2": [80, 40, 5, 4, 3, 3]}, {"SpO2": [80, 40, 5, 4, 3, 3]}, {"SpO2": [80, 40, 5, 4, 3, 3]}, {"SpO2": [80, 40, 5, 4, 3, 3]}, {"SpO2": [80, 40, 5, 4, 3, 3]}, {"SpO2": [80, 40, 5, 4, 3, 3]}, {"SpO2": [80, 40, 5, 4, 3, 3]}, {"SpO2": [80, 40, 5, 4, 3, 3]}], "digital IO": [0, 1], "sleeve color": ["gray", "yellow"], "convertedValues": 0}}
# EndOfHeader
0	0	32796	32862	
1	0	32800	32760	
2	0	32826	32786	
3	0	32824	32807	
4	0	32840	32850	
5	0	32800	32784	
6	0	32796	32754	
7	0	32810	32710	
8	0	32810	32742	
9	0	32858	32774	
10	0	32800	32720	
11	0	32877	32680	
12	0	32808	32732	
13	0	32792	32658	
14	0	32868	32740	
15	0	32812	32718	
16	0	32766	32775	
17	0	32796	32818	
18	0	32820	32796	
19	0	32800	32727	
20	0	32852	32814	
21	0	32744	32824	
22	0	32820	32620	
23	0	32794	32769	
24	0	32800	32784	
25	0	32876	32772	
26	0	32738	32638	
27	0	32844	32726	
28	0	32832	32700	
29	0	32828	32816	
30	0	32824	32817	
31	0	32796	32808	
32	0	32792	32826	
33	0	32794	32712	
34	0	32848	32820	
35	0	32864	32692	
36	0	32860	32862	
37	0	32804	32718	
38	0	32836	32824	
39	0	32834	32824	
40	0	32800	32718	
41	0	32740	32836	
42	0	32812	32761	
43	0	32810	32814	
44	0	32832	32724	
45	0	32782	32804	
46	0	32799	32700	
47	0	32750	32850	
48	0	32776	32852	
49	0	32772	32792	
50	0	32812	32751	
51	0	32834	32798	
52	0	32832	32878	
53	0	32870	32752	
54	0	32804	32823	
55	0	32832	32698	
56	0	32800	32748	
57	0	32800	32668	
58	0	32806	32758	
59	0	32780	32726	
60	0	32868	32706	
61	0	32812	32759	
62	0	32772	32798	
63	0	32790	32878	
64	0	32788	32892	
65	0	32752	32804	
66	0	32862	32804	
67	0	32792	32806	
68	0	32820	32806	
69	0	32854	32718	
70	0	32804	32750	
71	0	32784	32800	
72	0	32852	32660	
73	0	32798	32804	
74	0	32874	32736	
75	0	32828	32820	
76	0	32814	32742	
77	0	32860	32848	
78	0	32834	32860	
79	0	32796	32728	
80	0	32852	32742	
81	0	32856	32676	
82	0	32736	32726	
83	0	32720	32696	
84	0	32804	32775	
85	0	32878	32706	
86	0	32872	32828	
87	0	32806	32769	
88	0	32818	32886	
89	0	32778	32758	
90	0	32820	32844	
91	0	32770	32810	
92	0	32828	32824	
93	0	32868	32788	
94	0	32812	32790	
95	0	32834	32788	
96	0	32852	32766	
97	0	32808	32775	
98	0	32776	32760	
99	0	32836	32754	
100	0	32808	32676	
101	0	32856	32770	
102	0	32746	32758	
103	0	32764	32732	
104	0	32784	32708	
105	0	32816	32752	
106	0	32784	32746	
107	0	32860	32796	
108	0	32788	32678	
109	0	32834	32785	
110	0	32856	32740	
111	0	32780	32876	
112	0	32800	32698	
113	0	32760	32816	
114	0	32860	32716	
115	0	32766	32808	
116	0	32764	32790	
117	0	32816	32632	
118	0	32856	32764	
119	0	32814	32688	
120	0	32826	32788	
121	0	32820	32724	
122	0	32780	32761	
123	0	32810	32804	
124	0	32810	32708	
125	0	32848	32828	
126	0	32868	32746	
127	0	32798	32764	
128	0	32792	32720	
129	0	32788	32866	
130	0	32890	32862	
131	0	32744	32686	
132	0	32842	32852	
133	0	32876	32804	
134	0	32820	32772	
135	0	32852	32650	
136	0	32816	32722	
137	0	32804	32798	
138	0	32748	32760	
139	0	32768	32650	
140	0	32820	32844	
141	0	32788	32858	
142	0	32850	32772	
143	0	32792	32720	
144	0	32844	32692	
145	0	32788	32804	
146	0	32762	32692	
147	0	32804	32742	
148	0	32840	32734	
149	0	32856	32807	
150	0	32804	32708	
151	0	32776	32846	
152	0	32832	32836	
153	0	32882	32766	
154	0	32808	32828	
155	0	32752	32722	
156	0	32720	32736	
157	0	32842	32775	
158	0	32808	32794	
159	0	32844	32791	
160	0	32848	32692	
161	0	32764	32748	
162	0	32740	32729	
163	0	32788	32768	
164	0	32802	32808	
165	0	32864	32866	
166	0	32832	32866	
167	0	32888	32740	
168	0	32810	32800	
169	0	32856	32806	
170	0	32832	32828	
171	0	32844	32775	
172	0	32810	32818	
173	0	32802	32718	
174	0	32810	32775	
175	0	32824	32655	
176	0	32760	32804	
177	0	32790	32674	
178	0	32840	32762	
179	0	32864	32746	
180	0	32788	32806	
181	0	32772	32696	
182	0	32780	32876	
183	0	32784	32824	
184	0	32752	32768	
185	0	32760	32756	
186	0	32856	32820	
187	0	32816	32856	
188	0	32830	32803	
189	0	32824	32812	
190	0	32788	32784	
191	0	32836	32686	
192	0	32820	32744	
193	0	32798	32702	
194	0	32836	32728	
195	0	32792	32660	
196	0	32780	32734	
197	0	32828	32720	
198	0	32882	32788	
199	0	32864	32782	
200	0	32720	32890	
201	0	32748	32798	
202	0	32792	32809	
203	0	32792	32764	
204	0	32840	32804	
205	0	32792	32792	
206	0	32800	32804	
207	0	32820	32774	
208	0	32800	32775	
209	0	32910	32814	
210	0	32816	32799	
211	0	32834	32795	
212	0	32761	32838	
213	0	32810	32840	
214	0	32840	32768	
215	0	32842	32906	
216	0	32820	32740	
217	0	32854	32846	
218	0	32836	32764	
219	0	32772	32720	
220	0	32808	32830	
221	0	32788	32748	
222	0	32816	32734	
223	0	32784	32732	
224	0	32816	32879	
225	0	32817	32834	
226	0	32808	32804	
227	0	32912	32788	
228	0	32848	32866	
229	0	32872	32688	
230	0	32770	32718	
231	0	32776	32746	
232	0	32808	32726	
233	0	32744	32736	
234	0	32816	32808	
235	0	32808	32678	
236	0	32898	32810	
237	0	32868	32775	
238	0	32736	32844	
239	0	32840	32766	
240	0	32804	32772	
241	0	32812	32852	
242	0	32816	32828	
243	0	32828	32770	
244	0	32808	32796	
245	0	32748	32810	
246	0	32852	32802	
247	0	32914	32784	
248	0	32786	32790	
249	0	32848	32824	
250	0	32796	32796	
251	0	32838	32775	
252	0	32840	32740	
253	0	32752	32726	
254	0	32818	32807	
255	0	32884	32808	
256	0	32892	32672	
257	0	32812	32716	
258	0	32840	32718	
259	0	32810	32756	
260	0	32824	32698	
261	0	32728	32736	
262	0	32820	32766	
263	0	32738	32744	
264	0	32788	32682	
265	0	32848	32802	
266	0	32812	32744	
267	0	32784	32762	
268	0	32776	32716	
269	0	32768	32824	
270	0	32814	32724	
271	0	32780	32775	
272	0	32808	32690	
273	0	32874	32828	
274	0	32800	32768	
275	0	32804	32806	
276	0	32804	32714	
277	0	32828	32774	
278	0	32868	32642	
279	0	32798	32730	
280	0	32816	32702	
281	0	32842	32730	
282	0	32816	32680	
283	0	32804	32796	
284	0	32766	32644	
285	0	32788	32764	
286	0	32830	32758	
287	0	32864	32712	
288	0	32868	32760	
289	0	32852	32711	
290	0	32784	32822	
291	0	32734	32830	
292	0	32824	32852	
293	0	32852	32796	
294	0	32836	32804	
295	0	32804	32774	
296	0	32806	32714	
297	0	32784	32786	
298	0	32888	32708	
299	0	32804	32770	
300	0	32804	32726	
301	0	32844	32844	
302	0	32768	32756	
303	0	32836	32806	
304	0	32808	32848	
305	0	32842	32736	
306	0	32792	32786	
307	0	32752	32728	
308	0	32841	32796	
309	0	32852	32702	
310	0	32806	32840	
311	0	32738	32764	
312	0	32738	32742	
313	0	32848	32792	
314	0	32786	32823	
315	0	32804	32753	
316	0	32890	32710	
317	0	32844	32708	
318	0	32814	32650	
319	0	32832	32841	
320	0	32848	32830	
321	0	32752	32774	
322	0	32856	32732	
323	0	32816	32788	
324	0	32770	32678	
325	0	32756	32692	
326	0	32828	32800	
327	0	32820	32736	
328	0	32848	32856	
329	0	32792	32864	
330	0	32800	32764	
331	0	32832	32804	
332	0	32832	32672	
333	0	32816	32784	
334	0	32796	32750	
335	0	32836	32830	
336	0	32840	32740	
337	0	32792	32726	
338	0	32872	32742	
339	0	32916	32775	
340	0	32890	32730	
341	0	32834	32786	
342	0	32728	32704	
343	0	32748	32796	
344	0	32784	32762	
345	0	32730	32756	
346	0	32860	32884	
347	0	32834	32754	
348	0	32778	32825	
349	0	32840	32852	
350	0	32760	32836	
351	0	32796	32848	
352	0	32800	32796	
353	0	32852	32786	
354	0	32900	32775	
355	0	32808	32734	
356	0	32848	32726	
357	0	32784	32648	
358	0	32824	32672	
359	0	32852	32672	
360	0	32828	32766	
361	0	32840	32704	
362	0	32808	32842	
363	0	32792	32664	
364	0	32808	32775	
365	0	32704	32804	
366	0	32788	32802	
367	0	32820	32824	
368	0	32808	32654	
369	0	32868	32788	
370	0	32776	32816	
371	0	32746	32798	
372	0	32812	32746	
373	0	32780	32888	
374	0	32780	32756	
375	0	32868	32838	
376	0	32862	32727	
377	0	32836	32748	
378	0	32868	32710	
379	0	32848	32836	
380	0	32866	32800	
381	0	32800	32724	
382	0	32808	32842	
383	0	32798	32800	
384	0	32756	32682	
385	0	32720	32670	
386	0	32826	32884	
387	0	32842	32870	
388	0	32804	32792	
389	0	32832	32775	
390	0	32840	32784	
391	0	32812	32770	
392	0	32792	32688	
393	0	32772	32802	
394	0	32800	32686	
395	0	32832	32788	
396	0	32816	32790	
397	0	32772	32756	
398	0	32830	32750	
399	0	32864	32614	
400	0	32768	32746	
401	0	32780	32672	
402	0	32736	32766	
403	0	32836	32758	
404	0	32776	32788	
405	0	32816	32656	
406	0	32794	32784	
407	0	32832	32708	
408	0	32816	32880	
409	0	32792	32768	
410	0	32840	32758	
411	0	32820	32766	
412	0	32808	32806	
413	0	32876	32705	
414	0	32860	32758	
415	0	32834	32712	
416	0	32838	32706	
417	0	32844	32711	
418	0	32792	32816	
419	0	32808	32752	
420	0	32872	32842	
421	0	32778	32822	
422	0	32836	32786	
423	0	32766	32784	
424	0	32824	32846	
425	0	32810	32700	
426	0	32746	32772	
427	0	32820	32730	
428	0	32762	32816	
429	0	32808	32728	
430	0	32768	32775	
431	0	32804	32660	
432	0	32820	32775	
433	0	32858	32636	
434	0	32792	32752	
435	0	32798	32655	
436	0	32830	32822	
437	0	32842	32708	
438	0	32852	32718	
439	0	32820	32700	
440	0	32836	32782	
441	0	32750	32752	
442	0	32842	32808	
443	0	32702	32680	
444	0	32760	32796	
445	0	32790	32788	
446	0	32800	32830	
447	0	32826	32842	
448	0	32832	32736	
449	0	32756	32720	
450	0	32820	32768	
451	0	32864	32744	
452	0	32840	32764	
453	0	32776	32754	
454	0	32864	32712	
455	0	32804	32770	
456	0	32720	32852	
457	0	32832	32693	
458	0	32776	32802	
459	0	32796	32708	
460	0	32812	32758	
461	0	32878	32666	
462	0	32832	32712	
463	0	32786	32706	
464	0	32852	32764	
465	0	32804	32708	
466	0	32744	32812	
467	0	32768	32702	
468	0	32784	32720	
469	0	32792	32808	
470	0	32796	32788	
471	0	32762	32824	
472	0	32812	32815	
473	0	32850	32858	
474	0	32832	32700	
475	0	32812	32752	
476	0	32844	32704	
477	0	32822	32780	
478	0	32832	32696	
479	0	32852	32775	
480	0	32772	32676	
481	0	32802	32758	
482	0	32782	32806	
483	0	32744	32832	
484	0	32748	32766	
485	0	32788	32696	
486	0	32832	32724	
487	0	32841	32712	
488	0	32792	32864	
489	0	32768	32678	
490	0	32784	32814	
491	0	32868	32694	
492	0	32792	32772	
493	0	32816	32716	
494	0	32778	32698	
495	0	32816	32758	
496	0	32756	32816	
497	0	32740	32766	
498	0	32824	32822	
499	0	32832	32700	
500	0	32874	32694	
501	0	32840	32708	
502	0	32816	32800	
503	0	32785	32668	
504	0	32812	32774	
505	0	32800	32692	
506	0	32756	32774	
507	0	32828	32682	
508	0	32792	32775	
509	0	32768	32658	
510	0	32814	32858	
511	0	32852	32832	
512	0	32868	32824	
513	0	32856	32844	
514	0	32826	32775	
515	0	32830	32780	
516	0	32856	32828	
517	0	32840	32764	
518	0	32856	32718	
519	0	32828	32808	
520	0	32796	32718	
521	0	32784	32818	
522	0	32768	32668	
523	0	32724	32756	
524	0	32760	32670	
525	0	32740	32770	
526	0	32788	32710	
527	0	32772	32801	
528	0	32828	32742	
529	0	32808	32804	
530	0	32788	32846	
531	0	32852	32830	
532	0	32864	32836	
533	0	32818	32730	
534	0	32804	32714	
535	0	32752	32656	
536	0	32816	32750	
537	0	32844	32806	
538	0	32842	32794	
539	0	32820	32800	
540	0	32834	32694	
541	0	32792	32792	
542	0	32854	32768	
543	0	32792	32800	
544	0	32862	32748	
545	0	32820	32830	
546	0	32808	32784	
547	0	32828	32782	
548	0	32750	32786	
549	0	32802	32702	
550	0	32792	32849	
551	0	32824	32644	
552	0	32888	32806	
553	0	32836	32670	
554	0	32788	32767	
555	0	32804	32719	
556	0	32764	32832	
557	0	32736	32780	
558	0	32900	32750	
559	0	32880	32836	
560	0	32790	32796	
561	0	32792	32826	
562	0	32790	32804	
563	0	32852	32790	
564	0	32792	32714	
565	0	32780	32748	
566	0	32732	32736	
567	0	32856	32772	
568	0	32830	32736	
569	0	32788	32684	
570	0	32842	32740	
571	0	32744	32756	
572	0	32840	32764	
573	0	32836	32834	
574	0	32750	32798	
575	0	32756	32719	
576	0	32808	32775	
577	0	32816	32830	
578	0	32862	32740	
579	0	32838	32759	
580	0	32862	32800	
581	0	32832	32870	
582	0	32742	32832	
583	0	32744	32674	
584	0	32802	32647	
585	0	32784	32706	
586	0	32824	32766	
587	0	32776	32706	
588	0	32824	32766	
589	0	32800	32802	
590	0	32834	32854	
591	0	32756	32766	
592	0	32812	32864	
593	0	32842	32848	
594	0	32824	32830	
595	0	32824	32836	
596	0	32834	32738	
597	0	32812	32750	
598	0	32844	32812	
599	0	32780	32828	
600	0	32864	32775	
601	0	32788	32838	
602	0	32800	32828	
603	0	32860	32788	
604	0	32792	32710	
605	0	32821	32748	
606	0	32836	32682	
607	0	32810	32672	
608	0	32768	32807	
609	0	32780	32808	
610	0	32820	32864	
611	0	32792	32862	
612	0	32828	32852	
613	0	32880	32775	
614	0	32796	32758	
615	0	32820	32764	
616	0	32910	32742	
617	0	32886	32692	
618	0	32856	32810	
619	0	32840	32724	
620	0	32836	32808	
621	0	32756	32810	
622	0	32848	32860	
623	0	32810	32846	
624	0	32756	32775	
625	0	32784	32846	
626	0	32764	32808	
627	0	32804	32632	
628	0	32808	32689	
629	0	32784	32700	
630	0	32812	32716	
631	0	32716	32806	
632	0	32772	32794	
633	0	32876	32840	
634	0	32872	32814	
635	0	32838	32834	
636	0	32852	32698	
637	0	32852	32698	
638	0	32804	32676	
639	0	32842	32700	
640	0	32894	32680	
641	0	32820	32788	
642	0	32776	32744	
643	0	32788	32878	
644	0	32788	32816	
645	0	32788	32775	
646	0	32704	32816	
647	0	32788	32770	
648	0	32812	32814	
649	0	32768	32828	
650	0	32888	32692	
651	0	32920	32792	
652	0	32816	32798	
653	0	32800	32790	
654	0	32856	32806	
655	0	32824	32824	
656	0	32810	32756	
657	0	32860	32833	
658	0	32814	32724	
659	0	32860	32740	
660	0	32834	32784	
661	0	32792	32746	
662	0	32788	32716	
663	0	32756	32680	
664	0	32792	32684	
665	0	32884	32650	
666	0	32740	32748	
667	0	32792	32740	
668	0	32820	32814	
669	0	32784	32836	
670	0	32758	32800	
671	0	32832	32758	
672	0	32808	32807	
673	0	32860	32896	
674	0	32840	32778	
675	0	32828	32690	
676	0	32872	32788	
677	0	32780	32696	
678	0	32776	32804	
679	0	32824	32736	
680	0	32800	32822	
681	0	32784	32768	
682	0	32800	32788	
683	0	32876	32672	
684	0	32820	32750	
685	0	32776	32775	
686	0	32784	32744	
687	0	32768	32696	
688	0	32828	32700	
689	0	32770	32732	
690	0	32804	32666	
691	0	32800	32672	
692	0	32796	32672	
693	0	32860	32800	
694	0	32818	32784	
695	0	32868	32646	
696	0	32872	32802	
697	0	32828	32724	
698	0	32836	32820	
699	0	32774	32732	
700	0	32772	32798	
701	0	32848	32832	
702	0	32832	32750	
703	0	32876	32758	
704	0	32768	32728	
705	0	32856	32820	
706	0	32868	32720	
707	0	32786	32742	
708	0	32764	32840	
709	0	32784	32668	
710	0	32778	32798	
711	0	32740	32716	
712	0	32716	32792	
713	0	32736	32640	
714	0	32782	32744	
715	0	32736	32628	
716	0	32724	32634	
717	0	32708	32630	
718	0	32720	32716	
719	0	32744	32642	
720	0	32734	32698	
721	0	32716	32692	
722	0	32668	32710	
723	0	32720	32572	
724	0	32774	32736	
725	0	32776	32718	
726	0	32864	32774	
727	0	32792	32716	
728	0	32849	32800	
729	0	32862	32770	
730	0	32772	32786	
731	0	32768	32724	
732	0	32884	32856	
733	0	32824	32828	
734	0	32746	32794	
735	0	32778	32848	
736	0	32865	32772	
737	0	32904	32932	
738	0	32960	32916	
739	0	33020	32822	
740	0	33008	32858	
741	0	33168	32804	
742	0	33120	32966	
743	0	33124	32946	
744	0	33016	32964	
745	0	33060	33006	
746	0	32984	32903	
747	0	32968	32980	
748	0	32964	32885	
749	0	32960	32852	
750	0	32858	32822	
751	0	32836	32674	
752	0	32708	32688	
753	0	32704	32736	
754	0	32706	32696	
755	0	32650	32686	
756	0	32708	32636	
757	0	32744	32704	
758	0	32712	32718	
759	0	32740	32740	
760	0	32684	32698	
761	0	32740	32698	
762	0	32736	32682	
763	0	32736	32690	
764	0	32750	32788	
765	0	32716	32724	
766	0	32772	32696	
767	0	32702	32788	
768	0	32784	32794	
769	0	32828	32704	
770	0	32808	32742	
771	0	32674	32712	
772	0	32808	32714	
773	0	32824	32848	
774	0	32798	32802	
775	0	32772	32710	
776	0	32848	32750	
777	0	32784	32772	
778	0	32868	32680	
779	0	32900	32664	
780	0	32816	32764	
781	0	32772	32814	
782	0	32740	32774	
783	0	32854	32742	
784	0	32720	32796	
785	0	32825	32812	
786	0	32792	32790	
787	0	32844	32814	
788	0	32800	32700	
789	0	32796	32712	
790	0	32778	32802	
791	0	32824	32760	
792	0	32782	32772	
793	0	32820	32838	
794	0	32874	32881	
795	0	32844	32724	
796	0	32772	32708	
797	0	32832	32775	
798	0	32884	32766	
799	0	32816	32682	
800	0	32752	32692	
801	0	32784	32676	
802	0	32752	32740	
803	0	32810	32744	
804	0	32802	32848	
805	0	32808	32788	
806	0	32844	32756	
807	0	32798	32844	
808	0	32776	32804	
809	0	32832	32718	
810	0	32844	32692	
811	0	32834	32728	
812	0	32816	32728	
813	0	32852	32760	
814	0	32812	32753	
815	0	32700	32748	
816	0	32780	32782	
817	0	32907	32806	
818	0	32832	32654	
819	0	32832	32752	
820	0	32796	32728	
821	0	32744	32732	
822	0	32784	32756	
823	0	32808	32792	
824	0	32882	32884	
825	0	32792	32750	
826	0	32820	32758	
827	0	32794	32752	
828	0	32800	32852	
829	0	32808	32840	
830	0	32812	32836	
831	0	32868	32818	
832	0	32808	32688	
833	0	32800	32786	
834	0	32810	32788	
835	0	32824	32830	
836	0	32826	32802	
837	0	32818	32844	
838	0	32784	32744	
839	0	32866	32786	
840	0	32828	32736	
841	0	32892	32766	
842	0	32832	32700	
843	0	32812	32732	
844	0	32780	32694	
845	0	32792	32808	
846	0	32772	32746	
847	0	32713	32720	
848	0	32740	32806	
849	0	32862	32808	
850	0	32880	32728	
851	0	32846	32708	
852	0	32816	32751	
853	0	32876	32832	
854	0	32868	32858	
855	0	32880	32816	
856	0	32798	32690	
857	0	32868	32760	
858	0	32828	32772	
859	0	32880	32822	
860	0	32828	32844	
861	0	32732	32734	
862	0	32714	32740	
863	0	32752	32839	
864	0	32760	32804	
865	0	32830	32696	
866	0	32788	32800	
867	0	32752	32734	
868	0	32768	32768	
869	0	32772	32696	
870	0	32856	32720	
871	0	32884	32794	
872	0	32792	32806	
873	0	32804	32804	
874	0	32868	32840	
875	0	32824	32775	
876	0	32828	32768	
877	0	32784	32718	
878	0	32858	32794	
879	0	32788	32734	
880	0	32808	32865	
881	0	32852	32818	
882	0	32752	32775	
883	0	32824	32676	
884	0	32768	32792	
885	0	32854	32554	
886	0	32792	32750	
887	0	32804	32761	
888	0	32760	32771	
889	0	32804	32796	
890	0	32764	32798	
891	0	32780	32806	
892	0	32790	32712	
893	0	32804	32772	
894	0	32880	32798	
895	0	32880	32818	
896	0	32772	32794	
897	0	32820	32788	
898	0	32812	32810	
899	0	32838	32792	
900	0	32856	32882	
901	0	32872	32849	
902	0	32764	32792	
903	0	32778	32726	
904	0	32788	32798	
905	0	32838	32775	
906	0	32760	32782	
907	0	32852	32766	
908	0	32764	32838	
909	0	32748	32670	
910	0	32848	32680	
911	0	32808	32720	
912	0	32842	32722	
913	0	32856	32702	
914	0	32788	32784	
915	0	32764	32807	
916	0	32824	32782	
917	0	32792	32748	
918	0	32770	32754	
919	0	32810	32794	
920	0	32892	32676	
921	0	32802	32714	
922	0	32784	32740	
923	0	32836	32762	
924	0	32820	32758	
925	0	32788	32864	
926	0	32878	32812	
927	0	32822	32711	
928	0	32768	32806	
929	0	32728	32772	
930	0	32752	32730	
931	0	32808	32775	
932	0	32838	32784	
933	0	32800	32752	
934	0	32896	32790	
935	0	32812	32816	
936	0	32892	32796	
937	0	32804	32850	
938	0	32814	32775	
939	0	32878	32772	
940	0	32758	32806	
941	0	32760	32860	
942	0	32808	32676	
943	0	32770	32738	
944	0	32876	32680	
945	0	32860	32775	
946	0	32794	32720	
947	0	32800	32810	
948	0	32784	32832	
949	0	32848	32814	
950	0	32852	32806	
951	0	32828	32782	
952	0	32800	32758	
953	0	32880	32775	
954	0	32828	32863	
955	0	32872	32796	
956	0	32826	32722	
957	0	32830	32728	
958	0	32754	32662	
959	0	32832	32660	
960	0	32844	32712	
961	0	32748	32796	
962	0	32820	32736	
963	0	32860	32800	
964	0	32820	32825	
965	0	32840	32770	
966	0	32832	32796	
967	0	32848	32792	
968	0	32828	32740	
969	0	32768	32674	
970	0	32788	32802	
971	0	32804	32782	
972	0	32824	32839	
973	0	32848	32816	
974	0	32796	32714	
975	0	32888	32828	
976	0	32796	32796	
977	0	32832	32724	
978	0	32856	32732	
979	0	32844	32712	
980	0	32868	32696	
981	0	32860	32692	
982	0	32752	32774	
983	0	32748	32796	
984	0	32792	32908	
985	0	32784	32784	
986	0	32828	32824	
987	0	32822	32736	
988	0	32792	32808	
989	0	32758	32688	
990	0	32776	32740	
991	0	32768	32758	
992	0	32804	32736	
993	0	32836	32864	
994	0	32754	32816	
995	0	32840	32802	
996	0	32806	32842	
997	0	32836	32790	
998	0	32868	32703	
999	0	32828	32798	
1000	0	32820	32708	
1001	0	32816	32676	
1002	0	32834	32732	
1003	0	32780	32832	
1004	0	32842	32724	
1005	0	32816	32786	
1006	0	32888	32708	
1007	0	32816	32788	
1008	0	32856	32727	
1009	0	32864	32780	
1010	0	32748	32826	
1011	0	32858	32817	
1012	0	32772	32808	
1013	0	32776	32804	
1014	0	32784	32744	
1015	0	32772	32766	
1016	0	32824	32740	
1017	0	32838	32688	
1018	0	32864	32716	
1019	0	32776	32676	
1020	0	32744	32710	
1021	0	32832	32647	
1022	0	32768	32746	
1023	0	32828	32870	
1024	0	32768	32744	
1025	0	32792	32782	
1026	0	32818	32808	
1027	0	32816	32711	
1028	0	32762	32766	
1029	0	32820	32766	
1030	0	32852	32812	
1031	0	32844	32810	
1032	0	32790	32722	
1033	0	32872	32684	
1034	0	32772	32716	
1035	0	32750	32704	
1036	0	32760	32726	
1037	0	32778	32719	
1038	0	32802	32792	
1039	0	32798	32804	
1040	0	32842	32816	
1041	0	32778	32836	
1042	0	32820	32843	
1043	0	32776	32775	
1044	0	32816	32704	
1045	0	32756	32810	
1046	0	32858	32788	
1047	0	32860	32654	
1048	0	32806	32796	
1049	0	32796	32816	
1050	0	32800	32774	
1051	0	32828	32678	
1052	0	32778	32676	
1053	0	32720	32704	
1054	0	32776	32806	
1055	0	32826	32832	
1056	0	32812	32728	
1057	0	32834	32812	
1058	0	32860	32774	
1059	0	32792	32720	
1060	0	32804	32704	
1061	0	32824	32682	
1062	0	32790	32738	
1063	0	32778	32804	
1064	0	32788	32807	
1065	0	32764	32734	
1066	0	32804	32775	
1067	0	32768	32849	
1068	0	32832	32744	
1069	0	32828	32687	
1070	0	32850	32672	
1071	0	32812	32794	
1072	0	32884	32804	
1073	0	32754	32764	
1074	0	32768	32791	
1075	0	32844	32788	
1076	0	32904	32746	
1077	0	32800	32750	
1078	0	32844	32704	
1079	0	32888	32686	
1080	0	32776	32758	
1081	0	32800	32804	
1082	0	32724	32826	
1083	0	32736	32775	
1084	0	32780	32724	
1085	0	32856	32780	
1086	0	32754	32688	
1087	0	32784	32662	
1088	0	32880	32822	
1089	0	32784	32792	
1090	0	32820	32870	
1091	0	32866	32838	
1092	0	32774	32736	
1093	0	32788	32884	
1094	0	32768	32818	
1095	0	32868	32704	
1096	0	32840	32775	
1097	0	32800	32648	
1098	0	32756	32646	
1099	0	32826	32830	
1100	0	32864	32684	
1101	0	32796	32740	
1102	0	32832	32688	
1103	0	32776	32614	
1104	0	32718	32789	
1105	0	32784	32830	
1106	0	32828	32860	
1107	0	32792	32820	
1108	0	32744	32718	
1109	0	32852	32794	
1110	0	32720	32874	
1111	0	32810	32750	
1112	0	32848	32744	
1113	0	32848	32800	
1114	0	32808	32792	
1115	0	32860	32770	
1116	0	32776	32772	
1117	0	32872	32780	
1118	0	32820	32834	
1119	0	32838	32709	
1120	0	32902	32644	
1121	0	32814	32698	
1122	0	32810	32724	
1123	0	32816	32812	
1124	0	32708	32751	
1125	0	32764	32832	
1126	0	32790	32840	
1127	0	32812	32766	
1128	0	32832	32814	
1129	0	32784	32795	
1130	0	32832	32722	
1131	0	32824	32743	
1132	0	32802	32802	
1133	0	32872	32754	
1134	0	32836	32810	
1135	0	32744	32792	
1136	0	32830	32736	
1137	0	32890	32752	
1138	0	32878	32752	
1139	0	32828	32768	
1140	0	32856	32775	
1141	0	32824	32646	
1142	0	32830	32668	
1143	0	32796	32722	
1144	0	32784	32812	
1145	0	32742	32840	
1146	0	32816	32834	
1147	0	32820	32860	
1148	0	32740	32838	
1149	0	32822	32767	
1150	0	32788	32738	
1151	0	32840	32775	
1152	0	32792	32788	
1153	0	32800	32876	
1154	0	32808	32716	
1155	0	32772	32688	
1156	0	32772	32724	
1157	0	32831	32820	
1158	0	32820	32784	
1159	0	32820	32802	
1160	0	32808	32742	
1161	0	32808	32746	
1162	0	32792	32758	
1163	0	32856	32748	
1164	0	32832	32804	
1165	0	32820	32718	
1166	0	32764	32828	
1167	0	32804	32834	
1168	0	32778	32799	
1169	0	32772	32775	
1170	0	32852	32762	
1171	0	32824	32876	
1172	0	32884	32657	
1173	0	32824	32804	
1174	0	32878	32742	
1175	0	32788	32740	
1176	0	32784	32758	
1177	0	32830	32794	
1178	0	32794	32836	
1179	0	32824	32788	
1180	0	32788	32772	
1181	0	32788	32774	
1182	0	32798	32732	
1183	0	32806	32808	
1184	0	32802	32728	
1185	0	32804	32738	
1186	0	32840	32748	
1187	0	32830	32646	
1188	0	32852	32664	
1189	0	32780	32784	
1190	0	32744	32878	
1191	0	32768	32844	
1192	0	32856	32794	
1193	0	32818	32752	
1194	0	32842	32726	
1195	0	32814	32772	
1196	0	32792	32825	
1197	0	32810	32840	
1198	0	32804	32754	
1199	0	32756	32670	
1200	0	32896	32746	
1201	0	32812	32756	
1202	0	32792	32825	
1203	0	32750	32816	
1204	0	32760	32789	
1205	0	32816	32828	
1206	0	32790	32804	
1207	0	32816	32812	
1208	0	32840	32830	
1209	0	32792	32839	
1210	0	32836	32772	
1211	0	32810	32730	
1212	0	32860	32676	
1213	0	32816	32686	
1214	0	32754	32756	
1215	0	32746	32799	
1216	0	32866	32808	
1217	0	32848	32768	
1218	0	32800	32748	
1219	0	32800	32812	
1220	0	32868	32658	
1221	0	32848	32732	
1222	0	32780	32807	
1223	0	32790	32828	
1224	0	32740	32848	
1225	0	32792	32784	
1226	0	32832	32804	
1227	0	32808	32770	
1228	0	32816	32698	
1229	0	32768	32706	
1230	0	32820	32762	
1231	0	32836	32792	
1232	0	32828	32752	
1233	0	32786	32856	
1234	0	32824	32746	
1235	0	32784	32788	
1236	0	32784	32730	
1237	0	32840	32606	
1238	0	32842	32652	
1239	0	32832	32700	
1240	0	32798	32644	
1241	0	32780	32762	
1242	0	32764	32784	
1243	0	32830	32806	
1244	0	32862	32820	
1245	0	32776	32822	
1246	0	32760	32798	
1247	0	32824	32810	
1248	0	32834	32738	
1249	0	32764	32714	
1250	0	32800	32774	
1251	0	32812	32775	
1252	0	32848	32864	
1253	0	32804	32768	
1254	0	32824	32782	
1255	0	32748	32750	
1256	0	32818	32786	
1257	0	32820	32812	
1258	0	32868	32736	
1259	0	32860	32764	
1260	0	32848	32744	
1261	0	32888	32744	
1262	0	32756	32839	
1263	0	32804	32700	
1264	0	32794	32724	
1265	0	32800	32742	
1266	0	32832	32736	
1267	0	32788	32730	
1268	0	32844	32740	
1269	0	32786	32702	
1270	0	32777	32706	
1271	0	32836	32788	
1272	0	32828	32810	
1273	0	32892	32826	
1274	0	32836	32764	
1275	0	32748	32807	
1276	0	32748	32768	
1277	0	32800	32804	
1278	0	32808	32772	
1279	0	32804	32752	
1280	0	32740	32702	
1281	0	32812	32756	
1282	0	32796	32750	
1283	0	32768	32708	
1284	0	32808	32752	
1285	0	32816	32704	
1286	0	32776	32804	
1287	0	32796	32790	
1288	0	32808	32830	
1289	0	32796	32772	
1290	0	32798	32808	
1291	0	32800	32786	
1292	0	32852	32806	
1293	0	32882	32775	
1294	0	32780	32686	
1295	0	32800	32738	
1296	0	32788	32684	
1297	0	32868	32772	
1298	0	32824	32748	
1299	0	32832	32796	
1300	0	32840	32752	
1301	0	32784	32798	
1302	0	32780	32744	
1303	0	32784	32757	
1304	0	32812	32881	
1305	0	32826	32712	
1306	0	32798	32712	
1307	0	32776	32714	
1308	0	32840	32708	
1309	0	32848	32716	
1310	0	32764	32864	
1311	0	32732	32874	
1312	0	32816	32804	
1313	0	32788	32834	
1314	0	32876	32870	
1315	0	32756	32767	
1316	0	32792	32800	
1317	0	32756	32732	
1318	0	32898	32694	
1319	0	32876	32738	
1320	0	32848	32636	
1321	0	32844	32704	
1322	0	32712	32842	
1323	0	32764	32798	
1324	0	32764	32796	
1325	0	32820	32828	
1326	0	32852	32772	
1327	0	32798	32668	
1328	0	32804	32712	
1329	0	32784	32762	
1330	0	32764	32752	
1331	0	32868	32774	
1332	0	32794	32708	
1333	0	32840	32647	
1334	0	32812	32704	
1335	0	32800	32684	
1336	0	32848	32738	
1337	0	32788	32700	
1338	0	32828	32736	
1339	0	32846	32708	
1340	0	32916	32653	
1341	0	32816	32652	
1342	0	32780	32720	
1343	0	32816	32866	
1344	0	32800	32742	
1345	0	32784	32882	
1346	0	32804	32800	
1347	0	32816	32788	
1348	0	32764	32768	
1349	0	32776	32810	
1350	0	32858	32804	
1351	0	32782	32822	
1352	0	32800	32878	
1353	0	32834	32775	
1354	0	32800	32808	
1355	0	32816	32684	
1356	0	32812	32750	
1357	0	32820	32764	
1358	0	32836	32769	
1359	0	32832	32644	
1360	0	32782	32796	
1361	0	32740	32660	
1362	0	32804	32774	
1363	0	32804	32644	
1364	0	32782	32780	
1365	0	32766	32644	
1366	0	32792	32812	
1367	0	32864	32628	
1368	0	32800	32722	
1369	0	32812	32710	
1370	0	32814	32818	
1371	0	32752	32775	
1372	0	32856	32924	
1373	0	32816	32768	
1374	0	32784	32828	
1375	0	32764	32672	
1376	0	32858	32812	
1377	0	32808	32752	
1378	0	32884	32784	
1379	0	32856	32764	
1380	0	32812	32660	
1381	0	32810	32712	
1382	0	32716	32736	
1383	0	32782	32775	
1384	0	32800	32838	
1385	0	32808	32766	
1386	0	32802	32800	
1387	0	32800	32774	
1388	0	32780	32775	
1389	0	32744	32770	
1390	0	32840	32836	
1391	0	32752	32674	
1392	0	32864	32843	
1393	0	32836	32852	
1394	0	32884	32775	
1395	0	32814	32804	
1396	0	32858	32640	
1397	0	32840	32768	
1398	0	32820	32716	
1399	0	32844	32816	
1400	0	32776	32732	
1401	0	32836	32825	
1402	0	32852	32775	
1403	0	32766	32838	
1404	0	32748	32830	
1405	0	32828	32826	
1406	0	32818	32858	
1407	0	32824	32756	
1408	0	32824	32798	
1409	0	32856	32680	
1410	0	32780	32832	
1411	0	32812	32720	
1412	0	32852	32838	
1413	0	32800	32870	
1414	0	32758	32862	
1415	0	32804	32798	
1416	0	32824	32820	
1417	0	32880	32786	
1418	0	32802	32808	
1419	0	32802	32804	
1420	0	32842	32806	
1421	0	32852	32828	
1422	0	32786	32686	
1423	0	32736	32816	
1424	0	32728	32700	
1425	0	32764	32826	
1426	0	32830	32724	
1427	0	32810	32804	
1428	0	32784	32674	
1429	0	32876	32812	
1430	0	32876	32674	
1431	0	32832	32818	
1432	0	32832	32732	
1433	0	32796	32784	
1434	0	32832	32700	
1435	0	32804	32750	
1436	0	32776	32718	
1437	0	32860	32712	
1438	0	32798	32828	
1439	0	32802	32714	
1440	0	32894	32752	
1441	0	32808	32708	
1442	0	32816	32839	
1443	0	32778	32820	
1444	0	32798	32700	
1445	0	32668	32824	
1446	0	32792	32844	
1447	0	32836	32742	
1448	0	32784	32724	
1449	0	32820	32702	
1450	0	32866	32698	
1451	0	32832	32682	
1452	0	32872	32724	
1453	0	32856	32744	
1454	0	32856	32636	
1455	0	32788	32729	
1456	0	32810	32690	
1457	0	32748	32682	
1458	0	32804	32746	
1459	0	32864	32748	
1460	0	32762	32766	
1461	0	32736	32810	
1462	0	32808	32807	
1463	0	32760	32750	
1464	0	32804	32775	
1465	0	32790	32864	
1466	0	32860	32856	
1467	0	32816	32824	
1468	0	32820	32714	
1469	0	32808	32790	
1470	0	32840	32736	
1471	0	32756	32724	
1472	0	32824	32817	
1473	0	32826	32726	
1474	0	32736	32711	
1475	0	32804	32696	
1476	0	32836	32784	
1477	0	32796	32698	
1478	0	32772	32686	
1479	0	32864	32732	
1480	0	32860	32820	
1481	0	32856	32744	
1482	0	32816	32826	
1483	0	32780	32754	
1484	0	32772	32772	
1485	0	32768	32786	
1486	0	32780	32784	
1487	0	32770	32852	
1488	0	32842	32802	
1489	0	32808	32680	
1490	0	32808	32690	
1491	0	32866	32772	
1492	0	32842	32798	
1493	0	32872	32788	
1494	0	32836	32850	
1495	0	32840	32769	
1496	0	32740	32766	
1497	0	32812	32800	
1498	0	32840	32706	
1499	0	32872	32679	
1500	0	32836	32726	
1501	0	32816	32755	
1502	0	32812	32768	
1503	0	32772	32774	
1504	0	32768	32816	
1505	0	32768	32750	
1506	0	32820	32775	
1507	0	32868	32754	
1508	0	32804	32780	
1509	0	32788	32832	
1510	0	32792	32768	
1511	0	32812	32775	
1512	0	32800	32678	
1513	0	32790	32672	
1514	0	32816	32732	
1515	0	32802	32756	
1516	0	32896	32766	
1517	0	32868	32666	
1518	0	32824	32702	
1519	0	32804	32664	
1520	0	32776	32624	
1521	0	32724	32730	
1522	0	32796	32690	
1523	0	32774	32754	
1524	0	32760	32748	
1525	0	32792	32856	
1526	0	32816	32756	
1527	0	32852	32794	
1528	0	32822	32768	
1529	0	32806	32794	
1530	0	32764	32762	
1531	0	32820	32724	
1532	0	32870	32738	
1533	0	32860	32772	
1534	0	32836	32690	
1535	0	32844	32820	
1536	0	32827	32718	
1537	0	32844	32750	
1538	0	32788	32798	
1539	0	32832	32848	
1540	0	32812	32654	
1541	0	32776	32775	
1542	0	32756	32752	
1543	0	32732	32884	
1544	0	32780	32789	
1545	0	32728	32836	
1546	0	32808	32854	
1547	0	32804	32762	
1548	0	32796	32752	
1549	0	32868	32656	
1550	0	32844	32864	
1551	0	32760	32820	
1552	0	32788	32674	
1553	0	32830	32767	
1554	0	32810	32732	
1555	0	32834	32816	
1556	0	32868	32727	
1557	0	32864	32742	
1558	0	32836	32772	
1559	0	32846	32716	
1560	0	32874	32820	
1561	0	32810	32706	
1562	0	32720	32775	
1563	0	32732	32714	
1564	0	32816	32748	
1565	0	32776	32660	
1566	0	32840	32748	
1567	0	32820	32736	
1568	0	32776	32808	
1569	0	32788	32878	
1570	0	32788	32742	
1571	0	32764	32888	
1572	0	32772	32678	
1573	0	32796	32823	
1574	0	32826	32760	
1575	0	32836	32794	
1576	0	32840	32753	
1577	0	32898	32696	
1578	0	32856	32794	
1579	0	32856	32674	
1580	0	32920	32748	
1581	0	32872	32772	
1582	0	32782	32864	
1583	0	32764	32810	
1584	0	32784	32704	
1585	0	32720	32727	
1586	0	32782	32760	
1587	0	32820	32788	
1588	0	32773	32762	
1589	0	32712	32752	
1590	0	32760	32704	
1591	0	32708	32682	
1592	0	32682	32664	
1593	0	32700	32636	
1594	0	32764	32664	
1595	0	32728	32736	
1596	0	32700	32732	
1597	0	32732	32748	
1598	0	32796	32716	
1599	0	32708	32700	
1600	0	32740	32742	
1601	0	32612	32744	
1602	0	32660	32716	
1603	0	32704	32744	
1604	0	32728	32760	
1605	0	32718	32832	
1606	0	32872	32807	
1607	0	32804	32742	
1608	0	32796	32846	
1609	0	32896	32788	
1610	0	32860	32860	
1611	0	32824	32808	
1612	0	32876	32804	
1613	0	32836	32898	
1614	0	32878	32916	
1615	0	32908	32744	
1616	0	32980	32904	
1617	0	32974	32920	
1618	0	33012	32968	
1619	0	33120	32956	
1620	0	33132	33080	
1621	0	33052	33028	
1622	0	33088	33028	
1623	0	33036	32872	
1624	0	32936	32854	
1625	0	32924	32878	
1626	0	32944	33000	
1627	0	32936	32864	
1628	0	32928	32952	
1629	0	32856	32740	
1630	0	32784	32766	
1631	0	32672	32664	
1632	0	32760	32768	
1633	0	32738	32676	
1634	0	32688	32638	
1635	0	32676	32634	
1636	0	32688	32700	
1637	0	32750	32690	
1638	0	32706	32654	
1639	0	32716	32626	
1640	0	32792	32772	
1641	0	32700	32744	
1642	0	32710	32768	
1643	0	32752	32735	
1644	0	32700	32676	
1645	0	32709	32662	
1646	0	32818	32782	
1647	0	32800	32644	
1648	0	32860	32816	
1649	0	32736	32716	
1650	0	32740	32788	
1651	0	32780	32680	
1652	0	32786	32712	
1653	0	32880	32792	
1654	0	32808	32728	
1655	0	32840	32612	
1656	0	32768	32756	
1657	0	32840	32722	
1658	0	32864	32814	
1659	0	32824	32770	
1660	0	32784	32802	
1661	0	32824	32822	
1662	0	32814	32812	
1663	0	32760	32804	
1664	0	32805	32734	
1665	0	32742	32808	
1666	0	32812	32702	
1667	0	32864	32903	
1668	0	32792	32817	
1669	0	32816	32824	
1670	0	32796	32750	
1671	0	32816	32880	
1672	0	32776	32808	
1673	0	32792	32766	
1674	0	32784	32808	
1675	0	32792	32775	
1676	0	32836	32771	
1677	0	32804	32792	
1678	0	32810	32736	
1679	0	32852	32756	
1680	0	32784	32616	
1681	0	32808	32798	
1682	0	32832	32730	
1683	0	32778	32774	
1684	0	32800	32796	
1685	0	32796	32780	
1686	0	32828	32740	
1687	0	32796	32744	
1688	0	32812	32688	
1689	0	32816	32842	
1690	0	32800	32756	
1691	0	32862	32818	
1692	0	32860	32686	
1693	0	32836	32724	
1694	0	32848	32696	
1695	0	32853	32742	
1696	0	32844	32712	
1697	0	32756	32839	
1698	0	32860	32816	
1699	0	32864	32775	
1700	0	32760	32724	
1701	0	32840	32754	
1702	0	32822	32728	
1703	0	32792	32775	
1704	0	32800	32796	
1705	0	32712	32824	
1706	0	32724	32740	
1707	0	32792	32796	
1708	0	32856	32764	
1709	0	32800	32775	
1710	0	32806	32752	
1711	0	32848	32746	
1712	0	32880	32736	
1713	0	32852	32874	
1714	0	32800	32769	
1715	0	32842	32828	
1716	0	32780	32818	
1717	0	32824	32798	
1718	0	32912	32746	
1719	0	32860	32762	
1720	0	32816	32680	
1721	0	32852	32724	
1722	0	32756	32700	
1723	0	32752	32820	
1724	0	32768	32720	
1725	0	32808	32794	
1726	0	32818	32676	
1727	0	32792	32862	
1728	0	32814	32896	
1729	0	32818	32822	
1730	0	32808	32814	
1731	0	32792	32788	
1732	0	32812	32852	
1733	0	32816	32924	
1734	0	32856	32817	
1735	0	32860	32775	
1736	0	32816	32840	
1737	0	32838	32702	
1738	0	32812	32752	
1739	0	32880	32718	
1740	0	32836	32807	
1741	0	32772	32722	
1742	0	32784	32796	
1743	0	32806	32750	
1744	0	32806	32775	
1745	0	32780	32720	
1746	0	32864	32775	
1747	0	32816	32710	
1748	0	32834	32840	
1749	0	32820	32782	
1750	0	32860	32828	
1751	0	32812	32874	
1752	0	32868	32802	
1753	0	32802	32732	
1754	0	32760	32668	
1755	0	32866	32684	
1756	0	32800	32856	
1757	0	32764	32832	
1758	0	32748	32728	
1759	0	32802	32719	
1760	0	32840	32679	
1761	0	32828	32775	
1762	0	32812	32774	
1763	0	32856	32696	
1764	0	32746	32748	
1765	0	32768	32724	
1766	0	32764	32810	
1767	0	32842	32732	
1768	0	32874	32842	
1769	0	32852	32826	
1770	0	32818	32666	
1771	0	32784	32775	
1772	0	32772	32829	
1773	0	32814	32760	
1774	0	32838	32782	
1775	0	32812	32806	
1776	0	32808	32812	
1777	0	32812	32775	
1778	0	32848	32686	
1779	0	32808	32674	
1780	0	32836	32728	
1781	0	32844	32744	
1782	0	32724	32806	
1783	0	32824	32828	
1784	0	32804	32822	
1785	0	32780	32824	
1786	0	32824	32764	
1787	0	32764	32775	
1788	0	32806	32848	
1789	0	32812	32804	
1790	0	32848	32708	
1791	0	32824	32758	
1792	0	32828	32706	
1793	0	32808	32822	
1794	0	32852	32788	
1795	0	32792	32756	
1796	0	32822	32810	
1797	0	32832	32792	
1798	0	32834	32712	
1799	0	32776	32662	
1800	0	32800	32775	
1801	0	32844	32690	
1802	0	32816	32798	
1803	0	32760	32764	
1804	0	32808	32775	
1805	0	32802	32848	
1806	0	32804	32764	
1807	0	32890	32639	
1808	0	32824	32688	
1809	0	32842	32796	
1810	0	32836	32929	
1811	0	32796	32879	
1812	0	32762	32792	
1813	0	32832	32852	
1814	0	32818	32800	
1815	0	32868	32812	
1816	0	32830	32772	
1817	0	32810	32714	
1818	0	32816	32680	
1819	0	32784	32660	
1820	0	32772	32674	
1821	0	32788	32724	
1822	0	32774	32718	
1823	0	32812	32751	
1824	0	32766	32870	
1825	0	32772	32774	
1826	0	32846	32836	
1827	0	32788	32790	
1828	0	32848	32832	
1829	0	32872	32775	
1830	0	32776	32790	
1831	0	32836	32752	
1832	0	32752	32825	
1833	0	32832	32790	
1834	0	32808	32704	
1835	0	32776	32804	
1836	0	32920	32711	
1837	0	32832	32756	
1838	0	32910	32762	
1839	0	32868	32838	
1840	0	32776	32810	
1841	0	32794	32810	
1842	0	32780	32748	
1843	0	32764	32692	
1844	0	32788	32878	
1845	0	32784	32774	
1846	0	32828	32876	
1847	0	32852	32704	
1848	0	32808	32711	
1849	0	32858	32726	
1850	0	32808	32712	
1851	0	32812	32688	
1852	0	32910	32862	
1853	0	32852	32822	
1854	0	32896	32782	
1855	0	32864	32788	
1856	0	32864	32808	
1857	0	32890	32824	
1858	0	32856	32802	
1859	0	32808	32738	
1860	0	32820	32732	
1861	0	32820	32706	
1862	0	32754	32744	
1863	0	32810	32830	
1864	0	32780	32756	
1865	0	32812	32790	
1866	0	32788	32838	
1867	0	32858	32764	
1868	0	32756	32802	
1869	0	32796	32812	
1870	0	32840	32738	
1871	0	32796	32684	
1872	0	32800	32689	
1873	0	32812	32712	
1874	0	32820	32794	
1875	0	32828	32820	
1876	0	32860	32782	
1877	0	32866	32838	
1878	0	32792	32822	
1879	0	32840	32624	
1880	0	32848	32698	
1881	0	32808	32828	
1882	0	32708	32848	
1883	0	32808	32824	
1884	0	32876	32798	
1885	0	32792	32810	
1886	0	32808	32757	
1887	0	32836	32722	
1888	0	32812	32665	
1889	0	32788	32736	
1890	0	32856	32704	
1891	0	32802	32742	
1892	0	32800	32868	
1893	0	32794	32792	
1894	0	32780	32750	
1895	0	32856	32840	
1896	0	32774	32784	
1897	0	32772	32700	
1898	0	32820	32729	
1899	0	32880	32631	
1900	0	32760	32708	
1901	0	32788	32710	
1902	0	32812	32810	
1903	0	32806	32708	
1904	0	32762	32708	
1905	0	32794	32822	
1906	0	32810	32816	
1907	0	32790	32786	
1908	0	32740	32878	
1909	0	32912	32792	
1910	0	32780	32810	
1911	0	32816	32802	
1912	0	32868	32754	
1913	0	32816	32848	
1914	0	32828	32804	
1915	0	32828	32775	
1916	0	32832	32800	
1917	0	32756	32703	
1918	0	32760	32724	
1919	0	32824	32714	
1920	0	32834	32664	
1921	0	32808	32834	
1922	0	32808	32718	
1923	0	32778	32758	
1924	0	32768	32730	
1925	0	32768	32784	
1926	0	32804	32842	
1927	0	32840	32775	
1928	0	32798	32754	
1929	0	32836	32808	
1930	0	32752	32828	
1931	0	32866	32838	
1932	0	32848	32775	
1933	0	32804	32732	
1934	0	32784	32796	
1935	0	32804	32800	
1936	0	32840	32834	
1937	0	32836	32792	
1938	0	32792	32798	
1939	0	32848	32860	
1940	0	32826	32772	
1941	0	32834	32862	
1942	0	32775	32756	
1943	0	32770	32784	
1944	0	32748	32804	
1945	0	32858	32786	
1946	0	32824	32712	
1947	0	32804	32780	
1948	0	32792	32751	
1949	0	32804	32764	
1950	0	32800	32688	
1951	0	32804	32824	
1952	0	32880	32766	
1953	0	32776	32807	
1954	0	32776	32788	
1955	0	32780	32854	
1956	0	32788	32670	
1957	0	32792	32808	
1958	0	32816	32826	
1959	0	32900	32800	
1960	0	32836	32826	
1961	0	32798	32788	
1962	0	32778	32761	
1963	0	32780	32775	
1964	0	32794	32775	
1965	0	32792	32772	
1966	0	32840	32762	
1967	0	32788	32854	
1968	0	32810	32882	
1969	0	32824	32844	
1970	0	32816	32752	
1971	0	32844	32746	
1972	0	32810	32818	
1973	0	32828	32805	
1974	0	32784	32766	
1975	0	32804	32788	
1976	0	32794	32828	
1977	0	32820	32738	
1978	0	32842	32762	
1979	0	32842	32804	
1980	0	32800	32804	
1981	0	32798	32732	
1982	0	32784	32792	
1983	0	32740	32728	
1984	0	32860	32692	
1985	0	32864	32711	
1986	0	32792	32743	
1987	0	32804	32705	
1988	0	32788	32710	
1989	0	32776	32702	
1990	0	32726	32708	
1991	0	32776	32822	
1992	0	32836	32690	
1993	0	32804	32614	
1994	0	32808	32726	
1995	0	32744	32712	
1996	0	32804	32734	
1997	0	32864	32762	
1998	0	32882	32772	
1999	0	32860	32660	
2000	0	32880	32670	
2001	0	32804	32732	
2002	0	32796	32750	
2003	0	32724	32756	
2004	0	32804	32806	
2005	0	32828	32710	
2006	0	32788	32836	
2007	0	32790	32748	
2008	0	32804	32716	
2009	0	32808	32759	
2010	0	32808	32768	
2011	0	32820	32660	
2012	0	32788	32655	
2013	0	32808	32719	
2014	0	32804	32775	
2015	0	32800	32838	
2016	0	32776	32842	
2017	0	32840	32852	
2018	0	32828	32852	
2019	0	32792	32742	
2020	0	32852	32822	
2021	0	32872	32896	
2022	0	32752	32780	
2023	0	32792	32834	
2024	0	32752	32764	
2025	0	32804	32838	
2026	0	32788	32812	
2027	0	32792	32894	
2028	0	32812	32782	
2029	0	32834	32796	
2030	0	32872	32748	
2031	0	32808	32684	
2032	0	32776	32794	
2033	0	32824	32762	
2034	0	32860	32740	
2035	0	32846	32716	
2036	0	32812	32862	
2037	0	32816	32798	
2038	0	32824	32860	
2039	0	32870	32800	
2040	0	32840	32774	
2041	0	32814	32896	
2042	0	32784	32714	
2043	0	32760	32799	
2044	0	32776	32844	
2045	0	32804	32800	
2046	0	32872	32682	
2047	0	32828	32714	
2048	0	32772	32646	
2049	0	32778	32792	
2050	0	32756	32711	
2051	0	32804	32818	
2052	0	32834	32804	
2053	0	32850	32748	
2054	0	32800	32704	
2055	0	32808	32788	
2056	0	32772	32672	
2057	0	32808	32710	
2058	0	32904	32692	
2059	0	32832	32764	
2060	0	32844	32660	
2061	0	32802	32758	
2062	0	32828	32730	
2063	0	32768	32730	
2064	0	32766	32688	
2065	0	32796	32772	
2066	0	32842	32804	
2067	0	32804	32796	
2068	0	32776	32748	
2069	0	32852	32902	
2070	0	32808	32858	
2071	0	32796	32732	
2072	0	32768	32792	
2073	0	32906	32886	
2074	0	32820	32798	
2075	0	32828	32710	
2076	0	32834	32770	
2077	0	32752	32700	
2078	0	32864	32774	
2079	0	32810	32866	
2080	0	32864	32734	
2081	0	32876	32742	
2082	0	32784	32734	
2083	0	32738	32806	
2084	0	32812	32744	
2085	0	32784	32680	
2086	0	32784	32692	
2087	0	32752	32720	
2088	0	32820	32722	
2089	0	32866	32756	
2090	0	32808	32768	
2091	0	32788	32724	
2092	0	32750	32724	
2093	0	32756	32674	
2094	0	32864	32732	
2095	0	32812	32762	
2096	0	32808	32860	
2097	0	32816	32860	
2098	0	32840	32806	
2099	0	32796	32882	
2100	0	32892	32811	
2101	0	32836	32775	
2102	0	32804	32768	
2103	0	32816	32812	
2104	0	32826	32740	
2105	0	32780	32756	
2106	0	32748	32796	
2107	0	32784	32775	
2108	0	32760	32775	
2109	0	32792	32807	
2110	0	32844	32708	
2111	0	32834	32760	
2112	0	32868	32762	
2113	0	32900	32756	
2114	0	32724	32710	
2115	0	32782	32735	
2116	0	32798	32664	
2117	0	32812	32704	
2118	0	32828	32707	
2119	0	32826	32660	
2120	0	32884	32660	
2121	0	32848	32758	
2122	0	32740	32806	
2123	0	32780	32730	
2124	0	32792	32810	
2125	0	32796	32798	
2126	0	32850	32775	
2127	0	32788	32804	
2128	0	32850	32819	
2129	0	32808	32783	
2130	0	32833	32754	
2131	0	32776	32705	
2132	0	32808	32692	
2133	0	32812	32744	
2134	0	32800	32738	
2135	0	32868	32766	
2136	0	32846	32756	
2137	0	32782	32743	
2138	0	32852	32748	
2139	0	32812	32740	
2140	0	32812	32694	
2141	0	32812	32740	
2142	0	32842	32688	
2143	0	32740	32662	
2144	0	32756	32796	
2145	0	32812	32716	
2146	0	32804	32644	
2147	0	32840	32728	
2148	0	32788	32752	
2149	0	32780	32710	
2150	0	32768	32748	
2151	0	32816	32622	
2152	0	32840	32750	
2153	0	32824	32678	
2154	0	32853	32718	
2155	0	32852	32704	
2156	0	32894	32740	
2157	0	32752	32736	
2158	0	32792	32750	
2159	0	32832	32832	
2160	0	32886	32724	
2161	0	32784	32836	
2162	0	32740	32764	
2163	0	32808	32678	
2164	0	32800	32708	
2165	0	32822	32708	
2166	0	32832	32748	
2167	0	32792	32746	
2168	0	32858	32672	
2169	0	32836	32708	
2170	0	32820	32694	
2171	0	32840	32634	
2172	0	32796	32801	
2173	0	32844	32680	
2174	0	32840	32788	
2175	0	32840	32844	
2176	0	32760	32788	
2177	0	32814	32740	
2178	0	32832	32708	
2179	0	32816	32728	
2180	0	32820	32775	
2181	0	32804	32832	
2182	0	32824	32807	
2183	0	32816	32848	
2184	0	32776	32775	
2185	0	32800	32746	
2186	0	32804	32788	
2187	0	32852	32820	
2188	0	32788	32812	
2189	0	32772	32694	
2190	0	32776	32808	
2191	0	32832	32820	
2192	0	32834	32774	
2193	0	32824	32838	
2194	0	32808	32880	
2195	0	32816	32820	
2196	0	32844	32772	
2197	0	32766	32750	
2198	0	32804	32798	
2199	0	32800	32716	
2200	0	32842	32692	
2201	0	32748	32792	
2202	0	32828	32750	
2203	0	32820	32740	
2204	0	32828	32871	
2205	0	32856	32744	
2206	0	32836	32836	
2207	0	32824	32743	
2208	0	32816	32860	
2209	0	32820	32862	
2210	0	32812	32818	
2211	0	32740	32814	
2212	0	32796	32868	
2213	0	32792	32870	
2214	0	32772	32775	
2215	0	32824	32756	
2216	0	32820	32800	
2217	0	32816	32796	
2218	0	32816	32775	
2219	0	32856	32804	
2220	0	32800	32732	
2221	0	32768	32712	
2222	0	32788	32716	
2223	0	32768	32660	
2224	0	32720	32678	
2225	0	32738	32746	
2226	0	32852	32698	
2227	0	32882	32736	
2228	0	32864	32752	
2229	0	32868	32848	
2230	0	32746	32824	
2231	0	32820	32792	
2232	0	32840	32810	
2233	0	32816	32922	
2234	0	32882	32804	
2235	0	32812	32712	
2236	0	32808	32775	
2237	0	32768	32828	
2238	0	32768	32816	
2239	0	32840	32724	
2240	0	32796	32712	
2241	0	32904	32760	
2242	0	32812	32744	
2243	0	32710	32764	
2244	0	32788	32788	
2245	0	32816	32775	
2246	0	32744	32730	
2247	0	32852	32830	
2248	0	32816	32790	
2249	0	32876	32836	
2250	0	32792	32839	
2251	0	32802	32724	
2252	0	32832	32696	
2253	0	32842	32740	
2254	0	32794	32814	
2255	0	32820	32754	
2256	0	32740	32743	
2257	0	32840	32676	
2258	0	32860	32774	
2259	0	32838	32746	
2260	0	32810	32696	
2261	0	32752	32724	
2262	0	32760	32842	
2263	0	32768	32687	
2264	0	32828	32830	
2265	0	32832	32844	
2266	0	32806	32718	
2267	0	32744	32792	
2268	0	32780	32740	
2269	0	32790	32870	
2270	0	32816	32874	
2271	0	32838	32782	
2272	0	32862	32766	
2273	0	32896	32682	
2274	0	32828	32764	
2275	0	32800	32730	
2276	0	32864	32775	
2277	0	32846	32744	
2278	0	32800	32794	
2279	0	32834	32788	
2280	0	32792	32826	
2281	0	32832	32710	
2282	0	32776	32666	
2283	0	32780	32810	
2284	0	32780	32798	
2285	0	32788	32836	
2286	0	32802	32744	
2287	0	32826	32872	
2288	0	32788	32792	
2289	0	32822	32796	
2290	0	32844	32788	
2291	0	32820	32775	
2292	0	32788	32702	
2293	0	32840	32804	
2294	0	32800	32844	
2295	0	32800	32746	
2296	0	32790	32775	
2297	0	32810	32710	
2298	0	32866	32824	
2299	0	32836	32774	
2300	0	32814	32746	
2301	0	32830	32746	
2302	0	32846	32730	
2303	0	32816	32692	
2304	0	32796	32788	
2305	0	32836	32704	
2306	0	32770	32732	
2307	0	32814	32728	
2308	0	32798	32854	
2309	0	32764	32695	
2310	0	32756	32828	
2311	0	32832	32775	
2312	0	32832	32874	
2313	0	32840	32740	
2314	0	32784	32800	
2315	0	32788	32840	
2316	0	32792	32740	
2317	0	32820	32760	
2318	0	32862	32750	
2319	0	32834	32735	
2320	0	32872	32726	
2321	0	32826	32758	
2322	0	32760	32830	
2323	0	32748	32788	
2324	0	32832	32846	
2325	0	32748	32834	
2326	0	32728	32720	
2327	0	32734	32786	
2328	0	32784	32674	
2329	0	32736	32790	
2330	0	32860	32804	
2331	0	32768	32760	
2332	0	32810	32732	
2333	0	32812	32838	
2334	0	32884	32852	
2335	0	32860	32836	
2336	0	32802	32782	
2337	0	32780	32772	
2338	0	32868	32756	
2339	0	32834	32732	
2340	0	32804	32778	
2341	0	32764	32774	
2342	0	32822	32726	
2343	0	32772	32792	
2344	0	32732	32808	
2345	0	32810	32722	
2346	0	32826	32786	
2347	0	32776	32746	
2348	0	32768	32830	
2349	0	32762	32704	
2350	0	32830	32745	
2351	0	32816	32756	
2352	0	32853	32785	
2353	0	32776	32775	
2354	0	32834	32848	
2355	0	32800	32756	
2356	0	32776	32807	
2357	0	32800	32704	
2358	0	32842	32792	
2359	0	32838	32788	
2360	0	32820	32814	
2361	0	32816	32772	
2362	0	32808	32742	
2363	0	32740	32652	
2364	0	32784	32762	
2365	0	32736	32689	
2366	0	32860	32724	
2367	0	32856	32680	
2368	0	32856	32788	
2369	0	32808	32750	
2370	0	32832	32812	
2371	0	32836	32688	
2372	0	32856	32766	
2373	0	32844	32704	
2374	0	32754	32764	
2375	0	32748	32775	
2376	0	32786	32764	
2377	0	32785	32672	
2378	0	32770	32750	
2379	0	32854	32756	
2380	0	32841	32775	
2381	0	32814	32804	
2382	0	32832	32646	
2383	0	32824	32792	
2384	0	32792	32884	
2385	0	32816	32884	
2386	0	32814	32724	
2387	0	32778	32844	
2388	0	32782	32702	
2389	0	32780	32764	
2390	0	32864	32702	
2391	0	32848	32786	
2392	0	32816	32750	
2393	0	32784	32860	
2394	0	32890	32816	
2395	0	32824	32836	
2396	0	32784	32840	
2397	0	32836	32711	
2398	0	32752	32855	
2399	0	32864	32770	
2400	0	32864	32818	
2401	0	32818	32710	
2402	0	32848	32768	
2403	0	32836	32762	
2404	0	32804	32788	
2405	0	32820	32751	
2406	0	32828	32725	
2407	0	32788	32738	
2408	0	32786	32708	
2409	0	32824	32836	
2410	0	32760	32810	
2411	0	32820	32716	
2412	0	32884	32790	
2413	0	32838	32664	
2414	0	32884	32858	
2415	0	32864	32768	
2416	0	32744	32854	
2417	0	32796	32696	
2418	0	32826	32810	
2419	0	32794	32718	
2420	0	32800	32780	
2421	0	32782	32854	
2422	0	32756	32744	
2423	0	32744	32820	
2424	0	32816	32814	
2425	0	32818	32766	
2426	0	32824	32820	
2427	0	32808	32796	
2428	0	32792	32772	
2429	0	32828	32788	
2430	0	32752	32820	
2431	0	32828	32860	
2432	0	32800	32754	
2433	0	32808	32812	
2434	0	32836	32792	
2435	0	32852	32837	
2436	0	32736	32733	
2437	0	32812	32766	
2438	0	32866	32810	
2439	0	32836	32775	
2440	0	32850	32766	
2441	0	32844	32820	
2442	0	32768	32772	
2443	0	32790	32796	
2444	0	32796	32766	
2445	0	32762	32820	
2446	0	32788	32734	
2447	0	32808	32684	
2448	0	32800	32769	
2449	0	32802	32780	
2450	0	32856	32702	
2451	0	32792	32616	
2452	0	32816	32734	
2453	0	32768	32767	
2454	0	32730	32742	
2455	0	32756	32626	
2456	0	32832	32684	
2457	0	32844	32836	
2458	0	32842	32772	
2459	0	32886	32788	
2460	0	32808	32700	
2461	0	32816	32820	
2462	0	32784	32684	
2463	0	32768	32700	
2464	0	32800	32647	
2465	0	32868	32748	
2466	0	32794	32718	
2467	0	32828	32766	
2468	0	32844	32788	
2469	0	32862	32794	
2470	0	32796	32816	
2471	0	32720	32740	
2472	0	32760	32736	
2473	0	32822	32728	
2474	0	32778	32775	
2475	0	32800	32662	
2476	0	32816	32782	
2477	0	32884	32686	
2478	0	32840	32813	
2479	0	32808	32800	
2480	0	32884	32818	
2481	0	32804	32730	
2482	0	32826	32806	
2483	0	32748	32695	
2484	0	32840	32814	
2485	0	32764	32642	
2486	0	32738	32793	
2487	0	32800	32718	
2488	0	32852	32834	
2489	0	32846	32724	
2490	0	32796	32796	
2491	0	32788	32782	
2492	0	32746	32802	
2493	0	32752	32768	
2494	0	32848	32838	
2495	0	32854	32830	
2496	0	32844	32782	
2497	0	32820	32820	
2498	0	32838	32850	
2499	0	32828	32764	
2500	0	32842	32740	
2501	0	32880	32772	
2502	0	32744	32774	
2503	0	32756	32798	
2504	0	32896	32852	
2505	0	32848	32756	
2506	0	32824	32714	
2507	0	32840	32775	
2508	0	32762	32772	
2509	0	32760	32786	
2510	0	32762	32838	
2511	0	32792	32648	
2512	0	32820	32820	
2513	0	32820	32794	
2514	0	32828	32828	
2515	0	32836	32806	
2516	0	32744	32732	
2517	0	32836	32839	
2518	0	32756	32722	
2519	0	32804	32752	
2520	0	32884	32692	
2521	0	32844	32764	
2522	0	32768	32696	
2523	0	32828	32756	
2524	0	32756	32640	
2525	0	32856	32816	
2526	0	32850	32646	
2527	0	32792	32774	
2528	0	32856	32712	
2529	0	32836	32868	
2530	0	32812	32734	
2531	0	32740	32744	
2532	0	32788	32818	
2533	0	32796	32775	
2534	0	32812	32810	
2535	0	32768	32730	
2536	0	32776	32810	
2537	0	32868	32736	
2538	0	32892	32708	
2539	0	32864	32664	
2540	0	32804	32740	
2541	0	32858	32752	
2542	0	32776	32732	
2543	0	32730	32796	
2544	0	32820	32692	
2545	0	32816	32748	
2546	0	32768	32684	
2547	0	32844	32862	
2548	0	32838	32752	
2549	0	32824	32808	
2550	0	32842	32740	
2551	0	32820	32746	
2552	0	32796	32712	
2553	0	32804	32672	
2554	0	32860	32820	
2555	0	32780	32686	
2556	0	32764	32786	
2557	0	32812	32775	
2558	0	32802	32852	
2559	0	32812	32716	
2560	0	32816	32750	
2561	0	32836	32855	
2562	0	32796	32850	
2563	0	32784	32812	
2564	0	32800	32764	
2565	0	32816	32724	
2566	0	32798	32788	
2567	0	32872	32868	
2568	0	32708	32892	
2569	0	32802	32834	
2570	0	32866	32724	
2571	0	32832	32752	
2572	0	32780	32704	
2573	0	32828	32764	
2574	0	32828	32710	
2575	0	32844	32775	
2576	0	32774	32826	
2577	0	32760	32726	
2578	0	32816	32784	
2579	0	32784	32864	
2580	0	32792	32754	
2581	0	32852	32736	
2582	0	32736	32764	
2583	0	32784	32758	
2584	0	32794	32770	
2585	0	32840	32688	
2586	0	32800	32802	
2587	0	32792	32710	
2588	0	32896	32726	
2589	0	32852	32692	
2590	0	32786	32814	
2591	0	32804	32768	
2592	0	32860	32824	
2593	0	32836	32808	
2594	0	32817	32855	
2595	0	32864	32902	
2596	0	32856	32788	
2597	0	32902	32782	
2598	0	32800	32852	
2599	0	32776	32716	
2600	0	32828	32760	
2601	0	32824	32686	
2602	0	32822	32808	
2603	0	32796	32821	
2604	0	32768	32892	
2605	0	32840	32756	
2606	0	32788	32752	
2607	0	32860	32732	
2608	0	32800	32898	
2609	0	32772	32724	
2610	0	32800	32806	
2611	0	32760	32650	
2612	0	32716	32728	
2613	0	32748	32674	
2614	0	32728	32749	
2615	0	32736	32704	
2616	0	32728	32639	
2617	0	32644	32660	
2618	0	32774	32658	
2619	0	32752	32644	
2620	0	32728	32708	
2621	0	32716	32702	
2622	0	32672	32775	
2623	0	32684	32724	
2624	0	32676	32710	
2625	0	32648	32724	
2626	0	32744	32666	
2627	0	32820	32744	
2628	0	32832	32774	
2629	0	32860	32775	
2630	0	32824	32775	
2631	0	32820	32834	
2632	0	32840	32844	
2633	0	32810	32789	
2634	0	32878	32775	
2635	0	32844	32800	
2636	0	32860	32730	
2637	0	32836	32647	
2638	0	32904	32852	
2639	0	32968	32942	
2640	0	33036	32927	
2641	0	33054	32980	
2642	0	33104	32994	
2643	0	33072	32888	
2644	0	33044	32960	
2645	0	33044	32848	
2646	0	32968	32962	
2647	0	32994	32926	
2648	0	32980	32868	
2649	0	32948	32960	
2650	0	32962	32839	
2651	0	32864	32836	
2652	0	32844	32702	
2653	0	32768	32807	
2654	0	32712	32626	
2655	0	32760	32748	
2656	0	32684	32760	
2657	0	32652	32580	
2658	0	32748	32660	
2659	0	32784	32600	
2660	0	32804	32688	
2661	0	32692	32680	
2662	0	32690	32576	
2663	0	32698	32708	
2664	0	32752	32656	
2665	0	32754	32764	
2666	0	32698	32860	
2667	0	32756	32748	
2668	0	32800	32806	
2669	0	32792	32812	
2670	0	32774	32750	
2671	0	32800	32758	
2672	0	32780	32863	
2673	0	32796	32798	
2674	0	32836	32708	
2675	0	32810	32772	
2676	0	32740	32716	
2677	0	32846	32816	
2678	0	32812	32816	
2679	0	32800	32769	
2680	0	32824	32806	
2681	0	32794	32769	
2682	0	32752	32801	
2683	0	32764	32740	
2684	0	32800	32734	
2685	0	32784	32729	
2686	0	32784	32764	
2687	0	32852	32692	
2688	0	32800	32775	
2689	0	32808	32664	
2690	0	32804	32800	
2691	0	32756	32612	
2692	0	32792	32820	
2693	0	32784	32764	
2694	0	32834	32871	
2695	0	32828	32817	
2696	0	32832	32769	
2697	0	32800	32814	
2698	0	32842	32612	
2699	0	32840	32742	
2700	0	32774	32775	
2701	0	32748	32728	
2702	0	32800	32801	
2703	0	32840	32698	
2704	0	32810	32808	
2705	0	32788	32816	
2706	0	32796	32694	
2707	0	32762	32770	
2708	0	32778	32772	
2709	0	32760	32750	
2710	0	32812	32814	
2711	0	32768	32720	
2712	0	32866	32791	
2713	0	32788	32878	
2714	0	32812	32742	
2715	0	32776	32658	
2716	0	32790	32640	
2717	0	32852	32775	
2718	0	32822	32688	
2719	0	32828	32716	
2720	0	32788	32708	
2721	0	32852	32754	
2722	0	32748	32670	
2723	0	32804	32790	
2724	0	32752	32704	
2725	0	32860	32754	
2726	0	32834	32676	
2727	0	32788	32880	
2728	0	32786	32888	
2729	0	32796	32822	
2730	0	32836	32762	
2731	0	32810	32696	
2732	0	32842	32788	
2733	0	32828	32752	
2734	0	32768	32817	
2735	0	32798	32840	
2736	0	32810	32738	
2737	0	32804	32782	
2738	0	32864	32682	
2739	0	32778	32772	
2740	0	32788	32680	
2741	0	32820	32832	
2742	0	32816	32732	
2743	0	32790	32775	
2744	0	32752	32644	
2745	0	32746	32760	
2746	0	32732	32688	
2747	0	32846	32775	
2748	0	32812	32736	
2749	0	32802	32808	
2750	0	32836	32756	
2751	0	32808	32775	
2752	0	32760	32764	
2753	0	32900	32820	
2754	0	32780	32732	
2755	0	32828	32756	
2756	0	32804	32775	
2757	0	32816	32790	
2758	0	32848	32764	
2759	0	32832	32732	
2760	0	32832	32668	
2761	0	32838	32820	
2762	0	32768	32687	
2763	0	32772	32748	
2764	0	32722	32762	
2765	0	32814	32838	
2766	0	32824	32706	
2767	0	32792	32844	
2768	0	32806	32800	
2769	0	32764	32786	
2770	0	32828	32852	
2771	0	32856	32744	
2772	0	32834	32828	
2773	0	32880	32782	
2774	0	32818	32760	
2775	0	32852	32740	
2776	0	32784	32775	
2777	0	32844	32644	
2778	0	32806	32752	
2779	0	32850	32828	
2780	0	32820	32704	
2781	0	32788	32775	
2782	0	32762	32748	
2783	0	32748	32736	
2784	0	32796	32698	
2785	0	32820	32716	
2786	0	32824	32798	
2787	0	32816	32786	
2788	0	32812	32710	
2789	0	32784	32716	
2790	0	32832	32692	
2791	0	32814	32848	
2792	0	32828	32798	
2793	0	32780	32775	
2794	0	32848	32748	
2795	0	32826	32770	
2796	0	32866	32711	
2797	0	32744	32806	
2798	0	32846	32752	
2799	0	32804	32788	
2800	0	32824	32654	
2801	0	32860	32816	
2802	0	32780	32860	
2803	0	32796	32820	
2804	0	32832	32804	
2805	0	32848	32726	
2806	0	32808	32876	
2807	0	32808	32764	
2808	0	32796	32700	
2809	0	32744	32744	
2810	0	32750	32758	
2811	0	32772	32749	
2812	0	32820	32740	
2813	0	32836	32752	
2814	0	32816	32820	
2815	0	32836	32692	
2816	0	32830	32743	
2817	0	32850	32770	
2818	0	32812	32804	
2819	0	32820	32724	
2820	0	32836	32832	
2821	0	32816	32836	
2822	0	32776	32750	
2823	0	32752	32846	
2824	0	32780	32750	
2825	0	32800	32740	
2826	0	32812	32888	
2827	0	32810	32720	
2828	0	32744	32798	
2829	0	32828	32756	
2830	0	32800	32758	
2831	0	32808	32696	
2832	0	32830	32766	
2833	0	32752	32724	
2834	0	32864	32775	
2835	0	32788	32726	
2836	0	32796	32828	
2837	0	32816	32648	
2838	0	32848	32812	
2839	0	32848	32630	
2840	0	32852	32771	
2841	0	32780	32676	
2842	0	32816	32839	
2843	0	32764	32768	
2844	0	32836	32814	
2845	0	32828	32792	
2846	0	32784	32805	
2847	0	32764	32775	
2848	0	32784	32775	
2849	0	32834	32812	
2850	0	32820	32728	
2851	0	32850	32808	
2852	0	32852	32756	
2853	0	32792	32716	
2854	0	32852	32866	
2855	0	32778	32766	
2856	0	32840	32800	
2857	0	32812	32712	
2858	0	32812	32722	
2859	0	32852	32632	
2860	0	32824	32796	
2861	0	32804	32724	
2862	0	32792	32775	
2863	0	32752	32732	
2864	0	32788	32756	
2865	0	32804	32738	
2866	0	32792	32718	
2867	0	32790	32660	
2868	0	32826	32800	
2869	0	32870	32698	
2870	0	32764	32852	
2871	0	32890	32826	
2872	0	32840	32858	
2873	0	32800	32740	
2874	0	32868	32864	
2875	0	32784	32748	
2876	0	32784	32828	
2877	0	32820	32752	
2878	0	32830	32812	
2879	0	32862	32868	
2880	0	32906	32768	
2881	0	32820	32768	
2882	0	32776	32724	
2883	0	32736	32752	
2884	0	32788	32832	
2885	0	32800	32794	
2886	0	32796	32742	
2887	0	32858	32640	
2888	0	32756	32780	
2889	0	32816	32726	
2890	0	32840	32775	
2891	0	32872	32676	
2892	0	32862	32748	
2893	0	32804	32868	
2894	0	32728	32858	
2895	0	32774	32844	
2896	0	32846	32870	
2897	0	32913	32726	
2898	0	32736	32812	
2899	0	32824	32800	
2900	0	32868	32711	
2901	0	32808	32792	
2902	0	32806	32708	
2903	0	32776	32792	
2904	0	32828	32710	
2905	0	32820	32834	
2906	0	32804	32812	
2907	0	32836	32838	
2908	0	32732	32716	
2909	0	32796	32822	
2910	0	32860	32732	
2911	0	32756	32774	
2912	0	32768	32711	
2913	0	32812	32750	
2914	0	32764	32772	
2915	0	32844	32806	
2916	0	32794	32668	
2917	0	32834	32796	
2918	0	32776	32740	
2919	0	32844	32770	
2920	0	32800	32790	
2921	0	32825	32728	
2922	0	32820	32774	
2923	0	32820	32724	
2924	0	32776	32734	
2925	0	32776	32686	
2926	0	32784	32732	
2927	0	32868	32842	
2928	0	32828	32750	
2929	0	32760	32786	
2930	0	32740	32846	
2931	0	32852	32774	
2932	0	32788	32712	
2933	0	32824	32780	
2934	0	32806	32708	
2935	0	32762	32864	
2936	0	32764	32636	
2937	0	32798	32774	
2938	0	32828	32750	
2939	0	32894	32700	
2940	0	32812	32684	
2941	0	32812	32728	
2942	0	32760	32628	
2943	0	32864	32792	
2944	0	32796	32700	
2945	0	32796	32856	
2946	0	32808	32648	
2947	0	32804	32796	
2948	0	32828	32732	
2949	0	32788	32785	
2950	0	32756	32660	
2951	0	32828	32833	
2952	0	32850	32724	
2953	0	32820	32832	
2954	0	32808	32664	
2955	0	32824	32700	
2956	0	32828	32766	
2957	0	32782	32866	
2958	0	32832	32714	
2959	0	32864	32736	
2960	0	32886	32668	
2961	0	32852	32764	
2962	0	32826	32678	
2963	0	32762	32798	
2964	0	32748	32664	
2965	0	32780	32846	
2966	0	32878	32806	
2967	0	32744	32804	
2968	0	32798	32800	
2969	0	32804	32828	
2970	0	32788	32700	
2971	0	32868	32788	
2972	0	32838	32702	
2973	0	32792	32842	
2974	0	32796	32734	
2975	0	32840	32808	
2976	0	32820	32820	
2977	0	32740	32872	
2978	0	32802	32722	
2979	0	32852	32728	
2980	0	32834	32730	
2981	0	32764	32774	
2982	0	32760	32775	
2983	0	32740	32868	
2984	0	32834	32734	
2985	0	32872	32688	
2986	0	32848	32664	
2987	0	32824	32738	
2988	0	32804	32812	
2989	0	32836	32816	
2990	0	32836	32856	
2991	0	32844	32814	
2992	0	32816	32800	
2993	0	32786	32788	
2994	0	32826	32808	
2995	0	32838	32768	
2996	0	32772	32824	
2997	0	32824	32812	
2998	0	32816	32775	
2999	0	32842	32800	
3000	0	32806	32716	
3001	0	32848	32712	
3002	0	32828	32786	
3003	0	32772	32857	
3004	0	32710	32764	
3005	0	32804	32828	
3006	0	32761	32745	
3007	0	32790	32818	
3008	0	32792	32826	
3009	0	32808	32752	
3010	0	32862	32775	
3011	0	32876	32804	
3012	0	32898	32794	
3013	0	32768	32792	
3014	0	32780	32870	
3015	0	32820	32792	
3016	0	32796	32660	
3017	0	32788	32668	
3018	0	32864	32708	
3019	0	32796	32690	
3020	0	32856	32692	
3021	0	32780	32775	
3022	0	32836	32790	
3023	0	32800	32796	
3024	0	32812	32850	
3025	0	32801	32778	
3026	0	32734	32746	
3027	0	32750	32804	
3028	0	32832	32807	
3029	0	32774	32766	
3030	0	32794	32824	
3031	0	32780	32658	
3032	0	32876	32775	
3033	0	32826	32756	
3034	0	32800	32860	
3035	0	32796	32756	
3036	0	32896	32800	
3037	0	32820	32734	
3038	0	32796	32753	
3039	0	32826	32698	
3040	0	32810	32752	
3041	0	32854	32780	
3042	0	32804	32800	
3043	0	32774	32720	
3044	0	32704	32764	
3045	0	32788	32764	
3046	0	32824	32790	
3047	0	32848	32772	
3048	0	32832	32728	
3049	0	32788	32724	
3050	0	32836	32774	
3051	0	32840	32775	
3052	0	32760	32860	
3053	0	32768	32732	
3054	0	32794	32820	
3055	0	32816	32756	
3056	0	32786	32828	
3057	0	32808	32647	
3058	0	32776	32718	
3059	0	32818	32650	
3060	0	32860	32708	
3061	0	32864	32752	
3062	0	32808	32784	
3063	0	32756	32724	
3064	0	32800	32846	
3065	0	32796	32748	
3066	0	32778	32721	
3067	0	32796	32726	
3068	0	32784	32724	
3069	0	32840	32756	
3070	0	32828	32864	
3071	0	32810	32740	
3072	0	32806	32742	
3073	0	32832	32700	
3074	0	32810	32804	
3075	0	32876	32783	
3076	0	32810	32788	
3077	0	32856	32725	
3078	0	32780	32878	
3079	0	32868	32682	
3080	0	32854	32860	
3081	0	32840	32756	
3082	0	32756	32708	
3083	0	32792	32789	
3084	0	32794	32668	
3085	0	32822	32775	
3086	0	32828	32640	
3087	0	32854	32774	
3088	0	32846	32762	
3089	0	32766	32732	
3090	0	32848	32768	
3091	0	32766	32775	
3092	0	32792	32762	
3093	0	32800	32710	
3094	0	32856	32748	
3095	0	32916	32690	
3096	0	32788	32822	
3097	0	32842	32662	
3098	0	32798	32781	
3099	0	32770	32748	
3100	0	32812	32774	
3101	0	32814	32652	
3102	0	32788	32920	
3103	0	32776	32714	
3104	0	32764	32855	
3105	0	32842	32824	
3106	0	32756	32856	
3107	0	32848	32888	
3108	0	32780	32788	
3109	0	32818	32804	
3110	0	32842	32800	
3111	0	32872	32744	
3112	0	32904	32760	
3113	0	32844	32830	
3114	0	32830	32660	
3115	0	32748	32792	
3116	0	32760	32672	
3117	0	32826	32725	
3118	0	32794	32740	
3119	0	32820	32796	
3120	0	32836	32743	
3121	0	32828	32752	
3122	0	32818	32700	
3123	0	32830	32764	
3124	0	32798	32756	
3125	0	32762	32756	
3126	0	32780	32706	
3127	0	32804	32854	
3128	0	32790	32774	
3129	0	32804	32758	
3130	0	32814	32832	
3131	0	32724	32746	
3132	0	32850	32806	
3133	0	32814	32902	
3134	0	32820	32804	
3135	0	32846	32848	
3136	0	32760	32732	
3137	0	32802	32884	
3138	0	32830	32798	
3139	0	32884	32766	
3140	0	32826	32775	
3141	0	32840	32814	
3142	0	32836	32774	
3143	0	32828	32794	
3144	0	32744	32792	
3145	0	32808	32844	
3146	0	32768	32784	
3147	0	32852	32784	
3148	0	32826	32860	
3149	0	32832	32802	
3150	0	32788	32817	
3151	0	32752	32806	
3152	0	32840	32844	
3153	0	32812	32722	
3154	0	32864	32864	
3155	0	32862	32756	
3156	0	32832	32764	
3157	0	32792	32808	
3158	0	32768	32816	
3159	0	32804	32710	
3160	0	32820	32796	
3161	0	32844	32684	
3162	0	32808	32794	
3163	0	32716	32694	
3164	0	32760	32818	
3165	0	32752	32772	
3166	0	32792	32800	
3167	0	32890	32722	
3168	0	32868	32772	
3169	0	32810	32724	
3170	0	32844	32848	
3171	0	32776	32774	
3172	0	32808	32772	
3173	0	32828	32792	
3174	0	32840	32790	
3175	0	32800	32762	
3176	0	32788	32708	
3177	0	32888	32746	
3178	0	32836	32642	
3179	0	32832	32774	
3180	0	32828	32740	
3181	0	32846	32844	
3182	0	32788	32764	
3183	0	32844	32868	
3184	0	32782	32838	
3185	0	32744	32705	
3186	0	32768	32768	
3187	0	32772	32732	
3188	0	32780	32836	
3189	0	32836	32754	
3190	0	32848	32768	
3191	0	32812	32764	
3192	0	32790	32838	
3193	0	32844	32738	
3194	0	32792	32810	
3195	0	32770	32736	
3196	0	32832	32792	
3197	0	32848	32676	
3198	0	32792	32828	
3199	0	32824	32775	
3200	0	32768	32772	
3201	0	32798	32754	
3202	0	32792	32766	
3203	0	32824	32834	
3204	0	32850	32680	
3205	0	32848	32848	
3206	0	32816	32656	
3207	0	32792	32820	
3208	0	32820	32774	
3209	0	32844	32790	
3210	0	32760	32842	
3211	0	32810	32828	
3212	0	32770	32852	
3213	0	32900	32696	
3214	0	32896	32764	
3215	0	32776	32720	
3216	0	32758	32800	
3217	0	32868	32770	
3218	0	32872	32734	
3219	0	32816	32752	
3220	0	32826	32680	
3221	0	32784	32751	
3222	0	32816	32798	
3223	0	32808	32756	
3224	0	32788	32802	
3225	0	32824	32698	
3226	0	32816	32904	
3227	0	32788	32820	
3228	0	32784	32814	
3229	0	32826	32668	
3230	0	32884	32812	
3231	0	32822	32656	
3232	0	32804	32804	
3233	0	32768	32761	
3234	0	32806	32840	
3235	0	32772	32820	
3236	0	32778	32802	
3237	0	32788	32830	
3238	0	32816	32712	
3239	0	32816	32762	
3240	0	32847	32696	
3241	0	32884	32780	
3242	0	32868	32766	
3243	0	32808	32816	
3244	0	32684	32775	
3245	0	32788	32790	
3246	0	32786	32804	
3247	0	32766	32799	
3248	0	32760	32820	
3249	0	32840	32834	
3250	0	32824	32740	
3251	0	32898	32744	
3252	0	32824	32836	
3253	0	32754	32854	
3254	0	32840	32784	
3255	0	32836	32828	
3256	0	32830	32836	
3257	0	32874	32838	
3258	0	32864	32788	
3259	0	32816	32739	
3260	0	32836	32810	
3261	0	32854	32744	
3262	0	32844	32784	
3263	0	32720	32707	
3264	0	32818	32742	
3265	0	32762	32724	
3266	0	32788	32710	
3267	0	32860	32746	
3268	0	32812	32736	
3269	0	32784	32775	
3270	0	32800	32872	
3271	0	32838	32784	
3272	0	32856	32816	
3273	0	32852	32832	
3274	0	32828	32695	
3275	0	32792	32804	
3276	0	32842	32708	
3277	0	32796	32871	
3278	0	32772	32724	
3279	0	32776	32732	
3280	0	32834	32712	
3281	0	32838	32775	
3282	0	32836	32752	
3283	0	32778	32824	
3284	0	32784	32760	
3285	0	32822	32820	
3286	0	32800	32762	
3287	0	32792	32812	
3288	0	32892	32832	
3289	0	32840	32758	
3290	0	32824	32774	
3291	0	32853	32708	
3292	0	32796	32806	
3293	0	32820	32748	
3294	0	32868	32828	
3295	0	32812	32774	
3296	0	32808	32896	
3297	0	32778	32768	
3298	0	32772	32788	
3299	0	32804	32706	
3300	0	32824	32823	
3301	0	32818	32794	
3302	0	32838	32820	
3303	0	32780	32860	
3304	0	32810	32678	
3305	0	32736	32770	
3306	0	32780	32679	
3307	0	32792	32780	
3308	0	32820	32764	
3309	0	32852	32775	
3310	0	32832	32738	
3311	0	32800	32794	
3312	0	32840	32724	
3313	0	32824	32736	
3314	0	32816	32728	
3315	0	32856	32784	
3316	0	32846	32743	
3317	0	32780	32826	
3318	0	32852	32708	
3319	0	32866	32760	
3320	0	32888	32772	
3321	0	32822	32796	
3322	0	32836	32744	
3323	0	32816	32824	
3324	0	32810	32775	
3325	0	32702	32808	
3326	0	32764	32902	
3327	0	32848	32676	
3328	0	32784	32902	
3329	0	32792	32792	
3330	0	32832	32738	
3331	0	32790	32858	
3332	0	32860	32848	
3333	0	32832	32846	
3334	0	32728	32775	
3335	0	32789	32772	
3336	0	32812	32700	
3337	0	32762	32812	
3338	0	32840	32720	
3339	0	32876	32775	
3340	0	32828	32772	
3341	0	32836	32780	
3342	0	32832	32807	
3343	0	32756	32782	
3344	0	32824	32788	
3345	0	32862	32860	
3346	0	32824	32808	
3347	0	32840	32784	
3348	0	32790	32862	
3349	0	32804	32716	
3350	0	32796	32784	
3351	0	32774	32704	
3352	0	32870	32836	
3353	0	32824	32740	
3354	0	32852	32824	
3355	0	32806	32850	
3356	0	32782	32774	
3357	0	32796	32810	
3358	0	32802	32796	
3359	0	32850	32784	
3360	0	32846	32720	
3361	0	32824	32838	
3362	0	32784	32730	
3363	0	32808	32788	
3364	0	32828	32836	
3365	0	32826	32871	
3366	0	32756	32864	
3367	0	32782	32692	
3368	0	32812	32766	
3369	0	32824	32736	
3370	0	32764	32799	
3371	0	32804	32775	
3372	0	32824	32828	
3373	0	32832	32856	
3374	0	32788	32746	
3375	0	32814	32816	
3376	0	32800	32720	
3377	0	32788	32740	
3378	0	32824	32602	
3379	0	32822	32774	
3380	0	32850	32688	
3381	0	32836	32808	
3382	0	32818	32710	
3383	0	32736	32766	
3384	0	32752	32704	
3385	0	32770	32800	
3386	0	32768	32767	
3387	0	32838	32756	
3388	0	32804	32834	
3389	0	32836	32698	
3390	0	32800	32790	
3391	0	32828	32672	
3392	0	32822	32752	
3393	0	32834	32796	
3394	0	32796	32828	
3395	0	32804	32828	
3396	0	32848	32820	
3397	0	32806	32810	
3398	0	32872	32742	
3399	0	32804	32756	
3400	0	32838	32704	
3401	0	32840	32852	
3402	0	32804	32830	
3403	0	32770	32810	
3404	0	32810	32828	
3405	0	32792	32710	
3406	0	32776	32764	
3407	0	32792	32712	
3408	0	32804	32730	
3409	0	32812	32787	
3410	0	32810	32818	
3411	0	32856	32748	
3412	0	32866	32775	
3413	0	32904	32678	
3414	0	32752	32848	
3415	0	32874	32740	
3416	0	32772	32718	
3417	0	32766	32788	
3418	0	32841	32722	
3419	0	32848	32722	
3420	0	32736	32848	
3421	0	32824	32716	
3422	0	32820	32792	
3423	0	32814	32644	
3424	0	32828	32746	
3425	0	32820	32754	
3426	0	32792	32799	
3427	0	32772	32676	
3428	0	32802	32806	
3429	0	32848	32744	
3430	0	32780	32801	
3431	0	32814	32713	
3432	0	32792	32826	
3433	0	32856	32711	
3434	0	32816	32812	
3435	0	32884	32774	
3436	0	32792	32876	
3437	0	32814	32870	
3438	0	32848	32772	
3439	0	32800	32796	
3440	0	32736	32678	
3441	0	32772	32790	
3442	0	32862	32741	
3443	0	32884	32738	
3444	0	32800	32692	
3445	0	32812	32780	
3446	0	32757	32680	
3447	0	32796	32794	
3448	0	32824	32726	
3449	0	32752	32828	
3450	0	32776	32732	
3451	0	32794	32716	
3452	0	32848	32770	
3453	0	32914	32744	
3454	0	32864	32812	
3455	0	32800	32832	
3456	0	32802	32807	
3457	0	32820	32884	
3458	0	32730	32852	
3459	0	32736	32748	
3460	0	32832	32840	
3461	0	32840	32734	
3462	0	32872	32804	
3463	0	32880	32744	
3464	0	32768	32836	
3465	0	32796	32792	
3466	0	32779	32838	
3467	0	32836	32684	
3468	0	32816	32772	
3469	0	32840	32796	
3470	0	32780	32772	
3471	0	32792	32868	
3472	0	32776	32656	
3473	0	32796	32848	
3474	0	32828	32732	
3475	0	32832	32812	
3476	0	32860	32676	
3477	0	32872	32798	
3478	0	32776	32644	
3479	0	32784	32702	
3480	0	32828	32732	
3481	0	32816	32766	
3482	0	32876	32728	
3483	0	32756	32786	
3484	0	32840	32799	
3485	0	32776	32666	
3486	0	32740	32760	
3487	0	32724	32810	
3488	0	32816	32802	
3489	0	32840	32728	
3490	0	32830	32708	
3491	0	32836	32682	
3492	0	32812	32826	
3493	0	32856	32775	
3494	0	32854	32764	
3495	0	32726	32854	
3496	0	32748	32780	
3497	0	32800	32774	
3498	0	32830	32748	
3499	0	32844	32816	
3500	0	32912	32626	
3501	0	32784	32704	
3502	0	32820	32768	
3503	0	32756	32680	
3504	0	32776	32766	
3505	0	32768	32804	
3506	0	32876	32764	
3507	0	32814	32818	
3508	0	32774	32824	
3509	0	32832	32730	
3510	0	32848	32903	
3511	0	32856	32806	
3512	0	32824	32824	
3513	0	32788	32816	
3514	0	32744	32744	
3515	0	32834	32684	
3516	0	32848	32756	
3517	0	32708	32634	
3518	0	32778	32748	
3519	0	32720	32620	
3520	0	32712	32636	
3521	0	32686	32610	
3522	0	32632	32752	
3523	0	32636	32730	
3524	0	32688	32768	
3525	0	32728	32744	
3526	0	32704	32744	
3527	0	32714	32775	
3528	0	32688	32706	
3529	0	32684	32734	
3530	0	32756	32674	
3531	0	32778	32732	
3532	0	32788	32708	
3533	0	32832	32748	
3534	0	32888	32876	
3535	0	32836	32742	
3536	0	32782	32820	
3537	0	32886	32774	
3538	0	32838	32838	
3539	0	32896	32704	
3540	0	32896	32766	
3541	0	32888	32754	
3542	0	32878	32880	
3543	0	32894	32884	
3544	0	32828	32811	
3545	0	33004	32962	
3546	0	33092	32824	
3547	0	33036	33000	
3548	0	33068	32976	
3549	0	33156	32998	
3550	0	33068	32868	
3551	0	32981	33052	
3552	0	33032	32848	
3553	0	32996	32964	
3554	0	32958	32910	
3555	0	32928	32844	
3556	0	32834	32862	
3557	0	32716	32772	
3558	0	32738	32700	
3559	0	32752	32678	
3560	0	32688	32582	
3561	0	32648	32616	
3562	0	32796	32550	
3563	0	32704	32666	
3564	0	32732	32688	
3565	0	32704	32624	
3566	0	32628	32612	
3567	0	32708	32584	
3568	0	32744	32648	
3569	0	32744	32680	
3570	0	32872	32684	
3571	0	32714	32756	
3572	0	32760	32716	
3573	0	32796	32729	
3574	0	32804	32754	
3575	0	32794	32642	
3576	0	32784	32724	
3577	0	32848	32612	
3578	0	32824	32678	
3579	0	32880	32672	
3580	0	32864	32732	
3581	0	32846	32833	
3582	0	32868	32880	
3583	0	32798	32766	
3584	0	32740	32816	
3585	0	32760	32775	
3586	0	32740	32748	
3587	0	32830	32764	
3588	0	32834	32766	
3589	0	32714	32768	
3590	0	32744	32758	
3591	0	32817	32684	
3592	0	32784	32824	
3593	0	32840	32806	
3594	0	32812	32806	
3595	0	32780	32868	
3596	0	32812	32806	
3597	0	32850	32810	
3598	0	32872	32816	
3599	0	32776	32724	
3600	0	32876	32670	
3601	0	32814	32736	
3602	0	32768	32664	
3603	0	32832	32628	
3604	0	32824	32696	
3605	0	32762	32668	
3606	0	32792	32674	
3607	0	32744	32726	
3608	0	32762	32868	
3609	0	32868	32764	
3610	0	32820	32734	
3611	0	32820	32696	
3612	0	32800	32688	
3613	0	32832	32734	
3614	0	32780	32678	
3615	0	32832	32774	
3616	0	32808	32660	
3617	0	32846	32860	
3618	0	32792	32772	
3619	0	32828	32696	
3620	0	32878	32596	
3621	0	32856	32730	
3622	0	32860	32773	
3623	0	32794	32728	
3624	0	32728	32728	
3625	0	32768	32728	
3626	0	32830	32682	
3627	0	32768	32722	
3628	0	32788	32764	
3629	0	32880	32798	
3630	0	32754	32769	
3631	0	32889	32742	
3632	0	32734	32782	
3633	0	32864	32704	
3634	0	32820	32640	
3635	0	32824	32678	
3636	0	32784	32758	
3637	0	32796	32692	
3638	0	32852	32632	
3639	0	32874	32696	
3640	0	32824	32830	
3641	0	32832	32758	
3642	0	32850	32714	
3643	0	32780	32692	
3644	0	32794	32630	
3645	0	32764	32646	
3646	0	32738	32672	
3647	0	32808	32636	
3648	0	32808	32762	
3649	0	32772	32738	
3650	0	32836	32690	
3651	0	32832	32820	
3652	0	32832	32688	
3653	0	32808	32788	
3654	0	32780	32678	
3655	0	32802	32740	
3656	0	32800	32686	
3657	0	32840	32674	
3658	0	32821	32725	
3659	0	32892	32706	
3660	0	32764	32838	
3661	0	32834	32712	
3662	0	32850	32762	
3663	0	32850	32786	
3664	0	32728	32775	
3665	0	32790	32774	
3666	0	32838	32700	
3667	0	32824	32748	
3668	0	32846	32708	
3669	0	32842	32836	
3670	0	32892	32830	
3671	0	32786	32794	
3672	0	32784	32820	
3673	0	32846	32744	
3674	0	32792	32724	
3675	0	32818	32684	
3676	0	32876	32714	
3677	0	32817	32758	
3678	0	32820	32820	
3679	0	32812	32670	
3680	0	32866	32788	
3681	0	32752	32762	
3682	0	32821	32682	
3683	0	32784	32774	
3684	0	32826	32718	
3685	0	32788	32775	
3686	0	32832	32769	
3687	0	32832	32844	
3688	0	32832	32808	
3689	0	32812	32798	
3690	0	32828	32760	
3691	0	32812	32692	
3692	0	32826	32752	
3693	0	32752	32775	
3694	0	32784	32840	
3695	0	32784	32728	
3696	0	32754	32746	
3697	0	32816	32724	
3698	0	32784	32818	
3699	0	32780	32750	
3700	0	32914	32775	
3701	0	32850	32710	
3702	0	32828	32824	
3703	0	32792	32729	
3704	0	32804	32847	
3705	0	32820	32785	
3706	0	32770	32742	
3707	0	32768	32820	
3708	0	32712	32789	
3709	0	32860	32728	
3710	0	32792	32770	
3711	0	32816	32804	
3712	0	32880	32798	
3713	0	32846	32718	
3714	0	32852	32736	
3715	0	32824	32796	
3716	0	32780	32796	
3717	0	32804	32832	
3718	0	32780	32816	
3719	0	32780	32758	
3720	0	32816	32746	
3721	0	32788	32632	
3722	0	32826	32744	
3723	0	32796	32620	
3724	0	32778	32796	
3725	0	32822	32716	
3726	0	32788	32820	
3727	0	32760	32688	
3728	0	32824	32806	
3729	0	32712	32832	
3730	0	32814	32680	
3731	0	32750	32798	
3732	0	32816	32710	
3733	0	32772	32820	
3734	0	32784	32692	
3735	0	32868	32742	
3736	0	32738	32680	
3737	0	32756	32793	
3738	0	32804	32679	
3739	0	32852	32824	
3740	0	32820	32696	
3741	0	32770	32748	
3742	0	32848	32692	
3743	0	32792	32775	
3744	0	32820	32734	
3745	0	32834	32788	
3746	0	32876	32863	
3747	0	32780	32710	
3748	0	32836	32768	
3749	0	32810	32864	
3750	0	32816	32842	
3751	0	32748	32728	
3752	0	32728	32810	
3753	0	32772	32694	
3754	0	32832	32775	
3755	0	32800	32702	
3756	0	32790	32716	
3757	0	32820	32740	
3758	0	32752	32764	
3759	0	32848	32694	
3760	0	32836	32788	
3761	0	32866	32772	
3762	0	32846	32746	
3763	0	32804	32756	
3764	0	32822	32692	
3765	0	32882	32804	
3766	0	32816	32678	
3767	0	32846	32689	
3768	0	32756	32688	
3769	0	32792	32844	
3770	0	32772	32888	
3771	0	32762	32875	
3772	0	32800	32754	
3773	0	32800	32824	
3774	0	32864	32868	
3775	0	32752	32686	
3776	0	32796	32786	
3777	0	32810	32785	
3778	0	32864	32784	
3779	0	32796	32646	
3780	0	32798	32756	
3781	0	32828	32696	
3782	0	32858	32842	
3783	0	32800	32744	
3784	0	32788	32847	
3785	0	32820	32850	
3786	0	32792	32772	
3787	0	32808	32722	
3788	0	32836	32726	
3789	0	32796	32660	
3790	0	32816	32712	
3791	0	32884	32774	
3792	0	32776	32716	
3793	0	32802	32834	
3794	0	32796	32796	
3795	0	32856	32852	
3796	0	32796	32888	
3797	0	32900	32704	
3798	0	32744	32816	
3799	0	32844	32807	
3800	0	32824	32734	
3801	0	32872	32770	
3802	0	32768	32828	
3803	0	32870	32669	
3804	0	32744	32764	
3805	0	32774	32676	
3806	0	32764	32836	
3807	0	32852	32770	
3808	0	32840	32806	
3809	0	32804	32792	
3810	0	32784	32706	
3811	0	32836	32668	
3812	0	32832	32592	
3813	0	32824	32900	
3814	0	32756	32740	
3815	0	32764	32806	
3816	0	32788	32800	
3817	0	32840	32807	
3818	0	32826	32756	
3819	0	32824	32788	
3820	0	32848	32775	
3821	0	32866	32742	
3822	0	32868	32800	
3823	0	32716	32646	
3824	0	32762	32816	
3825	0	32818	32678	
3826	0	32872	32752	
3827	0	32804	32706	
3828	0	32820	32838	
3829	0	32812	32788	
3830	0	32852	32775	
3831	0	32804	32822	
3832	0	32802	32786	
3833	0	32796	32720	
3834	0	32810	32692	
3835	0	32816	32847	
3836	0	32852	32746	
3837	0	32788	32834	
3838	0	32750	32820	
3839	0	32860	32756	
3840	0	32838	32838	
3841	0	32812	32662	
3842	0	32876	32732	
3843	0	32742	32716	
3844	0	32828	32788	
3845	0	32732	32714	
3846	0	32808	32720	
3847	0	32746	32724	
3848	0	32816	32738	
3849	0	32752	32680	
3850	0	32820	32756	
3851	0	32774	32664	
3852	0	32826	32738	
3853	0	32764	32660	
3854	0	32870	32798	
3855	0	32768	32716	
3856	0	32748	32766	
3857	0	32824	32696	
3858	0	32853	32803	
3859	0	32816	32680	
3860	0	32828	32808	
3861	0	32838	32686	
3862	0	32824	32782	
3863	0	32868	32648	
3864	0	32804	32796	
3865	0	32738	32736	
3866	0	32780	32802	
3867	0	32840	32711	
3868	0	32816	32812	
3869	0	32818	32720	
3870	0	32820	32886	
3871	0	32788	32832	
3872	0	32796	32836	
3873	0	32860	32805	
3874	0	32716	32808	
3875	0	32796	32816	
3876	0	32768	32744	
3877	0	32828	32770	
3878	0	32824	32802	
3879	0	32804	32924	
3880	0	32872	32844	
3881	0	32824	32772	
3882	0	32848	32688	
3883	0	32800	32839	
3884	0	32854	32801	
3885	0	32848	32818	
3886	0	32800	32708	
3887	0	32770	32786	
3888	0	32756	32662	
3889	0	32794	32717	
3890	0	32724	32654	
3891	0	32832	32748	
3892	0	32804	32684	
3893	0	32800	32850	
3894	0	32786	32764	
3895	0	32796	32806	
3896	0	32772	32732	
3897	0	32848	32754	
3898	0	32840	32740	
3899	0	32856	32704	
3900	0	32816	32752	
3901	0	32852	32662	
3902	0	32852	32775	
3903	0	32818	32732	
3904	0	32802	32800	
3905	0	32864	32852	
3906	0	32756	32794	
3907	0	32820	32750	
3908	0	32724	32713	
3909	0	32792	32824	
3910	0	32740	32804	
3911	0	32842	32774	
3912	0	32780	32792	
3913	0	32844	32712	
3914	0	32788	32810	
3915	0	32844	32708	
3916	0	32804	32766	
3917	0	32820	32676	
3918	0	32820	32726	
3919	0	32832	32812	
3920	0	32820	32746	
3921	0	32780	32858	
3922	0	32778	32660	
3923	0	32820	32756	
3924	0	32808	32664	
3925	0	32784	32864	
3926	0	32796	32824	
3927	0	32804	32784	
3928	0	32812	32756	
3929	0	32836	32688	
3930	0	32800	32796	
3931	0	32794	32852	
3932	0	32822	32894	
3933	0	32838	32694	
3934	0	32764	32740	
3935	0	32784	32744	
3936	0	32784	32836	
3937	0	32816	32705	
3938	0	32860	32724	
3939	0	32786	32632	
3940	0	32828	32780	
3941	0	32852	32716	
3942	0	32808	32775	
3943	0	32812	32775	
3944	0	32816	32772	
3945	0	32724	32720	
3946	0	32808	32648	
3947	0	32808	32828	
3948	0	32816	32832	
3949	0	32760	32758	
3950	0	32784	32644	
3951	0	32796	32772	
3952	0	32744	32744	
3953	0	32792	32784	
3954	0	32792	32704	
3955	0	32808	32775	
3956	0	32830	32708	
3957	0	32782	32824	
3958	0	32802	32724	
3959	0	32832	32838	
3960	0	32836	32814	
3961	0	32872	32808	
3962	0	32932	32726	
3963	0	32796	32839	
3964	0	32820	32826	
3965	0	32784	32676	
3966	0	32856	32742	
3967	0	32856	32686	
3968	0	32828	32743	
3969	0	32874	32676	
3970	0	32832	32860	
3971	0	32656	32652	
3972	0	32714	32726	
3973	0	32752	32718	
3974	0	32696	32830	
3975	0	32792	32846	
3976	0	32812	32856	
3977	0	32832	32854	
3978	0	32838	32794	
3979	0	32858	32768	
3980	0	32830	32790	
3981	0	32804	32760	
3982	0	32828	32775	
3983	0	32796	32742	
3984	0	32788	32702	
3985	0	32804	32832	
3986	0	32780	32654	
3987	0	32832	32770	
3988	0	32814	32756	
3989	0	32792	32848	
3990	0	32810	32720	
3991	0	32788	32894	
3992	0	32776	32726	
3993	0	32788	32800	
3994	0	32804	32600	
3995	0	32796	32680	
3996	0	32886	32636	
3997	0	32828	32656	
3998	0	32852	32546	
3999	0	32888	32678	
4000	0	32848	32770	
4001	0	32892	32862	
4002	0	32836	32878	
4003	0	32816	33040	
4004	0	32856	32996	
4005	0	32798	32958	
4006	0	32752	32821	
4007	0	32812	32708	
4008	0	32800	32688	
4009	0	32814	32762	
4010	0	32778	32762	
4011	0	32840	32718	
4012	0	32728	32760	
4013	0	32788	32700	
4014	0	32744	32768	
4015	0	32768	32768	
4016	0	32826	32714	
4017	0	32840	32760	
4018	0	32808	32792	
4019	0	32842	32724	
4020	0	32870	32820	
4021	0	32824	32852	
4022	0	32894	32704	
4023	0	32724	32746	
4024	0	32766	32732	
4025	0	32782	32680	
4026	0	32732	32647	
4027	0	32764	32606	
4028	0	32872	32888	
4029	0	32802	32966	
4030	0	32856	33014	
4031	0	32816	32884	
4032	0	32872	32734	
4033	0	32812	32526	
4034	0	32776	32530	
4035	0	32808	32768	
4036	0	32792	32820	
4037	0	32824	32652	
4038	0	32862	32716	
4039	0	32776	32746	
4040	0	32918	32734	
4041	0	32926	32908	
4042	0	32828	32916	
4043	0	32850	32761	
4044	0	32808	32614	
4045	0	32784	32662	
4046	0	32772	32774	
4047	0	32820	32788	
4048	0	32808	32874	
4049	0	32772	32744	
4050	0	32746	32804	
4051	0	32776	32812	
4052	0	32808	32743	
4053	0	32784	32792	
4054	0	32762	32766	
4055	0	32824	32760	
4056	0	32844	32800	
4057	0	32792	32775	
4058	0	32792	32812	
4059	0	32816	32774	
4060	0	32834	32692	
4061	0	32884	32600	
4062	0	32802	32650	
4063	0	32806	32736	
4064	0	32810	32724	
4065	0	32788	32674	
4066	0	32836	32744	
4067	0	32748	32788	
4068	0	32752	32800	
4069	0	32780	32694	
4070	0	32744	32704	
4071	0	32804	32688	
4072	0	32800	32646	
4073	0	32864	32769	
4074	0	32828	32967	
4075	0	32800	32967	
4076	0	32794	32932	
4077	0	32824	32782	
4078	0	32868	32682	
4079	0	32826	32662	
4080	0	32852	32850	
4081	0	32844	32918	
4082	0	32792	32856	
4083	0	32874	32742	
4084	0	32852	32598	
4085	0	32808	32660	
4086	0	32768	32794	
4087	0	32764	32864	
4088	0	32764	32864	
4089	0	32684	32582	
4090	0	32664	32519	
4091	0	32592	32710	
4092	0	32610	32775	
4093	0	32656	32812	
4094	0	32746	32712	
4095	0	32764	32871	
4096	0	32866	32810	
4097	0	33024	32764	
4098	0	33112	32654	
4099	0	33156	32596	
4100	0	33106	32584	
4101	0	33060	32548	
4102	0	33016	32636	
4103	0	32968	32919	
4104	0	32854	33084	
4105	0	32752	33040	
4106	0	32660	32679	
4107	0	32652	32743	
4108	0	32612	32580	
4109	0	32604	32670	
4110	0	32684	32614	
4111	0	32642	32724	
4112	0	32708	32680	
4113	0	32648	32800	
4114	0	32704	32708	
4115	0	32768	32897	
4116	0	32780	32862	
4117	0	32840	32962	
4118	0	32772	32540	
4119	0	32714	32694	
4120	0	32894	32718	
4121	0	32862	32682	
4122	0	32960	32650	
4123	0	33022	32588	
4124	0	32988	32647	
4125	0	32852	32760	
4126	0	32852	32860	
4127	0	32704	33108	
4128	0	32806	33030	
4129	0	32822	32932	
4130	0	32780	32766	
4131	0	32776	32774	
4132	0	32800	32640	
4133	0	32638	32678	
4134	0	32762	32616	
4135	0	32612	32679	
4136	0	32534	32764	
4137	0	32700	32816	
4138	0	32792	32900	
4139	0	33014	32944	
4140	0	33072	32764	
4141	0	33124	32874	
4142	0	33092	33020	
4143	0	33004	32828	
4144	0	32952	32752	
4145	0	32866	32646	
4146	0	32760	32670	
4147	0	32680	32710	
4148	0	32716	32775	
4149	0	32656	32672	
4150	0	32700	32762	
4151	0	32696	32714	
4152	0	32808	32814	
4153	0	32736	32756	
4154	0	32738	32836	
4155	0	32696	32766	
4156	0	32708	32794	
4157	0	32820	32760	
4158	0	32942	32818	
4159	0	32872	32790	
4160	0	32904	32650	
4161	0	32896	32768	
4162	0	32900	32647	
4163	0	32868	32624	
4164	0	32812	32462	
4165	0	32772	32662	
4166	0	32730	32882	
4167	0	32664	33064	
4168	0	32716	32882	
4169	0	32686	33020	
4170	0	32842	32936	
4171	0	32880	32824	
4172	0	32976	32654	
4173	0	32896	32750	
4174	0	32930	32824	
4175	0	32912	32860	
4176	0	32968	32788	
4177	0	32980	32870	
4178	0	32881	32775	
4179	0	32792	32861	
4180	0	32776	32754	
4181	0	32730	32756	
4182	0	32762	32748	
4183	0	32732	32766	
4184	0	32728	32743	
4185	0	32712	32718	
4186	0	32744	32612	
4187	0	32706	32544	
4188	0	32762	32572	
4189	0	32761	32697	
4190	0	32792	32838	
4191	0	32792	32982	
4192	0	32684	33048	
4193	0	32800	33159	
4194	0	32752	32830	
4195	0	32748	32888	
4196	0	32794	32798	
4197	0	32876	32736	
4198	0	32964	32775	
4199	0	32928	32756	
4200	0	32852	32822	
4201	0	32844	32586	
4202	0	32796	32678	
4203	0	32820	32418	
4204	0	32668	32572	
4205	0	32660	32633	
4206	0	32808	32972	
4207	0	32864	32718	
4208	0	32864	32558	
4209	0	32962	32679	
4210	0	32976	32647	
4211	0	32930	32754	
4212	0	32910	32976	
4213	0	32760	33142	
4214	0	32780	33050	
4215	0	32872	32722	
4216	0	32832	32754	
4217	0	32792	32821	
4218	0	32752	32872	
4219	0	32736	32742	
4220	0	32732	32684	
4221	0	32824	32860	
4222	0	32822	32888	
4223	0	32774	32624	
4224	0	32820	32736	
4225	0	32774	32708	
4226	0	32720	32788	
4227	0	32764	32752	
4228	0	32904	32630	
4229	0	32876	32696	
4230	0	32912	32784	
4231	0	32780	32698	
4232	0	32822	32642	
4233	0	32608	32775	
4234	0	32476	32702	
4235	0	32530	32772	
4236	0	32604	32708	
4237	0	32708	32686	
4238	0	32740	32710	
4239	0	32856	32738	
4240	0	33028	32634	
4241	0	33224	32590	
4242	0	33266	32358	
4243	0	33192	32775	
4244	0	33036	33010	
4245	0	32956	33300	
4246	0	32816	32944	
4247	0	32804	32700	
4248	0	32778	32516	
4249	0	32708	32706	
4250	0	32664	32636	
4251	0	32580	32774	
4252	0	32608	32724	
4253	0	32612	32868	
4254	0	32608	32799	
4255	0	32652	32862	
4256	0	32714	32786	
4257	0	32760	32795	
4258	0	32790	32804	
4259	0	32760	32726	
4260	0	32766	32764	
4261	0	32868	32775	
4262	0	32840	32666	
4263	0	32920	32822	
4264	0	32892	32646	
4265	0	32860	32647	
4266	0	32838	32612	
4267	0	32792	32743	
4268	0	32776	32702	
4269	0	32852	32844	
4270	0	32868	32838	
4271	0	32866	32800	
4272	0	32770	32874	
4273	0	32720	32804	
4274	0	32734	32810	
4275	0	32836	32855	
4276	0	32916	32718	
4277	0	32974	32736	
4278	0	32930	32706	
4279	0	32920	32768	
4280	0	32864	32750	
4281	0	32818	32706	
4282	0	32898	32796	
4283	0	32804	32688	
4284	0	32726	32736	
4285	0	32654	32641	
4286	0	32640	32788	
4287	0	32706	32683	
4288	0	32696	32640	
4289	0	32820	32848	
4290	0	32830	32828	
4291	0	32810	32716	
4292	0	32866	32788	
4293	0	32846	32782	
4294	0	32836	32792	
4295	0	32932	32772	
4296	0	32864	32804	
4297	0	32840	32668	
4298	0	32842	32748	
4299	0	32720	32742	
4300	0	32790	32657	
4301	0	32784	32756	
4302	0	32836	32600	
4303	0	32776	32746	
4304	0	32794	32742	
4305	0	32884	32686	
4306	0	32928	32658	
4307	0	32852	32838	
4308	0	32788	32775	
4309	0	32884	32674	
4310	0	32710	32910	
4311	0	32636	32740	
4312	0	32764	32810	
4313	0	32740	32812	
4314	0	32834	32874	
4315	0	32812	32796	
4316	0	32792	32828	
4317	0	32680	32832	
4318	0	32748	32775	
4319	0	32836	32862	
4320	0	32818	32824	
4321	0	32844	32688	
4322	0	32844	32808	
4323	0	32852	32772	
4324	0	32832	32758	
4325	0	32858	32760	
4326	0	32896	32826	
4327	0	32888	32708	
4328	0	32868	32724	
4329	0	32824	32736	
4330	0	32852	32762	
4331	0	32628	32634	
4332	0	32702	32804	
4333	0	32708	32682	
4334	0	32796	32808	
4335	0	32864	32650	
4336	0	32888	32696	
4337	0	32838	32622	
4338	0	32764	32816	
4339	0	32788	32715	
4340	0	32800	32722	
4341	0	32852	32868	
4342	0	32748	32744	
4343	0	32690	32762	
4344	0	32552	32722	
4345	0	32720	32766	
4346	0	32836	32708	
4347	0	32852	32918	
4348	0	32836	32804	
4349	0	33012	32791	
4350	0	33040	32814	
4351	0	33188	32794	
4352	0	33132	32808	
4353	0	32896	32720	
4354	0	32760	32802	
4355	0	32752	32688	
4356	0	32632	32794	
4357	0	32752	32832	
4358	0	32764	32788	
4359	0	32826	32772	
4360	0	32776	32762	
4361	0	32824	32807	
4362	0	32738	32672	
4363	0	32616	32816	
4364	0	32554	32550	
4365	0	32384	32668	
4366	0	32560	32596	
4367	0	32612	32799	
4368	0	32776	32708	
4369	0	32968	32820	
4370	0	33128	32977	
4371	0	33268	32998	
4372	0	33158	32950	
4373	0	32980	32857	
4374	0	32854	32900	
4375	0	32800	32948	
4376	0	32716	32975	
4377	0	32796	32870	
4378	0	32724	32838	
4379	0	32830	32636	
4380	0	32844	32476	
4381	0	32780	32612	
4382	0	32776	32578	
4383	0	32670	32730	
4384	0	32586	32726	
4385	0	32498	32662	
4386	0	32496	32630	
4387	0	32580	32536	
4388	0	32584	32510	
4389	0	32608	32630	
4390	0	32706	32748	
4391	0	32720	32871	
4392	0	32756	32812	
4393	0	32832	32666	
4394	0	32860	32784	
4395	0	32832	32732	
4396	0	32780	32772	
4397	0	32784	32692	
4398	0	32862	32716	
4399	0	32796	32663	
4400	0	32860	32764	
4401	0	32804	32632	
4402	0	32796	32678	
4403	0	33018	32696	
4404	0	33048	32712	
4405	0	32972	32724	
4406	0	33064	32743	
4407	0	33092	32834	
4408	0	33096	33022	
4409	0	33112	32990	
4410	0	32988	33042	
4411	0	32904	33200	
4412	0	32796	33058	
4413	0	32848	33047	
4414	0	32730	32908	
4415	0	32768	32932	
4416	0	32868	32800	
4417	0	32856	32900	
4418	0	32890	32856	
4419	0	32870	32718	
4420	0	32796	32640	
4421	0	32768	32658	
4422	0	32740	32565	
4423	0	32768	32718	
4424	0	32692	32640	
4425	0	32638	32668	
4426	0	32756	32712	
4427	0	32848	32607	
4428	0	32894	32756	
4429	0	32880	32732	
4430	0	32824	32704	
4431	0	32860	32688	
4432	0	32856	32606	
4433	0	32880	32662	
4434	0	32834	32668	
4435	0	32784	32800	
4436	0	32670	32600	
4437	0	32608	32602	
4438	0	32492	32662	
4439	0	32390	32732	
4440	0	32472	32792	
4441	0	32270	32668	
4442	0	32316	32710	
4443	0	32836	32820	
4444	0	33430	32836	
4445	0	33588	33092	
4446	0	33812	32948	
4447	0	33792	33100	
4448	0	32996	32821	
4449	0	32752	32956	
4450	0	32764	32990	
4451	0	32824	32836	
4452	0	32816	32656	
4453	0	32896	32766	
4454	0	32760	32598	
4455	0	32812	32672	
4456	0	32778	32544	
4457	0	32988	32694	
4458	0	32936	32686	
4459	0	32828	32592	
4460	0	32572	32612	
4461	0	32464	32738	
4462	0	32280	32690	
4463	0	32164	32744	
4464	0	32152	32660	
4465	0	32180	32736	
4466	0	32342	32752	
4467	0	32584	32804	
4468	0	32756	32702	
4469	0	32786	32782	
4470	0	32972	32782	
4471	0	33020	32766	
4472	0	33096	32684	
4473	0	33038	32738	
4474	0	33180	32454	
4475	0	33076	32704	
4476	0	32936	32976	
4477	0	33028	32836	
4478	0	33002	32804	
4479	0	32900	32740	
4480	0	32866	32780	
4481	0	32832	32880	
4482	0	32900	32720	
4483	0	32842	32775	
4484	0	32798	32775	
4485	0	32760	32730	
4486	0	32810	32762	
4487	0	32824	32753	
4488	0	32848	32818	
4489	0	32836	32864	
4490	0	32776	32736	
4491	0	32704	32626	
4492	0	32748	32624	
4493	0	32680	32594	
4494	0	32700	32744	
4495	0	32784	32818	
4496	0	32812	32836	
4497	0	32772	32890	
4498	0	32768	32884	
4499	0	32722	32766	
4500	0	32664	32598	
4501	0	32788	32490	
4502	0	32986	32608	
4503	0	32852	32874	
4504	0	32716	32974	
4505	0	32668	33114	
4506	0	32772	33092	
4507	0	32836	32926	
4508	0	33064	32796	
4509	0	32940	32724	
4510	0	33028	32720	
4511	0	33068	32554	
4512	0	32904	32488	
4513	0	32900	32356	
4514	0	33048	32486	
4515	0	33040	32838	
4516	0	33068	32738	
4517	0	32388	32676	
4518	0	31952	32916	
4519	0	32044	32990	
4520	0	32535	33050	
4521	0	32970	33216	
4522	0	33342	33258	
4523	0	33494	33008	
4524	0	33268	32574	
4525	0	32880	32380	
4526	0	32752	32496	
4527	0	32838	32647	
4528	0	32608	32744	
4529	0	32132	32636	
4530	0	32236	32554	
4531	0	32368	32590	
4532	0	32480	32632	
4533	0	32844	32556	
4534	0	33386	32760	
4535	0	33554	33028	
4536	0	33790	32966	
4537	0	33552	32872	
4538	0	32728	32758	
4539	0	31526	33012	
4540	0	31448	32998	
4541	0	32064	32748	
4542	0	32328	32788	
4543	0	32960	32708	
4544	0	33570	32600	
4545	0	33826	32711	
4546	0	33788	32508	
4547	0	33680	32608	
4548	0	33562	32742	
4549	0	32920	32622	
4550	0	32512	32734	
4551	0	32312	32838	
4552	0	32352	33060	
4553	0	32508	32702	
4554	0	32484	32312	
4555	0	32444	32348	
4556	0	32532	32232	
4557	0	32604	32452	
4558	0	32724	32964	
4559	0	32876	33193	
4560	0	32884	33159	
4561	0	32980	33242	
4562	0	32820	33472	
4563	0	32680	33016	
4564	0	32808	32236	
4565	0	33020	32040	
4566	0	32880	32550	
4567	0	32828	33004	
4568	0	32368	33112	
4569	0	32014	33110	
4570	0	32226	33266	
4571	0	32454	33264	
4572	0	32592	33438	
4573	0	32776	33164	
4574	0	33074	32772	
4575	0	33464	32527	
4576	0	33702	32620	
4577	0	33696	32604	
4578	0	33618	32344	
4579	0	33482	32416	
4580	0	33224	32492	
4581	0	32880	32710	
4582	0	32764	32801	
4583	0	32672	32758	
4584	0	32504	32464	
4585	0	32308	32312	
4586	0	32312	32428	
4587	0	32164	32612	
4588	0	32440	32942	
4589	0	32704	32703	
4590	0	33130	32590	
4591	0	33288	32838	
4592	0	33240	33188	
4593	0	33112	32884	
4594	0	32976	32724	
4595	0	32792	32712	
4596	0	32628	32686	
4597	0	32548	32585	
4598	0	32582	32826	
4599	0	32550	32654	
4600	0	32356	32716	
4601	0	32270	32756	
4602	0	32664	32744	
4603	0	33088	32628	
4604	0	33060	32622	
4605	0	32848	32780	
4606	0	32610	32854	
4607	0	32384	32716	
4608	0	32700	32586	
4609	0	32516	32519	
4610	0	32612	32502	
4611	0	33044	32796	
4612	0	33328	32864	
4613	0	33402	32968	
4614	0	33472	32954	
4615	0	33788	33318	
4616	0	33684	33692	
4617	0	33296	33574	
4618	0	32860	32904	
4619	0	32448	32346	
4620	0	32088	31988	
4621	0	31810	32388	
4622	0	32028	32408	
4623	0	31926	32102	
4624	0	31980	32432	
4625	0	32538	32686	
4626	0	32792	32920	
4627	0	33166	33332	
4628	0	33450	33182	
4629	0	33412	33022	
4630	0	33492	33220	
4631	0	33444	32542	
4632	0	32612	32400	
4633	0	32288	32436	
4634	0	32506	32180	
4635	0	32692	32362	
4636	0	32806	32704	
4637	0	32792	32968	
4638	0	32488	33111	
4639	0	32432	33242	
4640	0	32712	32868	
4641	0	32912	32924	
4642	0	32914	32924	
4643	0	33041	32956	
4644	0	33000	32678	
4645	0	33044	32388	
4646	0	33208	32140	
4647	0	32960	31812	
4648	0	32932	31956	
4649	0	33108	32712	
4650	0	32970	33392	
4651	0	33044	34052	
4652	0	33080	34122	
4653	0	33032	33650	
4654	0	32860	33160	
4655	0	32816	33102	
4656	0	32692	32772	
4657	0	32632	32086	
4658	0	32596	31960	
4659	0	32608	32480	
4660	0	32680	32896	
4661	0	32716	31980	
4662	0	32520	31367	
4663	0	32514	31398	
4664	0	32676	31886	
4665	0	32566	32444	
4666	0	32334	33000	
4667	0	32348	33588	
4668	0	32792	33822	
4669	0	33100	34278	
4670	0	33396	34018	
4671	0	33712	33912	
4672	0	33538	33636	
4673	0	32892	32880	
4674	0	32490	32952	
4675	0	31868	33319	
4676	0	31312	33264	
4677	0	31286	32486	
4678	0	32228	31886	
4679	0	32616	32006	
4680	0	33174	32234	
4681	0	34024	32282	
4682	0	34672	32334	
4683	0	33854	31934	
4684	0	33564	32172	
4685	0	32868	32400	
4686	0	33168	32724	
4687	0	33040	32884	
4688	0	32324	32804	
4689	0	31932	32802	
4690	0	31680	32806	
4691	0	32164	33132	
4692	0	32468	32823	
4693	0	32880	32932	
4694	0	33066	33152	
4695	0	33344	33132	
4696	0	32852	32678	
4697	0	32516	32630	
4698	0	32848	32712	
4699	0	32772	32866	
4700	0	32248	32912	
4701	0	32378	32402	
4702	0	32096	32256	
4703	0	32512	32260	
4704	0	33088	32296	
4705	0	33984	32249	
4706	0	34784	32452	
4707	0	34828	32746	
4708	0	33952	32922	
4709	0	33082	32856	
4710	0	32676	33236	
4711	0	32352	33882	
4712	0	32340	33726	
4713	0	32228	33194	
4714	0	32086	32962	
4715	0	32264	32576	
4716	0	32340	32246	
4717	0	31964	32119	
4718	0	31682	32552	
4719	0	31986	32128	
4720	0	32234	31476	
4721	0	32512	31528	
4722	0	32540	32830	
4723	0	32684	33994	
4724	0	32956	34292	
4725	0	32736	33212	
4726	0	32834	32904	
4727	0	33180	33346	
4728	0	33332	33128	
4729	0	33558	33068	
4730	0	33496	32276	
4731	0	33376	32380	
4732	0	33384	32526	
4733	0	33296	33162	
4734	0	33078	33120	
4735	0	33008	32792	
4736	0	32328	32459	
4737	0	32284	32428	
4738	0	32680	32535	
4739	0	32808	32492	
4740	0	32794	32630	
4741	0	32982	32462	
4742	0	33136	32408	
4743	0	32654	32628	
4744	0	32495	33024	
4745	0	32044	32946	
4746	0	31574	32388	
4747	0	32398	32544	
4748	0	33132	33018	
4749	0	33730	33136	
4750	0	33816	33038	
4751	0	33804	32686	
4752	0	33300	32480	
4753	0	32718	32190	
4754	0	32408	32008	
4755	0	32308	32006	
4756	0	32672	32288	
4757	0	33102	33196	
4758	0	33232	33594	
4759	0	32906	33512	
4760	0	32064	33164	
4761	0	31264	32970	
4762	0	32244	32513	
4763	0	32252	32258	
4764	0	32212	32764	
4765	0	32868	32740	
4766	0	33672	32398	
4767	0	33928	32446	
4768	0	33718	32647	
4769	0	33860	32840	
4770	0	33476	32732	
4771	0	32934	32650	
4772	0	33056	32320	
4773	0	32592	32204	
4774	0	31966	32428	
4775	0	32328	32388	
4776	0	32356	33060	
4777	0	32284	33936	
4778	0	32668	34888	
4779	0	32604	34798	
4780	0	32374	33886	
4781	0	32036	32832	
4782	0	32674	32484	
4783	0	33167	32452	
4784	0	33444	32596	
4785	0	33148	32420	
4786	0	32988	32228	
4787	0	33064	32230	
4788	0	32964	32428	
4789	0	32994	32437	
4790	0	33296	32484	
4791	0	32030	32389	
4792	0	32332	32528	
4793	0	32976	32608	
4794	0	32936	32596	
4795	0	33152	32519	
4796	0	33448	32652	
4797	0	33360	32740	
4798	0	33264	32754	
4799	0	32254	32940	
4800	0	32042	32844	
4801	0	32292	32892	
4802	0	32528	32570	
4803	0	32708	32358	
4804	0	32820	32720	
4805	0	32602	33215	
4806	0	32740	33232	
4807	0	32186	32772	
4808	0	31268	32620	
4809	0	31912	32816	
4810	0	32232	32248	
4811	0	33054	32292	
4812	0	32828	32970	
4813	0	33100	33372	
4814	0	33868	32758	
4815	0	34336	33038	
4816	0	34522	32952	
4817	0	34390	33028	
4818	0	33920	33218	
4819	0	33312	33302	
4820	0	32686	32974	
4821	0	32276	32610	
4822	0	31948	32392	
4823	0	32212	32574	
4824	0	32276	32676	
4825	0	32196	32580	
4826	0	32252	32368	
4827	0	32482	32452	
4828	0	32680	32711	
4829	0	32732	32616	
4830	0	32340	32278	
4831	0	30812	31580	
4832	0	31632	31224	
4833	0	33168	31310	
4834	0	33704	31482	
4835	0	32408	31702	
4836	0	31792	33678	
4837	0	31898	34376	
4838	0	32650	34304	
4839	0	33714	33978	
4840	0	34380	33904	
4841	0	35128	34052	
4842	0	35080	34398	
4843	0	35002	34207	
4844	0	35036	33936	
4845	0	34572	33260	
4846	0	33760	32342	
4847	0	32728	31682	
4848	0	31698	31876	
4849	0	31178	31980	
4850	0	30922	32274	
4851	0	30968	32432	
4852	0	30924	32632	
4853	0	31008	32662	
4854	0	31492	32684	
4855	0	31914	32655	
4856	0	32252	32742	
4857	0	32508	32602	
4858	0	32764	32656	
4859	0	33118	32488	
4860	0	33284	32442	
4861	0	33164	32576	
4862	0	33312	32606	
4863	0	33360	32744	
4864	0	33352	32820	
4865	0	33548	32568	
4866	0	33356	32406	
4867	0	33236	31800	
4868	0	33096	31372	
4869	0	32972	31486	
4870	0	32738	32838	
4871	0	32742	33250	
4872	0	32680	34158	
4873	0	32650	34958	
4874	0	32628	34758	
4875	0	32544	33524	
4876	0	32518	32906	
4877	0	32682	32606	
4878	0	32850	32766	
4879	0	32900	32588	
4880	0	33100	32362	
4881	0	33032	32126	
4882	0	33072	31898	
4883	0	33044	32502	
4884	0	33024	32668	
4885	0	32808	33018	
4886	0	32752	33108	
4887	0	32676	32806	
4888	0	32600	32422	
4889	0	32544	32656	
4890	0	32556	32680	
4891	0	32568	32862	
4892	0	32576	32990	
4893	0	32732	32828	
4894	0	32732	32468	
4895	0	32840	32422	
4896	0	32988	32433	
4897	0	32936	32484	
4898	0	32996	32506	
4899	0	32766	31796	
4900	0	32532	30678	
4901	0	32132	31116	
4902	0	32140	33134	
4903	0	32212	34132	
4904	0	31832	35344	
4905	0	32288	35328	
4906	0	33696	34080	
4907	0	34036	32740	
4908	0	33668	32216	
4909	0	33904	32236	
4910	0	33848	32360	
4911	0	34072	33230	
4912	0	33864	32812	
4913	0	32624	32160	
4914	0	31368	32396	
4915	0	31700	32492	
4916	0	32204	32362	
4917	0	32742	32536	
4918	0	33332	32588	
4919	0	33440	33194	
4920	0	33412	33728	
4921	0	32890	33208	
4922	0	32612	32798	
4923	0	32246	32914	
4924	0	32308	32956	
4925	0	32296	32774	
4926	0	32244	32656	
4927	0	32406	32487	
4928	0	32344	32384	
4929	0	32516	32310	
4930	0	32376	32340	
4931	0	32568	32212	
4932	0	32712	32046	
4933	0	32852	32065	
4934	0	32440	32127	
4935	0	32420	32522	
4936	0	32276	33556	
4937	0	32824	33094	
4938	0	31976	32724	
4939	0	30336	32566	
4940	0	31944	32702	
4941	0	33756	32695	
4942	0	35184	33534	
4943	0	36192	33432	
4944	0	36220	33528	
4945	0	35496	34256	
4946	0	34136	34282	
4947	0	33018	33406	
4948	0	32336	32592	
4949	0	31740	32168	
4950	0	31604	32204	
4951	0	31338	32348	
4952	0	31316	32340	
4953	0	31612	32452	
4954	0	31968	32468	
4955	0	32472	32632	
4956	0	32514	32608	
4957	0	32708	32604	
4958	0	32812	32519	
4959	0	32756	32743	
4960	0	32796	32494	
4961	0	32696	32696	
4962	0	32842	32544	
4963	0	33130	32496	
4964	0	33050	32646	
4965	0	33060	32644	
4966	0	33052	32956	
4967	0	32908	32824	
4968	0	32696	32830	
4969	0	33000	32528	
4970	0	33408	32314	
4971	0	33202	32292	
4972	0	32798	32772	
4973	0	32704	32831	
4974	0	32390	33588	
4975	0	31746	32930	
4976	0	31844	33068	
4977	0	32938	32902	
4978	0	33540	33031	
4979	0	33638	33348	
4980	0	33008	33120	
4981	0	32712	32542	
4982	0	32704	33044	
4983	0	32960	32590	
4984	0	33460	32932	
4985	0	33668	32916	
4986	0	33524	33216	
4987	0	33444	33055	
4988	0	33440	32476	
4989	0	32984	32422	
4990	0	31908	32480	
4991	0	30940	32566	
4992	0	30391	32744	
4993	0	30676	32626	
4994	0	32356	32564	
4995	0	34284	32128	
4996	0	34988	32113	
4997	0	34966	30944	
4998	0	34601	30452	
4999	0	33696	31720	
5000	0	33028	33150	
5001	0	32626	33836	
5002	0	32292	35396	
5003	0	31968	35584	
5004	0	31884	34332	
5005	0	31984	33146	
5006	0	32016	32458	
5007	0	32060	33020	
5008	0	32356	33468	
5009	0	32376	33196	
5010	0	32534	32391	
5011	0	32524	32076	
5012	0	32656	32124	
5013	0	32800	32430	
5014	0	33056	32362	
5015	0	33236	32404	
5016	0	33280	32216	
5017	0	33156	32468	
5018	0	33078	32600	
5019	0	33026	32636	
5020	0	32960	32654	
5021	0	32864	32670	
5022	0	32824	32728	
5023	0	32740	32524	
5024	0	32852	32350	
5025	0	32816	32378	
5026	0	32924	32324	
5027	0	32960	32497	
5028	0	32976	33236	
5029	0	32836	33824	
5030	0	32796	33542	
5031	0	32900	33364	
5032	0	32996	33034	
5033	0	32956	32560	
5034	0	32864	32280	
5035	0	32684	32186	
5036	0	32704	32007	
5037	0	32648	31680	
5038	0	32672	31804	
5039	0	32754	32178	
5040	0	32770	32676	
5041	0	32852	33038	
5042	0	32890	33486	
5043	0	32984	33316	
5044	0	32992	32444	
5045	0	32538	33040	
5046	0	32388	34032	
5047	0	32416	34612	
5048	0	32520	34504	
5049	0	32752	33428	
5050	0	33186	32260	
5051	0	33368	32228	
5052	0	33184	32648	
5053	0	32988	33582	
5054	0	32918	33124	
5055	0	32426	32646	
5056	0	31564	31862	
5057	0	31816	31718	
5058	0	32128	32048	
5059	0	32692	32788	
5060	0	33100	33208	
5061	0	33452	33694	
5062	0	33800	32908	
5063	0	33768	32458	
5064	0	33720	32560	
5065	0	33444	32640	
5066	0	33232	32544	
5067	0	33064	32452	
5068	0	32612	32552	
5069	0	32260	32554	
5070	0	32240	32576	
5071	0	32262	32590	
5072	0	32508	32730	
5073	0	32460	32591	
5074	0	32586	32604	
5075	0	32736	32482	
5076	0	32736	32388	
5077	0	32652	32686	
5078	0	32636	32716	
5079	0	32832	32740	
5080	0	32952	32974	
5081	0	33048	32484	
5082	0	33092	32554	
5083	0	33078	32856	
5084	0	32960	33316	
5085	0	32748	33348	
5086	0	32738	33252	
5087	0	32792	33638	
5088	0	32790	33042	
5089	0	32704	32340	
5090	0	32726	31976	
5091	0	32768	32528	
5092	0	32752	33040	
5093	0	32612	33287	
5094	0	32628	33146	
5095	0	32848	32986	
5096	0	32876	32911	
5097	0	32872	32670	
5098	0	32916	32424	
5099	0	32900	32372	
5100	0	32868	32642	
5101	0	32876	32524	
5102	0	32940	32600	
5103	0	32898	32448	
5104	0	32772	32584	
5105	0	32872	32592	
5106	0	32704	32940	
5107	0	32620	32362	
5108	0	32609	32214	
5109	0	32756	32634	
5110	0	32840	32890	
5111	0	33112	32970	
5112	0	33184	32094	
5113	0	33040	31040	
5114	0	33188	31710	
5115	0	33380	33210	
5116	0	31884	34260	
5117	0	30752	34728	
5118	0	31066	33953	
5119	0	32264	32650	
5120	0	32820	31672	
5121	0	34012	32616	
5122	0	34424	33360	
5123	0	34548	33230	
5124	0	34048	32754	
5125	0	33544	33604	
5126	0	33105	33552	
5127	0	33104	33880	
5128	0	32908	33932	
5129	0	32442	33372	
5130	0	32152	32576	
5131	0	31902	32200	
5132	0	31988	31804	
5133	0	32054	31620	
5134	0	32414	32084	
5135	0	32454	32842	
5136	0	32436	32982	
5137	0	32552	32742	
5138	0	32624	32180	
5139	0	32868	32582	
5140	0	32918	32802	
5141	0	33042	32708	
5142	0	32516	32454	
5143	0	32652	32620	
5144	0	32892	32164	
5145	0	33072	32252	
5146	0	33092	32336	
5147	0	33176	32676	
5148	0	33288	33031	
5149	0	33272	33200	
5150	0	33112	32908	
5151	0	33016	32510	
5152	0	33052	31986	
5153	0	32988	32396	
5154	0	32818	32576	
5155	0	32670	32505	
5156	0	32788	32596	
5157	0	32740	32848	
5158	0	32648	33684	
5159	0	32586	33912	
5160	0	32580	34132	
5161	0	32696	33600	
5162	0	32700	33628	
5163	0	32584	33856	
5164	0	32616	32740	
5165	0	32756	32296	
5166	0	32702	32352	
5167	0	32764	32438	
5168	0	32876	32446	
5169	0	32900	32474	
5170	0	32974	32556	
5171	0	32996	32408	
5172	0	33028	32565	
5173	0	32810	32404	
5174	0	32852	32495	
5175	0	32724	32638	
5176	0	32820	32842	
5177	0	32866	32814	
5178	0	32864	32696	
5179	0	32800	32530	
5180	0	32816	32550	
5181	0	32698	32437	
5182	0	32784	32478	
5183	0	32868	32064	
5184	0	32866	31827	
5185	0	32864	32176	
5186	0	32890	33116	
5187	0	32828	33396	
5188	0	32904	32792	
5189	0	32896	32432	
5190	0	32844	33864	
5191	0	32832	34124	
5192	0	32920	33916	
5193	0	32786	33628	
5194	0	32618	32945	
5195	0	32576	32672	
5196	0	32564	32493	
5197	0	31926	32232	
5198	0	31856	32656	
5199	0	32324	32570	
5200	0	32670	32480	
5201	0	32864	32388	
5202	0	33172	32540	
5203	0	33628	32540	
5204	0	33768	32752	
5205	0	33688	32616	
5206	0	33594	32334	
5207	0	33114	32422	
5208	0	32964	32764	
5209	0	32548	32532	
5210	0	32498	32416	
5211	0	32576	31824	
5212	0	32369	32014	
5213	0	32216	32160	
5214	0	32148	32446	
5215	0	32124	33804	
5216	0	32140	33124	
5217	0	32996	33066	
5218	0	33274	33160	
5219	0	33608	33708	
5220	0	33310	33584	
5221	0	33024	33322	
5222	0	33112	33670	
5223	0	33124	34450	
5224	0	33012	33642	
5225	0	32704	32586	
5226	0	32328	32048	
5227	0	32484	32682	
5228	0	32702	32820	
5229	0	32932	32625	
5230	0	32928	32188	
5231	0	32944	32114	
5232	0	32940	32044	
5233	0	32926	32294	
5234	0	32812	32335	
5235	0	32886	32556	
5236	0	32452	32757	
5237	0	32214	33136	
5238	0	32322	32888	
5239	0	32456	32727	
5240	0	33000	32790	
5241	0	33408	32724	
5242	0	33600	32678	
5243	0	33434	32780	
5244	0	33222	32586	
5245	0	32984	32724	
5246	0	32764	32572	
5247	0	32700	32216	
5248	0	32596	32124	
5249	0	32476	32672	
5250	0	32424	32882	
5251	0	32480	32930	
5252	0	32376	32568	
5253	0	32420	32654	
5254	0	32668	33538	
5255	0	32744	33701	
5256	0	32772	33488	
5257	0	32824	33128	
5258	0	32996	32576	
5259	0	32760	32612	
5260	0	32718	32469	
5261	0	32660	32462	
5262	0	32602	32474	
5263	0	32764	32448	
5264	0	32862	32346	
5265	0	32846	32536	
5266	0	32840	32516	
5267	0	32864	32480	
5268	0	32840	32794	
5269	0	32816	33084	
5270	0	32824	32794	
5271	0	32896	32718	
5272	0	32872	32532	
5273	0	32852	32544	
5274	0	32904	32732	
5275	0	32836	32892	
5276	0	32824	32642	
5277	0	32924	32622	
5278	0	32888	32794	
5279	0	32976	32740	
5280	0	32984	32710	
5281	0	33118	32788	
5282	0	33160	33238	
5283	0	33114	33472	
5284	0	32920	32508	
5285	0	32680	32564	
5286	0	32728	33172	
5287	0	32868	33312	
5288	0	32702	33452	
5289	0	33080	33008	
5290	0	32938	32935	
5291	0	32780	32545	
5292	0	32704	32676	
5293	0	32706	33167	
5294	0	32704	32980	
5295	0	32814	32456	
5296	0	32968	33150	
5297	0	32740	33316	
5298	0	32744	33062	
5299	0	32842	32588	
5300	0	32484	32560	
5301	0	32660	32376	
5302	0	32828	32455	
5303	0	32072	32456	
5304	0	31892	32308	
5305	0	32500	32612	
5306	0	33252	32532	
5307	0	33436	32704	
5308	0	33314	32548	
5309	0	33144	32712	
5310	0	32808	32582	
5311	0	33084	32677	
5312	0	33528	32684	
5313	0	33464	32680	
5314	0	33434	32582	
5315	0	33166	32452	
5316	0	33060	32512	
5317	0	32946	33068	
5318	0	32736	33528	
5319	0	32398	33532	
5320	0	32244	32744	
5321	0	32144	32722	
5322	0	32214	32526	
5323	0	32328	32426	
5324	0	32478	32904	
5325	0	32516	32612	
5326	0	32546	32692	
5327	0	32696	32597	
5328	0	32612	32476	
5329	0	32488	32802	
5330	0	32680	33174	
5331	0	32900	33068	
5332	0	32980	33072	
5333	0	33048	32984	
5334	0	32932	32942	
5335	0	32936	32770	
5336	0	33172	32564	
5337	0	32964	32592	
5338	0	32898	32519	
5339	0	32850	32502	
5340	0	32876	32292	
5341	0	32624	32542	
5342	0	32310	32722	
5343	0	32492	32800	
5344	0	32896	32636	
5345	0	32996	33194	
5346	0	32458	32800	
5347	0	32208	32619	
5348	0	32680	32656	
5349	0	33366	32828	
5350	0	33656	33012	
5351	0	34008	32878	
5352	0	34052	33112	
5353	0	33688	32856	
5354	0	33100	32436	
5355	0	32744	32316	
5356	0	32458	32442	
5357	0	32234	32352	
5358	0	32170	32676	
5359	0	32212	33342	
5360	0	32308	33810	
5361	0	32436	33446	
5362	0	32572	32976	
5363	0	32532	32840	
5364	0	32520	32934	
5365	0	32484	32634	
5366	0	32556	32490	
5367	0	32488	32496	
5368	0	32696	32340	
5369	0	32832	32646	
5370	0	32808	32624	
5371	0	32926	32672	
5372	0	33068	32892	
5373	0	33073	32852	
5374	0	33180	32786	
5375	0	33156	32454	
5376	0	33168	32490	
5377	0	33020	32486	
5378	0	33002	32738	
5379	0	32984	32788	
5380	0	32810	33126	
5381	0	32736	33182	
5382	0	32776	32912	
5383	0	32898	32644	
5384	0	32980	32706	
5385	0	32844	32737	
5386	0	33006	32772	
5387	0	32916	32644	
5388	0	32196	32636	
5389	0	31824	32728	
5390	0	31956	32820	
5391	0	32480	32966	
5392	0	33024	32732	
5393	0	33454	32960	
5394	0	33559	33287	
5395	0	33572	33084	
5396	0	33422	32200	
5397	0	33282	32416	
5398	0	33040	32792	
5399	0	32932	33105	
5400	0	32836	32928	
5401	0	32728	32732	
5402	0	32452	32480	
5403	0	32456	32496	
5404	0	32520	32804	
5405	0	32412	32900	
5406	0	32332	32998	
5407	0	32520	32852	
5408	0	32640	32548	
5409	0	32732	32676	
5410	0	32848	32862	
5411	0	32950	33128	
5412	0	32944	33150	
5413	0	32916	32878	
5414	0	33006	32688	
5415	0	32996	32625	
5416	0	32968	32548	
5417	0	32972	32692	
5418	0	32840	32738	
5419	0	32708	32766	
5420	0	32472	32418	
5421	0	32082	32388	
5422	0	32460	32818	
5423	0	32760	32930	
5424	0	33380	32846	
5425	0	32868	32360	
5426	0	32540	32256	
5427	0	32608	32214	
5428	0	32816	32184	
5429	0	32848	32126	
5430	0	33264	32934	
5431	0	33472	33345	
5432	0	33288	33316	
5433	0	33240	33422	
5434	0	33400	33031	
5435	0	33392	32932	
5436	0	33146	32564	
5437	0	32912	32302	
5438	0	32804	32448	
5439	0	32428	32660	
5440	0	32412	32560	
5441	0	32398	32918	
5442	0	32472	32838	
5443	0	32340	32564	
5444	0	32288	32676	
5445	0	32328	33116	
5446	0	32414	33092	
5447	0	32480	32734	
5448	0	32580	32676	
5449	0	32644	32698	
5450	0	32680	32612	
5451	0	32726	32572	
5452	0	32934	32620	
5453	0	33012	32852	
5454	0	33090	33385	
5455	0	33104	33494	
5456	0	33090	33091	
5457	0	33192	32360	
5458	0	32996	32044	
5459	0	32924	31940	
5460	0	32994	32470	
5461	0	32860	33022	
5462	0	32632	33616	
5463	0	32720	33936	
5464	0	32800	33328	
5465	0	32816	32602	
5466	0	32820	32624	
5467	0	32800	32762	
5468	0	32816	32896	
5469	0	32780	32988	
5470	0	32766	32954	
5471	0	32808	32716	
5472	0	32770	32726	
5473	0	32640	32666	
5474	0	32608	32746	
5475	0	32606	32796	
5476	0	32716	32704	
5477	0	32826	32562	
5478	0	32894	32714	
5479	0	32958	32698	
5480	0	33008	32600	
5481	0	33036	32764	
5482	0	32948	32766	
5483	0	32920	32346	
5484	0	33108	32326	
5485	0	33084	32696	
5486	0	32830	33052	
5487	0	32768	32906	
5488	0	32320	32493	
5489	0	31652	32676	
5490	0	32128	33642	
5491	0	32288	33768	
5492	0	32850	33696	
5493	0	33146	32742	
5494	0	33260	32694	
5495	0	33376	33134	
5496	0	32720	33168	
5497	0	32626	32852	
5498	0	32648	32206	
5499	0	32848	32252	
5500	0	33452	32612	
5501	0	34257	32682	
5502	0	34190	32604	
5503	0	33432	32842	
5504	0	32824	32516	
5505	0	32556	32814	
5506	0	32096	32848	
5507	0	32262	33238	
5508	0	31948	33336	
5509	0	32128	32822	
5510	0	32328	32609	
5511	0	32574	32696	
5512	0	32740	32828	
5513	0	32950	32700	
5514	0	33016	32572	
5515	0	32936	32726	
5516	0	32912	32738	
5517	0	32708	32750	
5518	0	32768	32802	
5519	0	32908	32550	
5520	0	32848	32574	
5521	0	32794	32482	
5522	0	32766	32616	
5523	0	32860	32676	
5524	0	32676	32609	
5525	0	32780	32532	
5526	0	32828	32802	
5527	0	32740	32903	
5528	0	32824	32802	
5529	0	32932	32698	
5530	0	33048	32496	
5531	0	33008	32198	
5532	0	33004	32680	
5533	0	32912	32738	
5534	0	32890	33068	
5535	0	32834	33250	
5536	0	32868	32820	
5537	0	32880	32876	
5538	0	32852	32775	
5539	0	32920	32694	
5540	0	32852	33056	
5541	0	32744	33316	
5542	0	32892	33588	
5543	0	32808	33376	
5544	0	32704	33020	
5545	0	32660	32714	
5546	0	32676	32508	
5547	0	32708	32404	
5548	0	32738	32416	
5549	0	32740	32482	
5550	0	32820	32576	
5551	0	32860	32610	
5552	0	32800	32580	
5553	0	32818	32578	
5554	0	32864	32650	
5555	0	32828	32638	
5556	0	32820	32636	
5557	0	32808	32670	
5558	0	32800	32687	
5559	0	32780	32618	
5560	0	32832	32596	
5561	0	32800	32704	
5562	0	32768	32756	
5563	0	32768	32870	
5564	0	32721	32876	
5565	0	32646	32816	
5566	0	32722	32720	
5567	0	32710	32852	
5568	0	32750	32700	
5569	0	32704	32754	
5570	0	32854	32680	
5571	0	32868	32820	
5572	0	32900	32590	
5573	0	32906	32487	
5574	0	32978	32480	
5575	0	32876	32986	
5576	0	32822	32894	
5577	0	32696	32664	
5578	0	32706	32764	
5579	0	32376	33412	
5580	0	32576	33424	
5581	0	32880	32911	
5582	0	33060	32536	
5583	0	33216	32848	
5584	0	33196	32940	
5585	0	32996	32792	
5586	0	32884	32774	
5587	0	32958	32552	
5588	0	32708	32580	
5589	0	32516	32902	
5590	0	32656	32788	
5591	0	32826	32700	
5592	0	32980	32456	
5593	0	32780	32560	
5594	0	32768	32740	
5595	0	32788	32676	
5596	0	32826	32138	
5597	0	32288	32016	
5598	0	32536	32390	
5599	0	32328	32296	
5600	0	32368	32632	
5601	0	32928	33212	
5602	0	32633	33872	
5603	0	32870	33732	
5604	0	33484	33172	
5605	0	33764	33128	
5606	0	33948	32938	
5607	0	32824	33031	
5608	0	32940	32900	
5609	0	33092	32748	
5610	0	33052	32588	
5611	0	32572	32647	
5612	0	32634	32444	
5613	0	32728	32464	
5614	0	32572	32746	
5615	0	32500	32880	
5616	0	32480	32998	
5617	0	32424	32814	
5618	0	32726	32766	
5619	0	32784	32582	
5620	0	32704	32488	
5621	0	32628	32536	
5622	0	32696	32646	
5623	0	32688	32648	
5624	0	32634	32734	
5625	0	32820	32714	
5626	0	32836	32720	
5627	0	32944	32834	
5628	0	32964	32868	
5629	0	32984	32842	
5630	0	32986	32802	
5631	0	33036	32772	
5632	0	32992	32652	
5633	0	32934	32708	
5634	0	32852	32712	
5635	0	32840	32744	
5636	0	32868	32742	
5637	0	32816	32800	
5638	0	32784	32770	
5639	0	32802	32582	
5640	0	32708	32712	
5641	0	32716	32657	
5642	0	32788	32752	
5643	0	32894	32788	
5644	0	32818	32842	
5645	0	32766	32638	
5646	0	32770	32734	
5647	0	32804	32748	
5648	0	32868	32818	
5649	0	32824	32676	
5650	0	32832	32708	
5651	0	32808	32810	
5652	0	32828	32854	
5653	0	32782	32804	
5654	0	32920	32774	
5655	0	32890	32758	
5656	0	32744	32688	
5657	0	32746	32718	
5658	0	32770	32712	
5659	0	32696	32692	
5660	0	32762	32740	
5661	0	32772	32784	
5662	0	32880	32692	
5663	0	32760	32583	
5664	0	32822	32708	
5665	0	32828	32596	
5666	0	32810	32714	
5667	0	32872	32678	
5668	0	32560	32728	
5669	0	32212	32626	
5670	0	31980	32356	
5671	0	32468	32428	
5672	0	33148	32410	
5673	0	33384	32738	
5674	0	33588	32231	
5675	0	33524	32786	
5676	0	33410	33514	
5677	0	33180	34311	
5678	0	33130	34134	
5679	0	33192	33576	
5680	0	33128	32903	
5681	0	32858	32708	
5682	0	32572	32468	
5683	0	32164	32226	
5684	0	32158	32366	
5685	0	32292	32440	
5686	0	32462	32518	
5687	0	32532	32592	
5688	0	32756	32560	
5689	0	32880	32646	
5690	0	32892	32712	
5691	0	32846	32665	
5692	0	32708	32775	
5693	0	32588	32789	
5694	0	32768	32826	
5695	0	32935	32804	
5696	0	33072	32803	
5697	0	32488	32656	
5698	0	31818	32768	
5699	0	31472	32836	
5700	0	32184	32704	
5701	0	32734	32732	
5702	0	33540	32666	
5703	0	34164	32710	
5704	0	34228	32672	
5705	0	33934	32730	
5706	0	33738	32686	
5707	0	33474	32652	
5708	0	33172	32904	
5709	0	32884	32858	
5710	0	32508	32848	
5711	0	32344	33010	
5712	0	32330	32961	
5713	0	32238	32736	
5714	0	32230	32732	
5715	0	32260	32828	
5716	0	32222	32942	
5717	0	32540	32834	
5718	0	32610	32766	
5719	0	32696	32772	
5720	0	32836	32680	
5721	0	32760	32722	
5722	0	32772	32532	
5723	0	32820	32682	
5724	0	32880	32646	
5725	0	32788	32660	
5726	0	32844	32706	
5727	0	32810	32716	
5728	0	32978	32674	
5729	0	33032	32678	
5730	0	32952	32772	
5731	0	32878	32842	
5732	0	32920	32804	
5733	0	32892	32775	
5734	0	32888	32810	
5735	0	32928	32846	
5736	0	32884	32828	
5737	0	32910	32820	
5738	0	32840	32801	
5739	0	32868	32668	
5740	0	32724	32792	
5741	0	32496	32650	
5742	0	32628	32656	
5743	0	32724	32604	
5744	0	32972	32696	
5745	0	32988	32774	
5746	0	33072	32880	
5747	0	33124	32756	
5748	0	33152	32748	
5749	0	33012	32774	
5750	0	32816	32848	
5751	0	32696	32852	
5752	0	32608	32764	
5753	0	32568	32775	
5754	0	32628	32680	
5755	0	32592	32736	
5756	0	32572	32852	
5757	0	32674	32992	
5758	0	32754	32864	
5759	0	32824	32822	
5760	0	32868	32686	
5761	0	32920	32622	
5762	0	32824	32596	
5763	0	32744	32750	
5764	0	32816	32668	
5765	0	32706	32728	
5766	0	32756	32672	
5767	0	32784	32738	
5768	0	32866	32692	
5769	0	32868	32734	
5770	0	32988	32807	
5771	0	32932	32872	
5772	0	32820	32903	
5773	0	32700	32775	
5774	0	32796	32638	
5775	0	32378	32600	
5776	0	32132	32544	
5777	0	32336	32743	
5778	0	32416	32862	
5779	0	32992	32956	
5780	0	33780	33028	
5781	0	34276	32964	
5782	0	34496	32903	
5783	0	34140	32810	
5784	0	33630	32860	
5785	0	33322	32850	
5786	0	32841	32784	
5787	0	31845	32762	
5788	0	31702	32684	
5789	0	31832	32668	
5790	0	31850	32548	
5791	0	32196	32640	
5792	0	32352	32606	
5793	0	32516	32784	
5794	0	32580	32763	
5795	0	32565	32752	
5796	0	32576	32790	
5797	0	32552	32654	
5798	0	32534	32714	
5799	0	32524	32576	
5800	0	32660	32706	
5801	0	32764	32708	
5802	0	32816	32814	
5803	0	32840	32670	
5804	0	32894	32772	
5805	0	32886	32708	
5806	0	32904	32807	
5807	0	33056	32734	
5808	0	33036	32762	
5809	0	33014	32814	
5810	0	32984	32815	
5811	0	33002	32724	
5812	0	32978	32814	
5813	0	33036	32884	
5814	0	32976	32912	
5815	0	33002	32953	
5816	0	33076	32807	
5817	0	33106	32764	
5818	0	33004	32870	
5819	0	32872	32668	
5820	0	32808	32764	
5821	0	32528	32770	
5822	0	32560	33006	
5823	0	32601	32988	
5824	0	32654	32760	
5825	0	32796	32662	
5826	0	32792	32712	
5827	0	32842	32903	
5828	0	33060	32960	
5829	0	33076	32840	
5830	0	33184	32787	
5831	0	33080	32744	
5832	0	33096	32764	
5833	0	32960	32664	
5834	0	32736	32806	
5835	0	32632	32820	
5836	0	32468	32874	
5837	0	32302	32670	
5838	0	32264	32760	
5839	0	32300	32650	
5840	0	32304	32684	
5841	0	32528	32636	
5842	0	32526	32710	
5843	0	32678	32640	
5844	0	32784	32702	
5845	0	32860	32698	
5846	0	32952	32744	
5847	0	33000	32786	
5848	0	33040	32870	
5849	0	33168	32724	
5850	0	33012	32865	
5851	0	33080	32971	
5852	0	33102	32886	
5853	0	33052	32908	
5854	0	33052	32840	
5855	0	32982	32878	
5856	0	32888	32790	
5857	0	32808	32918	
5858	0	32780	32876	
5859	0	32686	32759	
5860	0	32856	32768	
5861	0	32872	32632	
5862	0	32902	32698	
5863	0	32956	32692	
5864	0	32852	32708	
5865	0	32732	32864	
5866	0	32628	32978	
5867	0	32700	32838	
5868	0	32676	32881	
5869	0	32724	32830	
5870	0	32744	32772	
5871	0	32670	32816	
5872	0	32696	32778	
5873	0	32734	32798	
5874	0	32728	32762	
5875	0	32744	32790	
5876	0	32834	32817	
5877	0	32912	32792	
5878	0	32785	32868	
5879	0	32836	32742	
5880	0	32904	32708	
5881	0	32916	32674	
5882	0	32944	32754	
5883	0	32900	32700	
5884	0	32932	32740	
5885	0	32800	32820	
5886	0	32588	32821	
5887	0	32708	32742	
5888	0	32680	32756	
5889	0	32584	32828	
5890	0	32758	32794	
5891	0	32988	32924	
5892	0	33140	32812	
5893	0	32936	32903	
5894	0	33000	32879	
5895	0	32932	32864	
5896	0	32986	32688	
5897	0	32918	32732	
5898	0	32884	32704	
5899	0	32832	32760	
5900	0	32776	32679	
5901	0	32704	32652	
5902	0	32680	32658	
5903	0	32548	32744	
5904	0	32524	32668	
5905	0	32608	33012	
5906	0	32660	32884	
5907	0	32778	33064	
5908	0	32932	32884	
5909	0	32720	32840	
5910	0	32688	32728	
5911	0	32894	32802	
5912	0	32792	32666	
5913	0	32756	32560	
5914	0	33138	32536	
5915	0	33202	32772	
5916	0	32958	32602	
5917	0	32960	32630	
5918	0	32816	32666	
5919	0	32960	32604	
5920	0	33126	32680	
5921	0	32780	32628	
5922	0	32320	32806	
5923	0	32352	32720	
5924	0	32744	32790	
5925	0	32836	32656	
5926	0	33024	32704	
5927	0	33036	32614	
5928	0	33044	32744	
5929	0	33034	32849	
5930	0	32696	32708	
5931	0	32500	32704	
5932	0	32466	32652	
5933	0	32568	32735	
5934	0	32596	32834	
5935	0	32588	32942	
5936	0	32596	32928	
5937	0	32568	32850	
5938	0	32592	32770	
5939	0	32604	32756	
5940	0	32724	32730	
5941	0	32778	32708	
5942	0	32878	32698	
5943	0	32916	32676	
5944	0	32898	32637	
5945	0	32906	32712	
5946	0	32876	32647	
5947	0	32858	32696	
5948	0	32996	32598	
5949	0	33188	32775	
5950	0	33238	32793	
5951	0	33208	32852	
5952	0	33172	32856	
5953	0	32964	32892	
5954	0	33060	32934	
5955	0	33004	32824	
5956	0	32836	32858	
5957	0	32732	32784	
5958	0	32664	32828	
5959	0	32680	32775	
5960	0	32584	32774	
5961	0	32530	32670	
5962	0	32556	32788	
5963	0	32514	32804	
5964	0	32570	32674	
5965	0	32634	32688	
5966	0	32702	32657	
5967	0	32792	32674	
5968	0	32914	32820	
5969	0	32940	32874	
5970	0	32932	32832	
5971	0	32938	32864	
5972	0	32960	32752	
5973	0	33022	32752	
5974	0	33144	32884	
5975	0	33180	32800	
5976	0	33128	32682	
5977	0	32872	32624	
5978	0	32904	32644	
5979	0	32780	32670	
5980	0	32704	32656	
5981	0	32426	32667	
5982	0	32522	32604	
5983	0	32704	32770	
5984	0	32712	32824	
5985	0	32892	32830	
5986	0	32894	32822	
5987	0	33047	32940	
5988	0	32944	32838	
5989	0	32780	32958	
5990	0	32708	32738	
5991	0	32872	32802	
5992	0	32836	32688	
5993	0	32744	32848	
5994	0	32712	32884	
5995	0	32612	32937	
5996	0	32572	32838	
5997	0	32544	32832	
5998	0	32620	32786	
5999	0	32684	32830	
6000	0	32772	32756	
6001	0	32880	32852	
6002	0	32904	32792	
6003	0	32776	32768	
6004	0	32876	32796	
6005	0	32744	32692	
6006	0	32634	32673	
6007	0	32880	32694	
6008	0	32824	32678	
6009	0	32636	32687	
6010	0	32724	32616	
6011	0	32680	32710	
6012	0	32776	32792	
