# OpenSignals Text File Format. Version 1
# {"00:07:80:8C:0A:39": {"position": 0, "device": "biosignalsplux", "device name": "00:07:80:8C:0A:39", "device connection": "BTH00:07:80:8C:0A:39", "sampling rate": 1000, "resolution": [16, 16], "firmware version": 776, "comments": "", "keywords": "", "mode": 0, "sync interval": 2, "date": "2023-3-17", "time": "11:17:51.109", "channels": [1, 2], "sensor": ["EMG", "EMG"], "label": ["CH1", "CH2"], "column": ["nSeq", "DI", "CH1", "CH2"], "special": [{"SpO2": [80, 40, 5, 4, 3, 3]}, {"SpO2": [80, 40, 5, 4, 3, 3]}, {"SpO2": [80, 40, 5, 4, 3, 3]}, {"SpO2": [80, 40, 5, 4, 3, 3]}, {"SpO2": [80, 40, 5, 4, 3, 3]}, {"SpO2": [80, 40, 5, 4, 3, 3]}, {"SpO2": [80, 40, 5, 4, 3, 3]}, {"SpO2": [80, 40, 5, 4, 3, 3]}], "digital IO": [0, 1], "sleeve color": ["gray", "yellow"], "convertedValues": 0}}
# EndOfHeader
0	0	32832	32785	
1	0	32816	32838	
2	0	32844	32714	
3	0	32814	32838	
4	0	32872	32782	
5	0	32810	32678	
6	0	32884	32838	
7	0	32796	32802	
8	0	32826	32803	
9	0	32788	32743	
10	0	32760	32726	
11	0	32842	32754	
12	0	32840	32794	
13	0	32828	32728	
14	0	32786	32806	
15	0	32820	32752	
16	0	32772	32716	
17	0	32784	32772	
18	0	32788	32822	
19	0	32812	32738	
20	0	32798	32807	
21	0	32864	32686	
22	0	32824	32828	
23	0	32812	32746	
24	0	32824	32724	
25	0	32782	32724	
26	0	32800	32756	
27	0	32820	32820	
28	0	32820	32742	
29	0	32874	32806	
30	0	32779	32822	
31	0	32840	32721	
32	0	32816	32807	
33	0	32808	32775	
34	0	32808	32692	
35	0	32800	32844	
36	0	32792	32840	
37	0	32828	32714	
38	0	32864	32804	
39	0	32840	32772	
40	0	32778	32762	
41	0	32800	32762	
42	0	32808	32726	
43	0	32776	32769	
44	0	32760	32786	
45	0	32792	32768	
46	0	32794	32678	
47	0	32772	32784	
48	0	32806	32740	
49	0	32856	32886	
50	0	32764	32734	
51	0	32810	32772	
52	0	32864	32748	
53	0	32852	32732	
54	0	32848	32827	
55	0	32848	32744	
56	0	32788	32686	
57	0	32772	32784	
58	0	32820	32774	
59	0	32802	32774	
60	0	32784	32722	
61	0	32844	32796	
62	0	32792	32806	
63	0	32842	32702	
64	0	32784	32790	
65	0	32808	32836	
66	0	32804	32796	
67	0	32852	32708	
68	0	32724	32740	
69	0	32842	32716	
70	0	32772	32694	
71	0	32824	32746	
72	0	32784	32775	
73	0	32804	32700	
74	0	32804	32812	
75	0	32754	32734	
76	0	32790	32738	
77	0	32864	32750	
78	0	32792	32764	
79	0	32842	32736	
80	0	32800	32650	
81	0	32792	32736	
82	0	32840	32775	
83	0	32808	32744	
84	0	32856	32866	
85	0	32848	32828	
86	0	32838	32720	
87	0	32804	32738	
88	0	32854	32818	
89	0	32812	32746	
90	0	32878	32824	
91	0	32818	32839	
92	0	32772	32654	
93	0	32800	32804	
94	0	32800	32760	
95	0	32782	32796	
96	0	32752	32804	
97	0	32876	32692	
98	0	32844	32794	
99	0	32762	32768	
100	0	32808	32679	
101	0	32822	32804	
102	0	32840	32888	
103	0	32832	32724	
104	0	32808	32839	
105	0	32820	32795	
106	0	32832	32714	
107	0	32776	32756	
108	0	32826	32810	
109	0	32826	32770	
110	0	32810	32812	
111	0	32800	32866	
112	0	32860	32730	
113	0	32792	32720	
114	0	32786	32867	
115	0	32800	32724	
116	0	32804	32775	
117	0	32784	32775	
118	0	32840	32644	
119	0	32848	32812	
120	0	32824	32850	
121	0	32788	32790	
122	0	32814	32786	
123	0	32738	32910	
124	0	32842	32686	
125	0	32882	32698	
126	0	32762	32812	
127	0	32756	32808	
128	0	32834	32664	
129	0	32768	32722	
130	0	32752	32804	
131	0	32794	32807	
132	0	32854	32805	
133	0	32816	32740	
134	0	32830	32824	
135	0	32836	32766	
136	0	32818	32802	
137	0	32844	32728	
138	0	32808	32735	
139	0	32854	32820	
140	0	32764	32791	
141	0	32752	32856	
142	0	32804	32696	
143	0	32792	32823	
144	0	32796	32766	
145	0	32818	32836	
146	0	32820	32668	
147	0	32776	32740	
148	0	32816	32804	
149	0	32830	32836	
150	0	32796	32720	
151	0	32832	32810	
152	0	32772	32652	
153	0	32830	32742	
154	0	32818	32802	
155	0	32784	32710	
156	0	32872	32796	
157	0	32816	32713	
158	0	32784	32766	
159	0	32776	32775	
160	0	32802	32798	
161	0	32848	32804	
162	0	32856	32795	
163	0	32828	32758	
164	0	32780	32830	
165	0	32788	32800	
166	0	32784	32770	
167	0	32806	32800	
168	0	32804	32862	
169	0	32824	32674	
170	0	32804	32752	
171	0	32804	32732	
172	0	32800	32750	
173	0	32788	32768	
174	0	32842	32716	
175	0	32808	32800	
176	0	32802	32790	
177	0	32836	32659	
178	0	32832	32739	
179	0	32816	32692	
180	0	32812	32802	
181	0	32828	32772	
182	0	32776	32714	
183	0	32802	32807	
184	0	32822	32814	
185	0	32832	32732	
186	0	32852	32712	
187	0	32804	32790	
188	0	32832	32836	
189	0	32810	32774	
190	0	32794	32666	
191	0	32804	32838	
192	0	32836	32788	
193	0	32874	32698	
194	0	32836	32834	
195	0	32904	32723	
196	0	32792	32860	
197	0	32796	32742	
198	0	32816	32660	
199	0	32812	32736	
200	0	32858	32870	
201	0	32814	32774	
202	0	32802	32748	
203	0	32796	32702	
204	0	32788	32818	
205	0	32848	32762	
206	0	32862	32796	
207	0	32812	32864	
208	0	32832	32806	
209	0	32848	32896	
210	0	32832	32750	
211	0	32742	32769	
212	0	32802	32710	
213	0	32804	32730	
214	0	32820	32728	
215	0	32802	32743	
216	0	32848	32760	
217	0	32802	32674	
218	0	32784	32798	
219	0	32842	32696	
220	0	32772	32840	
221	0	32852	32806	
222	0	32788	32812	
223	0	32816	32799	
224	0	32736	32632	
225	0	32834	32807	
226	0	32784	32636	
227	0	32756	32866	
228	0	32746	32673	
229	0	32792	32743	
230	0	32782	32855	
231	0	32804	32764	
232	0	32778	32775	
233	0	32818	32732	
234	0	32824	32748	
235	0	32834	32702	
236	0	32848	32752	
237	0	32816	32798	
238	0	32780	32846	
239	0	32836	32839	
240	0	32868	32796	
241	0	32812	32840	
242	0	32772	32836	
243	0	32880	32815	
244	0	32846	32732	
245	0	32800	32820	
246	0	32788	32710	
247	0	32860	32796	
248	0	32828	32828	
249	0	32832	32720	
250	0	32856	32783	
251	0	32804	32847	
252	0	32808	32676	
253	0	32752	32728	
254	0	32796	32696	
255	0	32834	32816	
256	0	32784	32791	
257	0	32822	32817	
258	0	32837	32826	
259	0	32816	32698	
260	0	32820	32817	
261	0	32810	32726	
262	0	32838	32788	
263	0	32810	32859	
264	0	32824	32736	
265	0	32782	32864	
266	0	32724	32724	
267	0	32860	32914	
268	0	32816	32799	
269	0	32812	32692	
270	0	32800	32772	
271	0	32810	32666	
272	0	32820	32703	
273	0	32824	32748	
274	0	32816	32759	
275	0	32836	32672	
276	0	32788	32788	
277	0	32764	32775	
278	0	32756	32676	
279	0	32742	32636	
280	0	32730	32620	
281	0	32768	32702	
282	0	32780	32644	
283	0	32760	32738	
284	0	32796	32650	
285	0	32744	32767	
286	0	32770	32710	
287	0	32740	32775	
288	0	32816	32770	
289	0	32768	32807	
290	0	32704	32854	
291	0	32704	32836	
292	0	32862	32775	
293	0	32772	32756	
294	0	32864	32842	
295	0	32864	32740	
296	0	32864	32864	
297	0	32914	32893	
298	0	32902	32775	
299	0	32964	32858	
300	0	32874	32948	
301	0	32984	32948	
302	0	32908	33031	
303	0	32932	32838	
304	0	32900	32908	
305	0	32996	32948	
306	0	32902	32920	
307	0	32900	32866	
308	0	32824	32724	
309	0	32910	32836	
310	0	32858	32962	
311	0	32868	32892	
312	0	32880	32962	
313	0	32892	32791	
314	0	32828	32853	
315	0	32884	32715	
316	0	32852	32768	
317	0	32730	32772	
318	0	32844	32624	
319	0	32696	32647	
320	0	32742	32580	
321	0	32788	32696	
322	0	32724	32744	
323	0	32732	32736	
324	0	32696	32656	
325	0	32700	32642	
326	0	32784	32766	
327	0	32762	32590	
328	0	32746	32760	
329	0	32742	32766	
330	0	32800	32636	
331	0	32770	32720	
332	0	32792	32722	
333	0	32756	32806	
334	0	32792	32799	
335	0	32872	32751	
336	0	32824	32788	
337	0	32796	32708	
338	0	32810	32792	
339	0	32764	32808	
340	0	32810	32794	
341	0	32838	32886	
342	0	32792	32760	
343	0	32842	32782	
344	0	32816	32716	
345	0	32778	32746	
346	0	32820	32694	
347	0	32856	32694	
348	0	32754	32774	
349	0	32732	32874	
350	0	32881	32742	
351	0	32820	32688	
352	0	32816	32816	
353	0	32774	32718	
354	0	32824	32756	
355	0	32824	32678	
356	0	32812	32862	
357	0	32836	32870	
358	0	32824	32624	
359	0	32828	32760	
360	0	32784	32743	
361	0	32868	32775	
362	0	32764	32748	
363	0	32848	32838	
364	0	32844	32814	
365	0	32836	32678	
366	0	32792	32798	
367	0	32812	32759	
368	0	32800	32790	
369	0	32786	32792	
370	0	32838	32722	
371	0	32844	32764	
372	0	32810	32712	
373	0	32824	32814	
374	0	32802	32791	
375	0	32814	32662	
376	0	32846	32770	
377	0	32844	32722	
378	0	32760	32834	
379	0	32800	32734	
380	0	32898	32839	
381	0	32740	32738	
382	0	32816	32761	
383	0	32842	32736	
384	0	32824	32740	
385	0	32852	32822	
386	0	32796	32772	
387	0	32792	32750	
388	0	32838	32772	
389	0	32792	32808	
390	0	32804	32688	
391	0	32830	32759	
392	0	32860	32766	
393	0	32812	32784	
394	0	32780	32750	
395	0	32906	32738	
396	0	32792	32824	
397	0	32768	32722	
398	0	32782	32782	
399	0	32852	32806	
400	0	32812	32725	
401	0	32784	32796	
402	0	32812	32775	
403	0	32818	32823	
404	0	32876	32775	
405	0	32848	32720	
406	0	32794	32775	
407	0	32794	32862	
408	0	32812	32678	
409	0	32800	32775	
410	0	32784	32766	
411	0	32780	32824	
412	0	32852	32710	
413	0	32855	32692	
414	0	32788	32784	
415	0	32816	32798	
416	0	32824	32662	
417	0	32764	32774	
418	0	32852	32812	
419	0	32784	32734	
420	0	32796	32748	
421	0	32844	32734	
422	0	32775	32764	
423	0	32834	32798	
424	0	32804	32730	
425	0	32832	32788	
426	0	32746	32840	
427	0	32830	32684	
428	0	32860	32830	
429	0	32810	32750	
430	0	32794	32726	
431	0	32828	32655	
432	0	32800	32804	
433	0	32812	32710	
434	0	32778	32852	
435	0	32788	32729	
436	0	32778	32766	
437	0	32872	32842	
438	0	32862	32750	
439	0	32852	32792	
440	0	32810	32710	
441	0	32812	32834	
442	0	32840	32774	
443	0	32836	32684	
444	0	32834	32744	
445	0	32766	32792	
446	0	32784	32847	
447	0	32868	32650	
448	0	32846	32834	
449	0	32820	32831	
450	0	32764	32694	
451	0	32844	32746	
452	0	32798	32792	
453	0	32816	32841	
454	0	32814	32650	
455	0	32788	32806	
456	0	32804	32756	
457	0	32812	32708	
458	0	32884	32836	
459	0	32836	32748	
460	0	32810	32774	
461	0	32792	32896	
462	0	32840	32792	
463	0	32776	32742	
464	0	32696	32752	
465	0	32784	32764	
466	0	32832	32806	
467	0	32820	32775	
468	0	32880	32728	
469	0	32852	32702	
470	0	32870	32758	
471	0	32804	32892	
472	0	32740	32716	
473	0	32824	32704	
474	0	32820	32706	
475	0	32834	32692	
476	0	32780	32792	
477	0	32844	32758	
478	0	32808	32820	
479	0	32810	32797	
480	0	32796	32646	
481	0	32812	32830	
482	0	32784	32794	
483	0	32784	32690	
484	0	32796	32868	
485	0	32816	32740	
486	0	32828	32775	
487	0	32820	32775	
488	0	32860	32814	
489	0	32826	32760	
490	0	32752	32731	
491	0	32836	32775	
492	0	32804	32796	
493	0	32864	32766	
494	0	32846	32810	
495	0	32762	32792	
496	0	32792	32740	
497	0	32860	32719	
498	0	32856	32751	
499	0	32810	32830	
500	0	32804	32810	
501	0	32808	32700	
502	0	32780	32860	
503	0	32792	32840	
504	0	32788	32740	
505	0	32820	32796	
506	0	32842	32756	
507	0	32844	32812	
508	0	32852	32686	
509	0	32820	32839	
510	0	32824	32686	
511	0	32860	32775	
512	0	32772	32716	
513	0	32750	32672	
514	0	32806	32788	
515	0	32792	32846	
516	0	32856	32806	
517	0	32824	32782	
518	0	32832	32737	
519	0	32892	32766	
520	0	32832	32748	
521	0	32868	32786	
522	0	32810	32892	
523	0	32748	32830	
524	0	32756	32664	
525	0	32830	32807	
526	0	32800	32812	
527	0	32834	32828	
528	0	32826	32827	
529	0	32824	32834	
530	0	32804	32669	
531	0	32766	32792	
532	0	32784	32791	
533	0	32864	32658	
534	0	32760	32800	
535	0	32870	32764	
536	0	32864	32686	
537	0	32870	32852	
538	0	32840	32742	
539	0	32785	32739	
540	0	32870	32762	
541	0	32800	32840	
542	0	32784	32708	
543	0	32798	32784	
544	0	32900	32704	
545	0	32736	32684	
546	0	32832	32792	
547	0	32744	32828	
548	0	32846	32715	
549	0	32804	32788	
550	0	32904	32752	
551	0	32804	32724	
552	0	32836	32816	
553	0	32802	32849	
554	0	32834	32655	
555	0	32804	32804	
556	0	32818	32770	
557	0	32865	32724	
558	0	32824	32800	
559	0	32804	32704	
560	0	32818	32745	
561	0	32794	32768	
562	0	32748	32728	
563	0	32832	32838	
564	0	32752	32775	
565	0	32856	32683	
566	0	32856	32819	
567	0	32832	32855	
568	0	32880	32652	
569	0	32860	32748	
570	0	32740	32854	
571	0	32798	32716	
572	0	32840	32771	
573	0	32828	32796	
574	0	32808	32710	
575	0	32828	32788	
576	0	32836	32798	
577	0	32820	32724	
578	0	32784	32796	
579	0	32792	32854	
580	0	32862	32756	
581	0	32824	32839	
582	0	32704	32860	
583	0	32814	32714	
584	0	32688	32764	
585	0	32832	32743	
586	0	32872	32774	
587	0	32804	32775	
588	0	32814	32818	
589	0	32832	32834	
590	0	32856	32854	
591	0	32832	32700	
592	0	32800	32757	
593	0	32852	32722	
594	0	32759	32806	
595	0	32836	32814	
596	0	32820	32745	
597	0	32868	32744	
598	0	32854	32774	
599	0	32804	32724	
600	0	32868	32728	
601	0	32852	32892	
602	0	32786	32732	
603	0	32826	32820	
604	0	32820	32794	
605	0	32768	32664	
606	0	32828	32830	
607	0	32788	32770	
608	0	32764	32722	
609	0	32800	32775	
610	0	32804	32725	
611	0	32816	32756	
612	0	32788	32805	
613	0	32832	32686	
614	0	32790	32694	
615	0	32780	32780	
616	0	32826	32806	
617	0	32800	32761	
618	0	32860	32794	
619	0	32836	32768	
620	0	32772	32728	
621	0	32850	32752	
622	0	32824	32750	
623	0	32774	32786	
624	0	32778	32775	
625	0	32776	32700	
626	0	32784	32864	
627	0	32824	32832	
628	0	32798	32725	
629	0	32764	32802	
630	0	32820	32674	
631	0	32734	32804	
632	0	32876	32775	
633	0	32812	32658	
634	0	32804	32801	
635	0	32804	32756	
636	0	32840	32732	
637	0	32840	32720	
638	0	32836	32807	
639	0	32798	32762	
640	0	32810	32688	
641	0	32852	32888	
642	0	32860	32807	
643	0	32796	32724	
644	0	32744	32842	
645	0	32800	32767	
646	0	32738	32704	
647	0	32794	32775	
648	0	32814	32808	
649	0	32784	32803	
650	0	32828	32775	
651	0	32812	32732	
652	0	32836	32732	
653	0	32882	32716	
654	0	32812	32771	
655	0	32744	32794	
656	0	32848	32775	
657	0	32740	32668	
658	0	32866	32678	
659	0	32828	32758	
660	0	32812	32790	
661	0	32784	32756	
662	0	32808	32668	
663	0	32824	32796	
664	0	32802	32860	
665	0	32798	32722	
666	0	32774	32804	
667	0	32824	32796	
668	0	32812	32672	
669	0	32808	32728	
670	0	32812	32768	
671	0	32856	32800	
672	0	32748	32758	
673	0	32790	32818	
674	0	32900	32694	
675	0	32824	32828	
676	0	32864	32742	
677	0	32810	32716	
678	0	32846	32774	
679	0	32826	32858	
680	0	32752	32667	
681	0	32840	32716	
682	0	32792	32732	
683	0	32776	32903	
684	0	32848	32775	
685	0	32820	32770	
686	0	32812	32688	
687	0	32816	32744	
688	0	32720	32784	
689	0	32802	32738	
690	0	32821	32826	
691	0	32848	32686	
692	0	32856	32750	
693	0	32864	32772	
694	0	32848	32710	
695	0	32780	32758	
696	0	32798	32812	
697	0	32828	32754	
698	0	32826	32711	
699	0	32788	32858	
700	0	32760	32834	
701	0	32868	32775	
702	0	32770	32892	
703	0	32794	32804	
704	0	32796	32814	
705	0	32784	32646	
706	0	32816	32775	
707	0	32884	32750	
708	0	32768	32704	
709	0	32838	32791	
710	0	32844	32886	
711	0	32818	32728	
712	0	32841	32822	
713	0	32840	32784	
714	0	32794	32730	
715	0	32820	32815	
716	0	32754	32816	
717	0	32850	32775	
718	0	32778	32694	
719	0	32840	32732	
720	0	32828	32772	
721	0	32802	32808	
722	0	32848	32756	
723	0	32816	32886	
724	0	32796	32854	
725	0	32812	32884	
726	0	32808	32634	
727	0	32802	32810	
728	0	32760	32716	
729	0	32828	32826	
730	0	32874	32686	
731	0	32816	32764	
732	0	32810	32882	
733	0	32828	32650	
734	0	32796	32726	
735	0	32784	32856	
736	0	32900	32744	
737	0	32780	32825	
738	0	32836	32775	
739	0	32912	32652	
740	0	32816	32771	
741	0	32848	32838	
742	0	32792	32758	
743	0	32816	32759	
744	0	32816	32831	
745	0	32794	32655	
746	0	32782	32784	
747	0	32791	32855	
748	0	32774	32792	
749	0	32760	32806	
750	0	32798	32790	
751	0	32824	32724	
752	0	32844	32663	
753	0	32856	32836	
754	0	32832	32784	
755	0	32832	32800	
756	0	32824	32728	
757	0	32780	32762	
758	0	32868	32838	
759	0	32832	32742	
760	0	32822	32800	
761	0	32790	32804	
762	0	32814	32718	
763	0	32762	32796	
764	0	32850	32810	
765	0	32808	32836	
766	0	32792	32734	
767	0	32804	32726	
768	0	32801	32764	
769	0	32816	32806	
770	0	32832	32708	
771	0	32860	32828	
772	0	32824	32799	
773	0	32790	32724	
774	0	32788	32757	
775	0	32822	32700	
776	0	32824	32820	
777	0	32822	32775	
778	0	32824	32730	
779	0	32844	32812	
780	0	32788	32746	
781	0	32812	32740	
782	0	32780	32742	
783	0	32800	32793	
784	0	32820	32838	
785	0	32832	32762	
786	0	32772	32750	
787	0	32808	32750	
788	0	32764	32734	
789	0	32804	32775	
790	0	32804	32680	
791	0	32824	32814	
792	0	32812	32775	
793	0	32898	32764	
794	0	32840	32804	
795	0	32768	32838	
796	0	32812	32775	
797	0	32862	32808	
798	0	32800	32628	
799	0	32858	32774	
800	0	32800	32804	
801	0	32762	32774	
802	0	32839	32706	
803	0	32800	32708	
804	0	32816	32807	
805	0	32826	32770	
806	0	32828	32700	
807	0	32780	32764	
808	0	32788	32775	
809	0	32828	32698	
810	0	32860	32775	
811	0	32768	32821	
812	0	32772	32694	
813	0	32872	32758	
814	0	32814	32692	
815	0	32864	32828	
816	0	32828	32827	
817	0	32840	32704	
818	0	32830	32806	
819	0	32788	32764	
820	0	32836	32692	
821	0	32838	32864	
822	0	32836	32798	
823	0	32812	32710	
824	0	32840	32794	
825	0	32820	32743	
826	0	32804	32694	
827	0	32830	32784	
828	0	32804	32775	
829	0	32816	32683	
830	0	32760	32759	
831	0	32820	32878	
832	0	32828	32767	
833	0	32836	32804	
834	0	32778	32742	
835	0	32848	32828	
836	0	32852	32768	
837	0	32804	32758	
838	0	32792	32766	
839	0	32796	32712	
840	0	32792	32826	
841	0	32814	32743	
842	0	32764	32708	
843	0	32864	32734	
844	0	32826	32810	
845	0	32788	32828	
846	0	32792	32731	
847	0	32814	32732	
848	0	32800	32731	
849	0	32764	32762	
850	0	32800	32766	
851	0	32784	32855	
852	0	32864	32762	
853	0	32828	32854	
854	0	32862	32793	
855	0	32880	32666	
856	0	32782	32792	
857	0	32784	32671	
858	0	32800	32702	
859	0	32822	32862	
860	0	32792	32726	
861	0	32840	32892	
862	0	32830	32738	
863	0	32800	32766	
864	0	32818	32847	
865	0	32792	32693	
866	0	32800	32808	
867	0	32806	32767	
868	0	32836	32734	
869	0	32774	32844	
870	0	32810	32782	
871	0	32776	32724	
872	0	32852	32884	
873	0	32868	32794	
874	0	32848	32647	
875	0	32780	32826	
876	0	32780	32798	
877	0	32864	32724	
878	0	32802	32775	
879	0	32824	32738	
880	0	32824	32795	
881	0	32832	32788	
882	0	32780	32710	
883	0	32792	32742	
884	0	32828	32865	
885	0	32756	32826	
886	0	32788	32796	
887	0	32837	32756	
888	0	32816	32760	
889	0	32872	32625	
890	0	32816	32766	
891	0	32864	32782	
892	0	32824	32797	
893	0	32810	32768	
894	0	32784	32672	
895	0	32774	32670	
896	0	32824	32724	
897	0	32818	32766	
898	0	32784	32849	
899	0	32856	32807	
900	0	32814	32768	
901	0	32872	32816	
902	0	32858	32824	
903	0	32748	32775	
904	0	32816	32863	
905	0	32852	32752	
906	0	32832	32812	
907	0	32764	32746	
908	0	32884	32764	
909	0	32792	32740	
910	0	32770	32774	
911	0	32808	32671	
912	0	32792	32775	
913	0	32828	32770	
914	0	32856	32759	
915	0	32772	32816	
916	0	32872	32718	
917	0	32856	32850	
918	0	32818	32775	
919	0	32820	32714	
920	0	32824	32820	
921	0	32794	32708	
922	0	32804	32774	
923	0	32800	32714	
924	0	32778	32807	
925	0	32842	32842	
926	0	32794	32730	
927	0	32816	32802	
928	0	32798	32768	
929	0	32828	32682	
930	0	32784	32832	
931	0	32808	32710	
932	0	32848	32732	
933	0	32816	32844	
934	0	32728	32675	
935	0	32796	32756	
936	0	32824	32775	
937	0	32826	32834	
938	0	32838	32820	
939	0	32880	32750	
940	0	32842	32791	
941	0	32780	32772	
942	0	32836	32775	
943	0	32860	32768	
944	0	32806	32710	
945	0	32792	32878	
946	0	32760	32854	
947	0	32812	32705	
948	0	32800	32806	
949	0	32868	32764	
950	0	32780	32760	
951	0	32792	32882	
952	0	32804	32738	
953	0	32830	32714	
954	0	32826	32798	
955	0	32816	32714	
956	0	32752	32860	
957	0	32841	32775	
958	0	32864	32808	
959	0	32828	32823	
960	0	32840	32729	
961	0	32746	32732	
962	0	32760	32708	
963	0	32852	32820	
964	0	32828	32814	
965	0	32818	32751	
966	0	32814	32806	
967	0	32856	32712	
968	0	32796	32820	
969	0	32864	32824	
970	0	32768	32726	
971	0	32806	32806	
972	0	32780	32847	
973	0	32812	32788	
974	0	32824	32740	
975	0	32800	32758	
976	0	32750	32732	
977	0	32820	32888	
978	0	32772	32711	
979	0	32793	32766	
980	0	32844	32871	
981	0	32774	32828	
982	0	32806	32769	
983	0	32860	32748	
984	0	32788	32838	
985	0	32868	32775	
986	0	32852	32756	
987	0	32810	32896	
988	0	32794	32827	
989	0	32874	32676	
990	0	32844	32775	
991	0	32768	32846	
992	0	32844	32722	
993	0	32760	32740	
994	0	32804	32708	
995	0	32832	32740	
996	0	32774	32849	
997	0	32816	32647	
998	0	32840	32732	
999	0	32846	32812	
1000	0	32844	32706	
1001	0	32768	32760	
1002	0	32812	32742	
1003	0	32800	32868	
1004	0	32860	32826	
1005	0	32784	32704	
1006	0	32808	32740	
1007	0	32748	32807	
1008	0	32780	32730	
1009	0	32812	32758	
1010	0	32904	32714	
1011	0	32776	32704	
1012	0	32750	32743	
1013	0	32840	32862	
1014	0	32828	32772	
1015	0	32800	32734	
1016	0	32860	32794	
1017	0	32808	32853	
1018	0	32800	32647	
1019	0	32880	32814	
1020	0	32812	32862	
1021	0	32860	32772	
1022	0	32752	32692	
1023	0	32784	32738	
1024	0	32820	32760	
1025	0	32826	32836	
1026	0	32850	32678	
1027	0	32848	32740	
1028	0	32760	32678	
1029	0	32816	32738	
1030	0	32740	32745	
1031	0	32753	32830	
1032	0	32836	32807	
1033	0	32900	32708	
1034	0	32828	32730	
1035	0	32858	32775	
1036	0	32764	32732	
1037	0	32790	32726	
1038	0	32760	32806	
1039	0	32785	32682	
1040	0	32816	32900	
1041	0	32772	32771	
1042	0	32732	32710	
1043	0	32761	32746	
1044	0	32820	32692	
1045	0	32884	32887	
1046	0	32768	32720	
1047	0	32796	32666	
1048	0	32808	32820	
1049	0	32844	32834	
1050	0	32808	32762	
1051	0	32794	32775	
1052	0	32836	32714	
1053	0	32808	32764	
1054	0	32808	32826	
1055	0	32808	32856	
1056	0	32802	32838	
1057	0	32792	32722	
1058	0	32858	32730	
1059	0	32788	32756	
1060	0	32784	32792	
1061	0	32772	32650	
1062	0	32816	32824	
1063	0	32794	32862	
1064	0	32766	32708	
1065	0	32802	32864	
1066	0	32892	32764	
1067	0	32758	32650	
1068	0	32756	32772	
1069	0	32852	32740	
1070	0	32786	32674	
1071	0	32868	32775	
1072	0	32852	32830	
1073	0	32788	32767	
1074	0	32796	32898	
1075	0	32852	32913	
1076	0	32834	32807	
1077	0	32896	32711	
1078	0	32924	32903	
1079	0	32920	32848	
1080	0	32856	32860	
1081	0	32878	32796	
1082	0	32920	32764	
1083	0	32888	32690	
1084	0	32816	32775	
1085	0	32784	32775	
1086	0	32810	32766	
1087	0	32700	32836	
1088	0	32782	32736	
1089	0	32728	32775	
1090	0	32704	32686	
1091	0	32708	32756	
1092	0	32732	32652	
1093	0	32684	32692	
1094	0	32680	32582	
1095	0	32810	32758	
1096	0	32760	32672	
1097	0	32828	32718	
1098	0	32874	32750	
1099	0	32856	32720	
1100	0	32872	32775	
1101	0	32868	32882	
1102	0	32856	32802	
1103	0	32894	32775	
1104	0	32776	32754	
1105	0	32784	32743	
1106	0	32842	32764	
1107	0	32834	32712	
1108	0	32808	32772	
1109	0	32884	32751	
1110	0	32760	32800	
1111	0	32778	32890	
1112	0	32752	32732	
1113	0	32860	32815	
1114	0	32792	32718	
1115	0	32780	32730	
1116	0	32748	32654	
1117	0	32800	32744	
1118	0	32796	32652	
1119	0	32828	32739	
1120	0	32728	32718	
1121	0	32742	32796	
1122	0	32752	32738	
1123	0	32711	32743	
1124	0	32716	32716	
1125	0	32792	32756	
1126	0	32718	32775	
1127	0	32752	32695	
1128	0	32740	32732	
1129	0	32776	32652	
1130	0	32948	32772	
1131	0	32842	32644	
1132	0	32832	32750	
1133	0	32864	32704	
1134	0	32884	32780	
1135	0	32924	32910	
1136	0	32890	32880	
1137	0	32884	33000	
1138	0	32864	33024	
1139	0	32936	32946	
1140	0	32988	33056	
1141	0	33014	32976	
1142	0	32894	33020	
1143	0	32878	32903	
1144	0	32866	32868	
1145	0	32896	32860	
1146	0	32832	32942	
1147	0	32852	32956	
1148	0	32900	32962	
1149	0	33004	32924	
1150	0	32972	32967	
1151	0	32876	32916	
1152	0	32896	32880	
1153	0	32772	32886	
1154	0	32736	32848	
1155	0	32776	32784	
1156	0	32700	32654	
1157	0	32724	32698	
1158	0	32680	32591	
1159	0	32700	32510	
1160	0	32652	32486	
1161	0	32712	32540	
1162	0	32704	32548	
1163	0	32758	32569	
1164	0	32668	32692	
1165	0	32772	32616	
1166	0	32734	32670	
1167	0	32840	32648	
1168	0	32938	32530	
1169	0	32894	32664	
1170	0	32840	32672	
1171	0	32952	32680	
1172	0	32836	32664	
1173	0	32804	32775	
1174	0	32776	32783	
1175	0	32768	32790	
1176	0	32788	32768	
1177	0	32840	32736	
1178	0	32840	32849	
1179	0	32936	32771	
1180	0	32948	32838	
1181	0	32884	32904	
1182	0	32821	32808	
1183	0	32768	32816	
1184	0	32644	32771	
1185	0	32672	32979	
1186	0	32634	32848	
1187	0	32688	32903	
1188	0	32784	32768	
1189	0	32844	32636	
1190	0	32900	32692	
1191	0	32914	32674	
1192	0	32880	32852	
1193	0	32868	32772	
1194	0	32884	32751	
1195	0	32932	32820	
1196	0	32826	32790	
1197	0	32788	32600	
1198	0	32736	32828	
1199	0	32768	32924	
1200	0	32800	32884	
1201	0	32752	33052	
1202	0	32876	32934	
1203	0	32764	32807	
1204	0	32740	32726	
1205	0	32766	32738	
1206	0	32730	32558	
1207	0	32818	32590	
1208	0	32808	32670	
1209	0	32864	32698	
1210	0	32812	32650	
1211	0	32818	32586	
1212	0	32714	32656	
1213	0	32874	32695	
1214	0	32804	32774	
1215	0	32784	32622	
1216	0	32834	32714	
1217	0	32816	32834	
1218	0	32820	32743	
1219	0	32804	32792	
1220	0	32838	32775	
1221	0	32788	32796	
1222	0	32884	32916	
1223	0	32856	32748	
1224	0	32832	32798	
1225	0	32904	32790	
1226	0	32760	32821	
1227	0	32762	32810	
1228	0	32782	32790	
1229	0	32850	32926	
1230	0	32804	32810	
1231	0	32824	32826	
1232	0	32816	32838	
1233	0	32824	32828	
1234	0	32840	32894	
1235	0	32828	32732	
1236	0	32848	32750	
1237	0	32740	32775	
1238	0	32816	32714	
1239	0	32684	32672	
1240	0	32688	32676	
1241	0	32836	32822	
1242	0	32856	32806	
1243	0	32800	32796	
1244	0	32880	32832	
1245	0	32920	32616	
1246	0	32772	32694	
1247	0	32820	32772	
1248	0	32766	32668	
1249	0	32832	32822	
1250	0	32848	32887	
1251	0	32860	32696	
1252	0	32840	32832	
1253	0	32842	32770	
1254	0	32828	32775	
1255	0	32870	32854	
1256	0	32912	32820	
1257	0	32868	32986	
1258	0	32840	32860	
1259	0	32804	32772	
1260	0	32806	32847	
1261	0	32760	32775	
1262	0	32752	32772	
1263	0	32790	32692	
1264	0	32736	32632	
1265	0	32738	32718	
1266	0	32666	32558	
1267	0	32774	32700	
1268	0	32762	32647	
1269	0	32856	32758	
1270	0	32766	32632	
1271	0	32780	32804	
1272	0	32938	32768	
1273	0	32932	32743	
1274	0	32928	32796	
1275	0	32868	32647	
1276	0	32856	32671	
1277	0	32780	32570	
1278	0	32752	32760	
1279	0	32730	32688	
1280	0	32652	32764	
1281	0	32696	32774	
1282	0	32840	32788	
1283	0	32736	32920	
1284	0	32840	32888	
1285	0	32892	32838	
1286	0	32868	32775	
1287	0	32846	32806	
1288	0	32888	32798	
1289	0	32916	32936	
1290	0	32822	32903	
1291	0	32802	33042	
1292	0	32768	33024	
1293	0	32760	32908	
1294	0	32736	32938	
1295	0	32732	32772	
1296	0	32840	32775	
1297	0	32808	32734	
1298	0	32964	32728	
1299	0	32852	32714	
1300	0	32800	32647	
1301	0	32812	32772	
1302	0	32830	32630	
1303	0	32760	32842	
1304	0	32776	32796	
1305	0	32812	32689	
1306	0	32686	32752	
1307	0	32748	32686	
1308	0	32816	32806	
1309	0	32788	32902	
1310	0	32934	32738	
1311	0	32878	32740	
1312	0	32832	32668	
1313	0	32778	32738	
1314	0	32716	32638	
1315	0	32812	32679	
1316	0	32768	32590	
1317	0	32872	32672	
1318	0	32816	32614	
1319	0	32856	32518	
1320	0	32862	32587	
1321	0	32832	32590	
1322	0	32816	32824	
1323	0	32912	32798	
1324	0	32868	32894	
1325	0	32928	32908	
1326	0	32862	32924	
1327	0	32752	32868	
1328	0	32712	32864	
1329	0	32702	32944	
1330	0	32684	32870	
1331	0	32692	32902	
1332	0	32872	32958	
1333	0	32776	32864	
1334	0	32746	32888	
1335	0	32706	32825	
1336	0	32854	32926	
1337	0	32816	32770	
1338	0	32826	32874	
1339	0	32804	32628	
1340	0	32820	32578	
1341	0	32788	32678	
1342	0	32888	32654	
1343	0	32828	32804	
1344	0	32872	32700	
1345	0	32800	32755	
1346	0	32828	32654	
1347	0	32748	32688	
1348	0	32816	32754	
1349	0	32725	32814	
1350	0	32764	32734	
1351	0	32870	32967	
1352	0	32952	32821	
1353	0	32898	32766	
1354	0	32860	32726	
1355	0	32872	32740	
1356	0	32872	32636	
1357	0	32856	32610	
1358	0	32778	32602	
1359	0	32830	32634	
1360	0	32736	32690	
1361	0	32724	32508	
1362	0	32820	32804	
1363	0	32888	32828	
1364	0	32846	32760	
1365	0	32830	32736	
1366	0	32812	32775	
1367	0	32864	32832	
1368	0	32664	32775	
1369	0	32712	32774	
1370	0	32706	32810	
1371	0	32714	32860	
1372	0	32840	32826	
1373	0	32742	32847	
1374	0	32782	32775	
1375	0	32588	32758	
1376	0	32764	32899	
1377	0	33024	32872	
1378	0	33192	32796	
1379	0	32948	32927	
1380	0	33008	32910	
1381	0	32892	32842	
1382	0	32810	32930	
1383	0	32860	32860	
1384	0	32760	32770	
1385	0	32706	32807	
1386	0	32762	32664	
1387	0	32776	32724	
1388	0	32778	32773	
1389	0	32992	32702	
1390	0	32824	32668	
1391	0	32760	32580	
1392	0	32808	32700	
1393	0	32864	32703	
1394	0	32932	32654	
1395	0	32952	32636	
1396	0	33012	32664	
1397	0	32912	32826	
1398	0	32752	32805	
1399	0	32680	32946	
1400	0	32710	32964	
1401	0	32712	32836	
1402	0	32780	32868	
1403	0	32628	32708	
1404	0	32646	32775	
1405	0	32816	32586	
1406	0	32900	32692	
1407	0	32856	32797	
1408	0	32710	32690	
1409	0	32710	32868	
1410	0	32716	32732	
1411	0	32816	32780	
1412	0	32732	32662	
1413	0	32836	32772	
1414	0	32740	32710	
1415	0	32776	32648	
1416	0	32702	32720	
1417	0	32842	32772	
1418	0	32864	32679	
1419	0	32800	32748	
1420	0	32796	32762	
1421	0	33030	32922	
1422	0	32976	32914	
1423	0	32988	32884	
1424	0	33008	32898	
1425	0	32902	32788	
1426	0	32992	32808	
1427	0	32860	32898	
1428	0	32824	32834	
1429	0	32716	32726	
1430	0	32606	32708	
1431	0	32632	32711	
1432	0	32748	32674	
1433	0	32774	32693	
1434	0	32740	32692	
1435	0	32806	32764	
1436	0	32704	32788	
1437	0	32820	33038	
1438	0	32734	32938	
1439	0	32852	32874	
1440	0	32986	32824	
1441	0	32898	32756	
1442	0	32784	32702	
1443	0	32868	32806	
1444	0	32896	32646	
1445	0	32724	32688	
1446	0	32620	32679	
1447	0	32776	32700	
1448	0	32840	32720	
1449	0	32944	32678	
1450	0	32802	32640	
1451	0	32820	32552	
1452	0	32939	32647	
1453	0	32844	32570	
1454	0	32708	32612	
1455	0	32806	32646	
1456	0	32792	32799	
1457	0	32706	32734	
1458	0	32772	32796	
1459	0	32840	32854	
1460	0	32810	32742	
1461	0	33044	32839	
1462	0	32882	32847	
1463	0	32920	32906	
1464	0	32888	32918	
1465	0	32788	32858	
1466	0	32760	32796	
1467	0	32808	32890	
1468	0	32712	32826	
1469	0	32548	32885	
1470	0	32586	32831	
1471	0	32922	32874	
1472	0	32882	32865	
1473	0	32746	32958	
1474	0	32840	32938	
1475	0	32868	32967	
1476	0	32962	32775	
1477	0	32962	32708	
1478	0	32908	32841	
1479	0	32596	32824	
1480	0	32760	32604	
1481	0	32792	32768	
1482	0	32832	32647	
1483	0	32810	32858	
1484	0	32724	32898	
1485	0	32684	32900	
1486	0	32744	32812	
1487	0	32780	32540	
1488	0	32712	32624	
1489	0	32696	32646	
1490	0	32794	32622	
1491	0	32824	32682	
1492	0	32858	32678	
1493	0	32946	32822	
1494	0	32752	32775	
1495	0	32692	32800	
1496	0	32816	32706	
1497	0	33012	32844	
1498	0	32936	32674	
1499	0	32758	32760	
1500	0	32652	32714	
1501	0	32896	32775	
1502	0	32916	32628	
1503	0	32980	32710	
1504	0	32760	32856	
1505	0	33272	32718	
1506	0	33116	32800	
1507	0	32866	32846	
1508	0	32886	33014	
1509	0	32816	32884	
1510	0	32752	32812	
1511	0	32592	32700	
1512	0	32766	32694	
1513	0	32944	32682	
1514	0	33208	32742	
1515	0	32968	32660	
1516	0	32872	32756	
1517	0	32636	32726	
1518	0	32428	32820	
1519	0	32382	32722	
1520	0	32488	32736	
1521	0	32584	32624	
1522	0	32630	32732	
1523	0	32624	32775	
1524	0	32706	32690	
1525	0	32702	32670	
1526	0	32792	32658	
1527	0	32906	32694	
1528	0	32924	32768	
1529	0	32926	32770	
1530	0	33038	32839	
1531	0	33008	32836	
1532	0	33100	32808	
1533	0	32964	32754	
1534	0	32840	32676	
1535	0	32788	32696	
1536	0	32752	32614	
1537	0	32680	32696	
1538	0	32700	32774	
1539	0	32624	32775	
1540	0	32744	32700	
1541	0	32768	32596	
1542	0	32688	32740	
1543	0	32656	32710	
1544	0	32804	32842	
1545	0	32724	32870	
1546	0	32764	32840	
1547	0	32666	32900	
1548	0	32868	32862	
1549	0	32760	32903	
1550	0	32832	32910	
1551	0	32868	32942	
1552	0	32972	32788	
1553	0	32960	32772	
1554	0	32982	32620	
1555	0	32868	32810	
1556	0	32816	32868	
1557	0	32886	32676	
1558	0	32932	32676	
1559	0	32928	32630	
1560	0	32844	32726	
1561	0	32820	32756	
1562	0	32782	32996	
1563	0	32908	32968	
1564	0	32944	32890	
1565	0	32890	32940	
1566	0	32800	32756	
1567	0	32856	32836	
1568	0	32836	32689	
1569	0	32728	32786	
1570	0	32696	32828	
1571	0	32676	32766	
1572	0	32780	32795	
1573	0	32848	32832	
1574	0	32900	32876	
1575	0	32740	32775	
1576	0	32647	32580	
1577	0	32708	32550	
1578	0	32828	32504	
1579	0	33058	32654	
1580	0	33056	32706	
1581	0	32834	32700	
1582	0	32836	32828	
1583	0	33104	32742	
1584	0	33056	32870	
1585	0	32836	32932	
1586	0	32632	32944	
1587	0	32708	32912	
1588	0	33002	32764	
1589	0	32772	32864	
1590	0	32718	32788	
1591	0	32692	32567	
1592	0	32772	32631	
1593	0	32872	32660	
1594	0	32917	32468	
1595	0	32888	32512	
1596	0	32616	32462	
1597	0	32762	32596	
1598	0	32740	32551	
1599	0	32668	32739	
1600	0	32652	32762	
1601	0	32584	32838	
1602	0	32782	32928	
1603	0	32760	32878	
1604	0	32740	32920	
1605	0	32874	32900	
1606	0	32688	32850	
1607	0	32474	32848	
1608	0	32510	32896	
1609	0	32624	32742	
1610	0	33032	32826	
1611	0	33316	32978	
1612	0	33420	32988	
1613	0	33210	32970	
1614	0	32814	32894	
1615	0	32588	32821	
1616	0	32828	32887	
1617	0	33064	32716	
1618	0	33000	32784	
1619	0	33000	32636	
1620	0	32756	32694	
1621	0	32836	32640	
1622	0	32618	32636	
1623	0	32706	32540	
1624	0	32544	32642	
1625	0	32736	32534	
1626	0	32672	32614	
1627	0	32548	32624	
1628	0	32672	32630	
1629	0	32612	32710	
1630	0	32636	32764	
1631	0	32752	32838	
1632	0	32692	33016	
1633	0	32700	32966	
1634	0	33036	32944	
1635	0	32894	32842	
1636	0	32932	32724	
1637	0	32984	32715	
1638	0	33090	32920	
1639	0	32926	32764	
1640	0	32744	32799	
1641	0	32732	32836	
1642	0	32816	32862	
1643	0	33364	32750	
1644	0	33318	32868	
1645	0	32896	32716	
1646	0	32724	32692	
1647	0	32580	32660	
1648	0	32660	32586	
1649	0	32472	32586	
1650	0	32326	32586	
1651	0	32636	32626	
1652	0	32572	32800	
1653	0	32618	32796	
1654	0	33182	33018	
1655	0	33416	33152	
1656	0	33462	33056	
1657	0	33284	33094	
1658	0	32872	32740	
1659	0	32728	32817	
1660	0	32828	32754	
1661	0	32666	32952	
1662	0	32514	32934	
1663	0	32444	32788	
1664	0	32552	32782	
1665	0	32418	32596	
1666	0	32528	32596	
1667	0	32406	32478	
1668	0	32252	32615	
1669	0	32632	32630	
1670	0	33238	32582	
1671	0	33288	32660	
1672	0	33572	32548	
1673	0	33420	32864	
1674	0	33170	32871	
1675	0	32668	32818	
1676	0	32674	32942	
1677	0	32704	33068	
1678	0	32928	33031	
1679	0	32970	32924	
1680	0	32890	33030	
1681	0	32416	33092	
1682	0	32908	32886	
1683	0	33202	32749	
1684	0	33310	32588	
1685	0	33076	32586	
1686	0	32432	32495	
1687	0	32478	32252	
1688	0	32288	32082	
1689	0	32394	32144	
1690	0	32488	32184	
1691	0	32478	32370	
1692	0	32500	32483	
1693	0	32424	32594	
1694	0	32430	32752	
1695	0	33004	32932	
1696	0	33200	32834	
1697	0	33132	33002	
1698	0	33014	32966	
1699	0	32966	33012	
1700	0	32940	33176	
1701	0	32904	33054	
1702	0	32828	32910	
1703	0	32594	33078	
1704	0	33112	33052	
1705	0	32940	32978	
1706	0	33496	33024	
1707	0	33824	32972	
1708	0	33924	32996	
1709	0	33326	32954	
1710	0	32232	32766	
1711	0	31628	32838	
1712	0	32148	32895	
1713	0	32168	32772	
1714	0	32292	32753	
1715	0	32496	32620	
1716	0	32472	32652	
1717	0	32244	32702	
1718	0	32318	32683	
1719	0	32652	32734	
1720	0	32676	32666	
1721	0	32849	32752	
1722	0	33054	32774	
1723	0	33016	32663	
1724	0	33076	32690	
1725	0	32956	32540	
1726	0	32804	32655	
1727	0	33012	32471	
1728	0	32962	32606	
1729	0	32982	32716	
1730	0	32916	32884	
1731	0	32980	32958	
1732	0	33312	32932	
1733	0	33412	33038	
1734	0	32828	32802	
1735	0	32812	32926	
1736	0	33038	32967	
1737	0	33464	32798	
1738	0	33044	32978	
1739	0	33204	32882	
1740	0	32964	32884	
1741	0	32628	32676	
1742	0	32338	32662	
1743	0	32326	32674	
1744	0	32292	32638	
1745	0	32372	32446	
1746	0	32434	32657	
1747	0	32568	32534	
1748	0	32472	32666	
1749	0	32676	32764	
1750	0	32660	32876	
1751	0	32624	33052	
1752	0	32696	32982	
1753	0	33126	33000	
1754	0	33272	32858	
1755	0	33530	32882	
1756	0	33528	32826	
1757	0	33296	32828	
1758	0	32708	32634	
1759	0	32806	32608	
1760	0	33436	32654	
1761	0	32912	32728	
1762	0	32504	32634	
1763	0	32844	32834	
1764	0	32262	32840	
1765	0	31952	32801	
1766	0	32244	32742	
1767	0	32644	32564	
1768	0	33056	32596	
1769	0	32956	32402	
1770	0	32804	32262	
1771	0	33054	32424	
1772	0	32784	32330	
1773	0	32680	32411	
1774	0	32498	32730	
1775	0	32336	32820	
1776	0	32180	32672	
1777	0	32036	33022	
1778	0	33048	33042	
1779	0	33568	33008	
1780	0	33148	33310	
1781	0	33468	33444	
1782	0	33704	33370	
1783	0	34048	33414	
1784	0	33716	33068	
1785	0	33172	32792	
1786	0	33008	32868	
1787	0	32500	32720	
1788	0	31810	32542	
1789	0	31831	32584	
1790	0	32040	32414	
1791	0	31550	32388	
1792	0	31718	32096	
1793	0	32628	31928	
1794	0	32782	32130	
1795	0	32912	32305	
1796	0	32836	32512	
1797	0	32980	32562	
1798	0	32964	32708	
1799	0	33156	32806	
1800	0	33328	32718	
1801	0	33316	32902	
1802	0	32992	32998	
1803	0	32764	32750	
1804	0	32656	32927	
1805	0	32492	32999	
1806	0	32976	33134	
1807	0	33532	33362	
1808	0	33156	33486	
1809	0	32594	33346	
1810	0	33292	33473	
1811	0	33228	33543	
1812	0	33050	33894	
1813	0	32692	33914	
1814	0	32092	33530	
1815	0	32510	33306	
1816	0	33120	32950	
1817	0	33956	32615	
1818	0	33302	32276	
1819	0	33504	31783	
1820	0	33160	31604	
1821	0	32552	31394	
1822	0	32152	31344	
1823	0	31792	31218	
1824	0	31858	31370	
1825	0	31788	31770	
1826	0	32044	32060	
1827	0	32482	32572	
1828	0	32632	32886	
1829	0	32900	33066	
1830	0	32972	33220	
1831	0	33096	33401	
1832	0	33140	33666	
1833	0	33288	33612	
1834	0	33226	33838	
1835	0	33320	33918	
1836	0	32932	33496	
1837	0	32990	33287	
1838	0	33410	33054	
1839	0	33080	32980	
1840	0	33172	32966	
1841	0	33274	32880	
1842	0	32516	32600	
1843	0	32700	32422	
1844	0	33536	32455	
1845	0	32960	32074	
1846	0	32764	32062	
1847	0	32804	31951	
1848	0	32336	31878	
1849	0	31930	31974	
1850	0	31574	31944	
1851	0	31888	32142	
1852	0	32240	32550	
1853	0	32368	32726	
1854	0	32588	33130	
1855	0	32876	33364	
1856	0	32292	33388	
1857	0	33576	33364	
1858	0	34634	33404	
1859	0	35324	33588	
1860	0	34812	33439	
1861	0	32908	33332	
1862	0	32464	33050	
1863	0	32708	32743	
1864	0	31696	32412	
1865	0	31110	32372	
1866	0	31104	32208	
1867	0	31788	32260	
1868	0	32088	32417	
1869	0	32304	32230	
1870	0	32788	32204	
1871	0	32578	32428	
1872	0	32548	32422	
1873	0	33010	32664	
1874	0	33880	33026	
1875	0	33308	33168	
1876	0	33384	33062	
1877	0	33636	33223	
1878	0	33002	33191	
1879	0	33116	33046	
1880	0	33250	33159	
1881	0	33226	33178	
1882	0	33012	33062	
1883	0	32804	33038	
1884	0	32368	32854	
1885	0	32664	32519	
1886	0	32720	32535	
1887	0	32556	32530	
1888	0	32712	32388	
1889	0	32588	32334	
1890	0	32248	32391	
1891	0	32626	32519	
1892	0	33136	32630	
1893	0	32748	32559	
1894	0	32612	32743	
1895	0	32704	32702	
1896	0	32154	32654	
1897	0	32534	32766	
1898	0	33442	32712	
1899	0	33444	32858	
1900	0	33320	32990	
1901	0	33244	33152	
1902	0	32866	32932	
1903	0	32590	32922	
1904	0	32484	32808	
1905	0	32756	32872	
1906	0	33124	33031	
1907	0	33000	33060	
1908	0	33106	32936	
1909	0	32870	33118	
1910	0	32952	33255	
1911	0	32968	33020	
1912	0	32280	32712	
1913	0	32360	32460	
1914	0	33092	32274	
1915	0	32928	32330	
1916	0	32382	32292	
1917	0	32494	32322	
1918	0	32644	32480	
1919	0	32480	32584	
1920	0	33550	32801	
1921	0	34344	32712	
1922	0	33546	32888	
1923	0	33646	32894	
1924	0	33452	32977	
1925	0	33172	33040	
1926	0	32522	32900	
1927	0	32593	32812	
1928	0	31764	33104	
1929	0	33184	32884	
1930	0	34084	33030	
1931	0	32576	32879	
1932	0	31348	33086	
1933	0	31246	32976	
1934	0	31376	32684	
1935	0	31436	32204	
1936	0	31654	32040	
1937	0	32040	31982	
1938	0	32450	32040	
1939	0	32638	31879	
1940	0	32672	32038	
1941	0	32932	32300	
1942	0	33576	32494	
1943	0	33074	32624	
1944	0	32609	32896	
1945	0	34544	33052	
1946	0	34705	32980	
1947	0	34388	33274	
1948	0	33700	33358	
1949	0	33136	33248	
1950	0	32644	33446	
1951	0	33284	33568	
1952	0	32968	33322	
1953	0	32580	33270	
1954	0	32416	33082	
1955	0	32072	32620	
1956	0	32172	32623	
1957	0	31988	32616	
1958	0	31732	32518	
1959	0	32084	32566	
1960	0	32012	32348	
1961	0	32824	32302	
1962	0	33064	32356	
1963	0	32920	32500	
1964	0	32772	32546	
1965	0	33492	32647	
1966	0	33760	32864	
1967	0	32942	32876	
1968	0	33900	32791	
1969	0	33742	32879	
1970	0	33024	32822	
1971	0	32254	32814	
1972	0	32482	32636	
1973	0	32492	32532	
1974	0	32360	32616	
1975	0	32080	32570	
1976	0	32384	32582	
1977	0	32664	32660	
1978	0	32624	32544	
1979	0	32856	32628	
1980	0	32932	32478	
1981	0	32862	32519	
1982	0	32880	32644	
1983	0	32756	32818	
1984	0	33108	33204	
1985	0	33108	33130	
1986	0	32770	33162	
1987	0	32490	33098	
1988	0	33044	32962	
1989	0	33274	33040	
1990	0	32328	32950	
1991	0	32808	32828	
1992	0	33184	32910	
1993	0	33280	32980	
1994	0	33242	33070	
1995	0	32974	32942	
1996	0	32908	32684	
1997	0	33148	32711	
1998	0	32712	32688	
1999	0	33228	32580	
2000	0	32848	32374	
2001	0	32420	32583	
2002	0	32374	32432	
2003	0	32920	32544	
2004	0	32740	32598	
2005	0	32449	32740	
2006	0	32012	32662	
2007	0	32396	32470	
2008	0	33168	32459	
2009	0	32736	32438	
2010	0	32492	32644	
2011	0	32676	32578	
2012	0	32881	32433	
2013	0	32552	32483	
2014	0	32568	32460	
2015	0	32816	32956	
2016	0	32524	33012	
2017	0	32304	33040	
2018	0	32420	33096	
2019	0	33292	32992	
2020	0	32900	32860	
2021	0	32780	32586	
2022	0	33816	32524	
2023	0	33732	32676	
2024	0	32630	32418	
2025	0	32709	32724	
2026	0	32784	33028	
2027	0	33064	32610	
2028	0	33908	32596	
2029	0	32496	32865	
2030	0	32472	32860	
2031	0	34336	32916	
2032	0	34356	32758	
2033	0	33296	32384	
2034	0	32336	32464	
2035	0	31425	32536	
2036	0	30954	32534	
2037	0	31780	32543	
2038	0	32576	32946	
2039	0	32282	32848	
2040	0	32164	32760	
2041	0	32092	32732	
2042	0	32292	32667	
2043	0	32364	32884	
2044	0	32724	32924	
2045	0	33004	33000	
2046	0	32950	33031	
2047	0	32892	33200	
2048	0	33112	33450	
2049	0	33048	33574	
2050	0	33448	33596	
2051	0	33072	33580	
2052	0	33576	33788	
2053	0	34556	33415	
2054	0	33857	33188	
2055	0	33678	32874	
2056	0	33116	32852	
2057	0	32926	32830	
2058	0	32544	32244	
2059	0	32750	32208	
2060	0	32148	32018	
2061	0	31756	32020	
2062	0	31432	32080	
2063	0	31578	31980	
2064	0	32308	32070	
2065	0	32292	32212	
2066	0	32240	32450	
2067	0	33188	32336	
2068	0	33250	32662	
2069	0	33136	32846	
2070	0	33024	32948	
2071	0	33400	33296	
2072	0	33184	33244	
2073	0	33344	32947	
2074	0	32934	32942	
2075	0	32826	32928	
2076	0	32152	32840	
2077	0	32160	33126	
2078	0	32602	33252	
2079	0	33452	33050	
2080	0	33688	33087	
2081	0	33144	33106	
2082	0	33068	33283	
2083	0	33448	33106	
2084	0	33124	32892	
2085	0	32452	32692	
2086	0	32154	32156	
2087	0	33288	32156	
2088	0	32880	32026	
2089	0	31984	32258	
2090	0	32282	32198	
2091	0	32528	32326	
2092	0	32708	32449	
2093	0	32496	32615	
2094	0	32568	32790	
2095	0	33506	32872	
2096	0	34576	33128	
2097	0	33152	33172	
2098	0	32792	33300	
2099	0	33456	33156	
2100	0	32932	33084	
2101	0	33060	33206	
2102	0	32216	33216	
2103	0	31852	33384	
2104	0	31176	33204	
2105	0	31608	32724	
2106	0	31424	32660	
2107	0	32888	32500	
2108	0	33148	32514	
2109	0	32972	32399	
2110	0	32802	32438	
2111	0	34276	32263	
2112	0	34288	32090	
2113	0	33668	32318	
2114	0	32918	32310	
2115	0	32092	32740	
2116	0	32200	33056	
2117	0	32602	32880	
2118	0	33120	32927	
2119	0	32898	32940	
2120	0	32420	33056	
2121	0	32354	32886	
2122	0	33520	32604	
2123	0	33078	32384	
2124	0	32968	32034	
2125	0	33516	32086	
2126	0	32576	32263	
2127	0	32950	32404	
2128	0	32910	32868	
2129	0	32224	32928	
2130	0	32388	33054	
2131	0	32460	33132	
2132	0	31732	32954	
2133	0	32748	33410	
2134	0	33422	33634	
2135	0	33218	33414	
2136	0	33552	33206	
2137	0	34364	32878	
2138	0	33924	32560	
2139	0	32600	32382	
2140	0	32188	32257	
2141	0	32128	32306	
2142	0	32104	32324	
2143	0	31950	32484	
2144	0	31748	32791	
2145	0	31980	32730	
2146	0	32158	32878	
2147	0	32412	33244	
2148	0	32788	33112	
2149	0	33140	32864	
2150	0	33256	32924	
2151	0	33308	32932	
2152	0	33346	33134	
2153	0	34188	33300	
2154	0	34052	33124	
2155	0	33904	33336	
2156	0	33384	33262	
2157	0	32548	33128	
2158	0	32536	32656	
2159	0	31826	32324	
2160	0	31938	32086	
2161	0	32394	32014	
2162	0	33452	31956	
2163	0	32922	32128	
2164	0	32598	32214	
2165	0	32933	32246	
2166	0	33856	32246	
2167	0	33278	32272	
2168	0	32530	32468	
2169	0	32376	32838	
2170	0	32370	32936	
2171	0	32228	32892	
2172	0	32360	32942	
2173	0	32404	33112	
2174	0	32160	33094	
2175	0	33188	33132	
2176	0	34034	33076	
2177	0	33688	32636	
2178	0	32644	32775	
2179	0	32468	32494	
2180	0	32060	32690	
2181	0	32048	33144	
2182	0	33096	32871	
2183	0	32858	32692	
2184	0	33240	32668	
2185	0	32450	32535	
2186	0	31892	32302	
2187	0	32618	32224	
2188	0	33720	32316	
2189	0	33458	32433	
2190	0	32986	32332	
2191	0	32988	32041	
2192	0	32952	32040	
2193	0	32208	32006	
2194	0	31906	31960	
2195	0	32564	32188	
2196	0	32736	32584	
2197	0	33204	32704	
2198	0	33410	32760	
2199	0	33782	33166	
2200	0	33684	33284	
2201	0	32858	33296	
2202	0	32292	33031	
2203	0	32700	33004	
2204	0	32938	33038	
2205	0	32652	33024	
2206	0	32460	33324	
2207	0	33154	33420	
2208	0	33180	33424	
2209	0	31876	33604	
2210	0	31268	33425	
2211	0	31804	33494	
2212	0	32484	33280	
2213	0	32676	32892	
2214	0	32849	32708	
2215	0	33412	32818	
2216	0	33544	32664	
2217	0	33736	32816	
2218	0	33264	32952	
2219	0	33092	32998	
2220	0	32952	32498	
2221	0	32588	31970	
2222	0	32736	32319	
2223	0	33024	32729	
2224	0	32852	32583	
2225	0	33448	32132	
2226	0	32134	32298	
2227	0	32602	32100	
2228	0	34378	32432	
2229	0	33088	32428	
2230	0	32790	32775	
2231	0	32988	32922	
2232	0	33330	32511	
2233	0	32920	32717	
2234	0	33324	32647	
2235	0	32514	32694	
2236	0	32422	32490	
2237	0	32820	32710	
2238	0	32760	33068	
2239	0	31668	33154	
2240	0	31352	33360	
2241	0	31042	33278	
2242	0	31308	32928	
2243	0	31704	32956	
2244	0	33132	32775	
2245	0	34108	32746	
2246	0	33992	32676	
2247	0	33612	32430	
2248	0	32584	32775	
2249	0	33532	33572	
2250	0	34488	34020	
2251	0	34052	33575	
2252	0	33492	33095	
2253	0	32640	32916	
2254	0	32708	32512	
2255	0	32108	32208	
2256	0	31380	32022	
2257	0	31124	31788	
2258	0	31240	32106	
2259	0	32584	32287	
2260	0	31844	32034	
2261	0	33536	32548	
2262	0	34960	33572	
2263	0	33780	33708	
2264	0	33240	33936	
2265	0	33136	33406	
2266	0	32732	33348	
2267	0	32100	33612	
2268	0	32709	33268	
2269	0	32430	33088	
2270	0	32002	33022	
2271	0	32270	33200	
2272	0	32256	33164	
2273	0	32764	33096	
2274	0	33104	33044	
2275	0	33336	33256	
2276	0	33372	33176	
2277	0	33792	33012	
2278	0	33082	32583	
2279	0	33580	32687	
2280	0	33320	32642	
2281	0	32356	32412	
2282	0	31832	32294	
2283	0	32548	31932	
2284	0	32360	32007	
2285	0	32616	32016	
2286	0	32684	31906	
2287	0	33012	32154	
2288	0	32636	32066	
2289	0	33344	32228	
2290	0	33254	32380	
2291	0	32632	32367	
2292	0	32692	32412	
2293	0	32730	32718	
2294	0	33774	32807	
2295	0	32720	32236	
2296	0	32622	32346	
2297	0	32506	32483	
2298	0	32392	33098	
2299	0	32804	33328	
2300	0	33530	33530	
2301	0	34198	34052	
2302	0	33636	33884	
2303	0	33252	33710	
2304	0	32498	33604	
2305	0	31746	33534	
2306	0	31276	33924	
2307	0	31612	33272	
2308	0	32516	33126	
2309	0	32482	32365	
2310	0	32158	31942	
2311	0	32280	31704	
2312	0	33798	31444	
2313	0	33824	31622	
2314	0	33060	31879	
2315	0	33856	31980	
2316	0	34090	32396	
2317	0	35418	32628	
2318	0	34696	32680	
2319	0	32888	32850	
2320	0	30660	33376	
2321	0	30976	33127	
2322	0	31636	33089	
2323	0	31928	32654	
2324	0	31476	32552	
2325	0	31744	32654	
2326	0	32192	32338	
2327	0	32272	32224	
2328	0	32100	32263	
2329	0	33222	32590	
2330	0	34092	32926	
2331	0	33550	33706	
2332	0	33160	34416	
2333	0	33560	34400	
2334	0	33784	33952	
2335	0	32760	33848	
2336	0	32476	33076	
2337	0	32316	32775	
2338	0	32840	32400	
2339	0	33700	32324	
2340	0	33048	32007	
2341	0	33360	32754	
2342	0	33128	33176	
2343	0	32276	33282	
2344	0	34206	33392	
2345	0	34384	33580	
2346	0	33134	33111	
2347	0	31836	32754	
2348	0	31016	32372	
2349	0	31180	31492	
2350	0	31976	31336	
2351	0	32116	31766	
2352	0	32530	31568	
2353	0	32272	31494	
2354	0	32494	31800	
2355	0	32786	32260	
2356	0	32316	32443	
2357	0	33388	32908	
2358	0	33406	33550	
2359	0	33168	33663	
2360	0	33254	33496	
2361	0	32870	33510	
2362	0	32806	33370	
2363	0	32938	33684	
2364	0	32636	34164	
2365	0	32852	34062	
2366	0	33304	34036	
2367	0	33340	33847	
2368	0	32996	33402	
2369	0	33924	32494	
2370	0	34452	32102	
2371	0	34030	32102	
2372	0	32940	32166	
2373	0	33694	32068	
2374	0	33976	31918	
2375	0	32392	31974	
2376	0	30276	31400	
2377	0	29384	31488	
2378	0	30496	31948	
2379	0	31584	32107	
2380	0	32346	32840	
2381	0	32852	33098	
2382	0	33744	33056	
2383	0	33658	33160	
2384	0	33602	32988	
2385	0	33928	32932	
2386	0	33872	33159	
2387	0	32942	33136	
2388	0	32442	32884	
2389	0	32240	33006	
2390	0	32540	33284	
2391	0	32996	33198	
2392	0	33456	33313	
2393	0	33484	33092	
2394	0	32832	32988	
2395	0	32712	33063	
2396	0	32682	33090	
2397	0	32464	33136	
2398	0	31656	32942	
2399	0	33382	32241	
2400	0	35156	32354	
2401	0	34528	32240	
2402	0	33600	32198	
2403	0	32964	32039	
2404	0	31392	32168	
2405	0	30898	32578	
2406	0	30878	32710	
2407	0	31858	32608	
2408	0	32080	33272	
2409	0	32550	33324	
2410	0	33212	33151	
2411	0	33794	33181	
2412	0	33530	33041	
2413	0	33044	33363	
2414	0	32132	33366	
2415	0	33058	33846	
2416	0	33264	33680	
2417	0	33514	32764	
2418	0	32688	32620	
2419	0	32230	32512	
2420	0	31996	32442	
2421	0	31728	32132	
2422	0	32316	32128	
2423	0	32952	32479	
2424	0	33157	32440	
2425	0	33572	32680	
2426	0	34006	32647	
2427	0	34434	32544	
2428	0	33612	32716	
2429	0	32276	32780	
2430	0	31616	32678	
2431	0	31648	32490	
2432	0	32144	32440	
2433	0	31392	32394	
2434	0	34956	32700	
2435	0	34040	32766	
2436	0	32752	33026	
2437	0	32782	33536	
2438	0	32456	33599	
2439	0	32028	33380	
2440	0	31818	33044	
2441	0	31972	32916	
2442	0	32564	33016	
2443	0	32322	33076	
2444	0	32824	33230	
2445	0	33590	33492	
2446	0	33060	33804	
2447	0	33248	33786	
2448	0	33292	33914	
2449	0	33416	33388	
2450	0	32824	33170	
2451	0	32900	32616	
2452	0	32818	31924	
2453	0	32720	31451	
2454	0	33198	31488	
2455	0	33456	31312	
2456	0	33444	31290	
2457	0	32608	31340	
2458	0	32324	31562	
2459	0	32104	31724	
2460	0	32506	32030	
2461	0	32952	32586	
2462	0	32684	33128	
2463	0	32868	32988	
2464	0	32504	33148	
2465	0	33204	33266	
2466	0	32812	33246	
2467	0	33158	32945	
2468	0	32604	32912	
2469	0	32656	32996	
2470	0	32954	33392	
2471	0	32562	33386	
2472	0	32238	33587	
2473	0	32652	33982	
2474	0	33252	34270	
2475	0	32728	33880	
2476	0	33084	33538	
2477	0	32760	33534	
2478	0	32508	32694	
2479	0	33106	32204	
2480	0	33764	31568	
2481	0	33092	31076	
2482	0	32968	30842	
2483	0	32972	31070	
2484	0	32614	31120	
2485	0	31404	31424	
2486	0	31660	32079	
2487	0	32246	32366	
2488	0	32478	32652	
2489	0	32820	32862	
2490	0	33548	33062	
2491	0	33284	33471	
2492	0	33164	33703	
2493	0	33132	33779	
2494	0	32688	33868	
2495	0	33024	34334	
2496	0	32996	34446	
2497	0	33368	34436	
2498	0	32672	33944	
2499	0	31852	32964	
2500	0	33518	32358	
2501	0	33836	31855	
2502	0	34032	31520	
2503	0	33556	31458	
2504	0	33014	31527	
2505	0	32460	31808	
2506	0	32780	32168	
2507	0	32156	32292	
2508	0	31610	32208	
2509	0	30850	32213	
2510	0	31128	32252	
2511	0	31568	32664	
2512	0	31886	32742	
2513	0	32452	32854	
2514	0	32866	33074	
2515	0	33344	33046	
2516	0	33280	32914	
2517	0	33152	33230	
2518	0	32404	33264	
2519	0	34264	33300	
2520	0	34128	33735	
2521	0	33108	33508	
2522	0	33028	33302	
2523	0	33404	33374	
2524	0	33194	33044	
2525	0	32764	32999	
2526	0	32596	32812	
2527	0	32544	32794	
2528	0	32632	33248	
2529	0	32768	33328	
2530	0	33268	33300	
2531	0	33560	33156	
2532	0	33704	32385	
2533	0	32919	31692	
2534	0	32056	31838	
2535	0	32356	31876	
2536	0	32996	31687	
2537	0	32620	31800	
2538	0	33432	31956	
2539	0	33830	32212	
2540	0	33504	32084	
2541	0	32544	32340	
2542	0	31806	32455	
2543	0	31710	32956	
2544	0	31588	33210	
2545	0	32098	33652	
2546	0	32586	33441	
2547	0	32372	33049	
2548	0	31902	33208	
2549	0	32116	32950	
2550	0	32770	32458	
2551	0	33596	32260	
2552	0	33304	32476	
2553	0	33330	32374	
2554	0	32994	32582	
2555	0	33232	32263	
2556	0	33632	32608	
2557	0	32964	32844	
2558	0	33734	32775	
2559	0	33168	32894	
2560	0	32839	33116	
2561	0	33516	33056	
2562	0	33610	33072	
2563	0	33896	32644	
2564	0	32968	32786	
2565	0	32576	32624	
2566	0	31604	32448	
2567	0	31472	32990	
2568	0	30856	33294	
2569	0	31876	33074	
2570	0	32344	33060	
2571	0	33718	32944	
2572	0	34264	32772	
2573	0	33696	32642	
2574	0	32732	32584	
2575	0	32880	32698	
2576	0	33548	32628	
2577	0	33560	32478	
2578	0	32996	32308	
2579	0	32308	32167	
2580	0	31584	32492	
2581	0	31496	32542	
2582	0	31936	32036	
2583	0	32184	32164	
2584	0	32206	32910	
2585	0	32290	32999	
2586	0	33436	32716	
2587	0	33200	32348	
2588	0	32772	32406	
2589	0	33456	32564	
2590	0	32932	32519	
2591	0	32740	32834	
2592	0	33032	32772	
2593	0	33134	32916	
2594	0	32928	33048	
2595	0	33144	33344	
2596	0	33646	33540	
2597	0	33440	33542	
2598	0	32884	33282	
2599	0	32706	33406	
2600	0	32726	33584	
2601	0	32858	33343	
2602	0	32594	33231	
2603	0	32328	33300	
2604	0	32592	33301	
2605	0	32278	33102	
2606	0	32756	32898	
2607	0	32956	32924	
2608	0	32736	32673	
2609	0	32760	32408	
2610	0	33256	32692	
2611	0	33608	32724	
2612	0	33564	32600	
2613	0	32968	32356	
2614	0	33460	32014	
2615	0	33804	31876	
2616	0	32434	31818	
2617	0	31794	32168	
2618	0	31896	32858	
2619	0	32116	32890	
2620	0	32340	32654	
2621	0	32542	32286	
2622	0	32756	32172	
2623	0	33044	32440	
2624	0	33376	32354	
2625	0	33450	32576	
2626	0	33180	32968	
2627	0	32392	32988	
2628	0	32444	33046	
2629	0	32324	33224	
2630	0	32354	33225	
2631	0	32878	33436	
2632	0	32636	32720	
2633	0	33148	32128	
2634	0	33628	32038	
2635	0	33412	32276	
2636	0	32994	32616	
2637	0	32622	32811	
2638	0	32698	33012	
2639	0	32612	32706	
2640	0	32732	32647	
2641	0	32180	32736	
2642	0	32444	32820	
2643	0	32552	32532	
2644	0	31800	32823	
2645	0	32384	32794	
2646	0	33904	32290	
2647	0	34102	32245	
2648	0	33537	32326	
2649	0	32996	32403	
2650	0	32842	32436	
2651	0	32422	32726	
2652	0	32816	33184	
2653	0	32720	33494	
2654	0	32532	33397	
2655	0	32624	33390	
2656	0	32996	33482	
2657	0	33012	33956	
2658	0	32580	34062	
2659	0	32388	34186	
2660	0	32700	34296	
2661	0	32880	34046	
2662	0	33592	33312	
2663	0	33694	32644	
2664	0	32756	32020	
2665	0	32084	31478	
2666	0	32812	31136	
2667	0	32120	30638	
2668	0	31272	30798	
2669	0	32448	31078	
2670	0	31952	31336	
2671	0	32194	31944	
2672	0	33292	32560	
2673	0	33228	32942	
2674	0	33064	33274	
2675	0	32864	33304	
2676	0	32896	33060	
2677	0	32960	32704	
2678	0	33228	32874	
2679	0	33168	33176	
2680	0	33216	33248	
2681	0	33132	33180	
2682	0	32356	33287	
2683	0	33626	33382	
2684	0	34236	33329	
2685	0	32972	32952	
2686	0	31928	32722	
2687	0	31658	32950	
2688	0	31828	32800	
2689	0	31864	32882	
2690	0	31980	33070	
2691	0	32628	32702	
2692	0	32666	32490	
2693	0	32900	32388	
2694	0	33792	32646	
2695	0	34778	32647	
2696	0	33904	32806	
2697	0	32908	32692	
2698	0	32230	32848	
2699	0	32756	33244	
2700	0	33116	33392	
2701	0	33334	33355	
2702	0	32778	32942	
2703	0	32356	32772	
2704	0	32138	32903	
2705	0	32120	33082	
2706	0	32112	33490	
2707	0	33260	33296	
2708	0	34108	32468	
2709	0	33184	32108	
2710	0	33080	31908	
2711	0	33306	31504	
2712	0	32508	31390	
2713	0	32720	31580	
2714	0	32656	31958	
2715	0	32676	32296	
2716	0	32610	32850	
2717	0	32792	33406	
2718	0	32696	33364	
2719	0	32752	33469	
2720	0	32538	33816	
2721	0	32382	33706	
2722	0	32742	33732	
2723	0	33040	33414	
2724	0	32606	32900	
2725	0	32612	32656	
2726	0	32464	32442	
2727	0	34132	32298	
2728	0	33080	31988	
2729	0	32942	31596	
2730	0	33268	31686	
2731	0	34081	32260	
2732	0	33776	32416	
2733	0	32958	32360	
2734	0	33088	32836	
2735	0	33628	32884	
2736	0	33636	32802	
2737	0	32526	32775	
2738	0	30628	32766	
2739	0	29696	32910	
2740	0	30410	32828	
2741	0	31406	33089	
2742	0	32304	33116	
2743	0	32926	32870	
2744	0	32980	33079	
2745	0	33420	33020	
2746	0	32932	33092	
2747	0	33624	32784	
2748	0	33972	32558	
2749	0	33330	32532	
2750	0	33546	32960	
2751	0	33340	33398	
2752	0	33608	33684	
2753	0	32702	33462	
2754	0	32768	32664	
2755	0	33300	32175	
2756	0	33204	31970	
2757	0	32470	32066	
2758	0	32166	32232	
2759	0	32930	32044	
2760	0	32780	31800	
2761	0	32848	32095	
2762	0	33288	32686	
2763	0	32140	32775	
2764	0	31684	32830	
2765	0	31924	32736	
2766	0	32224	32070	
2767	0	32350	32338	
2768	0	32472	32890	
2769	0	33541	32836	
2770	0	33144	33054	
2771	0	32964	33031	
2772	0	32612	33600	
2773	0	32240	33708	
2774	0	33092	33368	
2775	0	33772	32892	
2776	0	34176	32718	
2777	0	33064	32736	
2778	0	32732	32546	
2779	0	32188	32332	
2780	0	32964	32573	
2781	0	32451	32540	
2782	0	32764	32622	
2783	0	33296	32880	
2784	0	33000	33092	
2785	0	32496	33098	
2786	0	32534	33060	
2787	0	32174	32849	
2788	0	32344	32390	
2789	0	32576	32346	
2790	0	32776	32726	
2791	0	33056	32858	
2792	0	33066	32656	
2793	0	32892	32770	
2794	0	33108	32954	
2795	0	32248	32790	
2796	0	33530	32812	
2797	0	33680	32986	
2798	0	33130	33274	
2799	0	33868	33316	
2800	0	33092	32896	
2801	0	32228	32354	
2802	0	32324	32480	
2803	0	32164	32894	
2804	0	31984	33190	
2805	0	32016	33094	
2806	0	32178	32854	
2807	0	32512	32663	
2808	0	32768	32775	
2809	0	32976	32878	
2810	0	33174	32842	
2811	0	33176	33071	
2812	0	32990	32796	
2813	0	32714	32775	
2814	0	32554	32936	
2815	0	32564	32806	
2816	0	32590	32914	
2817	0	32696	33220	
2818	0	32548	33474	
2819	0	32372	33378	
2820	0	32724	33072	
2821	0	33084	32950	
2822	0	34368	32408	
2823	0	34112	32558	
2824	0	33790	32190	
2825	0	33620	32199	
2826	0	33400	31802	
2827	0	33024	31484	
2828	0	32242	31616	
2829	0	32534	31672	
2830	0	32793	31636	
2831	0	32108	31991	
2832	0	31996	32263	
2833	0	32540	32644	
2834	0	32128	33185	
2835	0	32412	33874	
2836	0	32572	34030	
2837	0	32912	34074	
2838	0	32906	33932	
2839	0	32944	33482	
2840	0	32982	33118	
2841	0	32996	33279	
2842	0	32952	33306	
2843	0	32920	33031	
2844	0	32764	32576	
2845	0	32800	32380	
2846	0	32632	31962	
2847	0	33858	32050	
2848	0	33100	32172	
2849	0	32482	32240	
2850	0	34964	32904	
2851	0	33728	33031	
2852	0	32700	32854	
2853	0	32122	33048	
2854	0	31800	33287	
2855	0	32184	33432	
2856	0	32164	33602	
2857	0	31548	32694	
2858	0	31808	32513	
2859	0	32062	32294	
2860	0	32176	32020	
2861	0	32956	32415	
2862	0	33686	32826	
2863	0	33656	32478	
2864	0	33376	31880	
2865	0	33328	31600	
2866	0	33364	32024	
2867	0	33264	32673	
2868	0	33028	33080	
2869	0	32810	32948	
2870	0	32656	32532	
2871	0	32696	32412	
2872	0	32724	32427	
2873	0	32680	32828	
2874	0	32644	33184	
2875	0	33124	32807	
2876	0	32964	33052	
2877	0	32978	33026	
2878	0	32868	32886	
2879	0	33304	32752	
2880	0	32468	33016	
2881	0	32936	32862	
2882	0	33664	32935	
2883	0	33424	32704	
2884	0	32758	32496	
2885	0	32912	32486	
2886	0	30992	32415	
2887	0	30418	32609	
2888	0	32348	32888	
2889	0	33392	33152	
2890	0	33128	33562	
2891	0	32656	33538	
2892	0	32612	33736	
2893	0	32644	34210	
2894	0	32696	34406	
2895	0	33016	33374	
2896	0	33104	32684	
2897	0	33204	32414	
2898	0	33260	32210	
2899	0	33184	31924	
2900	0	33120	31941	
2901	0	32958	31944	
2902	0	32812	31988	
2903	0	32740	32284	
2904	0	32980	32418	
2905	0	32808	32818	
2906	0	32624	32903	
2907	0	32740	33304	
2908	0	32498	33758	
2909	0	33528	33742	
2910	0	33000	33654	
2911	0	32688	33768	
2912	0	33144	33728	
2913	0	33680	33984	
2914	0	33260	33958	
2915	0	32568	33318	
2916	0	32362	32609	
2917	0	32244	32124	
2918	0	32240	31716	
2919	0	32364	30884	
2920	0	32280	30264	
2921	0	32452	30270	
2922	0	32660	30260	
2923	0	32884	30624	
2924	0	33110	31364	
2925	0	33002	32490	
2926	0	33050	33174	
2927	0	32750	32994	
2928	0	33010	33390	
2929	0	33276	33636	
2930	0	33728	33704	
2931	0	33688	33432	
2932	0	32924	33062	
2933	0	32388	33196	
2934	0	31768	33558	
2935	0	32740	33608	
2936	0	32844	33302	
2937	0	32656	33592	
2938	0	32838	33604	
2939	0	32672	33462	
2940	0	32434	32976	
2941	0	32608	32648	
2942	0	32540	32775	
2943	0	32458	32893	
2944	0	32444	32530	
2945	0	32482	32634	
2946	0	32592	32656	
2947	0	33208	32682	
2948	0	34690	32116	
2949	0	34276	31882	
2950	0	33436	31854	
2951	0	32506	31976	
2952	0	31668	32384	
2953	0	31556	32739	
2954	0	31838	32842	
2955	0	32052	32903	
2956	0	31920	32912	
2957	0	32120	32700	
2958	0	32756	32911	
2959	0	32784	33287	
2960	0	32868	33516	
2961	0	32964	33734	
2962	0	33172	33479	
2963	0	33212	33058	
2964	0	33080	32596	
2965	0	32546	32506	
2966	0	32940	32112	
2967	0	32960	31698	
2968	0	33160	31956	
2969	0	33180	32308	
2970	0	33272	32642	
2971	0	33532	32094	
2972	0	33640	32310	
2973	0	33186	33216	
2974	0	33048	33406	
2975	0	32918	33612	
2976	0	32948	33944	
2977	0	33004	34460	
2978	0	33060	34752	
2979	0	32770	33362	
2980	0	32954	32356	
2981	0	32772	31706	
2982	0	33082	31526	
2983	0	32970	31788	
2984	0	32808	31540	
2985	0	32834	31412	
2986	0	32952	31449	
2987	0	32872	32000	
2988	0	32748	32880	
2989	0	32640	33346	
2990	0	32992	33436	
2991	0	32948	33368	
2992	0	32960	33380	
2993	0	32452	33752	
2994	0	32396	33898	
2995	0	32540	34034	
2996	0	32496	33746	
2997	0	32696	33020	
2998	0	32904	32940	
2999	0	32752	32468	
3000	0	32600	32740	
3001	0	32436	33710	
3002	0	32546	33100	
3003	0	32578	32628	
3004	0	32592	32340	
3005	0	32624	31594	
3006	0	32788	31352	
3007	0	32808	31588	
3008	0	32740	31160	
3009	0	32878	31104	
3010	0	32780	31470	
3011	0	33024	31610	
3012	0	32912	31558	
3013	0	32836	32442	
3014	0	32764	33022	
3015	0	32720	33454	
3016	0	32520	33854	
3017	0	32528	34132	
3018	0	32452	33907	
3019	0	32560	33718	
3020	0	32724	33702	
3021	0	32840	33702	
3022	0	33128	33814	
3023	0	33304	33392	
3024	0	33008	33048	
3025	0	33108	32636	
3026	0	32788	32439	
3027	0	32452	32094	
3028	0	32848	32398	
3029	0	33132	32750	
3030	0	32984	32894	
3031	0	33044	33286	
3032	0	32768	33396	
3033	0	32530	33287	
3034	0	32454	32874	
3035	0	32590	33127	
3036	0	32644	32967	
3037	0	32656	32402	
3038	0	32624	32922	
3039	0	32830	33384	
3040	0	32744	33850	
3041	0	32708	33582	
3042	0	32460	33476	
3043	0	32348	32628	
3044	0	32358	31576	
3045	0	31928	31460	
3046	0	31926	31392	
3047	0	32236	31128	
3048	0	33482	30792	
3049	0	34282	30666	
3050	0	33708	30626	
3051	0	33394	30884	
3052	0	34858	31386	
3053	0	33502	31664	
3054	0	32578	32063	
3055	0	32740	32170	
3056	0	32708	32704	
3057	0	32910	33474	
3058	0	32942	34178	
3059	0	33208	34690	
3060	0	33364	34596	
3061	0	33166	34858	
3062	0	32858	34734	
3063	0	32592	34852	
3064	0	32616	34398	
3065	0	32520	34502	
3066	0	32484	34311	
3067	0	32552	33786	
3068	0	32564	33756	
3069	0	32711	33432	
3070	0	32736	32966	
3071	0	32680	32154	
3072	0	32832	31402	
3073	0	32818	32140	
3074	0	32724	32668	
3075	0	32644	32564	
3076	0	32580	32984	
3077	0	32682	32702	
3078	0	32728	31943	
3079	0	32746	31384	
3080	0	33000	31239	
3081	0	33040	31374	
3082	0	33036	31604	
3083	0	33008	31736	
3084	0	33004	31718	
3085	0	32960	31623	
3086	0	32930	31965	
3087	0	32930	32472	
3088	0	32960	32550	
3089	0	32888	33010	
3090	0	32728	33222	
3091	0	32668	33436	
3092	0	32586	33505	
3093	0	32572	33184	
3094	0	32632	32896	
3095	0	32536	33132	
3096	0	32588	32970	
3097	0	32608	32924	
3098	0	32644	33432	
3099	0	32706	33788	
3100	0	32736	33540	
3101	0	32808	33670	
3102	0	32736	33968	
3103	0	32798	33954	
3104	0	32896	34080	
3105	0	32960	34068	
3106	0	32828	33722	
3107	0	32764	32930	
3108	0	32944	32647	
3109	0	32634	32084	
3110	0	32692	31366	
3111	0	32512	31182	
3112	0	32196	30904	
3113	0	32628	30752	
3114	0	32802	30988	
3115	0	32816	31610	
3116	0	32840	32070	
3117	0	32836	32356	
3118	0	32756	32148	
3119	0	32714	32340	
3120	0	32732	32600	
3121	0	32596	32538	
3122	0	32696	33070	
3123	0	32862	33492	
3124	0	32962	33462	
3125	0	32916	33532	
3126	0	33048	33768	
3127	0	32956	33994	
3128	0	32954	34278	
3129	0	33038	34589	
3130	0	32740	34310	
3131	0	32436	33895	
3132	0	33228	33256	
3133	0	32858	32882	
3134	0	32406	32656	
3135	0	32648	32334	
3136	0	32920	31994	
3137	0	32810	31975	
3138	0	32628	32286	
3139	0	32616	31996	
3140	0	32610	32282	
3141	0	32652	32496	
3142	0	32632	32244	
3143	0	32698	32824	
3144	0	32488	33094	
3145	0	32330	33510	
3146	0	32484	34604	
3147	0	32840	34798	
3148	0	33176	34014	
3149	0	33260	32784	
3150	0	33082	31676	
3151	0	32944	31062	
3152	0	32820	30564	
3153	0	32788	30254	
3154	0	33272	30154	
3155	0	33488	30668	
3156	0	33300	31216	
3157	0	33192	32096	
3158	0	33056	32992	
3159	0	33000	33506	
3160	0	32936	34055	
3161	0	32960	33743	
3162	0	32956	34023	
3163	0	33016	33968	
3164	0	33068	34220	
3165	0	33092	33964	
3166	0	33128	33408	
3167	0	32968	33344	
3168	0	32944	33156	
3169	0	32936	33308	
3170	0	32952	33428	
3171	0	32902	33622	
3172	0	32684	33090	
3173	0	32580	32588	
3174	0	32824	32048	
3175	0	32720	31780	
3176	0	32816	31968	
3177	0	32756	31968	
3178	0	33094	31660	
3179	0	32684	31029	
3180	0	32758	31092	
3181	0	32548	31279	
3182	0	32356	32042	
3183	0	32320	32218	
3184	0	32404	32742	
3185	0	32610	33430	
3186	0	32712	33666	
3187	0	32876	33756	
3188	0	32964	33978	
3189	0	32932	33864	
3190	0	32870	33486	
3191	0	32738	33204	
3192	0	32874	32900	
3193	0	32834	32734	
3194	0	32844	33201	
3195	0	32962	33792	
3196	0	32864	34012	
3197	0	32912	33568	
3198	0	32816	33528	
3199	0	33026	32622	
3200	0	33136	32164	
3201	0	32860	32062	
3202	0	32868	31890	
3203	0	32984	31990	
3204	0	33104	31760	
3205	0	32876	31558	
3206	0	32772	31852	
3207	0	32776	32308	
3208	0	32700	32652	
3209	0	32652	32820	
3210	0	32772	32860	
3211	0	32820	32924	
3212	0	32816	32794	
3213	0	32668	32800	
3214	0	32912	32903	
3215	0	32844	33031	
3216	0	32612	33358	
3217	0	32540	33196	
3218	0	32700	33167	
3219	0	32756	33018	
3220	0	32788	33018	
3221	0	32868	33270	
3222	0	33028	33367	
3223	0	33032	33376	
3224	0	33028	33265	
3225	0	33014	33214	
3226	0	33134	33104	
3227	0	32988	33020	
3228	0	32976	32913	
3229	0	32732	32800	
3230	0	32634	32684	
3231	0	32544	32686	
3232	0	32466	32694	
3233	0	32516	32866	
3234	0	32488	33184	
3235	0	32674	33094	
3236	0	32766	32702	
3237	0	32952	32092	
3238	0	33018	31502	
3239	0	32914	31612	
3240	0	32928	31660	
3241	0	32716	31391	
3242	0	32656	31542	
3243	0	32724	32017	
3244	0	32644	32480	
3245	0	32698	32972	
3246	0	32734	33558	
3247	0	32756	34734	
3248	0	32808	35008	
3249	0	32868	34762	
3250	0	32838	33938	
3251	0	32900	33016	
3252	0	32944	31948	
3253	0	32748	30919	
3254	0	32564	30404	
3255	0	32872	30338	
3256	0	33238	30684	
3257	0	33248	31394	
3258	0	33152	32424	
3259	0	32760	33326	
3260	0	32868	34040	
3261	0	33052	34484	
3262	0	33008	34052	
3263	0	32764	34255	
3264	0	32584	33616	
3265	0	32354	33252	
3266	0	32552	33026	
3267	0	32516	32796	
3268	0	32544	32628	
3269	0	32656	32872	
3270	0	32688	32594	
3271	0	32690	32386	
3272	0	32792	32681	
3273	0	32792	32519	
3274	0	32870	32104	
3275	0	32570	32196	
3276	0	32538	32336	
3277	0	32674	32450	
3278	0	32613	32547	
3279	0	32552	33287	
3280	0	32756	33252	
3281	0	32696	33078	
3282	0	32680	33604	
3283	0	32716	34037	
3284	0	32738	33944	
3285	0	32852	33166	
3286	0	32954	32739	
3287	0	32896	32678	
3288	0	32914	32711	
3289	0	32760	32126	
3290	0	32848	31844	
3291	0	32754	32055	
3292	0	32852	32199	
3293	0	32860	32174	
3294	0	32892	32207	
3295	0	32890	32242	
3296	0	32876	32506	
3297	0	32856	32986	
3298	0	32860	33111	
3299	0	32832	33326	
3300	0	32872	33744	
3301	0	32830	33692	
3302	0	32892	33434	
3303	0	32913	32924	
3304	0	32724	32636	
3305	0	32672	32454	
3306	0	32724	32486	
3307	0	32716	32926	
3308	0	32584	32900	
3309	0	32678	32725	
3310	0	32868	32193	
3311	0	32828	32002	
3312	0	33020	32095	
3313	0	33012	32212	
3314	0	32960	32196	
3315	0	32860	32263	
3316	0	32832	32415	
3317	0	32952	32234	
3318	0	33112	32850	
3319	0	33016	33578	
3320	0	32924	33616	
3321	0	32830	33456	
3322	0	32952	33063	
3323	0	32818	32552	
3324	0	32628	32076	
3325	0	32416	32248	
3326	0	32504	32676	
3327	0	32488	33207	
3328	0	32418	33574	
3329	0	32612	33962	
3330	0	32736	33470	
3331	0	32826	33031	
3332	0	32780	33156	
3333	0	32704	32882	
3334	0	32492	32878	
3335	0	32468	32884	
3336	0	32560	32407	
3337	0	32418	32094	
3338	0	33004	31840	
3339	0	33680	31578	
3340	0	33624	31852	
3341	0	33610	32236	
3342	0	33304	33092	
3343	0	32992	33606	
3344	0	32724	33748	
3345	0	32842	33208	
3346	0	32960	32134	
3347	0	32902	31536	
3348	0	32944	31532	
3349	0	32866	31196	
3350	0	33010	31271	
3351	0	32888	31597	
3352	0	32868	32068	
3353	0	32752	32338	
3354	0	32748	32508	
3355	0	32780	32834	
3356	0	32684	33620	
3357	0	32688	34028	
3358	0	32564	34284	
3359	0	32704	34204	
3360	0	32620	34236	
3361	0	32698	34048	
3362	0	32832	33680	
3363	0	32771	33770	
3364	0	32804	33903	
3365	0	32704	33533	
3366	0	32764	33102	
3367	0	32732	32706	
3368	0	32858	32668	
3369	0	32852	32554	
3370	0	32820	32536	
3371	0	32752	32686	
3372	0	32720	32700	
3373	0	32692	32436	
3374	0	32674	32602	
3375	0	32528	32510	
3376	0	32548	32324	
3377	0	32488	32574	
3378	0	32598	32564	
3379	0	32604	32466	
3380	0	32620	32342	
3381	0	32784	32559	
3382	0	32684	32576	
3383	0	32790	32486	
3384	0	32990	32647	
3385	0	33036	33048	
3386	0	33064	32775	
3387	0	33016	32764	
3388	0	32888	32678	
3389	0	32892	32860	
3390	0	32814	33010	
3391	0	32976	32978	
3392	0	32900	33134	
3393	0	32808	33170	
3394	0	32748	32958	
3395	0	32864	33138	
3396	0	33040	32804	
3397	0	32868	32438	
3398	0	32734	32464	
3399	0	32652	33456	
3400	0	32752	34165	
3401	0	32856	33778	
3402	0	32904	32946	
3403	0	32892	32565	
3404	0	32750	32218	
3405	0	32736	31860	
3406	0	32780	31056	
3407	0	32684	31032	
3408	0	32602	31380	
3409	0	32860	31792	
3410	0	32900	31578	
3411	0	32970	31605	
3412	0	32910	32140	
3413	0	32576	32480	
3414	0	32548	32892	
3415	0	32396	33478	
3416	0	32112	33671	
3417	0	31976	33768	
3418	0	32128	33863	
3419	0	32364	33918	
3420	0	32592	33422	
3421	0	32858	33383	
3422	0	32994	33111	
3423	0	33104	33436	
3424	0	33248	33094	
3425	0	33556	33311	
3426	0	33782	34478	
3427	0	33692	34960	
3428	0	34032	34340	
3429	0	34388	33031	
3430	0	34138	31750	
3431	0	33892	31270	
3432	0	33500	31058	
3433	0	33124	30608	
3434	0	33036	30215	
3435	0	33124	30378	
3436	0	32908	30628	
3437	0	32800	31325	
3438	0	32580	32094	
3439	0	33016	32775	
3440	0	32644	33328	
3441	0	32284	34048	
3442	0	32104	34510	
3443	0	32130	34486	
3444	0	32216	34412	
3445	0	32302	34238	
3446	0	32436	34106	
3447	0	32556	33938	
3448	0	32520	33562	
3449	0	32652	33394	
3450	0	32640	33110	
3451	0	32772	33030	
3452	0	32624	32810	
3453	0	32641	32746	
3454	0	32584	32583	
3455	0	32558	32512	
3456	0	32620	32404	
3457	0	32746	32452	
3458	0	32788	32326	
3459	0	32804	32220	
3460	0	32712	32470	
3461	0	32708	32426	
3462	0	32798	32282	
3463	0	32868	32222	
3464	0	32760	32322	
3465	0	32670	32330	
3466	0	32688	32202	
3467	0	32682	32294	
3468	0	32788	32300	
3469	0	32720	32606	
3470	0	32604	32645	
3471	0	32720	32802	
3472	0	32704	32744	
3473	0	32832	32580	
3474	0	32918	32736	
3475	0	32928	32876	
3476	0	32860	32992	
3477	0	32868	33106	
3478	0	32888	33254	
3479	0	32860	33212	
3480	0	32872	32670	
3481	0	32896	32434	
3482	0	32968	32598	
3483	0	32952	32638	
3484	0	32964	33044	
3485	0	33034	33988	
3486	0	33036	33883	
3487	0	32970	34122	
3488	0	32854	33912	
3489	0	32800	33663	
3490	0	32828	33700	
3491	0	32916	33428	
3492	0	32788	33071	
3493	0	32960	32319	
3494	0	32908	31536	
3495	0	32868	31669	
3496	0	32788	32102	
3497	0	32852	32250	
3498	0	32756	31476	
3499	0	32764	31002	
3500	0	32700	30582	
3501	0	32778	30535	
3502	0	32820	30652	
3503	0	32802	31420	
3504	0	32858	31911	
3505	0	32904	32368	
3506	0	32832	32679	
3507	0	32868	33026	
3508	0	32904	33476	
3509	0	32814	34012	
3510	0	32952	33862	
3511	0	32821	33566	
3512	0	32572	33510	
3513	0	32080	33232	
3514	0	31892	33144	
3515	0	31980	33364	
3516	0	32332	33174	
3517	0	32560	33066	
3518	0	32746	32820	
3519	0	32704	32946	
3520	0	32980	33200	
3521	0	33240	32788	
3522	0	33398	33042	
3523	0	33632	33078	
3524	0	33612	33182	
3525	0	33112	32850	
3526	0	33632	32628	
3527	0	34176	32878	
3528	0	33380	32928	
3529	0	33044	32775	
3530	0	33028	32263	
3531	0	32996	32246	
3532	0	33102	32596	
3533	0	32778	32586	
3534	0	32736	32620	
3535	0	32608	32839	
3536	0	32268	32911	
3537	0	32185	32866	
3538	0	32164	32842	
3539	0	32220	32871	
3540	0	32440	32710	
3541	0	32694	32852	
3542	0	32682	32910	
3543	0	32680	32788	
3544	0	32608	32766	
3545	0	32592	32656	
3546	0	32528	32752	
3547	0	32500	32664	
3548	0	32584	32762	
3549	0	32680	32561	
3550	0	32652	32424	
3551	0	32732	32636	
3552	0	32820	32596	
3553	0	32824	32738	
3554	0	33156	32728	
3555	0	33108	32842	
3556	0	32880	33031	
3557	0	32800	33026	
3558	0	32775	32956	
3559	0	32684	32914	
3560	0	32702	32709	
3561	0	32816	32734	
3562	0	32868	32810	
3563	0	32728	32958	
3564	0	32792	33270	
3565	0	32790	33030	
3566	0	32736	32772	
3567	0	32812	32580	
3568	0	33000	32575	
3569	0	32930	32479	
3570	0	32868	32180	
3571	0	32922	32026	
3572	0	32790	31943	
3573	0	33028	31850	
3574	0	33120	31926	
3575	0	33092	32660	
3576	0	32782	33626	
3577	0	32720	34823	
3578	0	32660	35658	
3579	0	32724	34854	
3580	0	32800	34266	
3581	0	32852	33244	
3582	0	32828	32474	
3583	0	33032	31540	
3584	0	33082	30958	
3585	0	32948	30761	
3586	0	32948	30632	
3587	0	32880	30946	
3588	0	32782	31284	
3589	0	32836	32230	
3590	0	32744	32868	
3591	0	32560	33016	
3592	0	32520	32870	
3593	0	32508	32892	
3594	0	32644	33002	
3595	0	32784	33068	
3596	0	32708	33031	
3597	0	32724	32804	
3598	0	32750	32842	
3599	0	32764	32938	
3600	0	32826	32932	
3601	0	32820	32934	
3602	0	32720	33127	
3603	0	32786	32970	
3604	0	32808	33264	
3605	0	32784	33342	
3606	0	32762	33246	
3607	0	32688	33383	
3608	0	32668	33380	
3609	0	32724	33152	
3610	0	32708	33092	
3611	0	32792	32916	
3612	0	32956	32868	
3613	0	33038	33122	
3614	0	33130	32988	
3615	0	33028	33046	
3616	0	33012	32774	
3617	0	33060	32888	
3618	0	33060	32906	
3619	0	33016	32787	
3620	0	32920	32775	
3621	0	32748	32682	
3622	0	32640	32913	
3623	0	32632	32868	
3624	0	32618	32583	
3625	0	32526	32442	
3626	0	32666	32300	
3627	0	32808	32250	
3628	0	32804	32346	
3629	0	32794	32457	
3630	0	32876	32422	
3631	0	32864	32440	
3632	0	32836	32414	
3633	0	32782	32443	
3634	0	32860	32564	
3635	0	33018	32492	
3636	0	32890	32640	
3637	0	32830	32751	
3638	0	32712	32938	
3639	0	32768	32967	
3640	0	32756	33143	
3641	0	32868	32862	
3642	0	32744	33164	
3643	0	32698	33456	
3644	0	32800	33298	
3645	0	32692	33396	
3646	0	32764	33888	
3647	0	33018	33604	
3648	0	32736	32870	
3649	0	32608	32400	
3650	0	32672	32100	
3651	0	32492	32212	
3652	0	32636	32230	
3653	0	32624	32404	
3654	0	32896	32491	
3655	0	33016	32437	
3656	0	32992	32167	
3657	0	32964	31942	
3658	0	32840	31612	
3659	0	32792	31854	
3660	0	32828	32060	
3661	0	32800	32086	
3662	0	32844	32282	
3663	0	32748	32880	
3664	0	32774	33046	
3665	0	32860	33436	
3666	0	32912	34318	
3667	0	33102	34842	
3668	0	32948	34350	
3669	0	32812	33492	
3670	0	32824	32743	
3671	0	32840	32222	
3672	0	32728	31975	
3673	0	32776	31693	
3674	0	32804	31718	
3675	0	32948	31682	
3676	0	32980	31544	
3677	0	32918	31942	
3678	0	32888	32542	
3679	0	32690	32774	
3680	0	32636	33046	
3681	0	32676	32978	
3682	0	32682	33202	
3683	0	32630	33384	
3684	0	32546	33338	
3685	0	32740	33393	
3686	0	32788	33382	
3687	0	32778	33408	
3688	0	32900	33440	
3689	0	32922	33366	
3690	0	32952	33180	
3691	0	33020	33134	
3692	0	32988	33012	
3693	0	33112	33250	
3694	0	32990	32962	
3695	0	32884	32812	
3696	0	33060	32762	
3697	0	32868	32676	
3698	0	32828	32823	
3699	0	32788	32764	
3700	0	32648	32726	
3701	0	32616	32516	
3702	0	32716	32433	
3703	0	32544	32318	
3704	0	32544	32570	
3705	0	32650	32598	
3706	0	32716	32738	
3707	0	32720	32849	
3708	0	32874	32362	
3709	0	32898	31798	
3710	0	32946	32021	
3711	0	32912	32444	
3712	0	32932	32432	
3713	0	32952	32868	
3714	0	32916	32994	
3715	0	32852	32932	
3716	0	32844	33162	
3717	0	32912	33164	
3718	0	32982	33166	
3719	0	33008	33114	
3720	0	33024	32890	
3721	0	33022	33045	
3722	0	32944	32908	
3723	0	32942	32974	
3724	0	33058	32774	
3725	0	32948	32562	
3726	0	33076	32548	
3727	0	32956	32550	
3728	0	32764	32566	
3729	0	32688	32718	
3730	0	32664	32551	
3731	0	32638	32848	
3732	0	32516	32854	
3733	0	32376	32823	
3734	0	32468	32580	
3735	0	32472	32590	
3736	0	32586	32652	
3737	0	32812	32806	
3738	0	32810	33038	
3739	0	32865	33287	
3740	0	32922	33282	
3741	0	32770	33430	
3742	0	32672	33506	
3743	0	32744	33236	
3744	0	32728	33044	
3745	0	32922	32668	
3746	0	33080	32604	
3747	0	32836	32276	
3748	0	32824	32078	
3749	0	32864	31980	
3750	0	32788	32016	
3751	0	32848	31884	
3752	0	32848	31914	
3753	0	32868	32014	
3754	0	32802	32099	
3755	0	32864	32090	
3756	0	32888	32202	
3757	0	32868	32322	
3758	0	32847	32204	
3759	0	32900	32484	
3760	0	32784	32604	
3761	0	32852	33040	
3762	0	32916	33254	
3763	0	32892	33343	
3764	0	32896	33223	
3765	0	32892	33340	
3766	0	32988	33316	
3767	0	32904	33287	
3768	0	32824	33410	
3769	0	32778	33220	
3770	0	32718	33207	
3771	0	32842	32722	
3772	0	32820	32708	
3773	0	32880	32728	
3774	0	32898	32842	
3775	0	32822	32953	
3776	0	32820	33060	
3777	0	32904	33046	
3778	0	32848	33142	
3779	0	32704	33151	
3780	0	32798	33155	
3781	0	32792	33070	
3782	0	32622	32996	
3783	0	32660	32950	
3784	0	32878	32816	
3785	0	32956	32586	
3786	0	32874	32720	
3787	0	32772	32852	
3788	0	32628	32884	
3789	0	32736	32834	
3790	0	32970	32775	
3791	0	32956	32606	
3792	0	32904	32578	
3793	0	32808	32656	
3794	0	32746	32686	
3795	0	32830	32865	
3796	0	32732	32724	
3797	0	32760	32596	
3798	0	32736	32436	
3799	0	32588	32391	
3800	0	32578	32585	
3801	0	32682	32746	
3802	0	32776	33004	
3803	0	32802	33031	
3804	0	32822	32804	
3805	0	32836	32814	
3806	0	32824	32756	
3807	0	32820	32768	
3808	0	32792	32774	
3809	0	32888	32590	
3810	0	32866	32516	
3811	0	32868	32378	
3812	0	32836	32551	
3813	0	32824	32584	
3814	0	32724	32612	
3815	0	32856	32686	
3816	0	32834	32642	
3817	0	32826	32679	
3818	0	32752	32679	
3819	0	32716	32736	
3820	0	32790	32614	
3821	0	32828	32700	
3822	0	32872	32720	
3823	0	32794	32871	
3824	0	32778	32737	
3825	0	32728	32784	
3826	0	32852	32810	
3827	0	32876	32767	
3828	0	32962	32910	
3829	0	32960	32890	
3830	0	32874	33018	
3831	0	33002	33102	
3832	0	32888	32998	
3833	0	32762	32878	
3834	0	32726	32988	
3835	0	32736	33110	
3836	0	32738	33199	
3837	0	32680	32872	
3838	0	32662	32960	
3839	0	32612	33040	
3840	0	32612	32986	
3841	0	32656	32775	
3842	0	32692	32518	
3843	0	32730	32388	
3844	0	32694	32183	
3845	0	32752	32112	
3846	0	32648	32086	
3847	0	32860	32064	
3848	0	32870	31996	
3849	0	32928	32064	
3850	0	32800	32254	
3851	0	32852	32471	
3852	0	32826	32618	
3853	0	32730	32686	
3854	0	32868	33120	
3855	0	32788	33088	
3856	0	32744	33167	
3857	0	32788	33176	
3858	0	32746	33334	
3859	0	32840	33084	
3860	0	32804	33188	
3861	0	32632	33010	
3862	0	32561	33054	
3863	0	32598	33026	
3864	0	32596	33068	
3865	0	32724	32950	
3866	0	33016	32614	
3867	0	32984	32593	
3868	0	32848	32802	
3869	0	32816	32744	
3870	0	32814	32825	
3871	0	32952	32760	
3872	0	32960	32922	
3873	0	32970	32917	
3874	0	32902	32914	
3875	0	32972	32934	
3876	0	32984	32754	
3877	0	32844	32930	
3878	0	32816	33004	
3879	0	32864	32932	
3880	0	32908	32870	
3881	0	32872	32694	
3882	0	32878	32712	
3883	0	32816	32807	
3884	0	32838	32743	
3885	0	32936	32716	
3886	0	32928	32753	
3887	0	32872	32838	
3888	0	32764	32775	
3889	0	32740	32569	
3890	0	32736	32598	
3891	0	32706	32744	
3892	0	32718	32732	
3893	0	32804	32752	
3894	0	32832	32556	
3895	0	32736	32682	
3896	0	32644	32772	
3897	0	32660	32612	
3898	0	32668	32750	
3899	0	32628	32684	
3900	0	32726	32552	
3901	0	32820	32684	
3902	0	32764	32555	
3903	0	32662	32615	
3904	0	32740	32824	
3905	0	32756	32754	
3906	0	32784	32873	
3907	0	32728	32920	
3908	0	32752	32868	
3909	0	32774	32900	
3910	0	32866	32914	
3911	0	32932	32799	
3912	0	32968	32816	
3913	0	33004	32882	
3914	0	32860	32744	
3915	0	32718	32770	
3916	0	32790	32786	
3917	0	32736	32894	
3918	0	32868	32654	
3919	0	32884	32758	
3920	0	32900	32774	
3921	0	32796	32860	
3922	0	32832	32879	
3923	0	32770	32718	
3924	0	32706	32743	
3925	0	32640	32596	
3926	0	32720	32462	
3927	0	32708	32678	
3928	0	32958	32742	
3929	0	32896	32692	
3930	0	32850	32814	
3931	0	32780	32743	
3932	0	32962	32620	
3933	0	32960	32684	
3934	0	32864	32792	
3935	0	32828	32884	
3936	0	32688	32646	
3937	0	32826	32790	
3938	0	32752	32903	
3939	0	32848	32927	
3940	0	32792	32913	
3941	0	32836	32816	
3942	0	32852	32760	
3943	0	32800	32542	
3944	0	32772	32654	
3945	0	32800	32936	
3946	0	32796	33196	
3947	0	32726	33324	
3948	0	32796	33046	
3949	0	32768	33052	
3950	0	32824	33096	
3951	0	32792	32967	
3952	0	32816	32828	
3953	0	32812	32647	
3954	0	32856	32474	
3955	0	32896	32334	
3956	0	32878	32196	
3957	0	32844	32114	
3958	0	32850	32263	
3959	0	32776	32306	
3960	0	32988	32390	
3961	0	32940	32500	
3962	0	32896	32646	
3963	0	32832	32964	
3964	0	32834	33077	
3965	0	32764	33106	
3966	0	32805	32790	
3967	0	32938	32788	
3968	0	32868	32709	
3969	0	32836	32732	
3970	0	32926	33024	
3971	0	32832	33176	
3972	0	32704	33148	
3973	0	32708	33069	
3974	0	32804	32910	
3975	0	32780	33024	
3976	0	32876	33016	
3977	0	32796	33095	
3978	0	32784	32940	
3979	0	32762	32679	
3980	0	32752	32690	
3981	0	32700	32660	
3982	0	32772	32726	
3983	0	32804	32700	
3984	0	32772	32618	
3985	0	32788	32668	
3986	0	32812	32570	
3987	0	32848	32672	
3988	0	32836	32734	
3989	0	32830	32742	
3990	0	32846	32737	
3991	0	32804	32484	
3992	0	32748	32623	
3993	0	32884	32476	
3994	0	32788	32596	
3995	0	32836	32679	
3996	0	32804	32658	
3997	0	32780	32736	
3998	0	32775	32712	
3999	0	32816	32719	
4000	0	32760	32832	
4001	0	32758	32868	
4002	0	32704	32828	
4003	0	32704	32798	
4004	0	32716	32740	
4005	0	32694	32818	
4006	0	32628	32756	
4007	0	32762	32838	
4008	0	32786	32752	
4009	0	32804	32764	
4010	0	32824	32704	
4011	0	32912	32764	
4012	0	32882	32788	
4013	0	32824	32870	
4014	0	32880	32870	
4015	0	32824	32798	
4016	0	32932	32634	
4017	0	32992	32682	
4018	0	32912	32634	
4019	0	32940	32615	
4020	0	32834	32646	
4021	0	32796	32698	
4022	0	32778	32729	
4023	0	32760	32716	
4024	0	32852	32762	
4025	0	32856	32858	
4026	0	32836	32972	
4027	0	32868	32828	
4028	0	32836	32858	
4029	0	32852	32800	
4030	0	32926	33028	
4031	0	32904	32804	
4032	0	32844	32404	
4033	0	32788	32792	
4034	0	32808	32832	
4035	0	32744	32600	
4036	0	32732	32504	
4037	0	32712	32706	
4038	0	32770	32496	
4039	0	32796	32814	
4040	0	32740	32758	
4041	0	32836	32742	
4042	0	32890	32826	
4043	0	32784	32848	
4044	0	32824	32804	
4045	0	32721	32842	
4046	0	32852	33066	
4047	0	32800	33068	
4048	0	32770	32838	
4049	0	32784	32890	
4050	0	32776	32646	
4051	0	32853	32634	
4052	0	32772	32872	
4053	0	32840	32929	
4054	0	32832	32922	
4055	0	32816	32955	
4056	0	32844	33022	
4057	0	32876	32860	
4058	0	32806	32856	
4059	0	32774	32822	
4060	0	32816	32839	
4061	0	32784	32673	
4062	0	32788	32654	
4063	0	32858	32660	
4064	0	32844	32412	
4065	0	32756	32462	
4066	0	32764	32495	
4067	0	32820	32466	
4068	0	32878	32546	
4069	0	32844	32682	
4070	0	32768	32636	
4071	0	32786	32752	
4072	0	32840	32830	
4073	0	32856	32775	
4074	0	32806	33006	
4075	0	32708	32832	
4076	0	32792	32743	
4077	0	32822	32736	
4078	0	32852	32814	
4079	0	32846	32766	
4080	0	32810	32895	
4081	0	32822	32842	
4082	0	32858	32746	
4083	0	32854	32903	
4084	0	32860	32887	
4085	0	32892	32870	
4086	0	32870	32800	
4087	0	32940	32746	
4088	0	32860	32938	
4089	0	32956	32903	
4090	0	32878	32768	
4091	0	32836	32988	
4092	0	32826	32952	
4093	0	32788	32686	
4094	0	32792	32854	
4095	0	32800	32738	
4096	0	32796	32624	
4097	0	32834	32630	
4098	0	32876	32596	
4099	0	32894	32718	
4100	0	32816	32682	
4101	0	32816	32790	
4102	0	32788	32885	
4103	0	32784	32700	
4104	0	32802	32775	
4105	0	32804	32842	
4106	0	32846	32678	
4107	0	32818	32870	
4108	0	32736	32812	
4109	0	32798	32836	
4110	0	32800	32902	
4111	0	32868	32914	
4112	0	32752	32785	
4113	0	32818	32647	
4114	0	32712	32608	
4115	0	32750	32679	
4116	0	32778	32660	
4117	0	32922	32647	
4118	0	32826	32652	
4119	0	32832	32660	
4120	0	32736	32886	
4121	0	32712	32916	
4122	0	32798	32844	
4123	0	32788	32936	
4124	0	32832	32908	
4125	0	32866	32719	
4126	0	32834	32644	
4127	0	32876	32706	
4128	0	32844	32692	
4129	0	32764	32730	
4130	0	32856	32540	
4131	0	32736	32662	
4132	0	32842	32490	
4133	0	32700	32646	
4134	0	32676	32850	
4135	0	32750	32954	
4136	0	32854	33010	
4137	0	32913	32951	
4138	0	32916	33098	
4139	0	32900	32864	
4140	0	32858	32760	
4141	0	32812	32908	
4142	0	32778	32804	
4143	0	32774	32775	
4144	0	32808	32732	
4145	0	32784	32712	
4146	0	32756	32823	
4147	0	32828	32770	
4148	0	32820	32573	
4149	0	32784	32626	
4150	0	32912	32679	
4151	0	32864	32576	
4152	0	32836	32647	
4153	0	32788	32638	
4154	0	32784	32556	
4155	0	32792	32568	
4156	0	32804	32692	
4157	0	32770	32810	
4158	0	32846	32726	
4159	0	32792	32840	
4160	0	32896	32680	
4161	0	32860	32759	
4162	0	32828	32732	
4163	0	32782	33024	
4164	0	32746	32998	
4165	0	32804	32856	
4166	0	32746	32754	
4167	0	32634	32742	
4168	0	32718	32934	
4169	0	32780	32852	
4170	0	32784	32752	
4171	0	32832	32824	
4172	0	32916	32830	
4173	0	32862	32728	
4174	0	32800	32816	
4175	0	32734	33008	
4176	0	32772	32742	
4177	0	32800	32714	
4178	0	32796	32652	
4179	0	32836	32814	
4180	0	32828	32730	
4181	0	32900	32872	
4182	0	32884	32902	
4183	0	32856	32743	
4184	0	32860	32828	
4185	0	32810	32916	
4186	0	32724	32716	
4187	0	32772	32878	
4188	0	32824	32846	
4189	0	32836	32638	
4190	0	32836	32631	
4191	0	32840	32804	
4192	0	32868	32710	
4193	0	32856	32690	
4194	0	32814	32698	
4195	0	32840	32694	
4196	0	32862	32910	
4197	0	32888	32912	
4198	0	32856	32768	
4199	0	32840	32800	
4200	0	32816	32746	
4201	0	32836	32722	
4202	0	32800	32656	
4203	0	32718	32614	
4204	0	32826	32642	
4205	0	32874	32488	
4206	0	32778	32558	
4207	0	32860	32548	
4208	0	32764	32564	
4209	0	32860	32588	
4210	0	32808	32482	
4211	0	32784	32670	
4212	0	32740	32897	
4213	0	32792	32768	
4214	0	32780	32632	
4215	0	32736	32826	
4216	0	32784	32679	
4217	0	32736	32518	
4218	0	32790	32578	
4219	0	32736	32455	
4220	0	32700	32740	
4221	0	32712	32764	
4222	0	32820	32928	
4223	0	32780	32841	
4224	0	32916	32712	
4225	0	32736	32992	
4226	0	32728	32902	
4227	0	32808	33082	
4228	0	32764	32903	
4229	0	32864	32862	
4230	0	32832	32998	
4231	0	32832	32986	
4232	0	32862	33018	
4233	0	32848	32998	
4234	0	32880	32986	
4235	0	32868	33118	
4236	0	32954	32998	
4237	0	32856	32848	
4238	0	32940	32756	
4239	0	32872	32770	
4240	0	32700	32748	
4241	0	32736	32706	
4242	0	32758	32700	
4243	0	32802	32711	
4244	0	32832	32698	
4245	0	32888	32710	
4246	0	32766	32710	
4247	0	32836	32702	
4248	0	32744	32518	
4249	0	32850	32700	
4250	0	32889	32736	
4251	0	32864	32772	
4252	0	32790	32844	
4253	0	32718	32647	
4254	0	32660	32692	
4255	0	32741	32756	
4256	0	32808	32700	
4257	0	32828	32743	
4258	0	32874	32676	
4259	0	32856	32604	
4260	0	32804	32602	
4261	0	32764	32672	
4262	0	32716	32610	
4263	0	32730	32572	
4264	0	32746	32575	
4265	0	32774	32574	
4266	0	32838	32882	
4267	0	32872	32878	
4268	0	32968	32714	
4269	0	32933	32888	
4270	0	32930	32944	
4271	0	32870	32903	
4272	0	32910	32866	
4273	0	32832	32704	
4274	0	32854	32826	
4275	0	32936	32755	
4276	0	32898	32871	
4277	0	32864	32696	
4278	0	32894	32628	
4279	0	32810	32940	
4280	0	32712	33008	
4281	0	32682	32900	
4282	0	32736	32926	
4283	0	32732	32606	
4284	0	32788	32751	
4285	0	32750	32664	
4286	0	32744	32711	
4287	0	32780	32748	
4288	0	32758	32806	
4289	0	32756	32870	
4290	0	32764	32924	
4291	0	32786	32970	
4292	0	32824	32928	
4293	0	32704	32932	
4294	0	32804	32804	
4295	0	32800	32864	
4296	0	32808	32934	
4297	0	32854	32903	
4298	0	32860	32903	
4299	0	32882	32704	
4300	0	32832	32694	
4301	0	32856	32490	
4302	0	32832	32628	
4303	0	32796	32740	
4304	0	32816	32716	
4305	0	32764	32945	
4306	0	32706	32984	
4307	0	32716	32998	
4308	0	32724	32948	
4309	0	32776	32720	
4310	0	32754	32680	
4311	0	32774	32590	
4312	0	32780	32742	
4313	0	32832	32767	
4314	0	32860	32618	
4315	0	32756	32711	
4316	0	32728	32734	
4317	0	32808	33031	
4318	0	32870	33044	
4319	0	32816	32842	
4320	0	32868	32704	
4321	0	32882	32682	
4322	0	32782	32664	
4323	0	32791	32784	
4324	0	32906	32748	
4325	0	32784	32860	
4326	0	32834	32732	
4327	0	32820	32698	
4328	0	32800	32486	
4329	0	32746	32328	
4330	0	32840	32263	
4331	0	32879	32448	
4332	0	32952	32236	
4333	0	32782	32306	
4334	0	32828	32362	
4335	0	32812	32642	
4336	0	32790	32584	
4337	0	32832	32424	
4338	0	32784	32760	
4339	0	32880	32918	
4340	0	32864	32738	
4341	0	32656	32868	
4342	0	32724	32958	
4343	0	32750	32903	
4344	0	32704	32807	
4345	0	32720	32860	
4346	0	32836	32818	
4347	0	32788	32854	
4348	0	32836	32856	
4349	0	32836	32586	
4350	0	32822	32447	
4351	0	32876	32486	
4352	0	32836	32491	
4353	0	32836	32529	
4354	0	32896	32718	
4355	0	32888	32612	
4356	0	32884	32876	
4357	0	32850	32800	
4358	0	32856	33063	
4359	0	32831	32832	
4360	0	32756	32766	
4361	0	32808	32442	
4362	0	32666	32508	
4363	0	32642	32726	
4364	0	32728	32800	
4365	0	32850	33055	
4366	0	32832	33207	
4367	0	32864	33072	
4368	0	32844	33002	
4369	0	32888	32858	
4370	0	32960	32903	
4371	0	32944	32904	
4372	0	32996	32870	
4373	0	32978	32720	
4374	0	32896	32862	
4375	0	32814	32696	
4376	0	32756	32824	
4377	0	32681	32816	
4378	0	32768	32807	
4379	0	32774	32920	
4380	0	32696	32759	
4381	0	32738	32760	
4382	0	32712	32512	
4383	0	32714	32548	
4384	0	32764	32598	
4385	0	32804	32496	
4386	0	32744	32482	
4387	0	32736	32604	
4388	0	32786	32728	
4389	0	32828	32750	
4390	0	32754	32786	
4391	0	32748	32740	
4392	0	32802	32879	
4393	0	32910	32863	
4394	0	32832	32870	
4395	0	32800	32700	
4396	0	32830	32742	
4397	0	32922	32806	
4398	0	32844	32732	
4399	0	32872	32711	
4400	0	32948	32846	
4401	0	32946	32836	
4402	0	32944	32878	
4403	0	32892	32910	
4404	0	32840	32903	
4405	0	32740	32702	
4406	0	32800	32760	
4407	0	32820	32624	
4408	0	32800	32774	
4409	0	32768	32830	
4410	0	32784	32842	
4411	0	32832	32794	
4412	0	32896	32738	
4413	0	32808	32964	
4414	0	32892	32918	
4415	0	32878	32835	
4416	0	32844	32864	
4417	0	32898	32720	
4418	0	32792	32879	
4419	0	32776	32700	
4420	0	32840	32646	
4421	0	32690	32642	
4422	0	32792	32876	
4423	0	32800	32687	
4424	0	32816	32567	
4425	0	32746	32510	
4426	0	32764	32540	
4427	0	32814	32647	
4428	0	32740	32696	
4429	0	32728	32807	
4430	0	32682	32668	
4431	0	32712	32704	
4432	0	32752	32940	
4433	0	32852	32954	
4434	0	32836	33094	
4435	0	32924	33209	
4436	0	32916	33226	
4437	0	32888	33192	
4438	0	32866	32996	
4439	0	32796	32964	
4440	0	32828	32908	
4441	0	32728	32974	
4442	0	32750	33000	
4443	0	32908	33088	
4444	0	32756	32662	
4445	0	32744	32548	
4446	0	32780	32634	
4447	0	32814	32618	
4448	0	32850	32496	
4449	0	32774	32791	
4450	0	32868	32838	
4451	0	32788	32954	
4452	0	32760	32900	
4453	0	32768	33031	
4454	0	32830	33000	
4455	0	32804	32862	
4456	0	32846	32975	
4457	0	32766	32948	
4458	0	32798	32994	
4459	0	32832	32858	
4460	0	32824	32852	
4461	0	32780	32692	
4462	0	32800	32618	
4463	0	32824	32709	
4464	0	32804	32742	
4465	0	32860	32775	
4466	0	32822	32839	
4467	0	32784	32820	
4468	0	32872	32694	
4469	0	32792	32770	
4470	0	32812	32695	
4471	0	32768	32702	
4472	0	32874	32679	
4473	0	32824	32762	
4474	0	32814	32878	
4475	0	32848	32920	
4476	0	32848	32856	
4477	0	32788	32640	
4478	0	32780	32654	
4479	0	32856	32736	
4480	0	32824	32696	
4481	0	32770	32726	
4482	0	32768	32615	
4483	0	32768	32572	
4484	0	32738	32580	
4485	0	32744	32770	
4486	0	32808	32810	
4487	0	32824	32770	
4488	0	32862	32763	
4489	0	32764	32804	
4490	0	32802	32794	
4491	0	32860	32784	
4492	0	32840	32722	
4493	0	32864	32770	
4494	0	32864	32920	
4495	0	32884	32868	
4496	0	32866	32820	
4497	0	32906	32820	
4498	0	32890	32775	
4499	0	32904	32790	
4500	0	32788	32752	
4501	0	32790	32720	
4502	0	32762	32854	
4503	0	32764	32775	
4504	0	32832	32657	
4505	0	32804	32762	
4506	0	32793	32752	
4507	0	32778	32510	
4508	0	32832	32670	
4509	0	32758	32740	
4510	0	32828	32734	
4511	0	32770	32884	
4512	0	32754	32862	
4513	0	32860	32866	
4514	0	32778	32758	
4515	0	32848	32732	
4516	0	32854	32710	
4517	0	32876	32636	
4518	0	32838	32770	
4519	0	32808	32710	
4520	0	32876	32908	
4521	0	32836	32846	
4522	0	32760	32738	
4523	0	32750	32726	
4524	0	32792	32630	
4525	0	32772	32666	
4526	0	32804	32596	
4527	0	32802	32654	
4528	0	32792	32746	
4529	0	32768	32770	
4530	0	32776	32791	
4531	0	32832	32716	
4532	0	32886	32757	
4533	0	32870	32774	
4534	0	32820	32740	
4535	0	32796	32751	
4536	0	32850	32783	
4537	0	32822	32642	
4538	0	32840	32750	
4539	0	32800	32731	
4540	0	32796	32711	
4541	0	32848	32896	
4542	0	32820	33020	
4543	0	32776	32894	
4544	0	32752	32815	
4545	0	32804	32710	
4546	0	32804	32736	
4547	0	32800	32854	
4548	0	32724	32814	
4549	0	32780	32904	
4550	0	32864	32906	
4551	0	32834	32900	
4552	0	32824	32844	
4553	0	32866	32815	
4554	0	32804	32736	
4555	0	32886	32728	
4556	0	32840	32628	
4557	0	32906	32756	
4558	0	32774	32810	
4559	0	32796	32886	
4560	0	32812	32806	
4561	0	32812	32772	
4562	0	32740	32743	
4563	0	32772	32830	
4564	0	32772	32639	
4565	0	32800	32564	
4566	0	32804	32614	
4567	0	32776	32704	
4568	0	32788	32775	
4569	0	32790	32682	
4570	0	32808	32506	
4571	0	32832	32708	
4572	0	32752	32764	
4573	0	32808	32852	
4574	0	32792	32850	
4575	0	32864	32831	
4576	0	32828	32775	
4577	0	32845	32852	
4578	0	32792	32774	
4579	0	32696	32858	
4580	0	32816	32838	
4581	0	32832	32839	
4582	0	32824	32871	
4583	0	32810	32839	
4584	0	32872	32762	
4585	0	32786	32808	
4586	0	32750	32828	
4587	0	32775	32764	
4588	0	32772	32732	
4589	0	32806	32630	
4590	0	32780	32644	
4591	0	32804	32698	
4592	0	32794	32628	
4593	0	32802	32675	
4594	0	32796	32682	
4595	0	32880	32804	
4596	0	32860	32796	
4597	0	32842	32760	
4598	0	32818	32804	
4599	0	32878	32758	
4600	0	32880	32804	
4601	0	32820	32848	
4602	0	32768	32886	
4603	0	32792	32826	
4604	0	32820	32848	
4605	0	32780	32956	
4606	0	32798	32766	
4607	0	32804	32832	
4608	0	32764	32775	
4609	0	32834	32742	
4610	0	32798	32633	
4611	0	32832	32775	
4612	0	32816	32775	
4613	0	32804	32895	
4614	0	32775	32708	
4615	0	32834	32706	
4616	0	32840	32840	
4617	0	32844	32824	
4618	0	32808	32743	
4619	0	32860	32788	
4620	0	32804	32996	
4621	0	32836	32870	
4622	0	32784	32838	
4623	0	32788	32727	
4624	0	32804	32842	
4625	0	32812	32821	
4626	0	32790	32858	
4627	0	32762	32775	
4628	0	32808	32746	
4629	0	32858	32772	
4630	0	32836	32807	
4631	0	32816	32824	
4632	0	32840	32820	
4633	0	32874	32815	
4634	0	32848	32823	
4635	0	32764	32788	
4636	0	32836	32752	
4637	0	32786	32738	
4638	0	32920	32878	
4639	0	32898	32758	
4640	0	32860	32770	
4641	0	32824	32775	
4642	0	32802	32698	
4643	0	32840	32704	
4644	0	32784	32740	
4645	0	32708	32758	
4646	0	32712	32757	
4647	0	32774	32828	
4648	0	32760	32766	
4649	0	32856	32721	
4650	0	32852	32742	
4651	0	32816	32734	
4652	0	32792	32794	
4653	0	32848	32774	
4654	0	32888	32775	
4655	0	32804	32774	
4656	0	32858	32828	
4657	0	32792	32784	
4658	0	32810	32708	
4659	0	32824	32804	
4660	0	32836	32768	
4661	0	32848	32760	
4662	0	32788	32844	
4663	0	32816	32766	
4664	0	32828	32768	
4665	0	32748	32870	
4666	0	32836	32748	
4667	0	32856	32647	
4668	0	32732	32804	
4669	0	32780	32716	
4670	0	32832	32814	
4671	0	32744	32804	
4672	0	32810	32804	
4673	0	32800	32734	
4674	0	32784	32708	
4675	0	32824	32702	
4676	0	32812	32860	
4677	0	32840	32758	
4678	0	32826	32720	
4679	0	32834	32665	
4680	0	32828	32760	
4681	0	32816	32607	
4682	0	32756	32838	
4683	0	32842	32758	
4684	0	32858	32788	
4685	0	32780	32732	
4686	0	32832	32775	
4687	0	32768	32890	
4688	0	32816	32895	
4689	0	32852	32824	
4690	0	32756	32866	
4691	0	32772	32712	
4692	0	32816	32718	
4693	0	32742	32599	
4694	0	32808	32672	
4695	0	32842	32681	
4696	0	32792	32816	
4697	0	32801	32727	
4698	0	32818	32668	
4699	0	32754	32863	
4700	0	32824	32865	
4701	0	32792	32850	
4702	0	32812	32755	
4703	0	32714	32710	
4704	0	32788	32636	
4705	0	32852	32639	
4706	0	32826	32752	
4707	0	32804	32864	
4708	0	32828	32844	
4709	0	32892	32862	
4710	0	32776	32943	
4711	0	32804	32903	
4712	0	32824	32844	
4713	0	32738	32732	
4714	0	32796	32642	
4715	0	32824	32826	
4716	0	32816	32730	
4717	0	32844	32740	
4718	0	32820	32836	
4719	0	32832	32692	
4720	0	32832	32680	
4721	0	32864	32775	
4722	0	32864	32800	
4723	0	32800	32734	
4724	0	32804	32736	
4725	0	32792	32852	
4726	0	32748	32796	
4727	0	32832	32724	
4728	0	32752	32770	
4729	0	32772	32788	
4730	0	32870	32810	
4731	0	32860	32916	
4732	0	32798	32815	
4733	0	32852	32678	
4734	0	32810	32736	
4735	0	32810	32822	
4736	0	32836	32748	
4737	0	32804	32898	
4738	0	32836	32818	
4739	0	32848	32754	
4740	0	32854	32736	
4741	0	32818	32794	
4742	0	32756	32720	
4743	0	32844	32903	
4744	0	32808	32878	
4745	0	32784	32838	
4746	0	32852	32834	
4747	0	32810	32806	
4748	0	32808	32680	
4749	0	32724	32718	
4750	0	32756	32703	
4751	0	32796	32844	
4752	0	32796	32847	
4753	0	32878	32802	
4754	0	32826	32828	
4755	0	32854	32728	
4756	0	32810	32712	
4757	0	32840	32796	
4758	0	32832	32866	
4759	0	32820	32766	
4760	0	32872	32775	
4761	0	32796	32766	
4762	0	32822	32796	
4763	0	32732	32647	
4764	0	32868	32702	
4765	0	32792	32796	
4766	0	32830	32756	
4767	0	32788	32863	
4768	0	32788	32762	
4769	0	32812	32748	
4770	0	32808	32700	
4771	0	32756	32808	
4772	0	32812	32703	
4773	0	32840	32720	
4774	0	32856	32788	
4775	0	32892	32748	
4776	0	32828	32712	
4777	0	32834	32638	
4778	0	32778	32804	
4779	0	32708	32756	
4780	0	32756	32798	
4781	0	32796	32910	
4782	0	32812	32850	
4783	0	32752	32711	
4784	0	32816	32686	
4785	0	32832	32822	
4786	0	32792	32744	
4787	0	32810	32728	
4788	0	32838	32748	
4789	0	32804	32730	
4790	0	32782	32680	
4791	0	32836	32614	
4792	0	32832	32634	
4793	0	32900	32662	
4794	0	32816	32641	
4795	0	32864	32668	
4796	0	32772	32807	
4797	0	32768	32724	
4798	0	32788	32762	
4799	0	32800	32754	
4800	0	32762	32722	
4801	0	32792	32806	
4802	0	32826	32720	
4803	0	32802	32692	
4804	0	32768	32738	
4805	0	32792	32714	
4806	0	32816	32764	
4807	0	32832	32764	
4808	0	32860	32716	
4809	0	32804	32858	
4810	0	32788	32790	
4811	0	32868	32807	
4812	0	32844	32736	
4813	0	32804	32744	
4814	0	32832	32820	
4815	0	32824	32788	
4816	0	32816	32668	
4817	0	32896	32647	
4818	0	32860	32842	
4819	0	32820	32830	
4820	0	32872	32758	
4821	0	32748	32714	
4822	0	32756	32772	
4823	0	32796	32687	
4824	0	32756	32710	
4825	0	32804	32775	
4826	0	32796	32954	
4827	0	32798	32800	
4828	0	32784	32842	
4829	0	32860	32868	
4830	0	32820	32775	
4831	0	32815	32716	
4832	0	32744	32832	
4833	0	32753	32711	
4834	0	32804	32852	
4835	0	32792	32868	
4836	0	32820	32844	
4837	0	32868	32676	
4838	0	32858	32665	
4839	0	32772	32788	
4840	0	32820	32772	
4841	0	32824	32860	
4842	0	32806	32766	
4843	0	32832	32686	
4844	0	32816	32603	
4845	0	32800	32775	
4846	0	32832	32722	
4847	0	32760	32822	
4848	0	32810	32812	
4849	0	32764	32674	
4850	0	32794	32814	
4851	0	32812	32775	
4852	0	32880	32728	
4853	0	32784	32578	
4854	0	32852	32786	
4855	0	32808	32744	
4856	0	32834	32768	
4857	0	32808	32622	
4858	0	32804	32769	
4859	0	32816	32726	
4860	0	32848	32668	
4861	0	32844	32718	
4862	0	32768	32648	
4863	0	32836	32711	
4864	0	32894	32796	
4865	0	32842	32709	
4866	0	32780	32711	
4867	0	32788	32816	
4868	0	32816	32734	
4869	0	32792	32678	
4870	0	32766	32794	
4871	0	32824	32792	
4872	0	32832	32734	
4873	0	32838	32810	
4874	0	32816	32836	
4875	0	32852	32718	
4876	0	32836	32692	
4877	0	32874	32775	
4878	0	32840	32816	
4879	0	32852	32800	
4880	0	32784	32752	
4881	0	32793	32821	
4882	0	32804	32678	
4883	0	32774	32870	
4884	0	32756	32839	
4885	0	32788	32760	
4886	0	32796	32802	
4887	0	32764	32734	
4888	0	32856	32681	
4889	0	32816	32818	
4890	0	32776	32767	
4891	0	32780	32774	
4892	0	32825	32842	
4893	0	32876	32804	
4894	0	32878	32726	
4895	0	32816	32742	
4896	0	32818	32788	
4897	0	32796	32810	
4898	0	32824	32836	
4899	0	32804	32750	
4900	0	32776	32788	
4901	0	32772	32897	
4902	0	32776	32762	
4903	0	32828	32742	
4904	0	32868	32712	
4905	0	32752	32798	
4906	0	32812	32792	
4907	0	32850	32828	
4908	0	32800	32814	
4909	0	32800	32900	
4910	0	32828	32807	
4911	0	32780	32800	
4912	0	32816	32702	
4913	0	32812	32730	
4914	0	32806	32775	
4915	0	32856	32730	
4916	0	32858	32722	
4917	0	32848	32718	
4918	0	32812	32796	
4919	0	32802	32655	
4920	0	32740	32654	
4921	0	32784	32638	
4922	0	32780	32801	
4923	0	32744	32706	
4924	0	32766	32679	
4925	0	32780	32646	
4926	0	32692	32686	
4927	0	32778	32660	
4928	0	32728	32598	
4929	0	32728	32583	
4930	0	32728	32625	
4931	0	32700	32775	
4932	0	32728	32739	
4933	0	32760	32696	
4934	0	32726	32732	
4935	0	32800	32770	
4936	0	32856	32728	
4937	0	32848	32839	
4938	0	32880	32775	
4939	0	32854	32670	
4940	0	32816	32875	
4941	0	32844	32969	
4942	0	32958	32922	
4943	0	32916	33012	
4944	0	32906	33012	
4945	0	32804	33013	
4946	0	32940	32982	
4947	0	32912	32918	
4948	0	32942	32956	
4949	0	32888	32896	
4950	0	32848	32879	
4951	0	32828	32844	
4952	0	32874	32815	
4953	0	32868	32791	
4954	0	32896	32946	
4955	0	32904	32930	
4956	0	32944	32808	
4957	0	32896	32775	
4958	0	32848	32839	
4959	0	32804	32690	
4960	0	32804	32640	
4961	0	32848	32606	
4962	0	32750	32736	
4963	0	32762	32682	
4964	0	32750	32616	
4965	0	32766	32620	
4966	0	32720	32582	
4967	0	32740	32689	
4968	0	32694	32646	
4969	0	32704	32616	
4970	0	32764	32608	
4971	0	32722	32710	
4972	0	32784	32714	
4973	0	32874	32703	
4974	0	32772	32758	
4975	0	32862	32775	
4976	0	32852	32696	
4977	0	32836	32690	
4978	0	32772	32788	
4979	0	32768	32772	
4980	0	32806	32862	
4981	0	32836	32770	
4982	0	32840	32696	
4983	0	32802	32734	
4984	0	32852	32844	
4985	0	32768	32790	
4986	0	32806	32727	
4987	0	32788	32711	
4988	0	32872	32806	
4989	0	32774	32756	
4990	0	32856	32790	
4991	0	32820	32767	
4992	0	32788	32774	
4993	0	32800	32710	
4994	0	32794	32720	
4995	0	32864	32775	
4996	0	32852	32766	
4997	0	32792	32738	
4998	0	32776	32798	
4999	0	32804	32788	
5000	0	32816	32762	
5001	0	32754	32858	
5002	0	32806	32802	
5003	0	32852	32747	
5004	0	32848	32743	
5005	0	32840	32828	
5006	0	32842	32755	
5007	0	32798	32652	
5008	0	32800	32686	
5009	0	32852	32798	
5010	0	32800	32798	
5011	0	32736	32756	
5012	0	32884	32732	
5013	0	32756	32794	
5014	0	32844	32738	
5015	0	32812	32959	
5016	0	32792	32775	
5017	0	32802	32775	
5018	0	32816	32836	
5019	0	32792	32820	
5020	0	32834	32753	
5021	0	32804	32682	
5022	0	32832	32770	
5023	0	32828	32846	
5024	0	32756	32732	
5025	0	32828	32768	
5026	0	32780	32804	
5027	0	32842	32836	
5028	0	32816	32702	
5029	0	32788	32747	
5030	0	32792	32833	
5031	0	32812	32812	
5032	0	32810	32820	
5033	0	32800	32824	
5034	0	32820	32671	
5035	0	32866	32719	
5036	0	32796	32804	
5037	0	32862	32820	
5038	0	32826	32790	
5039	0	32836	32722	
5040	0	32842	32728	
5041	0	32828	32679	
5042	0	32850	32768	
5043	0	32866	32854	
5044	0	32772	32814	
5045	0	32796	32728	
5046	0	32850	32858	
5047	0	32784	32746	
5048	0	32836	32738	
5049	0	32816	32767	
5050	0	32828	32730	
5051	0	32796	32806	
5052	0	32848	32795	
5053	0	32828	32694	
5054	0	32792	32748	
5055	0	32810	32858	
5056	0	32850	32560	
5057	0	32784	32676	
5058	0	32846	32822	
5059	0	32744	32774	
5060	0	32796	32714	
5061	0	32776	32842	
5062	0	32802	32828	
5063	0	32796	32682	
5064	0	32724	32692	
5065	0	32824	32734	
5066	0	32824	32872	
5067	0	32828	32792	
5068	0	32876	32784	
5069	0	32810	32756	
5070	0	32720	32854	
5071	0	32804	32692	
5072	0	32800	32822	
5073	0	32828	32834	
5074	0	32790	32775	
5075	0	32874	32800	
5076	0	32824	32810	
5077	0	32858	32712	
5078	0	32810	32676	
5079	0	32876	32775	
5080	0	32772	32814	
5081	0	32770	32764	
5082	0	32808	32775	
5083	0	32876	32852	
5084	0	32808	32790	
5085	0	32842	32742	
5086	0	32784	32727	
5087	0	32820	32800	
5088	0	32842	32711	
5089	0	32768	32824	
5090	0	32780	32764	
5091	0	32808	32716	
5092	0	32820	32708	
5093	0	32792	32689	
5094	0	32864	32738	
5095	0	32784	32710	
5096	0	32836	32807	
5097	0	32888	32744	
5098	0	32836	32878	
5099	0	32818	32775	
5100	0	32772	32796	
5101	0	32888	32807	
5102	0	32841	32918	
5103	0	32716	32836	
5104	0	32788	32830	
5105	0	32768	32752	
5106	0	32816	32764	
5107	0	32816	32807	
5108	0	32814	32800	
5109	0	32836	32647	
5110	0	32812	32788	
5111	0	32824	32838	
5112	0	32810	32734	
5113	0	32862	32775	
5114	0	32824	32804	
5115	0	32868	32740	
5116	0	32846	32672	
5117	0	32812	32829	
5118	0	32828	32775	
5119	0	32796	32821	
5120	0	32792	32774	
5121	0	32812	32750	
5122	0	32836	32718	
5123	0	32872	32711	
5124	0	32808	32667	
5125	0	32768	32770	
5126	0	32740	32794	
5127	0	32852	32840	
5128	0	32800	32767	
5129	0	32752	32656	
5130	0	32776	32810	
5131	0	32820	32826	
5132	0	32796	32824	
5133	0	32810	32814	
5134	0	32876	32612	
5135	0	32860	32632	
5136	0	32782	32775	
5137	0	32762	32775	
5138	0	32840	32800	
5139	0	32808	32732	
5140	0	32820	32736	
5141	0	32847	32892	
5142	0	32842	32817	
5143	0	32808	32807	
5144	0	32788	32711	
5145	0	32788	32718	
5146	0	32748	32775	
5147	0	32776	32708	
5148	0	32786	32759	
5149	0	32808	32728	
5150	0	32852	32720	
5151	0	32852	32806	
5152	0	32796	32799	
5153	0	32824	32828	
5154	0	32828	32766	
5155	0	32810	32692	
5156	0	32756	32653	
5157	0	32898	32703	
5158	0	32792	32821	
5159	0	32874	32740	
5160	0	32788	32834	
5161	0	32800	32762	
5162	0	32792	32720	
5163	0	32738	32854	
5164	0	32812	32804	
5165	0	32738	32800	
5166	0	32740	32775	
5167	0	32772	32724	
5168	0	32866	32856	
5169	0	32826	32727	
5170	0	32820	32846	
5171	0	32792	32720	
5172	0	32834	32718	
5173	0	32820	32758	
5174	0	32842	32708	
5175	0	32822	32758	
5176	0	32832	32640	
5177	0	32842	32744	
5178	0	32804	32912	
5179	0	32788	32775	
5180	0	32876	32766	
5181	0	32804	32711	
5182	0	32786	32754	
5183	0	32756	32810	
5184	0	32780	32756	
5185	0	32774	32697	
5186	0	32842	32770	
5187	0	32817	32816	
5188	0	32856	32751	
5189	0	32836	32735	
5190	0	32856	32770	
5191	0	32896	32839	
5192	0	32788	32799	
5193	0	32816	32694	
5194	0	32788	32742	
5195	0	32848	32638	
5196	0	32884	32768	
5197	0	32868	32802	
5198	0	32748	32728	
5199	0	32840	32814	
5200	0	32844	32710	
5201	0	32864	32775	
5202	0	32804	32775	
5203	0	32780	32815	
5204	0	32748	32738	
5205	0	32804	32870	
5206	0	32794	32708	
5207	0	32788	32740	
5208	0	32794	32828	
5209	0	32814	32810	
5210	0	32832	32860	
5211	0	32774	32812	
5212	0	32834	32856	
5213	0	32784	32824	
5214	0	32800	32744	
5215	0	32820	32772	
5216	0	32860	32678	
5217	0	32820	32740	
5218	0	32812	32830	
5219	0	32750	32708	
5220	0	32828	32822	
5221	0	32810	32807	
5222	0	32796	32698	
5223	0	32798	32762	
5224	0	32770	32698	
5225	0	32764	32798	
5226	0	32826	32734	
5227	0	32816	32838	
5228	0	32818	32775	
5229	0	32804	32692	
5230	0	32828	32656	
5231	0	32828	32740	
5232	0	32768	32806	
5233	0	32782	32836	
5234	0	32800	32792	
5235	0	32764	32871	
5236	0	32824	32834	
5237	0	32824	32740	
5238	0	32788	32678	
5239	0	32806	32714	
5240	0	32840	32754	
5241	0	32816	32788	
5242	0	32836	32792	
5243	0	32804	32748	
5244	0	32840	32775	
5245	0	32792	32711	
5246	0	32782	32646	
5247	0	32824	32766	
5248	0	32822	32802	
5249	0	32862	32818	
5250	0	32812	32720	
5251	0	32868	32791	
5252	0	32782	32798	
5253	0	32812	32774	
5254	0	32818	32756	
5255	0	32788	32868	
5256	0	32862	32730	
5257	0	32844	32638	
5258	0	32798	32626	
5259	0	32816	32852	
5260	0	32794	32796	
5261	0	32808	32775	
5262	0	32826	32770	
5263	0	32884	32811	
5264	0	32760	32790	
5265	0	32806	32758	
5266	0	32808	32644	
5267	0	32808	32772	
5268	0	32868	32806	
5269	0	32828	32722	
5270	0	32796	32800	
5271	0	32880	32782	
5272	0	32800	32706	
5273	0	32808	32716	
5274	0	32820	32750	
5275	0	32788	32844	
5276	0	32794	32806	
5277	0	32800	32878	
5278	0	32752	32711	
5279	0	32760	32736	
5280	0	32802	32838	
5281	0	32780	32844	
5282	0	32852	32836	
5283	0	32800	32692	
5284	0	32798	32726	
5285	0	32774	32862	
5286	0	32856	32852	
5287	0	32828	32812	
5288	0	32828	32775	
5289	0	32808	32775	
5290	0	32798	32838	
5291	0	32804	32750	
5292	0	32768	32657	
5293	0	32822	32726	
5294	0	32832	32686	
5295	0	32806	32859	
5296	0	32796	32743	
5297	0	32752	32650	
5298	0	32788	32786	
5299	0	32852	32794	
5300	0	32816	32686	
5301	0	32858	32768	
5302	0	32846	32820	
5303	0	32880	32868	
5304	0	32792	32822	
5305	0	32804	32821	
5306	0	32804	32775	
5307	0	32800	32726	
5308	0	32780	32743	
5309	0	32812	32692	
5310	0	32844	32815	
5311	0	32826	32814	
5312	0	32836	32751	
5313	0	32804	32775	
5314	0	32856	32754	
5315	0	32833	32754	
5316	0	32910	32766	
5317	0	32800	32726	
5318	0	32848	32811	
5319	0	32764	32708	
5320	0	32826	32761	
5321	0	32724	32767	
5322	0	32778	32770	
5323	0	32828	32674	
5324	0	32812	32680	
5325	0	32810	32662	
5326	0	32808	32670	
5327	0	32804	32744	
5328	0	32842	32792	
5329	0	32852	32839	
5330	0	32834	32807	
5331	0	32800	32800	
5332	0	32812	32793	
5333	0	32828	32807	
5334	0	32852	32835	
5335	0	32828	32768	
5336	0	32818	32854	
5337	0	32788	32766	
5338	0	32806	32813	
5339	0	32832	32788	
5340	0	32848	32694	
5341	0	32892	32706	
5342	0	32756	32716	
5343	0	32776	32703	
5344	0	32782	32760	
5345	0	32848	32754	
5346	0	32854	32839	
5347	0	32788	32884	
5348	0	32810	32798	
5349	0	32828	32644	
5350	0	32798	32679	
5351	0	32812	32871	
5352	0	32802	32834	
5353	0	32764	32784	
5354	0	32880	32827	
5355	0	32788	32764	
5356	0	32840	32722	
5357	0	32828	32742	
5358	0	32788	32754	
5359	0	32888	32770	
5360	0	32810	32755	
5361	0	32816	32756	
5362	0	32776	32812	
5363	0	32852	32724	
5364	0	32812	32734	
5365	0	32760	32770	
5366	0	32872	32738	
5367	0	32824	32794	
5368	0	32766	32686	
5369	0	32820	32814	
5370	0	32744	32800	
5371	0	32866	32727	
5372	0	32792	32864	
5373	0	32816	32798	
5374	0	32828	32790	
5375	0	32822	32744	
5376	0	32840	32718	
5377	0	32846	32794	
5378	0	32848	32800	
5379	0	32848	32690	
5380	0	32834	32768	
5381	0	32768	32743	
5382	0	32740	32772	
5383	0	32824	32650	
5384	0	32830	32719	
5385	0	32788	32798	
5386	0	32860	32764	
5387	0	32874	32748	
5388	0	32824	32807	
5389	0	32784	32647	
5390	0	32814	32648	
5391	0	32734	32806	
5392	0	32816	32820	
5393	0	32744	32734	
5394	0	32820	32852	
5395	0	32828	32788	
5396	0	32840	32756	
5397	0	32786	32708	
5398	0	32878	32839	
5399	0	32800	32788	
5400	0	32840	32751	
5401	0	32754	32767	
5402	0	32800	32890	
5403	0	32834	32822	
5404	0	32776	32894	
5405	0	32848	32810	
5406	0	32844	32748	
5407	0	32836	32768	
5408	0	32812	32892	
5409	0	32790	32728	
5410	0	32824	32792	
5411	0	32874	32791	
5412	0	32804	32794	
5413	0	32836	32718	
5414	0	32824	32726	
5415	0	32766	32678	
5416	0	32852	32668	
5417	0	32760	32844	
5418	0	32868	32723	
5419	0	32800	32742	
5420	0	32826	32740	
5421	0	32780	32794	
5422	0	32808	32820	
5423	0	32806	32746	
5424	0	32780	32784	
5425	0	32832	32714	
5426	0	32752	32684	
5427	0	32804	32831	
5428	0	32772	32800	
5429	0	32838	32826	
5430	0	32848	32764	
5431	0	32762	32808	
5432	0	32828	32896	
5433	0	32860	32812	
5434	0	32848	32732	
5435	0	32824	32660	
5436	0	32880	32823	
5437	0	32764	32734	
5438	0	32792	32743	
5439	0	32840	32740	
5440	0	32826	32808	
5441	0	32796	32732	
5442	0	32780	32856	
5443	0	32900	32732	
5444	0	32824	32732	
5445	0	32836	32697	
5446	0	32826	32714	
5447	0	32790	32716	
5448	0	32786	32828	
5449	0	32824	32860	
5450	0	32810	32806	
5451	0	32810	32764	
5452	0	32772	32800	
5453	0	32800	32820	
5454	0	32862	32775	
5455	0	32844	32836	
5456	0	32784	32682	
5457	0	32844	32834	
5458	0	32759	32840	
5459	0	32846	32792	
5460	0	32784	32730	
5461	0	32848	32720	
5462	0	32808	32866	
5463	0	32846	32748	
5464	0	32796	32740	
5465	0	32840	32767	
5466	0	32788	32736	
5467	0	32852	32826	
5468	0	32772	32743	
5469	0	32850	32754	
5470	0	32820	32786	
5471	0	32832	32740	
5472	0	32860	32806	
5473	0	32804	32760	
5474	0	32788	32706	
5475	0	32822	32682	
5476	0	32806	32676	
5477	0	32804	32590	
5478	0	32776	32682	
5479	0	32832	32775	
5480	0	32792	32758	
5481	0	32848	32826	
5482	0	32804	32830	
5483	0	32792	32831	
5484	0	32812	32814	
5485	0	32800	32744	
5486	0	32772	32774	
5487	0	32758	32783	
5488	0	32768	32798	
5489	0	32856	32758	
5490	0	32840	32764	
5491	0	32844	32822	
5492	0	32830	32792	
5493	0	32834	32790	
5494	0	32854	32654	
5495	0	32826	32671	
5496	0	32820	32798	
5497	0	32844	32849	
5498	0	32752	32826	
5499	0	32802	32858	
5500	0	32816	32775	
5501	0	32828	32766	
5502	0	32860	32868	
5503	0	32840	32732	
5504	0	32816	32686	
5505	0	32772	32672	
5506	0	32804	32786	
5507	0	32814	32754	
5508	0	32896	32839	
5509	0	32752	32838	
5510	0	32804	32771	
5511	0	32828	32702	
5512	0	32768	32668	
5513	0	32848	32714	
5514	0	32828	32688	
5515	0	32862	32854	
5516	0	32866	32820	
5517	0	32778	32761	
5518	0	32776	32760	
5519	0	32744	32775	
5520	0	32764	32758	
5521	0	32858	32830	
5522	0	32808	32824	
5523	0	32792	32838	
5524	0	32792	32741	
5525	0	32806	32775	
5526	0	32816	32718	
5527	0	32804	32720	
5528	0	32820	32721	
5529	0	32716	32724	
5530	0	32756	32676	
5531	0	32860	32878	
5532	0	32796	32866	
5533	0	32826	32676	
5534	0	32836	32839	
5535	0	32816	32880	
5536	0	32794	32788	
5537	0	32876	32775	
5538	0	32868	32775	
5539	0	32784	32742	
5540	0	32828	32830	
5541	0	32782	32787	
5542	0	32836	32718	
5543	0	32792	32678	
5544	0	32744	32682	
5545	0	32886	32854	
5546	0	32852	32812	
5547	0	32820	32796	
5548	0	32760	32775	
5549	0	32736	32700	
5550	0	32836	32694	
5551	0	32828	32754	
5552	0	32900	32766	
5553	0	32776	32775	
5554	0	32821	32790	
5555	0	32832	32732	
5556	0	32832	32694	
5557	0	32848	32740	
5558	0	32820	32718	
5559	0	32817	32743	
5560	0	32876	32710	
5561	0	32822	32788	
5562	0	32824	32890	
5563	0	32752	32775	
5564	0	32834	32752	
5565	0	32856	32818	
5566	0	32848	32732	
5567	0	32800	32695	
5568	0	32788	32696	
5569	0	32760	32752	
5570	0	32810	32756	
5571	0	32762	32772	
5572	0	32728	32788	
5573	0	32818	32728	
5574	0	32828	32670	
5575	0	32792	32730	
5576	0	32786	32848	
5577	0	32796	32770	
5578	0	32852	32806	
5579	0	32890	32806	
5580	0	32796	32842	
5581	0	32838	32870	
5582	0	32804	32890	
5583	0	32814	32838	
5584	0	32864	32692	
5585	0	32806	32746	
5586	0	32812	32714	
5587	0	32808	32822	
5588	0	32792	32820	
5589	0	32774	32814	
5590	0	32800	32764	
5591	0	32860	32830	
5592	0	32894	32834	
5593	0	32828	32739	
5594	0	32834	32658	
5595	0	32832	32642	
5596	0	32800	32719	
5597	0	32764	32732	
5598	0	32768	32742	
5599	0	32772	32728	
5600	0	32858	32799	
5601	0	32754	32740	
5602	0	32808	32624	
5603	0	32770	32647	
5604	0	32812	32730	
5605	0	32764	32687	
5606	0	32796	32608	
5607	0	32796	32644	
5608	0	32728	32647	
5609	0	32780	32710	
5610	0	32724	32662	
5611	0	32752	32647	
5612	0	32776	32694	
5613	0	32760	32646	
5614	0	32754	32668	
5615	0	32736	32814	
5616	0	32808	32828	
5617	0	32740	32726	
5618	0	32780	32644	
5619	0	32762	32764	
5620	0	32784	32844	
5621	0	32768	32870	
5622	0	32836	32831	
5623	0	32840	32922	
5624	0	32832	32816	
5625	0	32782	32831	
5626	0	32840	33004	
5627	0	32890	33026	
5628	0	32848	32978	
5629	0	32960	32942	
5630	0	32932	32999	
5631	0	32968	32889	
5632	0	32952	32848	
5633	0	32926	32938	
5634	0	32856	32775	
5635	0	32832	32865	
5636	0	32892	32920	
5637	0	32906	32928	
5638	0	32922	32860	
5639	0	32854	32910	
5640	0	32822	32938	
5641	0	32806	32796	
5642	0	32864	32814	
5643	0	32820	32814	
5644	0	32828	32612	
5645	0	32860	32602	
5646	0	32840	32560	
5647	0	32788	32665	
5648	0	32764	32612	
5649	0	32720	32633	
5650	0	32794	32678	
5651	0	32784	32591	
5652	0	32716	32700	
5653	0	32780	32744	
5654	0	32770	32758	
5655	0	32750	32644	
5656	0	32812	32626	
5657	0	32804	32670	
5658	0	32872	32774	
5659	0	32736	32722	
5660	0	32808	32772	
5661	0	32786	32844	
5662	0	32762	32784	
5663	0	32768	32738	
5664	0	32802	32740	
5665	0	32796	32852	
5666	0	32808	32812	
5667	0	32788	32775	
5668	0	32758	32742	
5669	0	32808	32786	
5670	0	32836	32679	
5671	0	32840	32638	
5672	0	32788	32853	
5673	0	32820	32748	
5674	0	32772	32775	
5675	0	32840	32893	
5676	0	32824	32821	
5677	0	32828	32752	
5678	0	32896	32728	
5679	0	32724	32766	
5680	0	32764	32740	
5681	0	32876	32847	
5682	0	32846	32724	
5683	0	32826	32772	
5684	0	32800	32822	
5685	0	32814	32816	
5686	0	32802	32775	
5687	0	32840	32663	
5688	0	32800	32668	
5689	0	32864	32686	
5690	0	32804	32696	
5691	0	32740	32840	
5692	0	32836	32710	
5693	0	32824	32752	
5694	0	32884	32830	
5695	0	32848	32788	
5696	0	32798	32674	
5697	0	32798	32692	
5698	0	32806	32818	
5699	0	32866	32771	
5700	0	32848	32802	
5701	0	32792	32764	
5702	0	32800	32808	
5703	0	32800	32804	
5704	0	32832	32718	
5705	0	32880	32736	
5706	0	32768	32788	
5707	0	32856	32764	
5708	0	32760	32775	
5709	0	32792	32834	
5710	0	32804	32714	
5711	0	32832	32679	
5712	0	32804	32805	
5713	0	32852	32800	
5714	0	32808	32866	
5715	0	32816	32812	
5716	0	32788	32722	
5717	0	32764	32624	
5718	0	32806	32751	
5719	0	32788	32738	
5720	0	32826	32854	
5721	0	32792	32703	
5722	0	32836	32794	
5723	0	32834	32743	
5724	0	32840	32766	
5725	0	32856	32754	
5726	0	32800	32742	
5727	0	32792	32790	
5728	0	32840	32756	
5729	0	32775	32852	
5730	0	32780	32867	
5731	0	32834	32775	
5732	0	32812	32852	
5733	0	32824	32817	
5734	0	32808	32868	
5735	0	32860	32734	
5736	0	32836	32708	
5737	0	32840	32775	
5738	0	32792	32793	
5739	0	32824	32775	
5740	0	32804	32760	
5741	0	32800	32879	
5742	0	32842	32744	
5743	0	32800	32679	
5744	0	32812	32660	
5745	0	32784	32757	
5746	0	32860	32775	
5747	0	32776	32746	
5748	0	32758	32710	
5749	0	32796	32880	
5750	0	32775	32836	
5751	0	32818	32736	
5752	0	32772	32670	
5753	0	32846	32726	
5754	0	32840	32772	
5755	0	32768	32806	
5756	0	32860	32774	
5757	0	32840	32742	
5758	0	32774	32838	
5759	0	32820	32836	
5760	0	32798	32751	
5761	0	32844	32752	
5762	0	32796	32852	
5763	0	32792	32828	
5764	0	32828	32764	
5765	0	32802	32806	
5766	0	32761	32804	
5767	0	32788	32806	
5768	0	32792	32647	
5769	0	32774	32726	
5770	0	32818	32739	
5771	0	32796	32766	
5772	0	32792	32842	
5773	0	32812	32764	
5774	0	32800	32792	
5775	0	32836	32764	
5776	0	32900	32775	
5777	0	32824	32791	
5778	0	32824	32719	
5779	0	32804	32700	
5780	0	32844	32704	
5781	0	32806	32744	
5782	0	32810	32814	
5783	0	32840	32775	
5784	0	32772	32775	
5785	0	32774	32772	
5786	0	32792	32716	
5787	0	32808	32748	
5788	0	32868	32817	
5789	0	32856	32728	
5790	0	32820	32772	
5791	0	32780	32764	
5792	0	32808	32798	
5793	0	32824	32692	
5794	0	32865	32802	
5795	0	32820	32756	
5796	0	32834	32838	
5797	0	32778	32775	
5798	0	32842	32844	
5799	0	32792	32756	
5800	0	32784	32742	
5801	0	32768	32626	
5802	0	32817	32793	
5803	0	32784	32792	
5804	0	32784	32732	
5805	0	32848	32750	
5806	0	32724	32737	
5807	0	32780	32762	
5808	0	32808	32775	
5809	0	32768	32708	
5810	0	32800	32846	
5811	0	32780	32840	
5812	0	32832	32903	
5813	0	32768	32714	
5814	0	32802	32690	
5815	0	32806	32688	
5816	0	32832	32708	
5817	0	32786	32703	
5818	0	32830	32743	
5819	0	32820	32852	
5820	0	32884	32806	
5821	0	32804	32823	
5822	0	32796	32831	
5823	0	32712	32756	
5824	0	32900	32743	
5825	0	32860	32711	
5826	0	32814	32802	
5827	0	32800	32872	
5828	0	32718	32798	
5829	0	32824	32820	
5830	0	32850	32690	
5831	0	32860	32697	
5832	0	32834	32668	
5833	0	32824	32710	
5834	0	32807	32790	
5835	0	32814	32760	
5836	0	32818	32790	
5837	0	32776	32802	
5838	0	32802	32775	
5839	0	32776	32815	
5840	0	32888	32810	
5841	0	32802	32738	
5842	0	32808	32812	
5843	0	32816	32686	
5844	0	32800	32756	
5845	0	32852	32716	
5846	0	32840	32681	
5847	0	32820	32726	
5848	0	32784	32644	
5849	0	32808	32702	
5850	0	32798	32738	
5851	0	32764	32704	
5852	0	32834	32732	
5853	0	32884	32758	
5854	0	32834	32704	
5855	0	32836	32775	
5856	0	32802	32807	
5857	0	32826	32775	
5858	0	32832	32728	
5859	0	32800	32731	
5860	0	32802	32866	
5861	0	32858	32816	
5862	0	32852	32806	
5863	0	32812	32754	
5864	0	32808	32774	
5865	0	32740	32670	
5866	0	32866	32834	
5867	0	32842	32851	
5868	0	32812	32874	
5869	0	32832	32780	
5870	0	32800	32823	
5871	0	32840	32774	
5872	0	32844	32848	
5873	0	32852	32688	
5874	0	32826	32684	
5875	0	32844	32727	
5876	0	32828	32679	
5877	0	32800	32735	
5878	0	32760	32782	
5879	0	32870	32820	
5880	0	32808	32863	
5881	0	32790	32764	
5882	0	32804	32724	
5883	0	32860	32806	
5884	0	32848	32836	
5885	0	32814	32742	
5886	0	32752	32679	
5887	0	32788	32674	
5888	0	32794	32693	
5889	0	32866	32788	
5890	0	32836	32798	
5891	0	32782	32826	
5892	0	32792	32810	
5893	0	32766	32775	
5894	0	32828	32790	
5895	0	32828	32824	
5896	0	32828	32864	
5897	0	32736	32764	
5898	0	32828	32676	
5899	0	32800	32764	
5900	0	32874	32850	
5901	0	32834	32750	
5902	0	32788	32812	
5903	0	32776	32666	
5904	0	32768	32710	
5905	0	32775	32792	
5906	0	32858	32830	
5907	0	32768	32796	
5908	0	32874	32834	
5909	0	32788	32734	
5910	0	32796	32718	
5911	0	32789	32694	
5912	0	32830	32734	
5913	0	32828	32812	
5914	0	32816	32708	
5915	0	32775	32812	
5916	0	32844	32847	
5917	0	32872	32746	
5918	0	32866	32706	
5919	0	32822	32708	
5920	0	32836	32862	
5921	0	32844	32744	
5922	0	32804	32766	
5923	0	32752	32762	
5924	0	32860	32810	
5925	0	32832	32722	
5926	0	32732	32744	
5927	0	32782	32716	
5928	0	32866	32828	
5929	0	32808	32799	
5930	0	32866	32730	
5931	0	32848	32774	
5932	0	32832	32864	
5933	0	32888	32740	
5934	0	32844	32652	
5935	0	32804	32682	
5936	0	32777	32764	
5937	0	32788	32718	
5938	0	32780	32756	
5939	0	32812	32770	
5940	0	32832	32794	
5941	0	32778	32824	
5942	0	32852	32754	
5943	0	32808	32694	
5944	0	32804	32726	
5945	0	32788	32638	
5946	0	32796	32772	
5947	0	32832	32842	
5948	0	32772	32766	
5949	0	32812	32764	
5950	0	32818	32750	
5951	0	32828	32774	
5952	0	32866	32848	
5953	0	32836	32814	
5954	0	32798	32788	
5955	0	32848	32718	
5956	0	32808	32684	
5957	0	32800	32826	
5958	0	32834	32836	
5959	0	32792	32754	
5960	0	32784	32770	
5961	0	32816	32775	
5962	0	32826	32711	
5963	0	32806	32772	
5964	0	32832	32719	
5965	0	32836	32802	
5966	0	32802	32818	
5967	0	32784	32711	
5968	0	32870	32842	
5969	0	32840	32750	
5970	0	32816	32839	
5971	0	32784	32711	
5972	0	32850	32744	
5973	0	32828	32742	
5974	0	32792	32804	
5975	0	32812	32758	
5976	0	32788	32734	
5977	0	32825	32686	
5978	0	32824	32766	
5979	0	32772	32792	
5980	0	32856	32816	
5981	0	32776	32844	
5982	0	32808	32684	
5983	0	32780	32834	
5984	0	32864	32812	
5985	0	32824	32752	
5986	0	32712	32734	
5987	0	32792	32716	
5988	0	32846	32898	
5989	0	32852	32736	
5990	0	32860	32744	
5991	0	32762	32670	
5992	0	32832	32704	
5993	0	32782	32794	
5994	0	32856	32799	
5995	0	32790	32740	
5996	0	32832	32838	
5997	0	32852	32768	
5998	0	32816	32706	
5999	0	32796	32676	
6000	0	32856	32764	
6001	0	32784	32775	
6002	0	32826	32766	
6003	0	32816	32775	
6004	0	32766	32862	
6005	0	32810	32826	
6006	0	32820	32714	
6007	0	32780	32756	
6008	0	32800	32746	
6009	0	32772	32818	
6010	0	32834	32726	
6011	0	32844	32796	
6012	0	32848	32775	
